创建为新数据集,样品 1164 用户 Administrator 日期 星期二, 七月 30 2019
cm-1,%T
10000.00,2.48
9999.00,2.43
9998.00,2.38
9997.00,2.33
9996.00,2.28
9995.00,2.23
9994.00,2.18
9993.00,2.14
9992.00,2.09
9991.00,2.05
9990.00,2.02
9989.00,1.99
9988.00,1.96
9987.00,1.94
9986.00,1.92
9985.00,1.91
9984.00,1.91
9983.00,1.91
9982.00,1.92
9981.00,1.93
9980.00,1.94
9979.00,1.96
9978.00,1.97
9977.00,1.99
9976.00,2.01
9975.00,2.03
9974.00,2.04
9973.00,2.06
9972.00,2.07
9971.00,2.09
9970.00,2.10
9969.00,2.11
9968.00,2.12
9967.00,2.13
9966.00,2.13
9965.00,2.14
9964.00,2.15
9963.00,2.15
9962.00,2.15
9961.00,2.15
9960.00,2.15
9959.00,2.15
9958.00,2.14
9957.00,2.14
9956.00,2.13
9955.00,2.11
9954.00,2.10
9953.00,2.08
9952.00,2.06
9951.00,2.05
9950.00,2.03
9949.00,2.01
9948.00,1.99
9947.00,1.98
9946.00,1.96
9945.00,1.95
9944.00,1.93
9943.00,1.92
9942.00,1.91
9941.00,1.90
9940.00,1.89
9939.00,1.87
9938.00,1.86
9937.00,1.85
9936.00,1.84
9935.00,1.82
9934.00,1.81
9933.00,1.80
9932.00,1.79
9931.00,1.78
9930.00,1.77
9929.00,1.76
9928.00,1.75
9927.00,1.75
9926.00,1.74
9925.00,1.73
9924.00,1.72
9923.00,1.72
9922.00,1.71
9921.00,1.70
9920.00,1.70
9919.00,1.70
9918.00,1.69
9917.00,1.69
9916.00,1.69
9915.00,1.70
9914.00,1.70
9913.00,1.70
9912.00,1.71
9911.00,1.72
9910.00,1.73
9909.00,1.73
9908.00,1.74
9907.00,1.75
9906.00,1.76
9905.00,1.76
9904.00,1.77
9903.00,1.77
9902.00,1.78
9901.00,1.78
9900.00,1.79
9899.00,1.80
9898.00,1.81
9897.00,1.81
9896.00,1.83
9895.00,1.84
9894.00,1.85
9893.00,1.85
9892.00,1.86
9891.00,1.86
9890.00,1.86
9889.00,1.86
9888.00,1.85
9887.00,1.84
9886.00,1.83
9885.00,1.82
9884.00,1.80
9883.00,1.79
9882.00,1.78
9881.00,1.76
9880.00,1.75
9879.00,1.74
9878.00,1.73
9877.00,1.71
9876.00,1.70
9875.00,1.68
9874.00,1.67
9873.00,1.65
9872.00,1.63
9871.00,1.61
9870.00,1.59
9869.00,1.57
9868.00,1.54
9867.00,1.52
9866.00,1.49
9865.00,1.47
9864.00,1.44
9863.00,1.42
9862.00,1.40
9861.00,1.38
9860.00,1.37
9859.00,1.35
9858.00,1.34
9857.00,1.33
9856.00,1.32
9855.00,1.31
9854.00,1.30
9853.00,1.29
9852.00,1.29
9851.00,1.28
9850.00,1.28
9849.00,1.27
9848.00,1.27
9847.00,1.27
9846.00,1.27
9845.00,1.28
9844.00,1.28
9843.00,1.29
9842.00,1.29
9841.00,1.30
9840.00,1.31
9839.00,1.32
9838.00,1.34
9837.00,1.35
9836.00,1.37
9835.00,1.38
9834.00,1.39
9833.00,1.41
9832.00,1.42
9831.00,1.43
9830.00,1.44
9829.00,1.44
9828.00,1.45
9827.00,1.46
9826.00,1.46
9825.00,1.46
9824.00,1.47
9823.00,1.47
9822.00,1.47
9821.00,1.47
9820.00,1.47
9819.00,1.47
9818.00,1.47
9817.00,1.46
9816.00,1.46
9815.00,1.46
9814.00,1.45
9813.00,1.45
9812.00,1.45
9811.00,1.45
9810.00,1.44
9809.00,1.44
9808.00,1.44
9807.00,1.43
9806.00,1.43
9805.00,1.42
9804.00,1.42
9803.00,1.41
9802.00,1.41
9801.00,1.40
9800.00,1.39
9799.00,1.39
9798.00,1.39
9797.00,1.38
9796.00,1.38
9795.00,1.38
9794.00,1.39
9793.00,1.39
9792.00,1.40
9791.00,1.40
9790.00,1.41
9789.00,1.42
9788.00,1.42
9787.00,1.43
9786.00,1.43
9785.00,1.43
9784.00,1.43
9783.00,1.44
9782.00,1.44
9781.00,1.44
9780.00,1.44
9779.00,1.44
9778.00,1.45
9777.00,1.46
9776.00,1.46
9775.00,1.47
9774.00,1.48
9773.00,1.49
9772.00,1.50
9771.00,1.51
9770.00,1.51
9769.00,1.52
9768.00,1.52
9767.00,1.52
9766.00,1.52
9765.00,1.52
9764.00,1.53
9763.00,1.53
9762.00,1.53
9761.00,1.54
9760.00,1.55
9759.00,1.56
9758.00,1.57
9757.00,1.58
9756.00,1.59
9755.00,1.60
9754.00,1.61
9753.00,1.62
9752.00,1.62
9751.00,1.63
9750.00,1.64
9749.00,1.64
9748.00,1.65
9747.00,1.65
9746.00,1.66
9745.00,1.66
9744.00,1.67
9743.00,1.67
9742.00,1.68
9741.00,1.68
9740.00,1.69
9739.00,1.69
9738.00,1.69
9737.00,1.68
9736.00,1.68
9735.00,1.67
9734.00,1.66
9733.00,1.65
9732.00,1.64
9731.00,1.64
9730.00,1.63
9729.00,1.63
9728.00,1.63
9727.00,1.63
9726.00,1.64
9725.00,1.65
9724.00,1.65
9723.00,1.66
9722.00,1.67
9721.00,1.67
9720.00,1.68
9719.00,1.68
9718.00,1.69
9717.00,1.69
9716.00,1.70
9715.00,1.71
9714.00,1.71
9713.00,1.73
9712.00,1.74
9711.00,1.76
9710.00,1.78
9709.00,1.79
9708.00,1.81
9707.00,1.82
9706.00,1.83
9705.00,1.84
9704.00,1.85
9703.00,1.85
9702.00,1.84
9701.00,1.84
9700.00,1.83
9699.00,1.82
9698.00,1.80
9697.00,1.79
9696.00,1.78
9695.00,1.77
9694.00,1.75
9693.00,1.74
9692.00,1.73
9691.00,1.71
9690.00,1.69
9689.00,1.67
9688.00,1.65
9687.00,1.63
9686.00,1.61
9685.00,1.58
9684.00,1.56
9683.00,1.53
9682.00,1.51
9681.00,1.49
9680.00,1.47
9679.00,1.45
9678.00,1.44
9677.00,1.42
9676.00,1.42
9675.00,1.41
9674.00,1.41
9673.00,1.41
9672.00,1.41
9671.00,1.41
9670.00,1.42
9669.00,1.43
9668.00,1.43
9667.00,1.44
9666.00,1.46
9665.00,1.47
9664.00,1.48
9663.00,1.50
9662.00,1.52
9661.00,1.53
9660.00,1.55
9659.00,1.57
9658.00,1.59
9657.00,1.62
9656.00,1.64
9655.00,1.66
9654.00,1.69
9653.00,1.71
9652.00,1.74
9651.00,1.76
9650.00,1.78
9649.00,1.80
9648.00,1.82
9647.00,1.84
9646.00,1.86
9645.00,1.87
9644.00,1.88
9643.00,1.89
9642.00,1.90
9641.00,1.90
9640.00,1.91
9639.00,1.92
9638.00,1.93
9637.00,1.94
9636.00,1.95
9635.00,1.95
9634.00,1.96
9633.00,1.97
9632.00,1.98
9631.00,1.99
9630.00,2.00
9629.00,2.01
9628.00,2.02
9627.00,2.02
9626.00,2.03
9625.00,2.03
9624.00,2.04
9623.00,2.05
9622.00,2.05
9621.00,2.06
9620.00,2.06
9619.00,2.07
9618.00,2.07
9617.00,2.08
9616.00,2.08
9615.00,2.09
9614.00,2.09
9613.00,2.09
9612.00,2.08
9611.00,2.08
9610.00,2.08
9609.00,2.07
9608.00,2.06
9607.00,2.06
9606.00,2.05
9605.00,2.04
9604.00,2.03
9603.00,2.02
9602.00,2.01
9601.00,1.99
9600.00,1.98
9599.00,1.97
9598.00,1.95
9597.00,1.93
9596.00,1.92
9595.00,1.90
9594.00,1.88
9593.00,1.86
9592.00,1.84
9591.00,1.82
9590.00,1.80
9589.00,1.79
9588.00,1.77
9587.00,1.75
9586.00,1.74
9585.00,1.72
9584.00,1.71
9583.00,1.70
9582.00,1.69
9581.00,1.67
9580.00,1.66
9579.00,1.65
9578.00,1.64
9577.00,1.62
9576.00,1.60
9575.00,1.58
9574.00,1.56
9573.00,1.54
9572.00,1.52
9571.00,1.49
9570.00,1.47
9569.00,1.45
9568.00,1.42
9567.00,1.40
9566.00,1.39
9565.00,1.37
9564.00,1.36
9563.00,1.34
9562.00,1.33
9561.00,1.32
9560.00,1.31
9559.00,1.29
9558.00,1.27
9557.00,1.25
9556.00,1.23
9555.00,1.21
9554.00,1.19
9553.00,1.17
9552.00,1.14
9551.00,1.12
9550.00,1.11
9549.00,1.09
9548.00,1.08
9547.00,1.08
9546.00,1.07
9545.00,1.07
9544.00,1.07
9543.00,1.08
9542.00,1.08
9541.00,1.09
9540.00,1.09
9539.00,1.10
9538.00,1.10
9537.00,1.11
9536.00,1.11
9535.00,1.12
9534.00,1.12
9533.00,1.13
9532.00,1.14
9531.00,1.15
9530.00,1.17
9529.00,1.18
9528.00,1.20
9527.00,1.23
9526.00,1.26
9525.00,1.29
9524.00,1.32
9523.00,1.35
9522.00,1.38
9521.00,1.42
9520.00,1.45
9519.00,1.49
9518.00,1.52
9517.00,1.55
9516.00,1.58
9515.00,1.61
9514.00,1.64
9513.00,1.66
9512.00,1.69
9511.00,1.71
9510.00,1.73
9509.00,1.76
9508.00,1.78
9507.00,1.80
9506.00,1.82
9505.00,1.84
9504.00,1.86
9503.00,1.87
9502.00,1.89
9501.00,1.90
9500.00,1.90
9499.00,1.91
9498.00,1.91
9497.00,1.90
9496.00,1.89
9495.00,1.88
9494.00,1.87
9493.00,1.85
9492.00,1.83
9491.00,1.81
9490.00,1.78
9489.00,1.76
9488.00,1.73
9487.00,1.70
9486.00,1.68
9485.00,1.65
9484.00,1.63
9483.00,1.61
9482.00,1.58
9481.00,1.56
9480.00,1.54
9479.00,1.52
9478.00,1.50
9477.00,1.47
9476.00,1.45
9475.00,1.43
9474.00,1.41
9473.00,1.39
9472.00,1.37
9471.00,1.36
9470.00,1.34
9469.00,1.33
9468.00,1.32
9467.00,1.32
9466.00,1.32
9465.00,1.32
9464.00,1.33
9463.00,1.33
9462.00,1.34
9461.00,1.35
9460.00,1.36
9459.00,1.38
9458.00,1.39
9457.00,1.40
9456.00,1.41
9455.00,1.42
9454.00,1.42
9453.00,1.43
9452.00,1.44
9451.00,1.45
9450.00,1.47
9449.00,1.48
9448.00,1.50
9447.00,1.52
9446.00,1.54
9445.00,1.57
9444.00,1.59
9443.00,1.61
9442.00,1.64
9441.00,1.66
9440.00,1.67
9439.00,1.69
9438.00,1.70
9437.00,1.71
9436.00,1.73
9435.00,1.73
9434.00,1.74
9433.00,1.75
9432.00,1.76
9431.00,1.77
9430.00,1.78
9429.00,1.79
9428.00,1.80
9427.00,1.81
9426.00,1.83
9425.00,1.84
9424.00,1.84
9423.00,1.85
9422.00,1.86
9421.00,1.86
9420.00,1.86
9419.00,1.86
9418.00,1.85
9417.00,1.84
9416.00,1.83
9415.00,1.82
9414.00,1.82
9413.00,1.81
9412.00,1.80
9411.00,1.79
9410.00,1.79
9409.00,1.78
9408.00,1.78
9407.00,1.78
9406.00,1.77
9405.00,1.77
9404.00,1.77
9403.00,1.77
9402.00,1.77
9401.00,1.77
9400.00,1.76
9399.00,1.76
9398.00,1.75
9397.00,1.75
9396.00,1.74
9395.00,1.74
9394.00,1.73
9393.00,1.73
9392.00,1.72
9391.00,1.72
9390.00,1.72
9389.00,1.73
9388.00,1.73
9387.00,1.74
9386.00,1.74
9385.00,1.75
9384.00,1.76
9383.00,1.76
9382.00,1.77
9381.00,1.77
9380.00,1.78
9379.00,1.78
9378.00,1.78
9377.00,1.78
9376.00,1.78
9375.00,1.78
9374.00,1.78
9373.00,1.78
9372.00,1.78
9371.00,1.79
9370.00,1.79
9369.00,1.80
9368.00,1.81
9367.00,1.81
9366.00,1.82
9365.00,1.83
9364.00,1.84
9363.00,1.84
9362.00,1.84
9361.00,1.84
9360.00,1.84
9359.00,1.84
9358.00,1.83
9357.00,1.82
9356.00,1.81
9355.00,1.80
9354.00,1.79
9353.00,1.78
9352.00,1.77
9351.00,1.76
9350.00,1.75
9349.00,1.75
9348.00,1.74
9347.00,1.74
9346.00,1.73
9345.00,1.73
9344.00,1.72
9343.00,1.71
9342.00,1.70
9341.00,1.68
9340.00,1.67
9339.00,1.65
9338.00,1.64
9337.00,1.62
9336.00,1.61
9335.00,1.60
9334.00,1.59
9333.00,1.58
9332.00,1.57
9331.00,1.56
9330.00,1.56
9329.00,1.55
9328.00,1.55
9327.00,1.54
9326.00,1.54
9325.00,1.53
9324.00,1.52
9323.00,1.51
9322.00,1.50
9321.00,1.49
9320.00,1.48
9319.00,1.46
9318.00,1.45
9317.00,1.44
9316.00,1.42
9315.00,1.41
9314.00,1.39
9313.00,1.38
9312.00,1.37
9311.00,1.35
9310.00,1.34
9309.00,1.33
9308.00,1.32
9307.00,1.31
9306.00,1.29
9305.00,1.28
9304.00,1.27
9303.00,1.25
9302.00,1.24
9301.00,1.23
9300.00,1.22
9299.00,1.21
9298.00,1.21
9297.00,1.21
9296.00,1.21
9295.00,1.21
9294.00,1.21
9293.00,1.22
9292.00,1.23
9291.00,1.25
9290.00,1.26
9289.00,1.28
9288.00,1.29
9287.00,1.31
9286.00,1.33
9285.00,1.35
9284.00,1.37
9283.00,1.39
9282.00,1.41
9281.00,1.44
9280.00,1.46
9279.00,1.48
9278.00,1.51
9277.00,1.54
9276.00,1.56
9275.00,1.59
9274.00,1.62
9273.00,1.64
9272.00,1.67
9271.00,1.69
9270.00,1.71
9269.00,1.73
9268.00,1.75
9267.00,1.76
9266.00,1.77
9265.00,1.78
9264.00,1.79
9263.00,1.80
9262.00,1.80
9261.00,1.81
9260.00,1.81
9259.00,1.81
9258.00,1.82
9257.00,1.82
9256.00,1.82
9255.00,1.82
9254.00,1.82
9253.00,1.81
9252.00,1.81
9251.00,1.80
9250.00,1.79
9249.00,1.78
9248.00,1.77
9247.00,1.76
9246.00,1.75
9245.00,1.74
9244.00,1.73
9243.00,1.71
9242.00,1.70
9241.00,1.69
9240.00,1.68
9239.00,1.66
9238.00,1.65
9237.00,1.64
9236.00,1.63
9235.00,1.61
9234.00,1.60
9233.00,1.59
9232.00,1.59
9231.00,1.58
9230.00,1.57
9229.00,1.57
9228.00,1.57
9227.00,1.56
9226.00,1.56
9225.00,1.56
9224.00,1.55
9223.00,1.55
9222.00,1.55
9221.00,1.54
9220.00,1.54
9219.00,1.53
9218.00,1.53
9217.00,1.53
9216.00,1.53
9215.00,1.53
9214.00,1.54
9213.00,1.54
9212.00,1.55
9211.00,1.55
9210.00,1.56
9209.00,1.56
9208.00,1.57
9207.00,1.57
9206.00,1.57
9205.00,1.56
9204.00,1.56
9203.00,1.55
9202.00,1.54
9201.00,1.53
9200.00,1.52
9199.00,1.51
9198.00,1.50
9197.00,1.50
9196.00,1.49
9195.00,1.49
9194.00,1.48
9193.00,1.48
9192.00,1.48
9191.00,1.48
9190.00,1.47
9189.00,1.47
9188.00,1.46
9187.00,1.46
9186.00,1.45
9185.00,1.44
9184.00,1.44
9183.00,1.44
9182.00,1.44
9181.00,1.44
9180.00,1.44
9179.00,1.44
9178.00,1.45
9177.00,1.46
9176.00,1.47
9175.00,1.48
9174.00,1.49
9173.00,1.50
9172.00,1.51
9171.00,1.52
9170.00,1.53
9169.00,1.54
9168.00,1.55
9167.00,1.56
9166.00,1.57
9165.00,1.57
9164.00,1.58
9163.00,1.59
9162.00,1.60
9161.00,1.60
9160.00,1.61
9159.00,1.62
9158.00,1.62
9157.00,1.63
9156.00,1.64
9155.00,1.64
9154.00,1.65
9153.00,1.66
9152.00,1.67
9151.00,1.68
9150.00,1.69
9149.00,1.71
9148.00,1.72
9147.00,1.73
9146.00,1.75
9145.00,1.76
9144.00,1.77
9143.00,1.78
9142.00,1.80
9141.00,1.81
9140.00,1.82
9139.00,1.83
9138.00,1.84
9137.00,1.84
9136.00,1.85
9135.00,1.86
9134.00,1.87
9133.00,1.88
9132.00,1.89
9131.00,1.90
9130.00,1.90
9129.00,1.90
9128.00,1.90
9127.00,1.89
9126.00,1.88
9125.00,1.87
9124.00,1.85
9123.00,1.83
9122.00,1.81
9121.00,1.79
9120.00,1.76
9119.00,1.74
9118.00,1.71
9117.00,1.68
9116.00,1.65
9115.00,1.63
9114.00,1.60
9113.00,1.57
9112.00,1.54
9111.00,1.52
9110.00,1.49
9109.00,1.46
9108.00,1.43
9107.00,1.41
9106.00,1.38
9105.00,1.36
9104.00,1.34
9103.00,1.32
9102.00,1.30
9101.00,1.29
9100.00,1.28
9099.00,1.27
9098.00,1.26
9097.00,1.26
9096.00,1.25
9095.00,1.25
9094.00,1.25
9093.00,1.25
9092.00,1.25
9091.00,1.26
9090.00,1.26
9089.00,1.27
9088.00,1.28
9087.00,1.30
9086.00,1.31
9085.00,1.32
9084.00,1.34
9083.00,1.35
9082.00,1.36
9081.00,1.37
9080.00,1.38
9079.00,1.39
9078.00,1.40
9077.00,1.40
9076.00,1.41
9075.00,1.41
9074.00,1.41
9073.00,1.42
9072.00,1.42
9071.00,1.42
9070.00,1.42
9069.00,1.43
9068.00,1.43
9067.00,1.43
9066.00,1.44
9065.00,1.44
9064.00,1.44
9063.00,1.44
9062.00,1.44
9061.00,1.43
9060.00,1.42
9059.00,1.42
9058.00,1.41
9057.00,1.40
9056.00,1.40
9055.00,1.39
9054.00,1.39
9053.00,1.39
9052.00,1.39
9051.00,1.39
9050.00,1.39
9049.00,1.39
9048.00,1.39
9047.00,1.39
9046.00,1.38
9045.00,1.38
9044.00,1.38
9043.00,1.37
9042.00,1.36
9041.00,1.36
9040.00,1.35
9039.00,1.34
9038.00,1.34
9037.00,1.33
9036.00,1.33
9035.00,1.33
9034.00,1.33
9033.00,1.33
9032.00,1.33
9031.00,1.34
9030.00,1.34
9029.00,1.35
9028.00,1.35
9027.00,1.36
9026.00,1.37
9025.00,1.38
9024.00,1.38
9023.00,1.39
9022.00,1.41
9021.00,1.42
9020.00,1.44
9019.00,1.46
9018.00,1.48
9017.00,1.51
9016.00,1.53
9015.00,1.56
9014.00,1.58
9013.00,1.61
9012.00,1.63
9011.00,1.65
9010.00,1.67
9009.00,1.69
9008.00,1.71
9007.00,1.73
9006.00,1.74
9005.00,1.76
9004.00,1.77
9003.00,1.79
9002.00,1.80
9001.00,1.81
9000.00,1.83
8999.00,1.84
8998.00,1.85
8997.00,1.86
8996.00,1.86
8995.00,1.87
8994.00,1.87
8993.00,1.86
8992.00,1.86
8991.00,1.85
8990.00,1.84
8989.00,1.83
8988.00,1.82
8987.00,1.81
8986.00,1.80
8985.00,1.80
8984.00,1.79
8983.00,1.79
8982.00,1.80
8981.00,1.80
8980.00,1.81
8979.00,1.81
8978.00,1.82
8977.00,1.83
8976.00,1.84
8975.00,1.84
8974.00,1.85
8973.00,1.86
8972.00,1.87
8971.00,1.88
8970.00,1.89
8969.00,1.90
8968.00,1.92
8967.00,1.93
8966.00,1.95
8965.00,1.97
8964.00,1.98
8963.00,2.00
8962.00,2.02
8961.00,2.03
8960.00,2.05
8959.00,2.06
8958.00,2.07
8957.00,2.07
8956.00,2.08
8955.00,2.07
8954.00,2.07
8953.00,2.06
8952.00,2.04
8951.00,2.03
8950.00,2.01
8949.00,2.00
8948.00,1.98
8947.00,1.96
8946.00,1.94
8945.00,1.92
8944.00,1.90
8943.00,1.87
8942.00,1.85
8941.00,1.83
8940.00,1.81
8939.00,1.78
8938.00,1.76
8937.00,1.74
8936.00,1.72
8935.00,1.70
8934.00,1.67
8933.00,1.65
8932.00,1.63
8931.00,1.62
8930.00,1.60
8929.00,1.58
8928.00,1.57
8927.00,1.56
8926.00,1.55
8925.00,1.54
8924.00,1.53
8923.00,1.52
8922.00,1.51
8921.00,1.50
8920.00,1.50
8919.00,1.49
8918.00,1.48
8917.00,1.48
8916.00,1.47
8915.00,1.46
8914.00,1.46
8913.00,1.45
8912.00,1.45
8911.00,1.44
8910.00,1.44
8909.00,1.44
8908.00,1.44
8907.00,1.44
8906.00,1.44
8905.00,1.44
8904.00,1.44
8903.00,1.45
8902.00,1.46
8901.00,1.46
8900.00,1.47
8899.00,1.48
8898.00,1.48
8897.00,1.49
8896.00,1.50
8895.00,1.51
8894.00,1.52
8893.00,1.53
8892.00,1.53
8891.00,1.54
8890.00,1.55
8889.00,1.57
8888.00,1.58
8887.00,1.59
8886.00,1.60
8885.00,1.61
8884.00,1.63
8883.00,1.64
8882.00,1.65
8881.00,1.66
8880.00,1.68
8879.00,1.69
8878.00,1.70
8877.00,1.71
8876.00,1.72
8875.00,1.74
8874.00,1.75
8873.00,1.77
8872.00,1.78
8871.00,1.80
8870.00,1.82
8869.00,1.83
8868.00,1.85
8867.00,1.87
8866.00,1.88
8865.00,1.90
8864.00,1.91
8863.00,1.92
8862.00,1.94
8861.00,1.95
8860.00,1.96
8859.00,1.97
8858.00,1.98
8857.00,1.98
8856.00,1.99
8855.00,1.99
8854.00,1.99
8853.00,1.98
8852.00,1.98
8851.00,1.97
8850.00,1.96
8849.00,1.96
8848.00,1.94
8847.00,1.93
8846.00,1.92
8845.00,1.90
8844.00,1.89
8843.00,1.87
8842.00,1.86
8841.00,1.84
8840.00,1.83
8839.00,1.82
8838.00,1.80
8837.00,1.79
8836.00,1.77
8835.00,1.76
8834.00,1.75
8833.00,1.74
8832.00,1.73
8831.00,1.72
8830.00,1.71
8829.00,1.71
8828.00,1.70
8827.00,1.70
8826.00,1.70
8825.00,1.70
8824.00,1.69
8823.00,1.69
8822.00,1.69
8821.00,1.69
8820.00,1.69
8819.00,1.69
8818.00,1.69
8817.00,1.69
8816.00,1.68
8815.00,1.68
8814.00,1.68
8813.00,1.68
8812.00,1.68
8811.00,1.67
8810.00,1.67
8809.00,1.67
8808.00,1.67
8807.00,1.66
8806.00,1.65
8805.00,1.65
8804.00,1.64
8803.00,1.63
8802.00,1.62
8801.00,1.61
8800.00,1.60
8799.00,1.59
8798.00,1.58
8797.00,1.57
8796.00,1.57
8795.00,1.57
8794.00,1.57
8793.00,1.57
8792.00,1.57
8791.00,1.57
8790.00,1.58
8789.00,1.58
8788.00,1.59
8787.00,1.59
8786.00,1.59
8785.00,1.59
8784.00,1.60
8783.00,1.60
8782.00,1.60
8781.00,1.60
8780.00,1.60
8779.00,1.60
8778.00,1.60
8777.00,1.60
8776.00,1.61
8775.00,1.61
8774.00,1.61
8773.00,1.61
8772.00,1.62
8771.00,1.62
8770.00,1.62
8769.00,1.62
8768.00,1.61
8767.00,1.60
8766.00,1.60
8765.00,1.58
8764.00,1.57
8763.00,1.56
8762.00,1.54
8761.00,1.53
8760.00,1.52
8759.00,1.50
8758.00,1.49
8757.00,1.48
8756.00,1.48
8755.00,1.47
8754.00,1.47
8753.00,1.47
8752.00,1.46
8751.00,1.47
8750.00,1.47
8749.00,1.47
8748.00,1.47
8747.00,1.47
8746.00,1.47
8745.00,1.47
8744.00,1.47
8743.00,1.46
8742.00,1.46
8741.00,1.46
8740.00,1.46
8739.00,1.45
8738.00,1.45
8737.00,1.45
8736.00,1.46
8735.00,1.46
8734.00,1.46
8733.00,1.47
8732.00,1.47
8731.00,1.48
8730.00,1.49
8729.00,1.50
8728.00,1.50
8727.00,1.51
8726.00,1.52
8725.00,1.53
8724.00,1.54
8723.00,1.55
8722.00,1.56
8721.00,1.57
8720.00,1.58
8719.00,1.59
8718.00,1.61
8717.00,1.62
8716.00,1.64
8715.00,1.65
8714.00,1.67
8713.00,1.69
8712.00,1.70
8711.00,1.72
8710.00,1.74
8709.00,1.76
8708.00,1.78
8707.00,1.79
8706.00,1.81
8705.00,1.82
8704.00,1.83
8703.00,1.83
8702.00,1.83
8701.00,1.83
8700.00,1.82
8699.00,1.82
8698.00,1.81
8697.00,1.80
8696.00,1.79
8695.00,1.78
8694.00,1.78
8693.00,1.77
8692.00,1.76
8691.00,1.76
8690.00,1.75
8689.00,1.75
8688.00,1.74
8687.00,1.74
8686.00,1.73
8685.00,1.73
8684.00,1.72
8683.00,1.71
8682.00,1.70
8681.00,1.70
8680.00,1.69
8679.00,1.69
8678.00,1.69
8677.00,1.69
8676.00,1.70
8675.00,1.70
8674.00,1.71
8673.00,1.71
8672.00,1.72
8671.00,1.72
8670.00,1.72
8669.00,1.72
8668.00,1.72
8667.00,1.72
8666.00,1.72
8665.00,1.72
8664.00,1.72
8663.00,1.71
8662.00,1.71
8661.00,1.71
8660.00,1.71
8659.00,1.70
8658.00,1.70
8657.00,1.69
8656.00,1.69
8655.00,1.68
8654.00,1.67
8653.00,1.66
8652.00,1.64
8651.00,1.63
8650.00,1.62
8649.00,1.61
8648.00,1.60
8647.00,1.59
8646.00,1.58
8645.00,1.57
8644.00,1.57
8643.00,1.56
8642.00,1.55
8641.00,1.54
8640.00,1.54
8639.00,1.53
8638.00,1.51
8637.00,1.50
8636.00,1.49
8635.00,1.48
8634.00,1.47
8633.00,1.46
8632.00,1.45
8631.00,1.44
8630.00,1.43
8629.00,1.43
8628.00,1.42
8627.00,1.42
8626.00,1.42
8625.00,1.42
8624.00,1.41
8623.00,1.41
8622.00,1.41
8621.00,1.41
8620.00,1.41
8619.00,1.41
8618.00,1.42
8617.00,1.43
8616.00,1.45
8615.00,1.46
8614.00,1.48
8613.00,1.50
8612.00,1.52
8611.00,1.55
8610.00,1.57
8609.00,1.59
8608.00,1.62
8607.00,1.64
8606.00,1.66
8605.00,1.69
8604.00,1.71
8603.00,1.73
8602.00,1.76
8601.00,1.78
8600.00,1.80
8599.00,1.82
8598.00,1.84
8597.00,1.86
8596.00,1.88
8595.00,1.90
8594.00,1.91
8593.00,1.92
8592.00,1.92
8591.00,1.92
8590.00,1.91
8589.00,1.90
8588.00,1.89
8587.00,1.87
8586.00,1.85
8585.00,1.83
8584.00,1.81
8583.00,1.79
8582.00,1.76
8581.00,1.74
8580.00,1.72
8579.00,1.69
8578.00,1.67
8577.00,1.65
8576.00,1.63
8575.00,1.60
8574.00,1.58
8573.00,1.56
8572.00,1.54
8571.00,1.52
8570.00,1.51
8569.00,1.49
8568.00,1.48
8567.00,1.47
8566.00,1.46
8565.00,1.46
8564.00,1.46
8563.00,1.46
8562.00,1.46
8561.00,1.47
8560.00,1.48
8559.00,1.49
8558.00,1.50
8557.00,1.51
8556.00,1.52
8555.00,1.53
8554.00,1.54
8553.00,1.54
8552.00,1.55
8551.00,1.55
8550.00,1.55
8549.00,1.55
8548.00,1.55
8547.00,1.55
8546.00,1.55
8545.00,1.55
8544.00,1.55
8543.00,1.55
8542.00,1.54
8541.00,1.54
8540.00,1.53
8539.00,1.53
8538.00,1.52
8537.00,1.51
8536.00,1.50
8535.00,1.49
8534.00,1.48
8533.00,1.47
8532.00,1.46
8531.00,1.46
8530.00,1.45
8529.00,1.44
8528.00,1.44
8527.00,1.44
8526.00,1.44
8525.00,1.44
8524.00,1.44
8523.00,1.44
8522.00,1.45
8521.00,1.45
8520.00,1.46
8519.00,1.46
8518.00,1.46
8517.00,1.47
8516.00,1.47
8515.00,1.47
8514.00,1.47
8513.00,1.48
8512.00,1.48
8511.00,1.48
8510.00,1.49
8509.00,1.49
8508.00,1.50
8507.00,1.50
8506.00,1.50
8505.00,1.51
8504.00,1.51
8503.00,1.51
8502.00,1.51
8501.00,1.51
8500.00,1.52
8499.00,1.52
8498.00,1.52
8497.00,1.53
8496.00,1.53
8495.00,1.54
8494.00,1.54
8493.00,1.55
8492.00,1.56
8491.00,1.56
8490.00,1.57
8489.00,1.58
8488.00,1.58
8487.00,1.59
8486.00,1.60
8485.00,1.60
8484.00,1.61
8483.00,1.61
8482.00,1.61
8481.00,1.61
8480.00,1.62
8479.00,1.62
8478.00,1.62
8477.00,1.61
8476.00,1.61
8475.00,1.61
8474.00,1.60
8473.00,1.59
8472.00,1.59
8471.00,1.57
8470.00,1.56
8469.00,1.55
8468.00,1.53
8467.00,1.51
8466.00,1.50
8465.00,1.48
8464.00,1.46
8463.00,1.44
8462.00,1.42
8461.00,1.40
8460.00,1.39
8459.00,1.37
8458.00,1.36
8457.00,1.34
8456.00,1.33
8455.00,1.32
8454.00,1.30
8453.00,1.29
8452.00,1.28
8451.00,1.28
8450.00,1.27
8449.00,1.26
8448.00,1.26
8447.00,1.25
8446.00,1.25
8445.00,1.25
8444.00,1.26
8443.00,1.26
8442.00,1.27
8441.00,1.28
8440.00,1.28
8439.00,1.29
8438.00,1.30
8437.00,1.31
8436.00,1.32
8435.00,1.33
8434.00,1.34
8433.00,1.35
8432.00,1.36
8431.00,1.37
8430.00,1.38
8429.00,1.39
8428.00,1.40
8427.00,1.42
8426.00,1.43
8425.00,1.44
8424.00,1.46
8423.00,1.47
8422.00,1.48
8421.00,1.49
8420.00,1.50
8419.00,1.51
8418.00,1.51
8417.00,1.52
8416.00,1.52
8415.00,1.53
8414.00,1.53
8413.00,1.54
8412.00,1.54
8411.00,1.54
8410.00,1.55
8409.00,1.56
8408.00,1.56
8407.00,1.57
8406.00,1.57
8405.00,1.58
8404.00,1.58
8403.00,1.59
8402.00,1.59
8401.00,1.59
8400.00,1.59
8399.00,1.60
8398.00,1.60
8397.00,1.61
8396.00,1.61
8395.00,1.62
8394.00,1.63
8393.00,1.64
8392.00,1.66
8391.00,1.67
8390.00,1.68
8389.00,1.70
8388.00,1.71
8387.00,1.72
8386.00,1.73
8385.00,1.74
8384.00,1.75
8383.00,1.76
8382.00,1.76
8381.00,1.77
8380.00,1.78
8379.00,1.79
8378.00,1.79
8377.00,1.80
8376.00,1.80
8375.00,1.80
8374.00,1.80
8373.00,1.80
8372.00,1.79
8371.00,1.79
8370.00,1.78
8369.00,1.77
8368.00,1.76
8367.00,1.75
8366.00,1.74
8365.00,1.72
8364.00,1.71
8363.00,1.69
8362.00,1.68
8361.00,1.66
8360.00,1.65
8359.00,1.63
8358.00,1.62
8357.00,1.61
8356.00,1.59
8355.00,1.58
8354.00,1.57
8353.00,1.55
8352.00,1.54
8351.00,1.53
8350.00,1.52
8349.00,1.51
8348.00,1.51
8347.00,1.51
8346.00,1.50
8345.00,1.50
8344.00,1.50
8343.00,1.50
8342.00,1.50
8341.00,1.51
8340.00,1.51
8339.00,1.51
8338.00,1.52
8337.00,1.53
8336.00,1.53
8335.00,1.54
8334.00,1.55
8333.00,1.56
8332.00,1.57
8331.00,1.57
8330.00,1.58
8329.00,1.59
8328.00,1.60
8327.00,1.61
8326.00,1.62
8325.00,1.62
8324.00,1.63
8323.00,1.64
8322.00,1.65
8321.00,1.66
8320.00,1.66
8319.00,1.67
8318.00,1.68
8317.00,1.68
8316.00,1.69
8315.00,1.69
8314.00,1.69
8313.00,1.69
8312.00,1.69
8311.00,1.69
8310.00,1.69
8309.00,1.69
8308.00,1.69
8307.00,1.68
8306.00,1.68
8305.00,1.68
8304.00,1.68
8303.00,1.68
8302.00,1.67
8301.00,1.67
8300.00,1.67
8299.00,1.66
8298.00,1.66
8297.00,1.65
8296.00,1.65
8295.00,1.64
8294.00,1.64
8293.00,1.63
8292.00,1.62
8291.00,1.61
8290.00,1.60
8289.00,1.59
8288.00,1.58
8287.00,1.57
8286.00,1.56
8285.00,1.56
8284.00,1.55
8283.00,1.55
8282.00,1.54
8281.00,1.54
8280.00,1.54
8279.00,1.53
8278.00,1.53
8277.00,1.53
8276.00,1.53
8275.00,1.53
8274.00,1.52
8273.00,1.52
8272.00,1.52
8271.00,1.51
8270.00,1.51
8269.00,1.51
8268.00,1.51
8267.00,1.51
8266.00,1.51
8265.00,1.51
8264.00,1.52
8263.00,1.52
8262.00,1.53
8261.00,1.54
8260.00,1.55
8259.00,1.56
8258.00,1.57
8257.00,1.58
8256.00,1.58
8255.00,1.59
8254.00,1.60
8253.00,1.61
8252.00,1.62
8251.00,1.63
8250.00,1.64
8249.00,1.65
8248.00,1.66
8247.00,1.68
8246.00,1.69
8245.00,1.71
8244.00,1.73
8243.00,1.75
8242.00,1.76
8241.00,1.78
8240.00,1.80
8239.00,1.82
8238.00,1.83
8237.00,1.85
8236.00,1.86
8235.00,1.87
8234.00,1.89
8233.00,1.90
8232.00,1.91
8231.00,1.92
8230.00,1.93
8229.00,1.94
8228.00,1.95
8227.00,1.96
8226.00,1.97
8225.00,1.97
8224.00,1.98
8223.00,1.98
8222.00,1.98
8221.00,1.98
8220.00,1.98
8219.00,1.98
8218.00,1.98
8217.00,1.97
8216.00,1.97
8215.00,1.96
8214.00,1.96
8213.00,1.95
8212.00,1.95
8211.00,1.95
8210.00,1.94
8209.00,1.94
8208.00,1.94
8207.00,1.94
8206.00,1.93
8205.00,1.93
8204.00,1.93
8203.00,1.93
8202.00,1.93
8201.00,1.92
8200.00,1.92
8199.00,1.92
8198.00,1.92
8197.00,1.92
8196.00,1.93
8195.00,1.93
8194.00,1.93
8193.00,1.94
8192.00,1.94
8191.00,1.95
8190.00,1.96
8189.00,1.97
8188.00,1.97
8187.00,1.98
8186.00,1.98
8185.00,1.99
8184.00,1.99
8183.00,2.00
8182.00,2.00
8181.00,2.00
8180.00,2.01
8179.00,2.01
8178.00,2.01
8177.00,2.01
8176.00,2.02
8175.00,2.02
8174.00,2.02
8173.00,2.03
8172.00,2.03
8171.00,2.03
8170.00,2.03
8169.00,2.03
8168.00,2.03
8167.00,2.03
8166.00,2.02
8165.00,2.01
8164.00,2.00
8163.00,1.99
8162.00,1.98
8161.00,1.96
8160.00,1.95
8159.00,1.93
8158.00,1.92
8157.00,1.90
8156.00,1.89
8155.00,1.87
8154.00,1.86
8153.00,1.84
8152.00,1.82
8151.00,1.80
8150.00,1.79
8149.00,1.76
8148.00,1.74
8147.00,1.72
8146.00,1.70
8145.00,1.67
8144.00,1.65
8143.00,1.63
8142.00,1.61
8141.00,1.59
8140.00,1.58
8139.00,1.56
8138.00,1.55
8137.00,1.54
8136.00,1.52
8135.00,1.51
8134.00,1.50
8133.00,1.49
8132.00,1.48
8131.00,1.47
8130.00,1.47
8129.00,1.46
8128.00,1.45
8127.00,1.44
8126.00,1.44
8125.00,1.43
8124.00,1.43
8123.00,1.44
8122.00,1.44
8121.00,1.45
8120.00,1.45
8119.00,1.46
8118.00,1.47
8117.00,1.48
8116.00,1.49
8115.00,1.49
8114.00,1.50
8113.00,1.51
8112.00,1.51
8111.00,1.51
8110.00,1.52
8109.00,1.52
8108.00,1.53
8107.00,1.54
8106.00,1.54
8105.00,1.55
8104.00,1.56
8103.00,1.57
8102.00,1.59
8101.00,1.60
8100.00,1.61
8099.00,1.62
8098.00,1.63
8097.00,1.64
8096.00,1.64
8095.00,1.65
8094.00,1.65
8093.00,1.66
8092.00,1.66
8091.00,1.66
8090.00,1.67
8089.00,1.67
8088.00,1.68
8087.00,1.68
8086.00,1.69
8085.00,1.70
8084.00,1.71
8083.00,1.72
8082.00,1.73
8081.00,1.74
8080.00,1.76
8079.00,1.77
8078.00,1.78
8077.00,1.79
8076.00,1.79
8075.00,1.80
8074.00,1.80
8073.00,1.80
8072.00,1.80
8071.00,1.80
8070.00,1.80
8069.00,1.80
8068.00,1.80
8067.00,1.80
8066.00,1.80
8065.00,1.80
8064.00,1.80
8063.00,1.80
8062.00,1.80
8061.00,1.80
8060.00,1.80
8059.00,1.80
8058.00,1.80
8057.00,1.80
8056.00,1.79
8055.00,1.78
8054.00,1.78
8053.00,1.77
8052.00,1.76
8051.00,1.75
8050.00,1.74
8049.00,1.74
8048.00,1.73
8047.00,1.73
8046.00,1.72
8045.00,1.72
8044.00,1.72
8043.00,1.73
8042.00,1.73
8041.00,1.73
8040.00,1.73
8039.00,1.73
8038.00,1.73
8037.00,1.73
8036.00,1.72
8035.00,1.72
8034.00,1.72
8033.00,1.72
8032.00,1.72
8031.00,1.72
8030.00,1.72
8029.00,1.73
8028.00,1.73
8027.00,1.74
8026.00,1.75
8025.00,1.75
8024.00,1.76
8023.00,1.77
8022.00,1.78
8021.00,1.79
8020.00,1.79
8019.00,1.80
8018.00,1.81
8017.00,1.81
8016.00,1.82
8015.00,1.83
8014.00,1.84
8013.00,1.85
8012.00,1.86
8011.00,1.87
8010.00,1.88
8009.00,1.88
8008.00,1.89
8007.00,1.90
8006.00,1.90
8005.00,1.90
8004.00,1.90
8003.00,1.90
8002.00,1.90
8001.00,1.89
8000.00,1.89
7999.00,1.88
7998.00,1.87
7997.00,1.86
7996.00,1.85
7995.00,1.85
7994.00,1.83
7993.00,1.82
7992.00,1.81
7991.00,1.79
7990.00,1.77
7989.00,1.75
7988.00,1.73
7987.00,1.71
7986.00,1.68
7985.00,1.66
7984.00,1.64
7983.00,1.61
7982.00,1.59
7981.00,1.57
7980.00,1.55
7979.00,1.54
7978.00,1.52
7977.00,1.51
7976.00,1.50
7975.00,1.49
7974.00,1.49
7973.00,1.48
7972.00,1.48
7971.00,1.48
7970.00,1.47
7969.00,1.47
7968.00,1.47
7967.00,1.47
7966.00,1.48
7965.00,1.48
7964.00,1.49
7963.00,1.50
7962.00,1.51
7961.00,1.52
7960.00,1.54
7959.00,1.55
7958.00,1.56
7957.00,1.57
7956.00,1.59
7955.00,1.60
7954.00,1.61
7953.00,1.62
7952.00,1.62
7951.00,1.63
7950.00,1.64
7949.00,1.64
7948.00,1.65
7947.00,1.65
7946.00,1.66
7945.00,1.66
7944.00,1.66
7943.00,1.67
7942.00,1.67
7941.00,1.68
7940.00,1.68
7939.00,1.68
7938.00,1.68
7937.00,1.68
7936.00,1.68
7935.00,1.68
7934.00,1.68
7933.00,1.68
7932.00,1.67
7931.00,1.67
7930.00,1.67
7929.00,1.68
7928.00,1.68
7927.00,1.68
7926.00,1.68
7925.00,1.68
7924.00,1.68
7923.00,1.69
7922.00,1.69
7921.00,1.69
7920.00,1.69
7919.00,1.69
7918.00,1.69
7917.00,1.68
7916.00,1.68
7915.00,1.68
7914.00,1.68
7913.00,1.67
7912.00,1.67
7911.00,1.67
7910.00,1.67
7909.00,1.66
7908.00,1.66
7907.00,1.67
7906.00,1.67
7905.00,1.67
7904.00,1.67
7903.00,1.67
7902.00,1.67
7901.00,1.67
7900.00,1.67
7899.00,1.67
7898.00,1.67
7897.00,1.67
7896.00,1.67
7895.00,1.67
7894.00,1.66
7893.00,1.66
7892.00,1.66
7891.00,1.66
7890.00,1.66
7889.00,1.66
7888.00,1.66
7887.00,1.66
7886.00,1.66
7885.00,1.67
7884.00,1.67
7883.00,1.67
7882.00,1.68
7881.00,1.68
7880.00,1.68
7879.00,1.68
7878.00,1.68
7877.00,1.69
7876.00,1.69
7875.00,1.69
7874.00,1.69
7873.00,1.70
7872.00,1.70
7871.00,1.71
7870.00,1.71
7869.00,1.71
7868.00,1.72
7867.00,1.72
7866.00,1.73
7865.00,1.73
7864.00,1.73
7863.00,1.73
7862.00,1.73
7861.00,1.73
7860.00,1.73
7859.00,1.73
7858.00,1.73
7857.00,1.74
7856.00,1.74
7855.00,1.74
7854.00,1.75
7853.00,1.75
7852.00,1.75
7851.00,1.76
7850.00,1.76
7849.00,1.76
7848.00,1.77
7847.00,1.77
7846.00,1.77
7845.00,1.78
7844.00,1.78
7843.00,1.79
7842.00,1.79
7841.00,1.80
7840.00,1.81
7839.00,1.81
7838.00,1.82
7837.00,1.83
7836.00,1.83
7835.00,1.84
7834.00,1.84
7833.00,1.85
7832.00,1.85
7831.00,1.85
7830.00,1.84
7829.00,1.84
7828.00,1.84
7827.00,1.83
7826.00,1.83
7825.00,1.82
7824.00,1.81
7823.00,1.81
7822.00,1.80
7821.00,1.80
7820.00,1.79
7819.00,1.79
7818.00,1.78
7817.00,1.78
7816.00,1.78
7815.00,1.77
7814.00,1.77
7813.00,1.77
7812.00,1.78
7811.00,1.78
7810.00,1.78
7809.00,1.79
7808.00,1.79
7807.00,1.80
7806.00,1.81
7805.00,1.82
7804.00,1.83
7803.00,1.84
7802.00,1.85
7801.00,1.86
7800.00,1.87
7799.00,1.88
7798.00,1.89
7797.00,1.90
7796.00,1.91
7795.00,1.92
7794.00,1.93
7793.00,1.94
7792.00,1.94
7791.00,1.95
7790.00,1.95
7789.00,1.95
7788.00,1.96
7787.00,1.96
7786.00,1.95
7785.00,1.95
7784.00,1.95
7783.00,1.95
7782.00,1.94
7781.00,1.94
7780.00,1.93
7779.00,1.93
7778.00,1.92
7777.00,1.92
7776.00,1.92
7775.00,1.91
7774.00,1.91
7773.00,1.91
7772.00,1.91
7771.00,1.90
7770.00,1.90
7769.00,1.90
7768.00,1.90
7767.00,1.90
7766.00,1.90
7765.00,1.90
7764.00,1.90
7763.00,1.90
7762.00,1.90
7761.00,1.90
7760.00,1.91
7759.00,1.91
7758.00,1.91
7757.00,1.91
7756.00,1.92
7755.00,1.92
7754.00,1.92
7753.00,1.92
7752.00,1.92
7751.00,1.92
7750.00,1.92
7749.00,1.92
7748.00,1.92
7747.00,1.92
7746.00,1.92
7745.00,1.92
7744.00,1.92
7743.00,1.92
7742.00,1.92
7741.00,1.92
7740.00,1.92
7739.00,1.92
7738.00,1.92
7737.00,1.92
7736.00,1.92
7735.00,1.92
7734.00,1.91
7733.00,1.91
7732.00,1.91
7731.00,1.91
7730.00,1.91
7729.00,1.92
7728.00,1.92
7727.00,1.92
7726.00,1.92
7725.00,1.93
7724.00,1.93
7723.00,1.94
7722.00,1.95
7721.00,1.95
7720.00,1.95
7719.00,1.96
7718.00,1.96
7717.00,1.96
7716.00,1.96
7715.00,1.95
7714.00,1.95
7713.00,1.95
7712.00,1.95
7711.00,1.94
7710.00,1.94
7709.00,1.94
7708.00,1.94
7707.00,1.93
7706.00,1.93
7705.00,1.92
7704.00,1.92
7703.00,1.91
7702.00,1.90
7701.00,1.89
7700.00,1.88
7699.00,1.86
7698.00,1.85
7697.00,1.84
7696.00,1.83
7695.00,1.82
7694.00,1.81
7693.00,1.80
7692.00,1.79
7691.00,1.78
7690.00,1.77
7689.00,1.76
7688.00,1.75
7687.00,1.74
7686.00,1.73
7685.00,1.72
7684.00,1.72
7683.00,1.71
7682.00,1.70
7681.00,1.69
7680.00,1.68
7679.00,1.68
7678.00,1.67
7677.00,1.66
7676.00,1.66
7675.00,1.65
7674.00,1.65
7673.00,1.64
7672.00,1.64
7671.00,1.63
7670.00,1.62
7669.00,1.62
7668.00,1.61
7667.00,1.61
7666.00,1.60
7665.00,1.60
7664.00,1.60
7663.00,1.60
7662.00,1.60
7661.00,1.60
7660.00,1.60
7659.00,1.60
7658.00,1.61
7657.00,1.61
7656.00,1.61
7655.00,1.62
7654.00,1.62
7653.00,1.63
7652.00,1.63
7651.00,1.64
7650.00,1.65
7649.00,1.65
7648.00,1.66
7647.00,1.67
7646.00,1.68
7645.00,1.69
7644.00,1.70
7643.00,1.71
7642.00,1.72
7641.00,1.73
7640.00,1.75
7639.00,1.76
7638.00,1.77
7637.00,1.79
7636.00,1.80
7635.00,1.81
7634.00,1.82
7633.00,1.83
7632.00,1.84
7631.00,1.85
7630.00,1.86
7629.00,1.87
7628.00,1.88
7627.00,1.89
7626.00,1.89
7625.00,1.90
7624.00,1.90
7623.00,1.91
7622.00,1.91
7621.00,1.91
7620.00,1.90
7619.00,1.90
7618.00,1.90
7617.00,1.89
7616.00,1.89
7615.00,1.88
7614.00,1.88
7613.00,1.87
7612.00,1.86
7611.00,1.85
7610.00,1.84
7609.00,1.83
7608.00,1.82
7607.00,1.81
7606.00,1.79
7605.00,1.78
7604.00,1.77
7603.00,1.76
7602.00,1.75
7601.00,1.74
7600.00,1.73
7599.00,1.73
7598.00,1.72
7597.00,1.72
7596.00,1.72
7595.00,1.72
7594.00,1.73
7593.00,1.73
7592.00,1.74
7591.00,1.75
7590.00,1.76
7589.00,1.76
7588.00,1.77
7587.00,1.78
7586.00,1.78
7585.00,1.79
7584.00,1.80
7583.00,1.81
7582.00,1.82
7581.00,1.83
7580.00,1.84
7579.00,1.86
7578.00,1.87
7577.00,1.88
7576.00,1.89
7575.00,1.91
7574.00,1.92
7573.00,1.93
7572.00,1.94
7571.00,1.94
7570.00,1.95
7569.00,1.95
7568.00,1.96
7567.00,1.96
7566.00,1.96
7565.00,1.96
7564.00,1.96
7563.00,1.96
7562.00,1.96
7561.00,1.96
7560.00,1.96
7559.00,1.96
7558.00,1.96
7557.00,1.96
7556.00,1.96
7555.00,1.96
7554.00,1.96
7553.00,1.95
7552.00,1.94
7551.00,1.94
7550.00,1.93
7549.00,1.92
7548.00,1.91
7547.00,1.90
7546.00,1.89
7545.00,1.88
7544.00,1.88
7543.00,1.87
7542.00,1.87
7541.00,1.86
7540.00,1.86
7539.00,1.85
7538.00,1.85
7537.00,1.84
7536.00,1.84
7535.00,1.83
7534.00,1.83
7533.00,1.82
7532.00,1.81
7531.00,1.81
7530.00,1.80
7529.00,1.80
7528.00,1.80
7527.00,1.79
7526.00,1.79
7525.00,1.79
7524.00,1.79
7523.00,1.79
7522.00,1.79
7521.00,1.79
7520.00,1.79
7519.00,1.79
7518.00,1.79
7517.00,1.79
7516.00,1.79
7515.00,1.79
7514.00,1.79
7513.00,1.79
7512.00,1.79
7511.00,1.79
7510.00,1.79
7509.00,1.79
7508.00,1.79
7507.00,1.80
7506.00,1.80
7505.00,1.81
7504.00,1.81
7503.00,1.82
7502.00,1.82
7501.00,1.82
7500.00,1.82
7499.00,1.82
7498.00,1.82
7497.00,1.82
7496.00,1.82
7495.00,1.82
7494.00,1.82
7493.00,1.83
7492.00,1.83
7491.00,1.83
7490.00,1.83
7489.00,1.83
7488.00,1.83
7487.00,1.83
7486.00,1.83
7485.00,1.83
7484.00,1.83
7483.00,1.83
7482.00,1.82
7481.00,1.82
7480.00,1.81
7479.00,1.80
7478.00,1.80
7477.00,1.79
7476.00,1.78
7475.00,1.78
7474.00,1.77
7473.00,1.77
7472.00,1.77
7471.00,1.76
7470.00,1.76
7469.00,1.75
7468.00,1.75
7467.00,1.74
7466.00,1.74
7465.00,1.73
7464.00,1.73
7463.00,1.72
7462.00,1.72
7461.00,1.71
7460.00,1.71
7459.00,1.71
7458.00,1.70
7457.00,1.70
7456.00,1.70
7455.00,1.70
7454.00,1.71
7453.00,1.71
7452.00,1.71
7451.00,1.71
7450.00,1.71
7449.00,1.72
7448.00,1.72
7447.00,1.72
7446.00,1.73
7445.00,1.73
7444.00,1.73
7443.00,1.74
7442.00,1.74
7441.00,1.75
7440.00,1.75
7439.00,1.76
7438.00,1.76
7437.00,1.77
7436.00,1.77
7435.00,1.78
7434.00,1.78
7433.00,1.79
7432.00,1.79
7431.00,1.79
7430.00,1.79
7429.00,1.79
7428.00,1.80
7427.00,1.80
7426.00,1.80
7425.00,1.80
7424.00,1.81
7423.00,1.81
7422.00,1.82
7421.00,1.82
7420.00,1.82
7419.00,1.83
7418.00,1.83
7417.00,1.84
7416.00,1.84
7415.00,1.84
7414.00,1.85
7413.00,1.85
7412.00,1.85
7411.00,1.86
7410.00,1.87
7409.00,1.87
7408.00,1.88
7407.00,1.89
7406.00,1.90
7405.00,1.90
7404.00,1.91
7403.00,1.92
7402.00,1.92
7401.00,1.93
7400.00,1.93
7399.00,1.94
7398.00,1.94
7397.00,1.94
7396.00,1.95
7395.00,1.95
7394.00,1.95
7393.00,1.95
7392.00,1.95
7391.00,1.95
7390.00,1.95
7389.00,1.95
7388.00,1.95
7387.00,1.95
7386.00,1.95
7385.00,1.95
7384.00,1.94
7383.00,1.94
7382.00,1.94
7381.00,1.93
7380.00,1.92
7379.00,1.92
7378.00,1.91
7377.00,1.91
7376.00,1.90
7375.00,1.90
7374.00,1.90
7373.00,1.89
7372.00,1.89
7371.00,1.89
7370.00,1.89
7369.00,1.89
7368.00,1.89
7367.00,1.89
7366.00,1.89
7365.00,1.89
7364.00,1.89
7363.00,1.90
7362.00,1.90
7361.00,1.90
7360.00,1.90
7359.00,1.90
7358.00,1.90
7357.00,1.90
7356.00,1.91
7355.00,1.91
7354.00,1.91
7353.00,1.91
7352.00,1.91
7351.00,1.91
7350.00,1.91
7349.00,1.91
7348.00,1.91
7347.00,1.90
7346.00,1.89
7345.00,1.88
7344.00,1.87
7343.00,1.86
7342.00,1.85
7341.00,1.84
7340.00,1.82
7339.00,1.81
7338.00,1.79
7337.00,1.77
7336.00,1.75
7335.00,1.73
7334.00,1.70
7333.00,1.68
7332.00,1.66
7331.00,1.64
7330.00,1.62
7329.00,1.60
7328.00,1.58
7327.00,1.56
7326.00,1.54
7325.00,1.52
7324.00,1.51
7323.00,1.49
7322.00,1.47
7321.00,1.46
7320.00,1.45
7319.00,1.44
7318.00,1.43
7317.00,1.42
7316.00,1.42
7315.00,1.41
7314.00,1.41
7313.00,1.41
7312.00,1.41
7311.00,1.42
7310.00,1.42
7309.00,1.43
7308.00,1.43
7307.00,1.44
7306.00,1.44
7305.00,1.45
7304.00,1.46
7303.00,1.46
7302.00,1.47
7301.00,1.48
7300.00,1.49
7299.00,1.50
7298.00,1.51
7297.00,1.52
7296.00,1.53
7295.00,1.55
7294.00,1.56
7293.00,1.58
7292.00,1.59
7291.00,1.60
7290.00,1.62
7289.00,1.63
7288.00,1.65
7287.00,1.66
7286.00,1.67
7285.00,1.68
7284.00,1.69
7283.00,1.70
7282.00,1.70
7281.00,1.71
7280.00,1.72
7279.00,1.72
7278.00,1.73
7277.00,1.74
7276.00,1.74
7275.00,1.75
7274.00,1.75
7273.00,1.76
7272.00,1.76
7271.00,1.76
7270.00,1.76
7269.00,1.76
7268.00,1.75
7267.00,1.75
7266.00,1.74
7265.00,1.73
7264.00,1.73
7263.00,1.72
7262.00,1.71
7261.00,1.70
7260.00,1.69
7259.00,1.69
7258.00,1.68
7257.00,1.67
7256.00,1.67
7255.00,1.66
7254.00,1.66
7253.00,1.65
7252.00,1.65
7251.00,1.64
7250.00,1.63
7249.00,1.63
7248.00,1.62
7247.00,1.61
7246.00,1.60
7245.00,1.60
7244.00,1.59
7243.00,1.59
7242.00,1.58
7241.00,1.57
7240.00,1.57
7239.00,1.56
7238.00,1.55
7237.00,1.55
7236.00,1.54
7235.00,1.53
7234.00,1.53
7233.00,1.52
7232.00,1.52
7231.00,1.51
7230.00,1.51
7229.00,1.51
7228.00,1.50
7227.00,1.50
7226.00,1.50
7225.00,1.50
7224.00,1.50
7223.00,1.50
7222.00,1.50
7221.00,1.50
7220.00,1.50
7219.00,1.50
7218.00,1.51
7217.00,1.51
7216.00,1.51
7215.00,1.52
7214.00,1.52
7213.00,1.53
7212.00,1.54
7211.00,1.54
7210.00,1.55
7209.00,1.56
7208.00,1.56
7207.00,1.56
7206.00,1.57
7205.00,1.57
7204.00,1.57
7203.00,1.57
7202.00,1.56
7201.00,1.56
7200.00,1.56
7199.00,1.55
7198.00,1.55
7197.00,1.54
7196.00,1.54
7195.00,1.53
7194.00,1.53
7193.00,1.53
7192.00,1.52
7191.00,1.52
7190.00,1.51
7189.00,1.51
7188.00,1.50
7187.00,1.50
7186.00,1.49
7185.00,1.49
7184.00,1.49
7183.00,1.49
7182.00,1.49
7181.00,1.48
7180.00,1.48
7179.00,1.48
7178.00,1.48
7177.00,1.49
7176.00,1.49
7175.00,1.49
7174.00,1.50
7173.00,1.50
7172.00,1.50
7171.00,1.51
7170.00,1.51
7169.00,1.51
7168.00,1.52
7167.00,1.52
7166.00,1.52
7165.00,1.52
7164.00,1.52
7163.00,1.52
7162.00,1.52
7161.00,1.52
7160.00,1.52
7159.00,1.51
7158.00,1.50
7157.00,1.49
7156.00,1.48
7155.00,1.47
7154.00,1.45
7153.00,1.44
7152.00,1.43
7151.00,1.41
7150.00,1.40
7149.00,1.38
7148.00,1.37
7147.00,1.35
7146.00,1.33
7145.00,1.32
7144.00,1.30
7143.00,1.29
7142.00,1.27
7141.00,1.26
7140.00,1.25
7139.00,1.23
7138.00,1.22
7137.00,1.21
7136.00,1.20
7135.00,1.19
7134.00,1.18
7133.00,1.18
7132.00,1.17
7131.00,1.17
7130.00,1.17
7129.00,1.17
7128.00,1.18
7127.00,1.18
7126.00,1.19
7125.00,1.20
7124.00,1.21
7123.00,1.22
7122.00,1.23
7121.00,1.24
7120.00,1.25
7119.00,1.26
7118.00,1.27
7117.00,1.28
7116.00,1.29
7115.00,1.30
7114.00,1.31
7113.00,1.32
7112.00,1.33
7111.00,1.34
7110.00,1.35
7109.00,1.36
7108.00,1.37
7107.00,1.37
7106.00,1.38
7105.00,1.38
7104.00,1.38
7103.00,1.38
7102.00,1.38
7101.00,1.38
7100.00,1.37
7099.00,1.37
7098.00,1.37
7097.00,1.36
7096.00,1.36
7095.00,1.36
7094.00,1.35
7093.00,1.35
7092.00,1.34
7091.00,1.34
7090.00,1.34
7089.00,1.33
7088.00,1.33
7087.00,1.32
7086.00,1.31
7085.00,1.31
7084.00,1.30
7083.00,1.30
7082.00,1.29
7081.00,1.29
7080.00,1.28
7079.00,1.28
7078.00,1.28
7077.00,1.28
7076.00,1.27
7075.00,1.27
7074.00,1.27
7073.00,1.27
7072.00,1.27
7071.00,1.27
7070.00,1.27
7069.00,1.27
7068.00,1.27
7067.00,1.26
7066.00,1.26
7065.00,1.25
7064.00,1.25
7063.00,1.24
7062.00,1.24
7061.00,1.23
7060.00,1.23
7059.00,1.23
7058.00,1.22
7057.00,1.22
7056.00,1.21
7055.00,1.21
7054.00,1.21
7053.00,1.20
7052.00,1.20
7051.00,1.20
7050.00,1.20
7049.00,1.19
7048.00,1.19
7047.00,1.19
7046.00,1.18
7045.00,1.18
7044.00,1.18
7043.00,1.17
7042.00,1.17
7041.00,1.17
7040.00,1.17
7039.00,1.17
7038.00,1.17
7037.00,1.18
7036.00,1.18
7035.00,1.18
7034.00,1.19
7033.00,1.19
7032.00,1.20
7031.00,1.20
7030.00,1.21
7029.00,1.21
7028.00,1.21
7027.00,1.22
7026.00,1.22
7025.00,1.22
7024.00,1.22
7023.00,1.22
7022.00,1.22
7021.00,1.22
7020.00,1.22
7019.00,1.23
7018.00,1.23
7017.00,1.23
7016.00,1.24
7015.00,1.24
7014.00,1.24
7013.00,1.24
7012.00,1.24
7011.00,1.24
7010.00,1.23
7009.00,1.23
7008.00,1.23
7007.00,1.22
7006.00,1.22
7005.00,1.21
7004.00,1.21
7003.00,1.20
7002.00,1.20
7001.00,1.20
7000.00,1.19
6999.00,1.19
6998.00,1.19
6997.00,1.19
6996.00,1.18
6995.00,1.18
6994.00,1.18
6993.00,1.17
6992.00,1.17
6991.00,1.16
6990.00,1.15
6989.00,1.15
6988.00,1.14
6987.00,1.14
6986.00,1.13
6985.00,1.13
6984.00,1.13
6983.00,1.12
6982.00,1.12
6981.00,1.12
6980.00,1.12
6979.00,1.12
6978.00,1.11
6977.00,1.11
6976.00,1.11
6975.00,1.11
6974.00,1.10
6973.00,1.10
6972.00,1.09
6971.00,1.09
6970.00,1.08
6969.00,1.08
6968.00,1.08
6967.00,1.07
6966.00,1.07
6965.00,1.07
6964.00,1.07
6963.00,1.07
6962.00,1.07
6961.00,1.07
6960.00,1.06
6959.00,1.06
6958.00,1.06
6957.00,1.05
6956.00,1.05
6955.00,1.04
6954.00,1.04
6953.00,1.03
6952.00,1.03
6951.00,1.02
6950.00,1.02
6949.00,1.01
6948.00,1.01
6947.00,1.01
6946.00,1.01
6945.00,1.01
6944.00,1.01
6943.00,1.01
6942.00,1.01
6941.00,1.01
6940.00,1.01
6939.00,1.01
6938.00,1.01
6937.00,1.01
6936.00,1.01
6935.00,1.01
6934.00,1.01
6933.00,1.01
6932.00,1.02
6931.00,1.02
6930.00,1.03
6929.00,1.04
6928.00,1.05
6927.00,1.06
6926.00,1.07
6925.00,1.08
6924.00,1.09
6923.00,1.10
6922.00,1.10
6921.00,1.11
6920.00,1.12
6919.00,1.13
6918.00,1.14
6917.00,1.15
6916.00,1.16
6915.00,1.16
6914.00,1.17
6913.00,1.17
6912.00,1.18
6911.00,1.18
6910.00,1.19
6909.00,1.19
6908.00,1.20
6907.00,1.20
6906.00,1.20
6905.00,1.20
6904.00,1.20
6903.00,1.20
6902.00,1.20
6901.00,1.20
6900.00,1.19
6899.00,1.19
6898.00,1.19
6897.00,1.18
6896.00,1.18
6895.00,1.17
6894.00,1.17
6893.00,1.16
6892.00,1.16
6891.00,1.15
6890.00,1.15
6889.00,1.14
6888.00,1.14
6887.00,1.13
6886.00,1.13
6885.00,1.13
6884.00,1.13
6883.00,1.13
6882.00,1.13
6881.00,1.13
6880.00,1.13
6879.00,1.13
6878.00,1.13
6877.00,1.14
6876.00,1.14
6875.00,1.15
6874.00,1.15
6873.00,1.16
6872.00,1.16
6871.00,1.17
6870.00,1.18
6869.00,1.18
6868.00,1.19
6867.00,1.20
6866.00,1.21
6865.00,1.22
6864.00,1.24
6863.00,1.25
6862.00,1.26
6861.00,1.27
6860.00,1.28
6859.00,1.29
6858.00,1.30
6857.00,1.31
6856.00,1.32
6855.00,1.32
6854.00,1.33
6853.00,1.33
6852.00,1.33
6851.00,1.33
6850.00,1.33
6849.00,1.33
6848.00,1.33
6847.00,1.33
6846.00,1.32
6845.00,1.32
6844.00,1.31
6843.00,1.31
6842.00,1.30
6841.00,1.29
6840.00,1.28
6839.00,1.27
6838.00,1.26
6837.00,1.25
6836.00,1.23
6835.00,1.22
6834.00,1.21
6833.00,1.19
6832.00,1.18
6831.00,1.17
6830.00,1.16
6829.00,1.15
6828.00,1.14
6827.00,1.13
6826.00,1.12
6825.00,1.11
6824.00,1.11
6823.00,1.10
6822.00,1.10
6821.00,1.09
6820.00,1.09
6819.00,1.09
6818.00,1.08
6817.00,1.08
6816.00,1.08
6815.00,1.08
6814.00,1.08
6813.00,1.08
6812.00,1.09
6811.00,1.09
6810.00,1.10
6809.00,1.10
6808.00,1.11
6807.00,1.11
6806.00,1.12
6805.00,1.12
6804.00,1.13
6803.00,1.14
6802.00,1.14
6801.00,1.15
6800.00,1.15
6799.00,1.16
6798.00,1.16
6797.00,1.17
6796.00,1.17
6795.00,1.18
6794.00,1.19
6793.00,1.20
6792.00,1.21
6791.00,1.22
6790.00,1.23
6789.00,1.24
6788.00,1.25
6787.00,1.25
6786.00,1.26
6785.00,1.27
6784.00,1.27
6783.00,1.28
6782.00,1.28
6781.00,1.28
6780.00,1.29
6779.00,1.29
6778.00,1.30
6777.00,1.30
6776.00,1.31
6775.00,1.31
6774.00,1.32
6773.00,1.32
6772.00,1.32
6771.00,1.33
6770.00,1.33
6769.00,1.33
6768.00,1.33
6767.00,1.33
6766.00,1.33
6765.00,1.32
6764.00,1.32
6763.00,1.32
6762.00,1.31
6761.00,1.31
6760.00,1.30
6759.00,1.30
6758.00,1.30
6757.00,1.29
6756.00,1.29
6755.00,1.29
6754.00,1.28
6753.00,1.28
6752.00,1.27
6751.00,1.27
6750.00,1.26
6749.00,1.26
6748.00,1.25
6747.00,1.25
6746.00,1.24
6745.00,1.24
6744.00,1.23
6743.00,1.23
6742.00,1.22
6741.00,1.22
6740.00,1.22
6739.00,1.22
6738.00,1.21
6737.00,1.21
6736.00,1.21
6735.00,1.21
6734.00,1.21
6733.00,1.21
6732.00,1.22
6731.00,1.22
6730.00,1.22
6729.00,1.22
6728.00,1.22
6727.00,1.22
6726.00,1.23
6725.00,1.23
6724.00,1.24
6723.00,1.24
6722.00,1.25
6721.00,1.26
6720.00,1.26
6719.00,1.27
6718.00,1.28
6717.00,1.29
6716.00,1.30
6715.00,1.30
6714.00,1.31
6713.00,1.32
6712.00,1.32
6711.00,1.33
6710.00,1.34
6709.00,1.34
6708.00,1.34
6707.00,1.35
6706.00,1.35
6705.00,1.35
6704.00,1.35
6703.00,1.36
6702.00,1.36
6701.00,1.36
6700.00,1.36
6699.00,1.36
6698.00,1.36
6697.00,1.36
6696.00,1.36
6695.00,1.36
6694.00,1.36
6693.00,1.36
6692.00,1.35
6691.00,1.35
6690.00,1.35
6689.00,1.35
6688.00,1.35
6687.00,1.35
6686.00,1.35
6685.00,1.35
6684.00,1.35
6683.00,1.35
6682.00,1.35
6681.00,1.35
6680.00,1.35
6679.00,1.36
6678.00,1.36
6677.00,1.36
6676.00,1.37
6675.00,1.37
6674.00,1.37
6673.00,1.37
6672.00,1.37
6671.00,1.37
6670.00,1.37
6669.00,1.38
6668.00,1.38
6667.00,1.38
6666.00,1.38
6665.00,1.38
6664.00,1.38
6663.00,1.39
6662.00,1.39
6661.00,1.39
6660.00,1.40
6659.00,1.40
6658.00,1.40
6657.00,1.41
6656.00,1.41
6655.00,1.42
6654.00,1.42
6653.00,1.43
6652.00,1.43
6651.00,1.44
6650.00,1.44
6649.00,1.45
6648.00,1.46
6647.00,1.47
6646.00,1.47
6645.00,1.48
6644.00,1.49
6643.00,1.50
6642.00,1.50
6641.00,1.51
6640.00,1.52
6639.00,1.52
6638.00,1.53
6637.00,1.53
6636.00,1.54
6635.00,1.55
6634.00,1.55
6633.00,1.55
6632.00,1.56
6631.00,1.56
6630.00,1.56
6629.00,1.56
6628.00,1.57
6627.00,1.57
6626.00,1.57
6625.00,1.57
6624.00,1.57
6623.00,1.57
6622.00,1.57
6621.00,1.57
6620.00,1.57
6619.00,1.57
6618.00,1.57
6617.00,1.57
6616.00,1.58
6615.00,1.58
6614.00,1.58
6613.00,1.58
6612.00,1.59
6611.00,1.59
6610.00,1.59
6609.00,1.59
6608.00,1.59
6607.00,1.59
6606.00,1.59
6605.00,1.59
6604.00,1.59
6603.00,1.59
6602.00,1.59
6601.00,1.59
6600.00,1.59
6599.00,1.58
6598.00,1.58
6597.00,1.58
6596.00,1.57
6595.00,1.57
6594.00,1.57
6593.00,1.56
6592.00,1.56
6591.00,1.55
6590.00,1.55
6589.00,1.54
6588.00,1.53
6587.00,1.53
6586.00,1.52
6585.00,1.52
6584.00,1.51
6583.00,1.51
6582.00,1.50
6581.00,1.50
6580.00,1.49
6579.00,1.48
6578.00,1.48
6577.00,1.47
6576.00,1.46
6575.00,1.46
6574.00,1.45
6573.00,1.45
6572.00,1.44
6571.00,1.44
6570.00,1.44
6569.00,1.43
6568.00,1.43
6567.00,1.43
6566.00,1.43
6565.00,1.43
6564.00,1.43
6563.00,1.42
6562.00,1.42
6561.00,1.42
6560.00,1.42
6559.00,1.42
6558.00,1.41
6557.00,1.41
6556.00,1.41
6555.00,1.41
6554.00,1.41
6553.00,1.42
6552.00,1.42
6551.00,1.43
6550.00,1.43
6549.00,1.44
6548.00,1.44
6547.00,1.45
6546.00,1.46
6545.00,1.46
6544.00,1.47
6543.00,1.48
6542.00,1.48
6541.00,1.49
6540.00,1.50
6539.00,1.50
6538.00,1.51
6537.00,1.52
6536.00,1.53
6535.00,1.53
6534.00,1.54
6533.00,1.55
6532.00,1.56
6531.00,1.57
6530.00,1.57
6529.00,1.58
6528.00,1.59
6527.00,1.59
6526.00,1.60
6525.00,1.60
6524.00,1.61
6523.00,1.61
6522.00,1.61
6521.00,1.62
6520.00,1.62
6519.00,1.62
6518.00,1.62
6517.00,1.62
6516.00,1.62
6515.00,1.62
6514.00,1.63
6513.00,1.63
6512.00,1.63
6511.00,1.63
6510.00,1.63
6509.00,1.63
6508.00,1.63
6507.00,1.62
6506.00,1.62
6505.00,1.62
6504.00,1.62
6503.00,1.62
6502.00,1.62
6501.00,1.62
6500.00,1.62
6499.00,1.61
6498.00,1.61
6497.00,1.61
6496.00,1.61
6495.00,1.61
6494.00,1.61
6493.00,1.62
6492.00,1.62
6491.00,1.62
6490.00,1.62
6489.00,1.62
6488.00,1.63
6487.00,1.63
6486.00,1.63
6485.00,1.63
6484.00,1.63
6483.00,1.63
6482.00,1.64
6481.00,1.64
6480.00,1.64
6479.00,1.64
6478.00,1.64
6477.00,1.64
6476.00,1.64
6475.00,1.65
6474.00,1.65
6473.00,1.65
6472.00,1.65
6471.00,1.65
6470.00,1.65
6469.00,1.65
6468.00,1.65
6467.00,1.64
6466.00,1.64
6465.00,1.64
6464.00,1.63
6463.00,1.63
6462.00,1.63
6461.00,1.62
6460.00,1.62
6459.00,1.61
6458.00,1.61
6457.00,1.60
6456.00,1.60
6455.00,1.59
6454.00,1.59
6453.00,1.59
6452.00,1.58
6451.00,1.58
6450.00,1.58
6449.00,1.58
6448.00,1.58
6447.00,1.57
6446.00,1.57
6445.00,1.57
6444.00,1.57
6443.00,1.57
6442.00,1.57
6441.00,1.57
6440.00,1.57
6439.00,1.57
6438.00,1.57
6437.00,1.57
6436.00,1.57
6435.00,1.57
6434.00,1.57
6433.00,1.57
6432.00,1.57
6431.00,1.57
6430.00,1.57
6429.00,1.57
6428.00,1.57
6427.00,1.58
6426.00,1.58
6425.00,1.58
6424.00,1.58
6423.00,1.58
6422.00,1.58
6421.00,1.58
6420.00,1.58
6419.00,1.58
6418.00,1.58
6417.00,1.58
6416.00,1.59
6415.00,1.59
6414.00,1.59
6413.00,1.59
6412.00,1.59
6411.00,1.59
6410.00,1.60
6409.00,1.60
6408.00,1.60
6407.00,1.61
6406.00,1.61
6405.00,1.62
6404.00,1.62
6403.00,1.63
6402.00,1.63
6401.00,1.64
6400.00,1.64
6399.00,1.65
6398.00,1.65
6397.00,1.66
6396.00,1.67
6395.00,1.67
6394.00,1.68
6393.00,1.68
6392.00,1.69
6391.00,1.70
6390.00,1.70
6389.00,1.71
6388.00,1.71
6387.00,1.72
6386.00,1.73
6385.00,1.73
6384.00,1.74
6383.00,1.74
6382.00,1.75
6381.00,1.75
6380.00,1.76
6379.00,1.76
6378.00,1.77
6377.00,1.77
6376.00,1.77
6375.00,1.77
6374.00,1.77
6373.00,1.77
6372.00,1.77
6371.00,1.77
6370.00,1.77
6369.00,1.77
6368.00,1.77
6367.00,1.77
6366.00,1.77
6365.00,1.77
6364.00,1.77
6363.00,1.78
6362.00,1.78
6361.00,1.78
6360.00,1.79
6359.00,1.79
6358.00,1.79
6357.00,1.79
6356.00,1.80
6355.00,1.80
6354.00,1.80
6353.00,1.80
6352.00,1.81
6351.00,1.81
6350.00,1.81
6349.00,1.82
6348.00,1.82
6347.00,1.82
6346.00,1.82
6345.00,1.83
6344.00,1.83
6343.00,1.83
6342.00,1.83
6341.00,1.83
6340.00,1.83
6339.00,1.83
6338.00,1.83
6337.00,1.83
6336.00,1.82
6335.00,1.82
6334.00,1.81
6333.00,1.81
6332.00,1.80
6331.00,1.80
6330.00,1.79
6329.00,1.79
6328.00,1.78
6327.00,1.78
6326.00,1.78
6325.00,1.77
6324.00,1.77
6323.00,1.77
6322.00,1.76
6321.00,1.76
6320.00,1.76
6319.00,1.76
6318.00,1.76
6317.00,1.76
6316.00,1.76
6315.00,1.76
6314.00,1.76
6313.00,1.76
6312.00,1.76
6311.00,1.76
6310.00,1.76
6309.00,1.77
6308.00,1.77
6307.00,1.78
6306.00,1.78
6305.00,1.79
6304.00,1.80
6303.00,1.80
6302.00,1.81
6301.00,1.81
6300.00,1.82
6299.00,1.82
6298.00,1.83
6297.00,1.83
6296.00,1.84
6295.00,1.84
6294.00,1.84
6293.00,1.85
6292.00,1.85
6291.00,1.85
6290.00,1.86
6289.00,1.86
6288.00,1.86
6287.00,1.87
6286.00,1.87
6285.00,1.87
6284.00,1.88
6283.00,1.88
6282.00,1.88
6281.00,1.88
6280.00,1.88
6279.00,1.87
6278.00,1.87
6277.00,1.87
6276.00,1.87
6275.00,1.87
6274.00,1.87
6273.00,1.87
6272.00,1.87
6271.00,1.87
6270.00,1.87
6269.00,1.87
6268.00,1.87
6267.00,1.87
6266.00,1.87
6265.00,1.87
6264.00,1.87
6263.00,1.87
6262.00,1.87
6261.00,1.87
6260.00,1.87
6259.00,1.87
6258.00,1.87
6257.00,1.87
6256.00,1.87
6255.00,1.88
6254.00,1.88
6253.00,1.88
6252.00,1.89
6251.00,1.89
6250.00,1.89
6249.00,1.90
6248.00,1.90
6247.00,1.90
6246.00,1.90
6245.00,1.91
6244.00,1.91
6243.00,1.91
6242.00,1.91
6241.00,1.92
6240.00,1.92
6239.00,1.93
6238.00,1.93
6237.00,1.93
6236.00,1.94
6235.00,1.94
6234.00,1.95
6233.00,1.95
6232.00,1.95
6231.00,1.96
6230.00,1.96
6229.00,1.96
6228.00,1.97
6227.00,1.97
6226.00,1.97
6225.00,1.98
6224.00,1.98
6223.00,1.98
6222.00,1.99
6221.00,1.99
6220.00,1.99
6219.00,2.00
6218.00,2.00
6217.00,2.01
6216.00,2.01
6215.00,2.02
6214.00,2.02
6213.00,2.02
6212.00,2.02
6211.00,2.02
6210.00,2.02
6209.00,2.03
6208.00,2.03
6207.00,2.03
6206.00,2.03
6205.00,2.04
6204.00,2.04
6203.00,2.04
6202.00,2.04
6201.00,2.04
6200.00,2.04
6199.00,2.04
6198.00,2.04
6197.00,2.04
6196.00,2.04
6195.00,2.04
6194.00,2.04
6193.00,2.04
6192.00,2.04
6191.00,2.04
6190.00,2.04
6189.00,2.04
6188.00,2.04
6187.00,2.05
6186.00,2.05
6185.00,2.05
6184.00,2.05
6183.00,2.05
6182.00,2.05
6181.00,2.05
6180.00,2.05
6179.00,2.05
6178.00,2.05
6177.00,2.05
6176.00,2.05
6175.00,2.05
6174.00,2.05
6173.00,2.05
6172.00,2.05
6171.00,2.05
6170.00,2.05
6169.00,2.05
6168.00,2.05
6167.00,2.05
6166.00,2.05
6165.00,2.04
6164.00,2.04
6163.00,2.04
6162.00,2.04
6161.00,2.04
6160.00,2.04
6159.00,2.03
6158.00,2.03
6157.00,2.03
6156.00,2.03
6155.00,2.03
6154.00,2.03
6153.00,2.03
6152.00,2.03
6151.00,2.03
6150.00,2.02
6149.00,2.02
6148.00,2.02
6147.00,2.02
6146.00,2.02
6145.00,2.03
6144.00,2.03
6143.00,2.03
6142.00,2.03
6141.00,2.03
6140.00,2.03
6139.00,2.04
6138.00,2.04
6137.00,2.04
6136.00,2.04
6135.00,2.05
6134.00,2.05
6133.00,2.06
6132.00,2.06
6131.00,2.06
6130.00,2.07
6129.00,2.07
6128.00,2.07
6127.00,2.07
6126.00,2.07
6125.00,2.07
6124.00,2.08
6123.00,2.08
6122.00,2.08
6121.00,2.08
6120.00,2.08
6119.00,2.09
6118.00,2.09
6117.00,2.09
6116.00,2.09
6115.00,2.09
6114.00,2.09
6113.00,2.09
6112.00,2.09
6111.00,2.09
6110.00,2.09
6109.00,2.09
6108.00,2.09
6107.00,2.09
6106.00,2.09
6105.00,2.08
6104.00,2.08
6103.00,2.08
6102.00,2.08
6101.00,2.08
6100.00,2.08
6099.00,2.08
6098.00,2.08
6097.00,2.08
6096.00,2.08
6095.00,2.08
6094.00,2.07
6093.00,2.07
6092.00,2.07
6091.00,2.07
6090.00,2.06
6089.00,2.06
6088.00,2.06
6087.00,2.06
6086.00,2.05
6085.00,2.05
6084.00,2.05
6083.00,2.05
6082.00,2.05
6081.00,2.04
6080.00,2.04
6079.00,2.04
6078.00,2.04
6077.00,2.04
6076.00,2.04
6075.00,2.04
6074.00,2.04
6073.00,2.05
6072.00,2.05
6071.00,2.05
6070.00,2.05
6069.00,2.06
6068.00,2.06
6067.00,2.06
6066.00,2.07
6065.00,2.07
6064.00,2.07
6063.00,2.08
6062.00,2.08
6061.00,2.08
6060.00,2.09
6059.00,2.09
6058.00,2.09
6057.00,2.09
6056.00,2.09
6055.00,2.09
6054.00,2.10
6053.00,2.10
6052.00,2.10
6051.00,2.10
6050.00,2.10
6049.00,2.09
6048.00,2.09
6047.00,2.09
6046.00,2.09
6045.00,2.09
6044.00,2.08
6043.00,2.08
6042.00,2.08
6041.00,2.08
6040.00,2.07
6039.00,2.07
6038.00,2.07
6037.00,2.07
6036.00,2.07
6035.00,2.07
6034.00,2.07
6033.00,2.07
6032.00,2.07
6031.00,2.07
6030.00,2.07
6029.00,2.07
6028.00,2.07
6027.00,2.07
6026.00,2.08
6025.00,2.08
6024.00,2.08
6023.00,2.09
6022.00,2.09
6021.00,2.09
6020.00,2.09
6019.00,2.10
6018.00,2.10
6017.00,2.10
6016.00,2.10
6015.00,2.11
6014.00,2.11
6013.00,2.11
6012.00,2.11
6011.00,2.11
6010.00,2.11
6009.00,2.11
6008.00,2.12
6007.00,2.12
6006.00,2.12
6005.00,2.12
6004.00,2.12
6003.00,2.12
6002.00,2.12
6001.00,2.12
6000.00,2.12
5999.00,2.12
5998.00,2.12
5997.00,2.12
5996.00,2.12
5995.00,2.12
5994.00,2.12
5993.00,2.12
5992.00,2.12
5991.00,2.12
5990.00,2.12
5989.00,2.12
5988.00,2.12
5987.00,2.12
5986.00,2.12
5985.00,2.12
5984.00,2.12
5983.00,2.12
5982.00,2.13
5981.00,2.12
5980.00,2.12
5979.00,2.12
5978.00,2.12
5977.00,2.12
5976.00,2.12
5975.00,2.12
5974.00,2.11
5973.00,2.11
5972.00,2.11
5971.00,2.11
5970.00,2.11
5969.00,2.11
5968.00,2.11
5967.00,2.11
5966.00,2.11
5965.00,2.11
5964.00,2.11
5963.00,2.12
5962.00,2.12
5961.00,2.12
5960.00,2.12
5959.00,2.12
5958.00,2.12
5957.00,2.13
5956.00,2.13
5955.00,2.13
5954.00,2.13
5953.00,2.13
5952.00,2.13
5951.00,2.14
5950.00,2.14
5949.00,2.14
5948.00,2.14
5947.00,2.15
5946.00,2.15
5945.00,2.15
5944.00,2.15
5943.00,2.15
5942.00,2.16
5941.00,2.16
5940.00,2.15
5939.00,2.15
5938.00,2.15
5937.00,2.15
5936.00,2.15
5935.00,2.15
5934.00,2.14
5933.00,2.14
5932.00,2.14
5931.00,2.14
5930.00,2.14
5929.00,2.14
5928.00,2.14
5927.00,2.14
5926.00,2.13
5925.00,2.13
5924.00,2.13
5923.00,2.13
5922.00,2.13
5921.00,2.13
5920.00,2.12
5919.00,2.12
5918.00,2.12
5917.00,2.12
5916.00,2.12
5915.00,2.12
5914.00,2.12
5913.00,2.12
5912.00,2.11
5911.00,2.11
5910.00,2.11
5909.00,2.11
5908.00,2.11
5907.00,2.11
5906.00,2.11
5905.00,2.11
5904.00,2.10
5903.00,2.10
5902.00,2.10
5901.00,2.10
5900.00,2.09
5899.00,2.09
5898.00,2.09
5897.00,2.09
5896.00,2.09
5895.00,2.08
5894.00,2.08
5893.00,2.08
5892.00,2.08
5891.00,2.07
5890.00,2.07
5889.00,2.07
5888.00,2.07
5887.00,2.07
5886.00,2.07
5885.00,2.07
5884.00,2.07
5883.00,2.07
5882.00,2.07
5881.00,2.07
5880.00,2.07
5879.00,2.07
5878.00,2.07
5877.00,2.07
5876.00,2.07
5875.00,2.08
5874.00,2.08
5873.00,2.08
5872.00,2.08
5871.00,2.08
5870.00,2.09
5869.00,2.09
5868.00,2.09
5867.00,2.10
5866.00,2.10
5865.00,2.10
5864.00,2.11
5863.00,2.11
5862.00,2.12
5861.00,2.12
5860.00,2.12
5859.00,2.13
5858.00,2.13
5857.00,2.13
5856.00,2.13
5855.00,2.13
5854.00,2.13
5853.00,2.13
5852.00,2.13
5851.00,2.13
5850.00,2.13
5849.00,2.13
5848.00,2.13
5847.00,2.13
5846.00,2.13
5845.00,2.13
5844.00,2.13
5843.00,2.13
5842.00,2.13
5841.00,2.13
5840.00,2.13
5839.00,2.12
5838.00,2.12
5837.00,2.12
5836.00,2.12
5835.00,2.12
5834.00,2.12
5833.00,2.12
5832.00,2.11
5831.00,2.11
5830.00,2.11
5829.00,2.11
5828.00,2.11
5827.00,2.11
5826.00,2.11
5825.00,2.11
5824.00,2.11
5823.00,2.11
5822.00,2.11
5821.00,2.11
5820.00,2.12
5819.00,2.12
5818.00,2.12
5817.00,2.12
5816.00,2.12
5815.00,2.12
5814.00,2.12
5813.00,2.12
5812.00,2.12
5811.00,2.12
5810.00,2.12
5809.00,2.12
5808.00,2.12
5807.00,2.12
5806.00,2.12
5805.00,2.12
5804.00,2.12
5803.00,2.12
5802.00,2.12
5801.00,2.12
5800.00,2.12
5799.00,2.12
5798.00,2.12
5797.00,2.12
5796.00,2.12
5795.00,2.12
5794.00,2.12
5793.00,2.12
5792.00,2.12
5791.00,2.12
5790.00,2.12
5789.00,2.12
5788.00,2.12
5787.00,2.12
5786.00,2.12
5785.00,2.12
5784.00,2.12
5783.00,2.13
5782.00,2.13
5781.00,2.13
5780.00,2.13
5779.00,2.13
5778.00,2.13
5777.00,2.13
5776.00,2.13
5775.00,2.14
5774.00,2.14
5773.00,2.14
5772.00,2.14
5771.00,2.14
5770.00,2.14
5769.00,2.14
5768.00,2.14
5767.00,2.14
5766.00,2.14
5765.00,2.14
5764.00,2.13
5763.00,2.13
5762.00,2.13
5761.00,2.13
5760.00,2.13
5759.00,2.13
5758.00,2.13
5757.00,2.13
5756.00,2.13
5755.00,2.13
5754.00,2.13
5753.00,2.13
5752.00,2.13
5751.00,2.13
5750.00,2.13
5749.00,2.13
5748.00,2.13
5747.00,2.13
5746.00,2.13
5745.00,2.13
5744.00,2.13
5743.00,2.13
5742.00,2.13
5741.00,2.13
5740.00,2.14
5739.00,2.14
5738.00,2.14
5737.00,2.14
5736.00,2.14
5735.00,2.14
5734.00,2.14
5733.00,2.14
5732.00,2.15
5731.00,2.15
5730.00,2.15
5729.00,2.15
5728.00,2.15
5727.00,2.14
5726.00,2.14
5725.00,2.14
5724.00,2.14
5723.00,2.14
5722.00,2.14
5721.00,2.14
5720.00,2.13
5719.00,2.13
5718.00,2.13
5717.00,2.13
5716.00,2.13
5715.00,2.12
5714.00,2.12
5713.00,2.12
5712.00,2.11
5711.00,2.11
5710.00,2.10
5709.00,2.10
5708.00,2.10
5707.00,2.09
5706.00,2.09
5705.00,2.09
5704.00,2.09
5703.00,2.09
5702.00,2.08
5701.00,2.08
5700.00,2.08
5699.00,2.08
5698.00,2.08
5697.00,2.07
5696.00,2.07
5695.00,2.07
5694.00,2.07
5693.00,2.07
5692.00,2.07
5691.00,2.06
5690.00,2.06
5689.00,2.06
5688.00,2.06
5687.00,2.07
5686.00,2.07
5685.00,2.07
5684.00,2.07
5683.00,2.08
5682.00,2.08
5681.00,2.08
5680.00,2.09
5679.00,2.09
5678.00,2.09
5677.00,2.10
5676.00,2.10
5675.00,2.10
5674.00,2.10
5673.00,2.11
5672.00,2.11
5671.00,2.12
5670.00,2.12
5669.00,2.12
5668.00,2.13
5667.00,2.13
5666.00,2.14
5665.00,2.14
5664.00,2.14
5663.00,2.15
5662.00,2.15
5661.00,2.15
5660.00,2.16
5659.00,2.16
5658.00,2.16
5657.00,2.16
5656.00,2.16
5655.00,2.16
5654.00,2.16
5653.00,2.17
5652.00,2.17
5651.00,2.17
5650.00,2.17
5649.00,2.17
5648.00,2.17
5647.00,2.18
5646.00,2.18
5645.00,2.18
5644.00,2.18
5643.00,2.19
5642.00,2.19
5641.00,2.19
5640.00,2.19
5639.00,2.19
5638.00,2.19
5637.00,2.19
5636.00,2.20
5635.00,2.20
5634.00,2.20
5633.00,2.20
5632.00,2.20
5631.00,2.20
5630.00,2.20
5629.00,2.20
5628.00,2.20
5627.00,2.20
5626.00,2.20
5625.00,2.20
5624.00,2.20
5623.00,2.20
5622.00,2.20
5621.00,2.20
5620.00,2.19
5619.00,2.19
5618.00,2.19
5617.00,2.19
5616.00,2.19
5615.00,2.19
5614.00,2.19
5613.00,2.18
5612.00,2.18
5611.00,2.18
5610.00,2.18
5609.00,2.18
5608.00,2.18
5607.00,2.18
5606.00,2.18
5605.00,2.17
5604.00,2.17
5603.00,2.18
5602.00,2.18
5601.00,2.18
5600.00,2.18
5599.00,2.18
5598.00,2.18
5597.00,2.18
5596.00,2.19
5595.00,2.19
5594.00,2.19
5593.00,2.20
5592.00,2.20
5591.00,2.20
5590.00,2.20
5589.00,2.21
5588.00,2.21
5587.00,2.21
5586.00,2.21
5585.00,2.22
5584.00,2.22
5583.00,2.22
5582.00,2.23
5581.00,2.23
5580.00,2.24
5579.00,2.24
5578.00,2.24
5577.00,2.24
5576.00,2.25
5575.00,2.25
5574.00,2.25
5573.00,2.25
5572.00,2.25
5571.00,2.25
5570.00,2.25
5569.00,2.25
5568.00,2.25
5567.00,2.25
5566.00,2.25
5565.00,2.25
5564.00,2.24
5563.00,2.24
5562.00,2.24
5561.00,2.24
5560.00,2.24
5559.00,2.24
5558.00,2.23
5557.00,2.23
5556.00,2.23
5555.00,2.23
5554.00,2.22
5553.00,2.22
5552.00,2.22
5551.00,2.22
5550.00,2.22
5549.00,2.21
5548.00,2.21
5547.00,2.21
5546.00,2.21
5545.00,2.21
5544.00,2.21
5543.00,2.21
5542.00,2.21
5541.00,2.21
5540.00,2.21
5539.00,2.21
5538.00,2.21
5537.00,2.21
5536.00,2.21
5535.00,2.21
5534.00,2.21
5533.00,2.22
5532.00,2.22
5531.00,2.22
5530.00,2.22
5529.00,2.22
5528.00,2.23
5527.00,2.23
5526.00,2.23
5525.00,2.23
5524.00,2.23
5523.00,2.24
5522.00,2.24
5521.00,2.24
5520.00,2.24
5519.00,2.24
5518.00,2.24
5517.00,2.24
5516.00,2.24
5515.00,2.24
5514.00,2.24
5513.00,2.24
5512.00,2.24
5511.00,2.24
5510.00,2.24
5509.00,2.24
5508.00,2.23
5507.00,2.23
5506.00,2.23
5505.00,2.23
5504.00,2.23
5503.00,2.22
5502.00,2.22
5501.00,2.22
5500.00,2.22
5499.00,2.22
5498.00,2.22
5497.00,2.22
5496.00,2.22
5495.00,2.22
5494.00,2.22
5493.00,2.22
5492.00,2.22
5491.00,2.22
5490.00,2.22
5489.00,2.22
5488.00,2.22
5487.00,2.22
5486.00,2.23
5485.00,2.23
5484.00,2.23
5483.00,2.23
5482.00,2.24
5481.00,2.24
5480.00,2.24
5479.00,2.24
5478.00,2.24
5477.00,2.24
5476.00,2.24
5475.00,2.25
5474.00,2.25
5473.00,2.25
5472.00,2.25
5471.00,2.25
5470.00,2.25
5469.00,2.25
5468.00,2.25
5467.00,2.25
5466.00,2.25
5465.00,2.25
5464.00,2.25
5463.00,2.25
5462.00,2.25
5461.00,2.25
5460.00,2.25
5459.00,2.25
5458.00,2.25
5457.00,2.25
5456.00,2.25
5455.00,2.25
5454.00,2.25
5453.00,2.25
5452.00,2.25
5451.00,2.25
5450.00,2.25
5449.00,2.25
5448.00,2.25
5447.00,2.26
5446.00,2.26
5445.00,2.26
5444.00,2.26
5443.00,2.26
5442.00,2.26
5441.00,2.25
5440.00,2.25
5439.00,2.25
5438.00,2.25
5437.00,2.25
5436.00,2.25
5435.00,2.25
5434.00,2.24
5433.00,2.24
5432.00,2.24
5431.00,2.24
5430.00,2.23
5429.00,2.23
5428.00,2.23
5427.00,2.23
5426.00,2.22
5425.00,2.22
5424.00,2.22
5423.00,2.21
5422.00,2.21
5421.00,2.21
5420.00,2.20
5419.00,2.20
5418.00,2.20
5417.00,2.19
5416.00,2.19
5415.00,2.18
5414.00,2.18
5413.00,2.18
5412.00,2.17
5411.00,2.17
5410.00,2.16
5409.00,2.16
5408.00,2.15
5407.00,2.15
5406.00,2.14
5405.00,2.14
5404.00,2.13
5403.00,2.13
5402.00,2.13
5401.00,2.12
5400.00,2.12
5399.00,2.11
5398.00,2.11
5397.00,2.11
5396.00,2.10
5395.00,2.10
5394.00,2.10
5393.00,2.09
5392.00,2.09
5391.00,2.09
5390.00,2.08
5389.00,2.08
5388.00,2.08
5387.00,2.08
5386.00,2.08
5385.00,2.07
5384.00,2.07
5383.00,2.07
5382.00,2.07
5381.00,2.06
5380.00,2.06
5379.00,2.06
5378.00,2.06
5377.00,2.05
5376.00,2.05
5375.00,2.05
5374.00,2.05
5373.00,2.05
5372.00,2.05
5371.00,2.04
5370.00,2.04
5369.00,2.04
5368.00,2.04
5367.00,2.04
5366.00,2.03
5365.00,2.03
5364.00,2.03
5363.00,2.02
5362.00,2.02
5361.00,2.01
5360.00,2.01
5359.00,2.00
5358.00,2.00
5357.00,1.99
5356.00,1.98
5355.00,1.97
5354.00,1.97
5353.00,1.96
5352.00,1.95
5351.00,1.94
5350.00,1.93
5349.00,1.92
5348.00,1.91
5347.00,1.90
5346.00,1.89
5345.00,1.88
5344.00,1.87
5343.00,1.86
5342.00,1.85
5341.00,1.84
5340.00,1.82
5339.00,1.81
5338.00,1.80
5337.00,1.79
5336.00,1.78
5335.00,1.76
5334.00,1.75
5333.00,1.74
5332.00,1.73
5331.00,1.71
5330.00,1.70
5329.00,1.69
5328.00,1.68
5327.00,1.67
5326.00,1.66
5325.00,1.65
5324.00,1.64
5323.00,1.63
5322.00,1.62
5321.00,1.61
5320.00,1.60
5319.00,1.59
5318.00,1.58
5317.00,1.57
5316.00,1.56
5315.00,1.55
5314.00,1.54
5313.00,1.53
5312.00,1.52
5311.00,1.51
5310.00,1.50
5309.00,1.49
5308.00,1.49
5307.00,1.48
5306.00,1.47
5305.00,1.46
5304.00,1.45
5303.00,1.45
5302.00,1.44
5301.00,1.43
5300.00,1.42
5299.00,1.41
5298.00,1.40
5297.00,1.39
5296.00,1.38
5295.00,1.37
5294.00,1.36
5293.00,1.36
5292.00,1.35
5291.00,1.34
5290.00,1.33
5289.00,1.33
5288.00,1.32
5287.00,1.31
5286.00,1.31
5285.00,1.30
5284.00,1.29
5283.00,1.29
5282.00,1.28
5281.00,1.28
5280.00,1.28
5279.00,1.27
5278.00,1.27
5277.00,1.26
5276.00,1.26
5275.00,1.26
5274.00,1.26
5273.00,1.26
5272.00,1.26
5271.00,1.26
5270.00,1.26
5269.00,1.26
5268.00,1.26
5267.00,1.26
5266.00,1.26
5265.00,1.26
5264.00,1.26
5263.00,1.26
5262.00,1.26
5261.00,1.26
5260.00,1.26
5259.00,1.26
5258.00,1.26
5257.00,1.25
5256.00,1.25
5255.00,1.25
5254.00,1.24
5253.00,1.24
5252.00,1.24
5251.00,1.23
5250.00,1.23
5249.00,1.22
5248.00,1.21
5247.00,1.21
5246.00,1.20
5245.00,1.19
5244.00,1.18
5243.00,1.18
5242.00,1.17
5241.00,1.16
5240.00,1.16
5239.00,1.15
5238.00,1.15
5237.00,1.14
5236.00,1.14
5235.00,1.14
5234.00,1.13
5233.00,1.13
5232.00,1.13
5231.00,1.13
5230.00,1.13
5229.00,1.13
5228.00,1.13
5227.00,1.13
5226.00,1.13
5225.00,1.14
5224.00,1.14
5223.00,1.14
5222.00,1.15
5221.00,1.15
5220.00,1.16
5219.00,1.17
5218.00,1.17
5217.00,1.18
5216.00,1.18
5215.00,1.19
5214.00,1.19
5213.00,1.20
5212.00,1.20
5211.00,1.21
5210.00,1.21
5209.00,1.22
5208.00,1.22
5207.00,1.22
5206.00,1.23
5205.00,1.23
5204.00,1.23
5203.00,1.23
5202.00,1.23
5201.00,1.24
5200.00,1.24
5199.00,1.24
5198.00,1.24
5197.00,1.24
5196.00,1.24
5195.00,1.24
5194.00,1.24
5193.00,1.24
5192.00,1.25
5191.00,1.25
5190.00,1.25
5189.00,1.25
5188.00,1.25
5187.00,1.25
5186.00,1.26
5185.00,1.26
5184.00,1.26
5183.00,1.26
5182.00,1.26
5181.00,1.27
5180.00,1.27
5179.00,1.27
5178.00,1.27
5177.00,1.27
5176.00,1.28
5175.00,1.28
5174.00,1.28
5173.00,1.28
5172.00,1.28
5171.00,1.28
5170.00,1.28
5169.00,1.28
5168.00,1.28
5167.00,1.28
5166.00,1.28
5165.00,1.28
5164.00,1.28
5163.00,1.28
5162.00,1.28
5161.00,1.27
5160.00,1.27
5159.00,1.27
5158.00,1.27
5157.00,1.27
5156.00,1.26
5155.00,1.26
5154.00,1.26
5153.00,1.26
5152.00,1.26
5151.00,1.26
5150.00,1.26
5149.00,1.26
5148.00,1.26
5147.00,1.25
5146.00,1.25
5145.00,1.25
5144.00,1.25
5143.00,1.25
5142.00,1.25
5141.00,1.24
5140.00,1.24
5139.00,1.24
5138.00,1.24
5137.00,1.24
5136.00,1.24
5135.00,1.24
5134.00,1.24
5133.00,1.24
5132.00,1.24
5131.00,1.24
5130.00,1.24
5129.00,1.23
5128.00,1.23
5127.00,1.23
5126.00,1.23
5125.00,1.23
5124.00,1.23
5123.00,1.23
5122.00,1.23
5121.00,1.23
5120.00,1.23
5119.00,1.23
5118.00,1.23
5117.00,1.23
5116.00,1.23
5115.00,1.23
5114.00,1.23
5113.00,1.23
5112.00,1.24
5111.00,1.24
5110.00,1.24
5109.00,1.24
5108.00,1.25
5107.00,1.25
5106.00,1.25
5105.00,1.26
5104.00,1.26
5103.00,1.26
5102.00,1.27
5101.00,1.27
5100.00,1.27
5099.00,1.28
5098.00,1.28
5097.00,1.28
5096.00,1.29
5095.00,1.29
5094.00,1.29
5093.00,1.30
5092.00,1.30
5091.00,1.30
5090.00,1.31
5089.00,1.31
5088.00,1.31
5087.00,1.31
5086.00,1.31
5085.00,1.32
5084.00,1.32
5083.00,1.32
5082.00,1.32
5081.00,1.32
5080.00,1.32
5079.00,1.32
5078.00,1.32
5077.00,1.32
5076.00,1.32
5075.00,1.32
5074.00,1.32
5073.00,1.32
5072.00,1.32
5071.00,1.32
5070.00,1.32
5069.00,1.32
5068.00,1.32
5067.00,1.32
5066.00,1.32
5065.00,1.32
5064.00,1.32
5063.00,1.32
5062.00,1.33
5061.00,1.33
5060.00,1.33
5059.00,1.33
5058.00,1.33
5057.00,1.34
5056.00,1.34
5055.00,1.34
5054.00,1.34
5053.00,1.35
5052.00,1.35
5051.00,1.36
5050.00,1.36
5049.00,1.37
5048.00,1.37
5047.00,1.38
5046.00,1.39
5045.00,1.39
5044.00,1.40
5043.00,1.41
5042.00,1.41
5041.00,1.42
5040.00,1.42
5039.00,1.43
5038.00,1.43
5037.00,1.43
5036.00,1.44
5035.00,1.44
5034.00,1.44
5033.00,1.44
5032.00,1.44
5031.00,1.45
5030.00,1.45
5029.00,1.45
5028.00,1.45
5027.00,1.45
5026.00,1.45
5025.00,1.45
5024.00,1.45
5023.00,1.45
5022.00,1.45
5021.00,1.45
5020.00,1.45
5019.00,1.44
5018.00,1.44
5017.00,1.44
5016.00,1.43
5015.00,1.43
5014.00,1.43
5013.00,1.42
5012.00,1.42
5011.00,1.42
5010.00,1.42
5009.00,1.42
5008.00,1.42
5007.00,1.42
5006.00,1.42
5005.00,1.42
5004.00,1.42
5003.00,1.42
5002.00,1.42
5001.00,1.42
5000.00,1.42
4999.00,1.42
4998.00,1.42
4997.00,1.42
4996.00,1.42
4995.00,1.42
4994.00,1.41
4993.00,1.41
4992.00,1.41
4991.00,1.41
4990.00,1.41
4989.00,1.41
4988.00,1.42
4987.00,1.42
4986.00,1.42
4985.00,1.42
4984.00,1.42
4983.00,1.42
4982.00,1.42
4981.00,1.42
4980.00,1.42
4979.00,1.42
4978.00,1.42
4977.00,1.42
4976.00,1.42
4975.00,1.42
4974.00,1.42
4973.00,1.42
4972.00,1.42
4971.00,1.43
4970.00,1.43
4969.00,1.44
4968.00,1.44
4967.00,1.45
4966.00,1.45
4965.00,1.46
4964.00,1.46
4963.00,1.46
4962.00,1.47
4961.00,1.47
4960.00,1.48
4959.00,1.49
4958.00,1.49
4957.00,1.50
4956.00,1.50
4955.00,1.51
4954.00,1.51
4953.00,1.52
4952.00,1.53
4951.00,1.53
4950.00,1.54
4949.00,1.54
4948.00,1.55
4947.00,1.55
4946.00,1.55
4945.00,1.56
4944.00,1.56
4943.00,1.56
4942.00,1.56
4941.00,1.56
4940.00,1.57
4939.00,1.57
4938.00,1.57
4937.00,1.57
4936.00,1.56
4935.00,1.56
4934.00,1.56
4933.00,1.55
4932.00,1.55
4931.00,1.55
4930.00,1.54
4929.00,1.54
4928.00,1.53
4927.00,1.53
4926.00,1.52
4925.00,1.52
4924.00,1.52
4923.00,1.51
4922.00,1.51
4921.00,1.51
4920.00,1.50
4919.00,1.50
4918.00,1.50
4917.00,1.50
4916.00,1.50
4915.00,1.49
4914.00,1.49
4913.00,1.49
4912.00,1.49
4911.00,1.49
4910.00,1.50
4909.00,1.50
4908.00,1.50
4907.00,1.50
4906.00,1.51
4905.00,1.51
4904.00,1.52
4903.00,1.53
4902.00,1.53
4901.00,1.54
4900.00,1.54
4899.00,1.55
4898.00,1.55
4897.00,1.56
4896.00,1.56
4895.00,1.57
4894.00,1.57
4893.00,1.58
4892.00,1.58
4891.00,1.59
4890.00,1.59
4889.00,1.59
4888.00,1.59
4887.00,1.60
4886.00,1.60
4885.00,1.60
4884.00,1.60
4883.00,1.61
4882.00,1.61
4881.00,1.61
4880.00,1.61
4879.00,1.61
4878.00,1.61
4877.00,1.61
4876.00,1.61
4875.00,1.61
4874.00,1.61
4873.00,1.60
4872.00,1.60
4871.00,1.60
4870.00,1.60
4869.00,1.60
4868.00,1.61
4867.00,1.61
4866.00,1.61
4865.00,1.61
4864.00,1.62
4863.00,1.62
4862.00,1.62
4861.00,1.63
4860.00,1.63
4859.00,1.63
4858.00,1.64
4857.00,1.64
4856.00,1.64
4855.00,1.65
4854.00,1.65
4853.00,1.66
4852.00,1.67
4851.00,1.67
4850.00,1.68
4849.00,1.68
4848.00,1.69
4847.00,1.69
4846.00,1.70
4845.00,1.70
4844.00,1.70
4843.00,1.71
4842.00,1.71
4841.00,1.71
4840.00,1.71
4839.00,1.71
4838.00,1.71
4837.00,1.71
4836.00,1.71
4835.00,1.71
4834.00,1.71
4833.00,1.72
4832.00,1.72
4831.00,1.72
4830.00,1.72
4829.00,1.72
4828.00,1.72
4827.00,1.72
4826.00,1.73
4825.00,1.73
4824.00,1.73
4823.00,1.73
4822.00,1.73
4821.00,1.73
4820.00,1.74
4819.00,1.74
4818.00,1.75
4817.00,1.75
4816.00,1.75
4815.00,1.76
4814.00,1.76
4813.00,1.77
4812.00,1.77
4811.00,1.78
4810.00,1.78
4809.00,1.78
4808.00,1.79
4807.00,1.79
4806.00,1.79
4805.00,1.80
4804.00,1.80
4803.00,1.80
4802.00,1.80
4801.00,1.80
4800.00,1.80
4799.00,1.80
4798.00,1.80
4797.00,1.80
4796.00,1.79
4795.00,1.79
4794.00,1.79
4793.00,1.78
4792.00,1.78
4791.00,1.78
4790.00,1.77
4789.00,1.77
4788.00,1.77
4787.00,1.77
4786.00,1.77
4785.00,1.77
4784.00,1.77
4783.00,1.77
4782.00,1.77
4781.00,1.77
4780.00,1.77
4779.00,1.77
4778.00,1.77
4777.00,1.78
4776.00,1.78
4775.00,1.78
4774.00,1.79
4773.00,1.79
4772.00,1.80
4771.00,1.81
4770.00,1.81
4769.00,1.82
4768.00,1.83
4767.00,1.84
4766.00,1.85
4765.00,1.86
4764.00,1.86
4763.00,1.87
4762.00,1.88
4761.00,1.88
4760.00,1.89
4759.00,1.90
4758.00,1.90
4757.00,1.91
4756.00,1.91
4755.00,1.92
4754.00,1.92
4753.00,1.93
4752.00,1.93
4751.00,1.94
4750.00,1.94
4749.00,1.94
4748.00,1.94
4747.00,1.95
4746.00,1.95
4745.00,1.95
4744.00,1.95
4743.00,1.95
4742.00,1.95
4741.00,1.94
4740.00,1.94
4739.00,1.94
4738.00,1.94
4737.00,1.94
4736.00,1.93
4735.00,1.93
4734.00,1.93
4733.00,1.93
4732.00,1.93
4731.00,1.93
4730.00,1.92
4729.00,1.92
4728.00,1.92
4727.00,1.91
4726.00,1.91
4725.00,1.91
4724.00,1.91
4723.00,1.91
4722.00,1.90
4721.00,1.90
4720.00,1.90
4719.00,1.90
4718.00,1.90
4717.00,1.91
4716.00,1.91
4715.00,1.91
4714.00,1.91
4713.00,1.91
4712.00,1.92
4711.00,1.92
4710.00,1.92
4709.00,1.93
4708.00,1.93
4707.00,1.93
4706.00,1.94
4705.00,1.94
4704.00,1.94
4703.00,1.95
4702.00,1.95
4701.00,1.96
4700.00,1.96
4699.00,1.97
4698.00,1.97
4697.00,1.98
4696.00,1.98
4695.00,1.99
4694.00,1.99
4693.00,1.99
4692.00,2.00
4691.00,2.00
4690.00,2.00
4689.00,2.00
4688.00,2.01
4687.00,2.01
4686.00,2.01
4685.00,2.01
4684.00,2.01
4683.00,2.01
4682.00,2.01
4681.00,2.01
4680.00,2.01
4679.00,2.01
4678.00,2.02
4677.00,2.02
4676.00,2.02
4675.00,2.02
4674.00,2.02
4673.00,2.02
4672.00,2.03
4671.00,2.03
4670.00,2.03
4669.00,2.03
4668.00,2.04
4667.00,2.04
4666.00,2.05
4665.00,2.05
4664.00,2.05
4663.00,2.06
4662.00,2.07
4661.00,2.07
4660.00,2.08
4659.00,2.08
4658.00,2.09
4657.00,2.10
4656.00,2.10
4655.00,2.11
4654.00,2.11
4653.00,2.12
4652.00,2.13
4651.00,2.13
4650.00,2.14
4649.00,2.14
4648.00,2.15
4647.00,2.15
4646.00,2.15
4645.00,2.16
4644.00,2.16
4643.00,2.17
4642.00,2.17
4641.00,2.17
4640.00,2.17
4639.00,2.18
4638.00,2.18
4637.00,2.18
4636.00,2.19
4635.00,2.19
4634.00,2.19
4633.00,2.19
4632.00,2.19
4631.00,2.19
4630.00,2.19
4629.00,2.20
4628.00,2.20
4627.00,2.20
4626.00,2.20
4625.00,2.20
4624.00,2.20
4623.00,2.20
4622.00,2.20
4621.00,2.20
4620.00,2.20
4619.00,2.20
4618.00,2.20
4617.00,2.19
4616.00,2.19
4615.00,2.19
4614.00,2.19
4613.00,2.19
4612.00,2.18
4611.00,2.18
4610.00,2.18
4609.00,2.18
4608.00,2.18
4607.00,2.18
4606.00,2.18
4605.00,2.18
4604.00,2.18
4603.00,2.18
4602.00,2.18
4601.00,2.18
4600.00,2.18
4599.00,2.18
4598.00,2.18
4597.00,2.18
4596.00,2.19
4595.00,2.19
4594.00,2.19
4593.00,2.19
4592.00,2.19
4591.00,2.20
4590.00,2.20
4589.00,2.20
4588.00,2.21
4587.00,2.21
4586.00,2.21
4585.00,2.22
4584.00,2.22
4583.00,2.22
4582.00,2.22
4581.00,2.22
4580.00,2.22
4579.00,2.22
4578.00,2.23
4577.00,2.23
4576.00,2.23
4575.00,2.23
4574.00,2.23
4573.00,2.23
4572.00,2.23
4571.00,2.23
4570.00,2.23
4569.00,2.23
4568.00,2.23
4567.00,2.23
4566.00,2.23
4565.00,2.23
4564.00,2.23
4563.00,2.23
4562.00,2.23
4561.00,2.23
4560.00,2.23
4559.00,2.23
4558.00,2.23
4557.00,2.23
4556.00,2.23
4555.00,2.23
4554.00,2.23
4553.00,2.23
4552.00,2.23
4551.00,2.23
4550.00,2.23
4549.00,2.23
4548.00,2.23
4547.00,2.23
4546.00,2.23
4545.00,2.23
4544.00,2.23
4543.00,2.23
4542.00,2.23
4541.00,2.23
4540.00,2.24
4539.00,2.24
4538.00,2.23
4537.00,2.23
4536.00,2.23
4535.00,2.23
4534.00,2.23
4533.00,2.23
4532.00,2.23
4531.00,2.24
4530.00,2.24
4529.00,2.24
4528.00,2.24
4527.00,2.24
4526.00,2.24
4525.00,2.24
4524.00,2.24
4523.00,2.24
4522.00,2.24
4521.00,2.24
4520.00,2.24
4519.00,2.24
4518.00,2.24
4517.00,2.24
4516.00,2.24
4515.00,2.24
4514.00,2.24
4513.00,2.24
4512.00,2.24
4511.00,2.24
4510.00,2.24
4509.00,2.24
4508.00,2.24
4507.00,2.24
4506.00,2.24
4505.00,2.24
4504.00,2.24
4503.00,2.23
4502.00,2.23
4501.00,2.23
4500.00,2.23
4499.00,2.23
4498.00,2.22
4497.00,2.22
4496.00,2.22
4495.00,2.22
4494.00,2.22
4493.00,2.21
4492.00,2.21
4491.00,2.21
4490.00,2.21
4489.00,2.21
4488.00,2.21
4487.00,2.21
4486.00,2.21
4485.00,2.21
4484.00,2.20
4483.00,2.20
4482.00,2.20
4481.00,2.20
4480.00,2.20
4479.00,2.20
4478.00,2.20
4477.00,2.19
4476.00,2.19
4475.00,2.19
4474.00,2.19
4473.00,2.19
4472.00,2.19
4471.00,2.19
4470.00,2.18
4469.00,2.18
4468.00,2.18
4467.00,2.18
4466.00,2.18
4465.00,2.17
4464.00,2.17
4463.00,2.17
4462.00,2.17
4461.00,2.17
4460.00,2.16
4459.00,2.16
4458.00,2.16
4457.00,2.15
4456.00,2.15
4455.00,2.15
4454.00,2.14
4453.00,2.14
4452.00,2.14
4451.00,2.14
4450.00,2.14
4449.00,2.13
4448.00,2.13
4447.00,2.13
4446.00,2.12
4445.00,2.12
4444.00,2.12
4443.00,2.11
4442.00,2.11
4441.00,2.10
4440.00,2.10
4439.00,2.09
4438.00,2.09
4437.00,2.08
4436.00,2.08
4435.00,2.07
4434.00,2.06
4433.00,2.06
4432.00,2.05
4431.00,2.04
4430.00,2.04
4429.00,2.03
4428.00,2.02
4427.00,2.01
4426.00,2.00
4425.00,1.99
4424.00,1.98
4423.00,1.97
4422.00,1.96
4421.00,1.95
4420.00,1.94
4419.00,1.93
4418.00,1.92
4417.00,1.92
4416.00,1.91
4415.00,1.90
4414.00,1.90
4413.00,1.89
4412.00,1.88
4411.00,1.88
4410.00,1.87
4409.00,1.87
4408.00,1.87
4407.00,1.87
4406.00,1.87
4405.00,1.87
4404.00,1.87
4403.00,1.87
4402.00,1.88
4401.00,1.88
4400.00,1.89
4399.00,1.89
4398.00,1.90
4397.00,1.90
4396.00,1.91
4395.00,1.91
4394.00,1.92
4393.00,1.92
4392.00,1.93
4391.00,1.93
4390.00,1.94
4389.00,1.94
4388.00,1.95
4387.00,1.96
4386.00,1.96
4385.00,1.97
4384.00,1.97
4383.00,1.98
4382.00,1.99
4381.00,1.99
4380.00,2.00
4379.00,2.01
4378.00,2.01
4377.00,2.02
4376.00,2.02
4375.00,2.02
4374.00,2.03
4373.00,2.03
4372.00,2.03
4371.00,2.04
4370.00,2.04
4369.00,2.05
4368.00,2.05
4367.00,2.06
4366.00,2.06
4365.00,2.06
4364.00,2.07
4363.00,2.07
4362.00,2.07
4361.00,2.07
4360.00,2.07
4359.00,2.07
4358.00,2.07
4357.00,2.07
4356.00,2.07
4355.00,2.06
4354.00,2.06
4353.00,2.05
4352.00,2.04
4351.00,2.04
4350.00,2.03
4349.00,2.03
4348.00,2.02
4347.00,2.01
4346.00,2.00
4345.00,2.00
4344.00,1.99
4343.00,1.98
4342.00,1.97
4341.00,1.96
4340.00,1.95
4339.00,1.94
4338.00,1.93
4337.00,1.93
4336.00,1.92
4335.00,1.91
4334.00,1.91
4333.00,1.90
4332.00,1.89
4331.00,1.89
4330.00,1.89
4329.00,1.88
4328.00,1.88
4327.00,1.88
4326.00,1.88
4325.00,1.89
4324.00,1.89
4323.00,1.89
4322.00,1.90
4321.00,1.90
4320.00,1.91
4319.00,1.91
4318.00,1.92
4317.00,1.92
4316.00,1.93
4315.00,1.94
4314.00,1.95
4313.00,1.96
4312.00,1.97
4311.00,1.98
4310.00,1.99
4309.00,2.00
4308.00,2.01
4307.00,2.02
4306.00,2.03
4305.00,2.04
4304.00,2.05
4303.00,2.05
4302.00,2.06
4301.00,2.07
4300.00,2.08
4299.00,2.08
4298.00,2.09
4297.00,2.09
4296.00,2.10
4295.00,2.10
4294.00,2.10
4293.00,2.11
4292.00,2.11
4291.00,2.11
4290.00,2.11
4289.00,2.11
4288.00,2.11
4287.00,2.11
4286.00,2.11
4285.00,2.11
4284.00,2.11
4283.00,2.11
4282.00,2.10
4281.00,2.10
4280.00,2.10
4279.00,2.10
4278.00,2.10
4277.00,2.09
4276.00,2.09
4275.00,2.09
4274.00,2.09
4273.00,2.08
4272.00,2.08
4271.00,2.08
4270.00,2.08
4269.00,2.08
4268.00,2.08
4267.00,2.08
4266.00,2.08
4265.00,2.08
4264.00,2.08
4263.00,2.09
4262.00,2.09
4261.00,2.09
4260.00,2.09
4259.00,2.09
4258.00,2.09
4257.00,2.09
4256.00,2.09
4255.00,2.10
4254.00,2.10
4253.00,2.09
4252.00,2.09
4251.00,2.09
4250.00,2.09
4249.00,2.09
4248.00,2.09
4247.00,2.08
4246.00,2.08
4245.00,2.08
4244.00,2.08
4243.00,2.08
4242.00,2.07
4241.00,2.07
4240.00,2.07
4239.00,2.06
4238.00,2.06
4237.00,2.05
4236.00,2.05
4235.00,2.04
4234.00,2.03
4233.00,2.03
4232.00,2.02
4231.00,2.02
4230.00,2.01
4229.00,2.01
4228.00,2.00
4227.00,2.00
4226.00,2.00
4225.00,1.99
4224.00,1.99
4223.00,1.99
4222.00,1.99
4221.00,1.99
4220.00,1.99
4219.00,1.99
4218.00,1.99
4217.00,2.00
4216.00,2.00
4215.00,2.00
4214.00,2.00
4213.00,2.00
4212.00,2.01
4211.00,2.01
4210.00,2.01
4209.00,2.02
4208.00,2.02
4207.00,2.02
4206.00,2.03
4205.00,2.03
4204.00,2.03
4203.00,2.04
4202.00,2.04
4201.00,2.04
4200.00,2.04
4199.00,2.04
4198.00,2.04
4197.00,2.05
4196.00,2.05
4195.00,2.05
4194.00,2.04
4193.00,2.04
4192.00,2.04
4191.00,2.04
4190.00,2.04
4189.00,2.04
4188.00,2.03
4187.00,2.03
4186.00,2.03
4185.00,2.03
4184.00,2.03
4183.00,2.03
4182.00,2.03
4181.00,2.03
4180.00,2.03
4179.00,2.03
4178.00,2.04
4177.00,2.04
4176.00,2.04
4175.00,2.04
4174.00,2.05
4173.00,2.05
4172.00,2.05
4171.00,2.05
4170.00,2.06
4169.00,2.06
4168.00,2.06
4167.00,2.07
4166.00,2.07
4165.00,2.08
4164.00,2.08
4163.00,2.08
4162.00,2.09
4161.00,2.09
4160.00,2.09
4159.00,2.09
4158.00,2.09
4157.00,2.09
4156.00,2.09
4155.00,2.09
4154.00,2.09
4153.00,2.09
4152.00,2.09
4151.00,2.09
4150.00,2.09
4149.00,2.08
4148.00,2.08
4147.00,2.07
4146.00,2.07
4145.00,2.06
4144.00,2.06
4143.00,2.05
4142.00,2.04
4141.00,2.04
4140.00,2.03
4139.00,2.02
4138.00,2.01
4137.00,2.00
4136.00,1.99
4135.00,1.98
4134.00,1.97
4133.00,1.96
4132.00,1.95
4131.00,1.94
4130.00,1.93
4129.00,1.92
4128.00,1.91
4127.00,1.91
4126.00,1.90
4125.00,1.89
4124.00,1.88
4123.00,1.88
4122.00,1.87
4121.00,1.87
4120.00,1.87
4119.00,1.86
4118.00,1.86
4117.00,1.86
4116.00,1.87
4115.00,1.87
4114.00,1.87
4113.00,1.88
4112.00,1.89
4111.00,1.89
4110.00,1.90
4109.00,1.90
4108.00,1.91
4107.00,1.91
4106.00,1.92
4105.00,1.93
4104.00,1.93
4103.00,1.94
4102.00,1.94
4101.00,1.95
4100.00,1.95
4099.00,1.95
4098.00,1.96
4097.00,1.96
4096.00,1.96
4095.00,1.96
4094.00,1.96
4093.00,1.96
4092.00,1.96
4091.00,1.96
4090.00,1.95
4089.00,1.95
4088.00,1.95
4087.00,1.95
4086.00,1.94
4085.00,1.94
4084.00,1.93
4083.00,1.93
4082.00,1.93
4081.00,1.93
4080.00,1.92
4079.00,1.92
4078.00,1.92
4077.00,1.92
4076.00,1.91
4075.00,1.91
4074.00,1.91
4073.00,1.92
4072.00,1.92
4071.00,1.92
4070.00,1.92
4069.00,1.93
4068.00,1.93
4067.00,1.93
4066.00,1.94
4065.00,1.94
4064.00,1.94
4063.00,1.94
4062.00,1.94
4061.00,1.94
4060.00,1.94
4059.00,1.94
4058.00,1.94
4057.00,1.94
4056.00,1.94
4055.00,1.94
4054.00,1.94
4053.00,1.94
4052.00,1.94
4051.00,1.94
4050.00,1.94
4049.00,1.94
4048.00,1.95
4047.00,1.95
4046.00,1.94
4045.00,1.94
4044.00,1.94
4043.00,1.94
4042.00,1.94
4041.00,1.95
4040.00,1.95
4039.00,1.95
4038.00,1.96
4037.00,1.97
4036.00,1.97
4035.00,1.98
4034.00,1.98
4033.00,1.99
4032.00,1.99
4031.00,2.00
4030.00,2.00
4029.00,2.01
4028.00,2.01
4027.00,2.02
4026.00,2.02
4025.00,2.02
4024.00,2.03
4023.00,2.03
4022.00,2.04
4021.00,2.05
4020.00,2.06
4019.00,2.07
4018.00,2.08
4017.00,2.10
4016.00,2.11
4015.00,2.12
4014.00,2.14
4013.00,2.15
4012.00,2.17
4011.00,2.19
4010.00,2.21
4009.00,2.23
4008.00,2.26
4007.00,2.28
4006.00,2.31
4005.00,2.34
4004.00,2.37
4003.00,2.40
4002.00,2.43
4001.00,2.46
4000.00,2.50
