创建为新数据集,样品 1132 用户 Administrator 日期 星期二, 七月 30 2019
cm-1,%T
10000.00,2.04
9999.00,2.02
9998.00,1.99
9997.00,1.97
9996.00,1.95
9995.00,1.92
9994.00,1.90
9993.00,1.87
9992.00,1.85
9991.00,1.82
9990.00,1.80
9989.00,1.77
9988.00,1.75
9987.00,1.72
9986.00,1.70
9985.00,1.68
9984.00,1.66
9983.00,1.64
9982.00,1.63
9981.00,1.62
9980.00,1.61
9979.00,1.60
9978.00,1.59
9977.00,1.59
9976.00,1.59
9975.00,1.58
9974.00,1.58
9973.00,1.57
9972.00,1.57
9971.00,1.57
9970.00,1.56
9969.00,1.56
9968.00,1.57
9967.00,1.58
9966.00,1.59
9965.00,1.60
9964.00,1.63
9963.00,1.65
9962.00,1.68
9961.00,1.72
9960.00,1.75
9959.00,1.79
9958.00,1.82
9957.00,1.86
9956.00,1.89
9955.00,1.92
9954.00,1.94
9953.00,1.97
9952.00,1.99
9951.00,2.01
9950.00,2.02
9949.00,2.04
9948.00,2.06
9947.00,2.08
9946.00,2.09
9945.00,2.11
9944.00,2.12
9943.00,2.13
9942.00,2.13
9941.00,2.13
9940.00,2.13
9939.00,2.12
9938.00,2.10
9937.00,2.08
9936.00,2.06
9935.00,2.03
9934.00,2.00
9933.00,1.97
9932.00,1.94
9931.00,1.91
9930.00,1.88
9929.00,1.85
9928.00,1.82
9927.00,1.79
9926.00,1.77
9925.00,1.75
9924.00,1.73
9923.00,1.71
9922.00,1.69
9921.00,1.68
9920.00,1.66
9919.00,1.65
9918.00,1.63
9917.00,1.62
9916.00,1.61
9915.00,1.60
9914.00,1.59
9913.00,1.58
9912.00,1.57
9911.00,1.56
9910.00,1.55
9909.00,1.54
9908.00,1.53
9907.00,1.52
9906.00,1.51
9905.00,1.50
9904.00,1.50
9903.00,1.49
9902.00,1.48
9901.00,1.48
9900.00,1.47
9899.00,1.46
9898.00,1.45
9897.00,1.44
9896.00,1.43
9895.00,1.42
9894.00,1.41
9893.00,1.39
9892.00,1.38
9891.00,1.37
9890.00,1.35
9889.00,1.35
9888.00,1.34
9887.00,1.34
9886.00,1.34
9885.00,1.34
9884.00,1.34
9883.00,1.35
9882.00,1.36
9881.00,1.37
9880.00,1.39
9879.00,1.40
9878.00,1.41
9877.00,1.41
9876.00,1.42
9875.00,1.43
9874.00,1.43
9873.00,1.43
9872.00,1.43
9871.00,1.43
9870.00,1.43
9869.00,1.43
9868.00,1.43
9867.00,1.44
9866.00,1.44
9865.00,1.44
9864.00,1.45
9863.00,1.45
9862.00,1.46
9861.00,1.46
9860.00,1.46
9859.00,1.46
9858.00,1.45
9857.00,1.44
9856.00,1.43
9855.00,1.42
9854.00,1.41
9853.00,1.39
9852.00,1.38
9851.00,1.37
9850.00,1.36
9849.00,1.35
9848.00,1.35
9847.00,1.35
9846.00,1.35
9845.00,1.36
9844.00,1.36
9843.00,1.37
9842.00,1.38
9841.00,1.39
9840.00,1.39
9839.00,1.40
9838.00,1.41
9837.00,1.43
9836.00,1.44
9835.00,1.45
9834.00,1.47
9833.00,1.48
9832.00,1.50
9831.00,1.52
9830.00,1.54
9829.00,1.56
9828.00,1.58
9827.00,1.61
9826.00,1.63
9825.00,1.65
9824.00,1.67
9823.00,1.69
9822.00,1.71
9821.00,1.73
9820.00,1.75
9819.00,1.76
9818.00,1.77
9817.00,1.78
9816.00,1.79
9815.00,1.79
9814.00,1.80
9813.00,1.80
9812.00,1.80
9811.00,1.80
9810.00,1.79
9809.00,1.79
9808.00,1.78
9807.00,1.77
9806.00,1.76
9805.00,1.76
9804.00,1.75
9803.00,1.74
9802.00,1.73
9801.00,1.72
9800.00,1.71
9799.00,1.70
9798.00,1.70
9797.00,1.69
9796.00,1.69
9795.00,1.68
9794.00,1.68
9793.00,1.68
9792.00,1.68
9791.00,1.68
9790.00,1.69
9789.00,1.69
9788.00,1.70
9787.00,1.71
9786.00,1.71
9785.00,1.72
9784.00,1.72
9783.00,1.72
9782.00,1.73
9781.00,1.73
9780.00,1.73
9779.00,1.73
9778.00,1.73
9777.00,1.73
9776.00,1.73
9775.00,1.74
9774.00,1.74
9773.00,1.74
9772.00,1.75
9771.00,1.75
9770.00,1.75
9769.00,1.75
9768.00,1.74
9767.00,1.73
9766.00,1.72
9765.00,1.71
9764.00,1.70
9763.00,1.68
9762.00,1.66
9761.00,1.64
9760.00,1.62
9759.00,1.60
9758.00,1.59
9757.00,1.57
9756.00,1.56
9755.00,1.55
9754.00,1.54
9753.00,1.53
9752.00,1.52
9751.00,1.51
9750.00,1.50
9749.00,1.49
9748.00,1.47
9747.00,1.45
9746.00,1.44
9745.00,1.42
9744.00,1.40
9743.00,1.38
9742.00,1.36
9741.00,1.35
9740.00,1.34
9739.00,1.33
9738.00,1.32
9737.00,1.32
9736.00,1.32
9735.00,1.32
9734.00,1.32
9733.00,1.33
9732.00,1.33
9731.00,1.34
9730.00,1.35
9729.00,1.35
9728.00,1.36
9727.00,1.36
9726.00,1.37
9725.00,1.37
9724.00,1.38
9723.00,1.39
9722.00,1.40
9721.00,1.41
9720.00,1.42
9719.00,1.43
9718.00,1.44
9717.00,1.46
9716.00,1.47
9715.00,1.49
9714.00,1.50
9713.00,1.51
9712.00,1.52
9711.00,1.53
9710.00,1.54
9709.00,1.55
9708.00,1.56
9707.00,1.56
9706.00,1.57
9705.00,1.57
9704.00,1.58
9703.00,1.58
9702.00,1.58
9701.00,1.58
9700.00,1.59
9699.00,1.59
9698.00,1.59
9697.00,1.60
9696.00,1.60
9695.00,1.61
9694.00,1.61
9693.00,1.62
9692.00,1.63
9691.00,1.63
9690.00,1.64
9689.00,1.64
9688.00,1.64
9687.00,1.65
9686.00,1.65
9685.00,1.65
9684.00,1.66
9683.00,1.67
9682.00,1.68
9681.00,1.69
9680.00,1.70
9679.00,1.72
9678.00,1.73
9677.00,1.75
9676.00,1.77
9675.00,1.78
9674.00,1.79
9673.00,1.80
9672.00,1.81
9671.00,1.82
9670.00,1.82
9669.00,1.82
9668.00,1.82
9667.00,1.82
9666.00,1.82
9665.00,1.82
9664.00,1.82
9663.00,1.83
9662.00,1.83
9661.00,1.83
9660.00,1.83
9659.00,1.84
9658.00,1.83
9657.00,1.83
9656.00,1.82
9655.00,1.81
9654.00,1.79
9653.00,1.77
9652.00,1.75
9651.00,1.72
9650.00,1.70
9649.00,1.67
9648.00,1.65
9647.00,1.63
9646.00,1.61
9645.00,1.60
9644.00,1.59
9643.00,1.58
9642.00,1.57
9641.00,1.56
9640.00,1.55
9639.00,1.55
9638.00,1.54
9637.00,1.53
9636.00,1.52
9635.00,1.51
9634.00,1.50
9633.00,1.49
9632.00,1.48
9631.00,1.48
9630.00,1.47
9629.00,1.47
9628.00,1.47
9627.00,1.47
9626.00,1.47
9625.00,1.48
9624.00,1.48
9623.00,1.49
9622.00,1.50
9621.00,1.50
9620.00,1.51
9619.00,1.51
9618.00,1.52
9617.00,1.52
9616.00,1.53
9615.00,1.53
9614.00,1.53
9613.00,1.53
9612.00,1.53
9611.00,1.53
9610.00,1.54
9609.00,1.55
9608.00,1.56
9607.00,1.57
9606.00,1.58
9605.00,1.59
9604.00,1.61
9603.00,1.62
9602.00,1.63
9601.00,1.65
9600.00,1.66
9599.00,1.67
9598.00,1.68
9597.00,1.69
9596.00,1.69
9595.00,1.70
9594.00,1.70
9593.00,1.70
9592.00,1.69
9591.00,1.69
9590.00,1.69
9589.00,1.69
9588.00,1.68
9587.00,1.68
9586.00,1.68
9585.00,1.67
9584.00,1.67
9583.00,1.67
9582.00,1.66
9581.00,1.66
9580.00,1.66
9579.00,1.65
9578.00,1.64
9577.00,1.64
9576.00,1.63
9575.00,1.62
9574.00,1.61
9573.00,1.60
9572.00,1.60
9571.00,1.60
9570.00,1.60
9569.00,1.60
9568.00,1.61
9567.00,1.61
9566.00,1.62
9565.00,1.63
9564.00,1.64
9563.00,1.66
9562.00,1.67
9561.00,1.67
9560.00,1.68
9559.00,1.69
9558.00,1.69
9557.00,1.69
9556.00,1.68
9555.00,1.68
9554.00,1.67
9553.00,1.66
9552.00,1.65
9551.00,1.64
9550.00,1.63
9549.00,1.62
9548.00,1.61
9547.00,1.60
9546.00,1.58
9545.00,1.57
9544.00,1.56
9543.00,1.54
9542.00,1.53
9541.00,1.51
9540.00,1.49
9539.00,1.47
9538.00,1.45
9537.00,1.44
9536.00,1.42
9535.00,1.41
9534.00,1.40
9533.00,1.39
9532.00,1.38
9531.00,1.38
9530.00,1.38
9529.00,1.38
9528.00,1.38
9527.00,1.38
9526.00,1.39
9525.00,1.39
9524.00,1.40
9523.00,1.40
9522.00,1.41
9521.00,1.41
9520.00,1.42
9519.00,1.43
9518.00,1.44
9517.00,1.44
9516.00,1.45
9515.00,1.46
9514.00,1.46
9513.00,1.47
9512.00,1.47
9511.00,1.48
9510.00,1.48
9509.00,1.48
9508.00,1.48
9507.00,1.48
9506.00,1.47
9505.00,1.47
9504.00,1.47
9503.00,1.46
9502.00,1.46
9501.00,1.46
9500.00,1.46
9499.00,1.46
9498.00,1.46
9497.00,1.46
9496.00,1.47
9495.00,1.48
9494.00,1.49
9493.00,1.50
9492.00,1.51
9491.00,1.52
9490.00,1.54
9489.00,1.56
9488.00,1.58
9487.00,1.60
9486.00,1.62
9485.00,1.65
9484.00,1.67
9483.00,1.70
9482.00,1.73
9481.00,1.75
9480.00,1.78
9479.00,1.81
9478.00,1.84
9477.00,1.87
9476.00,1.89
9475.00,1.92
9474.00,1.94
9473.00,1.96
9472.00,1.97
9471.00,1.98
9470.00,1.99
9469.00,2.00
9468.00,2.00
9467.00,2.00
9466.00,2.00
9465.00,1.99
9464.00,1.98
9463.00,1.96
9462.00,1.95
9461.00,1.93
9460.00,1.91
9459.00,1.89
9458.00,1.87
9457.00,1.86
9456.00,1.84
9455.00,1.82
9454.00,1.80
9453.00,1.79
9452.00,1.77
9451.00,1.76
9450.00,1.74
9449.00,1.73
9448.00,1.71
9447.00,1.70
9446.00,1.69
9445.00,1.68
9444.00,1.67
9443.00,1.66
9442.00,1.66
9441.00,1.65
9440.00,1.64
9439.00,1.64
9438.00,1.63
9437.00,1.62
9436.00,1.61
9435.00,1.60
9434.00,1.59
9433.00,1.57
9432.00,1.56
9431.00,1.54
9430.00,1.53
9429.00,1.51
9428.00,1.50
9427.00,1.48
9426.00,1.47
9425.00,1.46
9424.00,1.44
9423.00,1.43
9422.00,1.42
9421.00,1.41
9420.00,1.40
9419.00,1.39
9418.00,1.38
9417.00,1.38
9416.00,1.37
9415.00,1.37
9414.00,1.36
9413.00,1.37
9412.00,1.37
9411.00,1.38
9410.00,1.39
9409.00,1.41
9408.00,1.42
9407.00,1.44
9406.00,1.46
9405.00,1.47
9404.00,1.49
9403.00,1.50
9402.00,1.51
9401.00,1.52
9400.00,1.53
9399.00,1.53
9398.00,1.54
9397.00,1.54
9396.00,1.55
9395.00,1.55
9394.00,1.55
9393.00,1.55
9392.00,1.56
9391.00,1.56
9390.00,1.56
9389.00,1.56
9388.00,1.56
9387.00,1.55
9386.00,1.55
9385.00,1.54
9384.00,1.53
9383.00,1.52
9382.00,1.50
9381.00,1.49
9380.00,1.47
9379.00,1.46
9378.00,1.45
9377.00,1.44
9376.00,1.43
9375.00,1.42
9374.00,1.41
9373.00,1.40
9372.00,1.40
9371.00,1.40
9370.00,1.39
9369.00,1.39
9368.00,1.38
9367.00,1.38
9366.00,1.37
9365.00,1.37
9364.00,1.37
9363.00,1.36
9362.00,1.36
9361.00,1.36
9360.00,1.36
9359.00,1.35
9358.00,1.35
9357.00,1.35
9356.00,1.35
9355.00,1.35
9354.00,1.36
9353.00,1.36
9352.00,1.36
9351.00,1.36
9350.00,1.37
9349.00,1.37
9348.00,1.37
9347.00,1.37
9346.00,1.37
9345.00,1.38
9344.00,1.38
9343.00,1.37
9342.00,1.37
9341.00,1.37
9340.00,1.36
9339.00,1.35
9338.00,1.34
9337.00,1.33
9336.00,1.32
9335.00,1.31
9334.00,1.29
9333.00,1.28
9332.00,1.26
9331.00,1.25
9330.00,1.23
9329.00,1.22
9328.00,1.20
9327.00,1.19
9326.00,1.17
9325.00,1.16
9324.00,1.14
9323.00,1.12
9322.00,1.10
9321.00,1.08
9320.00,1.06
9319.00,1.04
9318.00,1.01
9317.00,0.99
9316.00,0.98
9315.00,0.96
9314.00,0.95
9313.00,0.94
9312.00,0.93
9311.00,0.93
9310.00,0.93
9309.00,0.93
9308.00,0.94
9307.00,0.95
9306.00,0.96
9305.00,0.98
9304.00,0.99
9303.00,1.01
9302.00,1.03
9301.00,1.05
9300.00,1.07
9299.00,1.10
9298.00,1.12
9297.00,1.14
9296.00,1.17
9295.00,1.19
9294.00,1.22
9293.00,1.25
9292.00,1.28
9291.00,1.32
9290.00,1.35
9289.00,1.38
9288.00,1.42
9287.00,1.45
9286.00,1.48
9285.00,1.51
9284.00,1.54
9283.00,1.57
9282.00,1.59
9281.00,1.61
9280.00,1.62
9279.00,1.64
9278.00,1.65
9277.00,1.65
9276.00,1.66
9275.00,1.66
9274.00,1.66
9273.00,1.67
9272.00,1.67
9271.00,1.67
9270.00,1.68
9269.00,1.68
9268.00,1.68
9267.00,1.69
9266.00,1.69
9265.00,1.69
9264.00,1.69
9263.00,1.69
9262.00,1.68
9261.00,1.68
9260.00,1.67
9259.00,1.66
9258.00,1.65
9257.00,1.64
9256.00,1.63
9255.00,1.62
9254.00,1.61
9253.00,1.60
9252.00,1.58
9251.00,1.57
9250.00,1.56
9249.00,1.55
9248.00,1.54
9247.00,1.53
9246.00,1.52
9245.00,1.51
9244.00,1.49
9243.00,1.47
9242.00,1.45
9241.00,1.43
9240.00,1.41
9239.00,1.39
9238.00,1.36
9237.00,1.34
9236.00,1.32
9235.00,1.29
9234.00,1.27
9233.00,1.25
9232.00,1.24
9231.00,1.22
9230.00,1.21
9229.00,1.21
9228.00,1.20
9227.00,1.20
9226.00,1.20
9225.00,1.20
9224.00,1.21
9223.00,1.21
9222.00,1.21
9221.00,1.22
9220.00,1.22
9219.00,1.23
9218.00,1.23
9217.00,1.24
9216.00,1.25
9215.00,1.25
9214.00,1.26
9213.00,1.27
9212.00,1.28
9211.00,1.29
9210.00,1.30
9209.00,1.31
9208.00,1.32
9207.00,1.33
9206.00,1.34
9205.00,1.34
9204.00,1.34
9203.00,1.34
9202.00,1.34
9201.00,1.33
9200.00,1.32
9199.00,1.30
9198.00,1.29
9197.00,1.28
9196.00,1.27
9195.00,1.25
9194.00,1.24
9193.00,1.24
9192.00,1.23
9191.00,1.23
9190.00,1.23
9189.00,1.22
9188.00,1.22
9187.00,1.22
9186.00,1.22
9185.00,1.22
9184.00,1.22
9183.00,1.22
9182.00,1.22
9181.00,1.23
9180.00,1.23
9179.00,1.24
9178.00,1.24
9177.00,1.25
9176.00,1.26
9175.00,1.27
9174.00,1.29
9173.00,1.30
9172.00,1.31
9171.00,1.32
9170.00,1.34
9169.00,1.35
9168.00,1.36
9167.00,1.36
9166.00,1.37
9165.00,1.37
9164.00,1.38
9163.00,1.38
9162.00,1.38
9161.00,1.39
9160.00,1.39
9159.00,1.39
9158.00,1.39
9157.00,1.39
9156.00,1.38
9155.00,1.38
9154.00,1.38
9153.00,1.37
9152.00,1.36
9151.00,1.36
9150.00,1.35
9149.00,1.34
9148.00,1.34
9147.00,1.33
9146.00,1.32
9145.00,1.32
9144.00,1.31
9143.00,1.30
9142.00,1.29
9141.00,1.27
9140.00,1.26
9139.00,1.24
9138.00,1.23
9137.00,1.21
9136.00,1.20
9135.00,1.18
9134.00,1.16
9133.00,1.15
9132.00,1.13
9131.00,1.12
9130.00,1.10
9129.00,1.09
9128.00,1.08
9127.00,1.07
9126.00,1.06
9125.00,1.05
9124.00,1.03
9123.00,1.02
9122.00,1.01
9121.00,1.00
9120.00,0.99
9119.00,0.98
9118.00,0.97
9117.00,0.96
9116.00,0.96
9115.00,0.96
9114.00,0.96
9113.00,0.97
9112.00,0.98
9111.00,0.99
9110.00,1.01
9109.00,1.03
9108.00,1.05
9107.00,1.07
9106.00,1.10
9105.00,1.12
9104.00,1.15
9103.00,1.17
9102.00,1.20
9101.00,1.23
9100.00,1.25
9099.00,1.28
9098.00,1.31
9097.00,1.34
9096.00,1.36
9095.00,1.39
9094.00,1.42
9093.00,1.44
9092.00,1.47
9091.00,1.49
9090.00,1.52
9089.00,1.54
9088.00,1.56
9087.00,1.57
9086.00,1.59
9085.00,1.60
9084.00,1.61
9083.00,1.61
9082.00,1.61
9081.00,1.61
9080.00,1.60
9079.00,1.59
9078.00,1.58
9077.00,1.57
9076.00,1.56
9075.00,1.54
9074.00,1.53
9073.00,1.51
9072.00,1.50
9071.00,1.48
9070.00,1.47
9069.00,1.45
9068.00,1.44
9067.00,1.42
9066.00,1.41
9065.00,1.39
9064.00,1.38
9063.00,1.37
9062.00,1.35
9061.00,1.34
9060.00,1.32
9059.00,1.31
9058.00,1.30
9057.00,1.28
9056.00,1.27
9055.00,1.26
9054.00,1.25
9053.00,1.24
9052.00,1.23
9051.00,1.23
9050.00,1.22
9049.00,1.21
9048.00,1.21
9047.00,1.21
9046.00,1.21
9045.00,1.20
9044.00,1.20
9043.00,1.20
9042.00,1.20
9041.00,1.20
9040.00,1.19
9039.00,1.19
9038.00,1.19
9037.00,1.18
9036.00,1.18
9035.00,1.17
9034.00,1.17
9033.00,1.16
9032.00,1.16
9031.00,1.16
9030.00,1.16
9029.00,1.16
9028.00,1.16
9027.00,1.16
9026.00,1.17
9025.00,1.17
9024.00,1.17
9023.00,1.17
9022.00,1.17
9021.00,1.17
9020.00,1.17
9019.00,1.16
9018.00,1.16
9017.00,1.16
9016.00,1.16
9015.00,1.17
9014.00,1.17
9013.00,1.17
9012.00,1.18
9011.00,1.19
9010.00,1.20
9009.00,1.21
9008.00,1.23
9007.00,1.24
9006.00,1.26
9005.00,1.28
9004.00,1.30
9003.00,1.31
9002.00,1.33
9001.00,1.35
9000.00,1.37
8999.00,1.39
8998.00,1.40
8997.00,1.42
8996.00,1.44
8995.00,1.46
8994.00,1.47
8993.00,1.49
8992.00,1.50
8991.00,1.51
8990.00,1.53
8989.00,1.53
8988.00,1.54
8987.00,1.55
8986.00,1.55
8985.00,1.55
8984.00,1.55
8983.00,1.55
8982.00,1.54
8981.00,1.54
8980.00,1.53
8979.00,1.52
8978.00,1.51
8977.00,1.49
8976.00,1.48
8975.00,1.47
8974.00,1.45
8973.00,1.43
8972.00,1.42
8971.00,1.40
8970.00,1.39
8969.00,1.37
8968.00,1.36
8967.00,1.34
8966.00,1.33
8965.00,1.32
8964.00,1.31
8963.00,1.30
8962.00,1.30
8961.00,1.29
8960.00,1.29
8959.00,1.28
8958.00,1.28
8957.00,1.28
8956.00,1.28
8955.00,1.28
8954.00,1.28
8953.00,1.28
8952.00,1.28
8951.00,1.28
8950.00,1.28
8949.00,1.28
8948.00,1.28
8947.00,1.28
8946.00,1.27
8945.00,1.27
8944.00,1.27
8943.00,1.27
8942.00,1.27
8941.00,1.27
8940.00,1.26
8939.00,1.26
8938.00,1.26
8937.00,1.26
8936.00,1.25
8935.00,1.25
8934.00,1.24
8933.00,1.24
8932.00,1.23
8931.00,1.22
8930.00,1.21
8929.00,1.21
8928.00,1.20
8927.00,1.19
8926.00,1.19
8925.00,1.18
8924.00,1.18
8923.00,1.18
8922.00,1.18
8921.00,1.18
8920.00,1.18
8919.00,1.18
8918.00,1.19
8917.00,1.19
8916.00,1.20
8915.00,1.21
8914.00,1.21
8913.00,1.22
8912.00,1.23
8911.00,1.24
8910.00,1.24
8909.00,1.25
8908.00,1.26
8907.00,1.26
8906.00,1.27
8905.00,1.28
8904.00,1.28
8903.00,1.29
8902.00,1.30
8901.00,1.30
8900.00,1.31
8899.00,1.32
8898.00,1.33
8897.00,1.33
8896.00,1.34
8895.00,1.35
8894.00,1.36
8893.00,1.36
8892.00,1.36
8891.00,1.37
8890.00,1.37
8889.00,1.36
8888.00,1.36
8887.00,1.35
8886.00,1.35
8885.00,1.34
8884.00,1.33
8883.00,1.32
8882.00,1.31
8881.00,1.31
8880.00,1.30
8879.00,1.30
8878.00,1.29
8877.00,1.29
8876.00,1.28
8875.00,1.28
8874.00,1.27
8873.00,1.26
8872.00,1.25
8871.00,1.24
8870.00,1.22
8869.00,1.21
8868.00,1.20
8867.00,1.18
8866.00,1.17
8865.00,1.16
8864.00,1.15
8863.00,1.15
8862.00,1.15
8861.00,1.14
8860.00,1.15
8859.00,1.15
8858.00,1.15
8857.00,1.15
8856.00,1.16
8855.00,1.16
8854.00,1.16
8853.00,1.17
8852.00,1.17
8851.00,1.16
8850.00,1.16
8849.00,1.16
8848.00,1.16
8847.00,1.16
8846.00,1.17
8845.00,1.17
8844.00,1.18
8843.00,1.18
8842.00,1.19
8841.00,1.20
8840.00,1.20
8839.00,1.21
8838.00,1.21
8837.00,1.21
8836.00,1.21
8835.00,1.21
8834.00,1.21
8833.00,1.20
8832.00,1.20
8831.00,1.20
8830.00,1.19
8829.00,1.19
8828.00,1.19
8827.00,1.19
8826.00,1.19
8825.00,1.19
8824.00,1.20
8823.00,1.20
8822.00,1.21
8821.00,1.21
8820.00,1.22
8819.00,1.23
8818.00,1.23
8817.00,1.24
8816.00,1.24
8815.00,1.25
8814.00,1.25
8813.00,1.25
8812.00,1.26
8811.00,1.27
8810.00,1.27
8809.00,1.28
8808.00,1.29
8807.00,1.30
8806.00,1.31
8805.00,1.32
8804.00,1.33
8803.00,1.34
8802.00,1.34
8801.00,1.35
8800.00,1.36
8799.00,1.36
8798.00,1.37
8797.00,1.37
8796.00,1.37
8795.00,1.37
8794.00,1.37
8793.00,1.36
8792.00,1.36
8791.00,1.36
8790.00,1.36
8789.00,1.36
8788.00,1.36
8787.00,1.36
8786.00,1.36
8785.00,1.36
8784.00,1.36
8783.00,1.36
8782.00,1.36
8781.00,1.35
8780.00,1.35
8779.00,1.35
8778.00,1.35
8777.00,1.35
8776.00,1.34
8775.00,1.34
8774.00,1.34
8773.00,1.34
8772.00,1.33
8771.00,1.33
8770.00,1.33
8769.00,1.33
8768.00,1.34
8767.00,1.34
8766.00,1.34
8765.00,1.34
8764.00,1.34
8763.00,1.35
8762.00,1.35
8761.00,1.35
8760.00,1.36
8759.00,1.37
8758.00,1.38
8757.00,1.39
8756.00,1.40
8755.00,1.41
8754.00,1.43
8753.00,1.44
8752.00,1.46
8751.00,1.47
8750.00,1.49
8749.00,1.50
8748.00,1.52
8747.00,1.53
8746.00,1.54
8745.00,1.55
8744.00,1.56
8743.00,1.57
8742.00,1.58
8741.00,1.59
8740.00,1.60
8739.00,1.61
8738.00,1.61
8737.00,1.62
8736.00,1.62
8735.00,1.62
8734.00,1.62
8733.00,1.62
8732.00,1.61
8731.00,1.60
8730.00,1.59
8729.00,1.57
8728.00,1.55
8727.00,1.53
8726.00,1.51
8725.00,1.49
8724.00,1.47
8723.00,1.46
8722.00,1.44
8721.00,1.42
8720.00,1.40
8719.00,1.39
8718.00,1.37
8717.00,1.35
8716.00,1.34
8715.00,1.32
8714.00,1.30
8713.00,1.28
8712.00,1.26
8711.00,1.25
8710.00,1.23
8709.00,1.21
8708.00,1.20
8707.00,1.18
8706.00,1.17
8705.00,1.16
8704.00,1.15
8703.00,1.14
8702.00,1.13
8701.00,1.12
8700.00,1.11
8699.00,1.10
8698.00,1.09
8697.00,1.08
8696.00,1.06
8695.00,1.05
8694.00,1.05
8693.00,1.04
8692.00,1.04
8691.00,1.03
8690.00,1.04
8689.00,1.04
8688.00,1.05
8687.00,1.06
8686.00,1.07
8685.00,1.08
8684.00,1.09
8683.00,1.10
8682.00,1.11
8681.00,1.12
8680.00,1.14
8679.00,1.15
8678.00,1.16
8677.00,1.18
8676.00,1.19
8675.00,1.21
8674.00,1.23
8673.00,1.25
8672.00,1.27
8671.00,1.29
8670.00,1.31
8669.00,1.33
8668.00,1.35
8667.00,1.36
8666.00,1.38
8665.00,1.39
8664.00,1.39
8663.00,1.39
8662.00,1.39
8661.00,1.39
8660.00,1.39
8659.00,1.38
8658.00,1.37
8657.00,1.37
8656.00,1.36
8655.00,1.36
8654.00,1.36
8653.00,1.36
8652.00,1.35
8651.00,1.35
8650.00,1.35
8649.00,1.34
8648.00,1.34
8647.00,1.33
8646.00,1.33
8645.00,1.32
8644.00,1.31
8643.00,1.31
8642.00,1.30
8641.00,1.30
8640.00,1.30
8639.00,1.30
8638.00,1.30
8637.00,1.31
8636.00,1.31
8635.00,1.32
8634.00,1.33
8633.00,1.33
8632.00,1.34
8631.00,1.35
8630.00,1.35
8629.00,1.35
8628.00,1.35
8627.00,1.35
8626.00,1.35
8625.00,1.35
8624.00,1.35
8623.00,1.35
8622.00,1.34
8621.00,1.34
8620.00,1.34
8619.00,1.34
8618.00,1.33
8617.00,1.33
8616.00,1.32
8615.00,1.31
8614.00,1.31
8613.00,1.30
8612.00,1.29
8611.00,1.28
8610.00,1.27
8609.00,1.26
8608.00,1.25
8607.00,1.24
8606.00,1.23
8605.00,1.23
8604.00,1.22
8603.00,1.21
8602.00,1.21
8601.00,1.20
8600.00,1.19
8599.00,1.19
8598.00,1.18
8597.00,1.17
8596.00,1.17
8595.00,1.16
8594.00,1.15
8593.00,1.14
8592.00,1.13
8591.00,1.13
8590.00,1.12
8589.00,1.11
8588.00,1.11
8587.00,1.10
8586.00,1.10
8585.00,1.09
8584.00,1.08
8583.00,1.07
8582.00,1.06
8581.00,1.05
8580.00,1.03
8579.00,1.02
8578.00,1.01
8577.00,1.00
8576.00,0.99
8575.00,0.98
8574.00,0.98
8573.00,0.97
8572.00,0.97
8571.00,0.97
8570.00,0.98
8569.00,0.98
8568.00,0.98
8567.00,0.99
8566.00,1.00
8565.00,1.00
8564.00,1.01
8563.00,1.02
8562.00,1.03
8561.00,1.04
8560.00,1.06
8559.00,1.07
8558.00,1.09
8557.00,1.11
8556.00,1.13
8555.00,1.16
8554.00,1.18
8553.00,1.21
8552.00,1.23
8551.00,1.26
8550.00,1.29
8549.00,1.31
8548.00,1.33
8547.00,1.36
8546.00,1.38
8545.00,1.40
8544.00,1.42
8543.00,1.43
8542.00,1.45
8541.00,1.46
8540.00,1.48
8539.00,1.49
8538.00,1.50
8537.00,1.51
8536.00,1.52
8535.00,1.52
8534.00,1.52
8533.00,1.53
8532.00,1.53
8531.00,1.52
8530.00,1.52
8529.00,1.51
8528.00,1.50
8527.00,1.49
8526.00,1.48
8525.00,1.46
8524.00,1.45
8523.00,1.43
8522.00,1.41
8521.00,1.39
8520.00,1.36
8519.00,1.34
8518.00,1.32
8517.00,1.29
8516.00,1.27
8515.00,1.24
8514.00,1.22
8513.00,1.20
8512.00,1.17
8511.00,1.15
8510.00,1.12
8509.00,1.10
8508.00,1.08
8507.00,1.06
8506.00,1.03
8505.00,1.01
8504.00,1.00
8503.00,0.98
8502.00,0.96
8501.00,0.95
8500.00,0.94
8499.00,0.92
8498.00,0.91
8497.00,0.90
8496.00,0.90
8495.00,0.89
8494.00,0.89
8493.00,0.89
8492.00,0.88
8491.00,0.89
8490.00,0.89
8489.00,0.89
8488.00,0.90
8487.00,0.90
8486.00,0.91
8485.00,0.92
8484.00,0.93
8483.00,0.94
8482.00,0.95
8481.00,0.96
8480.00,0.97
8479.00,0.98
8478.00,0.99
8477.00,1.00
8476.00,1.01
8475.00,1.01
8474.00,1.02
8473.00,1.02
8472.00,1.03
8471.00,1.03
8470.00,1.04
8469.00,1.04
8468.00,1.05
8467.00,1.05
8466.00,1.06
8465.00,1.06
8464.00,1.06
8463.00,1.06
8462.00,1.07
8461.00,1.07
8460.00,1.07
8459.00,1.07
8458.00,1.07
8457.00,1.07
8456.00,1.07
8455.00,1.08
8454.00,1.08
8453.00,1.08
8452.00,1.08
8451.00,1.09
8450.00,1.09
8449.00,1.10
8448.00,1.11
8447.00,1.12
8446.00,1.13
8445.00,1.14
8444.00,1.15
8443.00,1.16
8442.00,1.16
8441.00,1.17
8440.00,1.18
8439.00,1.19
8438.00,1.19
8437.00,1.19
8436.00,1.20
8435.00,1.20
8434.00,1.20
8433.00,1.20
8432.00,1.20
8431.00,1.20
8430.00,1.20
8429.00,1.20
8428.00,1.20
8427.00,1.20
8426.00,1.20
8425.00,1.20
8424.00,1.20
8423.00,1.20
8422.00,1.20
8421.00,1.19
8420.00,1.19
8419.00,1.19
8418.00,1.18
8417.00,1.18
8416.00,1.18
8415.00,1.17
8414.00,1.17
8413.00,1.17
8412.00,1.17
8411.00,1.17
8410.00,1.17
8409.00,1.17
8408.00,1.18
8407.00,1.18
8406.00,1.19
8405.00,1.20
8404.00,1.21
8403.00,1.21
8402.00,1.22
8401.00,1.23
8400.00,1.23
8399.00,1.23
8398.00,1.24
8397.00,1.24
8396.00,1.24
8395.00,1.23
8394.00,1.23
8393.00,1.23
8392.00,1.23
8391.00,1.23
8390.00,1.23
8389.00,1.23
8388.00,1.23
8387.00,1.23
8386.00,1.23
8385.00,1.23
8384.00,1.22
8383.00,1.22
8382.00,1.21
8381.00,1.21
8380.00,1.20
8379.00,1.18
8378.00,1.17
8377.00,1.15
8376.00,1.13
8375.00,1.12
8374.00,1.10
8373.00,1.09
8372.00,1.07
8371.00,1.06
8370.00,1.05
8369.00,1.05
8368.00,1.05
8367.00,1.04
8366.00,1.04
8365.00,1.04
8364.00,1.04
8363.00,1.04
8362.00,1.04
8361.00,1.05
8360.00,1.05
8359.00,1.05
8358.00,1.05
8357.00,1.05
8356.00,1.06
8355.00,1.06
8354.00,1.07
8353.00,1.08
8352.00,1.10
8351.00,1.11
8350.00,1.13
8349.00,1.15
8348.00,1.17
8347.00,1.19
8346.00,1.21
8345.00,1.23
8344.00,1.25
8343.00,1.26
8342.00,1.28
8341.00,1.29
8340.00,1.30
8339.00,1.31
8338.00,1.32
8337.00,1.33
8336.00,1.34
8335.00,1.34
8334.00,1.35
8333.00,1.35
8332.00,1.36
8331.00,1.37
8330.00,1.37
8329.00,1.38
8328.00,1.38
8327.00,1.39
8326.00,1.39
8325.00,1.40
8324.00,1.40
8323.00,1.41
8322.00,1.41
8321.00,1.41
8320.00,1.41
8319.00,1.41
8318.00,1.42
8317.00,1.42
8316.00,1.42
8315.00,1.42
8314.00,1.42
8313.00,1.42
8312.00,1.42
8311.00,1.42
8310.00,1.42
8309.00,1.42
8308.00,1.43
8307.00,1.43
8306.00,1.43
8305.00,1.44
8304.00,1.44
8303.00,1.44
8302.00,1.45
8301.00,1.45
8300.00,1.45
8299.00,1.45
8298.00,1.45
8297.00,1.45
8296.00,1.45
8295.00,1.45
8294.00,1.44
8293.00,1.44
8292.00,1.43
8291.00,1.43
8290.00,1.43
8289.00,1.42
8288.00,1.42
8287.00,1.41
8286.00,1.41
8285.00,1.41
8284.00,1.41
8283.00,1.41
8282.00,1.41
8281.00,1.41
8280.00,1.41
8279.00,1.41
8278.00,1.41
8277.00,1.40
8276.00,1.40
8275.00,1.40
8274.00,1.40
8273.00,1.40
8272.00,1.40
8271.00,1.40
8270.00,1.40
8269.00,1.40
8268.00,1.40
8267.00,1.41
8266.00,1.41
8265.00,1.42
8264.00,1.43
8263.00,1.43
8262.00,1.44
8261.00,1.45
8260.00,1.45
8259.00,1.46
8258.00,1.47
8257.00,1.47
8256.00,1.47
8255.00,1.48
8254.00,1.48
8253.00,1.49
8252.00,1.49
8251.00,1.50
8250.00,1.50
8249.00,1.51
8248.00,1.51
8247.00,1.51
8246.00,1.51
8245.00,1.52
8244.00,1.51
8243.00,1.51
8242.00,1.51
8241.00,1.50
8240.00,1.49
8239.00,1.49
8238.00,1.48
8237.00,1.47
8236.00,1.46
8235.00,1.45
8234.00,1.45
8233.00,1.44
8232.00,1.43
8231.00,1.42
8230.00,1.41
8229.00,1.40
8228.00,1.39
8227.00,1.38
8226.00,1.37
8225.00,1.36
8224.00,1.35
8223.00,1.35
8222.00,1.34
8221.00,1.33
8220.00,1.32
8219.00,1.31
8218.00,1.31
8217.00,1.30
8216.00,1.30
8215.00,1.30
8214.00,1.29
8213.00,1.29
8212.00,1.29
8211.00,1.28
8210.00,1.28
8209.00,1.28
8208.00,1.28
8207.00,1.28
8206.00,1.27
8205.00,1.27
8204.00,1.27
8203.00,1.27
8202.00,1.27
8201.00,1.26
8200.00,1.26
8199.00,1.26
8198.00,1.26
8197.00,1.25
8196.00,1.25
8195.00,1.25
8194.00,1.25
8193.00,1.25
8192.00,1.25
8191.00,1.25
8190.00,1.26
8189.00,1.26
8188.00,1.27
8187.00,1.27
8186.00,1.27
8185.00,1.28
8184.00,1.28
8183.00,1.28
8182.00,1.28
8181.00,1.29
8180.00,1.29
8179.00,1.29
8178.00,1.29
8177.00,1.30
8176.00,1.30
8175.00,1.30
8174.00,1.31
8173.00,1.31
8172.00,1.31
8171.00,1.31
8170.00,1.31
8169.00,1.31
8168.00,1.31
8167.00,1.30
8166.00,1.29
8165.00,1.28
8164.00,1.27
8163.00,1.26
8162.00,1.25
8161.00,1.23
8160.00,1.22
8159.00,1.20
8158.00,1.19
8157.00,1.18
8156.00,1.17
8155.00,1.16
8154.00,1.15
8153.00,1.15
8152.00,1.14
8151.00,1.13
8150.00,1.13
8149.00,1.12
8148.00,1.12
8147.00,1.11
8146.00,1.11
8145.00,1.10
8144.00,1.10
8143.00,1.09
8142.00,1.09
8141.00,1.09
8140.00,1.09
8139.00,1.10
8138.00,1.10
8137.00,1.11
8136.00,1.12
8135.00,1.13
8134.00,1.14
8133.00,1.15
8132.00,1.16
8131.00,1.17
8130.00,1.17
8129.00,1.18
8128.00,1.19
8127.00,1.20
8126.00,1.20
8125.00,1.21
8124.00,1.21
8123.00,1.22
8122.00,1.23
8121.00,1.23
8120.00,1.24
8119.00,1.24
8118.00,1.25
8117.00,1.26
8116.00,1.27
8115.00,1.27
8114.00,1.28
8113.00,1.29
8112.00,1.30
8111.00,1.31
8110.00,1.32
8109.00,1.32
8108.00,1.33
8107.00,1.33
8106.00,1.34
8105.00,1.34
8104.00,1.34
8103.00,1.34
8102.00,1.35
8101.00,1.35
8100.00,1.35
8099.00,1.35
8098.00,1.36
8097.00,1.36
8096.00,1.36
8095.00,1.37
8094.00,1.37
8093.00,1.38
8092.00,1.39
8091.00,1.39
8090.00,1.40
8089.00,1.41
8088.00,1.41
8087.00,1.42
8086.00,1.42
8085.00,1.43
8084.00,1.43
8083.00,1.44
8082.00,1.45
8081.00,1.46
8080.00,1.47
8079.00,1.48
8078.00,1.49
8077.00,1.50
8076.00,1.51
8075.00,1.52
8074.00,1.53
8073.00,1.53
8072.00,1.54
8071.00,1.54
8070.00,1.55
8069.00,1.55
8068.00,1.55
8067.00,1.55
8066.00,1.55
8065.00,1.55
8064.00,1.55
8063.00,1.55
8062.00,1.54
8061.00,1.54
8060.00,1.53
8059.00,1.52
8058.00,1.51
8057.00,1.50
8056.00,1.49
8055.00,1.47
8054.00,1.45
8053.00,1.44
8052.00,1.42
8051.00,1.40
8050.00,1.38
8049.00,1.36
8048.00,1.35
8047.00,1.33
8046.00,1.32
8045.00,1.31
8044.00,1.29
8043.00,1.28
8042.00,1.27
8041.00,1.26
8040.00,1.25
8039.00,1.24
8038.00,1.23
8037.00,1.23
8036.00,1.22
8035.00,1.21
8034.00,1.21
8033.00,1.20
8032.00,1.20
8031.00,1.20
8030.00,1.20
8029.00,1.20
8028.00,1.21
8027.00,1.22
8026.00,1.23
8025.00,1.24
8024.00,1.25
8023.00,1.26
8022.00,1.27
8021.00,1.28
8020.00,1.29
8019.00,1.30
8018.00,1.31
8017.00,1.32
8016.00,1.32
8015.00,1.33
8014.00,1.33
8013.00,1.34
8012.00,1.34
8011.00,1.35
8010.00,1.35
8009.00,1.36
8008.00,1.36
8007.00,1.37
8006.00,1.37
8005.00,1.37
8004.00,1.37
8003.00,1.37
8002.00,1.37
8001.00,1.37
8000.00,1.36
7999.00,1.35
7998.00,1.35
7997.00,1.34
7996.00,1.34
7995.00,1.33
7994.00,1.33
7993.00,1.33
7992.00,1.33
7991.00,1.33
7990.00,1.34
7989.00,1.34
7988.00,1.34
7987.00,1.34
7986.00,1.35
7985.00,1.35
7984.00,1.35
7983.00,1.35
7982.00,1.35
7981.00,1.36
7980.00,1.36
7979.00,1.36
7978.00,1.37
7977.00,1.37
7976.00,1.38
7975.00,1.39
7974.00,1.40
7973.00,1.41
7972.00,1.42
7971.00,1.43
7970.00,1.44
7969.00,1.44
7968.00,1.45
7967.00,1.45
7966.00,1.45
7965.00,1.45
7964.00,1.45
7963.00,1.45
7962.00,1.45
7961.00,1.45
7960.00,1.45
7959.00,1.45
7958.00,1.45
7957.00,1.45
7956.00,1.45
7955.00,1.45
7954.00,1.45
7953.00,1.45
7952.00,1.45
7951.00,1.45
7950.00,1.44
7949.00,1.44
7948.00,1.43
7947.00,1.43
7946.00,1.42
7945.00,1.41
7944.00,1.40
7943.00,1.40
7942.00,1.39
7941.00,1.39
7940.00,1.38
7939.00,1.38
7938.00,1.37
7937.00,1.37
7936.00,1.37
7935.00,1.37
7934.00,1.37
7933.00,1.37
7932.00,1.37
7931.00,1.37
7930.00,1.37
7929.00,1.37
7928.00,1.36
7927.00,1.36
7926.00,1.36
7925.00,1.36
7924.00,1.36
7923.00,1.36
7922.00,1.35
7921.00,1.35
7920.00,1.35
7919.00,1.35
7918.00,1.35
7917.00,1.35
7916.00,1.35
7915.00,1.35
7914.00,1.35
7913.00,1.35
7912.00,1.35
7911.00,1.34
7910.00,1.34
7909.00,1.33
7908.00,1.33
7907.00,1.32
7906.00,1.31
7905.00,1.31
7904.00,1.30
7903.00,1.29
7902.00,1.29
7901.00,1.28
7900.00,1.27
7899.00,1.27
7898.00,1.26
7897.00,1.25
7896.00,1.25
7895.00,1.24
7894.00,1.23
7893.00,1.22
7892.00,1.22
7891.00,1.21
7890.00,1.21
7889.00,1.20
7888.00,1.20
7887.00,1.20
7886.00,1.20
7885.00,1.20
7884.00,1.20
7883.00,1.20
7882.00,1.20
7881.00,1.20
7880.00,1.20
7879.00,1.19
7878.00,1.19
7877.00,1.19
7876.00,1.19
7875.00,1.19
7874.00,1.19
7873.00,1.20
7872.00,1.20
7871.00,1.21
7870.00,1.21
7869.00,1.22
7868.00,1.23
7867.00,1.24
7866.00,1.24
7865.00,1.25
7864.00,1.26
7863.00,1.27
7862.00,1.27
7861.00,1.28
7860.00,1.28
7859.00,1.29
7858.00,1.29
7857.00,1.30
7856.00,1.30
7855.00,1.31
7854.00,1.32
7853.00,1.33
7852.00,1.34
7851.00,1.35
7850.00,1.36
7849.00,1.37
7848.00,1.38
7847.00,1.39
7846.00,1.40
7845.00,1.41
7844.00,1.42
7843.00,1.43
7842.00,1.44
7841.00,1.44
7840.00,1.45
7839.00,1.46
7838.00,1.47
7837.00,1.48
7836.00,1.48
7835.00,1.49
7834.00,1.50
7833.00,1.51
7832.00,1.51
7831.00,1.52
7830.00,1.52
7829.00,1.53
7828.00,1.53
7827.00,1.54
7826.00,1.54
7825.00,1.54
7824.00,1.54
7823.00,1.54
7822.00,1.54
7821.00,1.53
7820.00,1.53
7819.00,1.53
7818.00,1.53
7817.00,1.52
7816.00,1.52
7815.00,1.52
7814.00,1.51
7813.00,1.51
7812.00,1.50
7811.00,1.50
7810.00,1.49
7809.00,1.48
7808.00,1.48
7807.00,1.47
7806.00,1.47
7805.00,1.46
7804.00,1.46
7803.00,1.45
7802.00,1.45
7801.00,1.45
7800.00,1.45
7799.00,1.44
7798.00,1.44
7797.00,1.44
7796.00,1.44
7795.00,1.44
7794.00,1.44
7793.00,1.44
7792.00,1.44
7791.00,1.44
7790.00,1.44
7789.00,1.44
7788.00,1.45
7787.00,1.45
7786.00,1.46
7785.00,1.46
7784.00,1.47
7783.00,1.47
7782.00,1.48
7781.00,1.49
7780.00,1.49
7779.00,1.50
7778.00,1.51
7777.00,1.51
7776.00,1.52
7775.00,1.53
7774.00,1.53
7773.00,1.54
7772.00,1.54
7771.00,1.55
7770.00,1.55
7769.00,1.56
7768.00,1.56
7767.00,1.56
7766.00,1.56
7765.00,1.56
7764.00,1.56
7763.00,1.56
7762.00,1.55
7761.00,1.55
7760.00,1.54
7759.00,1.53
7758.00,1.53
7757.00,1.52
7756.00,1.51
7755.00,1.51
7754.00,1.50
7753.00,1.49
7752.00,1.49
7751.00,1.48
7750.00,1.47
7749.00,1.46
7748.00,1.46
7747.00,1.45
7746.00,1.45
7745.00,1.44
7744.00,1.44
7743.00,1.43
7742.00,1.43
7741.00,1.43
7740.00,1.43
7739.00,1.43
7738.00,1.43
7737.00,1.44
7736.00,1.44
7735.00,1.45
7734.00,1.46
7733.00,1.46
7732.00,1.47
7731.00,1.48
7730.00,1.48
7729.00,1.49
7728.00,1.50
7727.00,1.50
7726.00,1.51
7725.00,1.52
7724.00,1.52
7723.00,1.53
7722.00,1.53
7721.00,1.53
7720.00,1.54
7719.00,1.54
7718.00,1.54
7717.00,1.54
7716.00,1.54
7715.00,1.54
7714.00,1.53
7713.00,1.53
7712.00,1.53
7711.00,1.52
7710.00,1.52
7709.00,1.51
7708.00,1.50
7707.00,1.50
7706.00,1.50
7705.00,1.49
7704.00,1.49
7703.00,1.48
7702.00,1.48
7701.00,1.47
7700.00,1.47
7699.00,1.46
7698.00,1.46
7697.00,1.46
7696.00,1.45
7695.00,1.45
7694.00,1.45
7693.00,1.45
7692.00,1.45
7691.00,1.46
7690.00,1.46
7689.00,1.46
7688.00,1.47
7687.00,1.47
7686.00,1.48
7685.00,1.48
7684.00,1.49
7683.00,1.49
7682.00,1.49
7681.00,1.50
7680.00,1.50
7679.00,1.50
7678.00,1.50
7677.00,1.50
7676.00,1.50
7675.00,1.50
7674.00,1.51
7673.00,1.51
7672.00,1.51
7671.00,1.51
7670.00,1.50
7669.00,1.50
7668.00,1.50
7667.00,1.49
7666.00,1.49
7665.00,1.48
7664.00,1.48
7663.00,1.48
7662.00,1.47
7661.00,1.47
7660.00,1.47
7659.00,1.46
7658.00,1.46
7657.00,1.46
7656.00,1.46
7655.00,1.46
7654.00,1.46
7653.00,1.46
7652.00,1.46
7651.00,1.46
7650.00,1.46
7649.00,1.46
7648.00,1.46
7647.00,1.46
7646.00,1.46
7645.00,1.47
7644.00,1.47
7643.00,1.47
7642.00,1.48
7641.00,1.48
7640.00,1.49
7639.00,1.49
7638.00,1.50
7637.00,1.50
7636.00,1.50
7635.00,1.50
7634.00,1.50
7633.00,1.50
7632.00,1.50
7631.00,1.50
7630.00,1.49
7629.00,1.49
7628.00,1.49
7627.00,1.49
7626.00,1.49
7625.00,1.48
7624.00,1.48
7623.00,1.48
7622.00,1.47
7621.00,1.47
7620.00,1.46
7619.00,1.46
7618.00,1.45
7617.00,1.45
7616.00,1.44
7615.00,1.43
7614.00,1.43
7613.00,1.42
7612.00,1.41
7611.00,1.41
7610.00,1.40
7609.00,1.40
7608.00,1.39
7607.00,1.39
7606.00,1.38
7605.00,1.38
7604.00,1.38
7603.00,1.38
7602.00,1.38
7601.00,1.37
7600.00,1.37
7599.00,1.37
7598.00,1.37
7597.00,1.37
7596.00,1.37
7595.00,1.38
7594.00,1.38
7593.00,1.38
7592.00,1.39
7591.00,1.39
7590.00,1.40
7589.00,1.40
7588.00,1.41
7587.00,1.42
7586.00,1.43
7585.00,1.44
7584.00,1.45
7583.00,1.45
7582.00,1.46
7581.00,1.47
7580.00,1.48
7579.00,1.49
7578.00,1.50
7577.00,1.51
7576.00,1.51
7575.00,1.52
7574.00,1.53
7573.00,1.54
7572.00,1.55
7571.00,1.55
7570.00,1.56
7569.00,1.57
7568.00,1.58
7567.00,1.59
7566.00,1.60
7565.00,1.61
7564.00,1.62
7563.00,1.62
7562.00,1.63
7561.00,1.63
7560.00,1.63
7559.00,1.63
7558.00,1.64
7557.00,1.64
7556.00,1.64
7555.00,1.64
7554.00,1.64
7553.00,1.64
7552.00,1.64
7551.00,1.64
7550.00,1.64
7549.00,1.63
7548.00,1.63
7547.00,1.63
7546.00,1.62
7545.00,1.61
7544.00,1.60
7543.00,1.59
7542.00,1.58
7541.00,1.57
7540.00,1.56
7539.00,1.55
7538.00,1.53
7537.00,1.53
7536.00,1.52
7535.00,1.51
7534.00,1.50
7533.00,1.50
7532.00,1.49
7531.00,1.49
7530.00,1.48
7529.00,1.48
7528.00,1.48
7527.00,1.47
7526.00,1.47
7525.00,1.47
7524.00,1.47
7523.00,1.47
7522.00,1.46
7521.00,1.47
7520.00,1.47
7519.00,1.47
7518.00,1.48
7517.00,1.48
7516.00,1.49
7515.00,1.50
7514.00,1.51
7513.00,1.51
7512.00,1.52
7511.00,1.53
7510.00,1.53
7509.00,1.54
7508.00,1.54
7507.00,1.54
7506.00,1.54
7505.00,1.54
7504.00,1.55
7503.00,1.55
7502.00,1.55
7501.00,1.55
7500.00,1.55
7499.00,1.56
7498.00,1.56
7497.00,1.56
7496.00,1.56
7495.00,1.57
7494.00,1.57
7493.00,1.57
7492.00,1.57
7491.00,1.57
7490.00,1.57
7489.00,1.57
7488.00,1.57
7487.00,1.57
7486.00,1.57
7485.00,1.57
7484.00,1.57
7483.00,1.57
7482.00,1.58
7481.00,1.58
7480.00,1.59
7479.00,1.59
7478.00,1.59
7477.00,1.60
7476.00,1.60
7475.00,1.60
7474.00,1.60
7473.00,1.60
7472.00,1.60
7471.00,1.60
7470.00,1.60
7469.00,1.60
7468.00,1.60
7467.00,1.59
7466.00,1.59
7465.00,1.59
7464.00,1.59
7463.00,1.58
7462.00,1.58
7461.00,1.58
7460.00,1.58
7459.00,1.57
7458.00,1.57
7457.00,1.57
7456.00,1.56
7455.00,1.56
7454.00,1.55
7453.00,1.54
7452.00,1.54
7451.00,1.53
7450.00,1.53
7449.00,1.52
7448.00,1.52
7447.00,1.52
7446.00,1.51
7445.00,1.51
7444.00,1.51
7443.00,1.51
7442.00,1.51
7441.00,1.51
7440.00,1.52
7439.00,1.52
7438.00,1.52
7437.00,1.52
7436.00,1.53
7435.00,1.53
7434.00,1.53
7433.00,1.53
7432.00,1.53
7431.00,1.53
7430.00,1.54
7429.00,1.54
7428.00,1.54
7427.00,1.54
7426.00,1.55
7425.00,1.55
7424.00,1.55
7423.00,1.55
7422.00,1.56
7421.00,1.56
7420.00,1.56
7419.00,1.56
7418.00,1.57
7417.00,1.57
7416.00,1.57
7415.00,1.57
7414.00,1.57
7413.00,1.58
7412.00,1.58
7411.00,1.58
7410.00,1.58
7409.00,1.58
7408.00,1.59
7407.00,1.59
7406.00,1.59
7405.00,1.60
7404.00,1.60
7403.00,1.61
7402.00,1.61
7401.00,1.62
7400.00,1.63
7399.00,1.63
7398.00,1.64
7397.00,1.65
7396.00,1.66
7395.00,1.66
7394.00,1.66
7393.00,1.67
7392.00,1.67
7391.00,1.67
7390.00,1.67
7389.00,1.67
7388.00,1.67
7387.00,1.67
7386.00,1.67
7385.00,1.67
7384.00,1.66
7383.00,1.66
7382.00,1.66
7381.00,1.66
7380.00,1.66
7379.00,1.66
7378.00,1.65
7377.00,1.65
7376.00,1.64
7375.00,1.63
7374.00,1.63
7373.00,1.62
7372.00,1.61
7371.00,1.60
7370.00,1.60
7369.00,1.59
7368.00,1.59
7367.00,1.59
7366.00,1.59
7365.00,1.59
7364.00,1.59
7363.00,1.60
7362.00,1.60
7361.00,1.60
7360.00,1.61
7359.00,1.61
7358.00,1.61
7357.00,1.61
7356.00,1.62
7355.00,1.62
7354.00,1.62
7353.00,1.62
7352.00,1.62
7351.00,1.63
7350.00,1.63
7349.00,1.63
7348.00,1.64
7347.00,1.64
7346.00,1.65
7345.00,1.65
7344.00,1.66
7343.00,1.66
7342.00,1.66
7341.00,1.65
7340.00,1.65
7339.00,1.65
7338.00,1.64
7337.00,1.64
7336.00,1.63
7335.00,1.62
7334.00,1.62
7333.00,1.61
7332.00,1.61
7331.00,1.61
7330.00,1.60
7329.00,1.60
7328.00,1.59
7327.00,1.59
7326.00,1.58
7325.00,1.58
7324.00,1.57
7323.00,1.57
7322.00,1.56
7321.00,1.56
7320.00,1.56
7319.00,1.55
7318.00,1.55
7317.00,1.55
7316.00,1.55
7315.00,1.55
7314.00,1.55
7313.00,1.55
7312.00,1.56
7311.00,1.56
7310.00,1.56
7309.00,1.57
7308.00,1.57
7307.00,1.57
7306.00,1.57
7305.00,1.58
7304.00,1.58
7303.00,1.58
7302.00,1.58
7301.00,1.59
7300.00,1.59
7299.00,1.59
7298.00,1.60
7297.00,1.60
7296.00,1.61
7295.00,1.62
7294.00,1.62
7293.00,1.63
7292.00,1.63
7291.00,1.64
7290.00,1.64
7289.00,1.64
7288.00,1.65
7287.00,1.65
7286.00,1.65
7285.00,1.66
7284.00,1.66
7283.00,1.66
7282.00,1.67
7281.00,1.67
7280.00,1.67
7279.00,1.68
7278.00,1.68
7277.00,1.68
7276.00,1.69
7275.00,1.69
7274.00,1.69
7273.00,1.69
7272.00,1.69
7271.00,1.69
7270.00,1.69
7269.00,1.69
7268.00,1.68
7267.00,1.67
7266.00,1.67
7265.00,1.66
7264.00,1.65
7263.00,1.65
7262.00,1.64
7261.00,1.63
7260.00,1.63
7259.00,1.62
7258.00,1.61
7257.00,1.60
7256.00,1.59
7255.00,1.57
7254.00,1.56
7253.00,1.55
7252.00,1.54
7251.00,1.53
7250.00,1.51
7249.00,1.50
7248.00,1.49
7247.00,1.48
7246.00,1.47
7245.00,1.46
7244.00,1.46
7243.00,1.45
7242.00,1.45
7241.00,1.44
7240.00,1.44
7239.00,1.44
7238.00,1.44
7237.00,1.44
7236.00,1.44
7235.00,1.44
7234.00,1.44
7233.00,1.45
7232.00,1.45
7231.00,1.46
7230.00,1.47
7229.00,1.47
7228.00,1.49
7227.00,1.50
7226.00,1.51
7225.00,1.52
7224.00,1.53
7223.00,1.54
7222.00,1.55
7221.00,1.55
7220.00,1.56
7219.00,1.57
7218.00,1.57
7217.00,1.58
7216.00,1.58
7215.00,1.58
7214.00,1.58
7213.00,1.58
7212.00,1.58
7211.00,1.58
7210.00,1.58
7209.00,1.58
7208.00,1.58
7207.00,1.58
7206.00,1.57
7205.00,1.57
7204.00,1.56
7203.00,1.55
7202.00,1.55
7201.00,1.54
7200.00,1.53
7199.00,1.52
7198.00,1.52
7197.00,1.51
7196.00,1.50
7195.00,1.50
7194.00,1.50
7193.00,1.50
7192.00,1.50
7191.00,1.51
7190.00,1.51
7189.00,1.52
7188.00,1.52
7187.00,1.53
7186.00,1.53
7185.00,1.54
7184.00,1.55
7183.00,1.55
7182.00,1.56
7181.00,1.56
7180.00,1.56
7179.00,1.57
7178.00,1.57
7177.00,1.57
7176.00,1.57
7175.00,1.57
7174.00,1.57
7173.00,1.57
7172.00,1.57
7171.00,1.57
7170.00,1.57
7169.00,1.56
7168.00,1.56
7167.00,1.55
7166.00,1.54
7165.00,1.53
7164.00,1.52
7163.00,1.51
7162.00,1.50
7161.00,1.49
7160.00,1.47
7159.00,1.46
7158.00,1.45
7157.00,1.44
7156.00,1.43
7155.00,1.42
7154.00,1.42
7153.00,1.41
7152.00,1.40
7151.00,1.40
7150.00,1.40
7149.00,1.39
7148.00,1.39
7147.00,1.39
7146.00,1.38
7145.00,1.38
7144.00,1.38
7143.00,1.38
7142.00,1.38
7141.00,1.38
7140.00,1.38
7139.00,1.38
7138.00,1.38
7137.00,1.38
7136.00,1.38
7135.00,1.38
7134.00,1.38
7133.00,1.37
7132.00,1.37
7131.00,1.37
7130.00,1.36
7129.00,1.36
7128.00,1.35
7127.00,1.35
7126.00,1.34
7125.00,1.34
7124.00,1.33
7123.00,1.33
7122.00,1.32
7121.00,1.32
7120.00,1.31
7119.00,1.31
7118.00,1.31
7117.00,1.30
7116.00,1.30
7115.00,1.30
7114.00,1.29
7113.00,1.29
7112.00,1.29
7111.00,1.28
7110.00,1.28
7109.00,1.28
7108.00,1.28
7107.00,1.27
7106.00,1.27
7105.00,1.27
7104.00,1.27
7103.00,1.27
7102.00,1.27
7101.00,1.28
7100.00,1.28
7099.00,1.28
7098.00,1.28
7097.00,1.29
7096.00,1.29
7095.00,1.28
7094.00,1.28
7093.00,1.28
7092.00,1.28
7091.00,1.28
7090.00,1.28
7089.00,1.27
7088.00,1.27
7087.00,1.27
7086.00,1.27
7085.00,1.26
7084.00,1.26
7083.00,1.25
7082.00,1.25
7081.00,1.25
7080.00,1.25
7079.00,1.25
7078.00,1.25
7077.00,1.25
7076.00,1.25
7075.00,1.25
7074.00,1.24
7073.00,1.24
7072.00,1.24
7071.00,1.24
7070.00,1.25
7069.00,1.25
7068.00,1.25
7067.00,1.26
7066.00,1.26
7065.00,1.27
7064.00,1.27
7063.00,1.28
7062.00,1.28
7061.00,1.29
7060.00,1.30
7059.00,1.31
7058.00,1.32
7057.00,1.33
7056.00,1.34
7055.00,1.34
7054.00,1.35
7053.00,1.36
7052.00,1.36
7051.00,1.37
7050.00,1.37
7049.00,1.37
7048.00,1.38
7047.00,1.38
7046.00,1.39
7045.00,1.39
7044.00,1.39
7043.00,1.40
7042.00,1.40
7041.00,1.40
7040.00,1.40
7039.00,1.40
7038.00,1.40
7037.00,1.40
7036.00,1.40
7035.00,1.40
7034.00,1.40
7033.00,1.40
7032.00,1.40
7031.00,1.40
7030.00,1.40
7029.00,1.41
7028.00,1.41
7027.00,1.41
7026.00,1.41
7025.00,1.41
7024.00,1.42
7023.00,1.42
7022.00,1.42
7021.00,1.42
7020.00,1.41
7019.00,1.41
7018.00,1.41
7017.00,1.41
7016.00,1.41
7015.00,1.40
7014.00,1.40
7013.00,1.40
7012.00,1.40
7011.00,1.40
7010.00,1.39
7009.00,1.39
7008.00,1.39
7007.00,1.38
7006.00,1.38
7005.00,1.38
7004.00,1.37
7003.00,1.36
7002.00,1.36
7001.00,1.35
7000.00,1.35
6999.00,1.34
6998.00,1.34
6997.00,1.33
6996.00,1.33
6995.00,1.33
6994.00,1.33
6993.00,1.33
6992.00,1.33
6991.00,1.33
6990.00,1.33
6989.00,1.34
6988.00,1.34
6987.00,1.34
6986.00,1.34
6985.00,1.34
6984.00,1.34
6983.00,1.34
6982.00,1.34
6981.00,1.34
6980.00,1.34
6979.00,1.34
6978.00,1.34
6977.00,1.34
6976.00,1.34
6975.00,1.34
6974.00,1.35
6973.00,1.35
6972.00,1.35
6971.00,1.35
6970.00,1.35
6969.00,1.34
6968.00,1.34
6967.00,1.34
6966.00,1.34
6965.00,1.33
6964.00,1.33
6963.00,1.33
6962.00,1.33
6961.00,1.32
6960.00,1.32
6959.00,1.32
6958.00,1.32
6957.00,1.32
6956.00,1.32
6955.00,1.32
6954.00,1.32
6953.00,1.32
6952.00,1.32
6951.00,1.31
6950.00,1.31
6949.00,1.31
6948.00,1.31
6947.00,1.31
6946.00,1.30
6945.00,1.30
6944.00,1.30
6943.00,1.30
6942.00,1.30
6941.00,1.29
6940.00,1.29
6939.00,1.29
6938.00,1.28
6937.00,1.28
6936.00,1.27
6935.00,1.27
6934.00,1.26
6933.00,1.26
6932.00,1.25
6931.00,1.25
6930.00,1.24
6929.00,1.24
6928.00,1.23
6927.00,1.22
6926.00,1.22
6925.00,1.21
6924.00,1.21
6923.00,1.20
6922.00,1.20
6921.00,1.19
6920.00,1.18
6919.00,1.18
6918.00,1.18
6917.00,1.17
6916.00,1.17
6915.00,1.17
6914.00,1.17
6913.00,1.17
6912.00,1.17
6911.00,1.17
6910.00,1.18
6909.00,1.18
6908.00,1.18
6907.00,1.19
6906.00,1.19
6905.00,1.19
6904.00,1.20
6903.00,1.20
6902.00,1.21
6901.00,1.22
6900.00,1.22
6899.00,1.23
6898.00,1.24
6897.00,1.25
6896.00,1.26
6895.00,1.27
6894.00,1.28
6893.00,1.28
6892.00,1.29
6891.00,1.30
6890.00,1.31
6889.00,1.31
6888.00,1.32
6887.00,1.32
6886.00,1.33
6885.00,1.33
6884.00,1.34
6883.00,1.35
6882.00,1.35
6881.00,1.36
6880.00,1.37
6879.00,1.37
6878.00,1.38
6877.00,1.39
6876.00,1.39
6875.00,1.40
6874.00,1.41
6873.00,1.41
6872.00,1.41
6871.00,1.42
6870.00,1.42
6869.00,1.42
6868.00,1.42
6867.00,1.42
6866.00,1.43
6865.00,1.43
6864.00,1.43
6863.00,1.43
6862.00,1.43
6861.00,1.43
6860.00,1.43
6859.00,1.42
6858.00,1.42
6857.00,1.42
6856.00,1.42
6855.00,1.41
6854.00,1.40
6853.00,1.40
6852.00,1.39
6851.00,1.38
6850.00,1.38
6849.00,1.37
6848.00,1.36
6847.00,1.35
6846.00,1.35
6845.00,1.34
6844.00,1.34
6843.00,1.33
6842.00,1.33
6841.00,1.32
6840.00,1.32
6839.00,1.32
6838.00,1.32
6837.00,1.32
6836.00,1.31
6835.00,1.31
6834.00,1.31
6833.00,1.31
6832.00,1.31
6831.00,1.31
6830.00,1.31
6829.00,1.31
6828.00,1.31
6827.00,1.31
6826.00,1.31
6825.00,1.31
6824.00,1.31
6823.00,1.31
6822.00,1.30
6821.00,1.30
6820.00,1.30
6819.00,1.30
6818.00,1.29
6817.00,1.29
6816.00,1.29
6815.00,1.28
6814.00,1.28
6813.00,1.27
6812.00,1.27
6811.00,1.26
6810.00,1.26
6809.00,1.25
6808.00,1.25
6807.00,1.25
6806.00,1.24
6805.00,1.24
6804.00,1.23
6803.00,1.23
6802.00,1.23
6801.00,1.22
6800.00,1.22
6799.00,1.22
6798.00,1.22
6797.00,1.22
6796.00,1.22
6795.00,1.22
6794.00,1.22
6793.00,1.22
6792.00,1.22
6791.00,1.22
6790.00,1.23
6789.00,1.23
6788.00,1.23
6787.00,1.23
6786.00,1.24
6785.00,1.24
6784.00,1.24
6783.00,1.25
6782.00,1.25
6781.00,1.26
6780.00,1.26
6779.00,1.27
6778.00,1.27
6777.00,1.28
6776.00,1.28
6775.00,1.28
6774.00,1.29
6773.00,1.29
6772.00,1.29
6771.00,1.30
6770.00,1.30
6769.00,1.30
6768.00,1.31
6767.00,1.31
6766.00,1.31
6765.00,1.32
6764.00,1.32
6763.00,1.32
6762.00,1.33
6761.00,1.33
6760.00,1.33
6759.00,1.34
6758.00,1.34
6757.00,1.34
6756.00,1.34
6755.00,1.34
6754.00,1.34
6753.00,1.34
6752.00,1.34
6751.00,1.34
6750.00,1.34
6749.00,1.34
6748.00,1.34
6747.00,1.34
6746.00,1.34
6745.00,1.34
6744.00,1.35
6743.00,1.35
6742.00,1.35
6741.00,1.35
6740.00,1.35
6739.00,1.35
6738.00,1.35
6737.00,1.35
6736.00,1.35
6735.00,1.35
6734.00,1.35
6733.00,1.35
6732.00,1.35
6731.00,1.35
6730.00,1.34
6729.00,1.34
6728.00,1.34
6727.00,1.34
6726.00,1.34
6725.00,1.34
6724.00,1.34
6723.00,1.34
6722.00,1.34
6721.00,1.33
6720.00,1.33
6719.00,1.33
6718.00,1.32
6717.00,1.32
6716.00,1.32
6715.00,1.31
6714.00,1.31
6713.00,1.30
6712.00,1.30
6711.00,1.29
6710.00,1.29
6709.00,1.29
6708.00,1.28
6707.00,1.28
6706.00,1.28
6705.00,1.28
6704.00,1.28
6703.00,1.28
6702.00,1.28
6701.00,1.28
6700.00,1.28
6699.00,1.28
6698.00,1.28
6697.00,1.28
6696.00,1.28
6695.00,1.28
6694.00,1.28
6693.00,1.28
6692.00,1.28
6691.00,1.28
6690.00,1.28
6689.00,1.28
6688.00,1.28
6687.00,1.28
6686.00,1.28
6685.00,1.28
6684.00,1.28
6683.00,1.28
6682.00,1.29
6681.00,1.29
6680.00,1.29
6679.00,1.29
6678.00,1.29
6677.00,1.29
6676.00,1.29
6675.00,1.29
6674.00,1.29
6673.00,1.29
6672.00,1.29
6671.00,1.29
6670.00,1.29
6669.00,1.29
6668.00,1.29
6667.00,1.29
6666.00,1.29
6665.00,1.30
6664.00,1.30
6663.00,1.30
6662.00,1.31
6661.00,1.32
6660.00,1.32
6659.00,1.33
6658.00,1.33
6657.00,1.34
6656.00,1.34
6655.00,1.35
6654.00,1.36
6653.00,1.36
6652.00,1.37
6651.00,1.38
6650.00,1.38
6649.00,1.39
6648.00,1.40
6647.00,1.40
6646.00,1.41
6645.00,1.41
6644.00,1.42
6643.00,1.43
6642.00,1.44
6641.00,1.44
6640.00,1.45
6639.00,1.46
6638.00,1.46
6637.00,1.47
6636.00,1.47
6635.00,1.47
6634.00,1.48
6633.00,1.48
6632.00,1.48
6631.00,1.48
6630.00,1.48
6629.00,1.48
6628.00,1.47
6627.00,1.47
6626.00,1.47
6625.00,1.47
6624.00,1.46
6623.00,1.46
6622.00,1.46
6621.00,1.46
6620.00,1.46
6619.00,1.45
6618.00,1.45
6617.00,1.45
6616.00,1.44
6615.00,1.44
6614.00,1.43
6613.00,1.43
6612.00,1.42
6611.00,1.41
6610.00,1.41
6609.00,1.41
6608.00,1.40
6607.00,1.40
6606.00,1.40
6605.00,1.41
6604.00,1.41
6603.00,1.41
6602.00,1.41
6601.00,1.42
6600.00,1.42
6599.00,1.43
6598.00,1.43
6597.00,1.44
6596.00,1.44
6595.00,1.45
6594.00,1.46
6593.00,1.46
6592.00,1.47
6591.00,1.47
6590.00,1.48
6589.00,1.49
6588.00,1.50
6587.00,1.50
6586.00,1.51
6585.00,1.52
6584.00,1.53
6583.00,1.53
6582.00,1.54
6581.00,1.54
6580.00,1.55
6579.00,1.55
6578.00,1.55
6577.00,1.55
6576.00,1.55
6575.00,1.55
6574.00,1.55
6573.00,1.54
6572.00,1.54
6571.00,1.54
6570.00,1.54
6569.00,1.53
6568.00,1.53
6567.00,1.53
6566.00,1.52
6565.00,1.52
6564.00,1.51
6563.00,1.51
6562.00,1.50
6561.00,1.50
6560.00,1.49
6559.00,1.49
6558.00,1.48
6557.00,1.47
6556.00,1.47
6555.00,1.46
6554.00,1.46
6553.00,1.45
6552.00,1.45
6551.00,1.45
6550.00,1.44
6549.00,1.44
6548.00,1.44
6547.00,1.44
6546.00,1.44
6545.00,1.43
6544.00,1.43
6543.00,1.43
6542.00,1.43
6541.00,1.43
6540.00,1.43
6539.00,1.43
6538.00,1.44
6537.00,1.44
6536.00,1.44
6535.00,1.45
6534.00,1.45
6533.00,1.46
6532.00,1.46
6531.00,1.47
6530.00,1.48
6529.00,1.49
6528.00,1.49
6527.00,1.50
6526.00,1.51
6525.00,1.52
6524.00,1.53
6523.00,1.53
6522.00,1.54
6521.00,1.55
6520.00,1.55
6519.00,1.56
6518.00,1.56
6517.00,1.57
6516.00,1.57
6515.00,1.58
6514.00,1.58
6513.00,1.59
6512.00,1.59
6511.00,1.59
6510.00,1.60
6509.00,1.60
6508.00,1.60
6507.00,1.60
6506.00,1.60
6505.00,1.60
6504.00,1.60
6503.00,1.60
6502.00,1.59
6501.00,1.59
6500.00,1.59
6499.00,1.59
6498.00,1.59
6497.00,1.58
6496.00,1.58
6495.00,1.58
6494.00,1.58
6493.00,1.58
6492.00,1.57
6491.00,1.57
6490.00,1.57
6489.00,1.57
6488.00,1.57
6487.00,1.57
6486.00,1.57
6485.00,1.57
6484.00,1.56
6483.00,1.56
6482.00,1.56
6481.00,1.55
6480.00,1.55
6479.00,1.55
6478.00,1.55
6477.00,1.54
6476.00,1.54
6475.00,1.54
6474.00,1.53
6473.00,1.53
6472.00,1.53
6471.00,1.53
6470.00,1.52
6469.00,1.52
6468.00,1.52
6467.00,1.52
6466.00,1.52
6465.00,1.51
6464.00,1.51
6463.00,1.51
6462.00,1.51
6461.00,1.51
6460.00,1.50
6459.00,1.50
6458.00,1.51
6457.00,1.51
6456.00,1.51
6455.00,1.51
6454.00,1.51
6453.00,1.51
6452.00,1.52
6451.00,1.52
6450.00,1.52
6449.00,1.53
6448.00,1.53
6447.00,1.54
6446.00,1.55
6445.00,1.55
6444.00,1.55
6443.00,1.56
6442.00,1.56
6441.00,1.57
6440.00,1.57
6439.00,1.58
6438.00,1.58
6437.00,1.58
6436.00,1.59
6435.00,1.59
6434.00,1.59
6433.00,1.60
6432.00,1.60
6431.00,1.60
6430.00,1.61
6429.00,1.61
6428.00,1.61
6427.00,1.61
6426.00,1.61
6425.00,1.61
6424.00,1.61
6423.00,1.61
6422.00,1.61
6421.00,1.61
6420.00,1.61
6419.00,1.61
6418.00,1.61
6417.00,1.61
6416.00,1.61
6415.00,1.61
6414.00,1.61
6413.00,1.61
6412.00,1.61
6411.00,1.61
6410.00,1.61
6409.00,1.61
6408.00,1.61
6407.00,1.61
6406.00,1.61
6405.00,1.62
6404.00,1.62
6403.00,1.62
6402.00,1.62
6401.00,1.63
6400.00,1.63
6399.00,1.63
6398.00,1.63
6397.00,1.63
6396.00,1.63
6395.00,1.63
6394.00,1.63
6393.00,1.63
6392.00,1.63
6391.00,1.63
6390.00,1.63
6389.00,1.63
6388.00,1.63
6387.00,1.63
6386.00,1.63
6385.00,1.63
6384.00,1.63
6383.00,1.63
6382.00,1.62
6381.00,1.62
6380.00,1.61
6379.00,1.61
6378.00,1.61
6377.00,1.60
6376.00,1.60
6375.00,1.59
6374.00,1.59
6373.00,1.59
6372.00,1.59
6371.00,1.58
6370.00,1.58
6369.00,1.58
6368.00,1.58
6367.00,1.58
6366.00,1.58
6365.00,1.58
6364.00,1.58
6363.00,1.58
6362.00,1.57
6361.00,1.57
6360.00,1.57
6359.00,1.56
6358.00,1.56
6357.00,1.56
6356.00,1.56
6355.00,1.56
6354.00,1.55
6353.00,1.55
6352.00,1.55
6351.00,1.55
6350.00,1.55
6349.00,1.55
6348.00,1.55
6347.00,1.54
6346.00,1.54
6345.00,1.54
6344.00,1.54
6343.00,1.54
6342.00,1.53
6341.00,1.53
6340.00,1.53
6339.00,1.53
6338.00,1.53
6337.00,1.53
6336.00,1.53
6335.00,1.54
6334.00,1.54
6333.00,1.55
6332.00,1.55
6331.00,1.56
6330.00,1.57
6329.00,1.57
6328.00,1.58
6327.00,1.59
6326.00,1.60
6325.00,1.61
6324.00,1.62
6323.00,1.62
6322.00,1.63
6321.00,1.64
6320.00,1.65
6319.00,1.66
6318.00,1.67
6317.00,1.68
6316.00,1.69
6315.00,1.69
6314.00,1.70
6313.00,1.71
6312.00,1.71
6311.00,1.72
6310.00,1.72
6309.00,1.72
6308.00,1.72
6307.00,1.73
6306.00,1.73
6305.00,1.73
6304.00,1.73
6303.00,1.72
6302.00,1.72
6301.00,1.72
6300.00,1.72
6299.00,1.71
6298.00,1.71
6297.00,1.71
6296.00,1.70
6295.00,1.70
6294.00,1.70
6293.00,1.69
6292.00,1.69
6291.00,1.68
6290.00,1.68
6289.00,1.67
6288.00,1.67
6287.00,1.67
6286.00,1.67
6285.00,1.67
6284.00,1.66
6283.00,1.66
6282.00,1.66
6281.00,1.65
6280.00,1.65
6279.00,1.65
6278.00,1.64
6277.00,1.64
6276.00,1.63
6275.00,1.63
6274.00,1.62
6273.00,1.62
6272.00,1.62
6271.00,1.61
6270.00,1.61
6269.00,1.61
6268.00,1.61
6267.00,1.61
6266.00,1.61
6265.00,1.61
6264.00,1.61
6263.00,1.61
6262.00,1.61
6261.00,1.60
6260.00,1.60
6259.00,1.60
6258.00,1.60
6257.00,1.60
6256.00,1.60
6255.00,1.60
6254.00,1.60
6253.00,1.61
6252.00,1.61
6251.00,1.62
6250.00,1.63
6249.00,1.63
6248.00,1.64
6247.00,1.65
6246.00,1.65
6245.00,1.66
6244.00,1.66
6243.00,1.67
6242.00,1.67
6241.00,1.68
6240.00,1.68
6239.00,1.68
6238.00,1.69
6237.00,1.69
6236.00,1.70
6235.00,1.70
6234.00,1.71
6233.00,1.71
6232.00,1.72
6231.00,1.72
6230.00,1.73
6229.00,1.73
6228.00,1.73
6227.00,1.73
6226.00,1.73
6225.00,1.73
6224.00,1.73
6223.00,1.73
6222.00,1.73
6221.00,1.73
6220.00,1.73
6219.00,1.73
6218.00,1.73
6217.00,1.73
6216.00,1.73
6215.00,1.73
6214.00,1.73
6213.00,1.73
6212.00,1.73
6211.00,1.73
6210.00,1.73
6209.00,1.73
6208.00,1.73
6207.00,1.73
6206.00,1.73
6205.00,1.73
6204.00,1.73
6203.00,1.73
6202.00,1.73
6201.00,1.73
6200.00,1.73
6199.00,1.73
6198.00,1.74
6197.00,1.74
6196.00,1.74
6195.00,1.74
6194.00,1.74
6193.00,1.74
6192.00,1.74
6191.00,1.75
6190.00,1.75
6189.00,1.75
6188.00,1.75
6187.00,1.75
6186.00,1.74
6185.00,1.74
6184.00,1.74
6183.00,1.74
6182.00,1.74
6181.00,1.74
6180.00,1.74
6179.00,1.74
6178.00,1.74
6177.00,1.74
6176.00,1.74
6175.00,1.74
6174.00,1.74
6173.00,1.74
6172.00,1.74
6171.00,1.74
6170.00,1.74
6169.00,1.74
6168.00,1.74
6167.00,1.74
6166.00,1.75
6165.00,1.75
6164.00,1.75
6163.00,1.75
6162.00,1.75
6161.00,1.76
6160.00,1.76
6159.00,1.76
6158.00,1.76
6157.00,1.77
6156.00,1.77
6155.00,1.77
6154.00,1.77
6153.00,1.78
6152.00,1.78
6151.00,1.78
6150.00,1.78
6149.00,1.78
6148.00,1.78
6147.00,1.78
6146.00,1.78
6145.00,1.78
6144.00,1.78
6143.00,1.77
6142.00,1.77
6141.00,1.77
6140.00,1.77
6139.00,1.77
6138.00,1.77
6137.00,1.76
6136.00,1.76
6135.00,1.76
6134.00,1.76
6133.00,1.75
6132.00,1.75
6131.00,1.75
6130.00,1.74
6129.00,1.74
6128.00,1.74
6127.00,1.74
6126.00,1.73
6125.00,1.73
6124.00,1.73
6123.00,1.73
6122.00,1.73
6121.00,1.73
6120.00,1.73
6119.00,1.73
6118.00,1.74
6117.00,1.74
6116.00,1.74
6115.00,1.74
6114.00,1.74
6113.00,1.74
6112.00,1.74
6111.00,1.74
6110.00,1.74
6109.00,1.74
6108.00,1.74
6107.00,1.74
6106.00,1.74
6105.00,1.75
6104.00,1.75
6103.00,1.75
6102.00,1.75
6101.00,1.75
6100.00,1.75
6099.00,1.75
6098.00,1.76
6097.00,1.76
6096.00,1.76
6095.00,1.76
6094.00,1.76
6093.00,1.76
6092.00,1.76
6091.00,1.76
6090.00,1.76
6089.00,1.76
6088.00,1.76
6087.00,1.76
6086.00,1.76
6085.00,1.76
6084.00,1.76
6083.00,1.76
6082.00,1.75
6081.00,1.75
6080.00,1.75
6079.00,1.75
6078.00,1.76
6077.00,1.76
6076.00,1.76
6075.00,1.76
6074.00,1.76
6073.00,1.76
6072.00,1.76
6071.00,1.76
6070.00,1.77
6069.00,1.77
6068.00,1.77
6067.00,1.78
6066.00,1.78
6065.00,1.78
6064.00,1.79
6063.00,1.79
6062.00,1.80
6061.00,1.80
6060.00,1.81
6059.00,1.81
6058.00,1.82
6057.00,1.83
6056.00,1.83
6055.00,1.84
6054.00,1.85
6053.00,1.85
6052.00,1.86
6051.00,1.86
6050.00,1.86
6049.00,1.87
6048.00,1.87
6047.00,1.87
6046.00,1.87
6045.00,1.87
6044.00,1.87
6043.00,1.87
6042.00,1.87
6041.00,1.87
6040.00,1.87
6039.00,1.86
6038.00,1.86
6037.00,1.86
6036.00,1.86
6035.00,1.85
6034.00,1.85
6033.00,1.84
6032.00,1.84
6031.00,1.84
6030.00,1.83
6029.00,1.83
6028.00,1.82
6027.00,1.82
6026.00,1.81
6025.00,1.81
6024.00,1.81
6023.00,1.80
6022.00,1.80
6021.00,1.80
6020.00,1.80
6019.00,1.80
6018.00,1.80
6017.00,1.80
6016.00,1.80
6015.00,1.80
6014.00,1.80
6013.00,1.81
6012.00,1.81
6011.00,1.81
6010.00,1.81
6009.00,1.81
6008.00,1.81
6007.00,1.81
6006.00,1.81
6005.00,1.82
6004.00,1.82
6003.00,1.82
6002.00,1.82
6001.00,1.83
6000.00,1.83
5999.00,1.83
5998.00,1.83
5997.00,1.83
5996.00,1.84
5995.00,1.84
5994.00,1.84
5993.00,1.84
5992.00,1.83
5991.00,1.83
5990.00,1.83
5989.00,1.83
5988.00,1.83
5987.00,1.83
5986.00,1.83
5985.00,1.83
5984.00,1.82
5983.00,1.82
5982.00,1.82
5981.00,1.82
5980.00,1.81
5979.00,1.81
5978.00,1.81
5977.00,1.80
5976.00,1.80
5975.00,1.79
5974.00,1.79
5973.00,1.78
5972.00,1.78
5971.00,1.77
5970.00,1.76
5969.00,1.76
5968.00,1.75
5967.00,1.75
5966.00,1.75
5965.00,1.74
5964.00,1.74
5963.00,1.74
5962.00,1.73
5961.00,1.73
5960.00,1.72
5959.00,1.72
5958.00,1.72
5957.00,1.72
5956.00,1.72
5955.00,1.71
5954.00,1.71
5953.00,1.71
5952.00,1.71
5951.00,1.71
5950.00,1.72
5949.00,1.72
5948.00,1.72
5947.00,1.72
5946.00,1.73
5945.00,1.73
5944.00,1.74
5943.00,1.74
5942.00,1.74
5941.00,1.75
5940.00,1.75
5939.00,1.75
5938.00,1.76
5937.00,1.76
5936.00,1.76
5935.00,1.77
5934.00,1.77
5933.00,1.77
5932.00,1.78
5931.00,1.78
5930.00,1.78
5929.00,1.79
5928.00,1.79
5927.00,1.79
5926.00,1.79
5925.00,1.80
5924.00,1.80
5923.00,1.80
5922.00,1.80
5921.00,1.80
5920.00,1.80
5919.00,1.80
5918.00,1.80
5917.00,1.80
5916.00,1.80
5915.00,1.80
5914.00,1.80
5913.00,1.80
5912.00,1.80
5911.00,1.80
5910.00,1.80
5909.00,1.80
5908.00,1.80
5907.00,1.80
5906.00,1.80
5905.00,1.79
5904.00,1.79
5903.00,1.79
5902.00,1.79
5901.00,1.78
5900.00,1.78
5899.00,1.78
5898.00,1.78
5897.00,1.78
5896.00,1.77
5895.00,1.77
5894.00,1.77
5893.00,1.77
5892.00,1.77
5891.00,1.76
5890.00,1.76
5889.00,1.76
5888.00,1.76
5887.00,1.76
5886.00,1.76
5885.00,1.75
5884.00,1.75
5883.00,1.75
5882.00,1.75
5881.00,1.75
5880.00,1.75
5879.00,1.76
5878.00,1.76
5877.00,1.76
5876.00,1.76
5875.00,1.76
5874.00,1.76
5873.00,1.77
5872.00,1.77
5871.00,1.77
5870.00,1.77
5869.00,1.77
5868.00,1.78
5867.00,1.78
5866.00,1.79
5865.00,1.79
5864.00,1.79
5863.00,1.80
5862.00,1.80
5861.00,1.81
5860.00,1.81
5859.00,1.81
5858.00,1.82
5857.00,1.82
5856.00,1.82
5855.00,1.82
5854.00,1.82
5853.00,1.82
5852.00,1.82
5851.00,1.82
5850.00,1.83
5849.00,1.83
5848.00,1.83
5847.00,1.83
5846.00,1.83
5845.00,1.83
5844.00,1.83
5843.00,1.83
5842.00,1.83
5841.00,1.83
5840.00,1.83
5839.00,1.83
5838.00,1.83
5837.00,1.83
5836.00,1.83
5835.00,1.83
5834.00,1.83
5833.00,1.83
5832.00,1.83
5831.00,1.83
5830.00,1.83
5829.00,1.83
5828.00,1.84
5827.00,1.84
5826.00,1.84
5825.00,1.84
5824.00,1.85
5823.00,1.85
5822.00,1.85
5821.00,1.85
5820.00,1.85
5819.00,1.85
5818.00,1.85
5817.00,1.85
5816.00,1.85
5815.00,1.85
5814.00,1.85
5813.00,1.85
5812.00,1.85
5811.00,1.85
5810.00,1.85
5809.00,1.85
5808.00,1.85
5807.00,1.85
5806.00,1.85
5805.00,1.85
5804.00,1.85
5803.00,1.84
5802.00,1.84
5801.00,1.84
5800.00,1.83
5799.00,1.83
5798.00,1.82
5797.00,1.82
5796.00,1.81
5795.00,1.81
5794.00,1.80
5793.00,1.80
5792.00,1.79
5791.00,1.79
5790.00,1.78
5789.00,1.78
5788.00,1.78
5787.00,1.77
5786.00,1.77
5785.00,1.77
5784.00,1.76
5783.00,1.76
5782.00,1.76
5781.00,1.75
5780.00,1.75
5779.00,1.75
5778.00,1.75
5777.00,1.75
5776.00,1.75
5775.00,1.75
5774.00,1.76
5773.00,1.76
5772.00,1.76
5771.00,1.76
5770.00,1.77
5769.00,1.77
5768.00,1.77
5767.00,1.77
5766.00,1.78
5765.00,1.78
5764.00,1.78
5763.00,1.79
5762.00,1.79
5761.00,1.79
5760.00,1.80
5759.00,1.80
5758.00,1.80
5757.00,1.81
5756.00,1.81
5755.00,1.81
5754.00,1.81
5753.00,1.82
5752.00,1.82
5751.00,1.82
5750.00,1.82
5749.00,1.82
5748.00,1.82
5747.00,1.82
5746.00,1.82
5745.00,1.82
5744.00,1.82
5743.00,1.83
5742.00,1.83
5741.00,1.83
5740.00,1.83
5739.00,1.83
5738.00,1.84
5737.00,1.84
5736.00,1.84
5735.00,1.84
5734.00,1.84
5733.00,1.84
5732.00,1.85
5731.00,1.85
5730.00,1.85
5729.00,1.85
5728.00,1.85
5727.00,1.85
5726.00,1.85
5725.00,1.85
5724.00,1.85
5723.00,1.85
5722.00,1.85
5721.00,1.85
5720.00,1.85
5719.00,1.85
5718.00,1.85
5717.00,1.85
5716.00,1.85
5715.00,1.85
5714.00,1.84
5713.00,1.84
5712.00,1.84
5711.00,1.84
5710.00,1.83
5709.00,1.83
5708.00,1.83
5707.00,1.82
5706.00,1.82
5705.00,1.82
5704.00,1.82
5703.00,1.82
5702.00,1.82
5701.00,1.82
5700.00,1.81
5699.00,1.81
5698.00,1.81
5697.00,1.81
5696.00,1.81
5695.00,1.81
5694.00,1.81
5693.00,1.81
5692.00,1.81
5691.00,1.81
5690.00,1.81
5689.00,1.81
5688.00,1.80
5687.00,1.80
5686.00,1.80
5685.00,1.80
5684.00,1.80
5683.00,1.80
5682.00,1.80
5681.00,1.79
5680.00,1.79
5679.00,1.79
5678.00,1.79
5677.00,1.79
5676.00,1.79
5675.00,1.79
5674.00,1.78
5673.00,1.78
5672.00,1.78
5671.00,1.78
5670.00,1.78
5669.00,1.78
5668.00,1.78
5667.00,1.77
5666.00,1.77
5665.00,1.77
5664.00,1.77
5663.00,1.77
5662.00,1.77
5661.00,1.77
5660.00,1.77
5659.00,1.77
5658.00,1.77
5657.00,1.77
5656.00,1.78
5655.00,1.78
5654.00,1.78
5653.00,1.78
5652.00,1.78
5651.00,1.78
5650.00,1.78
5649.00,1.79
5648.00,1.79
5647.00,1.79
5646.00,1.79
5645.00,1.79
5644.00,1.79
5643.00,1.80
5642.00,1.80
5641.00,1.80
5640.00,1.80
5639.00,1.80
5638.00,1.80
5637.00,1.81
5636.00,1.81
5635.00,1.81
5634.00,1.81
5633.00,1.82
5632.00,1.82
5631.00,1.82
5630.00,1.82
5629.00,1.82
5628.00,1.82
5627.00,1.82
5626.00,1.82
5625.00,1.82
5624.00,1.82
5623.00,1.82
5622.00,1.82
5621.00,1.82
5620.00,1.82
5619.00,1.82
5618.00,1.82
5617.00,1.82
5616.00,1.82
5615.00,1.82
5614.00,1.82
5613.00,1.82
5612.00,1.82
5611.00,1.82
5610.00,1.81
5609.00,1.81
5608.00,1.81
5607.00,1.81
5606.00,1.81
5605.00,1.80
5604.00,1.80
5603.00,1.80
5602.00,1.80
5601.00,1.80
5600.00,1.80
5599.00,1.80
5598.00,1.80
5597.00,1.79
5596.00,1.79
5595.00,1.79
5594.00,1.79
5593.00,1.79
5592.00,1.79
5591.00,1.79
5590.00,1.79
5589.00,1.79
5588.00,1.79
5587.00,1.79
5586.00,1.79
5585.00,1.79
5584.00,1.80
5583.00,1.80
5582.00,1.80
5581.00,1.81
5580.00,1.81
5579.00,1.81
5578.00,1.82
5577.00,1.82
5576.00,1.82
5575.00,1.83
5574.00,1.83
5573.00,1.83
5572.00,1.84
5571.00,1.84
5570.00,1.84
5569.00,1.85
5568.00,1.85
5567.00,1.85
5566.00,1.86
5565.00,1.86
5564.00,1.86
5563.00,1.86
5562.00,1.86
5561.00,1.87
5560.00,1.87
5559.00,1.87
5558.00,1.87
5557.00,1.87
5556.00,1.87
5555.00,1.87
5554.00,1.87
5553.00,1.87
5552.00,1.86
5551.00,1.86
5550.00,1.86
5549.00,1.86
5548.00,1.86
5547.00,1.86
5546.00,1.85
5545.00,1.85
5544.00,1.85
5543.00,1.85
5542.00,1.85
5541.00,1.85
5540.00,1.85
5539.00,1.85
5538.00,1.85
5537.00,1.85
5536.00,1.85
5535.00,1.85
5534.00,1.85
5533.00,1.86
5532.00,1.86
5531.00,1.86
5530.00,1.86
5529.00,1.86
5528.00,1.86
5527.00,1.86
5526.00,1.86
5525.00,1.86
5524.00,1.86
5523.00,1.86
5522.00,1.86
5521.00,1.87
5520.00,1.87
5519.00,1.87
5518.00,1.87
5517.00,1.87
5516.00,1.87
5515.00,1.88
5514.00,1.88
5513.00,1.88
5512.00,1.88
5511.00,1.88
5510.00,1.88
5509.00,1.88
5508.00,1.88
5507.00,1.89
5506.00,1.89
5505.00,1.89
5504.00,1.89
5503.00,1.89
5502.00,1.90
5501.00,1.90
5500.00,1.91
5499.00,1.91
5498.00,1.91
5497.00,1.92
5496.00,1.92
5495.00,1.93
5494.00,1.93
5493.00,1.93
5492.00,1.93
5491.00,1.94
5490.00,1.94
5489.00,1.94
5488.00,1.94
5487.00,1.94
5486.00,1.94
5485.00,1.94
5484.00,1.95
5483.00,1.95
5482.00,1.95
5481.00,1.95
5480.00,1.95
5479.00,1.95
5478.00,1.95
5477.00,1.95
5476.00,1.95
5475.00,1.94
5474.00,1.94
5473.00,1.94
5472.00,1.94
5471.00,1.93
5470.00,1.93
5469.00,1.93
5468.00,1.93
5467.00,1.92
5466.00,1.92
5465.00,1.92
5464.00,1.92
5463.00,1.92
5462.00,1.92
5461.00,1.92
5460.00,1.92
5459.00,1.92
5458.00,1.91
5457.00,1.91
5456.00,1.91
5455.00,1.91
5454.00,1.91
5453.00,1.91
5452.00,1.91
5451.00,1.91
5450.00,1.91
5449.00,1.91
5448.00,1.91
5447.00,1.91
5446.00,1.92
5445.00,1.92
5444.00,1.92
5443.00,1.92
5442.00,1.92
5441.00,1.92
5440.00,1.93
5439.00,1.93
5438.00,1.93
5437.00,1.93
5436.00,1.93
5435.00,1.94
5434.00,1.94
5433.00,1.94
5432.00,1.94
5431.00,1.95
5430.00,1.95
5429.00,1.95
5428.00,1.95
5427.00,1.96
5426.00,1.96
5425.00,1.96
5424.00,1.96
5423.00,1.97
5422.00,1.97
5421.00,1.97
5420.00,1.97
5419.00,1.97
5418.00,1.97
5417.00,1.97
5416.00,1.97
5415.00,1.97
5414.00,1.97
5413.00,1.97
5412.00,1.96
5411.00,1.96
5410.00,1.96
5409.00,1.96
5408.00,1.95
5407.00,1.95
5406.00,1.94
5405.00,1.94
5404.00,1.93
5403.00,1.93
5402.00,1.92
5401.00,1.92
5400.00,1.91
5399.00,1.91
5398.00,1.91
5397.00,1.90
5396.00,1.90
5395.00,1.89
5394.00,1.89
5393.00,1.89
5392.00,1.88
5391.00,1.88
5390.00,1.88
5389.00,1.87
5388.00,1.87
5387.00,1.87
5386.00,1.87
5385.00,1.86
5384.00,1.86
5383.00,1.86
5382.00,1.86
5381.00,1.86
5380.00,1.87
5379.00,1.87
5378.00,1.87
5377.00,1.87
5376.00,1.88
5375.00,1.88
5374.00,1.88
5373.00,1.88
5372.00,1.89
5371.00,1.89
5370.00,1.89
5369.00,1.89
5368.00,1.90
5367.00,1.90
5366.00,1.90
5365.00,1.90
5364.00,1.91
5363.00,1.91
5362.00,1.91
5361.00,1.92
5360.00,1.92
5359.00,1.92
5358.00,1.93
5357.00,1.93
5356.00,1.93
5355.00,1.93
5354.00,1.93
5353.00,1.93
5352.00,1.93
5351.00,1.93
5350.00,1.92
5349.00,1.92
5348.00,1.92
5347.00,1.91
5346.00,1.91
5345.00,1.90
5344.00,1.90
5343.00,1.89
5342.00,1.88
5341.00,1.88
5340.00,1.87
5339.00,1.86
5338.00,1.85
5337.00,1.84
5336.00,1.83
5335.00,1.82
5334.00,1.81
5333.00,1.79
5332.00,1.78
5331.00,1.77
5330.00,1.75
5329.00,1.74
5328.00,1.73
5327.00,1.71
5326.00,1.70
5325.00,1.69
5324.00,1.67
5323.00,1.66
5322.00,1.65
5321.00,1.64
5320.00,1.63
5319.00,1.61
5318.00,1.60
5317.00,1.59
5316.00,1.58
5315.00,1.57
5314.00,1.56
5313.00,1.55
5312.00,1.54
5311.00,1.53
5310.00,1.52
5309.00,1.51
5308.00,1.50
5307.00,1.49
5306.00,1.48
5305.00,1.48
5304.00,1.47
5303.00,1.46
5302.00,1.45
5301.00,1.45
5300.00,1.44
5299.00,1.44
5298.00,1.43
5297.00,1.43
5296.00,1.42
5295.00,1.41
5294.00,1.41
5293.00,1.40
5292.00,1.39
5291.00,1.39
5290.00,1.38
5289.00,1.37
5288.00,1.37
5287.00,1.36
5286.00,1.35
5285.00,1.34
5284.00,1.34
5283.00,1.33
5282.00,1.33
5281.00,1.32
5280.00,1.31
5279.00,1.31
5278.00,1.30
5277.00,1.30
5276.00,1.29
5275.00,1.29
5274.00,1.28
5273.00,1.28
5272.00,1.27
5271.00,1.27
5270.00,1.26
5269.00,1.26
5268.00,1.26
5267.00,1.25
5266.00,1.25
5265.00,1.25
5264.00,1.25
5263.00,1.24
5262.00,1.24
5261.00,1.24
5260.00,1.24
5259.00,1.24
5258.00,1.24
5257.00,1.24
5256.00,1.24
5255.00,1.23
5254.00,1.23
5253.00,1.23
5252.00,1.23
5251.00,1.23
5250.00,1.23
5249.00,1.23
5248.00,1.22
5247.00,1.22
5246.00,1.22
5245.00,1.22
5244.00,1.22
5243.00,1.22
5242.00,1.22
5241.00,1.22
5240.00,1.22
5239.00,1.21
5238.00,1.21
5237.00,1.21
5236.00,1.21
5235.00,1.21
5234.00,1.21
5233.00,1.21
5232.00,1.21
5231.00,1.20
5230.00,1.20
5229.00,1.20
5228.00,1.20
5227.00,1.20
5226.00,1.20
5225.00,1.20
5224.00,1.20
5223.00,1.20
5222.00,1.20
5221.00,1.20
5220.00,1.20
5219.00,1.20
5218.00,1.20
5217.00,1.20
5216.00,1.20
5215.00,1.20
5214.00,1.20
5213.00,1.20
5212.00,1.20
5211.00,1.20
5210.00,1.20
5209.00,1.20
5208.00,1.20
5207.00,1.20
5206.00,1.19
5205.00,1.19
5204.00,1.19
5203.00,1.19
5202.00,1.18
5201.00,1.18
5200.00,1.18
5199.00,1.18
5198.00,1.17
5197.00,1.17
5196.00,1.17
5195.00,1.16
5194.00,1.16
5193.00,1.16
5192.00,1.15
5191.00,1.15
5190.00,1.15
5189.00,1.15
5188.00,1.14
5187.00,1.14
5186.00,1.14
5185.00,1.14
5184.00,1.14
5183.00,1.13
5182.00,1.13
5181.00,1.13
5180.00,1.13
5179.00,1.13
5178.00,1.12
5177.00,1.12
5176.00,1.12
5175.00,1.12
5174.00,1.12
5173.00,1.12
5172.00,1.12
5171.00,1.11
5170.00,1.11
5169.00,1.11
5168.00,1.11
5167.00,1.11
5166.00,1.11
5165.00,1.11
5164.00,1.11
5163.00,1.11
5162.00,1.11
5161.00,1.11
5160.00,1.11
5159.00,1.11
5158.00,1.12
5157.00,1.12
5156.00,1.12
5155.00,1.12
5154.00,1.12
5153.00,1.12
5152.00,1.13
5151.00,1.13
5150.00,1.13
5149.00,1.13
5148.00,1.13
5147.00,1.14
5146.00,1.14
5145.00,1.14
5144.00,1.14
5143.00,1.15
5142.00,1.15
5141.00,1.15
5140.00,1.15
5139.00,1.16
5138.00,1.16
5137.00,1.16
5136.00,1.16
5135.00,1.16
5134.00,1.17
5133.00,1.17
5132.00,1.17
5131.00,1.17
5130.00,1.17
5129.00,1.17
5128.00,1.17
5127.00,1.17
5126.00,1.17
5125.00,1.17
5124.00,1.17
5123.00,1.17
5122.00,1.17
5121.00,1.17
5120.00,1.16
5119.00,1.16
5118.00,1.16
5117.00,1.16
5116.00,1.16
5115.00,1.16
5114.00,1.15
5113.00,1.15
5112.00,1.15
5111.00,1.15
5110.00,1.14
5109.00,1.14
5108.00,1.14
5107.00,1.13
5106.00,1.13
5105.00,1.13
5104.00,1.13
5103.00,1.13
5102.00,1.13
5101.00,1.13
5100.00,1.13
5099.00,1.13
5098.00,1.13
5097.00,1.13
5096.00,1.13
5095.00,1.13
5094.00,1.13
5093.00,1.13
5092.00,1.13
5091.00,1.14
5090.00,1.14
5089.00,1.14
5088.00,1.15
5087.00,1.15
5086.00,1.16
5085.00,1.16
5084.00,1.17
5083.00,1.17
5082.00,1.18
5081.00,1.18
5080.00,1.19
5079.00,1.19
5078.00,1.20
5077.00,1.21
5076.00,1.21
5075.00,1.22
5074.00,1.22
5073.00,1.22
5072.00,1.23
5071.00,1.23
5070.00,1.24
5069.00,1.24
5068.00,1.24
5067.00,1.25
5066.00,1.25
5065.00,1.25
5064.00,1.25
5063.00,1.25
5062.00,1.25
5061.00,1.26
5060.00,1.26
5059.00,1.26
5058.00,1.26
5057.00,1.26
5056.00,1.26
5055.00,1.26
5054.00,1.26
5053.00,1.26
5052.00,1.26
5051.00,1.27
5050.00,1.27
5049.00,1.27
5048.00,1.27
5047.00,1.27
5046.00,1.27
5045.00,1.27
5044.00,1.27
5043.00,1.27
5042.00,1.28
5041.00,1.28
5040.00,1.28
5039.00,1.28
5038.00,1.29
5037.00,1.29
5036.00,1.29
5035.00,1.30
5034.00,1.30
5033.00,1.30
5032.00,1.30
5031.00,1.31
5030.00,1.31
5029.00,1.31
5028.00,1.31
5027.00,1.32
5026.00,1.32
5025.00,1.32
5024.00,1.32
5023.00,1.33
5022.00,1.33
5021.00,1.33
5020.00,1.33
5019.00,1.34
5018.00,1.34
5017.00,1.34
5016.00,1.34
5015.00,1.34
5014.00,1.34
5013.00,1.35
5012.00,1.35
5011.00,1.35
5010.00,1.35
5009.00,1.35
5008.00,1.35
5007.00,1.35
5006.00,1.35
5005.00,1.35
5004.00,1.36
5003.00,1.36
5002.00,1.36
5001.00,1.36
5000.00,1.36
4999.00,1.36
4998.00,1.36
4997.00,1.36
4996.00,1.36
4995.00,1.36
4994.00,1.36
4993.00,1.36
4992.00,1.36
4991.00,1.36
4990.00,1.36
4989.00,1.36
4988.00,1.36
4987.00,1.36
4986.00,1.36
4985.00,1.36
4984.00,1.36
4983.00,1.37
4982.00,1.37
4981.00,1.37
4980.00,1.37
4979.00,1.37
4978.00,1.37
4977.00,1.37
4976.00,1.38
4975.00,1.38
4974.00,1.38
4973.00,1.38
4972.00,1.38
4971.00,1.39
4970.00,1.39
4969.00,1.39
4968.00,1.39
4967.00,1.39
4966.00,1.39
4965.00,1.39
4964.00,1.40
4963.00,1.40
4962.00,1.40
4961.00,1.40
4960.00,1.40
4959.00,1.40
4958.00,1.41
4957.00,1.41
4956.00,1.41
4955.00,1.41
4954.00,1.41
4953.00,1.41
4952.00,1.42
4951.00,1.42
4950.00,1.42
4949.00,1.42
4948.00,1.42
4947.00,1.42
4946.00,1.42
4945.00,1.43
4944.00,1.43
4943.00,1.43
4942.00,1.43
4941.00,1.43
4940.00,1.44
4939.00,1.44
4938.00,1.44
4937.00,1.44
4936.00,1.45
4935.00,1.45
4934.00,1.45
4933.00,1.46
4932.00,1.46
4931.00,1.46
4930.00,1.47
4929.00,1.47
4928.00,1.47
4927.00,1.48
4926.00,1.48
4925.00,1.48
4924.00,1.49
4923.00,1.49
4922.00,1.49
4921.00,1.50
4920.00,1.50
4919.00,1.50
4918.00,1.51
4917.00,1.51
4916.00,1.51
4915.00,1.52
4914.00,1.52
4913.00,1.52
4912.00,1.53
4911.00,1.53
4910.00,1.54
4909.00,1.54
4908.00,1.54
4907.00,1.55
4906.00,1.55
4905.00,1.55
4904.00,1.55
4903.00,1.55
4902.00,1.55
4901.00,1.55
4900.00,1.56
4899.00,1.56
4898.00,1.56
4897.00,1.56
4896.00,1.56
4895.00,1.56
4894.00,1.56
4893.00,1.56
4892.00,1.56
4891.00,1.57
4890.00,1.57
4889.00,1.57
4888.00,1.57
4887.00,1.57
4886.00,1.57
4885.00,1.57
4884.00,1.57
4883.00,1.57
4882.00,1.57
4881.00,1.57
4880.00,1.57
4879.00,1.57
4878.00,1.57
4877.00,1.57
4876.00,1.57
4875.00,1.57
4874.00,1.57
4873.00,1.57
4872.00,1.57
4871.00,1.57
4870.00,1.57
4869.00,1.57
4868.00,1.57
4867.00,1.57
4866.00,1.57
4865.00,1.57
4864.00,1.57
4863.00,1.57
4862.00,1.57
4861.00,1.57
4860.00,1.57
4859.00,1.57
4858.00,1.57
4857.00,1.57
4856.00,1.57
4855.00,1.57
4854.00,1.57
4853.00,1.58
4852.00,1.58
4851.00,1.58
4850.00,1.58
4849.00,1.58
4848.00,1.58
4847.00,1.58
4846.00,1.59
4845.00,1.59
4844.00,1.59
4843.00,1.59
4842.00,1.60
4841.00,1.60
4840.00,1.60
4839.00,1.60
4838.00,1.61
4837.00,1.61
4836.00,1.61
4835.00,1.61
4834.00,1.61
4833.00,1.61
4832.00,1.61
4831.00,1.62
4830.00,1.62
4829.00,1.62
4828.00,1.62
4827.00,1.63
4826.00,1.63
4825.00,1.63
4824.00,1.63
4823.00,1.64
4822.00,1.64
4821.00,1.64
4820.00,1.64
4819.00,1.65
4818.00,1.65
4817.00,1.65
4816.00,1.65
4815.00,1.65
4814.00,1.65
4813.00,1.65
4812.00,1.65
4811.00,1.65
4810.00,1.65
4809.00,1.66
4808.00,1.66
4807.00,1.66
4806.00,1.66
4805.00,1.66
4804.00,1.66
4803.00,1.66
4802.00,1.66
4801.00,1.66
4800.00,1.66
4799.00,1.66
4798.00,1.66
4797.00,1.66
4796.00,1.66
4795.00,1.66
4794.00,1.66
4793.00,1.66
4792.00,1.66
4791.00,1.67
4790.00,1.67
4789.00,1.67
4788.00,1.67
4787.00,1.67
4786.00,1.67
4785.00,1.68
4784.00,1.68
4783.00,1.68
4782.00,1.68
4781.00,1.68
4780.00,1.68
4779.00,1.69
4778.00,1.69
4777.00,1.69
4776.00,1.69
4775.00,1.69
4774.00,1.69
4773.00,1.69
4772.00,1.69
4771.00,1.69
4770.00,1.69
4769.00,1.69
4768.00,1.69
4767.00,1.69
4766.00,1.69
4765.00,1.68
4764.00,1.68
4763.00,1.68
4762.00,1.68
4761.00,1.68
4760.00,1.68
4759.00,1.68
4758.00,1.67
4757.00,1.67
4756.00,1.67
4755.00,1.67
4754.00,1.67
4753.00,1.67
4752.00,1.67
4751.00,1.67
4750.00,1.67
4749.00,1.68
4748.00,1.68
4747.00,1.68
4746.00,1.69
4745.00,1.69
4744.00,1.70
4743.00,1.70
4742.00,1.71
4741.00,1.71
4740.00,1.72
4739.00,1.73
4738.00,1.73
4737.00,1.74
4736.00,1.74
4735.00,1.75
4734.00,1.76
4733.00,1.76
4732.00,1.77
4731.00,1.77
4730.00,1.78
4729.00,1.78
4728.00,1.79
4727.00,1.79
4726.00,1.80
4725.00,1.80
4724.00,1.80
4723.00,1.81
4722.00,1.81
4721.00,1.81
4720.00,1.82
4719.00,1.82
4718.00,1.82
4717.00,1.82
4716.00,1.82
4715.00,1.83
4714.00,1.83
4713.00,1.83
4712.00,1.83
4711.00,1.83
4710.00,1.84
4709.00,1.84
4708.00,1.84
4707.00,1.84
4706.00,1.84
4705.00,1.84
4704.00,1.85
4703.00,1.85
4702.00,1.85
4701.00,1.85
4700.00,1.86
4699.00,1.86
4698.00,1.86
4697.00,1.86
4696.00,1.87
4695.00,1.87
4694.00,1.87
4693.00,1.88
4692.00,1.88
4691.00,1.88
4690.00,1.89
4689.00,1.89
4688.00,1.89
4687.00,1.90
4686.00,1.90
4685.00,1.90
4684.00,1.91
4683.00,1.91
4682.00,1.91
4681.00,1.91
4680.00,1.92
4679.00,1.92
4678.00,1.92
4677.00,1.92
4676.00,1.92
4675.00,1.92
4674.00,1.92
4673.00,1.92
4672.00,1.92
4671.00,1.92
4670.00,1.92
4669.00,1.92
4668.00,1.92
4667.00,1.92
4666.00,1.92
4665.00,1.92
4664.00,1.91
4663.00,1.91
4662.00,1.91
4661.00,1.90
4660.00,1.90
4659.00,1.89
4658.00,1.89
4657.00,1.89
4656.00,1.88
4655.00,1.88
4654.00,1.88
4653.00,1.88
4652.00,1.87
4651.00,1.87
4650.00,1.87
4649.00,1.87
4648.00,1.87
4647.00,1.86
4646.00,1.86
4645.00,1.86
4644.00,1.86
4643.00,1.86
4642.00,1.86
4641.00,1.86
4640.00,1.86
4639.00,1.86
4638.00,1.86
4637.00,1.86
4636.00,1.86
4635.00,1.86
4634.00,1.86
4633.00,1.87
4632.00,1.87
4631.00,1.87
4630.00,1.87
4629.00,1.87
4628.00,1.88
4627.00,1.88
4626.00,1.88
4625.00,1.88
4624.00,1.88
4623.00,1.88
4622.00,1.89
4621.00,1.89
4620.00,1.89
4619.00,1.89
4618.00,1.89
4617.00,1.89
4616.00,1.89
4615.00,1.89
4614.00,1.90
4613.00,1.90
4612.00,1.90
4611.00,1.90
4610.00,1.90
4609.00,1.90
4608.00,1.90
4607.00,1.90
4606.00,1.90
4605.00,1.89
4604.00,1.89
4603.00,1.89
4602.00,1.89
4601.00,1.89
4600.00,1.89
4599.00,1.89
4598.00,1.89
4597.00,1.89
4596.00,1.89
4595.00,1.89
4594.00,1.89
4593.00,1.89
4592.00,1.89
4591.00,1.89
4590.00,1.89
4589.00,1.89
4588.00,1.89
4587.00,1.89
4586.00,1.89
4585.00,1.89
4584.00,1.89
4583.00,1.89
4582.00,1.89
4581.00,1.89
4580.00,1.89
4579.00,1.89
4578.00,1.90
4577.00,1.90
4576.00,1.90
4575.00,1.90
4574.00,1.90
4573.00,1.90
4572.00,1.90
4571.00,1.90
4570.00,1.91
4569.00,1.91
4568.00,1.91
4567.00,1.91
4566.00,1.91
4565.00,1.91
4564.00,1.92
4563.00,1.92
4562.00,1.92
4561.00,1.92
4560.00,1.92
4559.00,1.92
4558.00,1.92
4557.00,1.93
4556.00,1.93
4555.00,1.93
4554.00,1.93
4553.00,1.93
4552.00,1.93
4551.00,1.93
4550.00,1.93
4549.00,1.94
4548.00,1.94
4547.00,1.94
4546.00,1.94
4545.00,1.94
4544.00,1.94
4543.00,1.94
4542.00,1.94
4541.00,1.94
4540.00,1.94
4539.00,1.94
4538.00,1.94
4537.00,1.94
4536.00,1.94
4535.00,1.94
4534.00,1.94
4533.00,1.94
4532.00,1.93
4531.00,1.93
4530.00,1.93
4529.00,1.93
4528.00,1.93
4527.00,1.93
4526.00,1.93
4525.00,1.93
4524.00,1.93
4523.00,1.93
4522.00,1.93
4521.00,1.93
4520.00,1.93
4519.00,1.93
4518.00,1.93
4517.00,1.93
4516.00,1.93
4515.00,1.93
4514.00,1.93
4513.00,1.92
4512.00,1.92
4511.00,1.92
4510.00,1.92
4509.00,1.93
4508.00,1.93
4507.00,1.93
4506.00,1.93
4505.00,1.93
4504.00,1.93
4503.00,1.94
4502.00,1.94
4501.00,1.94
4500.00,1.94
4499.00,1.95
4498.00,1.95
4497.00,1.95
4496.00,1.95
4495.00,1.95
4494.00,1.96
4493.00,1.96
4492.00,1.96
4491.00,1.96
4490.00,1.96
4489.00,1.97
4488.00,1.97
4487.00,1.97
4486.00,1.97
4485.00,1.97
4484.00,1.97
4483.00,1.97
4482.00,1.97
4481.00,1.97
4480.00,1.97
4479.00,1.97
4478.00,1.97
4477.00,1.97
4476.00,1.97
4475.00,1.96
4474.00,1.96
4473.00,1.96
4472.00,1.95
4471.00,1.95
4470.00,1.95
4469.00,1.94
4468.00,1.94
4467.00,1.93
4466.00,1.93
4465.00,1.92
4464.00,1.92
4463.00,1.91
4462.00,1.91
4461.00,1.90
4460.00,1.90
4459.00,1.89
4458.00,1.89
4457.00,1.88
4456.00,1.88
4455.00,1.88
4454.00,1.87
4453.00,1.87
4452.00,1.86
4451.00,1.85
4450.00,1.85
4449.00,1.84
4448.00,1.84
4447.00,1.83
4446.00,1.83
4445.00,1.82
4444.00,1.81
4443.00,1.81
4442.00,1.80
4441.00,1.80
4440.00,1.79
4439.00,1.79
4438.00,1.79
4437.00,1.78
4436.00,1.78
4435.00,1.78
4434.00,1.77
4433.00,1.77
4432.00,1.77
4431.00,1.77
4430.00,1.77
4429.00,1.76
4428.00,1.76
4427.00,1.76
4426.00,1.76
4425.00,1.76
4424.00,1.76
4423.00,1.76
4422.00,1.76
4421.00,1.76
4420.00,1.77
4419.00,1.77
4418.00,1.77
4417.00,1.77
4416.00,1.78
4415.00,1.78
4414.00,1.78
4413.00,1.78
4412.00,1.78
4411.00,1.79
4410.00,1.79
4409.00,1.79
4408.00,1.79
4407.00,1.79
4406.00,1.79
4405.00,1.79
4404.00,1.79
4403.00,1.79
4402.00,1.79
4401.00,1.79
4400.00,1.79
4399.00,1.79
4398.00,1.79
4397.00,1.79
4396.00,1.79
4395.00,1.79
4394.00,1.78
4393.00,1.78
4392.00,1.78
4391.00,1.78
4390.00,1.78
4389.00,1.78
4388.00,1.77
4387.00,1.77
4386.00,1.77
4385.00,1.77
4384.00,1.77
4383.00,1.77
4382.00,1.77
4381.00,1.78
4380.00,1.78
4379.00,1.78
4378.00,1.78
4377.00,1.78
4376.00,1.78
4375.00,1.78
4374.00,1.78
4373.00,1.78
4372.00,1.79
4371.00,1.79
4370.00,1.79
4369.00,1.79
4368.00,1.79
4367.00,1.79
4366.00,1.79
4365.00,1.79
4364.00,1.79
4363.00,1.79
4362.00,1.79
4361.00,1.79
4360.00,1.79
4359.00,1.79
4358.00,1.79
4357.00,1.79
4356.00,1.79
4355.00,1.79
4354.00,1.79
4353.00,1.79
4352.00,1.79
4351.00,1.78
4350.00,1.78
4349.00,1.78
4348.00,1.78
4347.00,1.78
4346.00,1.78
4345.00,1.78
4344.00,1.78
4343.00,1.78
4342.00,1.78
4341.00,1.79
4340.00,1.79
4339.00,1.79
4338.00,1.79
4337.00,1.79
4336.00,1.80
4335.00,1.80
4334.00,1.80
4333.00,1.80
4332.00,1.80
4331.00,1.81
4330.00,1.81
4329.00,1.81
4328.00,1.81
4327.00,1.81
4326.00,1.81
4325.00,1.82
4324.00,1.82
4323.00,1.82
4322.00,1.82
4321.00,1.83
4320.00,1.83
4319.00,1.83
4318.00,1.84
4317.00,1.84
4316.00,1.84
4315.00,1.84
4314.00,1.84
4313.00,1.85
4312.00,1.85
4311.00,1.85
4310.00,1.85
4309.00,1.85
4308.00,1.85
4307.00,1.85
4306.00,1.86
4305.00,1.86
4304.00,1.86
4303.00,1.86
4302.00,1.86
4301.00,1.86
4300.00,1.86
4299.00,1.86
4298.00,1.86
4297.00,1.86
4296.00,1.86
4295.00,1.86
4294.00,1.85
4293.00,1.85
4292.00,1.85
4291.00,1.85
4290.00,1.85
4289.00,1.85
4288.00,1.85
4287.00,1.84
4286.00,1.84
4285.00,1.84
4284.00,1.84
4283.00,1.83
4282.00,1.83
4281.00,1.83
4280.00,1.83
4279.00,1.83
4278.00,1.83
4277.00,1.83
4276.00,1.83
4275.00,1.83
4274.00,1.83
4273.00,1.83
4272.00,1.83
4271.00,1.83
4270.00,1.84
4269.00,1.84
4268.00,1.84
4267.00,1.84
4266.00,1.84
4265.00,1.85
4264.00,1.85
4263.00,1.85
4262.00,1.85
4261.00,1.85
4260.00,1.86
4259.00,1.86
4258.00,1.86
4257.00,1.86
4256.00,1.87
4255.00,1.87
4254.00,1.87
4253.00,1.87
4252.00,1.87
4251.00,1.87
4250.00,1.87
4249.00,1.87
4248.00,1.87
4247.00,1.87
4246.00,1.87
4245.00,1.87
4244.00,1.87
4243.00,1.87
4242.00,1.87
4241.00,1.87
4240.00,1.87
4239.00,1.87
4238.00,1.87
4237.00,1.87
4236.00,1.88
4235.00,1.88
4234.00,1.88
4233.00,1.88
4232.00,1.88
4231.00,1.88
4230.00,1.89
4229.00,1.89
4228.00,1.89
4227.00,1.89
4226.00,1.89
4225.00,1.89
4224.00,1.89
4223.00,1.89
4222.00,1.89
4221.00,1.89
4220.00,1.89
4219.00,1.89
4218.00,1.89
4217.00,1.89
4216.00,1.88
4215.00,1.88
4214.00,1.88
4213.00,1.88
4212.00,1.88
4211.00,1.88
4210.00,1.87
4209.00,1.87
4208.00,1.86
4207.00,1.86
4206.00,1.85
4205.00,1.84
4204.00,1.84
4203.00,1.83
4202.00,1.83
4201.00,1.82
4200.00,1.82
4199.00,1.82
4198.00,1.81
4197.00,1.81
4196.00,1.81
4195.00,1.81
4194.00,1.81
4193.00,1.81
4192.00,1.81
4191.00,1.82
4190.00,1.82
4189.00,1.82
4188.00,1.82
4187.00,1.82
4186.00,1.82
4185.00,1.82
4184.00,1.82
4183.00,1.82
4182.00,1.83
4181.00,1.83
4180.00,1.84
4179.00,1.84
4178.00,1.85
4177.00,1.86
4176.00,1.86
4175.00,1.87
4174.00,1.87
4173.00,1.88
4172.00,1.88
4171.00,1.88
4170.00,1.88
4169.00,1.88
4168.00,1.89
4167.00,1.89
4166.00,1.89
4165.00,1.88
4164.00,1.88
4163.00,1.88
4162.00,1.88
4161.00,1.88
4160.00,1.88
4159.00,1.88
4158.00,1.89
4157.00,1.89
4156.00,1.89
4155.00,1.89
4154.00,1.88
4153.00,1.88
4152.00,1.88
4151.00,1.87
4150.00,1.87
4149.00,1.86
4148.00,1.86
4147.00,1.85
4146.00,1.85
4145.00,1.85
4144.00,1.85
4143.00,1.85
4142.00,1.84
4141.00,1.84
4140.00,1.84
4139.00,1.84
4138.00,1.84
4137.00,1.84
4136.00,1.84
4135.00,1.84
4134.00,1.84
4133.00,1.84
4132.00,1.84
4131.00,1.84
4130.00,1.84
4129.00,1.84
4128.00,1.84
4127.00,1.84
4126.00,1.84
4125.00,1.85
4124.00,1.85
4123.00,1.85
4122.00,1.85
4121.00,1.85
4120.00,1.85
4119.00,1.85
4118.00,1.85
4117.00,1.85
4116.00,1.85
4115.00,1.85
4114.00,1.84
4113.00,1.84
4112.00,1.84
4111.00,1.84
4110.00,1.84
4109.00,1.84
4108.00,1.83
4107.00,1.83
4106.00,1.83
4105.00,1.83
4104.00,1.83
4103.00,1.82
4102.00,1.82
4101.00,1.82
4100.00,1.82
4099.00,1.82
4098.00,1.81
4097.00,1.81
4096.00,1.81
4095.00,1.81
4094.00,1.81
4093.00,1.81
4092.00,1.81
4091.00,1.81
4090.00,1.82
4089.00,1.82
4088.00,1.82
4087.00,1.83
4086.00,1.83
4085.00,1.84
4084.00,1.84
4083.00,1.85
4082.00,1.85
4081.00,1.85
4080.00,1.86
4079.00,1.86
4078.00,1.87
4077.00,1.87
4076.00,1.87
4075.00,1.87
4074.00,1.87
4073.00,1.88
4072.00,1.88
4071.00,1.88
4070.00,1.88
4069.00,1.88
4068.00,1.88
4067.00,1.88
4066.00,1.88
4065.00,1.88
4064.00,1.88
4063.00,1.88
4062.00,1.88
4061.00,1.87
4060.00,1.87
4059.00,1.87
4058.00,1.87
4057.00,1.87
4056.00,1.87
4055.00,1.87
4054.00,1.87
4053.00,1.87
4052.00,1.87
4051.00,1.87
4050.00,1.87
4049.00,1.87
4048.00,1.87
4047.00,1.87
4046.00,1.88
4045.00,1.88
4044.00,1.88
4043.00,1.88
4042.00,1.89
4041.00,1.89
4040.00,1.90
4039.00,1.90
4038.00,1.91
4037.00,1.91
4036.00,1.92
4035.00,1.92
4034.00,1.92
4033.00,1.93
4032.00,1.93
4031.00,1.93
4030.00,1.94
4029.00,1.94
4028.00,1.95
4027.00,1.95
4026.00,1.96
4025.00,1.96
4024.00,1.96
4023.00,1.97
4022.00,1.97
4021.00,1.97
4020.00,1.97
4019.00,1.97
4018.00,1.97
4017.00,1.96
4016.00,1.96
4015.00,1.95
4014.00,1.94
4013.00,1.93
4012.00,1.92
4011.00,1.91
4010.00,1.90
4009.00,1.89
4008.00,1.88
4007.00,1.87
4006.00,1.85
4005.00,1.84
4004.00,1.82
4003.00,1.80
4002.00,1.78
4001.00,1.76
4000.00,1.74
