创建为新数据集,样品 1224 用户 Administrator 日期 星期二, 七月 30 2019
cm-1,%T
10000.00,1.64
9998.00,1.64
9996.00,1.63
9994.00,1.63
9992.00,1.63
9990.00,1.62
9988.00,1.62
9986.00,1.62
9984.00,1.62
9982.00,1.61
9980.00,1.61
9978.00,1.61
9976.00,1.61
9974.00,1.60
9972.00,1.60
9970.00,1.60
9968.00,1.59
9966.00,1.59
9964.00,1.59
9962.00,1.58
9960.00,1.58
9958.00,1.58
9956.00,1.57
9954.00,1.57
9952.00,1.57
9950.00,1.56
9948.00,1.56
9946.00,1.56
9944.00,1.56
9942.00,1.56
9940.00,1.56
9938.00,1.56
9936.00,1.56
9934.00,1.56
9932.00,1.56
9930.00,1.56
9928.00,1.56
9926.00,1.57
9924.00,1.57
9922.00,1.57
9920.00,1.57
9918.00,1.57
9916.00,1.57
9914.00,1.57
9912.00,1.57
9910.00,1.58
9908.00,1.58
9906.00,1.58
9904.00,1.58
9902.00,1.58
9900.00,1.59
9898.00,1.59
9896.00,1.59
9894.00,1.59
9892.00,1.59
9890.00,1.59
9888.00,1.60
9886.00,1.60
9884.00,1.60
9882.00,1.60
9880.00,1.60
9878.00,1.60
9876.00,1.60
9874.00,1.60
9872.00,1.60
9870.00,1.60
9868.00,1.60
9866.00,1.60
9864.00,1.60
9862.00,1.60
9860.00,1.60
9858.00,1.60
9856.00,1.60
9854.00,1.60
9852.00,1.60
9850.00,1.60
9848.00,1.60
9846.00,1.60
9844.00,1.60
9842.00,1.60
9840.00,1.60
9838.00,1.60
9836.00,1.60
9834.00,1.60
9832.00,1.60
9830.00,1.60
9828.00,1.60
9826.00,1.60
9824.00,1.60
9822.00,1.60
9820.00,1.60
9818.00,1.60
9816.00,1.60
9814.00,1.60
9812.00,1.60
9810.00,1.60
9808.00,1.60
9806.00,1.60
9804.00,1.60
9802.00,1.60
9800.00,1.60
9798.00,1.60
9796.00,1.60
9794.00,1.60
9792.00,1.60
9790.00,1.60
9788.00,1.59
9786.00,1.59
9784.00,1.59
9782.00,1.59
9780.00,1.59
9778.00,1.59
9776.00,1.58
9774.00,1.58
9772.00,1.58
9770.00,1.58
9768.00,1.57
9766.00,1.57
9764.00,1.57
9762.00,1.57
9760.00,1.56
9758.00,1.56
9756.00,1.56
9754.00,1.55
9752.00,1.55
9750.00,1.55
9748.00,1.55
9746.00,1.55
9744.00,1.54
9742.00,1.54
9740.00,1.54
9738.00,1.54
9736.00,1.54
9734.00,1.54
9732.00,1.54
9730.00,1.54
9728.00,1.54
9726.00,1.54
9724.00,1.55
9722.00,1.55
9720.00,1.55
9718.00,1.55
9716.00,1.55
9714.00,1.56
9712.00,1.56
9710.00,1.56
9708.00,1.56
9706.00,1.57
9704.00,1.57
9702.00,1.57
9700.00,1.57
9698.00,1.58
9696.00,1.58
9694.00,1.58
9692.00,1.58
9690.00,1.58
9688.00,1.59
9686.00,1.59
9684.00,1.59
9682.00,1.59
9680.00,1.59
9678.00,1.59
9676.00,1.59
9674.00,1.59
9672.00,1.59
9670.00,1.59
9668.00,1.59
9666.00,1.59
9664.00,1.59
9662.00,1.59
9660.00,1.58
9658.00,1.58
9656.00,1.59
9654.00,1.59
9652.00,1.59
9650.00,1.59
9648.00,1.59
9646.00,1.59
9644.00,1.59
9642.00,1.59
9640.00,1.59
9638.00,1.59
9636.00,1.59
9634.00,1.59
9632.00,1.59
9630.00,1.59
9628.00,1.59
9626.00,1.59
9624.00,1.59
9622.00,1.59
9620.00,1.60
9618.00,1.60
9616.00,1.60
9614.00,1.60
9612.00,1.60
9610.00,1.60
9608.00,1.60
9606.00,1.60
9604.00,1.60
9602.00,1.60
9600.00,1.60
9598.00,1.60
9596.00,1.60
9594.00,1.60
9592.00,1.60
9590.00,1.60
9588.00,1.60
9586.00,1.60
9584.00,1.60
9582.00,1.60
9580.00,1.60
9578.00,1.60
9576.00,1.60
9574.00,1.60
9572.00,1.60
9570.00,1.60
9568.00,1.60
9566.00,1.60
9564.00,1.60
9562.00,1.59
9560.00,1.59
9558.00,1.59
9556.00,1.59
9554.00,1.59
9552.00,1.59
9550.00,1.59
9548.00,1.59
9546.00,1.59
9544.00,1.60
9542.00,1.60
9540.00,1.60
9538.00,1.60
9536.00,1.60
9534.00,1.60
9532.00,1.59
9530.00,1.59
9528.00,1.59
9526.00,1.59
9524.00,1.59
9522.00,1.59
9520.00,1.59
9518.00,1.59
9516.00,1.59
9514.00,1.59
9512.00,1.59
9510.00,1.59
9508.00,1.59
9506.00,1.59
9504.00,1.59
9502.00,1.59
9500.00,1.59
9498.00,1.58
9496.00,1.58
9494.00,1.58
9492.00,1.58
9490.00,1.58
9488.00,1.57
9486.00,1.57
9484.00,1.57
9482.00,1.57
9480.00,1.57
9478.00,1.57
9476.00,1.57
9474.00,1.56
9472.00,1.56
9470.00,1.56
9468.00,1.56
9466.00,1.56
9464.00,1.56
9462.00,1.56
9460.00,1.56
9458.00,1.56
9456.00,1.56
9454.00,1.56
9452.00,1.56
9450.00,1.56
9448.00,1.56
9446.00,1.56
9444.00,1.56
9442.00,1.56
9440.00,1.57
9438.00,1.57
9436.00,1.57
9434.00,1.57
9432.00,1.57
9430.00,1.58
9428.00,1.58
9426.00,1.58
9424.00,1.58
9422.00,1.58
9420.00,1.58
9418.00,1.58
9416.00,1.58
9414.00,1.58
9412.00,1.58
9410.00,1.58
9408.00,1.58
9406.00,1.58
9404.00,1.58
9402.00,1.58
9400.00,1.58
9398.00,1.58
9396.00,1.58
9394.00,1.58
9392.00,1.58
9390.00,1.58
9388.00,1.58
9386.00,1.58
9384.00,1.58
9382.00,1.58
9380.00,1.58
9378.00,1.58
9376.00,1.58
9374.00,1.58
9372.00,1.58
9370.00,1.58
9368.00,1.58
9366.00,1.59
9364.00,1.59
9362.00,1.59
9360.00,1.59
9358.00,1.59
9356.00,1.60
9354.00,1.60
9352.00,1.60
9350.00,1.60
9348.00,1.60
9346.00,1.61
9344.00,1.61
9342.00,1.61
9340.00,1.61
9338.00,1.60
9336.00,1.60
9334.00,1.60
9332.00,1.60
9330.00,1.60
9328.00,1.60
9326.00,1.59
9324.00,1.59
9322.00,1.59
9320.00,1.58
9318.00,1.58
9316.00,1.58
9314.00,1.57
9312.00,1.57
9310.00,1.57
9308.00,1.56
9306.00,1.56
9304.00,1.55
9302.00,1.55
9300.00,1.54
9298.00,1.54
9296.00,1.54
9294.00,1.53
9292.00,1.53
9290.00,1.53
9288.00,1.53
9286.00,1.53
9284.00,1.52
9282.00,1.52
9280.00,1.52
9278.00,1.52
9276.00,1.52
9274.00,1.52
9272.00,1.53
9270.00,1.53
9268.00,1.53
9266.00,1.53
9264.00,1.53
9262.00,1.53
9260.00,1.53
9258.00,1.53
9256.00,1.54
9254.00,1.54
9252.00,1.54
9250.00,1.54
9248.00,1.55
9246.00,1.55
9244.00,1.55
9242.00,1.55
9240.00,1.56
9238.00,1.56
9236.00,1.56
9234.00,1.56
9232.00,1.56
9230.00,1.57
9228.00,1.57
9226.00,1.57
9224.00,1.57
9222.00,1.58
9220.00,1.58
9218.00,1.58
9216.00,1.58
9214.00,1.59
9212.00,1.59
9210.00,1.59
9208.00,1.59
9206.00,1.60
9204.00,1.60
9202.00,1.60
9200.00,1.60
9198.00,1.60
9196.00,1.61
9194.00,1.61
9192.00,1.61
9190.00,1.61
9188.00,1.61
9186.00,1.61
9184.00,1.62
9182.00,1.62
9180.00,1.62
9178.00,1.62
9176.00,1.62
9174.00,1.62
9172.00,1.61
9170.00,1.61
9168.00,1.61
9166.00,1.61
9164.00,1.61
9162.00,1.61
9160.00,1.61
9158.00,1.61
9156.00,1.60
9154.00,1.60
9152.00,1.60
9150.00,1.60
9148.00,1.60
9146.00,1.59
9144.00,1.59
9142.00,1.59
9140.00,1.59
9138.00,1.58
9136.00,1.58
9134.00,1.58
9132.00,1.58
9130.00,1.58
9128.00,1.58
9126.00,1.58
9124.00,1.57
9122.00,1.57
9120.00,1.57
9118.00,1.57
9116.00,1.57
9114.00,1.57
9112.00,1.57
9110.00,1.57
9108.00,1.57
9106.00,1.57
9104.00,1.57
9102.00,1.56
9100.00,1.56
9098.00,1.56
9096.00,1.56
9094.00,1.56
9092.00,1.56
9090.00,1.56
9088.00,1.56
9086.00,1.56
9084.00,1.56
9082.00,1.56
9080.00,1.55
9078.00,1.55
9076.00,1.55
9074.00,1.55
9072.00,1.55
9070.00,1.55
9068.00,1.55
9066.00,1.55
9064.00,1.54
9062.00,1.54
9060.00,1.54
9058.00,1.54
9056.00,1.54
9054.00,1.54
9052.00,1.54
9050.00,1.54
9048.00,1.54
9046.00,1.54
9044.00,1.54
9042.00,1.55
9040.00,1.55
9038.00,1.55
9036.00,1.55
9034.00,1.56
9032.00,1.56
9030.00,1.56
9028.00,1.56
9026.00,1.57
9024.00,1.57
9022.00,1.57
9020.00,1.58
9018.00,1.58
9016.00,1.58
9014.00,1.59
9012.00,1.59
9010.00,1.59
9008.00,1.60
9006.00,1.60
9004.00,1.60
9002.00,1.60
9000.00,1.61
8998.00,1.61
8996.00,1.61
8994.00,1.61
8992.00,1.61
8990.00,1.61
8988.00,1.61
8986.00,1.61
8984.00,1.61
8982.00,1.61
8980.00,1.61
8978.00,1.61
8976.00,1.61
8974.00,1.61
8972.00,1.61
8970.00,1.61
8968.00,1.61
8966.00,1.61
8964.00,1.61
8962.00,1.61
8960.00,1.61
8958.00,1.61
8956.00,1.61
8954.00,1.61
8952.00,1.61
8950.00,1.61
8948.00,1.61
8946.00,1.61
8944.00,1.61
8942.00,1.61
8940.00,1.61
8938.00,1.61
8936.00,1.61
8934.00,1.61
8932.00,1.61
8930.00,1.61
8928.00,1.61
8926.00,1.61
8924.00,1.61
8922.00,1.61
8920.00,1.61
8918.00,1.61
8916.00,1.61
8914.00,1.61
8912.00,1.61
8910.00,1.61
8908.00,1.61
8906.00,1.61
8904.00,1.61
8902.00,1.61
8900.00,1.61
8898.00,1.60
8896.00,1.60
8894.00,1.60
8892.00,1.60
8890.00,1.60
8888.00,1.60
8886.00,1.60
8884.00,1.60
8882.00,1.60
8880.00,1.60
8878.00,1.60
8876.00,1.60
8874.00,1.60
8872.00,1.60
8870.00,1.60
8868.00,1.60
8866.00,1.60
8864.00,1.60
8862.00,1.60
8860.00,1.59
8858.00,1.59
8856.00,1.59
8854.00,1.59
8852.00,1.59
8850.00,1.59
8848.00,1.58
8846.00,1.58
8844.00,1.58
8842.00,1.58
8840.00,1.58
8838.00,1.57
8836.00,1.57
8834.00,1.57
8832.00,1.57
8830.00,1.57
8828.00,1.56
8826.00,1.56
8824.00,1.56
8822.00,1.56
8820.00,1.56
8818.00,1.56
8816.00,1.56
8814.00,1.55
8812.00,1.55
8810.00,1.55
8808.00,1.55
8806.00,1.55
8804.00,1.55
8802.00,1.55
8800.00,1.56
8798.00,1.56
8796.00,1.56
8794.00,1.56
8792.00,1.56
8790.00,1.56
8788.00,1.56
8786.00,1.56
8784.00,1.56
8782.00,1.57
8780.00,1.57
8778.00,1.57
8776.00,1.57
8774.00,1.57
8772.00,1.57
8770.00,1.57
8768.00,1.57
8766.00,1.57
8764.00,1.57
8762.00,1.57
8760.00,1.57
8758.00,1.57
8756.00,1.57
8754.00,1.57
8752.00,1.57
8750.00,1.57
8748.00,1.57
8746.00,1.57
8744.00,1.57
8742.00,1.57
8740.00,1.56
8738.00,1.56
8736.00,1.56
8734.00,1.56
8732.00,1.56
8730.00,1.56
8728.00,1.56
8726.00,1.56
8724.00,1.56
8722.00,1.56
8720.00,1.56
8718.00,1.56
8716.00,1.56
8714.00,1.56
8712.00,1.56
8710.00,1.56
8708.00,1.56
8706.00,1.56
8704.00,1.56
8702.00,1.56
8700.00,1.56
8698.00,1.56
8696.00,1.56
8694.00,1.56
8692.00,1.56
8690.00,1.56
8688.00,1.56
8686.00,1.56
8684.00,1.56
8682.00,1.56
8680.00,1.56
8678.00,1.56
8676.00,1.56
8674.00,1.56
8672.00,1.56
8670.00,1.56
8668.00,1.56
8666.00,1.56
8664.00,1.56
8662.00,1.56
8660.00,1.56
8658.00,1.56
8656.00,1.55
8654.00,1.55
8652.00,1.55
8650.00,1.55
8648.00,1.55
8646.00,1.55
8644.00,1.54
8642.00,1.54
8640.00,1.54
8638.00,1.54
8636.00,1.54
8634.00,1.54
8632.00,1.54
8630.00,1.53
8628.00,1.53
8626.00,1.53
8624.00,1.53
8622.00,1.53
8620.00,1.53
8618.00,1.53
8616.00,1.53
8614.00,1.53
8612.00,1.53
8610.00,1.53
8608.00,1.53
8606.00,1.53
8604.00,1.52
8602.00,1.52
8600.00,1.52
8598.00,1.52
8596.00,1.52
8594.00,1.52
8592.00,1.52
8590.00,1.52
8588.00,1.52
8586.00,1.52
8584.00,1.52
8582.00,1.52
8580.00,1.51
8578.00,1.51
8576.00,1.51
8574.00,1.51
8572.00,1.51
8570.00,1.51
8568.00,1.51
8566.00,1.51
8564.00,1.51
8562.00,1.50
8560.00,1.50
8558.00,1.50
8556.00,1.50
8554.00,1.50
8552.00,1.50
8550.00,1.50
8548.00,1.50
8546.00,1.50
8544.00,1.50
8542.00,1.50
8540.00,1.50
8538.00,1.50
8536.00,1.50
8534.00,1.50
8532.00,1.50
8530.00,1.50
8528.00,1.50
8526.00,1.51
8524.00,1.51
8522.00,1.51
8520.00,1.51
8518.00,1.51
8516.00,1.51
8514.00,1.51
8512.00,1.51
8510.00,1.51
8508.00,1.51
8506.00,1.51
8504.00,1.51
8502.00,1.51
8500.00,1.51
8498.00,1.51
8496.00,1.51
8494.00,1.50
8492.00,1.50
8490.00,1.50
8488.00,1.50
8486.00,1.50
8484.00,1.50
8482.00,1.50
8480.00,1.49
8478.00,1.49
8476.00,1.49
8474.00,1.49
8472.00,1.49
8470.00,1.49
8468.00,1.49
8466.00,1.49
8464.00,1.49
8462.00,1.49
8460.00,1.49
8458.00,1.49
8456.00,1.49
8454.00,1.49
8452.00,1.49
8450.00,1.49
8448.00,1.49
8446.00,1.49
8444.00,1.49
8442.00,1.49
8440.00,1.49
8438.00,1.49
8436.00,1.49
8434.00,1.49
8432.00,1.49
8430.00,1.50
8428.00,1.50
8426.00,1.50
8424.00,1.50
8422.00,1.50
8420.00,1.50
8418.00,1.50
8416.00,1.51
8414.00,1.51
8412.00,1.51
8410.00,1.51
8408.00,1.51
8406.00,1.51
8404.00,1.51
8402.00,1.51
8400.00,1.51
8398.00,1.51
8396.00,1.51
8394.00,1.51
8392.00,1.52
8390.00,1.52
8388.00,1.52
8386.00,1.52
8384.00,1.52
8382.00,1.52
8380.00,1.52
8378.00,1.52
8376.00,1.52
8374.00,1.52
8372.00,1.52
8370.00,1.52
8368.00,1.52
8366.00,1.52
8364.00,1.51
8362.00,1.51
8360.00,1.51
8358.00,1.51
8356.00,1.51
8354.00,1.51
8352.00,1.51
8350.00,1.51
8348.00,1.51
8346.00,1.51
8344.00,1.51
8342.00,1.51
8340.00,1.51
8338.00,1.51
8336.00,1.51
8334.00,1.51
8332.00,1.51
8330.00,1.51
8328.00,1.51
8326.00,1.51
8324.00,1.51
8322.00,1.51
8320.00,1.51
8318.00,1.51
8316.00,1.51
8314.00,1.51
8312.00,1.52
8310.00,1.52
8308.00,1.52
8306.00,1.52
8304.00,1.52
8302.00,1.52
8300.00,1.53
8298.00,1.53
8296.00,1.53
8294.00,1.53
8292.00,1.53
8290.00,1.53
8288.00,1.54
8286.00,1.54
8284.00,1.54
8282.00,1.54
8280.00,1.54
8278.00,1.54
8276.00,1.54
8274.00,1.54
8272.00,1.54
8270.00,1.54
8268.00,1.54
8266.00,1.54
8264.00,1.54
8262.00,1.54
8260.00,1.54
8258.00,1.54
8256.00,1.54
8254.00,1.54
8252.00,1.54
8250.00,1.54
8248.00,1.54
8246.00,1.54
8244.00,1.54
8242.00,1.54
8240.00,1.54
8238.00,1.54
8236.00,1.54
8234.00,1.53
8232.00,1.53
8230.00,1.53
8228.00,1.53
8226.00,1.53
8224.00,1.53
8222.00,1.53
8220.00,1.53
8218.00,1.54
8216.00,1.54
8214.00,1.54
8212.00,1.54
8210.00,1.54
8208.00,1.54
8206.00,1.54
8204.00,1.54
8202.00,1.54
8200.00,1.54
8198.00,1.54
8196.00,1.54
8194.00,1.54
8192.00,1.54
8190.00,1.54
8188.00,1.54
8186.00,1.54
8184.00,1.54
8182.00,1.54
8180.00,1.54
8178.00,1.54
8176.00,1.54
8174.00,1.54
8172.00,1.54
8170.00,1.54
8168.00,1.54
8166.00,1.54
8164.00,1.54
8162.00,1.54
8160.00,1.54
8158.00,1.54
8156.00,1.54
8154.00,1.54
8152.00,1.53
8150.00,1.53
8148.00,1.53
8146.00,1.53
8144.00,1.53
8142.00,1.53
8140.00,1.53
8138.00,1.53
8136.00,1.53
8134.00,1.53
8132.00,1.53
8130.00,1.53
8128.00,1.53
8126.00,1.53
8124.00,1.53
8122.00,1.53
8120.00,1.53
8118.00,1.53
8116.00,1.53
8114.00,1.53
8112.00,1.53
8110.00,1.53
8108.00,1.53
8106.00,1.53
8104.00,1.53
8102.00,1.53
8100.00,1.53
8098.00,1.54
8096.00,1.54
8094.00,1.54
8092.00,1.54
8090.00,1.54
8088.00,1.54
8086.00,1.54
8084.00,1.54
8082.00,1.54
8080.00,1.54
8078.00,1.54
8076.00,1.54
8074.00,1.54
8072.00,1.54
8070.00,1.54
8068.00,1.54
8066.00,1.54
8064.00,1.54
8062.00,1.54
8060.00,1.54
8058.00,1.54
8056.00,1.54
8054.00,1.55
8052.00,1.55
8050.00,1.55
8048.00,1.55
8046.00,1.55
8044.00,1.55
8042.00,1.55
8040.00,1.55
8038.00,1.55
8036.00,1.55
8034.00,1.56
8032.00,1.56
8030.00,1.56
8028.00,1.56
8026.00,1.56
8024.00,1.56
8022.00,1.56
8020.00,1.57
8018.00,1.57
8016.00,1.57
8014.00,1.57
8012.00,1.57
8010.00,1.58
8008.00,1.58
8006.00,1.58
8004.00,1.58
8002.00,1.58
8000.00,1.58
7998.00,1.58
7996.00,1.59
7994.00,1.59
7992.00,1.59
7990.00,1.59
7988.00,1.59
7986.00,1.59
7984.00,1.59
7982.00,1.59
7980.00,1.60
7978.00,1.60
7976.00,1.60
7974.00,1.60
7972.00,1.60
7970.00,1.60
7968.00,1.60
7966.00,1.60
7964.00,1.60
7962.00,1.60
7960.00,1.60
7958.00,1.60
7956.00,1.60
7954.00,1.60
7952.00,1.60
7950.00,1.60
7948.00,1.60
7946.00,1.60
7944.00,1.60
7942.00,1.60
7940.00,1.60
7938.00,1.60
7936.00,1.60
7934.00,1.60
7932.00,1.60
7930.00,1.60
7928.00,1.60
7926.00,1.60
7924.00,1.60
7922.00,1.60
7920.00,1.60
7918.00,1.60
7916.00,1.60
7914.00,1.60
7912.00,1.59
7910.00,1.59
7908.00,1.59
7906.00,1.59
7904.00,1.59
7902.00,1.59
7900.00,1.59
7898.00,1.59
7896.00,1.59
7894.00,1.59
7892.00,1.59
7890.00,1.59
7888.00,1.59
7886.00,1.59
7884.00,1.59
7882.00,1.59
7880.00,1.59
7878.00,1.59
7876.00,1.59
7874.00,1.59
7872.00,1.60
7870.00,1.60
7868.00,1.60
7866.00,1.60
7864.00,1.60
7862.00,1.60
7860.00,1.59
7858.00,1.59
7856.00,1.59
7854.00,1.59
7852.00,1.59
7850.00,1.59
7848.00,1.59
7846.00,1.59
7844.00,1.59
7842.00,1.59
7840.00,1.59
7838.00,1.59
7836.00,1.59
7834.00,1.59
7832.00,1.59
7830.00,1.59
7828.00,1.59
7826.00,1.58
7824.00,1.58
7822.00,1.58
7820.00,1.58
7818.00,1.58
7816.00,1.58
7814.00,1.58
7812.00,1.58
7810.00,1.58
7808.00,1.58
7806.00,1.58
7804.00,1.59
7802.00,1.59
7800.00,1.59
7798.00,1.59
7796.00,1.59
7794.00,1.59
7792.00,1.59
7790.00,1.59
7788.00,1.60
7786.00,1.60
7784.00,1.60
7782.00,1.60
7780.00,1.60
7778.00,1.61
7776.00,1.61
7774.00,1.61
7772.00,1.61
7770.00,1.61
7768.00,1.62
7766.00,1.62
7764.00,1.62
7762.00,1.62
7760.00,1.62
7758.00,1.62
7756.00,1.62
7754.00,1.63
7752.00,1.63
7750.00,1.63
7748.00,1.63
7746.00,1.63
7744.00,1.63
7742.00,1.63
7740.00,1.63
7738.00,1.63
7736.00,1.63
7734.00,1.63
7732.00,1.63
7730.00,1.63
7728.00,1.63
7726.00,1.63
7724.00,1.62
7722.00,1.62
7720.00,1.62
7718.00,1.62
7716.00,1.62
7714.00,1.62
7712.00,1.62
7710.00,1.62
7708.00,1.62
7706.00,1.62
7704.00,1.62
7702.00,1.62
7700.00,1.61
7698.00,1.61
7696.00,1.61
7694.00,1.61
7692.00,1.61
7690.00,1.61
7688.00,1.61
7686.00,1.61
7684.00,1.61
7682.00,1.61
7680.00,1.61
7678.00,1.61
7676.00,1.61
7674.00,1.61
7672.00,1.61
7670.00,1.61
7668.00,1.61
7666.00,1.61
7664.00,1.61
7662.00,1.61
7660.00,1.61
7658.00,1.61
7656.00,1.61
7654.00,1.61
7652.00,1.61
7650.00,1.61
7648.00,1.61
7646.00,1.61
7644.00,1.61
7642.00,1.61
7640.00,1.61
7638.00,1.61
7636.00,1.60
7634.00,1.60
7632.00,1.60
7630.00,1.60
7628.00,1.60
7626.00,1.60
7624.00,1.60
7622.00,1.60
7620.00,1.60
7618.00,1.60
7616.00,1.60
7614.00,1.60
7612.00,1.60
7610.00,1.60
7608.00,1.60
7606.00,1.60
7604.00,1.60
7602.00,1.60
7600.00,1.60
7598.00,1.60
7596.00,1.60
7594.00,1.60
7592.00,1.60
7590.00,1.60
7588.00,1.60
7586.00,1.60
7584.00,1.60
7582.00,1.60
7580.00,1.60
7578.00,1.60
7576.00,1.60
7574.00,1.60
7572.00,1.60
7570.00,1.60
7568.00,1.60
7566.00,1.60
7564.00,1.60
7562.00,1.60
7560.00,1.60
7558.00,1.60
7556.00,1.60
7554.00,1.60
7552.00,1.60
7550.00,1.60
7548.00,1.60
7546.00,1.60
7544.00,1.61
7542.00,1.61
7540.00,1.61
7538.00,1.61
7536.00,1.61
7534.00,1.61
7532.00,1.61
7530.00,1.61
7528.00,1.61
7526.00,1.61
7524.00,1.61
7522.00,1.61
7520.00,1.61
7518.00,1.61
7516.00,1.61
7514.00,1.61
7512.00,1.61
7510.00,1.61
7508.00,1.61
7506.00,1.61
7504.00,1.61
7502.00,1.61
7500.00,1.61
7498.00,1.61
7496.00,1.60
7494.00,1.60
7492.00,1.60
7490.00,1.60
7488.00,1.60
7486.00,1.60
7484.00,1.60
7482.00,1.60
7480.00,1.60
7478.00,1.60
7476.00,1.59
7474.00,1.59
7472.00,1.59
7470.00,1.59
7468.00,1.59
7466.00,1.59
7464.00,1.59
7462.00,1.59
7460.00,1.59
7458.00,1.59
7456.00,1.58
7454.00,1.58
7452.00,1.58
7450.00,1.58
7448.00,1.58
7446.00,1.58
7444.00,1.58
7442.00,1.57
7440.00,1.57
7438.00,1.57
7436.00,1.57
7434.00,1.57
7432.00,1.57
7430.00,1.57
7428.00,1.56
7426.00,1.56
7424.00,1.56
7422.00,1.56
7420.00,1.56
7418.00,1.56
7416.00,1.56
7414.00,1.55
7412.00,1.55
7410.00,1.55
7408.00,1.55
7406.00,1.55
7404.00,1.55
7402.00,1.55
7400.00,1.55
7398.00,1.55
7396.00,1.55
7394.00,1.55
7392.00,1.55
7390.00,1.55
7388.00,1.55
7386.00,1.55
7384.00,1.55
7382.00,1.55
7380.00,1.55
7378.00,1.55
7376.00,1.55
7374.00,1.55
7372.00,1.54
7370.00,1.54
7368.00,1.54
7366.00,1.54
7364.00,1.54
7362.00,1.54
7360.00,1.54
7358.00,1.54
7356.00,1.54
7354.00,1.54
7352.00,1.53
7350.00,1.53
7348.00,1.53
7346.00,1.53
7344.00,1.53
7342.00,1.53
7340.00,1.53
7338.00,1.52
7336.00,1.52
7334.00,1.52
7332.00,1.52
7330.00,1.52
7328.00,1.52
7326.00,1.52
7324.00,1.52
7322.00,1.52
7320.00,1.52
7318.00,1.51
7316.00,1.51
7314.00,1.51
7312.00,1.51
7310.00,1.51
7308.00,1.51
7306.00,1.51
7304.00,1.51
7302.00,1.50
7300.00,1.50
7298.00,1.50
7296.00,1.50
7294.00,1.50
7292.00,1.50
7290.00,1.50
7288.00,1.49
7286.00,1.49
7284.00,1.49
7282.00,1.49
7280.00,1.48
7278.00,1.48
7276.00,1.48
7274.00,1.48
7272.00,1.47
7270.00,1.47
7268.00,1.47
7266.00,1.46
7264.00,1.46
7262.00,1.46
7260.00,1.45
7258.00,1.45
7256.00,1.45
7254.00,1.44
7252.00,1.44
7250.00,1.44
7248.00,1.43
7246.00,1.43
7244.00,1.42
7242.00,1.42
7240.00,1.41
7238.00,1.40
7236.00,1.40
7234.00,1.39
7232.00,1.39
7230.00,1.38
7228.00,1.37
7226.00,1.37
7224.00,1.36
7222.00,1.35
7220.00,1.35
7218.00,1.34
7216.00,1.33
7214.00,1.33
7212.00,1.32
7210.00,1.31
7208.00,1.30
7206.00,1.30
7204.00,1.29
7202.00,1.28
7200.00,1.27
7198.00,1.27
7196.00,1.26
7194.00,1.25
7192.00,1.24
7190.00,1.23
7188.00,1.23
7186.00,1.22
7184.00,1.21
7182.00,1.21
7180.00,1.20
7178.00,1.19
7176.00,1.18
7174.00,1.18
7172.00,1.17
7170.00,1.16
7168.00,1.16
7166.00,1.15
7164.00,1.14
7162.00,1.13
7160.00,1.13
7158.00,1.12
7156.00,1.11
7154.00,1.11
7152.00,1.10
7150.00,1.09
7148.00,1.09
7146.00,1.08
7144.00,1.07
7142.00,1.07
7140.00,1.06
7138.00,1.06
7136.00,1.05
7134.00,1.04
7132.00,1.04
7130.00,1.03
7128.00,1.02
7126.00,1.02
7124.00,1.01
7122.00,1.01
7120.00,1.00
7118.00,0.99
7116.00,0.99
7114.00,0.98
7112.00,0.98
7110.00,0.97
7108.00,0.97
7106.00,0.96
7104.00,0.96
7102.00,0.95
7100.00,0.95
7098.00,0.94
7096.00,0.94
7094.00,0.93
7092.00,0.93
7090.00,0.93
7088.00,0.92
7086.00,0.92
7084.00,0.91
7082.00,0.91
7080.00,0.91
7078.00,0.90
7076.00,0.90
7074.00,0.90
7072.00,0.89
7070.00,0.89
7068.00,0.89
7066.00,0.89
7064.00,0.88
7062.00,0.88
7060.00,0.88
7058.00,0.87
7056.00,0.87
7054.00,0.87
7052.00,0.87
7050.00,0.86
7048.00,0.86
7046.00,0.86
7044.00,0.86
7042.00,0.85
7040.00,0.85
7038.00,0.85
7036.00,0.85
7034.00,0.85
7032.00,0.84
7030.00,0.84
7028.00,0.84
7026.00,0.84
7024.00,0.84
7022.00,0.83
7020.00,0.83
7018.00,0.83
7016.00,0.83
7014.00,0.83
7012.00,0.82
7010.00,0.82
7008.00,0.82
7006.00,0.82
7004.00,0.82
7002.00,0.81
7000.00,0.81
6998.00,0.81
6996.00,0.81
6994.00,0.81
6992.00,0.80
6990.00,0.80
6988.00,0.80
6986.00,0.80
6984.00,0.80
6982.00,0.80
6980.00,0.79
6978.00,0.79
6976.00,0.79
6974.00,0.79
6972.00,0.79
6970.00,0.79
6968.00,0.79
6966.00,0.79
6964.00,0.78
6962.00,0.78
6960.00,0.78
6958.00,0.78
6956.00,0.78
6954.00,0.78
6952.00,0.78
6950.00,0.78
6948.00,0.78
6946.00,0.78
6944.00,0.78
6942.00,0.78
6940.00,0.78
6938.00,0.78
6936.00,0.78
6934.00,0.78
6932.00,0.78
6930.00,0.78
6928.00,0.78
6926.00,0.78
6924.00,0.78
6922.00,0.78
6920.00,0.78
6918.00,0.78
6916.00,0.78
6914.00,0.78
6912.00,0.78
6910.00,0.78
6908.00,0.78
6906.00,0.78
6904.00,0.78
6902.00,0.78
6900.00,0.78
6898.00,0.78
6896.00,0.78
6894.00,0.78
6892.00,0.78
6890.00,0.78
6888.00,0.78
6886.00,0.78
6884.00,0.78
6882.00,0.78
6880.00,0.77
6878.00,0.77
6876.00,0.77
6874.00,0.77
6872.00,0.77
6870.00,0.77
6868.00,0.77
6866.00,0.77
6864.00,0.77
6862.00,0.77
6860.00,0.77
6858.00,0.77
6856.00,0.77
6854.00,0.77
6852.00,0.77
6850.00,0.77
6848.00,0.77
6846.00,0.78
6844.00,0.78
6842.00,0.78
6840.00,0.78
6838.00,0.78
6836.00,0.78
6834.00,0.78
6832.00,0.78
6830.00,0.78
6828.00,0.78
6826.00,0.78
6824.00,0.79
6822.00,0.79
6820.00,0.79
6818.00,0.79
6816.00,0.79
6814.00,0.79
6812.00,0.80
6810.00,0.80
6808.00,0.80
6806.00,0.80
6804.00,0.80
6802.00,0.80
6800.00,0.80
6798.00,0.81
6796.00,0.81
6794.00,0.81
6792.00,0.81
6790.00,0.81
6788.00,0.82
6786.00,0.82
6784.00,0.82
6782.00,0.82
6780.00,0.82
6778.00,0.82
6776.00,0.83
6774.00,0.83
6772.00,0.83
6770.00,0.83
6768.00,0.83
6766.00,0.83
6764.00,0.84
6762.00,0.84
6760.00,0.84
6758.00,0.84
6756.00,0.84
6754.00,0.85
6752.00,0.85
6750.00,0.85
6748.00,0.85
6746.00,0.85
6744.00,0.85
6742.00,0.86
6740.00,0.86
6738.00,0.86
6736.00,0.86
6734.00,0.86
6732.00,0.86
6730.00,0.87
6728.00,0.87
6726.00,0.87
6724.00,0.87
6722.00,0.87
6720.00,0.87
6718.00,0.88
6716.00,0.88
6714.00,0.88
6712.00,0.88
6710.00,0.88
6708.00,0.88
6706.00,0.89
6704.00,0.89
6702.00,0.89
6700.00,0.89
6698.00,0.89
6696.00,0.89
6694.00,0.89
6692.00,0.90
6690.00,0.90
6688.00,0.90
6686.00,0.90
6684.00,0.90
6682.00,0.90
6680.00,0.90
6678.00,0.91
6676.00,0.91
6674.00,0.91
6672.00,0.91
6670.00,0.91
6668.00,0.91
6666.00,0.91
6664.00,0.92
6662.00,0.92
6660.00,0.92
6658.00,0.92
6656.00,0.92
6654.00,0.92
6652.00,0.93
6650.00,0.93
6648.00,0.93
6646.00,0.93
6644.00,0.93
6642.00,0.94
6640.00,0.94
6638.00,0.94
6636.00,0.94
6634.00,0.95
6632.00,0.95
6630.00,0.95
6628.00,0.96
6626.00,0.96
6624.00,0.96
6622.00,0.97
6620.00,0.97
6618.00,0.97
6616.00,0.98
6614.00,0.98
6612.00,0.98
6610.00,0.99
6608.00,0.99
6606.00,1.00
6604.00,1.00
6602.00,1.00
6600.00,1.01
6598.00,1.01
6596.00,1.02
6594.00,1.02
6592.00,1.02
6590.00,1.03
6588.00,1.03
6586.00,1.03
6584.00,1.04
6582.00,1.04
6580.00,1.05
6578.00,1.05
6576.00,1.05
6574.00,1.05
6572.00,1.06
6570.00,1.06
6568.00,1.06
6566.00,1.07
6564.00,1.07
6562.00,1.07
6560.00,1.07
6558.00,1.08
6556.00,1.08
6554.00,1.08
6552.00,1.08
6550.00,1.09
6548.00,1.09
6546.00,1.09
6544.00,1.09
6542.00,1.09
6540.00,1.10
6538.00,1.10
6536.00,1.10
6534.00,1.10
6532.00,1.11
6530.00,1.11
6528.00,1.11
6526.00,1.11
6524.00,1.11
6522.00,1.12
6520.00,1.12
6518.00,1.12
6516.00,1.12
6514.00,1.13
6512.00,1.13
6510.00,1.13
6508.00,1.13
6506.00,1.13
6504.00,1.14
6502.00,1.14
6500.00,1.14
6498.00,1.14
6496.00,1.15
6494.00,1.15
6492.00,1.15
6490.00,1.15
6488.00,1.16
6486.00,1.16
6484.00,1.16
6482.00,1.16
6480.00,1.17
6478.00,1.17
6476.00,1.17
6474.00,1.17
6472.00,1.18
6470.00,1.18
6468.00,1.18
6466.00,1.18
6464.00,1.19
6462.00,1.19
6460.00,1.19
6458.00,1.19
6456.00,1.20
6454.00,1.20
6452.00,1.20
6450.00,1.20
6448.00,1.20
6446.00,1.21
6444.00,1.21
6442.00,1.21
6440.00,1.21
6438.00,1.21
6436.00,1.22
6434.00,1.22
6432.00,1.22
6430.00,1.22
6428.00,1.22
6426.00,1.23
6424.00,1.23
6422.00,1.23
6420.00,1.23
6418.00,1.24
6416.00,1.24
6414.00,1.24
6412.00,1.24
6410.00,1.24
6408.00,1.25
6406.00,1.25
6404.00,1.25
6402.00,1.25
6400.00,1.26
6398.00,1.26
6396.00,1.26
6394.00,1.26
6392.00,1.27
6390.00,1.27
6388.00,1.27
6386.00,1.27
6384.00,1.28
6382.00,1.28
6380.00,1.28
6378.00,1.28
6376.00,1.29
6374.00,1.29
6372.00,1.29
6370.00,1.29
6368.00,1.30
6366.00,1.30
6364.00,1.30
6362.00,1.30
6360.00,1.31
6358.00,1.31
6356.00,1.31
6354.00,1.31
6352.00,1.31
6350.00,1.32
6348.00,1.32
6346.00,1.32
6344.00,1.32
6342.00,1.33
6340.00,1.33
6338.00,1.33
6336.00,1.33
6334.00,1.33
6332.00,1.34
6330.00,1.34
6328.00,1.34
6326.00,1.34
6324.00,1.34
6322.00,1.35
6320.00,1.35
6318.00,1.35
6316.00,1.35
6314.00,1.35
6312.00,1.36
6310.00,1.36
6308.00,1.36
6306.00,1.36
6304.00,1.37
6302.00,1.37
6300.00,1.37
6298.00,1.37
6296.00,1.38
6294.00,1.38
6292.00,1.38
6290.00,1.38
6288.00,1.39
6286.00,1.39
6284.00,1.39
6282.00,1.40
6280.00,1.40
6278.00,1.40
6276.00,1.40
6274.00,1.41
6272.00,1.41
6270.00,1.41
6268.00,1.41
6266.00,1.42
6264.00,1.42
6262.00,1.42
6260.00,1.42
6258.00,1.42
6256.00,1.43
6254.00,1.43
6252.00,1.43
6250.00,1.43
6248.00,1.44
6246.00,1.44
6244.00,1.44
6242.00,1.44
6240.00,1.44
6238.00,1.45
6236.00,1.45
6234.00,1.45
6232.00,1.45
6230.00,1.45
6228.00,1.46
6226.00,1.46
6224.00,1.46
6222.00,1.46
6220.00,1.46
6218.00,1.47
6216.00,1.47
6214.00,1.47
6212.00,1.47
6210.00,1.48
6208.00,1.48
6206.00,1.48
6204.00,1.48
6202.00,1.49
6200.00,1.49
6198.00,1.49
6196.00,1.49
6194.00,1.50
6192.00,1.50
6190.00,1.50
6188.00,1.50
6186.00,1.50
6184.00,1.51
6182.00,1.51
6180.00,1.51
6178.00,1.51
6176.00,1.51
6174.00,1.52
6172.00,1.52
6170.00,1.52
6168.00,1.52
6166.00,1.52
6164.00,1.52
6162.00,1.52
6160.00,1.52
6158.00,1.53
6156.00,1.53
6154.00,1.53
6152.00,1.53
6150.00,1.53
6148.00,1.53
6146.00,1.53
6144.00,1.53
6142.00,1.54
6140.00,1.54
6138.00,1.54
6136.00,1.54
6134.00,1.54
6132.00,1.54
6130.00,1.54
6128.00,1.55
6126.00,1.55
6124.00,1.55
6122.00,1.55
6120.00,1.56
6118.00,1.56
6116.00,1.56
6114.00,1.56
6112.00,1.56
6110.00,1.57
6108.00,1.57
6106.00,1.57
6104.00,1.57
6102.00,1.58
6100.00,1.58
6098.00,1.58
6096.00,1.58
6094.00,1.59
6092.00,1.59
6090.00,1.59
6088.00,1.59
6086.00,1.60
6084.00,1.60
6082.00,1.60
6080.00,1.60
6078.00,1.60
6076.00,1.61
6074.00,1.61
6072.00,1.61
6070.00,1.61
6068.00,1.61
6066.00,1.62
6064.00,1.62
6062.00,1.62
6060.00,1.62
6058.00,1.62
6056.00,1.62
6054.00,1.62
6052.00,1.63
6050.00,1.63
6048.00,1.63
6046.00,1.63
6044.00,1.63
6042.00,1.63
6040.00,1.63
6038.00,1.63
6036.00,1.63
6034.00,1.63
6032.00,1.63
6030.00,1.63
6028.00,1.63
6026.00,1.63
6024.00,1.63
6022.00,1.63
6020.00,1.63
6018.00,1.63
6016.00,1.63
6014.00,1.63
6012.00,1.63
6010.00,1.63
6008.00,1.63
6006.00,1.63
6004.00,1.63
6002.00,1.63
6000.00,1.63
5998.00,1.63
5996.00,1.62
5994.00,1.62
5992.00,1.62
5990.00,1.62
5988.00,1.62
5986.00,1.62
5984.00,1.61
5982.00,1.61
5980.00,1.61
5978.00,1.61
5976.00,1.60
5974.00,1.60
5972.00,1.60
5970.00,1.60
5968.00,1.59
5966.00,1.59
5964.00,1.59
5962.00,1.59
5960.00,1.58
5958.00,1.58
5956.00,1.58
5954.00,1.58
5952.00,1.57
5950.00,1.57
5948.00,1.57
5946.00,1.57
5944.00,1.56
5942.00,1.56
5940.00,1.56
5938.00,1.56
5936.00,1.56
5934.00,1.56
5932.00,1.55
5930.00,1.55
5928.00,1.55
5926.00,1.55
5924.00,1.55
5922.00,1.55
5920.00,1.55
5918.00,1.55
5916.00,1.55
5914.00,1.55
5912.00,1.55
5910.00,1.55
5908.00,1.55
5906.00,1.55
5904.00,1.55
5902.00,1.55
5900.00,1.55
5898.00,1.55
5896.00,1.56
5894.00,1.56
5892.00,1.56
5890.00,1.56
5888.00,1.56
5886.00,1.57
5884.00,1.57
5882.00,1.57
5880.00,1.57
5878.00,1.57
5876.00,1.57
5874.00,1.58
5872.00,1.58
5870.00,1.58
5868.00,1.58
5866.00,1.58
5864.00,1.59
5862.00,1.59
5860.00,1.59
5858.00,1.59
5856.00,1.59
5854.00,1.59
5852.00,1.59
5850.00,1.59
5848.00,1.59
5846.00,1.60
5844.00,1.60
5842.00,1.60
5840.00,1.60
5838.00,1.60
5836.00,1.60
5834.00,1.60
5832.00,1.60
5830.00,1.60
5828.00,1.60
5826.00,1.59
5824.00,1.59
5822.00,1.59
5820.00,1.59
5818.00,1.59
5816.00,1.59
5814.00,1.59
5812.00,1.59
5810.00,1.59
5808.00,1.59
5806.00,1.59
5804.00,1.59
5802.00,1.59
5800.00,1.58
5798.00,1.58
5796.00,1.58
5794.00,1.58
5792.00,1.58
5790.00,1.58
5788.00,1.58
5786.00,1.58
5784.00,1.58
5782.00,1.58
5780.00,1.58
5778.00,1.58
5776.00,1.58
5774.00,1.58
5772.00,1.58
5770.00,1.58
5768.00,1.58
5766.00,1.58
5764.00,1.58
5762.00,1.57
5760.00,1.57
5758.00,1.57
5756.00,1.58
5754.00,1.58
5752.00,1.58
5750.00,1.58
5748.00,1.58
5746.00,1.58
5744.00,1.58
5742.00,1.58
5740.00,1.58
5738.00,1.58
5736.00,1.58
5734.00,1.57
5732.00,1.57
5730.00,1.57
5728.00,1.57
5726.00,1.57
5724.00,1.57
5722.00,1.57
5720.00,1.57
5718.00,1.57
5716.00,1.57
5714.00,1.57
5712.00,1.56
5710.00,1.56
5708.00,1.56
5706.00,1.56
5704.00,1.56
5702.00,1.56
5700.00,1.55
5698.00,1.55
5696.00,1.55
5694.00,1.55
5692.00,1.55
5690.00,1.55
5688.00,1.54
5686.00,1.54
5684.00,1.54
5682.00,1.54
5680.00,1.54
5678.00,1.54
5676.00,1.54
5674.00,1.54
5672.00,1.53
5670.00,1.53
5668.00,1.53
5666.00,1.53
5664.00,1.53
5662.00,1.53
5660.00,1.53
5658.00,1.53
5656.00,1.53
5654.00,1.53
5652.00,1.53
5650.00,1.53
5648.00,1.53
5646.00,1.53
5644.00,1.53
5642.00,1.53
5640.00,1.53
5638.00,1.53
5636.00,1.53
5634.00,1.54
5632.00,1.54
5630.00,1.54
5628.00,1.54
5626.00,1.54
5624.00,1.54
5622.00,1.54
5620.00,1.54
5618.00,1.54
5616.00,1.54
5614.00,1.54
5612.00,1.54
5610.00,1.54
5608.00,1.54
5606.00,1.54
5604.00,1.54
5602.00,1.55
5600.00,1.55
5598.00,1.55
5596.00,1.55
5594.00,1.55
5592.00,1.55
5590.00,1.55
5588.00,1.55
5586.00,1.56
5584.00,1.56
5582.00,1.56
5580.00,1.56
5578.00,1.56
5576.00,1.56
5574.00,1.57
5572.00,1.57
5570.00,1.57
5568.00,1.57
5566.00,1.57
5564.00,1.58
5562.00,1.58
5560.00,1.58
5558.00,1.58
5556.00,1.58
5554.00,1.59
5552.00,1.59
5550.00,1.59
5548.00,1.59
5546.00,1.59
5544.00,1.59
5542.00,1.60
5540.00,1.60
5538.00,1.60
5536.00,1.60
5534.00,1.60
5532.00,1.60
5530.00,1.60
5528.00,1.61
5526.00,1.61
5524.00,1.61
5522.00,1.61
5520.00,1.61
5518.00,1.61
5516.00,1.61
5514.00,1.61
5512.00,1.61
5510.00,1.62
5508.00,1.62
5506.00,1.62
5504.00,1.62
5502.00,1.62
5500.00,1.62
5498.00,1.62
5496.00,1.62
5494.00,1.62
5492.00,1.63
5490.00,1.63
5488.00,1.63
5486.00,1.63
5484.00,1.63
5482.00,1.63
5480.00,1.63
5478.00,1.63
5476.00,1.63
5474.00,1.63
5472.00,1.63
5470.00,1.64
5468.00,1.64
5466.00,1.64
5464.00,1.64
5462.00,1.64
5460.00,1.64
5458.00,1.64
5456.00,1.64
5454.00,1.64
5452.00,1.64
5450.00,1.64
5448.00,1.64
5446.00,1.64
5444.00,1.64
5442.00,1.64
5440.00,1.64
5438.00,1.64
5436.00,1.64
5434.00,1.63
5432.00,1.63
5430.00,1.63
5428.00,1.63
5426.00,1.63
5424.00,1.63
5422.00,1.63
5420.00,1.62
5418.00,1.62
5416.00,1.62
5414.00,1.61
5412.00,1.61
5410.00,1.61
5408.00,1.60
5406.00,1.60
5404.00,1.59
5402.00,1.59
5400.00,1.58
5398.00,1.58
5396.00,1.57
5394.00,1.57
5392.00,1.56
5390.00,1.55
5388.00,1.54
5386.00,1.54
5384.00,1.53
5382.00,1.52
5380.00,1.51
5378.00,1.50
5376.00,1.49
5374.00,1.48
5372.00,1.47
5370.00,1.46
5368.00,1.45
5366.00,1.43
5364.00,1.42
5362.00,1.41
5360.00,1.39
5358.00,1.38
5356.00,1.36
5354.00,1.35
5352.00,1.33
5350.00,1.32
5348.00,1.30
5346.00,1.29
5344.00,1.27
5342.00,1.25
5340.00,1.24
5338.00,1.22
5336.00,1.20
5334.00,1.19
5332.00,1.17
5330.00,1.15
5328.00,1.14
5326.00,1.12
5324.00,1.10
5322.00,1.09
5320.00,1.07
5318.00,1.05
5316.00,1.04
5314.00,1.02
5312.00,1.01
5310.00,0.99
5308.00,0.98
5306.00,0.97
5304.00,0.95
5302.00,0.94
5300.00,0.93
5298.00,0.92
5296.00,0.91
5294.00,0.90
5292.00,0.89
5290.00,0.88
5288.00,0.87
5286.00,0.86
5284.00,0.86
5282.00,0.85
5280.00,0.84
5278.00,0.84
5276.00,0.83
5274.00,0.83
5272.00,0.82
5270.00,0.82
5268.00,0.82
5266.00,0.81
5264.00,0.81
5262.00,0.81
5260.00,0.81
5258.00,0.80
5256.00,0.80
5254.00,0.80
5252.00,0.80
5250.00,0.80
5248.00,0.80
5246.00,0.80
5244.00,0.80
5242.00,0.80
5240.00,0.80
5238.00,0.80
5236.00,0.80
5234.00,0.80
5232.00,0.80
5230.00,0.80
5228.00,0.80
5226.00,0.80
5224.00,0.80
5222.00,0.80
5220.00,0.80
5218.00,0.80
5216.00,0.80
5214.00,0.80
5212.00,0.80
5210.00,0.80
5208.00,0.80
5206.00,0.80
5204.00,0.80
5202.00,0.81
5200.00,0.81
5198.00,0.81
5196.00,0.81
5194.00,0.81
5192.00,0.81
5190.00,0.81
5188.00,0.81
5186.00,0.81
5184.00,0.81
5182.00,0.81
5180.00,0.82
5178.00,0.82
5176.00,0.82
5174.00,0.82
5172.00,0.82
5170.00,0.82
5168.00,0.82
5166.00,0.82
5164.00,0.82
5162.00,0.82
5160.00,0.82
5158.00,0.82
5156.00,0.82
5154.00,0.82
5152.00,0.83
5150.00,0.83
5148.00,0.83
5146.00,0.83
5144.00,0.83
5142.00,0.83
5140.00,0.83
5138.00,0.83
5136.00,0.83
5134.00,0.83
5132.00,0.83
5130.00,0.83
5128.00,0.83
5126.00,0.84
5124.00,0.84
5122.00,0.84
5120.00,0.84
5118.00,0.84
5116.00,0.84
5114.00,0.84
5112.00,0.84
5110.00,0.84
5108.00,0.84
5106.00,0.85
5104.00,0.85
5102.00,0.85
5100.00,0.85
5098.00,0.85
5096.00,0.85
5094.00,0.85
5092.00,0.85
5090.00,0.86
5088.00,0.86
5086.00,0.86
5084.00,0.86
5082.00,0.86
5080.00,0.86
5078.00,0.86
5076.00,0.86
5074.00,0.87
5072.00,0.87
5070.00,0.87
5068.00,0.87
5066.00,0.87
5064.00,0.87
5062.00,0.87
5060.00,0.87
5058.00,0.88
5056.00,0.88
5054.00,0.88
5052.00,0.88
5050.00,0.88
5048.00,0.88
5046.00,0.88
5044.00,0.89
5042.00,0.89
5040.00,0.89
5038.00,0.89
5036.00,0.89
5034.00,0.89
5032.00,0.90
5030.00,0.90
5028.00,0.90
5026.00,0.90
5024.00,0.90
5022.00,0.90
5020.00,0.91
5018.00,0.91
5016.00,0.91
5014.00,0.91
5012.00,0.91
5010.00,0.92
5008.00,0.92
5006.00,0.92
5004.00,0.92
5002.00,0.92
5000.00,0.93
4998.00,0.93
4996.00,0.93
4994.00,0.93
4992.00,0.93
4990.00,0.94
4988.00,0.94
4986.00,0.94
4984.00,0.94
4982.00,0.94
4980.00,0.95
4978.00,0.95
4976.00,0.95
4974.00,0.95
4972.00,0.95
4970.00,0.96
4968.00,0.96
4966.00,0.96
4964.00,0.96
4962.00,0.96
4960.00,0.96
4958.00,0.97
4956.00,0.97
4954.00,0.97
4952.00,0.97
4950.00,0.97
4948.00,0.98
4946.00,0.98
4944.00,0.98
4942.00,0.98
4940.00,0.98
4938.00,0.99
4936.00,0.99
4934.00,0.99
4932.00,0.99
4930.00,1.00
4928.00,1.00
4926.00,1.00
4924.00,1.00
4922.00,1.00
4920.00,1.01
4918.00,1.01
4916.00,1.01
4914.00,1.01
4912.00,1.02
4910.00,1.02
4908.00,1.02
4906.00,1.02
4904.00,1.03
4902.00,1.03
4900.00,1.03
4898.00,1.03
4896.00,1.04
4894.00,1.04
4892.00,1.04
4890.00,1.05
4888.00,1.05
4886.00,1.05
4884.00,1.05
4882.00,1.06
4880.00,1.06
4878.00,1.06
4876.00,1.06
4874.00,1.07
4872.00,1.07
4870.00,1.07
4868.00,1.07
4866.00,1.08
4864.00,1.08
4862.00,1.08
4860.00,1.09
4858.00,1.09
4856.00,1.09
4854.00,1.10
4852.00,1.10
4850.00,1.10
4848.00,1.10
4846.00,1.11
4844.00,1.11
4842.00,1.11
4840.00,1.12
4838.00,1.12
4836.00,1.12
4834.00,1.13
4832.00,1.13
4830.00,1.13
4828.00,1.13
4826.00,1.14
4824.00,1.14
4822.00,1.14
4820.00,1.15
4818.00,1.15
4816.00,1.15
4814.00,1.16
4812.00,1.16
4810.00,1.16
4808.00,1.17
4806.00,1.17
4804.00,1.17
4802.00,1.18
4800.00,1.18
4798.00,1.19
4796.00,1.19
4794.00,1.19
4792.00,1.20
4790.00,1.20
4788.00,1.20
4786.00,1.21
4784.00,1.21
4782.00,1.22
4780.00,1.22
4778.00,1.22
4776.00,1.23
4774.00,1.23
4772.00,1.24
4770.00,1.24
4768.00,1.24
4766.00,1.25
4764.00,1.25
4762.00,1.26
4760.00,1.26
4758.00,1.26
4756.00,1.27
4754.00,1.27
4752.00,1.28
4750.00,1.28
4748.00,1.28
4746.00,1.29
4744.00,1.29
4742.00,1.30
4740.00,1.30
4738.00,1.31
4736.00,1.31
4734.00,1.32
4732.00,1.32
4730.00,1.32
4728.00,1.33
4726.00,1.33
4724.00,1.34
4722.00,1.34
4720.00,1.35
4718.00,1.35
4716.00,1.36
4714.00,1.36
4712.00,1.37
4710.00,1.37
4708.00,1.38
4706.00,1.38
4704.00,1.39
4702.00,1.39
4700.00,1.40
4698.00,1.40
4696.00,1.40
4694.00,1.41
4692.00,1.41
4690.00,1.42
4688.00,1.42
4686.00,1.43
4684.00,1.43
4682.00,1.43
4680.00,1.44
4678.00,1.44
4676.00,1.45
4674.00,1.45
4672.00,1.45
4670.00,1.46
4668.00,1.46
4666.00,1.46
4664.00,1.47
4662.00,1.47
4660.00,1.47
4658.00,1.48
4656.00,1.48
4654.00,1.48
4652.00,1.49
4650.00,1.49
4648.00,1.49
4646.00,1.49
4644.00,1.50
4642.00,1.50
4640.00,1.50
4638.00,1.50
4636.00,1.50
4634.00,1.51
4632.00,1.51
4630.00,1.51
4628.00,1.51
4626.00,1.52
4624.00,1.52
4622.00,1.52
4620.00,1.52
4618.00,1.53
4616.00,1.53
4614.00,1.53
4612.00,1.53
4610.00,1.54
4608.00,1.54
4606.00,1.54
4604.00,1.54
4602.00,1.55
4600.00,1.55
4598.00,1.55
4596.00,1.55
4594.00,1.56
4592.00,1.56
4590.00,1.56
4588.00,1.56
4586.00,1.57
4584.00,1.57
4582.00,1.57
4580.00,1.58
4578.00,1.58
4576.00,1.58
4574.00,1.58
4572.00,1.59
4570.00,1.59
4568.00,1.59
4566.00,1.59
4564.00,1.60
4562.00,1.60
4560.00,1.60
4558.00,1.60
4556.00,1.60
4554.00,1.61
4552.00,1.61
4550.00,1.61
4548.00,1.61
4546.00,1.61
4544.00,1.61
4542.00,1.62
4540.00,1.62
4538.00,1.62
4536.00,1.62
4534.00,1.62
4532.00,1.62
4530.00,1.62
4528.00,1.62
4526.00,1.63
4524.00,1.63
4522.00,1.63
4520.00,1.63
4518.00,1.63
4516.00,1.63
4514.00,1.63
4512.00,1.63
4510.00,1.63
4508.00,1.63
4506.00,1.63
4504.00,1.63
4502.00,1.63
4500.00,1.63
4498.00,1.63
4496.00,1.63
4494.00,1.63
4492.00,1.63
4490.00,1.63
4488.00,1.62
4486.00,1.62
4484.00,1.62
4482.00,1.62
4480.00,1.61
4478.00,1.61
4476.00,1.61
4474.00,1.60
4472.00,1.60
4470.00,1.60
4468.00,1.59
4466.00,1.59
4464.00,1.58
4462.00,1.58
4460.00,1.57
4458.00,1.56
4456.00,1.56
4454.00,1.55
4452.00,1.54
4450.00,1.54
4448.00,1.53
4446.00,1.52
4444.00,1.52
4442.00,1.51
4440.00,1.50
4438.00,1.50
4436.00,1.49
4434.00,1.49
4432.00,1.48
4430.00,1.48
4428.00,1.47
4426.00,1.47
4424.00,1.46
4422.00,1.46
4420.00,1.45
4418.00,1.45
4416.00,1.45
4414.00,1.45
4412.00,1.44
4410.00,1.44
4408.00,1.44
4406.00,1.44
4404.00,1.44
4402.00,1.44
4400.00,1.44
4398.00,1.44
4396.00,1.44
4394.00,1.44
4392.00,1.44
4390.00,1.44
4388.00,1.44
4386.00,1.45
4384.00,1.45
4382.00,1.45
4380.00,1.45
4378.00,1.45
4376.00,1.45
4374.00,1.45
4372.00,1.45
4370.00,1.45
4368.00,1.45
4366.00,1.45
4364.00,1.45
4362.00,1.45
4360.00,1.45
4358.00,1.45
4356.00,1.45
4354.00,1.45
4352.00,1.45
4350.00,1.45
4348.00,1.45
4346.00,1.45
4344.00,1.46
4342.00,1.46
4340.00,1.46
4338.00,1.46
4336.00,1.46
4334.00,1.46
4332.00,1.46
4330.00,1.46
4328.00,1.47
4326.00,1.47
4324.00,1.47
4322.00,1.47
4320.00,1.48
4318.00,1.48
4316.00,1.48
4314.00,1.48
4312.00,1.49
4310.00,1.49
4308.00,1.49
4306.00,1.49
4304.00,1.50
4302.00,1.50
4300.00,1.50
4298.00,1.50
4296.00,1.50
4294.00,1.51
4292.00,1.51
4290.00,1.51
4288.00,1.51
4286.00,1.51
4284.00,1.51
4282.00,1.51
4280.00,1.51
4278.00,1.51
4276.00,1.51
4274.00,1.51
4272.00,1.51
4270.00,1.51
4268.00,1.51
4266.00,1.51
4264.00,1.51
4262.00,1.51
4260.00,1.51
4258.00,1.51
4256.00,1.51
4254.00,1.51
4252.00,1.51
4250.00,1.51
4248.00,1.51
4246.00,1.51
4244.00,1.51
4242.00,1.51
4240.00,1.51
4238.00,1.51
4236.00,1.51
4234.00,1.51
4232.00,1.51
4230.00,1.51
4228.00,1.51
4226.00,1.51
4224.00,1.51
4222.00,1.51
4220.00,1.51
4218.00,1.51
4216.00,1.51
4214.00,1.51
4212.00,1.51
4210.00,1.51
4208.00,1.51
4206.00,1.51
4204.00,1.50
4202.00,1.50
4200.00,1.50
4198.00,1.50
4196.00,1.50
4194.00,1.50
4192.00,1.50
4190.00,1.50
4188.00,1.50
4186.00,1.50
4184.00,1.50
4182.00,1.50
4180.00,1.50
4178.00,1.50
4176.00,1.50
4174.00,1.50
4172.00,1.50
4170.00,1.50
4168.00,1.50
4166.00,1.50
4164.00,1.50
4162.00,1.50
4160.00,1.50
4158.00,1.50
4156.00,1.50
4154.00,1.51
4152.00,1.51
4150.00,1.51
4148.00,1.51
4146.00,1.51
4144.00,1.51
4142.00,1.51
4140.00,1.51
4138.00,1.52
4136.00,1.52
4134.00,1.52
4132.00,1.52
4130.00,1.52
4128.00,1.52
4126.00,1.52
4124.00,1.52
4122.00,1.52
4120.00,1.52
4118.00,1.52
4116.00,1.52
4114.00,1.52
4112.00,1.52
4110.00,1.52
4108.00,1.52
4106.00,1.52
4104.00,1.53
4102.00,1.53
4100.00,1.53
4098.00,1.53
4096.00,1.53
4094.00,1.53
4092.00,1.53
4090.00,1.53
4088.00,1.53
4086.00,1.53
4084.00,1.53
4082.00,1.53
4080.00,1.53
4078.00,1.53
4076.00,1.53
4074.00,1.53
4072.00,1.53
4070.00,1.54
4068.00,1.54
4066.00,1.54
4064.00,1.54
4062.00,1.54
4060.00,1.54
4058.00,1.54
4056.00,1.55
4054.00,1.55
4052.00,1.55
4050.00,1.55
4048.00,1.56
4046.00,1.56
4044.00,1.56
4042.00,1.56
4040.00,1.57
4038.00,1.57
4036.00,1.57
4034.00,1.58
4032.00,1.58
4030.00,1.58
4028.00,1.59
4026.00,1.59
4024.00,1.59
4022.00,1.60
4020.00,1.60
4018.00,1.60
4016.00,1.61
4014.00,1.61
4012.00,1.62
4010.00,1.62
4008.00,1.63
4006.00,1.63
4004.00,1.63
4002.00,1.64
4000.00,1.64
