创建为新数据集,样品 1176 用户 Administrator 日期 星期二, 七月 30 2019
cm-1,%T
10000.00,6.13
9999.00,5.89
9998.00,5.65
9997.00,5.41
9996.00,5.18
9995.00,4.95
9994.00,4.73
9993.00,4.52
9992.00,4.31
9991.00,4.12
9990.00,3.93
9989.00,3.75
9988.00,3.58
9987.00,3.42
9986.00,3.28
9985.00,3.14
9984.00,3.02
9983.00,2.91
9982.00,2.81
9981.00,2.72
9980.00,2.64
9979.00,2.58
9978.00,2.52
9977.00,2.47
9976.00,2.43
9975.00,2.40
9974.00,2.37
9973.00,2.35
9972.00,2.33
9971.00,2.31
9970.00,2.30
9969.00,2.29
9968.00,2.28
9967.00,2.28
9966.00,2.27
9965.00,2.27
9964.00,2.26
9963.00,2.26
9962.00,2.26
9961.00,2.26
9960.00,2.27
9959.00,2.27
9958.00,2.27
9957.00,2.27
9956.00,2.27
9955.00,2.27
9954.00,2.27
9953.00,2.26
9952.00,2.26
9951.00,2.26
9950.00,2.25
9949.00,2.25
9948.00,2.24
9947.00,2.24
9946.00,2.24
9945.00,2.24
9944.00,2.24
9943.00,2.24
9942.00,2.24
9941.00,2.24
9940.00,2.24
9939.00,2.24
9938.00,2.24
9937.00,2.24
9936.00,2.23
9935.00,2.22
9934.00,2.21
9933.00,2.19
9932.00,2.17
9931.00,2.16
9930.00,2.14
9929.00,2.12
9928.00,2.10
9927.00,2.08
9926.00,2.06
9925.00,2.04
9924.00,2.03
9923.00,2.01
9922.00,2.00
9921.00,1.99
9920.00,1.97
9919.00,1.96
9918.00,1.96
9917.00,1.95
9916.00,1.95
9915.00,1.94
9914.00,1.95
9913.00,1.95
9912.00,1.96
9911.00,1.97
9910.00,1.99
9909.00,2.00
9908.00,2.02
9907.00,2.05
9906.00,2.07
9905.00,2.09
9904.00,2.12
9903.00,2.14
9902.00,2.17
9901.00,2.19
9900.00,2.21
9899.00,2.23
9898.00,2.25
9897.00,2.26
9896.00,2.28
9895.00,2.29
9894.00,2.30
9893.00,2.31
9892.00,2.32
9891.00,2.33
9890.00,2.33
9889.00,2.33
9888.00,2.33
9887.00,2.33
9886.00,2.33
9885.00,2.32
9884.00,2.31
9883.00,2.31
9882.00,2.30
9881.00,2.30
9880.00,2.29
9879.00,2.29
9878.00,2.29
9877.00,2.29
9876.00,2.30
9875.00,2.30
9874.00,2.30
9873.00,2.31
9872.00,2.31
9871.00,2.31
9870.00,2.32
9869.00,2.32
9868.00,2.32
9867.00,2.32
9866.00,2.31
9865.00,2.31
9864.00,2.30
9863.00,2.30
9862.00,2.29
9861.00,2.28
9860.00,2.27
9859.00,2.26
9858.00,2.25
9857.00,2.23
9856.00,2.21
9855.00,2.19
9854.00,2.17
9853.00,2.14
9852.00,2.11
9851.00,2.07
9850.00,2.04
9849.00,2.00
9848.00,1.97
9847.00,1.93
9846.00,1.90
9845.00,1.87
9844.00,1.84
9843.00,1.81
9842.00,1.79
9841.00,1.76
9840.00,1.75
9839.00,1.73
9838.00,1.72
9837.00,1.71
9836.00,1.70
9835.00,1.70
9834.00,1.69
9833.00,1.70
9832.00,1.70
9831.00,1.71
9830.00,1.71
9829.00,1.72
9828.00,1.74
9827.00,1.75
9826.00,1.77
9825.00,1.79
9824.00,1.81
9823.00,1.83
9822.00,1.85
9821.00,1.87
9820.00,1.89
9819.00,1.90
9818.00,1.92
9817.00,1.94
9816.00,1.96
9815.00,1.97
9814.00,1.98
9813.00,2.00
9812.00,2.01
9811.00,2.01
9810.00,2.02
9809.00,2.02
9808.00,2.02
9807.00,2.02
9806.00,2.01
9805.00,2.01
9804.00,2.00
9803.00,1.99
9802.00,1.98
9801.00,1.97
9800.00,1.96
9799.00,1.95
9798.00,1.94
9797.00,1.93
9796.00,1.91
9795.00,1.90
9794.00,1.88
9793.00,1.87
9792.00,1.85
9791.00,1.83
9790.00,1.81
9789.00,1.79
9788.00,1.77
9787.00,1.75
9786.00,1.73
9785.00,1.71
9784.00,1.68
9783.00,1.66
9782.00,1.64
9781.00,1.62
9780.00,1.61
9779.00,1.59
9778.00,1.58
9777.00,1.57
9776.00,1.56
9775.00,1.55
9774.00,1.54
9773.00,1.54
9772.00,1.53
9771.00,1.53
9770.00,1.52
9769.00,1.52
9768.00,1.52
9767.00,1.51
9766.00,1.51
9765.00,1.51
9764.00,1.52
9763.00,1.52
9762.00,1.53
9761.00,1.53
9760.00,1.54
9759.00,1.55
9758.00,1.56
9757.00,1.57
9756.00,1.58
9755.00,1.59
9754.00,1.60
9753.00,1.61
9752.00,1.62
9751.00,1.62
9750.00,1.63
9749.00,1.63
9748.00,1.63
9747.00,1.63
9746.00,1.63
9745.00,1.63
9744.00,1.64
9743.00,1.64
9742.00,1.65
9741.00,1.66
9740.00,1.67
9739.00,1.68
9738.00,1.69
9737.00,1.70
9736.00,1.72
9735.00,1.73
9734.00,1.74
9733.00,1.75
9732.00,1.77
9731.00,1.78
9730.00,1.79
9729.00,1.81
9728.00,1.83
9727.00,1.84
9726.00,1.86
9725.00,1.88
9724.00,1.90
9723.00,1.92
9722.00,1.95
9721.00,1.97
9720.00,1.99
9719.00,2.01
9718.00,2.03
9717.00,2.05
9716.00,2.07
9715.00,2.09
9714.00,2.10
9713.00,2.12
9712.00,2.13
9711.00,2.14
9710.00,2.15
9709.00,2.16
9708.00,2.17
9707.00,2.18
9706.00,2.19
9705.00,2.20
9704.00,2.22
9703.00,2.23
9702.00,2.25
9701.00,2.26
9700.00,2.28
9699.00,2.30
9698.00,2.32
9697.00,2.33
9696.00,2.35
9695.00,2.37
9694.00,2.38
9693.00,2.40
9692.00,2.41
9691.00,2.42
9690.00,2.44
9689.00,2.45
9688.00,2.46
9687.00,2.48
9686.00,2.50
9685.00,2.51
9684.00,2.53
9683.00,2.55
9682.00,2.57
9681.00,2.58
9680.00,2.60
9679.00,2.61
9678.00,2.62
9677.00,2.63
9676.00,2.63
9675.00,2.62
9674.00,2.61
9673.00,2.60
9672.00,2.58
9671.00,2.56
9670.00,2.53
9669.00,2.51
9668.00,2.48
9667.00,2.45
9666.00,2.43
9665.00,2.40
9664.00,2.37
9663.00,2.34
9662.00,2.31
9661.00,2.28
9660.00,2.25
9659.00,2.21
9658.00,2.18
9657.00,2.14
9656.00,2.10
9655.00,2.07
9654.00,2.03
9653.00,2.00
9652.00,1.97
9651.00,1.94
9650.00,1.92
9649.00,1.90
9648.00,1.88
9647.00,1.87
9646.00,1.86
9645.00,1.86
9644.00,1.86
9643.00,1.86
9642.00,1.86
9641.00,1.87
9640.00,1.88
9639.00,1.89
9638.00,1.90
9637.00,1.91
9636.00,1.92
9635.00,1.93
9634.00,1.94
9633.00,1.96
9632.00,1.97
9631.00,1.98
9630.00,1.99
9629.00,1.99
9628.00,2.00
9627.00,2.01
9626.00,2.01
9625.00,2.02
9624.00,2.02
9623.00,2.02
9622.00,2.03
9621.00,2.03
9620.00,2.03
9619.00,2.02
9618.00,2.02
9617.00,2.01
9616.00,2.01
9615.00,1.99
9614.00,1.98
9613.00,1.97
9612.00,1.95
9611.00,1.93
9610.00,1.91
9609.00,1.90
9608.00,1.88
9607.00,1.86
9606.00,1.84
9605.00,1.82
9604.00,1.80
9603.00,1.78
9602.00,1.76
9601.00,1.75
9600.00,1.74
9599.00,1.72
9598.00,1.71
9597.00,1.69
9596.00,1.68
9595.00,1.67
9594.00,1.66
9593.00,1.65
9592.00,1.64
9591.00,1.63
9590.00,1.62
9589.00,1.61
9588.00,1.61
9587.00,1.61
9586.00,1.61
9585.00,1.61
9584.00,1.61
9583.00,1.61
9582.00,1.62
9581.00,1.62
9580.00,1.63
9579.00,1.64
9578.00,1.65
9577.00,1.65
9576.00,1.66
9575.00,1.67
9574.00,1.67
9573.00,1.68
9572.00,1.68
9571.00,1.69
9570.00,1.70
9569.00,1.70
9568.00,1.71
9567.00,1.72
9566.00,1.73
9565.00,1.74
9564.00,1.75
9563.00,1.77
9562.00,1.78
9561.00,1.79
9560.00,1.80
9559.00,1.81
9558.00,1.82
9557.00,1.83
9556.00,1.83
9555.00,1.84
9554.00,1.84
9553.00,1.85
9552.00,1.85
9551.00,1.85
9550.00,1.86
9549.00,1.86
9548.00,1.86
9547.00,1.86
9546.00,1.85
9545.00,1.85
9544.00,1.84
9543.00,1.83
9542.00,1.82
9541.00,1.81
9540.00,1.80
9539.00,1.79
9538.00,1.78
9537.00,1.77
9536.00,1.76
9535.00,1.75
9534.00,1.74
9533.00,1.74
9532.00,1.74
9531.00,1.74
9530.00,1.74
9529.00,1.74
9528.00,1.75
9527.00,1.76
9526.00,1.77
9525.00,1.78
9524.00,1.79
9523.00,1.80
9522.00,1.82
9521.00,1.83
9520.00,1.85
9519.00,1.87
9518.00,1.89
9517.00,1.91
9516.00,1.93
9515.00,1.94
9514.00,1.96
9513.00,1.98
9512.00,1.99
9511.00,2.00
9510.00,2.01
9509.00,2.01
9508.00,2.01
9507.00,2.01
9506.00,2.00
9505.00,1.99
9504.00,1.98
9503.00,1.96
9502.00,1.94
9501.00,1.92
9500.00,1.90
9499.00,1.88
9498.00,1.85
9497.00,1.83
9496.00,1.81
9495.00,1.79
9494.00,1.77
9493.00,1.75
9492.00,1.73
9491.00,1.72
9490.00,1.70
9489.00,1.69
9488.00,1.68
9487.00,1.67
9486.00,1.66
9485.00,1.66
9484.00,1.66
9483.00,1.66
9482.00,1.66
9481.00,1.67
9480.00,1.68
9479.00,1.69
9478.00,1.70
9477.00,1.72
9476.00,1.73
9475.00,1.75
9474.00,1.77
9473.00,1.79
9472.00,1.81
9471.00,1.82
9470.00,1.84
9469.00,1.85
9468.00,1.87
9467.00,1.88
9466.00,1.89
9465.00,1.90
9464.00,1.91
9463.00,1.91
9462.00,1.92
9461.00,1.92
9460.00,1.92
9459.00,1.92
9458.00,1.92
9457.00,1.92
9456.00,1.91
9455.00,1.91
9454.00,1.90
9453.00,1.89
9452.00,1.88
9451.00,1.86
9450.00,1.85
9449.00,1.83
9448.00,1.82
9447.00,1.80
9446.00,1.78
9445.00,1.77
9444.00,1.76
9443.00,1.75
9442.00,1.74
9441.00,1.73
9440.00,1.72
9439.00,1.72
9438.00,1.72
9437.00,1.71
9436.00,1.72
9435.00,1.72
9434.00,1.72
9433.00,1.73
9432.00,1.73
9431.00,1.74
9430.00,1.75
9429.00,1.75
9428.00,1.76
9427.00,1.78
9426.00,1.79
9425.00,1.80
9424.00,1.82
9423.00,1.84
9422.00,1.86
9421.00,1.88
9420.00,1.90
9419.00,1.91
9418.00,1.93
9417.00,1.95
9416.00,1.96
9415.00,1.97
9414.00,1.98
9413.00,1.98
9412.00,1.99
9411.00,1.99
9410.00,2.00
9409.00,2.00
9408.00,2.00
9407.00,2.00
9406.00,2.01
9405.00,2.01
9404.00,2.01
9403.00,2.02
9402.00,2.03
9401.00,2.03
9400.00,2.04
9399.00,2.05
9398.00,2.06
9397.00,2.07
9396.00,2.08
9395.00,2.09
9394.00,2.10
9393.00,2.11
9392.00,2.12
9391.00,2.14
9390.00,2.15
9389.00,2.16
9388.00,2.17
9387.00,2.19
9386.00,2.20
9385.00,2.21
9384.00,2.22
9383.00,2.23
9382.00,2.24
9381.00,2.24
9380.00,2.25
9379.00,2.25
9378.00,2.25
9377.00,2.25
9376.00,2.24
9375.00,2.23
9374.00,2.22
9373.00,2.21
9372.00,2.20
9371.00,2.18
9370.00,2.16
9369.00,2.14
9368.00,2.12
9367.00,2.10
9366.00,2.08
9365.00,2.06
9364.00,2.04
9363.00,2.03
9362.00,2.01
9361.00,2.00
9360.00,1.98
9359.00,1.97
9358.00,1.96
9357.00,1.95
9356.00,1.95
9355.00,1.94
9354.00,1.94
9353.00,1.93
9352.00,1.93
9351.00,1.93
9350.00,1.93
9349.00,1.93
9348.00,1.93
9347.00,1.93
9346.00,1.93
9345.00,1.93
9344.00,1.93
9343.00,1.93
9342.00,1.93
9341.00,1.92
9340.00,1.92
9339.00,1.91
9338.00,1.90
9337.00,1.88
9336.00,1.87
9335.00,1.85
9334.00,1.83
9333.00,1.81
9332.00,1.79
9331.00,1.76
9330.00,1.74
9329.00,1.72
9328.00,1.69
9327.00,1.67
9326.00,1.65
9325.00,1.63
9324.00,1.60
9323.00,1.58
9322.00,1.55
9321.00,1.53
9320.00,1.51
9319.00,1.49
9318.00,1.46
9317.00,1.44
9316.00,1.43
9315.00,1.42
9314.00,1.41
9313.00,1.40
9312.00,1.40
9311.00,1.39
9310.00,1.40
9309.00,1.40
9308.00,1.41
9307.00,1.41
9306.00,1.42
9305.00,1.43
9304.00,1.44
9303.00,1.45
9302.00,1.46
9301.00,1.47
9300.00,1.49
9299.00,1.50
9298.00,1.51
9297.00,1.53
9296.00,1.54
9295.00,1.56
9294.00,1.58
9293.00,1.60
9292.00,1.63
9291.00,1.65
9290.00,1.67
9289.00,1.69
9288.00,1.72
9287.00,1.74
9286.00,1.75
9285.00,1.77
9284.00,1.79
9283.00,1.81
9282.00,1.83
9281.00,1.85
9280.00,1.86
9279.00,1.88
9278.00,1.90
9277.00,1.92
9276.00,1.94
9275.00,1.96
9274.00,1.98
9273.00,2.00
9272.00,2.02
9271.00,2.03
9270.00,2.05
9269.00,2.07
9268.00,2.08
9267.00,2.10
9266.00,2.11
9265.00,2.13
9264.00,2.14
9263.00,2.16
9262.00,2.17
9261.00,2.18
9260.00,2.19
9259.00,2.20
9258.00,2.20
9257.00,2.21
9256.00,2.21
9255.00,2.21
9254.00,2.21
9253.00,2.21
9252.00,2.21
9251.00,2.20
9250.00,2.19
9249.00,2.18
9248.00,2.17
9247.00,2.16
9246.00,2.15
9245.00,2.14
9244.00,2.13
9243.00,2.11
9242.00,2.10
9241.00,2.09
9240.00,2.07
9239.00,2.06
9238.00,2.04
9237.00,2.03
9236.00,2.01
9235.00,1.99
9234.00,1.98
9233.00,1.96
9232.00,1.95
9231.00,1.93
9230.00,1.92
9229.00,1.91
9228.00,1.91
9227.00,1.90
9226.00,1.90
9225.00,1.89
9224.00,1.89
9223.00,1.89
9222.00,1.89
9221.00,1.89
9220.00,1.89
9219.00,1.89
9218.00,1.89
9217.00,1.89
9216.00,1.88
9215.00,1.88
9214.00,1.87
9213.00,1.87
9212.00,1.86
9211.00,1.86
9210.00,1.86
9209.00,1.86
9208.00,1.86
9207.00,1.86
9206.00,1.86
9205.00,1.86
9204.00,1.86
9203.00,1.86
9202.00,1.86
9201.00,1.86
9200.00,1.85
9199.00,1.85
9198.00,1.85
9197.00,1.84
9196.00,1.84
9195.00,1.84
9194.00,1.84
9193.00,1.84
9192.00,1.85
9191.00,1.86
9190.00,1.87
9189.00,1.88
9188.00,1.90
9187.00,1.92
9186.00,1.93
9185.00,1.95
9184.00,1.97
9183.00,1.99
9182.00,2.00
9181.00,2.01
9180.00,2.03
9179.00,2.04
9178.00,2.05
9177.00,2.06
9176.00,2.08
9175.00,2.09
9174.00,2.10
9173.00,2.12
9172.00,2.13
9171.00,2.15
9170.00,2.16
9169.00,2.17
9168.00,2.18
9167.00,2.19
9166.00,2.20
9165.00,2.20
9164.00,2.20
9163.00,2.19
9162.00,2.19
9161.00,2.18
9160.00,2.17
9159.00,2.16
9158.00,2.15
9157.00,2.13
9156.00,2.12
9155.00,2.11
9154.00,2.10
9153.00,2.09
9152.00,2.08
9151.00,2.08
9150.00,2.07
9149.00,2.06
9148.00,2.06
9147.00,2.05
9146.00,2.05
9145.00,2.04
9144.00,2.03
9143.00,2.03
9142.00,2.02
9141.00,2.02
9140.00,2.02
9139.00,2.01
9138.00,2.02
9137.00,2.02
9136.00,2.02
9135.00,2.03
9134.00,2.04
9133.00,2.04
9132.00,2.05
9131.00,2.06
9130.00,2.06
9129.00,2.07
9128.00,2.07
9127.00,2.07
9126.00,2.07
9125.00,2.06
9124.00,2.06
9123.00,2.05
9122.00,2.05
9121.00,2.04
9120.00,2.04
9119.00,2.03
9118.00,2.03
9117.00,2.02
9116.00,2.02
9115.00,2.01
9114.00,2.00
9113.00,2.00
9112.00,1.99
9111.00,1.98
9110.00,1.98
9109.00,1.97
9108.00,1.96
9107.00,1.95
9106.00,1.94
9105.00,1.94
9104.00,1.93
9103.00,1.93
9102.00,1.93
9101.00,1.93
9100.00,1.93
9099.00,1.93
9098.00,1.94
9097.00,1.94
9096.00,1.94
9095.00,1.95
9094.00,1.96
9093.00,1.96
9092.00,1.97
9091.00,1.97
9090.00,1.98
9089.00,1.98
9088.00,1.99
9087.00,2.00
9086.00,2.00
9085.00,2.01
9084.00,2.01
9083.00,2.02
9082.00,2.02
9081.00,2.03
9080.00,2.03
9079.00,2.04
9078.00,2.04
9077.00,2.05
9076.00,2.05
9075.00,2.06
9074.00,2.06
9073.00,2.07
9072.00,2.07
9071.00,2.08
9070.00,2.09
9069.00,2.09
9068.00,2.10
9067.00,2.11
9066.00,2.11
9065.00,2.12
9064.00,2.12
9063.00,2.12
9062.00,2.12
9061.00,2.12
9060.00,2.12
9059.00,2.12
9058.00,2.12
9057.00,2.12
9056.00,2.12
9055.00,2.12
9054.00,2.12
9053.00,2.12
9052.00,2.12
9051.00,2.12
9050.00,2.12
9049.00,2.12
9048.00,2.11
9047.00,2.11
9046.00,2.11
9045.00,2.10
9044.00,2.09
9043.00,2.09
9042.00,2.07
9041.00,2.06
9040.00,2.05
9039.00,2.03
9038.00,2.02
9037.00,2.01
9036.00,1.99
9035.00,1.98
9034.00,1.97
9033.00,1.96
9032.00,1.95
9031.00,1.94
9030.00,1.93
9029.00,1.92
9028.00,1.91
9027.00,1.90
9026.00,1.89
9025.00,1.89
9024.00,1.88
9023.00,1.87
9022.00,1.86
9021.00,1.85
9020.00,1.84
9019.00,1.83
9018.00,1.83
9017.00,1.82
9016.00,1.82
9015.00,1.82
9014.00,1.82
9013.00,1.83
9012.00,1.84
9011.00,1.85
9010.00,1.86
9009.00,1.87
9008.00,1.88
9007.00,1.89
9006.00,1.90
9005.00,1.91
9004.00,1.92
9003.00,1.92
9002.00,1.93
9001.00,1.94
9000.00,1.95
8999.00,1.96
8998.00,1.98
8997.00,1.99
8996.00,2.01
8995.00,2.03
8994.00,2.05
8993.00,2.07
8992.00,2.08
8991.00,2.10
8990.00,2.12
8989.00,2.13
8988.00,2.15
8987.00,2.16
8986.00,2.17
8985.00,2.18
8984.00,2.19
8983.00,2.20
8982.00,2.21
8981.00,2.22
8980.00,2.23
8979.00,2.24
8978.00,2.25
8977.00,2.27
8976.00,2.28
8975.00,2.29
8974.00,2.30
8973.00,2.31
8972.00,2.32
8971.00,2.33
8970.00,2.33
8969.00,2.33
8968.00,2.33
8967.00,2.33
8966.00,2.33
8965.00,2.32
8964.00,2.32
8963.00,2.32
8962.00,2.31
8961.00,2.31
8960.00,2.31
8959.00,2.30
8958.00,2.30
8957.00,2.30
8956.00,2.29
8955.00,2.28
8954.00,2.27
8953.00,2.26
8952.00,2.25
8951.00,2.24
8950.00,2.23
8949.00,2.21
8948.00,2.20
8947.00,2.18
8946.00,2.17
8945.00,2.15
8944.00,2.13
8943.00,2.12
8942.00,2.11
8941.00,2.10
8940.00,2.09
8939.00,2.08
8938.00,2.08
8937.00,2.07
8936.00,2.07
8935.00,2.06
8934.00,2.06
8933.00,2.06
8932.00,2.05
8931.00,2.05
8930.00,2.05
8929.00,2.05
8928.00,2.05
8927.00,2.05
8926.00,2.05
8925.00,2.05
8924.00,2.05
8923.00,2.06
8922.00,2.07
8921.00,2.07
8920.00,2.08
8919.00,2.09
8918.00,2.11
8917.00,2.12
8916.00,2.13
8915.00,2.14
8914.00,2.15
8913.00,2.16
8912.00,2.16
8911.00,2.17
8910.00,2.17
8909.00,2.17
8908.00,2.17
8907.00,2.17
8906.00,2.18
8905.00,2.18
8904.00,2.18
8903.00,2.18
8902.00,2.18
8901.00,2.18
8900.00,2.18
8899.00,2.18
8898.00,2.18
8897.00,2.18
8896.00,2.17
8895.00,2.17
8894.00,2.16
8893.00,2.15
8892.00,2.14
8891.00,2.13
8890.00,2.11
8889.00,2.10
8888.00,2.09
8887.00,2.07
8886.00,2.06
8885.00,2.04
8884.00,2.03
8883.00,2.02
8882.00,2.01
8881.00,2.00
8880.00,1.99
8879.00,1.98
8878.00,1.97
8877.00,1.96
8876.00,1.95
8875.00,1.94
8874.00,1.93
8873.00,1.92
8872.00,1.92
8871.00,1.91
8870.00,1.91
8869.00,1.90
8868.00,1.90
8867.00,1.90
8866.00,1.91
8865.00,1.91
8864.00,1.92
8863.00,1.92
8862.00,1.93
8861.00,1.94
8860.00,1.95
8859.00,1.96
8858.00,1.97
8857.00,1.98
8856.00,1.99
8855.00,2.00
8854.00,2.01
8853.00,2.03
8852.00,2.04
8851.00,2.05
8850.00,2.06
8849.00,2.07
8848.00,2.08
8847.00,2.09
8846.00,2.10
8845.00,2.10
8844.00,2.11
8843.00,2.12
8842.00,2.12
8841.00,2.13
8840.00,2.13
8839.00,2.14
8838.00,2.15
8837.00,2.16
8836.00,2.17
8835.00,2.18
8834.00,2.19
8833.00,2.21
8832.00,2.22
8831.00,2.23
8830.00,2.24
8829.00,2.26
8828.00,2.27
8827.00,2.28
8826.00,2.29
8825.00,2.31
8824.00,2.32
8823.00,2.33
8822.00,2.35
8821.00,2.36
8820.00,2.37
8819.00,2.39
8818.00,2.41
8817.00,2.42
8816.00,2.44
8815.00,2.45
8814.00,2.47
8813.00,2.48
8812.00,2.49
8811.00,2.49
8810.00,2.50
8809.00,2.50
8808.00,2.50
8807.00,2.49
8806.00,2.49
8805.00,2.48
8804.00,2.47
8803.00,2.47
8802.00,2.46
8801.00,2.45
8800.00,2.45
8799.00,2.44
8798.00,2.43
8797.00,2.42
8796.00,2.41
8795.00,2.40
8794.00,2.39
8793.00,2.38
8792.00,2.37
8791.00,2.36
8790.00,2.35
8789.00,2.34
8788.00,2.33
8787.00,2.32
8786.00,2.31
8785.00,2.30
8784.00,2.30
8783.00,2.29
8782.00,2.29
8781.00,2.29
8780.00,2.29
8779.00,2.29
8778.00,2.29
8777.00,2.28
8776.00,2.28
8775.00,2.27
8774.00,2.27
8773.00,2.26
8772.00,2.25
8771.00,2.24
8770.00,2.23
8769.00,2.22
8768.00,2.21
8767.00,2.20
8766.00,2.19
8765.00,2.18
8764.00,2.17
8763.00,2.16
8762.00,2.15
8761.00,2.13
8760.00,2.12
8759.00,2.11
8758.00,2.09
8757.00,2.08
8756.00,2.07
8755.00,2.05
8754.00,2.04
8753.00,2.03
8752.00,2.02
8751.00,2.01
8750.00,2.01
8749.00,2.01
8748.00,2.01
8747.00,2.01
8746.00,2.02
8745.00,2.03
8744.00,2.04
8743.00,2.05
8742.00,2.06
8741.00,2.07
8740.00,2.08
8739.00,2.09
8738.00,2.11
8737.00,2.12
8736.00,2.13
8735.00,2.14
8734.00,2.15
8733.00,2.17
8732.00,2.18
8731.00,2.20
8730.00,2.21
8729.00,2.23
8728.00,2.25
8727.00,2.26
8726.00,2.28
8725.00,2.29
8724.00,2.31
8723.00,2.32
8722.00,2.33
8721.00,2.34
8720.00,2.34
8719.00,2.35
8718.00,2.35
8717.00,2.35
8716.00,2.36
8715.00,2.36
8714.00,2.37
8713.00,2.37
8712.00,2.38
8711.00,2.38
8710.00,2.39
8709.00,2.39
8708.00,2.39
8707.00,2.39
8706.00,2.39
8705.00,2.39
8704.00,2.38
8703.00,2.37
8702.00,2.37
8701.00,2.36
8700.00,2.35
8699.00,2.34
8698.00,2.33
8697.00,2.32
8696.00,2.32
8695.00,2.31
8694.00,2.31
8693.00,2.30
8692.00,2.30
8691.00,2.29
8690.00,2.28
8689.00,2.27
8688.00,2.26
8687.00,2.25
8686.00,2.24
8685.00,2.23
8684.00,2.22
8683.00,2.22
8682.00,2.21
8681.00,2.20
8680.00,2.20
8679.00,2.20
8678.00,2.19
8677.00,2.19
8676.00,2.19
8675.00,2.19
8674.00,2.19
8673.00,2.19
8672.00,2.18
8671.00,2.18
8670.00,2.17
8669.00,2.16
8668.00,2.16
8667.00,2.15
8666.00,2.14
8665.00,2.13
8664.00,2.13
8663.00,2.12
8662.00,2.12
8661.00,2.11
8660.00,2.11
8659.00,2.10
8658.00,2.09
8657.00,2.09
8656.00,2.08
8655.00,2.07
8654.00,2.06
8653.00,2.05
8652.00,2.04
8651.00,2.04
8650.00,2.03
8649.00,2.02
8648.00,2.01
8647.00,2.01
8646.00,2.00
8645.00,1.99
8644.00,1.99
8643.00,1.99
8642.00,1.99
8641.00,1.99
8640.00,1.99
8639.00,1.99
8638.00,1.99
8637.00,1.99
8636.00,2.00
8635.00,2.00
8634.00,2.01
8633.00,2.01
8632.00,2.02
8631.00,2.03
8630.00,2.04
8629.00,2.05
8628.00,2.06
8627.00,2.08
8626.00,2.09
8625.00,2.10
8624.00,2.12
8623.00,2.13
8622.00,2.14
8621.00,2.15
8620.00,2.16
8619.00,2.17
8618.00,2.17
8617.00,2.18
8616.00,2.18
8615.00,2.18
8614.00,2.17
8613.00,2.17
8612.00,2.17
8611.00,2.16
8610.00,2.16
8609.00,2.15
8608.00,2.15
8607.00,2.14
8606.00,2.14
8605.00,2.13
8604.00,2.12
8603.00,2.12
8602.00,2.11
8601.00,2.10
8600.00,2.09
8599.00,2.08
8598.00,2.07
8597.00,2.06
8596.00,2.05
8595.00,2.05
8594.00,2.05
8593.00,2.05
8592.00,2.06
8591.00,2.07
8590.00,2.08
8589.00,2.10
8588.00,2.12
8587.00,2.13
8586.00,2.15
8585.00,2.17
8584.00,2.19
8583.00,2.20
8582.00,2.22
8581.00,2.23
8580.00,2.24
8579.00,2.26
8578.00,2.27
8577.00,2.28
8576.00,2.30
8575.00,2.31
8574.00,2.32
8573.00,2.34
8572.00,2.35
8571.00,2.36
8570.00,2.37
8569.00,2.39
8568.00,2.39
8567.00,2.40
8566.00,2.41
8565.00,2.41
8564.00,2.41
8563.00,2.41
8562.00,2.41
8561.00,2.41
8560.00,2.41
8559.00,2.40
8558.00,2.40
8557.00,2.39
8556.00,2.39
8555.00,2.39
8554.00,2.38
8553.00,2.38
8552.00,2.38
8551.00,2.37
8550.00,2.37
8549.00,2.37
8548.00,2.36
8547.00,2.36
8546.00,2.35
8545.00,2.35
8544.00,2.34
8543.00,2.33
8542.00,2.32
8541.00,2.31
8540.00,2.30
8539.00,2.28
8538.00,2.27
8537.00,2.25
8536.00,2.24
8535.00,2.22
8534.00,2.20
8533.00,2.19
8532.00,2.18
8531.00,2.16
8530.00,2.15
8529.00,2.14
8528.00,2.14
8527.00,2.13
8526.00,2.12
8525.00,2.12
8524.00,2.11
8523.00,2.10
8522.00,2.09
8521.00,2.08
8520.00,2.07
8519.00,2.06
8518.00,2.05
8517.00,2.04
8516.00,2.03
8515.00,2.02
8514.00,2.02
8513.00,2.01
8512.00,2.01
8511.00,2.00
8510.00,2.00
8509.00,2.00
8508.00,1.99
8507.00,1.99
8506.00,1.99
8505.00,1.98
8504.00,1.97
8503.00,1.96
8502.00,1.95
8501.00,1.94
8500.00,1.93
8499.00,1.92
8498.00,1.91
8497.00,1.90
8496.00,1.89
8495.00,1.89
8494.00,1.89
8493.00,1.89
8492.00,1.89
8491.00,1.89
8490.00,1.89
8489.00,1.89
8488.00,1.89
8487.00,1.89
8486.00,1.89
8485.00,1.89
8484.00,1.88
8483.00,1.88
8482.00,1.88
8481.00,1.88
8480.00,1.88
8479.00,1.88
8478.00,1.88
8477.00,1.88
8476.00,1.89
8475.00,1.89
8474.00,1.90
8473.00,1.90
8472.00,1.90
8471.00,1.91
8470.00,1.91
8469.00,1.91
8468.00,1.91
8467.00,1.91
8466.00,1.90
8465.00,1.90
8464.00,1.90
8463.00,1.89
8462.00,1.89
8461.00,1.89
8460.00,1.89
8459.00,1.89
8458.00,1.90
8457.00,1.90
8456.00,1.91
8455.00,1.91
8454.00,1.92
8453.00,1.93
8452.00,1.94
8451.00,1.95
8450.00,1.95
8449.00,1.96
8448.00,1.97
8447.00,1.97
8446.00,1.97
8445.00,1.98
8444.00,1.98
8443.00,1.99
8442.00,2.00
8441.00,2.01
8440.00,2.02
8439.00,2.03
8438.00,2.04
8437.00,2.05
8436.00,2.06
8435.00,2.06
8434.00,2.07
8433.00,2.08
8432.00,2.08
8431.00,2.09
8430.00,2.09
8429.00,2.09
8428.00,2.09
8427.00,2.09
8426.00,2.09
8425.00,2.09
8424.00,2.10
8423.00,2.10
8422.00,2.10
8421.00,2.10
8420.00,2.10
8419.00,2.10
8418.00,2.10
8417.00,2.10
8416.00,2.10
8415.00,2.10
8414.00,2.10
8413.00,2.09
8412.00,2.09
8411.00,2.09
8410.00,2.08
8409.00,2.08
8408.00,2.08
8407.00,2.07
8406.00,2.07
8405.00,2.06
8404.00,2.06
8403.00,2.05
8402.00,2.05
8401.00,2.04
8400.00,2.04
8399.00,2.03
8398.00,2.02
8397.00,2.02
8396.00,2.01
8395.00,2.00
8394.00,1.99
8393.00,1.98
8392.00,1.97
8391.00,1.96
8390.00,1.95
8389.00,1.93
8388.00,1.92
8387.00,1.91
8386.00,1.89
8385.00,1.87
8384.00,1.86
8383.00,1.84
8382.00,1.83
8381.00,1.81
8380.00,1.80
8379.00,1.79
8378.00,1.78
8377.00,1.77
8376.00,1.77
8375.00,1.76
8374.00,1.76
8373.00,1.76
8372.00,1.75
8371.00,1.75
8370.00,1.75
8369.00,1.76
8368.00,1.76
8367.00,1.76
8366.00,1.77
8365.00,1.78
8364.00,1.78
8363.00,1.79
8362.00,1.81
8361.00,1.82
8360.00,1.83
8359.00,1.85
8358.00,1.87
8357.00,1.88
8356.00,1.90
8355.00,1.92
8354.00,1.93
8353.00,1.95
8352.00,1.96
8351.00,1.97
8350.00,1.98
8349.00,1.99
8348.00,1.99
8347.00,2.00
8346.00,2.01
8345.00,2.01
8344.00,2.02
8343.00,2.02
8342.00,2.02
8341.00,2.03
8340.00,2.03
8339.00,2.04
8338.00,2.04
8337.00,2.05
8336.00,2.06
8335.00,2.06
8334.00,2.07
8333.00,2.07
8332.00,2.08
8331.00,2.08
8330.00,2.09
8329.00,2.09
8328.00,2.09
8327.00,2.09
8326.00,2.09
8325.00,2.10
8324.00,2.10
8323.00,2.10
8322.00,2.11
8321.00,2.11
8320.00,2.12
8319.00,2.12
8318.00,2.12
8317.00,2.13
8316.00,2.13
8315.00,2.12
8314.00,2.12
8313.00,2.11
8312.00,2.10
8311.00,2.09
8310.00,2.08
8309.00,2.07
8308.00,2.06
8307.00,2.05
8306.00,2.04
8305.00,2.02
8304.00,2.01
8303.00,2.00
8302.00,1.99
8301.00,1.98
8300.00,1.97
8299.00,1.96
8298.00,1.95
8297.00,1.94
8296.00,1.93
8295.00,1.92
8294.00,1.91
8293.00,1.90
8292.00,1.90
8291.00,1.89
8290.00,1.89
8289.00,1.89
8288.00,1.89
8287.00,1.89
8286.00,1.90
8285.00,1.91
8284.00,1.91
8283.00,1.93
8282.00,1.94
8281.00,1.95
8280.00,1.96
8279.00,1.98
8278.00,2.00
8277.00,2.01
8276.00,2.03
8275.00,2.05
8274.00,2.07
8273.00,2.08
8272.00,2.10
8271.00,2.12
8270.00,2.14
8269.00,2.16
8268.00,2.17
8267.00,2.19
8266.00,2.20
8265.00,2.21
8264.00,2.22
8263.00,2.22
8262.00,2.23
8261.00,2.23
8260.00,2.24
8259.00,2.24
8258.00,2.24
8257.00,2.25
8256.00,2.25
8255.00,2.25
8254.00,2.24
8253.00,2.24
8252.00,2.23
8251.00,2.22
8250.00,2.21
8249.00,2.20
8248.00,2.18
8247.00,2.17
8246.00,2.15
8245.00,2.13
8244.00,2.11
8243.00,2.09
8242.00,2.08
8241.00,2.06
8240.00,2.04
8239.00,2.03
8238.00,2.02
8237.00,2.02
8236.00,2.01
8235.00,2.00
8234.00,2.00
8233.00,2.00
8232.00,2.00
8231.00,1.99
8230.00,1.99
8229.00,1.99
8228.00,1.99
8227.00,1.99
8226.00,1.99
8225.00,2.00
8224.00,2.01
8223.00,2.02
8222.00,2.03
8221.00,2.04
8220.00,2.06
8219.00,2.08
8218.00,2.09
8217.00,2.11
8216.00,2.13
8215.00,2.15
8214.00,2.17
8213.00,2.19
8212.00,2.20
8211.00,2.22
8210.00,2.23
8209.00,2.24
8208.00,2.25
8207.00,2.27
8206.00,2.27
8205.00,2.28
8204.00,2.29
8203.00,2.30
8202.00,2.31
8201.00,2.31
8200.00,2.32
8199.00,2.33
8198.00,2.33
8197.00,2.33
8196.00,2.33
8195.00,2.33
8194.00,2.33
8193.00,2.34
8192.00,2.34
8191.00,2.34
8190.00,2.34
8189.00,2.34
8188.00,2.34
8187.00,2.35
8186.00,2.35
8185.00,2.35
8184.00,2.35
8183.00,2.35
8182.00,2.35
8181.00,2.35
8180.00,2.35
8179.00,2.34
8178.00,2.34
8177.00,2.34
8176.00,2.33
8175.00,2.32
8174.00,2.32
8173.00,2.31
8172.00,2.31
8171.00,2.30
8170.00,2.30
8169.00,2.29
8168.00,2.29
8167.00,2.28
8166.00,2.28
8165.00,2.27
8164.00,2.26
8163.00,2.25
8162.00,2.24
8161.00,2.22
8160.00,2.21
8159.00,2.20
8158.00,2.18
8157.00,2.17
8156.00,2.16
8155.00,2.16
8154.00,2.15
8153.00,2.14
8152.00,2.14
8151.00,2.13
8150.00,2.13
8149.00,2.13
8148.00,2.13
8147.00,2.12
8146.00,2.12
8145.00,2.12
8144.00,2.12
8143.00,2.12
8142.00,2.11
8141.00,2.11
8140.00,2.11
8139.00,2.11
8138.00,2.12
8137.00,2.12
8136.00,2.13
8135.00,2.14
8134.00,2.15
8133.00,2.17
8132.00,2.18
8131.00,2.19
8130.00,2.20
8129.00,2.20
8128.00,2.21
8127.00,2.21
8126.00,2.22
8125.00,2.22
8124.00,2.22
8123.00,2.22
8122.00,2.23
8121.00,2.23
8120.00,2.23
8119.00,2.23
8118.00,2.23
8117.00,2.23
8116.00,2.24
8115.00,2.24
8114.00,2.24
8113.00,2.24
8112.00,2.24
8111.00,2.24
8110.00,2.24
8109.00,2.23
8108.00,2.23
8107.00,2.22
8106.00,2.22
8105.00,2.22
8104.00,2.22
8103.00,2.22
8102.00,2.23
8101.00,2.23
8100.00,2.25
8099.00,2.26
8098.00,2.27
8097.00,2.29
8096.00,2.31
8095.00,2.32
8094.00,2.34
8093.00,2.36
8092.00,2.38
8091.00,2.39
8090.00,2.41
8089.00,2.42
8088.00,2.43
8087.00,2.45
8086.00,2.46
8085.00,2.47
8084.00,2.48
8083.00,2.49
8082.00,2.50
8081.00,2.51
8080.00,2.52
8079.00,2.52
8078.00,2.53
8077.00,2.53
8076.00,2.52
8075.00,2.52
8074.00,2.51
8073.00,2.50
8072.00,2.48
8071.00,2.47
8070.00,2.45
8069.00,2.43
8068.00,2.41
8067.00,2.39
8066.00,2.37
8065.00,2.36
8064.00,2.34
8063.00,2.33
8062.00,2.31
8061.00,2.30
8060.00,2.29
8059.00,2.28
8058.00,2.27
8057.00,2.26
8056.00,2.25
8055.00,2.24
8054.00,2.23
8053.00,2.23
8052.00,2.22
8051.00,2.22
8050.00,2.22
8049.00,2.23
8048.00,2.23
8047.00,2.24
8046.00,2.24
8045.00,2.25
8044.00,2.26
8043.00,2.27
8042.00,2.28
8041.00,2.29
8040.00,2.30
8039.00,2.31
8038.00,2.32
8037.00,2.32
8036.00,2.33
8035.00,2.33
8034.00,2.33
8033.00,2.33
8032.00,2.33
8031.00,2.33
8030.00,2.32
8029.00,2.32
8028.00,2.32
8027.00,2.31
8026.00,2.31
8025.00,2.30
8024.00,2.29
8023.00,2.29
8022.00,2.28
8021.00,2.27
8020.00,2.27
8019.00,2.26
8018.00,2.25
8017.00,2.25
8016.00,2.24
8015.00,2.23
8014.00,2.23
8013.00,2.23
8012.00,2.22
8011.00,2.22
8010.00,2.22
8009.00,2.23
8008.00,2.23
8007.00,2.24
8006.00,2.24
8005.00,2.25
8004.00,2.26
8003.00,2.27
8002.00,2.28
8001.00,2.29
8000.00,2.30
7999.00,2.31
7998.00,2.32
7997.00,2.33
7996.00,2.34
7995.00,2.34
7994.00,2.35
7993.00,2.36
7992.00,2.37
7991.00,2.38
7990.00,2.38
7989.00,2.39
7988.00,2.39
7987.00,2.39
7986.00,2.39
7985.00,2.39
7984.00,2.39
7983.00,2.39
7982.00,2.39
7981.00,2.38
7980.00,2.38
7979.00,2.37
7978.00,2.37
7977.00,2.36
7976.00,2.35
7975.00,2.34
7974.00,2.33
7973.00,2.32
7972.00,2.31
7971.00,2.29
7970.00,2.28
7969.00,2.27
7968.00,2.26
7967.00,2.24
7966.00,2.23
7965.00,2.22
7964.00,2.21
7963.00,2.20
7962.00,2.19
7961.00,2.18
7960.00,2.17
7959.00,2.17
7958.00,2.16
7957.00,2.16
7956.00,2.16
7955.00,2.15
7954.00,2.15
7953.00,2.15
7952.00,2.14
7951.00,2.14
7950.00,2.14
7949.00,2.15
7948.00,2.15
7947.00,2.15
7946.00,2.16
7945.00,2.16
7944.00,2.17
7943.00,2.18
7942.00,2.18
7941.00,2.19
7940.00,2.20
7939.00,2.20
7938.00,2.21
7937.00,2.21
7936.00,2.22
7935.00,2.23
7934.00,2.23
7933.00,2.24
7932.00,2.24
7931.00,2.25
7930.00,2.26
7929.00,2.26
7928.00,2.27
7927.00,2.27
7926.00,2.28
7925.00,2.28
7924.00,2.29
7923.00,2.29
7922.00,2.30
7921.00,2.30
7920.00,2.31
7919.00,2.31
7918.00,2.32
7917.00,2.32
7916.00,2.33
7915.00,2.33
7914.00,2.34
7913.00,2.35
7912.00,2.35
7911.00,2.36
7910.00,2.36
7909.00,2.37
7908.00,2.37
7907.00,2.38
7906.00,2.38
7905.00,2.38
7904.00,2.38
7903.00,2.39
7902.00,2.39
7901.00,2.39
7900.00,2.40
7899.00,2.40
7898.00,2.40
7897.00,2.41
7896.00,2.41
7895.00,2.42
7894.00,2.42
7893.00,2.42
7892.00,2.42
7891.00,2.42
7890.00,2.42
7889.00,2.42
7888.00,2.42
7887.00,2.42
7886.00,2.43
7885.00,2.43
7884.00,2.43
7883.00,2.43
7882.00,2.44
7881.00,2.44
7880.00,2.45
7879.00,2.45
7878.00,2.46
7877.00,2.46
7876.00,2.46
7875.00,2.47
7874.00,2.47
7873.00,2.47
7872.00,2.46
7871.00,2.46
7870.00,2.45
7869.00,2.45
7868.00,2.44
7867.00,2.44
7866.00,2.43
7865.00,2.43
7864.00,2.42
7863.00,2.42
7862.00,2.42
7861.00,2.41
7860.00,2.41
7859.00,2.40
7858.00,2.40
7857.00,2.39
7856.00,2.38
7855.00,2.37
7854.00,2.36
7853.00,2.35
7852.00,2.33
7851.00,2.32
7850.00,2.30
7849.00,2.29
7848.00,2.28
7847.00,2.27
7846.00,2.26
7845.00,2.26
7844.00,2.26
7843.00,2.25
7842.00,2.25
7841.00,2.25
7840.00,2.25
7839.00,2.24
7838.00,2.24
7837.00,2.23
7836.00,2.23
7835.00,2.22
7834.00,2.22
7833.00,2.22
7832.00,2.21
7831.00,2.21
7830.00,2.21
7829.00,2.21
7828.00,2.21
7827.00,2.22
7826.00,2.22
7825.00,2.23
7824.00,2.24
7823.00,2.25
7822.00,2.25
7821.00,2.26
7820.00,2.26
7819.00,2.27
7818.00,2.27
7817.00,2.27
7816.00,2.27
7815.00,2.27
7814.00,2.27
7813.00,2.27
7812.00,2.27
7811.00,2.27
7810.00,2.27
7809.00,2.28
7808.00,2.28
7807.00,2.28
7806.00,2.29
7805.00,2.29
7804.00,2.29
7803.00,2.29
7802.00,2.29
7801.00,2.29
7800.00,2.28
7799.00,2.28
7798.00,2.28
7797.00,2.28
7796.00,2.27
7795.00,2.27
7794.00,2.27
7793.00,2.28
7792.00,2.28
7791.00,2.29
7790.00,2.30
7789.00,2.31
7788.00,2.32
7787.00,2.33
7786.00,2.34
7785.00,2.35
7784.00,2.35
7783.00,2.36
7782.00,2.36
7781.00,2.37
7780.00,2.37
7779.00,2.38
7778.00,2.38
7777.00,2.39
7776.00,2.39
7775.00,2.40
7774.00,2.41
7773.00,2.41
7772.00,2.42
7771.00,2.43
7770.00,2.43
7769.00,2.44
7768.00,2.44
7767.00,2.44
7766.00,2.44
7765.00,2.44
7764.00,2.43
7763.00,2.42
7762.00,2.41
7761.00,2.41
7760.00,2.40
7759.00,2.39
7758.00,2.38
7757.00,2.37
7756.00,2.37
7755.00,2.36
7754.00,2.36
7753.00,2.36
7752.00,2.35
7751.00,2.35
7750.00,2.35
7749.00,2.35
7748.00,2.34
7747.00,2.34
7746.00,2.34
7745.00,2.33
7744.00,2.33
7743.00,2.32
7742.00,2.32
7741.00,2.31
7740.00,2.31
7739.00,2.31
7738.00,2.30
7737.00,2.31
7736.00,2.31
7735.00,2.31
7734.00,2.31
7733.00,2.32
7732.00,2.32
7731.00,2.32
7730.00,2.32
7729.00,2.33
7728.00,2.33
7727.00,2.32
7726.00,2.32
7725.00,2.32
7724.00,2.32
7723.00,2.32
7722.00,2.32
7721.00,2.32
7720.00,2.32
7719.00,2.33
7718.00,2.33
7717.00,2.33
7716.00,2.34
7715.00,2.34
7714.00,2.34
7713.00,2.35
7712.00,2.35
7711.00,2.35
7710.00,2.35
7709.00,2.36
7708.00,2.36
7707.00,2.36
7706.00,2.36
7705.00,2.36
7704.00,2.36
7703.00,2.36
7702.00,2.36
7701.00,2.37
7700.00,2.37
7699.00,2.38
7698.00,2.38
7697.00,2.38
7696.00,2.38
7695.00,2.39
7694.00,2.39
7693.00,2.39
7692.00,2.39
7691.00,2.38
7690.00,2.38
7689.00,2.38
7688.00,2.38
7687.00,2.38
7686.00,2.38
7685.00,2.38
7684.00,2.38
7683.00,2.38
7682.00,2.38
7681.00,2.39
7680.00,2.39
7679.00,2.39
7678.00,2.39
7677.00,2.40
7676.00,2.40
7675.00,2.40
7674.00,2.40
7673.00,2.40
7672.00,2.41
7671.00,2.41
7670.00,2.41
7669.00,2.41
7668.00,2.42
7667.00,2.42
7666.00,2.42
7665.00,2.43
7664.00,2.43
7663.00,2.43
7662.00,2.44
7661.00,2.44
7660.00,2.44
7659.00,2.44
7658.00,2.45
7657.00,2.45
7656.00,2.45
7655.00,2.44
7654.00,2.44
7653.00,2.44
7652.00,2.44
7651.00,2.43
7650.00,2.43
7649.00,2.43
7648.00,2.42
7647.00,2.42
7646.00,2.41
7645.00,2.41
7644.00,2.40
7643.00,2.39
7642.00,2.39
7641.00,2.38
7640.00,2.37
7639.00,2.36
7638.00,2.35
7637.00,2.35
7636.00,2.34
7635.00,2.33
7634.00,2.33
7633.00,2.33
7632.00,2.32
7631.00,2.32
7630.00,2.32
7629.00,2.33
7628.00,2.33
7627.00,2.33
7626.00,2.33
7625.00,2.33
7624.00,2.33
7623.00,2.33
7622.00,2.33
7621.00,2.33
7620.00,2.33
7619.00,2.33
7618.00,2.33
7617.00,2.33
7616.00,2.33
7615.00,2.34
7614.00,2.34
7613.00,2.35
7612.00,2.36
7611.00,2.36
7610.00,2.37
7609.00,2.37
7608.00,2.37
7607.00,2.38
7606.00,2.37
7605.00,2.37
7604.00,2.37
7603.00,2.37
7602.00,2.36
7601.00,2.36
7600.00,2.36
7599.00,2.35
7598.00,2.35
7597.00,2.36
7596.00,2.36
7595.00,2.36
7594.00,2.37
7593.00,2.37
7592.00,2.38
7591.00,2.38
7590.00,2.38
7589.00,2.39
7588.00,2.39
7587.00,2.39
7586.00,2.39
7585.00,2.39
7584.00,2.38
7583.00,2.38
7582.00,2.38
7581.00,2.38
7580.00,2.39
7579.00,2.39
7578.00,2.39
7577.00,2.40
7576.00,2.40
7575.00,2.41
7574.00,2.41
7573.00,2.42
7572.00,2.42
7571.00,2.43
7570.00,2.43
7569.00,2.44
7568.00,2.44
7567.00,2.44
7566.00,2.45
7565.00,2.45
7564.00,2.46
7563.00,2.46
7562.00,2.46
7561.00,2.47
7560.00,2.47
7559.00,2.47
7558.00,2.48
7557.00,2.48
7556.00,2.48
7555.00,2.49
7554.00,2.49
7553.00,2.49
7552.00,2.49
7551.00,2.49
7550.00,2.49
7549.00,2.49
7548.00,2.49
7547.00,2.49
7546.00,2.48
7545.00,2.48
7544.00,2.47
7543.00,2.47
7542.00,2.46
7541.00,2.46
7540.00,2.45
7539.00,2.44
7538.00,2.43
7537.00,2.43
7536.00,2.42
7535.00,2.42
7534.00,2.41
7533.00,2.41
7532.00,2.41
7531.00,2.41
7530.00,2.41
7529.00,2.41
7528.00,2.41
7527.00,2.41
7526.00,2.42
7525.00,2.42
7524.00,2.42
7523.00,2.43
7522.00,2.43
7521.00,2.43
7520.00,2.44
7519.00,2.44
7518.00,2.44
7517.00,2.44
7516.00,2.45
7515.00,2.45
7514.00,2.46
7513.00,2.46
7512.00,2.47
7511.00,2.47
7510.00,2.48
7509.00,2.48
7508.00,2.48
7507.00,2.48
7506.00,2.48
7505.00,2.48
7504.00,2.47
7503.00,2.47
7502.00,2.46
7501.00,2.45
7500.00,2.44
7499.00,2.43
7498.00,2.41
7497.00,2.40
7496.00,2.39
7495.00,2.38
7494.00,2.37
7493.00,2.36
7492.00,2.35
7491.00,2.34
7490.00,2.33
7489.00,2.31
7488.00,2.30
7487.00,2.29
7486.00,2.28
7485.00,2.27
7484.00,2.26
7483.00,2.25
7482.00,2.25
7481.00,2.24
7480.00,2.23
7479.00,2.23
7478.00,2.23
7477.00,2.22
7476.00,2.23
7475.00,2.23
7474.00,2.23
7473.00,2.24
7472.00,2.25
7471.00,2.25
7470.00,2.26
7469.00,2.27
7468.00,2.27
7467.00,2.28
7466.00,2.28
7465.00,2.28
7464.00,2.29
7463.00,2.29
7462.00,2.29
7461.00,2.29
7460.00,2.30
7459.00,2.30
7458.00,2.30
7457.00,2.30
7456.00,2.30
7455.00,2.30
7454.00,2.30
7453.00,2.30
7452.00,2.30
7451.00,2.30
7450.00,2.30
7449.00,2.29
7448.00,2.29
7447.00,2.28
7446.00,2.28
7445.00,2.27
7444.00,2.27
7443.00,2.27
7442.00,2.27
7441.00,2.27
7440.00,2.27
7439.00,2.27
7438.00,2.27
7437.00,2.27
7436.00,2.27
7435.00,2.28
7434.00,2.28
7433.00,2.28
7432.00,2.29
7431.00,2.29
7430.00,2.30
7429.00,2.30
7428.00,2.30
7427.00,2.30
7426.00,2.31
7425.00,2.31
7424.00,2.31
7423.00,2.31
7422.00,2.31
7421.00,2.31
7420.00,2.31
7419.00,2.31
7418.00,2.31
7417.00,2.31
7416.00,2.31
7415.00,2.31
7414.00,2.30
7413.00,2.30
7412.00,2.29
7411.00,2.29
7410.00,2.29
7409.00,2.28
7408.00,2.27
7407.00,2.27
7406.00,2.26
7405.00,2.26
7404.00,2.25
7403.00,2.25
7402.00,2.24
7401.00,2.24
7400.00,2.23
7399.00,2.23
7398.00,2.23
7397.00,2.23
7396.00,2.23
7395.00,2.22
7394.00,2.22
7393.00,2.22
7392.00,2.22
7391.00,2.22
7390.00,2.22
7389.00,2.22
7388.00,2.22
7387.00,2.22
7386.00,2.22
7385.00,2.22
7384.00,2.22
7383.00,2.22
7382.00,2.22
7381.00,2.22
7380.00,2.22
7379.00,2.22
7378.00,2.22
7377.00,2.22
7376.00,2.21
7375.00,2.21
7374.00,2.20
7373.00,2.20
7372.00,2.19
7371.00,2.19
7370.00,2.18
7369.00,2.17
7368.00,2.17
7367.00,2.16
7366.00,2.15
7365.00,2.15
7364.00,2.14
7363.00,2.13
7362.00,2.13
7361.00,2.12
7360.00,2.11
7359.00,2.10
7358.00,2.10
7357.00,2.09
7356.00,2.07
7355.00,2.06
7354.00,2.05
7353.00,2.04
7352.00,2.03
7351.00,2.02
7350.00,2.01
7349.00,2.01
7348.00,2.01
7347.00,2.00
7346.00,2.00
7345.00,2.00
7344.00,2.01
7343.00,2.01
7342.00,2.01
7341.00,2.01
7340.00,2.02
7339.00,2.02
7338.00,2.03
7337.00,2.03
7336.00,2.04
7335.00,2.05
7334.00,2.06
7333.00,2.07
7332.00,2.08
7331.00,2.09
7330.00,2.10
7329.00,2.12
7328.00,2.13
7327.00,2.15
7326.00,2.17
7325.00,2.18
7324.00,2.20
7323.00,2.21
7322.00,2.23
7321.00,2.24
7320.00,2.25
7319.00,2.26
7318.00,2.26
7317.00,2.27
7316.00,2.28
7315.00,2.28
7314.00,2.29
7313.00,2.29
7312.00,2.29
7311.00,2.30
7310.00,2.30
7309.00,2.30
7308.00,2.30
7307.00,2.30
7306.00,2.30
7305.00,2.30
7304.00,2.30
7303.00,2.30
7302.00,2.29
7301.00,2.29
7300.00,2.28
7299.00,2.28
7298.00,2.27
7297.00,2.27
7296.00,2.26
7295.00,2.26
7294.00,2.26
7293.00,2.26
7292.00,2.26
7291.00,2.26
7290.00,2.26
7289.00,2.26
7288.00,2.26
7287.00,2.26
7286.00,2.26
7285.00,2.26
7284.00,2.26
7283.00,2.26
7282.00,2.27
7281.00,2.27
7280.00,2.27
7279.00,2.27
7278.00,2.28
7277.00,2.28
7276.00,2.28
7275.00,2.29
7274.00,2.29
7273.00,2.30
7272.00,2.30
7271.00,2.31
7270.00,2.31
7269.00,2.31
7268.00,2.31
7267.00,2.31
7266.00,2.32
7265.00,2.32
7264.00,2.32
7263.00,2.32
7262.00,2.32
7261.00,2.33
7260.00,2.33
7259.00,2.33
7258.00,2.34
7257.00,2.34
7256.00,2.34
7255.00,2.34
7254.00,2.35
7253.00,2.35
7252.00,2.35
7251.00,2.35
7250.00,2.35
7249.00,2.34
7248.00,2.34
7247.00,2.33
7246.00,2.33
7245.00,2.32
7244.00,2.32
7243.00,2.31
7242.00,2.31
7241.00,2.30
7240.00,2.29
7239.00,2.28
7238.00,2.27
7237.00,2.26
7236.00,2.25
7235.00,2.23
7234.00,2.22
7233.00,2.20
7232.00,2.19
7231.00,2.17
7230.00,2.15
7229.00,2.13
7228.00,2.11
7227.00,2.09
7226.00,2.08
7225.00,2.06
7224.00,2.04
7223.00,2.02
7222.00,2.01
7221.00,2.00
7220.00,1.98
7219.00,1.97
7218.00,1.96
7217.00,1.95
7216.00,1.94
7215.00,1.93
7214.00,1.92
7213.00,1.91
7212.00,1.90
7211.00,1.90
7210.00,1.89
7209.00,1.88
7208.00,1.87
7207.00,1.87
7206.00,1.86
7205.00,1.86
7204.00,1.86
7203.00,1.85
7202.00,1.85
7201.00,1.85
7200.00,1.85
7199.00,1.85
7198.00,1.85
7197.00,1.85
7196.00,1.85
7195.00,1.85
7194.00,1.85
7193.00,1.85
7192.00,1.84
7191.00,1.84
7190.00,1.84
7189.00,1.84
7188.00,1.83
7187.00,1.83
7186.00,1.83
7185.00,1.83
7184.00,1.83
7183.00,1.82
7182.00,1.82
7181.00,1.82
7180.00,1.82
7179.00,1.82
7178.00,1.82
7177.00,1.82
7176.00,1.82
7175.00,1.82
7174.00,1.83
7173.00,1.83
7172.00,1.83
7171.00,1.83
7170.00,1.83
7169.00,1.83
7168.00,1.83
7167.00,1.83
7166.00,1.83
7165.00,1.83
7164.00,1.83
7163.00,1.83
7162.00,1.84
7161.00,1.83
7160.00,1.83
7159.00,1.83
7158.00,1.83
7157.00,1.83
7156.00,1.83
7155.00,1.83
7154.00,1.82
7153.00,1.82
7152.00,1.81
7151.00,1.80
7150.00,1.79
7149.00,1.78
7148.00,1.77
7147.00,1.76
7146.00,1.75
7145.00,1.74
7144.00,1.73
7143.00,1.72
7142.00,1.72
7141.00,1.71
7140.00,1.70
7139.00,1.69
7138.00,1.67
7137.00,1.66
7136.00,1.65
7135.00,1.64
7134.00,1.63
7133.00,1.63
7132.00,1.62
7131.00,1.61
7130.00,1.60
7129.00,1.59
7128.00,1.59
7127.00,1.58
7126.00,1.58
7125.00,1.57
7124.00,1.57
7123.00,1.57
7122.00,1.56
7121.00,1.56
7120.00,1.56
7119.00,1.56
7118.00,1.55
7117.00,1.55
7116.00,1.55
7115.00,1.54
7114.00,1.54
7113.00,1.54
7112.00,1.54
7111.00,1.54
7110.00,1.54
7109.00,1.54
7108.00,1.54
7107.00,1.54
7106.00,1.54
7105.00,1.53
7104.00,1.53
7103.00,1.53
7102.00,1.53
7101.00,1.52
7100.00,1.52
7099.00,1.52
7098.00,1.51
7097.00,1.51
7096.00,1.51
7095.00,1.50
7094.00,1.50
7093.00,1.49
7092.00,1.49
7091.00,1.48
7090.00,1.48
7089.00,1.47
7088.00,1.46
7087.00,1.46
7086.00,1.45
7085.00,1.44
7084.00,1.44
7083.00,1.43
7082.00,1.43
7081.00,1.42
7080.00,1.42
7079.00,1.41
7078.00,1.41
7077.00,1.40
7076.00,1.39
7075.00,1.39
7074.00,1.38
7073.00,1.38
7072.00,1.37
7071.00,1.37
7070.00,1.36
7069.00,1.35
7068.00,1.35
7067.00,1.34
7066.00,1.34
7065.00,1.34
7064.00,1.33
7063.00,1.33
7062.00,1.33
7061.00,1.32
7060.00,1.32
7059.00,1.31
7058.00,1.31
7057.00,1.30
7056.00,1.29
7055.00,1.28
7054.00,1.28
7053.00,1.27
7052.00,1.26
7051.00,1.26
7050.00,1.25
7049.00,1.25
7048.00,1.24
7047.00,1.24
7046.00,1.24
7045.00,1.24
7044.00,1.23
7043.00,1.23
7042.00,1.22
7041.00,1.22
7040.00,1.22
7039.00,1.22
7038.00,1.21
7037.00,1.21
7036.00,1.21
7035.00,1.21
7034.00,1.21
7033.00,1.21
7032.00,1.21
7031.00,1.21
7030.00,1.22
7029.00,1.22
7028.00,1.23
7027.00,1.23
7026.00,1.24
7025.00,1.24
7024.00,1.24
7023.00,1.24
7022.00,1.24
7021.00,1.24
7020.00,1.24
7019.00,1.24
7018.00,1.25
7017.00,1.25
7016.00,1.25
7015.00,1.25
7014.00,1.25
7013.00,1.26
7012.00,1.26
7011.00,1.26
7010.00,1.26
7009.00,1.26
7008.00,1.26
7007.00,1.26
7006.00,1.26
7005.00,1.26
7004.00,1.26
7003.00,1.26
7002.00,1.26
7001.00,1.25
7000.00,1.25
6999.00,1.25
6998.00,1.25
6997.00,1.25
6996.00,1.24
6995.00,1.24
6994.00,1.24
6993.00,1.24
6992.00,1.24
6991.00,1.25
6990.00,1.25
6989.00,1.25
6988.00,1.25
6987.00,1.24
6986.00,1.24
6985.00,1.24
6984.00,1.24
6983.00,1.24
6982.00,1.23
6981.00,1.23
6980.00,1.23
6979.00,1.22
6978.00,1.22
6977.00,1.21
6976.00,1.21
6975.00,1.20
6974.00,1.20
6973.00,1.20
6972.00,1.19
6971.00,1.19
6970.00,1.18
6969.00,1.18
6968.00,1.17
6967.00,1.17
6966.00,1.16
6965.00,1.15
6964.00,1.14
6963.00,1.14
6962.00,1.13
6961.00,1.12
6960.00,1.12
6959.00,1.11
6958.00,1.11
6957.00,1.11
6956.00,1.11
6955.00,1.11
6954.00,1.11
6953.00,1.11
6952.00,1.12
6951.00,1.12
6950.00,1.12
6949.00,1.13
6948.00,1.13
6947.00,1.14
6946.00,1.14
6945.00,1.15
6944.00,1.15
6943.00,1.16
6942.00,1.16
6941.00,1.17
6940.00,1.17
6939.00,1.18
6938.00,1.19
6937.00,1.20
6936.00,1.20
6935.00,1.21
6934.00,1.22
6933.00,1.23
6932.00,1.23
6931.00,1.24
6930.00,1.24
6929.00,1.24
6928.00,1.24
6927.00,1.24
6926.00,1.25
6925.00,1.25
6924.00,1.25
6923.00,1.25
6922.00,1.25
6921.00,1.25
6920.00,1.25
6919.00,1.25
6918.00,1.25
6917.00,1.26
6916.00,1.26
6915.00,1.26
6914.00,1.26
6913.00,1.26
6912.00,1.26
6911.00,1.26
6910.00,1.25
6909.00,1.25
6908.00,1.25
6907.00,1.24
6906.00,1.24
6905.00,1.23
6904.00,1.22
6903.00,1.21
6902.00,1.20
6901.00,1.20
6900.00,1.19
6899.00,1.18
6898.00,1.17
6897.00,1.16
6896.00,1.15
6895.00,1.14
6894.00,1.13
6893.00,1.12
6892.00,1.11
6891.00,1.10
6890.00,1.09
6889.00,1.08
6888.00,1.07
6887.00,1.06
6886.00,1.05
6885.00,1.04
6884.00,1.03
6883.00,1.02
6882.00,1.02
6881.00,1.01
6880.00,1.01
6879.00,1.01
6878.00,1.01
6877.00,1.01
6876.00,1.01
6875.00,1.01
6874.00,1.02
6873.00,1.02
6872.00,1.03
6871.00,1.03
6870.00,1.04
6869.00,1.04
6868.00,1.05
6867.00,1.05
6866.00,1.06
6865.00,1.07
6864.00,1.07
6863.00,1.08
6862.00,1.09
6861.00,1.09
6860.00,1.10
6859.00,1.11
6858.00,1.11
6857.00,1.12
6856.00,1.12
6855.00,1.12
6854.00,1.12
6853.00,1.12
6852.00,1.12
6851.00,1.12
6850.00,1.12
6849.00,1.12
6848.00,1.12
6847.00,1.11
6846.00,1.11
6845.00,1.11
6844.00,1.10
6843.00,1.10
6842.00,1.10
6841.00,1.09
6840.00,1.09
6839.00,1.08
6838.00,1.08
6837.00,1.07
6836.00,1.07
6835.00,1.07
6834.00,1.06
6833.00,1.06
6832.00,1.06
6831.00,1.07
6830.00,1.07
6829.00,1.08
6828.00,1.08
6827.00,1.09
6826.00,1.10
6825.00,1.10
6824.00,1.11
6823.00,1.12
6822.00,1.13
6821.00,1.14
6820.00,1.15
6819.00,1.16
6818.00,1.17
6817.00,1.18
6816.00,1.19
6815.00,1.20
6814.00,1.21
6813.00,1.22
6812.00,1.24
6811.00,1.25
6810.00,1.26
6809.00,1.27
6808.00,1.27
6807.00,1.28
6806.00,1.29
6805.00,1.29
6804.00,1.30
6803.00,1.30
6802.00,1.30
6801.00,1.31
6800.00,1.31
6799.00,1.31
6798.00,1.30
6797.00,1.30
6796.00,1.30
6795.00,1.29
6794.00,1.29
6793.00,1.29
6792.00,1.28
6791.00,1.28
6790.00,1.27
6789.00,1.27
6788.00,1.26
6787.00,1.26
6786.00,1.25
6785.00,1.25
6784.00,1.24
6783.00,1.23
6782.00,1.23
6781.00,1.22
6780.00,1.22
6779.00,1.22
6778.00,1.21
6777.00,1.21
6776.00,1.20
6775.00,1.20
6774.00,1.20
6773.00,1.20
6772.00,1.20
6771.00,1.20
6770.00,1.21
6769.00,1.21
6768.00,1.21
6767.00,1.22
6766.00,1.22
6765.00,1.23
6764.00,1.23
6763.00,1.24
6762.00,1.24
6761.00,1.25
6760.00,1.25
6759.00,1.26
6758.00,1.26
6757.00,1.27
6756.00,1.27
6755.00,1.28
6754.00,1.29
6753.00,1.29
6752.00,1.30
6751.00,1.31
6750.00,1.31
6749.00,1.32
6748.00,1.33
6747.00,1.33
6746.00,1.34
6745.00,1.34
6744.00,1.35
6743.00,1.35
6742.00,1.36
6741.00,1.36
6740.00,1.37
6739.00,1.37
6738.00,1.38
6737.00,1.38
6736.00,1.38
6735.00,1.39
6734.00,1.39
6733.00,1.40
6732.00,1.40
6731.00,1.41
6730.00,1.41
6729.00,1.42
6728.00,1.42
6727.00,1.43
6726.00,1.43
6725.00,1.44
6724.00,1.44
6723.00,1.45
6722.00,1.45
6721.00,1.46
6720.00,1.46
6719.00,1.46
6718.00,1.46
6717.00,1.46
6716.00,1.47
6715.00,1.46
6714.00,1.46
6713.00,1.46
6712.00,1.46
6711.00,1.46
6710.00,1.46
6709.00,1.46
6708.00,1.46
6707.00,1.46
6706.00,1.46
6705.00,1.46
6704.00,1.45
6703.00,1.45
6702.00,1.45
6701.00,1.44
6700.00,1.44
6699.00,1.44
6698.00,1.43
6697.00,1.43
6696.00,1.42
6695.00,1.42
6694.00,1.41
6693.00,1.41
6692.00,1.40
6691.00,1.40
6690.00,1.40
6689.00,1.40
6688.00,1.40
6687.00,1.40
6686.00,1.40
6685.00,1.40
6684.00,1.40
6683.00,1.40
6682.00,1.40
6681.00,1.40
6680.00,1.40
6679.00,1.40
6678.00,1.40
6677.00,1.40
6676.00,1.41
6675.00,1.41
6674.00,1.41
6673.00,1.41
6672.00,1.42
6671.00,1.42
6670.00,1.42
6669.00,1.43
6668.00,1.43
6667.00,1.43
6666.00,1.44
6665.00,1.44
6664.00,1.44
6663.00,1.45
6662.00,1.45
6661.00,1.45
6660.00,1.46
6659.00,1.46
6658.00,1.46
6657.00,1.46
6656.00,1.46
6655.00,1.46
6654.00,1.47
6653.00,1.47
6652.00,1.47
6651.00,1.47
6650.00,1.47
6649.00,1.47
6648.00,1.48
6647.00,1.48
6646.00,1.48
6645.00,1.48
6644.00,1.48
6643.00,1.48
6642.00,1.49
6641.00,1.49
6640.00,1.49
6639.00,1.49
6638.00,1.49
6637.00,1.50
6636.00,1.50
6635.00,1.50
6634.00,1.51
6633.00,1.51
6632.00,1.51
6631.00,1.52
6630.00,1.52
6629.00,1.53
6628.00,1.53
6627.00,1.54
6626.00,1.54
6625.00,1.55
6624.00,1.55
6623.00,1.56
6622.00,1.56
6621.00,1.57
6620.00,1.57
6619.00,1.58
6618.00,1.59
6617.00,1.59
6616.00,1.60
6615.00,1.61
6614.00,1.62
6613.00,1.63
6612.00,1.64
6611.00,1.64
6610.00,1.65
6609.00,1.66
6608.00,1.66
6607.00,1.67
6606.00,1.67
6605.00,1.68
6604.00,1.68
6603.00,1.69
6602.00,1.69
6601.00,1.70
6600.00,1.70
6599.00,1.70
6598.00,1.71
6597.00,1.71
6596.00,1.71
6595.00,1.71
6594.00,1.71
6593.00,1.71
6592.00,1.71
6591.00,1.70
6590.00,1.70
6589.00,1.70
6588.00,1.69
6587.00,1.69
6586.00,1.69
6585.00,1.68
6584.00,1.68
6583.00,1.68
6582.00,1.68
6581.00,1.68
6580.00,1.68
6579.00,1.68
6578.00,1.68
6577.00,1.68
6576.00,1.68
6575.00,1.68
6574.00,1.69
6573.00,1.69
6572.00,1.69
6571.00,1.69
6570.00,1.70
6569.00,1.70
6568.00,1.70
6567.00,1.71
6566.00,1.71
6565.00,1.71
6564.00,1.71
6563.00,1.72
6562.00,1.72
6561.00,1.72
6560.00,1.72
6559.00,1.72
6558.00,1.72
6557.00,1.71
6556.00,1.71
6555.00,1.71
6554.00,1.71
6553.00,1.71
6552.00,1.71
6551.00,1.71
6550.00,1.70
6549.00,1.70
6548.00,1.70
6547.00,1.69
6546.00,1.69
6545.00,1.69
6544.00,1.69
6543.00,1.68
6542.00,1.68
6541.00,1.68
6540.00,1.68
6539.00,1.68
6538.00,1.68
6537.00,1.69
6536.00,1.69
6535.00,1.70
6534.00,1.70
6533.00,1.70
6532.00,1.71
6531.00,1.71
6530.00,1.72
6529.00,1.72
6528.00,1.72
6527.00,1.73
6526.00,1.73
6525.00,1.73
6524.00,1.73
6523.00,1.74
6522.00,1.74
6521.00,1.74
6520.00,1.75
6519.00,1.75
6518.00,1.76
6517.00,1.76
6516.00,1.77
6515.00,1.77
6514.00,1.77
6513.00,1.78
6512.00,1.78
6511.00,1.78
6510.00,1.78
6509.00,1.79
6508.00,1.79
6507.00,1.79
6506.00,1.79
6505.00,1.80
6504.00,1.80
6503.00,1.81
6502.00,1.81
6501.00,1.82
6500.00,1.82
6499.00,1.83
6498.00,1.83
6497.00,1.84
6496.00,1.84
6495.00,1.85
6494.00,1.85
6493.00,1.85
6492.00,1.86
6491.00,1.86
6490.00,1.86
6489.00,1.86
6488.00,1.87
6487.00,1.87
6486.00,1.87
6485.00,1.87
6484.00,1.88
6483.00,1.88
6482.00,1.88
6481.00,1.88
6480.00,1.88
6479.00,1.88
6478.00,1.88
6477.00,1.88
6476.00,1.88
6475.00,1.88
6474.00,1.88
6473.00,1.88
6472.00,1.88
6471.00,1.88
6470.00,1.88
6469.00,1.88
6468.00,1.88
6467.00,1.88
6466.00,1.88
6465.00,1.88
6464.00,1.88
6463.00,1.89
6462.00,1.89
6461.00,1.89
6460.00,1.89
6459.00,1.90
6458.00,1.90
6457.00,1.90
6456.00,1.91
6455.00,1.91
6454.00,1.91
6453.00,1.92
6452.00,1.92
6451.00,1.92
6450.00,1.92
6449.00,1.92
6448.00,1.93
6447.00,1.93
6446.00,1.93
6445.00,1.93
6444.00,1.93
6443.00,1.93
6442.00,1.93
6441.00,1.93
6440.00,1.94
6439.00,1.94
6438.00,1.94
6437.00,1.94
6436.00,1.94
6435.00,1.94
6434.00,1.94
6433.00,1.94
6432.00,1.94
6431.00,1.94
6430.00,1.94
6429.00,1.94
6428.00,1.94
6427.00,1.94
6426.00,1.94
6425.00,1.94
6424.00,1.95
6423.00,1.95
6422.00,1.95
6421.00,1.95
6420.00,1.96
6419.00,1.96
6418.00,1.96
6417.00,1.97
6416.00,1.97
6415.00,1.97
6414.00,1.97
6413.00,1.97
6412.00,1.98
6411.00,1.98
6410.00,1.98
6409.00,1.98
6408.00,1.98
6407.00,1.98
6406.00,1.98
6405.00,1.98
6404.00,1.98
6403.00,1.98
6402.00,1.98
6401.00,1.97
6400.00,1.97
6399.00,1.97
6398.00,1.96
6397.00,1.96
6396.00,1.95
6395.00,1.95
6394.00,1.95
6393.00,1.94
6392.00,1.94
6391.00,1.93
6390.00,1.93
6389.00,1.93
6388.00,1.92
6387.00,1.92
6386.00,1.92
6385.00,1.92
6384.00,1.92
6383.00,1.91
6382.00,1.91
6381.00,1.91
6380.00,1.91
6379.00,1.92
6378.00,1.92
6377.00,1.92
6376.00,1.93
6375.00,1.93
6374.00,1.93
6373.00,1.94
6372.00,1.94
6371.00,1.95
6370.00,1.95
6369.00,1.96
6368.00,1.96
6367.00,1.97
6366.00,1.97
6365.00,1.97
6364.00,1.98
6363.00,1.98
6362.00,1.99
6361.00,1.99
6360.00,2.00
6359.00,2.00
6358.00,2.01
6357.00,2.02
6356.00,2.02
6355.00,2.03
6354.00,2.03
6353.00,2.03
6352.00,2.04
6351.00,2.04
6350.00,2.04
6349.00,2.05
6348.00,2.05
6347.00,2.06
6346.00,2.06
6345.00,2.07
6344.00,2.07
6343.00,2.08
6342.00,2.09
6341.00,2.10
6340.00,2.10
6339.00,2.11
6338.00,2.12
6337.00,2.12
6336.00,2.13
6335.00,2.14
6334.00,2.14
6333.00,2.14
6332.00,2.15
6331.00,2.15
6330.00,2.16
6329.00,2.16
6328.00,2.16
6327.00,2.17
6326.00,2.17
6325.00,2.17
6324.00,2.18
6323.00,2.18
6322.00,2.18
6321.00,2.18
6320.00,2.18
6319.00,2.19
6318.00,2.19
6317.00,2.19
6316.00,2.19
6315.00,2.19
6314.00,2.19
6313.00,2.19
6312.00,2.19
6311.00,2.19
6310.00,2.19
6309.00,2.19
6308.00,2.19
6307.00,2.19
6306.00,2.19
6305.00,2.19
6304.00,2.19
6303.00,2.19
6302.00,2.19
6301.00,2.19
6300.00,2.19
6299.00,2.19
6298.00,2.20
6297.00,2.20
6296.00,2.20
6295.00,2.20
6294.00,2.20
6293.00,2.20
6292.00,2.20
6291.00,2.19
6290.00,2.19
6289.00,2.19
6288.00,2.19
6287.00,2.19
6286.00,2.18
6285.00,2.18
6284.00,2.18
6283.00,2.18
6282.00,2.18
6281.00,2.18
6280.00,2.18
6279.00,2.18
6278.00,2.18
6277.00,2.18
6276.00,2.19
6275.00,2.19
6274.00,2.19
6273.00,2.19
6272.00,2.20
6271.00,2.20
6270.00,2.20
6269.00,2.20
6268.00,2.21
6267.00,2.21
6266.00,2.21
6265.00,2.21
6264.00,2.22
6263.00,2.22
6262.00,2.23
6261.00,2.23
6260.00,2.24
6259.00,2.24
6258.00,2.25
6257.00,2.25
6256.00,2.26
6255.00,2.26
6254.00,2.26
6253.00,2.26
6252.00,2.26
6251.00,2.26
6250.00,2.26
6249.00,2.26
6248.00,2.26
6247.00,2.26
6246.00,2.26
6245.00,2.26
6244.00,2.26
6243.00,2.26
6242.00,2.26
6241.00,2.26
6240.00,2.26
6239.00,2.26
6238.00,2.26
6237.00,2.26
6236.00,2.26
6235.00,2.26
6234.00,2.26
6233.00,2.26
6232.00,2.26
6231.00,2.26
6230.00,2.26
6229.00,2.26
6228.00,2.26
6227.00,2.26
6226.00,2.27
6225.00,2.27
6224.00,2.27
6223.00,2.27
6222.00,2.28
6221.00,2.28
6220.00,2.28
6219.00,2.29
6218.00,2.29
6217.00,2.30
6216.00,2.30
6215.00,2.30
6214.00,2.31
6213.00,2.31
6212.00,2.32
6211.00,2.32
6210.00,2.32
6209.00,2.33
6208.00,2.33
6207.00,2.33
6206.00,2.34
6205.00,2.34
6204.00,2.34
6203.00,2.34
6202.00,2.34
6201.00,2.34
6200.00,2.34
6199.00,2.34
6198.00,2.34
6197.00,2.34
6196.00,2.35
6195.00,2.35
6194.00,2.35
6193.00,2.35
6192.00,2.35
6191.00,2.35
6190.00,2.35
6189.00,2.35
6188.00,2.35
6187.00,2.35
6186.00,2.34
6185.00,2.34
6184.00,2.34
6183.00,2.34
6182.00,2.33
6181.00,2.33
6180.00,2.33
6179.00,2.32
6178.00,2.32
6177.00,2.32
6176.00,2.32
6175.00,2.31
6174.00,2.31
6173.00,2.31
6172.00,2.31
6171.00,2.31
6170.00,2.31
6169.00,2.31
6168.00,2.31
6167.00,2.31
6166.00,2.31
6165.00,2.31
6164.00,2.31
6163.00,2.31
6162.00,2.31
6161.00,2.32
6160.00,2.32
6159.00,2.33
6158.00,2.33
6157.00,2.34
6156.00,2.35
6155.00,2.36
6154.00,2.37
6153.00,2.38
6152.00,2.40
6151.00,2.41
6150.00,2.42
6149.00,2.43
6148.00,2.45
6147.00,2.46
6146.00,2.47
6145.00,2.48
6144.00,2.50
6143.00,2.51
6142.00,2.52
6141.00,2.53
6140.00,2.54
6139.00,2.54
6138.00,2.55
6137.00,2.56
6136.00,2.56
6135.00,2.57
6134.00,2.57
6133.00,2.58
6132.00,2.58
6131.00,2.58
6130.00,2.58
6129.00,2.58
6128.00,2.58
6127.00,2.58
6126.00,2.58
6125.00,2.57
6124.00,2.57
6123.00,2.57
6122.00,2.56
6121.00,2.56
6120.00,2.55
6119.00,2.55
6118.00,2.54
6117.00,2.54
6116.00,2.54
6115.00,2.54
6114.00,2.53
6113.00,2.53
6112.00,2.53
6111.00,2.53
6110.00,2.53
6109.00,2.52
6108.00,2.52
6107.00,2.52
6106.00,2.52
6105.00,2.52
6104.00,2.52
6103.00,2.52
6102.00,2.53
6101.00,2.53
6100.00,2.53
6099.00,2.53
6098.00,2.54
6097.00,2.54
6096.00,2.55
6095.00,2.55
6094.00,2.56
6093.00,2.56
6092.00,2.57
6091.00,2.57
6090.00,2.57
6089.00,2.58
6088.00,2.58
6087.00,2.59
6086.00,2.59
6085.00,2.59
6084.00,2.60
6083.00,2.60
6082.00,2.61
6081.00,2.61
6080.00,2.61
6079.00,2.61
6078.00,2.61
6077.00,2.61
6076.00,2.61
6075.00,2.61
6074.00,2.61
6073.00,2.61
6072.00,2.61
6071.00,2.61
6070.00,2.60
6069.00,2.60
6068.00,2.60
6067.00,2.59
6066.00,2.59
6065.00,2.59
6064.00,2.58
6063.00,2.58
6062.00,2.58
6061.00,2.58
6060.00,2.58
6059.00,2.58
6058.00,2.58
6057.00,2.58
6056.00,2.58
6055.00,2.58
6054.00,2.58
6053.00,2.58
6052.00,2.58
6051.00,2.58
6050.00,2.59
6049.00,2.59
6048.00,2.59
6047.00,2.60
6046.00,2.60
6045.00,2.61
6044.00,2.61
6043.00,2.62
6042.00,2.62
6041.00,2.63
6040.00,2.63
6039.00,2.64
6038.00,2.64
6037.00,2.64
6036.00,2.64
6035.00,2.65
6034.00,2.65
6033.00,2.65
6032.00,2.64
6031.00,2.64
6030.00,2.64
6029.00,2.64
6028.00,2.64
6027.00,2.63
6026.00,2.63
6025.00,2.63
6024.00,2.62
6023.00,2.62
6022.00,2.61
6021.00,2.61
6020.00,2.60
6019.00,2.60
6018.00,2.59
6017.00,2.58
6016.00,2.58
6015.00,2.57
6014.00,2.56
6013.00,2.56
6012.00,2.55
6011.00,2.54
6010.00,2.54
6009.00,2.53
6008.00,2.53
6007.00,2.53
6006.00,2.53
6005.00,2.52
6004.00,2.52
6003.00,2.52
6002.00,2.52
6001.00,2.52
6000.00,2.52
5999.00,2.52
5998.00,2.53
5997.00,2.53
5996.00,2.53
5995.00,2.53
5994.00,2.53
5993.00,2.54
5992.00,2.54
5991.00,2.54
5990.00,2.55
5989.00,2.55
5988.00,2.56
5987.00,2.56
5986.00,2.56
5985.00,2.57
5984.00,2.57
5983.00,2.57
5982.00,2.58
5981.00,2.58
5980.00,2.58
5979.00,2.58
5978.00,2.58
5977.00,2.58
5976.00,2.58
5975.00,2.58
5974.00,2.58
5973.00,2.57
5972.00,2.57
5971.00,2.57
5970.00,2.57
5969.00,2.57
5968.00,2.56
5967.00,2.56
5966.00,2.56
5965.00,2.55
5964.00,2.55
5963.00,2.54
5962.00,2.54
5961.00,2.53
5960.00,2.53
5959.00,2.52
5958.00,2.51
5957.00,2.51
5956.00,2.50
5955.00,2.50
5954.00,2.49
5953.00,2.49
5952.00,2.48
5951.00,2.48
5950.00,2.47
5949.00,2.47
5948.00,2.46
5947.00,2.46
5946.00,2.46
5945.00,2.45
5944.00,2.45
5943.00,2.44
5942.00,2.44
5941.00,2.43
5940.00,2.43
5939.00,2.43
5938.00,2.42
5937.00,2.42
5936.00,2.42
5935.00,2.42
5934.00,2.42
5933.00,2.42
5932.00,2.42
5931.00,2.42
5930.00,2.42
5929.00,2.42
5928.00,2.42
5927.00,2.42
5926.00,2.41
5925.00,2.41
5924.00,2.41
5923.00,2.41
5922.00,2.41
5921.00,2.41
5920.00,2.41
5919.00,2.41
5918.00,2.41
5917.00,2.41
5916.00,2.41
5915.00,2.41
5914.00,2.41
5913.00,2.41
5912.00,2.41
5911.00,2.40
5910.00,2.40
5909.00,2.40
5908.00,2.40
5907.00,2.39
5906.00,2.39
5905.00,2.39
5904.00,2.39
5903.00,2.39
5902.00,2.39
5901.00,2.39
5900.00,2.39
5899.00,2.39
5898.00,2.39
5897.00,2.40
5896.00,2.40
5895.00,2.40
5894.00,2.40
5893.00,2.40
5892.00,2.40
5891.00,2.41
5890.00,2.41
5889.00,2.41
5888.00,2.41
5887.00,2.41
5886.00,2.41
5885.00,2.41
5884.00,2.41
5883.00,2.41
5882.00,2.41
5881.00,2.42
5880.00,2.42
5879.00,2.42
5878.00,2.42
5877.00,2.42
5876.00,2.43
5875.00,2.43
5874.00,2.43
5873.00,2.43
5872.00,2.43
5871.00,2.42
5870.00,2.42
5869.00,2.42
5868.00,2.42
5867.00,2.42
5866.00,2.42
5865.00,2.42
5864.00,2.42
5863.00,2.42
5862.00,2.42
5861.00,2.42
5860.00,2.42
5859.00,2.42
5858.00,2.42
5857.00,2.42
5856.00,2.43
5855.00,2.43
5854.00,2.43
5853.00,2.43
5852.00,2.43
5851.00,2.43
5850.00,2.44
5849.00,2.44
5848.00,2.44
5847.00,2.44
5846.00,2.44
5845.00,2.45
5844.00,2.45
5843.00,2.45
5842.00,2.46
5841.00,2.46
5840.00,2.47
5839.00,2.47
5838.00,2.48
5837.00,2.48
5836.00,2.49
5835.00,2.49
5834.00,2.49
5833.00,2.49
5832.00,2.49
5831.00,2.50
5830.00,2.50
5829.00,2.50
5828.00,2.50
5827.00,2.50
5826.00,2.50
5825.00,2.50
5824.00,2.50
5823.00,2.50
5822.00,2.50
5821.00,2.50
5820.00,2.50
5819.00,2.50
5818.00,2.50
5817.00,2.49
5816.00,2.49
5815.00,2.49
5814.00,2.48
5813.00,2.48
5812.00,2.47
5811.00,2.47
5810.00,2.47
5809.00,2.46
5808.00,2.46
5807.00,2.45
5806.00,2.45
5805.00,2.45
5804.00,2.45
5803.00,2.44
5802.00,2.44
5801.00,2.44
5800.00,2.43
5799.00,2.43
5798.00,2.42
5797.00,2.42
5796.00,2.41
5795.00,2.41
5794.00,2.41
5793.00,2.41
5792.00,2.41
5791.00,2.41
5790.00,2.41
5789.00,2.40
5788.00,2.40
5787.00,2.40
5786.00,2.40
5785.00,2.40
5784.00,2.40
5783.00,2.40
5782.00,2.40
5781.00,2.40
5780.00,2.39
5779.00,2.39
5778.00,2.39
5777.00,2.39
5776.00,2.39
5775.00,2.39
5774.00,2.39
5773.00,2.39
5772.00,2.39
5771.00,2.39
5770.00,2.39
5769.00,2.39
5768.00,2.39
5767.00,2.39
5766.00,2.39
5765.00,2.39
5764.00,2.40
5763.00,2.40
5762.00,2.40
5761.00,2.40
5760.00,2.40
5759.00,2.40
5758.00,2.40
5757.00,2.41
5756.00,2.41
5755.00,2.41
5754.00,2.42
5753.00,2.42
5752.00,2.43
5751.00,2.43
5750.00,2.44
5749.00,2.44
5748.00,2.45
5747.00,2.45
5746.00,2.45
5745.00,2.46
5744.00,2.46
5743.00,2.46
5742.00,2.46
5741.00,2.47
5740.00,2.47
5739.00,2.47
5738.00,2.47
5737.00,2.47
5736.00,2.47
5735.00,2.47
5734.00,2.47
5733.00,2.47
5732.00,2.47
5731.00,2.47
5730.00,2.47
5729.00,2.47
5728.00,2.47
5727.00,2.47
5726.00,2.47
5725.00,2.47
5724.00,2.47
5723.00,2.46
5722.00,2.46
5721.00,2.46
5720.00,2.46
5719.00,2.46
5718.00,2.46
5717.00,2.46
5716.00,2.46
5715.00,2.46
5714.00,2.46
5713.00,2.46
5712.00,2.46
5711.00,2.46
5710.00,2.46
5709.00,2.46
5708.00,2.46
5707.00,2.46
5706.00,2.46
5705.00,2.45
5704.00,2.45
5703.00,2.45
5702.00,2.45
5701.00,2.45
5700.00,2.44
5699.00,2.44
5698.00,2.44
5697.00,2.43
5696.00,2.43
5695.00,2.43
5694.00,2.42
5693.00,2.42
5692.00,2.42
5691.00,2.42
5690.00,2.41
5689.00,2.41
5688.00,2.41
5687.00,2.41
5686.00,2.40
5685.00,2.40
5684.00,2.40
5683.00,2.40
5682.00,2.39
5681.00,2.39
5680.00,2.39
5679.00,2.39
5678.00,2.40
5677.00,2.40
5676.00,2.40
5675.00,2.40
5674.00,2.41
5673.00,2.41
5672.00,2.42
5671.00,2.42
5670.00,2.43
5669.00,2.43
5668.00,2.43
5667.00,2.44
5666.00,2.44
5665.00,2.45
5664.00,2.45
5663.00,2.45
5662.00,2.46
5661.00,2.46
5660.00,2.46
5659.00,2.46
5658.00,2.47
5657.00,2.47
5656.00,2.47
5655.00,2.47
5654.00,2.47
5653.00,2.48
5652.00,2.48
5651.00,2.48
5650.00,2.47
5649.00,2.47
5648.00,2.47
5647.00,2.47
5646.00,2.47
5645.00,2.47
5644.00,2.47
5643.00,2.47
5642.00,2.46
5641.00,2.46
5640.00,2.46
5639.00,2.46
5638.00,2.46
5637.00,2.46
5636.00,2.46
5635.00,2.46
5634.00,2.46
5633.00,2.46
5632.00,2.47
5631.00,2.47
5630.00,2.47
5629.00,2.47
5628.00,2.47
5627.00,2.47
5626.00,2.47
5625.00,2.47
5624.00,2.47
5623.00,2.47
5622.00,2.48
5621.00,2.48
5620.00,2.48
5619.00,2.48
5618.00,2.48
5617.00,2.48
5616.00,2.48
5615.00,2.48
5614.00,2.48
5613.00,2.48
5612.00,2.48
5611.00,2.48
5610.00,2.48
5609.00,2.48
5608.00,2.48
5607.00,2.48
5606.00,2.48
5605.00,2.48
5604.00,2.48
5603.00,2.48
5602.00,2.48
5601.00,2.48
5600.00,2.47
5599.00,2.47
5598.00,2.47
5597.00,2.47
5596.00,2.47
5595.00,2.47
5594.00,2.47
5593.00,2.47
5592.00,2.47
5591.00,2.48
5590.00,2.48
5589.00,2.48
5588.00,2.48
5587.00,2.48
5586.00,2.48
5585.00,2.48
5584.00,2.48
5583.00,2.48
5582.00,2.48
5581.00,2.48
5580.00,2.48
5579.00,2.49
5578.00,2.49
5577.00,2.49
5576.00,2.49
5575.00,2.50
5574.00,2.50
5573.00,2.50
5572.00,2.51
5571.00,2.51
5570.00,2.51
5569.00,2.52
5568.00,2.52
5567.00,2.52
5566.00,2.53
5565.00,2.53
5564.00,2.54
5563.00,2.54
5562.00,2.54
5561.00,2.55
5560.00,2.55
5559.00,2.56
5558.00,2.56
5557.00,2.56
5556.00,2.56
5555.00,2.57
5554.00,2.57
5553.00,2.57
5552.00,2.57
5551.00,2.57
5550.00,2.57
5549.00,2.57
5548.00,2.57
5547.00,2.57
5546.00,2.57
5545.00,2.56
5544.00,2.56
5543.00,2.56
5542.00,2.56
5541.00,2.56
5540.00,2.56
5539.00,2.56
5538.00,2.55
5537.00,2.55
5536.00,2.55
5535.00,2.55
5534.00,2.55
5533.00,2.55
5532.00,2.54
5531.00,2.54
5530.00,2.54
5529.00,2.55
5528.00,2.55
5527.00,2.55
5526.00,2.56
5525.00,2.56
5524.00,2.56
5523.00,2.57
5522.00,2.57
5521.00,2.58
5520.00,2.58
5519.00,2.59
5518.00,2.59
5517.00,2.59
5516.00,2.60
5515.00,2.60
5514.00,2.60
5513.00,2.60
5512.00,2.61
5511.00,2.61
5510.00,2.61
5509.00,2.62
5508.00,2.62
5507.00,2.62
5506.00,2.62
5505.00,2.62
5504.00,2.62
5503.00,2.62
5502.00,2.62
5501.00,2.62
5500.00,2.62
5499.00,2.61
5498.00,2.61
5497.00,2.60
5496.00,2.60
5495.00,2.59
5494.00,2.59
5493.00,2.59
5492.00,2.58
5491.00,2.58
5490.00,2.58
5489.00,2.58
5488.00,2.57
5487.00,2.57
5486.00,2.57
5485.00,2.57
5484.00,2.57
5483.00,2.58
5482.00,2.58
5481.00,2.58
5480.00,2.58
5479.00,2.58
5478.00,2.59
5477.00,2.59
5476.00,2.59
5475.00,2.60
5474.00,2.60
5473.00,2.61
5472.00,2.61
5471.00,2.62
5470.00,2.62
5469.00,2.63
5468.00,2.63
5467.00,2.64
5466.00,2.65
5465.00,2.65
5464.00,2.65
5463.00,2.66
5462.00,2.66
5461.00,2.67
5460.00,2.67
5459.00,2.67
5458.00,2.67
5457.00,2.68
5456.00,2.68
5455.00,2.68
5454.00,2.68
5453.00,2.68
5452.00,2.68
5451.00,2.68
5450.00,2.68
5449.00,2.67
5448.00,2.67
5447.00,2.67
5446.00,2.67
5445.00,2.67
5444.00,2.66
5443.00,2.66
5442.00,2.66
5441.00,2.65
5440.00,2.65
5439.00,2.65
5438.00,2.64
5437.00,2.64
5436.00,2.64
5435.00,2.63
5434.00,2.63
5433.00,2.63
5432.00,2.62
5431.00,2.62
5430.00,2.62
5429.00,2.61
5428.00,2.61
5427.00,2.61
5426.00,2.60
5425.00,2.60
5424.00,2.60
5423.00,2.60
5422.00,2.60
5421.00,2.60
5420.00,2.60
5419.00,2.60
5418.00,2.60
5417.00,2.60
5416.00,2.60
5415.00,2.61
5414.00,2.61
5413.00,2.61
5412.00,2.61
5411.00,2.61
5410.00,2.61
5409.00,2.61
5408.00,2.61
5407.00,2.62
5406.00,2.62
5405.00,2.62
5404.00,2.62
5403.00,2.62
5402.00,2.62
5401.00,2.63
5400.00,2.63
5399.00,2.63
5398.00,2.63
5397.00,2.63
5396.00,2.63
5395.00,2.63
5394.00,2.62
5393.00,2.62
5392.00,2.62
5391.00,2.62
5390.00,2.61
5389.00,2.61
5388.00,2.61
5387.00,2.60
5386.00,2.60
5385.00,2.59
5384.00,2.59
5383.00,2.58
5382.00,2.58
5381.00,2.57
5380.00,2.56
5379.00,2.55
5378.00,2.55
5377.00,2.54
5376.00,2.53
5375.00,2.52
5374.00,2.51
5373.00,2.50
5372.00,2.49
5371.00,2.48
5370.00,2.47
5369.00,2.45
5368.00,2.44
5367.00,2.43
5366.00,2.41
5365.00,2.40
5364.00,2.38
5363.00,2.37
5362.00,2.35
5361.00,2.33
5360.00,2.31
5359.00,2.30
5358.00,2.28
5357.00,2.26
5356.00,2.24
5355.00,2.22
5354.00,2.20
5353.00,2.19
5352.00,2.17
5351.00,2.15
5350.00,2.13
5349.00,2.11
5348.00,2.09
5347.00,2.08
5346.00,2.06
5345.00,2.04
5344.00,2.02
5343.00,2.01
5342.00,1.99
5341.00,1.97
5340.00,1.95
5339.00,1.94
5338.00,1.92
5337.00,1.90
5336.00,1.89
5335.00,1.87
5334.00,1.86
5333.00,1.85
5332.00,1.83
5331.00,1.82
5330.00,1.80
5329.00,1.79
5328.00,1.77
5327.00,1.76
5326.00,1.75
5325.00,1.73
5324.00,1.72
5323.00,1.70
5322.00,1.69
5321.00,1.67
5320.00,1.65
5319.00,1.64
5318.00,1.62
5317.00,1.60
5316.00,1.58
5315.00,1.57
5314.00,1.55
5313.00,1.53
5312.00,1.52
5311.00,1.50
5310.00,1.48
5309.00,1.47
5308.00,1.45
5307.00,1.43
5306.00,1.41
5305.00,1.40
5304.00,1.38
5303.00,1.36
5302.00,1.35
5301.00,1.33
5300.00,1.32
5299.00,1.30
5298.00,1.29
5297.00,1.28
5296.00,1.26
5295.00,1.25
5294.00,1.24
5293.00,1.22
5292.00,1.21
5291.00,1.20
5290.00,1.19
5289.00,1.18
5288.00,1.17
5287.00,1.16
5286.00,1.15
5285.00,1.14
5284.00,1.13
5283.00,1.12
5282.00,1.12
5281.00,1.11
5280.00,1.10
5279.00,1.09
5278.00,1.09
5277.00,1.08
5276.00,1.07
5275.00,1.07
5274.00,1.06
5273.00,1.05
5272.00,1.05
5271.00,1.04
5270.00,1.03
5269.00,1.03
5268.00,1.02
5267.00,1.01
5266.00,1.01
5265.00,1.00
5264.00,1.00
5263.00,0.99
5262.00,0.99
5261.00,0.99
5260.00,0.98
5259.00,0.98
5258.00,0.98
5257.00,0.97
5256.00,0.97
5255.00,0.96
5254.00,0.96
5253.00,0.96
5252.00,0.95
5251.00,0.95
5250.00,0.94
5249.00,0.94
5248.00,0.94
5247.00,0.93
5246.00,0.93
5245.00,0.93
5244.00,0.92
5243.00,0.92
5242.00,0.92
5241.00,0.92
5240.00,0.91
5239.00,0.91
5238.00,0.91
5237.00,0.91
5236.00,0.90
5235.00,0.90
5234.00,0.90
5233.00,0.90
5232.00,0.90
5231.00,0.90
5230.00,0.90
5229.00,0.89
5228.00,0.89
5227.00,0.89
5226.00,0.89
5225.00,0.89
5224.00,0.89
5223.00,0.89
5222.00,0.89
5221.00,0.89
5220.00,0.89
5219.00,0.89
5218.00,0.89
5217.00,0.89
5216.00,0.89
5215.00,0.89
5214.00,0.90
5213.00,0.90
5212.00,0.90
5211.00,0.90
5210.00,0.91
5209.00,0.91
5208.00,0.91
5207.00,0.91
5206.00,0.91
5205.00,0.91
5204.00,0.91
5203.00,0.92
5202.00,0.92
5201.00,0.92
5200.00,0.92
5199.00,0.93
5198.00,0.93
5197.00,0.93
5196.00,0.94
5195.00,0.94
5194.00,0.95
5193.00,0.95
5192.00,0.96
5191.00,0.96
5190.00,0.96
5189.00,0.97
5188.00,0.97
5187.00,0.97
5186.00,0.98
5185.00,0.98
5184.00,0.99
5183.00,0.99
5182.00,1.00
5181.00,1.00
5180.00,1.01
5179.00,1.01
5178.00,1.02
5177.00,1.02
5176.00,1.03
5175.00,1.03
5174.00,1.03
5173.00,1.04
5172.00,1.04
5171.00,1.04
5170.00,1.05
5169.00,1.05
5168.00,1.05
5167.00,1.05
5166.00,1.05
5165.00,1.06
5164.00,1.06
5163.00,1.06
5162.00,1.06
5161.00,1.06
5160.00,1.06
5159.00,1.06
5158.00,1.06
5157.00,1.06
5156.00,1.06
5155.00,1.05
5154.00,1.05
5153.00,1.04
5152.00,1.04
5151.00,1.04
5150.00,1.03
5149.00,1.03
5148.00,1.02
5147.00,1.02
5146.00,1.01
5145.00,1.01
5144.00,1.01
5143.00,1.00
5142.00,1.00
5141.00,1.00
5140.00,0.99
5139.00,0.99
5138.00,0.98
5137.00,0.98
5136.00,0.98
5135.00,0.97
5134.00,0.97
5133.00,0.97
5132.00,0.97
5131.00,0.96
5130.00,0.96
5129.00,0.97
5128.00,0.97
5127.00,0.97
5126.00,0.97
5125.00,0.97
5124.00,0.98
5123.00,0.98
5122.00,0.98
5121.00,0.99
5120.00,0.99
5119.00,0.99
5118.00,1.00
5117.00,1.00
5116.00,1.00
5115.00,1.00
5114.00,1.01
5113.00,1.01
5112.00,1.01
5111.00,1.01
5110.00,1.01
5109.00,1.01
5108.00,1.01
5107.00,1.01
5106.00,1.01
5105.00,1.01
5104.00,1.01
5103.00,1.01
5102.00,1.00
5101.00,1.00
5100.00,1.00
5099.00,0.99
5098.00,0.99
5097.00,0.98
5096.00,0.98
5095.00,0.98
5094.00,0.97
5093.00,0.97
5092.00,0.96
5091.00,0.96
5090.00,0.96
5089.00,0.96
5088.00,0.96
5087.00,0.96
5086.00,0.96
5085.00,0.96
5084.00,0.96
5083.00,0.96
5082.00,0.96
5081.00,0.97
5080.00,0.97
5079.00,0.97
5078.00,0.98
5077.00,0.98
5076.00,0.99
5075.00,0.99
5074.00,1.00
5073.00,1.00
5072.00,1.01
5071.00,1.02
5070.00,1.02
5069.00,1.03
5068.00,1.03
5067.00,1.04
5066.00,1.05
5065.00,1.05
5064.00,1.06
5063.00,1.06
5062.00,1.07
5061.00,1.07
5060.00,1.08
5059.00,1.08
5058.00,1.08
5057.00,1.09
5056.00,1.09
5055.00,1.09
5054.00,1.09
5053.00,1.09
5052.00,1.09
5051.00,1.10
5050.00,1.10
5049.00,1.10
5048.00,1.10
5047.00,1.11
5046.00,1.11
5045.00,1.11
5044.00,1.12
5043.00,1.12
5042.00,1.12
5041.00,1.12
5040.00,1.13
5039.00,1.13
5038.00,1.13
5037.00,1.13
5036.00,1.14
5035.00,1.14
5034.00,1.14
5033.00,1.15
5032.00,1.15
5031.00,1.15
5030.00,1.16
5029.00,1.16
5028.00,1.16
5027.00,1.16
5026.00,1.17
5025.00,1.17
5024.00,1.17
5023.00,1.17
5022.00,1.17
5021.00,1.17
5020.00,1.17
5019.00,1.17
5018.00,1.17
5017.00,1.17
5016.00,1.17
5015.00,1.17
5014.00,1.17
5013.00,1.17
5012.00,1.17
5011.00,1.17
5010.00,1.17
5009.00,1.17
5008.00,1.17
5007.00,1.17
5006.00,1.17
5005.00,1.17
5004.00,1.17
5003.00,1.17
5002.00,1.17
5001.00,1.17
5000.00,1.17
4999.00,1.17
4998.00,1.17
4997.00,1.18
4996.00,1.18
4995.00,1.18
4994.00,1.18
4993.00,1.19
4992.00,1.19
4991.00,1.19
4990.00,1.20
4989.00,1.20
4988.00,1.20
4987.00,1.21
4986.00,1.21
4985.00,1.21
4984.00,1.22
4983.00,1.22
4982.00,1.23
4981.00,1.23
4980.00,1.24
4979.00,1.24
4978.00,1.25
4977.00,1.25
4976.00,1.26
4975.00,1.26
4974.00,1.27
4973.00,1.27
4972.00,1.27
4971.00,1.28
4970.00,1.28
4969.00,1.29
4968.00,1.29
4967.00,1.29
4966.00,1.30
4965.00,1.30
4964.00,1.30
4963.00,1.30
4962.00,1.31
4961.00,1.31
4960.00,1.31
4959.00,1.32
4958.00,1.32
4957.00,1.32
4956.00,1.32
4955.00,1.32
4954.00,1.32
4953.00,1.32
4952.00,1.32
4951.00,1.33
4950.00,1.33
4949.00,1.33
4948.00,1.33
4947.00,1.33
4946.00,1.33
4945.00,1.33
4944.00,1.33
4943.00,1.33
4942.00,1.33
4941.00,1.33
4940.00,1.34
4939.00,1.34
4938.00,1.34
4937.00,1.34
4936.00,1.34
4935.00,1.35
4934.00,1.35
4933.00,1.35
4932.00,1.35
4931.00,1.36
4930.00,1.36
4929.00,1.36
4928.00,1.37
4927.00,1.37
4926.00,1.37
4925.00,1.38
4924.00,1.38
4923.00,1.39
4922.00,1.39
4921.00,1.39
4920.00,1.40
4919.00,1.40
4918.00,1.41
4917.00,1.41
4916.00,1.42
4915.00,1.42
4914.00,1.43
4913.00,1.43
4912.00,1.43
4911.00,1.44
4910.00,1.44
4909.00,1.45
4908.00,1.45
4907.00,1.45
4906.00,1.45
4905.00,1.46
4904.00,1.46
4903.00,1.46
4902.00,1.46
4901.00,1.47
4900.00,1.47
4899.00,1.47
4898.00,1.47
4897.00,1.47
4896.00,1.47
4895.00,1.47
4894.00,1.48
4893.00,1.48
4892.00,1.48
4891.00,1.48
4890.00,1.48
4889.00,1.48
4888.00,1.48
4887.00,1.48
4886.00,1.48
4885.00,1.48
4884.00,1.48
4883.00,1.48
4882.00,1.48
4881.00,1.48
4880.00,1.48
4879.00,1.49
4878.00,1.49
4877.00,1.49
4876.00,1.49
4875.00,1.49
4874.00,1.49
4873.00,1.49
4872.00,1.49
4871.00,1.49
4870.00,1.49
4869.00,1.49
4868.00,1.49
4867.00,1.49
4866.00,1.50
4865.00,1.50
4864.00,1.50
4863.00,1.50
4862.00,1.51
4861.00,1.51
4860.00,1.51
4859.00,1.52
4858.00,1.52
4857.00,1.52
4856.00,1.52
4855.00,1.53
4854.00,1.53
4853.00,1.53
4852.00,1.54
4851.00,1.54
4850.00,1.55
4849.00,1.56
4848.00,1.56
4847.00,1.57
4846.00,1.58
4845.00,1.58
4844.00,1.59
4843.00,1.60
4842.00,1.60
4841.00,1.61
4840.00,1.61
4839.00,1.62
4838.00,1.62
4837.00,1.62
4836.00,1.63
4835.00,1.63
4834.00,1.63
4833.00,1.63
4832.00,1.64
4831.00,1.64
4830.00,1.64
4829.00,1.64
4828.00,1.64
4827.00,1.64
4826.00,1.64
4825.00,1.63
4824.00,1.63
4823.00,1.63
4822.00,1.63
4821.00,1.63
4820.00,1.62
4819.00,1.62
4818.00,1.62
4817.00,1.62
4816.00,1.62
4815.00,1.62
4814.00,1.62
4813.00,1.62
4812.00,1.62
4811.00,1.63
4810.00,1.63
4809.00,1.64
4808.00,1.64
4807.00,1.65
4806.00,1.66
4805.00,1.67
4804.00,1.68
4803.00,1.69
4802.00,1.70
4801.00,1.71
4800.00,1.72
4799.00,1.73
4798.00,1.74
4797.00,1.75
4796.00,1.76
4795.00,1.77
4794.00,1.78
4793.00,1.79
4792.00,1.80
4791.00,1.81
4790.00,1.82
4789.00,1.82
4788.00,1.83
4787.00,1.84
4786.00,1.84
4785.00,1.84
4784.00,1.84
4783.00,1.84
4782.00,1.84
4781.00,1.84
4780.00,1.84
4779.00,1.84
4778.00,1.84
4777.00,1.84
4776.00,1.84
4775.00,1.84
4774.00,1.83
4773.00,1.83
4772.00,1.83
4771.00,1.83
4770.00,1.82
4769.00,1.82
4768.00,1.82
4767.00,1.82
4766.00,1.82
4765.00,1.81
4764.00,1.81
4763.00,1.81
4762.00,1.81
4761.00,1.81
4760.00,1.81
4759.00,1.81
4758.00,1.82
4757.00,1.82
4756.00,1.83
4755.00,1.83
4754.00,1.84
4753.00,1.85
4752.00,1.85
4751.00,1.86
4750.00,1.86
4749.00,1.87
4748.00,1.88
4747.00,1.88
4746.00,1.89
4745.00,1.90
4744.00,1.91
4743.00,1.91
4742.00,1.92
4741.00,1.93
4740.00,1.94
4739.00,1.94
4738.00,1.95
4737.00,1.96
4736.00,1.97
4735.00,1.97
4734.00,1.98
4733.00,1.99
4732.00,1.99
4731.00,2.00
4730.00,2.00
4729.00,2.01
4728.00,2.01
4727.00,2.01
4726.00,2.02
4725.00,2.02
4724.00,2.02
4723.00,2.03
4722.00,2.03
4721.00,2.03
4720.00,2.03
4719.00,2.03
4718.00,2.04
4717.00,2.04
4716.00,2.04
4715.00,2.04
4714.00,2.05
4713.00,2.05
4712.00,2.05
4711.00,2.06
4710.00,2.06
4709.00,2.06
4708.00,2.06
4707.00,2.07
4706.00,2.07
4705.00,2.07
4704.00,2.08
4703.00,2.08
4702.00,2.09
4701.00,2.09
4700.00,2.10
4699.00,2.11
4698.00,2.11
4697.00,2.12
4696.00,2.13
4695.00,2.13
4694.00,2.14
4693.00,2.15
4692.00,2.16
4691.00,2.16
4690.00,2.17
4689.00,2.18
4688.00,2.18
4687.00,2.19
4686.00,2.20
4685.00,2.20
4684.00,2.21
4683.00,2.22
4682.00,2.23
4681.00,2.23
4680.00,2.24
4679.00,2.25
4678.00,2.26
4677.00,2.26
4676.00,2.27
4675.00,2.28
4674.00,2.29
4673.00,2.29
4672.00,2.30
4671.00,2.31
4670.00,2.31
4669.00,2.32
4668.00,2.33
4667.00,2.33
4666.00,2.34
4665.00,2.34
4664.00,2.35
4663.00,2.35
4662.00,2.36
4661.00,2.37
4660.00,2.37
4659.00,2.38
4658.00,2.38
4657.00,2.39
4656.00,2.40
4655.00,2.40
4654.00,2.41
4653.00,2.41
4652.00,2.41
4651.00,2.42
4650.00,2.42
4649.00,2.42
4648.00,2.43
4647.00,2.43
4646.00,2.43
4645.00,2.43
4644.00,2.43
4643.00,2.44
4642.00,2.44
4641.00,2.44
4640.00,2.44
4639.00,2.44
4638.00,2.44
4637.00,2.45
4636.00,2.44
4635.00,2.44
4634.00,2.44
4633.00,2.44
4632.00,2.43
4631.00,2.43
4630.00,2.43
4629.00,2.42
4628.00,2.42
4627.00,2.41
4626.00,2.41
4625.00,2.40
4624.00,2.40
4623.00,2.40
4622.00,2.39
4621.00,2.39
4620.00,2.39
4619.00,2.38
4618.00,2.38
4617.00,2.37
4616.00,2.37
4615.00,2.37
4614.00,2.36
4613.00,2.36
4612.00,2.36
4611.00,2.36
4610.00,2.36
4609.00,2.36
4608.00,2.36
4607.00,2.37
4606.00,2.37
4605.00,2.38
4604.00,2.38
4603.00,2.39
4602.00,2.40
4601.00,2.40
4600.00,2.41
4599.00,2.41
4598.00,2.42
4597.00,2.43
4596.00,2.43
4595.00,2.44
4594.00,2.45
4593.00,2.45
4592.00,2.46
4591.00,2.47
4590.00,2.47
4589.00,2.48
4588.00,2.49
4587.00,2.49
4586.00,2.50
4585.00,2.50
4584.00,2.51
4583.00,2.51
4582.00,2.51
4581.00,2.52
4580.00,2.52
4579.00,2.52
4578.00,2.52
4577.00,2.52
4576.00,2.52
4575.00,2.52
4574.00,2.52
4573.00,2.52
4572.00,2.52
4571.00,2.52
4570.00,2.53
4569.00,2.53
4568.00,2.53
4567.00,2.53
4566.00,2.54
4565.00,2.54
4564.00,2.54
4563.00,2.54
4562.00,2.55
4561.00,2.55
4560.00,2.56
4559.00,2.56
4558.00,2.56
4557.00,2.57
4556.00,2.57
4555.00,2.58
4554.00,2.58
4553.00,2.59
4552.00,2.60
4551.00,2.60
4550.00,2.61
4549.00,2.62
4548.00,2.62
4547.00,2.63
4546.00,2.63
4545.00,2.64
4544.00,2.64
4543.00,2.64
4542.00,2.65
4541.00,2.65
4540.00,2.65
4539.00,2.65
4538.00,2.65
4537.00,2.65
4536.00,2.65
4535.00,2.65
4534.00,2.65
4533.00,2.65
4532.00,2.64
4531.00,2.64
4530.00,2.64
4529.00,2.63
4528.00,2.63
4527.00,2.63
4526.00,2.62
4525.00,2.62
4524.00,2.61
4523.00,2.61
4522.00,2.60
4521.00,2.60
4520.00,2.59
4519.00,2.59
4518.00,2.58
4517.00,2.58
4516.00,2.57
4515.00,2.57
4514.00,2.56
4513.00,2.56
4512.00,2.55
4511.00,2.54
4510.00,2.54
4509.00,2.53
4508.00,2.53
4507.00,2.53
4506.00,2.53
4505.00,2.53
4504.00,2.53
4503.00,2.53
4502.00,2.53
4501.00,2.52
4500.00,2.52
4499.00,2.52
4498.00,2.52
4497.00,2.52
4496.00,2.52
4495.00,2.52
4494.00,2.52
4493.00,2.52
4492.00,2.52
4491.00,2.53
4490.00,2.53
4489.00,2.53
4488.00,2.54
4487.00,2.54
4486.00,2.55
4485.00,2.55
4484.00,2.56
4483.00,2.56
4482.00,2.56
4481.00,2.57
4480.00,2.57
4479.00,2.57
4478.00,2.57
4477.00,2.57
4476.00,2.57
4475.00,2.57
4474.00,2.57
4473.00,2.57
4472.00,2.57
4471.00,2.57
4470.00,2.57
4469.00,2.57
4468.00,2.57
4467.00,2.57
4466.00,2.56
4465.00,2.56
4464.00,2.56
4463.00,2.55
4462.00,2.55
4461.00,2.54
4460.00,2.53
4459.00,2.53
4458.00,2.52
4457.00,2.51
4456.00,2.50
4455.00,2.49
4454.00,2.49
4453.00,2.48
4452.00,2.47
4451.00,2.46
4450.00,2.45
4449.00,2.44
4448.00,2.43
4447.00,2.42
4446.00,2.41
4445.00,2.39
4444.00,2.38
4443.00,2.37
4442.00,2.35
4441.00,2.33
4440.00,2.32
4439.00,2.30
4438.00,2.29
4437.00,2.27
4436.00,2.26
4435.00,2.24
4434.00,2.23
4433.00,2.21
4432.00,2.20
4431.00,2.18
4430.00,2.17
4429.00,2.15
4428.00,2.14
4427.00,2.12
4426.00,2.11
4425.00,2.10
4424.00,2.08
4423.00,2.07
4422.00,2.05
4421.00,2.04
4420.00,2.03
4419.00,2.01
4418.00,2.00
4417.00,1.99
4416.00,1.98
4415.00,1.97
4414.00,1.97
4413.00,1.96
4412.00,1.95
4411.00,1.94
4410.00,1.94
4409.00,1.93
4408.00,1.93
4407.00,1.92
4406.00,1.92
4405.00,1.92
4404.00,1.92
4403.00,1.92
4402.00,1.92
4401.00,1.92
4400.00,1.92
4399.00,1.92
4398.00,1.92
4397.00,1.92
4396.00,1.93
4395.00,1.93
4394.00,1.93
4393.00,1.94
4392.00,1.95
4391.00,1.95
4390.00,1.96
4389.00,1.97
4388.00,1.98
4387.00,1.99
4386.00,1.99
4385.00,2.00
4384.00,2.01
4383.00,2.02
4382.00,2.03
4381.00,2.04
4380.00,2.05
4379.00,2.05
4378.00,2.06
4377.00,2.07
4376.00,2.08
4375.00,2.08
4374.00,2.09
4373.00,2.10
4372.00,2.10
4371.00,2.11
4370.00,2.11
4369.00,2.12
4368.00,2.12
4367.00,2.12
4366.00,2.12
4365.00,2.12
4364.00,2.11
4363.00,2.11
4362.00,2.10
4361.00,2.10
4360.00,2.09
4359.00,2.08
4358.00,2.07
4357.00,2.06
4356.00,2.05
4355.00,2.04
4354.00,2.03
4353.00,2.02
4352.00,2.01
4351.00,2.00
4350.00,1.99
4349.00,1.98
4348.00,1.98
4347.00,1.97
4346.00,1.96
4345.00,1.95
4344.00,1.95
4343.00,1.94
4342.00,1.94
4341.00,1.94
4340.00,1.93
4339.00,1.93
4338.00,1.94
4337.00,1.94
4336.00,1.94
4335.00,1.95
4334.00,1.96
4333.00,1.96
4332.00,1.97
4331.00,1.98
4330.00,1.99
4329.00,2.00
4328.00,2.01
4327.00,2.02
4326.00,2.03
4325.00,2.04
4324.00,2.05
4323.00,2.06
4322.00,2.07
4321.00,2.08
4320.00,2.09
4319.00,2.10
4318.00,2.11
4317.00,2.12
4316.00,2.13
4315.00,2.13
4314.00,2.14
4313.00,2.15
4312.00,2.16
4311.00,2.16
4310.00,2.17
4309.00,2.17
4308.00,2.18
4307.00,2.18
4306.00,2.19
4305.00,2.19
4304.00,2.19
4303.00,2.20
4302.00,2.20
4301.00,2.21
4300.00,2.21
4299.00,2.22
4298.00,2.22
4297.00,2.23
4296.00,2.24
4295.00,2.24
4294.00,2.25
4293.00,2.26
4292.00,2.27
4291.00,2.28
4290.00,2.28
4289.00,2.29
4288.00,2.30
4287.00,2.30
4286.00,2.31
4285.00,2.32
4284.00,2.32
4283.00,2.33
4282.00,2.33
4281.00,2.34
4280.00,2.34
4279.00,2.35
4278.00,2.35
4277.00,2.35
4276.00,2.36
4275.00,2.36
4274.00,2.36
4273.00,2.36
4272.00,2.37
4271.00,2.37
4270.00,2.37
4269.00,2.37
4268.00,2.37
4267.00,2.36
4266.00,2.36
4265.00,2.36
4264.00,2.36
4263.00,2.36
4262.00,2.36
4261.00,2.36
4260.00,2.36
4259.00,2.36
4258.00,2.36
4257.00,2.37
4256.00,2.37
4255.00,2.37
4254.00,2.38
4253.00,2.38
4252.00,2.39
4251.00,2.39
4250.00,2.40
4249.00,2.40
4248.00,2.40
4247.00,2.41
4246.00,2.42
4245.00,2.42
4244.00,2.43
4243.00,2.44
4242.00,2.45
4241.00,2.47
4240.00,2.48
4239.00,2.49
4238.00,2.50
4237.00,2.51
4236.00,2.52
4235.00,2.53
4234.00,2.54
4233.00,2.55
4232.00,2.56
4231.00,2.57
4230.00,2.57
4229.00,2.58
4228.00,2.59
4227.00,2.59
4226.00,2.60
4225.00,2.60
4224.00,2.61
4223.00,2.61
4222.00,2.61
4221.00,2.62
4220.00,2.62
4219.00,2.62
4218.00,2.61
4217.00,2.61
4216.00,2.61
4215.00,2.60
4214.00,2.60
4213.00,2.59
4212.00,2.58
4211.00,2.58
4210.00,2.57
4209.00,2.56
4208.00,2.56
4207.00,2.55
4206.00,2.54
4205.00,2.53
4204.00,2.53
4203.00,2.52
4202.00,2.51
4201.00,2.51
4200.00,2.50
4199.00,2.50
4198.00,2.49
4197.00,2.48
4196.00,2.48
4195.00,2.47
4194.00,2.47
4193.00,2.47
4192.00,2.46
4191.00,2.46
4190.00,2.46
4189.00,2.45
4188.00,2.45
4187.00,2.45
4186.00,2.44
4185.00,2.44
4184.00,2.44
4183.00,2.43
4182.00,2.43
4181.00,2.42
4180.00,2.42
4179.00,2.41
4178.00,2.41
4177.00,2.40
4176.00,2.40
4175.00,2.39
4174.00,2.39
4173.00,2.38
4172.00,2.37
4171.00,2.37
4170.00,2.36
4169.00,2.35
4168.00,2.35
4167.00,2.34
4166.00,2.34
4165.00,2.33
4164.00,2.33
4163.00,2.32
4162.00,2.32
4161.00,2.31
4160.00,2.31
4159.00,2.30
4158.00,2.30
4157.00,2.30
4156.00,2.30
4155.00,2.30
4154.00,2.30
4153.00,2.30
4152.00,2.31
4151.00,2.31
4150.00,2.31
4149.00,2.31
4148.00,2.32
4147.00,2.32
4146.00,2.33
4145.00,2.34
4144.00,2.34
4143.00,2.35
4142.00,2.36
4141.00,2.37
4140.00,2.38
4139.00,2.39
4138.00,2.40
4137.00,2.40
4136.00,2.41
4135.00,2.42
4134.00,2.42
4133.00,2.43
4132.00,2.44
4131.00,2.44
4130.00,2.45
4129.00,2.45
4128.00,2.45
4127.00,2.45
4126.00,2.45
4125.00,2.46
4124.00,2.46
4123.00,2.46
4122.00,2.46
4121.00,2.46
4120.00,2.46
4119.00,2.46
4118.00,2.46
4117.00,2.46
4116.00,2.45
4115.00,2.45
4114.00,2.44
4113.00,2.43
4112.00,2.43
4111.00,2.42
4110.00,2.42
4109.00,2.41
4108.00,2.41
4107.00,2.41
4106.00,2.40
4105.00,2.40
4104.00,2.40
4103.00,2.39
4102.00,2.39
4101.00,2.39
4100.00,2.38
4099.00,2.38
4098.00,2.37
4097.00,2.37
4096.00,2.36
4095.00,2.35
4094.00,2.34
4093.00,2.33
4092.00,2.32
4091.00,2.31
4090.00,2.31
4089.00,2.30
4088.00,2.29
4087.00,2.29
4086.00,2.28
4085.00,2.28
4084.00,2.27
4083.00,2.27
4082.00,2.26
4081.00,2.26
4080.00,2.26
4079.00,2.25
4078.00,2.25
4077.00,2.25
4076.00,2.24
4075.00,2.24
4074.00,2.24
4073.00,2.24
4072.00,2.25
4071.00,2.25
4070.00,2.26
4069.00,2.26
4068.00,2.27
4067.00,2.28
4066.00,2.29
4065.00,2.30
4064.00,2.31
4063.00,2.32
4062.00,2.33
4061.00,2.34
4060.00,2.34
4059.00,2.35
4058.00,2.36
4057.00,2.36
4056.00,2.37
4055.00,2.37
4054.00,2.38
4053.00,2.38
4052.00,2.39
4051.00,2.39
4050.00,2.40
4049.00,2.40
4048.00,2.41
4047.00,2.41
4046.00,2.41
4045.00,2.41
4044.00,2.41
4043.00,2.40
4042.00,2.40
4041.00,2.40
4040.00,2.39
4039.00,2.39
4038.00,2.39
4037.00,2.39
4036.00,2.40
4035.00,2.40
4034.00,2.40
4033.00,2.41
4032.00,2.42
4031.00,2.42
4030.00,2.43
4029.00,2.43
4028.00,2.44
4027.00,2.45
4026.00,2.45
4025.00,2.46
4024.00,2.47
4023.00,2.48
4022.00,2.49
4021.00,2.50
4020.00,2.52
4019.00,2.53
4018.00,2.55
4017.00,2.57
4016.00,2.59
4015.00,2.61
4014.00,2.63
4013.00,2.65
4012.00,2.67
4011.00,2.68
4010.00,2.70
4009.00,2.71
4008.00,2.72
4007.00,2.74
4006.00,2.76
4005.00,2.77
4004.00,2.79
4003.00,2.81
4002.00,2.83
4001.00,2.86
4000.00,2.88
