创建为新数据集,样品 1188 用户 Administrator 日期 星期二, 七月 30 2019
cm-1,%T
10000.00,2.71
9999.00,2.65
9998.00,2.60
9997.00,2.55
9996.00,2.49
9995.00,2.44
9994.00,2.39
9993.00,2.34
9992.00,2.29
9991.00,2.24
9990.00,2.20
9989.00,2.16
9988.00,2.12
9987.00,2.08
9986.00,2.05
9985.00,2.02
9984.00,1.99
9983.00,1.97
9982.00,1.95
9981.00,1.93
9980.00,1.92
9979.00,1.91
9978.00,1.90
9977.00,1.90
9976.00,1.89
9975.00,1.88
9974.00,1.88
9973.00,1.87
9972.00,1.87
9971.00,1.86
9970.00,1.86
9969.00,1.85
9968.00,1.85
9967.00,1.84
9966.00,1.84
9965.00,1.83
9964.00,1.83
9963.00,1.82
9962.00,1.82
9961.00,1.81
9960.00,1.80
9959.00,1.80
9958.00,1.79
9957.00,1.78
9956.00,1.77
9955.00,1.76
9954.00,1.75
9953.00,1.74
9952.00,1.73
9951.00,1.71
9950.00,1.70
9949.00,1.69
9948.00,1.68
9947.00,1.67
9946.00,1.66
9945.00,1.65
9944.00,1.64
9943.00,1.63
9942.00,1.63
9941.00,1.63
9940.00,1.63
9939.00,1.63
9938.00,1.63
9937.00,1.64
9936.00,1.65
9935.00,1.66
9934.00,1.68
9933.00,1.69
9932.00,1.71
9931.00,1.73
9930.00,1.75
9929.00,1.77
9928.00,1.80
9927.00,1.82
9926.00,1.85
9925.00,1.88
9924.00,1.91
9923.00,1.93
9922.00,1.96
9921.00,1.99
9920.00,2.02
9919.00,2.05
9918.00,2.08
9917.00,2.10
9916.00,2.13
9915.00,2.16
9914.00,2.18
9913.00,2.21
9912.00,2.23
9911.00,2.25
9910.00,2.26
9909.00,2.28
9908.00,2.30
9907.00,2.31
9906.00,2.33
9905.00,2.34
9904.00,2.35
9903.00,2.36
9902.00,2.37
9901.00,2.37
9900.00,2.38
9899.00,2.38
9898.00,2.38
9897.00,2.39
9896.00,2.39
9895.00,2.39
9894.00,2.38
9893.00,2.39
9892.00,2.39
9891.00,2.39
9890.00,2.39
9889.00,2.39
9888.00,2.39
9887.00,2.39
9886.00,2.38
9885.00,2.38
9884.00,2.37
9883.00,2.37
9882.00,2.36
9881.00,2.34
9880.00,2.33
9879.00,2.32
9878.00,2.30
9877.00,2.29
9876.00,2.27
9875.00,2.26
9874.00,2.24
9873.00,2.23
9872.00,2.22
9871.00,2.20
9870.00,2.19
9869.00,2.18
9868.00,2.17
9867.00,2.16
9866.00,2.14
9865.00,2.13
9864.00,2.12
9863.00,2.10
9862.00,2.09
9861.00,2.08
9860.00,2.07
9859.00,2.06
9858.00,2.05
9857.00,2.04
9856.00,2.04
9855.00,2.04
9854.00,2.04
9853.00,2.04
9852.00,2.05
9851.00,2.06
9850.00,2.06
9849.00,2.07
9848.00,2.08
9847.00,2.09
9846.00,2.11
9845.00,2.12
9844.00,2.13
9843.00,2.14
9842.00,2.15
9841.00,2.16
9840.00,2.17
9839.00,2.17
9838.00,2.18
9837.00,2.19
9836.00,2.20
9835.00,2.20
9834.00,2.20
9833.00,2.21
9832.00,2.21
9831.00,2.21
9830.00,2.21
9829.00,2.21
9828.00,2.20
9827.00,2.20
9826.00,2.19
9825.00,2.18
9824.00,2.18
9823.00,2.17
9822.00,2.16
9821.00,2.15
9820.00,2.14
9819.00,2.13
9818.00,2.12
9817.00,2.11
9816.00,2.10
9815.00,2.09
9814.00,2.08
9813.00,2.08
9812.00,2.07
9811.00,2.07
9810.00,2.07
9809.00,2.08
9808.00,2.08
9807.00,2.09
9806.00,2.10
9805.00,2.11
9804.00,2.13
9803.00,2.14
9802.00,2.16
9801.00,2.18
9800.00,2.19
9799.00,2.21
9798.00,2.22
9797.00,2.24
9796.00,2.25
9795.00,2.27
9794.00,2.28
9793.00,2.30
9792.00,2.31
9791.00,2.33
9790.00,2.34
9789.00,2.36
9788.00,2.38
9787.00,2.39
9786.00,2.41
9785.00,2.42
9784.00,2.43
9783.00,2.44
9782.00,2.45
9781.00,2.46
9780.00,2.46
9779.00,2.47
9778.00,2.46
9777.00,2.46
9776.00,2.46
9775.00,2.45
9774.00,2.44
9773.00,2.44
9772.00,2.43
9771.00,2.42
9770.00,2.42
9769.00,2.41
9768.00,2.40
9767.00,2.40
9766.00,2.39
9765.00,2.38
9764.00,2.37
9763.00,2.36
9762.00,2.35
9761.00,2.34
9760.00,2.32
9759.00,2.31
9758.00,2.30
9757.00,2.28
9756.00,2.27
9755.00,2.25
9754.00,2.24
9753.00,2.22
9752.00,2.20
9751.00,2.19
9750.00,2.17
9749.00,2.15
9748.00,2.13
9747.00,2.12
9746.00,2.10
9745.00,2.08
9744.00,2.05
9743.00,2.03
9742.00,2.01
9741.00,1.98
9740.00,1.95
9739.00,1.92
9738.00,1.89
9737.00,1.85
9736.00,1.82
9735.00,1.78
9734.00,1.74
9733.00,1.70
9732.00,1.66
9731.00,1.63
9730.00,1.59
9729.00,1.55
9728.00,1.52
9727.00,1.48
9726.00,1.45
9725.00,1.43
9724.00,1.40
9723.00,1.38
9722.00,1.36
9721.00,1.34
9720.00,1.33
9719.00,1.32
9718.00,1.31
9717.00,1.30
9716.00,1.30
9715.00,1.30
9714.00,1.31
9713.00,1.32
9712.00,1.33
9711.00,1.35
9710.00,1.36
9709.00,1.39
9708.00,1.41
9707.00,1.43
9706.00,1.46
9705.00,1.48
9704.00,1.51
9703.00,1.54
9702.00,1.56
9701.00,1.58
9700.00,1.61
9699.00,1.63
9698.00,1.65
9697.00,1.67
9696.00,1.69
9695.00,1.71
9694.00,1.73
9693.00,1.74
9692.00,1.76
9691.00,1.77
9690.00,1.78
9689.00,1.79
9688.00,1.80
9687.00,1.81
9686.00,1.82
9685.00,1.83
9684.00,1.84
9683.00,1.85
9682.00,1.86
9681.00,1.87
9680.00,1.87
9679.00,1.88
9678.00,1.89
9677.00,1.90
9676.00,1.90
9675.00,1.91
9674.00,1.92
9673.00,1.92
9672.00,1.93
9671.00,1.93
9670.00,1.94
9669.00,1.94
9668.00,1.94
9667.00,1.94
9666.00,1.94
9665.00,1.94
9664.00,1.93
9663.00,1.92
9662.00,1.91
9661.00,1.89
9660.00,1.88
9659.00,1.86
9658.00,1.84
9657.00,1.82
9656.00,1.80
9655.00,1.78
9654.00,1.76
9653.00,1.75
9652.00,1.73
9651.00,1.72
9650.00,1.71
9649.00,1.69
9648.00,1.68
9647.00,1.68
9646.00,1.67
9645.00,1.67
9644.00,1.67
9643.00,1.67
9642.00,1.68
9641.00,1.69
9640.00,1.71
9639.00,1.73
9638.00,1.75
9637.00,1.78
9636.00,1.82
9635.00,1.85
9634.00,1.89
9633.00,1.94
9632.00,1.98
9631.00,2.02
9630.00,2.06
9629.00,2.10
9628.00,2.14
9627.00,2.18
9626.00,2.21
9625.00,2.25
9624.00,2.27
9623.00,2.30
9622.00,2.32
9621.00,2.34
9620.00,2.36
9619.00,2.38
9618.00,2.39
9617.00,2.40
9616.00,2.40
9615.00,2.40
9614.00,2.40
9613.00,2.39
9612.00,2.37
9611.00,2.35
9610.00,2.33
9609.00,2.30
9608.00,2.27
9607.00,2.23
9606.00,2.20
9605.00,2.16
9604.00,2.12
9603.00,2.08
9602.00,2.04
9601.00,2.01
9600.00,1.97
9599.00,1.94
9598.00,1.92
9597.00,1.89
9596.00,1.87
9595.00,1.85
9594.00,1.84
9593.00,1.83
9592.00,1.82
9591.00,1.81
9590.00,1.80
9589.00,1.80
9588.00,1.80
9587.00,1.80
9586.00,1.81
9585.00,1.82
9584.00,1.83
9583.00,1.84
9582.00,1.86
9581.00,1.88
9580.00,1.91
9579.00,1.93
9578.00,1.96
9577.00,1.98
9576.00,2.01
9575.00,2.04
9574.00,2.07
9573.00,2.09
9572.00,2.11
9571.00,2.13
9570.00,2.15
9569.00,2.17
9568.00,2.18
9567.00,2.19
9566.00,2.20
9565.00,2.21
9564.00,2.22
9563.00,2.22
9562.00,2.23
9561.00,2.23
9560.00,2.23
9559.00,2.24
9558.00,2.24
9557.00,2.24
9556.00,2.24
9555.00,2.24
9554.00,2.24
9553.00,2.23
9552.00,2.23
9551.00,2.23
9550.00,2.22
9549.00,2.22
9548.00,2.21
9547.00,2.20
9546.00,2.20
9545.00,2.19
9544.00,2.18
9543.00,2.18
9542.00,2.17
9541.00,2.16
9540.00,2.15
9539.00,2.15
9538.00,2.14
9537.00,2.13
9536.00,2.12
9535.00,2.11
9534.00,2.10
9533.00,2.09
9532.00,2.08
9531.00,2.06
9530.00,2.05
9529.00,2.03
9528.00,2.02
9527.00,2.00
9526.00,1.99
9525.00,1.97
9524.00,1.95
9523.00,1.93
9522.00,1.92
9521.00,1.90
9520.00,1.89
9519.00,1.87
9518.00,1.86
9517.00,1.84
9516.00,1.83
9515.00,1.82
9514.00,1.81
9513.00,1.80
9512.00,1.79
9511.00,1.79
9510.00,1.78
9509.00,1.78
9508.00,1.77
9507.00,1.77
9506.00,1.78
9505.00,1.78
9504.00,1.78
9503.00,1.79
9502.00,1.80
9501.00,1.80
9500.00,1.81
9499.00,1.82
9498.00,1.83
9497.00,1.84
9496.00,1.85
9495.00,1.86
9494.00,1.86
9493.00,1.87
9492.00,1.88
9491.00,1.89
9490.00,1.90
9489.00,1.91
9488.00,1.93
9487.00,1.94
9486.00,1.95
9485.00,1.96
9484.00,1.97
9483.00,1.98
9482.00,1.99
9481.00,1.99
9480.00,2.00
9479.00,2.00
9478.00,2.00
9477.00,2.00
9476.00,2.00
9475.00,2.01
9474.00,2.01
9473.00,2.01
9472.00,2.01
9471.00,2.02
9470.00,2.02
9469.00,2.03
9468.00,2.03
9467.00,2.04
9466.00,2.05
9465.00,2.06
9464.00,2.07
9463.00,2.08
9462.00,2.09
9461.00,2.10
9460.00,2.11
9459.00,2.12
9458.00,2.12
9457.00,2.13
9456.00,2.14
9455.00,2.14
9454.00,2.15
9453.00,2.16
9452.00,2.17
9451.00,2.17
9450.00,2.18
9449.00,2.19
9448.00,2.20
9447.00,2.20
9446.00,2.21
9445.00,2.21
9444.00,2.22
9443.00,2.22
9442.00,2.22
9441.00,2.21
9440.00,2.21
9439.00,2.20
9438.00,2.19
9437.00,2.17
9436.00,2.16
9435.00,2.14
9434.00,2.12
9433.00,2.10
9432.00,2.09
9431.00,2.07
9430.00,2.05
9429.00,2.04
9428.00,2.02
9427.00,2.01
9426.00,1.99
9425.00,1.97
9424.00,1.95
9423.00,1.93
9422.00,1.91
9421.00,1.89
9420.00,1.86
9419.00,1.84
9418.00,1.81
9417.00,1.78
9416.00,1.76
9415.00,1.73
9414.00,1.71
9413.00,1.68
9412.00,1.66
9411.00,1.64
9410.00,1.63
9409.00,1.61
9408.00,1.60
9407.00,1.59
9406.00,1.57
9405.00,1.56
9404.00,1.55
9403.00,1.54
9402.00,1.52
9401.00,1.51
9400.00,1.50
9399.00,1.50
9398.00,1.49
9397.00,1.49
9396.00,1.49
9395.00,1.49
9394.00,1.50
9393.00,1.51
9392.00,1.52
9391.00,1.54
9390.00,1.56
9389.00,1.58
9388.00,1.60
9387.00,1.62
9386.00,1.65
9385.00,1.67
9384.00,1.70
9383.00,1.73
9382.00,1.75
9381.00,1.78
9380.00,1.80
9379.00,1.82
9378.00,1.85
9377.00,1.87
9376.00,1.89
9375.00,1.90
9374.00,1.92
9373.00,1.93
9372.00,1.94
9371.00,1.95
9370.00,1.96
9369.00,1.96
9368.00,1.96
9367.00,1.96
9366.00,1.96
9365.00,1.95
9364.00,1.94
9363.00,1.93
9362.00,1.92
9361.00,1.90
9360.00,1.88
9359.00,1.87
9358.00,1.85
9357.00,1.83
9356.00,1.82
9355.00,1.80
9354.00,1.79
9353.00,1.77
9352.00,1.76
9351.00,1.75
9350.00,1.74
9349.00,1.74
9348.00,1.74
9347.00,1.74
9346.00,1.75
9345.00,1.75
9344.00,1.77
9343.00,1.78
9342.00,1.80
9341.00,1.81
9340.00,1.83
9339.00,1.85
9338.00,1.87
9337.00,1.89
9336.00,1.91
9335.00,1.93
9334.00,1.95
9333.00,1.97
9332.00,1.99
9331.00,2.01
9330.00,2.03
9329.00,2.05
9328.00,2.07
9327.00,2.09
9326.00,2.11
9325.00,2.12
9324.00,2.14
9323.00,2.15
9322.00,2.16
9321.00,2.17
9320.00,2.18
9319.00,2.19
9318.00,2.20
9317.00,2.21
9316.00,2.21
9315.00,2.22
9314.00,2.22
9313.00,2.22
9312.00,2.22
9311.00,2.21
9310.00,2.21
9309.00,2.20
9308.00,2.19
9307.00,2.18
9306.00,2.17
9305.00,2.16
9304.00,2.14
9303.00,2.13
9302.00,2.12
9301.00,2.10
9300.00,2.09
9299.00,2.08
9298.00,2.06
9297.00,2.05
9296.00,2.03
9295.00,2.01
9294.00,1.99
9293.00,1.97
9292.00,1.94
9291.00,1.92
9290.00,1.89
9289.00,1.87
9288.00,1.84
9287.00,1.82
9286.00,1.80
9285.00,1.78
9284.00,1.76
9283.00,1.75
9282.00,1.74
9281.00,1.73
9280.00,1.72
9279.00,1.72
9278.00,1.72
9277.00,1.71
9276.00,1.71
9275.00,1.70
9274.00,1.70
9273.00,1.69
9272.00,1.69
9271.00,1.68
9270.00,1.68
9269.00,1.68
9268.00,1.68
9267.00,1.69
9266.00,1.69
9265.00,1.70
9264.00,1.71
9263.00,1.73
9262.00,1.74
9261.00,1.75
9260.00,1.76
9259.00,1.77
9258.00,1.77
9257.00,1.78
9256.00,1.78
9255.00,1.78
9254.00,1.78
9253.00,1.78
9252.00,1.78
9251.00,1.78
9250.00,1.78
9249.00,1.78
9248.00,1.78
9247.00,1.78
9246.00,1.79
9245.00,1.79
9244.00,1.79
9243.00,1.80
9242.00,1.80
9241.00,1.80
9240.00,1.79
9239.00,1.79
9238.00,1.78
9237.00,1.77
9236.00,1.76
9235.00,1.76
9234.00,1.75
9233.00,1.75
9232.00,1.74
9231.00,1.74
9230.00,1.75
9229.00,1.75
9228.00,1.76
9227.00,1.76
9226.00,1.77
9225.00,1.77
9224.00,1.78
9223.00,1.79
9222.00,1.79
9221.00,1.80
9220.00,1.80
9219.00,1.81
9218.00,1.81
9217.00,1.82
9216.00,1.83
9215.00,1.83
9214.00,1.84
9213.00,1.85
9212.00,1.87
9211.00,1.88
9210.00,1.89
9209.00,1.90
9208.00,1.92
9207.00,1.93
9206.00,1.94
9205.00,1.95
9204.00,1.95
9203.00,1.96
9202.00,1.96
9201.00,1.97
9200.00,1.97
9199.00,1.98
9198.00,1.98
9197.00,1.99
9196.00,2.00
9195.00,2.01
9194.00,2.02
9193.00,2.03
9192.00,2.04
9191.00,2.05
9190.00,2.05
9189.00,2.06
9188.00,2.06
9187.00,2.07
9186.00,2.07
9185.00,2.07
9184.00,2.07
9183.00,2.07
9182.00,2.07
9181.00,2.08
9180.00,2.08
9179.00,2.08
9178.00,2.09
9177.00,2.09
9176.00,2.09
9175.00,2.09
9174.00,2.09
9173.00,2.09
9172.00,2.09
9171.00,2.08
9170.00,2.07
9169.00,2.06
9168.00,2.04
9167.00,2.03
9166.00,2.01
9165.00,1.99
9164.00,1.97
9163.00,1.95
9162.00,1.93
9161.00,1.92
9160.00,1.90
9159.00,1.88
9158.00,1.87
9157.00,1.85
9156.00,1.83
9155.00,1.82
9154.00,1.80
9153.00,1.79
9152.00,1.77
9151.00,1.76
9150.00,1.74
9149.00,1.73
9148.00,1.72
9147.00,1.71
9146.00,1.70
9145.00,1.70
9144.00,1.69
9143.00,1.69
9142.00,1.69
9141.00,1.69
9140.00,1.69
9139.00,1.70
9138.00,1.71
9137.00,1.72
9136.00,1.74
9135.00,1.75
9134.00,1.77
9133.00,1.79
9132.00,1.81
9131.00,1.83
9130.00,1.84
9129.00,1.86
9128.00,1.88
9127.00,1.90
9126.00,1.92
9125.00,1.93
9124.00,1.95
9123.00,1.97
9122.00,1.98
9121.00,2.00
9120.00,2.01
9119.00,2.02
9118.00,2.04
9117.00,2.05
9116.00,2.05
9115.00,2.06
9114.00,2.06
9113.00,2.05
9112.00,2.05
9111.00,2.04
9110.00,2.03
9109.00,2.02
9108.00,2.01
9107.00,1.99
9106.00,1.98
9105.00,1.96
9104.00,1.95
9103.00,1.93
9102.00,1.92
9101.00,1.90
9100.00,1.89
9099.00,1.87
9098.00,1.86
9097.00,1.84
9096.00,1.83
9095.00,1.81
9094.00,1.80
9093.00,1.78
9092.00,1.77
9091.00,1.76
9090.00,1.76
9089.00,1.76
9088.00,1.76
9087.00,1.76
9086.00,1.77
9085.00,1.78
9084.00,1.79
9083.00,1.79
9082.00,1.80
9081.00,1.81
9080.00,1.81
9079.00,1.82
9078.00,1.82
9077.00,1.81
9076.00,1.81
9075.00,1.81
9074.00,1.80
9073.00,1.80
9072.00,1.80
9071.00,1.79
9070.00,1.79
9069.00,1.79
9068.00,1.79
9067.00,1.78
9066.00,1.78
9065.00,1.78
9064.00,1.78
9063.00,1.77
9062.00,1.76
9061.00,1.76
9060.00,1.75
9059.00,1.74
9058.00,1.73
9057.00,1.72
9056.00,1.71
9055.00,1.71
9054.00,1.71
9053.00,1.71
9052.00,1.71
9051.00,1.72
9050.00,1.73
9049.00,1.74
9048.00,1.75
9047.00,1.76
9046.00,1.77
9045.00,1.78
9044.00,1.79
9043.00,1.80
9042.00,1.81
9041.00,1.81
9040.00,1.82
9039.00,1.83
9038.00,1.83
9037.00,1.84
9036.00,1.85
9035.00,1.85
9034.00,1.86
9033.00,1.87
9032.00,1.87
9031.00,1.88
9030.00,1.88
9029.00,1.89
9028.00,1.89
9027.00,1.89
9026.00,1.89
9025.00,1.89
9024.00,1.89
9023.00,1.89
9022.00,1.89
9021.00,1.89
9020.00,1.90
9019.00,1.90
9018.00,1.91
9017.00,1.92
9016.00,1.92
9015.00,1.93
9014.00,1.94
9013.00,1.95
9012.00,1.96
9011.00,1.97
9010.00,1.97
9009.00,1.98
9008.00,1.98
9007.00,1.99
9006.00,1.99
9005.00,2.00
9004.00,2.00
9003.00,2.00
9002.00,2.01
9001.00,2.01
9000.00,2.01
8999.00,2.01
8998.00,2.01
8997.00,2.01
8996.00,2.01
8995.00,2.01
8994.00,2.00
8993.00,2.00
8992.00,1.99
8991.00,1.99
8990.00,1.98
8989.00,1.98
8988.00,1.97
8987.00,1.96
8986.00,1.96
8985.00,1.95
8984.00,1.94
8983.00,1.94
8982.00,1.93
8981.00,1.93
8980.00,1.93
8979.00,1.93
8978.00,1.93
8977.00,1.94
8976.00,1.95
8975.00,1.96
8974.00,1.97
8973.00,1.98
8972.00,2.00
8971.00,2.01
8970.00,2.03
8969.00,2.05
8968.00,2.06
8967.00,2.08
8966.00,2.09
8965.00,2.11
8964.00,2.12
8963.00,2.13
8962.00,2.14
8961.00,2.15
8960.00,2.16
8959.00,2.16
8958.00,2.17
8957.00,2.18
8956.00,2.19
8955.00,2.19
8954.00,2.20
8953.00,2.21
8952.00,2.21
8951.00,2.22
8950.00,2.22
8949.00,2.22
8948.00,2.21
8947.00,2.21
8946.00,2.20
8945.00,2.19
8944.00,2.18
8943.00,2.16
8942.00,2.15
8941.00,2.13
8940.00,2.12
8939.00,2.10
8938.00,2.09
8937.00,2.08
8936.00,2.07
8935.00,2.06
8934.00,2.05
8933.00,2.05
8932.00,2.04
8931.00,2.04
8930.00,2.03
8929.00,2.03
8928.00,2.02
8927.00,2.01
8926.00,2.00
8925.00,1.99
8924.00,1.98
8923.00,1.96
8922.00,1.95
8921.00,1.94
8920.00,1.93
8919.00,1.92
8918.00,1.91
8917.00,1.91
8916.00,1.90
8915.00,1.90
8914.00,1.90
8913.00,1.90
8912.00,1.90
8911.00,1.90
8910.00,1.90
8909.00,1.90
8908.00,1.89
8907.00,1.89
8906.00,1.88
8905.00,1.87
8904.00,1.87
8903.00,1.86
8902.00,1.86
8901.00,1.86
8900.00,1.86
8899.00,1.86
8898.00,1.87
8897.00,1.87
8896.00,1.88
8895.00,1.89
8894.00,1.90
8893.00,1.92
8892.00,1.93
8891.00,1.94
8890.00,1.95
8889.00,1.96
8888.00,1.97
8887.00,1.98
8886.00,1.99
8885.00,2.00
8884.00,2.01
8883.00,2.02
8882.00,2.03
8881.00,2.04
8880.00,2.06
8879.00,2.07
8878.00,2.08
8877.00,2.10
8876.00,2.11
8875.00,2.12
8874.00,2.12
8873.00,2.13
8872.00,2.14
8871.00,2.14
8870.00,2.14
8869.00,2.14
8868.00,2.13
8867.00,2.13
8866.00,2.13
8865.00,2.12
8864.00,2.12
8863.00,2.11
8862.00,2.10
8861.00,2.10
8860.00,2.09
8859.00,2.09
8858.00,2.09
8857.00,2.08
8856.00,2.09
8855.00,2.09
8854.00,2.10
8853.00,2.10
8852.00,2.11
8851.00,2.12
8850.00,2.14
8849.00,2.15
8848.00,2.16
8847.00,2.17
8846.00,2.19
8845.00,2.20
8844.00,2.22
8843.00,2.23
8842.00,2.24
8841.00,2.26
8840.00,2.27
8839.00,2.29
8838.00,2.30
8837.00,2.31
8836.00,2.32
8835.00,2.33
8834.00,2.34
8833.00,2.35
8832.00,2.36
8831.00,2.36
8830.00,2.36
8829.00,2.35
8828.00,2.35
8827.00,2.33
8826.00,2.32
8825.00,2.31
8824.00,2.29
8823.00,2.27
8822.00,2.25
8821.00,2.23
8820.00,2.21
8819.00,2.19
8818.00,2.17
8817.00,2.15
8816.00,2.13
8815.00,2.11
8814.00,2.09
8813.00,2.07
8812.00,2.05
8811.00,2.03
8810.00,2.02
8809.00,2.00
8808.00,1.99
8807.00,1.97
8806.00,1.96
8805.00,1.95
8804.00,1.94
8803.00,1.93
8802.00,1.92
8801.00,1.91
8800.00,1.90
8799.00,1.89
8798.00,1.88
8797.00,1.87
8796.00,1.86
8795.00,1.86
8794.00,1.85
8793.00,1.85
8792.00,1.85
8791.00,1.85
8790.00,1.85
8789.00,1.86
8788.00,1.86
8787.00,1.87
8786.00,1.87
8785.00,1.87
8784.00,1.87
8783.00,1.88
8782.00,1.88
8781.00,1.88
8780.00,1.89
8779.00,1.89
8778.00,1.90
8777.00,1.91
8776.00,1.92
8775.00,1.93
8774.00,1.94
8773.00,1.95
8772.00,1.97
8771.00,1.98
8770.00,1.99
8769.00,2.00
8768.00,2.01
8767.00,2.02
8766.00,2.02
8765.00,2.03
8764.00,2.03
8763.00,2.04
8762.00,2.04
8761.00,2.05
8760.00,2.05
8759.00,2.05
8758.00,2.06
8757.00,2.06
8756.00,2.06
8755.00,2.06
8754.00,2.06
8753.00,2.06
8752.00,2.06
8751.00,2.06
8750.00,2.06
8749.00,2.05
8748.00,2.05
8747.00,2.04
8746.00,2.04
8745.00,2.04
8744.00,2.03
8743.00,2.03
8742.00,2.03
8741.00,2.04
8740.00,2.04
8739.00,2.04
8738.00,2.05
8737.00,2.05
8736.00,2.05
8735.00,2.06
8734.00,2.06
8733.00,2.07
8732.00,2.07
8731.00,2.08
8730.00,2.09
8729.00,2.09
8728.00,2.10
8727.00,2.10
8726.00,2.11
8725.00,2.11
8724.00,2.12
8723.00,2.12
8722.00,2.12
8721.00,2.13
8720.00,2.13
8719.00,2.13
8718.00,2.13
8717.00,2.13
8716.00,2.12
8715.00,2.12
8714.00,2.11
8713.00,2.10
8712.00,2.09
8711.00,2.08
8710.00,2.07
8709.00,2.06
8708.00,2.04
8707.00,2.03
8706.00,2.01
8705.00,2.00
8704.00,1.98
8703.00,1.96
8702.00,1.94
8701.00,1.92
8700.00,1.90
8699.00,1.88
8698.00,1.87
8697.00,1.85
8696.00,1.84
8695.00,1.82
8694.00,1.81
8693.00,1.80
8692.00,1.79
8691.00,1.79
8690.00,1.78
8689.00,1.78
8688.00,1.77
8687.00,1.77
8686.00,1.77
8685.00,1.76
8684.00,1.76
8683.00,1.76
8682.00,1.76
8681.00,1.76
8680.00,1.77
8679.00,1.78
8678.00,1.79
8677.00,1.80
8676.00,1.82
8675.00,1.83
8674.00,1.85
8673.00,1.87
8672.00,1.90
8671.00,1.92
8670.00,1.94
8669.00,1.96
8668.00,1.98
8667.00,2.00
8666.00,2.01
8665.00,2.02
8664.00,2.03
8663.00,2.04
8662.00,2.05
8661.00,2.05
8660.00,2.06
8659.00,2.06
8658.00,2.07
8657.00,2.07
8656.00,2.07
8655.00,2.07
8654.00,2.06
8653.00,2.06
8652.00,2.05
8651.00,2.04
8650.00,2.02
8649.00,2.00
8648.00,1.98
8647.00,1.96
8646.00,1.93
8645.00,1.90
8644.00,1.87
8643.00,1.84
8642.00,1.81
8641.00,1.78
8640.00,1.75
8639.00,1.73
8638.00,1.70
8637.00,1.68
8636.00,1.65
8635.00,1.63
8634.00,1.62
8633.00,1.60
8632.00,1.59
8631.00,1.57
8630.00,1.56
8629.00,1.56
8628.00,1.55
8627.00,1.54
8626.00,1.54
8625.00,1.53
8624.00,1.53
8623.00,1.53
8622.00,1.54
8621.00,1.54
8620.00,1.55
8619.00,1.56
8618.00,1.57
8617.00,1.58
8616.00,1.60
8615.00,1.61
8614.00,1.63
8613.00,1.64
8612.00,1.66
8611.00,1.67
8610.00,1.69
8609.00,1.70
8608.00,1.71
8607.00,1.73
8606.00,1.74
8605.00,1.75
8604.00,1.76
8603.00,1.77
8602.00,1.78
8601.00,1.79
8600.00,1.80
8599.00,1.82
8598.00,1.83
8597.00,1.84
8596.00,1.85
8595.00,1.86
8594.00,1.87
8593.00,1.87
8592.00,1.88
8591.00,1.88
8590.00,1.89
8589.00,1.89
8588.00,1.90
8587.00,1.90
8586.00,1.91
8585.00,1.91
8584.00,1.92
8583.00,1.92
8582.00,1.92
8581.00,1.93
8580.00,1.93
8579.00,1.93
8578.00,1.93
8577.00,1.93
8576.00,1.93
8575.00,1.93
8574.00,1.93
8573.00,1.93
8572.00,1.92
8571.00,1.92
8570.00,1.92
8569.00,1.92
8568.00,1.93
8567.00,1.93
8566.00,1.93
8565.00,1.93
8564.00,1.94
8563.00,1.94
8562.00,1.94
8561.00,1.94
8560.00,1.94
8559.00,1.95
8558.00,1.95
8557.00,1.95
8556.00,1.96
8555.00,1.97
8554.00,1.98
8553.00,1.99
8552.00,2.00
8551.00,2.02
8550.00,2.03
8549.00,2.05
8548.00,2.07
8547.00,2.09
8546.00,2.11
8545.00,2.12
8544.00,2.14
8543.00,2.16
8542.00,2.17
8541.00,2.19
8540.00,2.20
8539.00,2.21
8538.00,2.22
8537.00,2.23
8536.00,2.25
8535.00,2.26
8534.00,2.26
8533.00,2.27
8532.00,2.28
8531.00,2.29
8530.00,2.30
8529.00,2.31
8528.00,2.31
8527.00,2.31
8526.00,2.32
8525.00,2.32
8524.00,2.32
8523.00,2.31
8522.00,2.31
8521.00,2.30
8520.00,2.29
8519.00,2.28
8518.00,2.27
8517.00,2.26
8516.00,2.25
8515.00,2.24
8514.00,2.22
8513.00,2.21
8512.00,2.20
8511.00,2.19
8510.00,2.18
8509.00,2.17
8508.00,2.16
8507.00,2.15
8506.00,2.14
8505.00,2.12
8504.00,2.10
8503.00,2.08
8502.00,2.06
8501.00,2.04
8500.00,2.02
8499.00,1.99
8498.00,1.97
8497.00,1.94
8496.00,1.92
8495.00,1.89
8494.00,1.87
8493.00,1.85
8492.00,1.83
8491.00,1.81
8490.00,1.79
8489.00,1.78
8488.00,1.77
8487.00,1.75
8486.00,1.74
8485.00,1.73
8484.00,1.71
8483.00,1.70
8482.00,1.69
8481.00,1.69
8480.00,1.68
8479.00,1.68
8478.00,1.68
8477.00,1.68
8476.00,1.68
8475.00,1.69
8474.00,1.70
8473.00,1.71
8472.00,1.73
8471.00,1.74
8470.00,1.76
8469.00,1.78
8468.00,1.80
8467.00,1.82
8466.00,1.83
8465.00,1.85
8464.00,1.87
8463.00,1.88
8462.00,1.90
8461.00,1.91
8460.00,1.92
8459.00,1.93
8458.00,1.93
8457.00,1.94
8456.00,1.94
8455.00,1.94
8454.00,1.95
8453.00,1.95
8452.00,1.95
8451.00,1.94
8450.00,1.94
8449.00,1.94
8448.00,1.93
8447.00,1.93
8446.00,1.92
8445.00,1.91
8444.00,1.91
8443.00,1.90
8442.00,1.89
8441.00,1.88
8440.00,1.87
8439.00,1.86
8438.00,1.85
8437.00,1.85
8436.00,1.84
8435.00,1.84
8434.00,1.84
8433.00,1.85
8432.00,1.86
8431.00,1.86
8430.00,1.87
8429.00,1.89
8428.00,1.90
8427.00,1.91
8426.00,1.93
8425.00,1.94
8424.00,1.95
8423.00,1.97
8422.00,1.99
8421.00,2.00
8420.00,2.02
8419.00,2.03
8418.00,2.05
8417.00,2.06
8416.00,2.07
8415.00,2.09
8414.00,2.10
8413.00,2.11
8412.00,2.12
8411.00,2.13
8410.00,2.13
8409.00,2.14
8408.00,2.14
8407.00,2.14
8406.00,2.13
8405.00,2.13
8404.00,2.12
8403.00,2.12
8402.00,2.11
8401.00,2.10
8400.00,2.09
8399.00,2.09
8398.00,2.08
8397.00,2.07
8396.00,2.07
8395.00,2.06
8394.00,2.05
8393.00,2.05
8392.00,2.04
8391.00,2.04
8390.00,2.03
8389.00,2.02
8388.00,2.02
8387.00,2.02
8386.00,2.01
8385.00,2.01
8384.00,2.01
8383.00,2.01
8382.00,2.01
8381.00,2.02
8380.00,2.02
8379.00,2.02
8378.00,2.03
8377.00,2.03
8376.00,2.04
8375.00,2.04
8374.00,2.05
8373.00,2.05
8372.00,2.05
8371.00,2.05
8370.00,2.05
8369.00,2.05
8368.00,2.05
8367.00,2.04
8366.00,2.04
8365.00,2.04
8364.00,2.04
8363.00,2.04
8362.00,2.04
8361.00,2.04
8360.00,2.04
8359.00,2.04
8358.00,2.04
8357.00,2.04
8356.00,2.04
8355.00,2.03
8354.00,2.03
8353.00,2.03
8352.00,2.03
8351.00,2.02
8350.00,2.02
8349.00,2.02
8348.00,2.02
8347.00,2.02
8346.00,2.02
8345.00,2.02
8344.00,2.02
8343.00,2.02
8342.00,2.02
8341.00,2.02
8340.00,2.02
8339.00,2.03
8338.00,2.03
8337.00,2.03
8336.00,2.02
8335.00,2.02
8334.00,2.02
8333.00,2.02
8332.00,2.01
8331.00,2.01
8330.00,2.01
8329.00,2.00
8328.00,2.00
8327.00,1.99
8326.00,1.99
8325.00,1.98
8324.00,1.98
8323.00,1.97
8322.00,1.97
8321.00,1.97
8320.00,1.97
8319.00,1.97
8318.00,1.97
8317.00,1.97
8316.00,1.97
8315.00,1.97
8314.00,1.97
8313.00,1.96
8312.00,1.96
8311.00,1.96
8310.00,1.95
8309.00,1.95
8308.00,1.94
8307.00,1.94
8306.00,1.93
8305.00,1.93
8304.00,1.93
8303.00,1.93
8302.00,1.93
8301.00,1.93
8300.00,1.93
8299.00,1.93
8298.00,1.93
8297.00,1.93
8296.00,1.93
8295.00,1.93
8294.00,1.92
8293.00,1.92
8292.00,1.92
8291.00,1.91
8290.00,1.91
8289.00,1.90
8288.00,1.90
8287.00,1.90
8286.00,1.90
8285.00,1.90
8284.00,1.90
8283.00,1.90
8282.00,1.91
8281.00,1.91
8280.00,1.91
8279.00,1.92
8278.00,1.92
8277.00,1.93
8276.00,1.93
8275.00,1.94
8274.00,1.94
8273.00,1.95
8272.00,1.95
8271.00,1.96
8270.00,1.96
8269.00,1.96
8268.00,1.96
8267.00,1.97
8266.00,1.97
8265.00,1.97
8264.00,1.97
8263.00,1.96
8262.00,1.96
8261.00,1.96
8260.00,1.96
8259.00,1.96
8258.00,1.96
8257.00,1.96
8256.00,1.96
8255.00,1.95
8254.00,1.95
8253.00,1.95
8252.00,1.94
8251.00,1.93
8250.00,1.93
8249.00,1.92
8248.00,1.91
8247.00,1.91
8246.00,1.90
8245.00,1.89
8244.00,1.88
8243.00,1.88
8242.00,1.87
8241.00,1.87
8240.00,1.87
8239.00,1.87
8238.00,1.88
8237.00,1.88
8236.00,1.89
8235.00,1.89
8234.00,1.90
8233.00,1.91
8232.00,1.91
8231.00,1.92
8230.00,1.93
8229.00,1.94
8228.00,1.94
8227.00,1.95
8226.00,1.96
8225.00,1.98
8224.00,1.99
8223.00,2.00
8222.00,2.02
8221.00,2.04
8220.00,2.05
8219.00,2.07
8218.00,2.08
8217.00,2.09
8216.00,2.11
8215.00,2.12
8214.00,2.13
8213.00,2.13
8212.00,2.14
8211.00,2.14
8210.00,2.14
8209.00,2.14
8208.00,2.14
8207.00,2.14
8206.00,2.14
8205.00,2.14
8204.00,2.13
8203.00,2.13
8202.00,2.12
8201.00,2.12
8200.00,2.11
8199.00,2.11
8198.00,2.10
8197.00,2.09
8196.00,2.08
8195.00,2.07
8194.00,2.06
8193.00,2.05
8192.00,2.05
8191.00,2.04
8190.00,2.03
8189.00,2.03
8188.00,2.02
8187.00,2.02
8186.00,2.02
8185.00,2.01
8184.00,2.01
8183.00,2.01
8182.00,2.02
8181.00,2.02
8180.00,2.03
8179.00,2.03
8178.00,2.04
8177.00,2.06
8176.00,2.07
8175.00,2.08
8174.00,2.09
8173.00,2.11
8172.00,2.12
8171.00,2.14
8170.00,2.16
8169.00,2.17
8168.00,2.19
8167.00,2.21
8166.00,2.22
8165.00,2.24
8164.00,2.25
8163.00,2.27
8162.00,2.28
8161.00,2.29
8160.00,2.30
8159.00,2.31
8158.00,2.32
8157.00,2.33
8156.00,2.34
8155.00,2.35
8154.00,2.35
8153.00,2.36
8152.00,2.36
8151.00,2.36
8150.00,2.36
8149.00,2.35
8148.00,2.35
8147.00,2.34
8146.00,2.34
8145.00,2.33
8144.00,2.32
8143.00,2.31
8142.00,2.30
8141.00,2.29
8140.00,2.28
8139.00,2.27
8138.00,2.26
8137.00,2.25
8136.00,2.24
8135.00,2.23
8134.00,2.23
8133.00,2.22
8132.00,2.22
8131.00,2.22
8130.00,2.21
8129.00,2.21
8128.00,2.21
8127.00,2.21
8126.00,2.21
8125.00,2.21
8124.00,2.21
8123.00,2.21
8122.00,2.21
8121.00,2.21
8120.00,2.21
8119.00,2.21
8118.00,2.21
8117.00,2.21
8116.00,2.21
8115.00,2.21
8114.00,2.20
8113.00,2.20
8112.00,2.20
8111.00,2.20
8110.00,2.20
8109.00,2.20
8108.00,2.20
8107.00,2.20
8106.00,2.20
8105.00,2.20
8104.00,2.20
8103.00,2.19
8102.00,2.19
8101.00,2.18
8100.00,2.17
8099.00,2.15
8098.00,2.14
8097.00,2.13
8096.00,2.12
8095.00,2.10
8094.00,2.09
8093.00,2.08
8092.00,2.07
8091.00,2.06
8090.00,2.06
8089.00,2.05
8088.00,2.04
8087.00,2.04
8086.00,2.03
8085.00,2.02
8084.00,2.01
8083.00,2.00
8082.00,1.98
8081.00,1.97
8080.00,1.96
8079.00,1.94
8078.00,1.93
8077.00,1.92
8076.00,1.91
8075.00,1.90
8074.00,1.89
8073.00,1.88
8072.00,1.87
8071.00,1.87
8070.00,1.87
8069.00,1.86
8068.00,1.86
8067.00,1.86
8066.00,1.85
8065.00,1.85
8064.00,1.85
8063.00,1.84
8062.00,1.84
8061.00,1.84
8060.00,1.84
8059.00,1.85
8058.00,1.85
8057.00,1.85
8056.00,1.86
8055.00,1.86
8054.00,1.87
8053.00,1.87
8052.00,1.88
8051.00,1.89
8050.00,1.89
8049.00,1.90
8048.00,1.91
8047.00,1.91
8046.00,1.92
8045.00,1.93
8044.00,1.94
8043.00,1.95
8042.00,1.96
8041.00,1.96
8040.00,1.97
8039.00,1.98
8038.00,1.99
8037.00,2.00
8036.00,2.01
8035.00,2.02
8034.00,2.03
8033.00,2.04
8032.00,2.05
8031.00,2.05
8030.00,2.06
8029.00,2.07
8028.00,2.08
8027.00,2.08
8026.00,2.09
8025.00,2.10
8024.00,2.11
8023.00,2.12
8022.00,2.13
8021.00,2.14
8020.00,2.15
8019.00,2.16
8018.00,2.17
8017.00,2.17
8016.00,2.18
8015.00,2.18
8014.00,2.19
8013.00,2.19
8012.00,2.19
8011.00,2.20
8010.00,2.20
8009.00,2.20
8008.00,2.20
8007.00,2.20
8006.00,2.20
8005.00,2.20
8004.00,2.20
8003.00,2.20
8002.00,2.19
8001.00,2.19
8000.00,2.19
7999.00,2.18
7998.00,2.17
7997.00,2.17
7996.00,2.16
7995.00,2.15
7994.00,2.14
7993.00,2.13
7992.00,2.13
7991.00,2.12
7990.00,2.11
7989.00,2.10
7988.00,2.09
7987.00,2.09
7986.00,2.08
7985.00,2.07
7984.00,2.06
7983.00,2.05
7982.00,2.04
7981.00,2.03
7980.00,2.02
7979.00,2.01
7978.00,2.00
7977.00,2.00
7976.00,1.99
7975.00,1.99
7974.00,1.99
7973.00,1.99
7972.00,1.99
7971.00,1.99
7970.00,1.99
7969.00,1.99
7968.00,1.99
7967.00,2.00
7966.00,2.00
7965.00,2.00
7964.00,2.01
7963.00,2.01
7962.00,2.02
7961.00,2.02
7960.00,2.03
7959.00,2.04
7958.00,2.05
7957.00,2.06
7956.00,2.07
7955.00,2.08
7954.00,2.09
7953.00,2.11
7952.00,2.12
7951.00,2.13
7950.00,2.15
7949.00,2.16
7948.00,2.17
7947.00,2.18
7946.00,2.18
7945.00,2.19
7944.00,2.20
7943.00,2.20
7942.00,2.21
7941.00,2.22
7940.00,2.22
7939.00,2.23
7938.00,2.23
7937.00,2.24
7936.00,2.24
7935.00,2.24
7934.00,2.24
7933.00,2.24
7932.00,2.24
7931.00,2.24
7930.00,2.24
7929.00,2.23
7928.00,2.23
7927.00,2.22
7926.00,2.22
7925.00,2.21
7924.00,2.21
7923.00,2.20
7922.00,2.20
7921.00,2.20
7920.00,2.20
7919.00,2.20
7918.00,2.20
7917.00,2.20
7916.00,2.20
7915.00,2.20
7914.00,2.20
7913.00,2.20
7912.00,2.20
7911.00,2.20
7910.00,2.20
7909.00,2.20
7908.00,2.21
7907.00,2.21
7906.00,2.21
7905.00,2.21
7904.00,2.22
7903.00,2.23
7902.00,2.23
7901.00,2.24
7900.00,2.25
7899.00,2.26
7898.00,2.27
7897.00,2.27
7896.00,2.27
7895.00,2.27
7894.00,2.27
7893.00,2.27
7892.00,2.26
7891.00,2.25
7890.00,2.25
7889.00,2.24
7888.00,2.23
7887.00,2.23
7886.00,2.22
7885.00,2.22
7884.00,2.21
7883.00,2.21
7882.00,2.20
7881.00,2.20
7880.00,2.19
7879.00,2.18
7878.00,2.17
7877.00,2.16
7876.00,2.15
7875.00,2.13
7874.00,2.12
7873.00,2.11
7872.00,2.10
7871.00,2.08
7870.00,2.07
7869.00,2.07
7868.00,2.06
7867.00,2.06
7866.00,2.05
7865.00,2.05
7864.00,2.05
7863.00,2.05
7862.00,2.05
7861.00,2.04
7860.00,2.04
7859.00,2.04
7858.00,2.04
7857.00,2.04
7856.00,2.04
7855.00,2.05
7854.00,2.05
7853.00,2.05
7852.00,2.06
7851.00,2.07
7850.00,2.07
7849.00,2.08
7848.00,2.09
7847.00,2.10
7846.00,2.11
7845.00,2.12
7844.00,2.12
7843.00,2.13
7842.00,2.13
7841.00,2.14
7840.00,2.14
7839.00,2.14
7838.00,2.15
7837.00,2.15
7836.00,2.15
7835.00,2.15
7834.00,2.15
7833.00,2.15
7832.00,2.15
7831.00,2.15
7830.00,2.14
7829.00,2.14
7828.00,2.14
7827.00,2.14
7826.00,2.13
7825.00,2.13
7824.00,2.12
7823.00,2.12
7822.00,2.11
7821.00,2.10
7820.00,2.09
7819.00,2.08
7818.00,2.07
7817.00,2.07
7816.00,2.06
7815.00,2.05
7814.00,2.05
7813.00,2.05
7812.00,2.04
7811.00,2.04
7810.00,2.04
7809.00,2.04
7808.00,2.05
7807.00,2.05
7806.00,2.05
7805.00,2.05
7804.00,2.06
7803.00,2.06
7802.00,2.06
7801.00,2.07
7800.00,2.07
7799.00,2.08
7798.00,2.08
7797.00,2.09
7796.00,2.10
7795.00,2.11
7794.00,2.12
7793.00,2.13
7792.00,2.14
7791.00,2.15
7790.00,2.16
7789.00,2.18
7788.00,2.19
7787.00,2.20
7786.00,2.21
7785.00,2.22
7784.00,2.23
7783.00,2.24
7782.00,2.25
7781.00,2.26
7780.00,2.27
7779.00,2.29
7778.00,2.30
7777.00,2.31
7776.00,2.32
7775.00,2.34
7774.00,2.35
7773.00,2.36
7772.00,2.37
7771.00,2.38
7770.00,2.39
7769.00,2.40
7768.00,2.41
7767.00,2.42
7766.00,2.42
7765.00,2.43
7764.00,2.43
7763.00,2.44
7762.00,2.44
7761.00,2.44
7760.00,2.44
7759.00,2.44
7758.00,2.43
7757.00,2.43
7756.00,2.43
7755.00,2.42
7754.00,2.41
7753.00,2.41
7752.00,2.40
7751.00,2.39
7750.00,2.38
7749.00,2.37
7748.00,2.35
7747.00,2.34
7746.00,2.33
7745.00,2.31
7744.00,2.30
7743.00,2.28
7742.00,2.27
7741.00,2.25
7740.00,2.24
7739.00,2.23
7738.00,2.22
7737.00,2.21
7736.00,2.20
7735.00,2.19
7734.00,2.19
7733.00,2.18
7732.00,2.18
7731.00,2.18
7730.00,2.17
7729.00,2.17
7728.00,2.17
7727.00,2.17
7726.00,2.17
7725.00,2.16
7724.00,2.16
7723.00,2.16
7722.00,2.16
7721.00,2.16
7720.00,2.16
7719.00,2.16
7718.00,2.16
7717.00,2.16
7716.00,2.17
7715.00,2.17
7714.00,2.17
7713.00,2.17
7712.00,2.17
7711.00,2.17
7710.00,2.17
7709.00,2.17
7708.00,2.17
7707.00,2.17
7706.00,2.16
7705.00,2.16
7704.00,2.16
7703.00,2.16
7702.00,2.15
7701.00,2.15
7700.00,2.15
7699.00,2.15
7698.00,2.15
7697.00,2.15
7696.00,2.15
7695.00,2.16
7694.00,2.16
7693.00,2.17
7692.00,2.17
7691.00,2.17
7690.00,2.18
7689.00,2.18
7688.00,2.18
7687.00,2.19
7686.00,2.19
7685.00,2.19
7684.00,2.20
7683.00,2.20
7682.00,2.20
7681.00,2.21
7680.00,2.21
7679.00,2.22
7678.00,2.22
7677.00,2.22
7676.00,2.22
7675.00,2.22
7674.00,2.22
7673.00,2.22
7672.00,2.22
7671.00,2.22
7670.00,2.21
7669.00,2.21
7668.00,2.20
7667.00,2.20
7666.00,2.20
7665.00,2.19
7664.00,2.19
7663.00,2.19
7662.00,2.19
7661.00,2.19
7660.00,2.19
7659.00,2.19
7658.00,2.18
7657.00,2.18
7656.00,2.18
7655.00,2.18
7654.00,2.18
7653.00,2.18
7652.00,2.18
7651.00,2.18
7650.00,2.19
7649.00,2.19
7648.00,2.19
7647.00,2.20
7646.00,2.21
7645.00,2.22
7644.00,2.23
7643.00,2.24
7642.00,2.25
7641.00,2.26
7640.00,2.27
7639.00,2.28
7638.00,2.29
7637.00,2.30
7636.00,2.30
7635.00,2.31
7634.00,2.32
7633.00,2.32
7632.00,2.33
7631.00,2.33
7630.00,2.34
7629.00,2.35
7628.00,2.35
7627.00,2.36
7626.00,2.37
7625.00,2.37
7624.00,2.37
7623.00,2.38
7622.00,2.38
7621.00,2.38
7620.00,2.38
7619.00,2.38
7618.00,2.37
7617.00,2.37
7616.00,2.36
7615.00,2.35
7614.00,2.35
7613.00,2.34
7612.00,2.33
7611.00,2.33
7610.00,2.32
7609.00,2.32
7608.00,2.31
7607.00,2.31
7606.00,2.30
7605.00,2.30
7604.00,2.29
7603.00,2.29
7602.00,2.28
7601.00,2.28
7600.00,2.27
7599.00,2.27
7598.00,2.27
7597.00,2.26
7596.00,2.26
7595.00,2.26
7594.00,2.26
7593.00,2.26
7592.00,2.26
7591.00,2.26
7590.00,2.26
7589.00,2.26
7588.00,2.25
7587.00,2.25
7586.00,2.25
7585.00,2.24
7584.00,2.23
7583.00,2.23
7582.00,2.22
7581.00,2.21
7580.00,2.20
7579.00,2.20
7578.00,2.19
7577.00,2.18
7576.00,2.17
7575.00,2.16
7574.00,2.15
7573.00,2.14
7572.00,2.12
7571.00,2.11
7570.00,2.10
7569.00,2.08
7568.00,2.07
7567.00,2.06
7566.00,2.05
7565.00,2.04
7564.00,2.03
7563.00,2.02
7562.00,2.02
7561.00,2.01
7560.00,2.01
7559.00,2.01
7558.00,2.02
7557.00,2.02
7556.00,2.03
7555.00,2.03
7554.00,2.04
7553.00,2.05
7552.00,2.06
7551.00,2.07
7550.00,2.08
7549.00,2.09
7548.00,2.10
7547.00,2.12
7546.00,2.13
7545.00,2.15
7544.00,2.16
7543.00,2.18
7542.00,2.20
7541.00,2.21
7540.00,2.23
7539.00,2.24
7538.00,2.26
7537.00,2.27
7536.00,2.27
7535.00,2.28
7534.00,2.29
7533.00,2.29
7532.00,2.29
7531.00,2.29
7530.00,2.29
7529.00,2.28
7528.00,2.28
7527.00,2.28
7526.00,2.28
7525.00,2.27
7524.00,2.27
7523.00,2.27
7522.00,2.27
7521.00,2.27
7520.00,2.26
7519.00,2.26
7518.00,2.26
7517.00,2.25
7516.00,2.25
7515.00,2.25
7514.00,2.24
7513.00,2.24
7512.00,2.24
7511.00,2.24
7510.00,2.24
7509.00,2.25
7508.00,2.25
7507.00,2.25
7506.00,2.26
7505.00,2.26
7504.00,2.26
7503.00,2.26
7502.00,2.27
7501.00,2.27
7500.00,2.27
7499.00,2.27
7498.00,2.27
7497.00,2.26
7496.00,2.26
7495.00,2.25
7494.00,2.25
7493.00,2.24
7492.00,2.23
7491.00,2.22
7490.00,2.21
7489.00,2.20
7488.00,2.19
7487.00,2.18
7486.00,2.17
7485.00,2.15
7484.00,2.14
7483.00,2.13
7482.00,2.11
7481.00,2.10
7480.00,2.09
7479.00,2.07
7478.00,2.06
7477.00,2.05
7476.00,2.04
7475.00,2.03
7474.00,2.02
7473.00,2.01
7472.00,2.00
7471.00,2.00
7470.00,1.99
7469.00,1.99
7468.00,1.98
7467.00,1.98
7466.00,1.97
7465.00,1.97
7464.00,1.97
7463.00,1.97
7462.00,1.97
7461.00,1.97
7460.00,1.97
7459.00,1.97
7458.00,1.97
7457.00,1.98
7456.00,1.98
7455.00,1.99
7454.00,1.99
7453.00,2.00
7452.00,2.01
7451.00,2.02
7450.00,2.03
7449.00,2.04
7448.00,2.05
7447.00,2.06
7446.00,2.07
7445.00,2.09
7444.00,2.10
7443.00,2.11
7442.00,2.12
7441.00,2.14
7440.00,2.15
7439.00,2.17
7438.00,2.18
7437.00,2.20
7436.00,2.22
7435.00,2.23
7434.00,2.25
7433.00,2.26
7432.00,2.28
7431.00,2.29
7430.00,2.31
7429.00,2.32
7428.00,2.33
7427.00,2.33
7426.00,2.34
7425.00,2.34
7424.00,2.34
7423.00,2.34
7422.00,2.34
7421.00,2.34
7420.00,2.34
7419.00,2.33
7418.00,2.33
7417.00,2.32
7416.00,2.31
7415.00,2.30
7414.00,2.29
7413.00,2.28
7412.00,2.27
7411.00,2.25
7410.00,2.24
7409.00,2.22
7408.00,2.20
7407.00,2.19
7406.00,2.17
7405.00,2.15
7404.00,2.13
7403.00,2.12
7402.00,2.10
7401.00,2.08
7400.00,2.07
7399.00,2.05
7398.00,2.04
7397.00,2.03
7396.00,2.01
7395.00,2.00
7394.00,1.99
7393.00,1.98
7392.00,1.98
7391.00,1.97
7390.00,1.96
7389.00,1.96
7388.00,1.95
7387.00,1.95
7386.00,1.95
7385.00,1.95
7384.00,1.95
7383.00,1.95
7382.00,1.95
7381.00,1.95
7380.00,1.95
7379.00,1.95
7378.00,1.95
7377.00,1.95
7376.00,1.95
7375.00,1.95
7374.00,1.95
7373.00,1.95
7372.00,1.95
7371.00,1.96
7370.00,1.96
7369.00,1.96
7368.00,1.96
7367.00,1.96
7366.00,1.96
7365.00,1.96
7364.00,1.96
7363.00,1.97
7362.00,1.97
7361.00,1.97
7360.00,1.97
7359.00,1.97
7358.00,1.97
7357.00,1.96
7356.00,1.96
7355.00,1.96
7354.00,1.96
7353.00,1.96
7352.00,1.96
7351.00,1.97
7350.00,1.97
7349.00,1.97
7348.00,1.98
7347.00,1.98
7346.00,1.98
7345.00,1.98
7344.00,1.98
7343.00,1.99
7342.00,1.99
7341.00,1.99
7340.00,2.00
7339.00,2.00
7338.00,2.00
7337.00,2.00
7336.00,2.00
7335.00,2.01
7334.00,2.01
7333.00,2.00
7332.00,2.00
7331.00,2.00
7330.00,2.00
7329.00,2.00
7328.00,2.00
7327.00,2.00
7326.00,1.99
7325.00,1.99
7324.00,1.99
7323.00,1.98
7322.00,1.98
7321.00,1.97
7320.00,1.97
7319.00,1.97
7318.00,1.97
7317.00,1.96
7316.00,1.96
7315.00,1.96
7314.00,1.95
7313.00,1.95
7312.00,1.95
7311.00,1.94
7310.00,1.94
7309.00,1.94
7308.00,1.93
7307.00,1.93
7306.00,1.93
7305.00,1.93
7304.00,1.94
7303.00,1.94
7302.00,1.94
7301.00,1.94
7300.00,1.94
7299.00,1.94
7298.00,1.94
7297.00,1.93
7296.00,1.93
7295.00,1.93
7294.00,1.92
7293.00,1.92
7292.00,1.91
7291.00,1.90
7290.00,1.89
7289.00,1.89
7288.00,1.88
7287.00,1.87
7286.00,1.87
7285.00,1.86
7284.00,1.86
7283.00,1.85
7282.00,1.84
7281.00,1.83
7280.00,1.82
7279.00,1.82
7278.00,1.81
7277.00,1.80
7276.00,1.79
7275.00,1.78
7274.00,1.77
7273.00,1.76
7272.00,1.75
7271.00,1.75
7270.00,1.74
7269.00,1.74
7268.00,1.73
7267.00,1.73
7266.00,1.72
7265.00,1.72
7264.00,1.72
7263.00,1.72
7262.00,1.71
7261.00,1.71
7260.00,1.71
7259.00,1.70
7258.00,1.70
7257.00,1.70
7256.00,1.69
7255.00,1.69
7254.00,1.68
7253.00,1.68
7252.00,1.68
7251.00,1.67
7250.00,1.67
7249.00,1.67
7248.00,1.67
7247.00,1.66
7246.00,1.66
7245.00,1.66
7244.00,1.65
7243.00,1.65
7242.00,1.64
7241.00,1.63
7240.00,1.63
7239.00,1.62
7238.00,1.61
7237.00,1.61
7236.00,1.60
7235.00,1.59
7234.00,1.59
7233.00,1.58
7232.00,1.57
7231.00,1.57
7230.00,1.56
7229.00,1.56
7228.00,1.55
7227.00,1.54
7226.00,1.54
7225.00,1.53
7224.00,1.53
7223.00,1.52
7222.00,1.52
7221.00,1.52
7220.00,1.51
7219.00,1.51
7218.00,1.51
7217.00,1.51
7216.00,1.51
7215.00,1.51
7214.00,1.52
7213.00,1.52
7212.00,1.52
7211.00,1.52
7210.00,1.52
7209.00,1.52
7208.00,1.52
7207.00,1.51
7206.00,1.51
7205.00,1.51
7204.00,1.51
7203.00,1.51
7202.00,1.50
7201.00,1.50
7200.00,1.50
7199.00,1.49
7198.00,1.49
7197.00,1.48
7196.00,1.48
7195.00,1.47
7194.00,1.47
7193.00,1.46
7192.00,1.45
7191.00,1.44
7190.00,1.44
7189.00,1.43
7188.00,1.42
7187.00,1.42
7186.00,1.41
7185.00,1.41
7184.00,1.40
7183.00,1.39
7182.00,1.39
7181.00,1.39
7180.00,1.38
7179.00,1.38
7178.00,1.38
7177.00,1.38
7176.00,1.38
7175.00,1.38
7174.00,1.38
7173.00,1.38
7172.00,1.38
7171.00,1.38
7170.00,1.39
7169.00,1.39
7168.00,1.39
7167.00,1.39
7166.00,1.40
7165.00,1.40
7164.00,1.40
7163.00,1.39
7162.00,1.39
7161.00,1.39
7160.00,1.39
7159.00,1.39
7158.00,1.39
7157.00,1.39
7156.00,1.39
7155.00,1.39
7154.00,1.39
7153.00,1.39
7152.00,1.39
7151.00,1.38
7150.00,1.38
7149.00,1.38
7148.00,1.37
7147.00,1.37
7146.00,1.36
7145.00,1.35
7144.00,1.34
7143.00,1.33
7142.00,1.32
7141.00,1.30
7140.00,1.29
7139.00,1.28
7138.00,1.26
7137.00,1.25
7136.00,1.24
7135.00,1.22
7134.00,1.21
7133.00,1.20
7132.00,1.18
7131.00,1.17
7130.00,1.15
7129.00,1.14
7128.00,1.12
7127.00,1.10
7126.00,1.09
7125.00,1.07
7124.00,1.06
7123.00,1.04
7122.00,1.03
7121.00,1.02
7120.00,1.01
7119.00,1.00
7118.00,0.99
7117.00,0.98
7116.00,0.98
7115.00,0.97
7114.00,0.97
7113.00,0.97
7112.00,0.97
7111.00,0.96
7110.00,0.96
7109.00,0.96
7108.00,0.96
7107.00,0.96
7106.00,0.96
7105.00,0.97
7104.00,0.97
7103.00,0.97
7102.00,0.97
7101.00,0.97
7100.00,0.98
7099.00,0.98
7098.00,0.98
7097.00,0.99
7096.00,0.99
7095.00,1.00
7094.00,1.00
7093.00,1.00
7092.00,1.00
7091.00,1.01
7090.00,1.01
7089.00,1.01
7088.00,1.01
7087.00,1.01
7086.00,1.01
7085.00,1.01
7084.00,1.01
7083.00,1.01
7082.00,1.01
7081.00,1.01
7080.00,1.01
7079.00,1.01
7078.00,1.01
7077.00,1.01
7076.00,1.01
7075.00,1.01
7074.00,1.01
7073.00,1.00
7072.00,1.00
7071.00,1.00
7070.00,1.00
7069.00,0.99
7068.00,0.99
7067.00,0.99
7066.00,0.98
7065.00,0.98
7064.00,0.98
7063.00,0.97
7062.00,0.97
7061.00,0.97
7060.00,0.97
7059.00,0.97
7058.00,0.97
7057.00,0.96
7056.00,0.96
7055.00,0.96
7054.00,0.96
7053.00,0.95
7052.00,0.95
7051.00,0.95
7050.00,0.95
7049.00,0.94
7048.00,0.94
7047.00,0.94
7046.00,0.94
7045.00,0.94
7044.00,0.94
7043.00,0.94
7042.00,0.94
7041.00,0.94
7040.00,0.95
7039.00,0.95
7038.00,0.95
7037.00,0.95
7036.00,0.95
7035.00,0.95
7034.00,0.95
7033.00,0.95
7032.00,0.95
7031.00,0.95
7030.00,0.95
7029.00,0.95
7028.00,0.95
7027.00,0.96
7026.00,0.96
7025.00,0.96
7024.00,0.96
7023.00,0.96
7022.00,0.96
7021.00,0.96
7020.00,0.96
7019.00,0.96
7018.00,0.96
7017.00,0.96
7016.00,0.96
7015.00,0.96
7014.00,0.96
7013.00,0.95
7012.00,0.95
7011.00,0.95
7010.00,0.94
7009.00,0.94
7008.00,0.93
7007.00,0.93
7006.00,0.93
7005.00,0.92
7004.00,0.92
7003.00,0.92
7002.00,0.92
7001.00,0.91
7000.00,0.91
6999.00,0.90
6998.00,0.90
6997.00,0.89
6996.00,0.88
6995.00,0.88
6994.00,0.88
6993.00,0.87
6992.00,0.87
6991.00,0.87
6990.00,0.86
6989.00,0.86
6988.00,0.86
6987.00,0.86
6986.00,0.86
6985.00,0.86
6984.00,0.86
6983.00,0.86
6982.00,0.87
6981.00,0.87
6980.00,0.87
6979.00,0.87
6978.00,0.88
6977.00,0.88
6976.00,0.88
6975.00,0.88
6974.00,0.89
6973.00,0.89
6972.00,0.90
6971.00,0.91
6970.00,0.91
6969.00,0.92
6968.00,0.93
6967.00,0.93
6966.00,0.94
6965.00,0.95
6964.00,0.95
6963.00,0.96
6962.00,0.96
6961.00,0.97
6960.00,0.97
6959.00,0.97
6958.00,0.98
6957.00,0.98
6956.00,0.98
6955.00,0.98
6954.00,0.98
6953.00,0.98
6952.00,0.98
6951.00,0.98
6950.00,0.98
6949.00,0.98
6948.00,0.97
6947.00,0.97
6946.00,0.97
6945.00,0.97
6944.00,0.97
6943.00,0.97
6942.00,0.96
6941.00,0.96
6940.00,0.95
6939.00,0.95
6938.00,0.94
6937.00,0.94
6936.00,0.93
6935.00,0.93
6934.00,0.92
6933.00,0.92
6932.00,0.92
6931.00,0.91
6930.00,0.91
6929.00,0.91
6928.00,0.91
6927.00,0.91
6926.00,0.91
6925.00,0.91
6924.00,0.91
6923.00,0.91
6922.00,0.91
6921.00,0.91
6920.00,0.90
6919.00,0.90
6918.00,0.90
6917.00,0.89
6916.00,0.89
6915.00,0.88
6914.00,0.88
6913.00,0.87
6912.00,0.87
6911.00,0.87
6910.00,0.86
6909.00,0.86
6908.00,0.86
6907.00,0.85
6906.00,0.85
6905.00,0.84
6904.00,0.84
6903.00,0.83
6902.00,0.83
6901.00,0.82
6900.00,0.82
6899.00,0.81
6898.00,0.81
6897.00,0.81
6896.00,0.81
6895.00,0.80
6894.00,0.81
6893.00,0.81
6892.00,0.81
6891.00,0.81
6890.00,0.81
6889.00,0.82
6888.00,0.82
6887.00,0.82
6886.00,0.83
6885.00,0.83
6884.00,0.84
6883.00,0.85
6882.00,0.86
6881.00,0.86
6880.00,0.87
6879.00,0.88
6878.00,0.89
6877.00,0.90
6876.00,0.91
6875.00,0.92
6874.00,0.93
6873.00,0.94
6872.00,0.95
6871.00,0.95
6870.00,0.96
6869.00,0.97
6868.00,0.97
6867.00,0.98
6866.00,0.98
6865.00,0.99
6864.00,0.99
6863.00,1.00
6862.00,1.00
6861.00,1.01
6860.00,1.01
6859.00,1.02
6858.00,1.02
6857.00,1.03
6856.00,1.03
6855.00,1.03
6854.00,1.03
6853.00,1.03
6852.00,1.04
6851.00,1.04
6850.00,1.04
6849.00,1.04
6848.00,1.04
6847.00,1.04
6846.00,1.05
6845.00,1.05
6844.00,1.05
6843.00,1.05
6842.00,1.05
6841.00,1.05
6840.00,1.05
6839.00,1.05
6838.00,1.05
6837.00,1.05
6836.00,1.05
6835.00,1.04
6834.00,1.04
6833.00,1.03
6832.00,1.03
6831.00,1.02
6830.00,1.02
6829.00,1.01
6828.00,1.01
6827.00,1.00
6826.00,0.99
6825.00,0.99
6824.00,0.98
6823.00,0.97
6822.00,0.96
6821.00,0.95
6820.00,0.94
6819.00,0.93
6818.00,0.92
6817.00,0.91
6816.00,0.90
6815.00,0.89
6814.00,0.89
6813.00,0.88
6812.00,0.87
6811.00,0.86
6810.00,0.86
6809.00,0.86
6808.00,0.86
6807.00,0.85
6806.00,0.85
6805.00,0.85
6804.00,0.85
6803.00,0.85
6802.00,0.85
6801.00,0.85
6800.00,0.85
6799.00,0.85
6798.00,0.86
6797.00,0.86
6796.00,0.86
6795.00,0.86
6794.00,0.87
6793.00,0.87
6792.00,0.88
6791.00,0.89
6790.00,0.89
6789.00,0.90
6788.00,0.90
6787.00,0.91
6786.00,0.91
6785.00,0.92
6784.00,0.92
6783.00,0.92
6782.00,0.93
6781.00,0.93
6780.00,0.93
6779.00,0.94
6778.00,0.94
6777.00,0.94
6776.00,0.94
6775.00,0.95
6774.00,0.95
6773.00,0.95
6772.00,0.96
6771.00,0.96
6770.00,0.96
6769.00,0.97
6768.00,0.97
6767.00,0.97
6766.00,0.98
6765.00,0.98
6764.00,0.98
6763.00,0.98
6762.00,0.98
6761.00,0.98
6760.00,0.98
6759.00,0.98
6758.00,0.98
6757.00,0.98
6756.00,0.99
6755.00,0.99
6754.00,0.99
6753.00,0.99
6752.00,1.00
6751.00,1.00
6750.00,1.00
6749.00,1.00
6748.00,1.00
6747.00,1.01
6746.00,1.01
6745.00,1.01
6744.00,1.01
6743.00,1.01
6742.00,1.01
6741.00,1.01
6740.00,1.01
6739.00,1.01
6738.00,1.01
6737.00,1.01
6736.00,1.02
6735.00,1.02
6734.00,1.02
6733.00,1.02
6732.00,1.03
6731.00,1.03
6730.00,1.03
6729.00,1.03
6728.00,1.03
6727.00,1.03
6726.00,1.02
6725.00,1.02
6724.00,1.02
6723.00,1.02
6722.00,1.02
6721.00,1.02
6720.00,1.02
6719.00,1.02
6718.00,1.03
6717.00,1.03
6716.00,1.03
6715.00,1.04
6714.00,1.04
6713.00,1.05
6712.00,1.05
6711.00,1.06
6710.00,1.06
6709.00,1.06
6708.00,1.07
6707.00,1.07
6706.00,1.07
6705.00,1.08
6704.00,1.08
6703.00,1.09
6702.00,1.09
6701.00,1.10
6700.00,1.10
6699.00,1.11
6698.00,1.12
6697.00,1.12
6696.00,1.13
6695.00,1.13
6694.00,1.14
6693.00,1.14
6692.00,1.15
6691.00,1.15
6690.00,1.15
6689.00,1.16
6688.00,1.16
6687.00,1.16
6686.00,1.16
6685.00,1.16
6684.00,1.16
6683.00,1.16
6682.00,1.16
6681.00,1.16
6680.00,1.16
6679.00,1.16
6678.00,1.16
6677.00,1.17
6676.00,1.17
6675.00,1.17
6674.00,1.17
6673.00,1.16
6672.00,1.16
6671.00,1.16
6670.00,1.16
6669.00,1.16
6668.00,1.15
6667.00,1.15
6666.00,1.14
6665.00,1.14
6664.00,1.13
6663.00,1.13
6662.00,1.13
6661.00,1.12
6660.00,1.12
6659.00,1.11
6658.00,1.11
6657.00,1.10
6656.00,1.10
6655.00,1.09
6654.00,1.08
6653.00,1.08
6652.00,1.07
6651.00,1.06
6650.00,1.06
6649.00,1.05
6648.00,1.04
6647.00,1.03
6646.00,1.02
6645.00,1.01
6644.00,1.01
6643.00,1.00
6642.00,1.00
6641.00,0.99
6640.00,0.99
6639.00,0.98
6638.00,0.98
6637.00,0.97
6636.00,0.97
6635.00,0.97
6634.00,0.97
6633.00,0.98
6632.00,0.98
6631.00,0.99
6630.00,0.99
6629.00,1.00
6628.00,1.01
6627.00,1.02
6626.00,1.03
6625.00,1.04
6624.00,1.05
6623.00,1.06
6622.00,1.08
6621.00,1.09
6620.00,1.11
6619.00,1.12
6618.00,1.14
6617.00,1.15
6616.00,1.17
6615.00,1.18
6614.00,1.20
6613.00,1.22
6612.00,1.23
6611.00,1.25
6610.00,1.26
6609.00,1.27
6608.00,1.29
6607.00,1.29
6606.00,1.30
6605.00,1.31
6604.00,1.31
6603.00,1.32
6602.00,1.32
6601.00,1.32
6600.00,1.32
6599.00,1.33
6598.00,1.33
6597.00,1.33
6596.00,1.33
6595.00,1.33
6594.00,1.33
6593.00,1.33
6592.00,1.33
6591.00,1.33
6590.00,1.33
6589.00,1.33
6588.00,1.33
6587.00,1.33
6586.00,1.32
6585.00,1.32
6584.00,1.32
6583.00,1.32
6582.00,1.32
6581.00,1.33
6580.00,1.33
6579.00,1.34
6578.00,1.34
6577.00,1.35
6576.00,1.36
6575.00,1.37
6574.00,1.37
6573.00,1.38
6572.00,1.39
6571.00,1.40
6570.00,1.41
6569.00,1.42
6568.00,1.43
6567.00,1.44
6566.00,1.45
6565.00,1.46
6564.00,1.46
6563.00,1.47
6562.00,1.48
6561.00,1.49
6560.00,1.49
6559.00,1.50
6558.00,1.51
6557.00,1.52
6556.00,1.52
6555.00,1.53
6554.00,1.54
6553.00,1.55
6552.00,1.55
6551.00,1.56
6550.00,1.56
6549.00,1.56
6548.00,1.56
6547.00,1.56
6546.00,1.56
6545.00,1.56
6544.00,1.56
6543.00,1.56
6542.00,1.55
6541.00,1.55
6540.00,1.55
6539.00,1.55
6538.00,1.55
6537.00,1.55
6536.00,1.55
6535.00,1.55
6534.00,1.55
6533.00,1.55
6532.00,1.55
6531.00,1.55
6530.00,1.55
6529.00,1.55
6528.00,1.55
6527.00,1.55
6526.00,1.55
6525.00,1.55
6524.00,1.55
6523.00,1.55
6522.00,1.55
6521.00,1.55
6520.00,1.55
6519.00,1.55
6518.00,1.55
6517.00,1.55
6516.00,1.55
6515.00,1.55
6514.00,1.56
6513.00,1.56
6512.00,1.56
6511.00,1.56
6510.00,1.56
6509.00,1.56
6508.00,1.56
6507.00,1.56
6506.00,1.56
6505.00,1.56
6504.00,1.56
6503.00,1.56
6502.00,1.56
6501.00,1.55
6500.00,1.55
6499.00,1.55
6498.00,1.55
6497.00,1.55
6496.00,1.55
6495.00,1.55
6494.00,1.54
6493.00,1.54
6492.00,1.54
6491.00,1.54
6490.00,1.54
6489.00,1.54
6488.00,1.54
6487.00,1.54
6486.00,1.54
6485.00,1.54
6484.00,1.54
6483.00,1.54
6482.00,1.54
6481.00,1.54
6480.00,1.54
6479.00,1.54
6478.00,1.55
6477.00,1.55
6476.00,1.55
6475.00,1.55
6474.00,1.56
6473.00,1.56
6472.00,1.56
6471.00,1.57
6470.00,1.57
6469.00,1.58
6468.00,1.58
6467.00,1.59
6466.00,1.59
6465.00,1.59
6464.00,1.60
6463.00,1.60
6462.00,1.61
6461.00,1.61
6460.00,1.62
6459.00,1.62
6458.00,1.63
6457.00,1.63
6456.00,1.63
6455.00,1.64
6454.00,1.64
6453.00,1.64
6452.00,1.64
6451.00,1.64
6450.00,1.64
6449.00,1.63
6448.00,1.63
6447.00,1.63
6446.00,1.62
6445.00,1.62
6444.00,1.61
6443.00,1.61
6442.00,1.60
6441.00,1.59
6440.00,1.59
6439.00,1.58
6438.00,1.57
6437.00,1.57
6436.00,1.56
6435.00,1.55
6434.00,1.54
6433.00,1.53
6432.00,1.52
6431.00,1.51
6430.00,1.51
6429.00,1.50
6428.00,1.50
6427.00,1.49
6426.00,1.49
6425.00,1.49
6424.00,1.49
6423.00,1.49
6422.00,1.49
6421.00,1.50
6420.00,1.50
6419.00,1.51
6418.00,1.51
6417.00,1.52
6416.00,1.53
6415.00,1.54
6414.00,1.54
6413.00,1.55
6412.00,1.56
6411.00,1.57
6410.00,1.58
6409.00,1.59
6408.00,1.60
6407.00,1.61
6406.00,1.62
6405.00,1.63
6404.00,1.63
6403.00,1.64
6402.00,1.65
6401.00,1.65
6400.00,1.66
6399.00,1.66
6398.00,1.67
6397.00,1.67
6396.00,1.67
6395.00,1.67
6394.00,1.67
6393.00,1.66
6392.00,1.66
6391.00,1.66
6390.00,1.65
6389.00,1.65
6388.00,1.65
6387.00,1.64
6386.00,1.64
6385.00,1.64
6384.00,1.63
6383.00,1.63
6382.00,1.63
6381.00,1.63
6380.00,1.63
6379.00,1.63
6378.00,1.63
6377.00,1.63
6376.00,1.63
6375.00,1.63
6374.00,1.63
6373.00,1.63
6372.00,1.64
6371.00,1.64
6370.00,1.65
6369.00,1.65
6368.00,1.66
6367.00,1.67
6366.00,1.68
6365.00,1.69
6364.00,1.70
6363.00,1.71
6362.00,1.73
6361.00,1.74
6360.00,1.75
6359.00,1.76
6358.00,1.77
6357.00,1.77
6356.00,1.78
6355.00,1.79
6354.00,1.79
6353.00,1.80
6352.00,1.80
6351.00,1.81
6350.00,1.81
6349.00,1.81
6348.00,1.82
6347.00,1.82
6346.00,1.82
6345.00,1.82
6344.00,1.82
6343.00,1.82
6342.00,1.81
6341.00,1.81
6340.00,1.80
6339.00,1.80
6338.00,1.79
6337.00,1.78
6336.00,1.77
6335.00,1.77
6334.00,1.76
6333.00,1.75
6332.00,1.74
6331.00,1.74
6330.00,1.73
6329.00,1.73
6328.00,1.73
6327.00,1.73
6326.00,1.73
6325.00,1.73
6324.00,1.73
6323.00,1.73
6322.00,1.73
6321.00,1.73
6320.00,1.74
6319.00,1.74
6318.00,1.74
6317.00,1.74
6316.00,1.75
6315.00,1.75
6314.00,1.76
6313.00,1.76
6312.00,1.77
6311.00,1.78
6310.00,1.79
6309.00,1.79
6308.00,1.80
6307.00,1.81
6306.00,1.81
6305.00,1.82
6304.00,1.83
6303.00,1.83
6302.00,1.84
6301.00,1.84
6300.00,1.84
6299.00,1.85
6298.00,1.85
6297.00,1.85
6296.00,1.85
6295.00,1.86
6294.00,1.86
6293.00,1.87
6292.00,1.87
6291.00,1.87
6290.00,1.88
6289.00,1.88
6288.00,1.88
6287.00,1.89
6286.00,1.89
6285.00,1.89
6284.00,1.90
6283.00,1.90
6282.00,1.90
6281.00,1.91
6280.00,1.91
6279.00,1.91
6278.00,1.92
6277.00,1.92
6276.00,1.92
6275.00,1.93
6274.00,1.93
6273.00,1.93
6272.00,1.94
6271.00,1.94
6270.00,1.95
6269.00,1.95
6268.00,1.96
6267.00,1.96
6266.00,1.96
6265.00,1.96
6264.00,1.97
6263.00,1.97
6262.00,1.97
6261.00,1.97
6260.00,1.98
6259.00,1.98
6258.00,1.98
6257.00,1.98
6256.00,1.98
6255.00,1.99
6254.00,1.99
6253.00,1.99
6252.00,2.00
6251.00,2.00
6250.00,2.01
6249.00,2.02
6248.00,2.02
6247.00,2.03
6246.00,2.03
6245.00,2.04
6244.00,2.04
6243.00,2.05
6242.00,2.05
6241.00,2.06
6240.00,2.06
6239.00,2.06
6238.00,2.07
6237.00,2.07
6236.00,2.08
6235.00,2.08
6234.00,2.09
6233.00,2.09
6232.00,2.10
6231.00,2.10
6230.00,2.11
6229.00,2.11
6228.00,2.11
6227.00,2.12
6226.00,2.12
6225.00,2.12
6224.00,2.12
6223.00,2.12
6222.00,2.12
6221.00,2.11
6220.00,2.11
6219.00,2.11
6218.00,2.11
6217.00,2.11
6216.00,2.11
6215.00,2.11
6214.00,2.11
6213.00,2.10
6212.00,2.10
6211.00,2.10
6210.00,2.10
6209.00,2.09
6208.00,2.09
6207.00,2.08
6206.00,2.08
6205.00,2.08
6204.00,2.07
6203.00,2.07
6202.00,2.06
6201.00,2.06
6200.00,2.06
6199.00,2.06
6198.00,2.05
6197.00,2.05
6196.00,2.05
6195.00,2.05
6194.00,2.05
6193.00,2.05
6192.00,2.05
6191.00,2.05
6190.00,2.06
6189.00,2.06
6188.00,2.06
6187.00,2.07
6186.00,2.07
6185.00,2.07
6184.00,2.08
6183.00,2.08
6182.00,2.09
6181.00,2.10
6180.00,2.10
6179.00,2.11
6178.00,2.12
6177.00,2.12
6176.00,2.13
6175.00,2.14
6174.00,2.14
6173.00,2.15
6172.00,2.15
6171.00,2.16
6170.00,2.16
6169.00,2.16
6168.00,2.16
6167.00,2.17
6166.00,2.17
6165.00,2.17
6164.00,2.17
6163.00,2.17
6162.00,2.17
6161.00,2.18
6160.00,2.18
6159.00,2.18
6158.00,2.19
6157.00,2.19
6156.00,2.20
6155.00,2.20
6154.00,2.21
6153.00,2.21
6152.00,2.21
6151.00,2.21
6150.00,2.22
6149.00,2.22
6148.00,2.22
6147.00,2.22
6146.00,2.22
6145.00,2.23
6144.00,2.23
6143.00,2.24
6142.00,2.24
6141.00,2.25
6140.00,2.26
6139.00,2.26
6138.00,2.27
6137.00,2.27
6136.00,2.28
6135.00,2.28
6134.00,2.28
6133.00,2.28
6132.00,2.28
6131.00,2.28
6130.00,2.28
6129.00,2.28
6128.00,2.28
6127.00,2.28
6126.00,2.28
6125.00,2.28
6124.00,2.28
6123.00,2.28
6122.00,2.28
6121.00,2.29
6120.00,2.29
6119.00,2.29
6118.00,2.29
6117.00,2.29
6116.00,2.29
6115.00,2.29
6114.00,2.29
6113.00,2.29
6112.00,2.29
6111.00,2.29
6110.00,2.30
6109.00,2.30
6108.00,2.30
6107.00,2.30
6106.00,2.31
6105.00,2.31
6104.00,2.31
6103.00,2.32
6102.00,2.32
6101.00,2.33
6100.00,2.33
6099.00,2.34
6098.00,2.34
6097.00,2.35
6096.00,2.36
6095.00,2.36
6094.00,2.37
6093.00,2.37
6092.00,2.38
6091.00,2.38
6090.00,2.39
6089.00,2.39
6088.00,2.40
6087.00,2.40
6086.00,2.41
6085.00,2.41
6084.00,2.42
6083.00,2.42
6082.00,2.42
6081.00,2.43
6080.00,2.43
6079.00,2.43
6078.00,2.44
6077.00,2.44
6076.00,2.44
6075.00,2.44
6074.00,2.44
6073.00,2.44
6072.00,2.44
6071.00,2.44
6070.00,2.44
6069.00,2.44
6068.00,2.44
6067.00,2.44
6066.00,2.43
6065.00,2.43
6064.00,2.43
6063.00,2.43
6062.00,2.43
6061.00,2.43
6060.00,2.43
6059.00,2.43
6058.00,2.43
6057.00,2.43
6056.00,2.43
6055.00,2.43
6054.00,2.43
6053.00,2.43
6052.00,2.43
6051.00,2.43
6050.00,2.43
6049.00,2.43
6048.00,2.43
6047.00,2.43
6046.00,2.43
6045.00,2.42
6044.00,2.42
6043.00,2.42
6042.00,2.42
6041.00,2.42
6040.00,2.42
6039.00,2.42
6038.00,2.42
6037.00,2.43
6036.00,2.43
6035.00,2.43
6034.00,2.43
6033.00,2.43
6032.00,2.43
6031.00,2.43
6030.00,2.42
6029.00,2.42
6028.00,2.42
6027.00,2.42
6026.00,2.42
6025.00,2.42
6024.00,2.42
6023.00,2.42
6022.00,2.42
6021.00,2.42
6020.00,2.42
6019.00,2.43
6018.00,2.43
6017.00,2.43
6016.00,2.43
6015.00,2.43
6014.00,2.44
6013.00,2.44
6012.00,2.44
6011.00,2.44
6010.00,2.44
6009.00,2.44
6008.00,2.45
6007.00,2.45
6006.00,2.45
6005.00,2.46
6004.00,2.46
6003.00,2.47
6002.00,2.47
6001.00,2.48
6000.00,2.48
5999.00,2.49
5998.00,2.50
5997.00,2.50
5996.00,2.51
5995.00,2.51
5994.00,2.51
5993.00,2.52
5992.00,2.52
5991.00,2.52
5990.00,2.53
5989.00,2.53
5988.00,2.53
5987.00,2.53
5986.00,2.53
5985.00,2.53
5984.00,2.53
5983.00,2.53
5982.00,2.53
5981.00,2.52
5980.00,2.52
5979.00,2.51
5978.00,2.51
5977.00,2.50
5976.00,2.49
5975.00,2.48
5974.00,2.48
5973.00,2.47
5972.00,2.46
5971.00,2.45
5970.00,2.44
5969.00,2.43
5968.00,2.42
5967.00,2.41
5966.00,2.40
5965.00,2.39
5964.00,2.38
5963.00,2.37
5962.00,2.36
5961.00,2.35
5960.00,2.35
5959.00,2.34
5958.00,2.33
5957.00,2.32
5956.00,2.31
5955.00,2.31
5954.00,2.30
5953.00,2.29
5952.00,2.29
5951.00,2.28
5950.00,2.28
5949.00,2.27
5948.00,2.27
5947.00,2.26
5946.00,2.26
5945.00,2.26
5944.00,2.25
5943.00,2.25
5942.00,2.25
5941.00,2.24
5940.00,2.24
5939.00,2.24
5938.00,2.24
5937.00,2.23
5936.00,2.23
5935.00,2.23
5934.00,2.23
5933.00,2.22
5932.00,2.22
5931.00,2.22
5930.00,2.22
5929.00,2.22
5928.00,2.21
5927.00,2.21
5926.00,2.21
5925.00,2.21
5924.00,2.21
5923.00,2.21
5922.00,2.21
5921.00,2.20
5920.00,2.20
5919.00,2.20
5918.00,2.20
5917.00,2.20
5916.00,2.20
5915.00,2.20
5914.00,2.20
5913.00,2.21
5912.00,2.21
5911.00,2.21
5910.00,2.21
5909.00,2.21
5908.00,2.21
5907.00,2.22
5906.00,2.22
5905.00,2.22
5904.00,2.23
5903.00,2.23
5902.00,2.23
5901.00,2.23
5900.00,2.23
5899.00,2.23
5898.00,2.23
5897.00,2.23
5896.00,2.23
5895.00,2.24
5894.00,2.24
5893.00,2.24
5892.00,2.24
5891.00,2.24
5890.00,2.24
5889.00,2.25
5888.00,2.25
5887.00,2.25
5886.00,2.25
5885.00,2.25
5884.00,2.24
5883.00,2.25
5882.00,2.25
5881.00,2.25
5880.00,2.25
5879.00,2.25
5878.00,2.25
5877.00,2.25
5876.00,2.25
5875.00,2.26
5874.00,2.26
5873.00,2.27
5872.00,2.27
5871.00,2.28
5870.00,2.28
5869.00,2.29
5868.00,2.29
5867.00,2.30
5866.00,2.30
5865.00,2.30
5864.00,2.30
5863.00,2.31
5862.00,2.31
5861.00,2.31
5860.00,2.32
5859.00,2.32
5858.00,2.32
5857.00,2.33
5856.00,2.33
5855.00,2.33
5854.00,2.34
5853.00,2.34
5852.00,2.34
5851.00,2.34
5850.00,2.34
5849.00,2.34
5848.00,2.34
5847.00,2.34
5846.00,2.34
5845.00,2.34
5844.00,2.33
5843.00,2.33
5842.00,2.33
5841.00,2.33
5840.00,2.33
5839.00,2.33
5838.00,2.33
5837.00,2.34
5836.00,2.34
5835.00,2.34
5834.00,2.34
5833.00,2.34
5832.00,2.34
5831.00,2.34
5830.00,2.34
5829.00,2.34
5828.00,2.34
5827.00,2.34
5826.00,2.34
5825.00,2.34
5824.00,2.34
5823.00,2.34
5822.00,2.34
5821.00,2.34
5820.00,2.34
5819.00,2.34
5818.00,2.34
5817.00,2.34
5816.00,2.34
5815.00,2.34
5814.00,2.34
5813.00,2.34
5812.00,2.34
5811.00,2.34
5810.00,2.34
5809.00,2.34
5808.00,2.34
5807.00,2.34
5806.00,2.35
5805.00,2.35
5804.00,2.35
5803.00,2.35
5802.00,2.35
5801.00,2.35
5800.00,2.35
5799.00,2.35
5798.00,2.35
5797.00,2.36
5796.00,2.36
5795.00,2.36
5794.00,2.36
5793.00,2.37
5792.00,2.37
5791.00,2.37
5790.00,2.37
5789.00,2.38
5788.00,2.38
5787.00,2.38
5786.00,2.38
5785.00,2.38
5784.00,2.39
5783.00,2.39
5782.00,2.39
5781.00,2.39
5780.00,2.39
5779.00,2.38
5778.00,2.38
5777.00,2.38
5776.00,2.38
5775.00,2.38
5774.00,2.38
5773.00,2.38
5772.00,2.38
5771.00,2.39
5770.00,2.39
5769.00,2.39
5768.00,2.39
5767.00,2.39
5766.00,2.39
5765.00,2.39
5764.00,2.39
5763.00,2.39
5762.00,2.39
5761.00,2.39
5760.00,2.39
5759.00,2.40
5758.00,2.40
5757.00,2.40
5756.00,2.40
5755.00,2.41
5754.00,2.41
5753.00,2.42
5752.00,2.42
5751.00,2.42
5750.00,2.43
5749.00,2.43
5748.00,2.44
5747.00,2.44
5746.00,2.44
5745.00,2.45
5744.00,2.45
5743.00,2.45
5742.00,2.45
5741.00,2.46
5740.00,2.46
5739.00,2.46
5738.00,2.46
5737.00,2.46
5736.00,2.46
5735.00,2.47
5734.00,2.47
5733.00,2.47
5732.00,2.47
5731.00,2.47
5730.00,2.47
5729.00,2.47
5728.00,2.47
5727.00,2.47
5726.00,2.47
5725.00,2.47
5724.00,2.47
5723.00,2.46
5722.00,2.46
5721.00,2.46
5720.00,2.46
5719.00,2.46
5718.00,2.46
5717.00,2.46
5716.00,2.45
5715.00,2.45
5714.00,2.45
5713.00,2.45
5712.00,2.45
5711.00,2.45
5710.00,2.44
5709.00,2.44
5708.00,2.44
5707.00,2.43
5706.00,2.43
5705.00,2.43
5704.00,2.42
5703.00,2.42
5702.00,2.41
5701.00,2.40
5700.00,2.40
5699.00,2.39
5698.00,2.38
5697.00,2.38
5696.00,2.37
5695.00,2.36
5694.00,2.35
5693.00,2.34
5692.00,2.34
5691.00,2.33
5690.00,2.32
5689.00,2.32
5688.00,2.31
5687.00,2.30
5686.00,2.30
5685.00,2.29
5684.00,2.29
5683.00,2.28
5682.00,2.28
5681.00,2.28
5680.00,2.28
5679.00,2.27
5678.00,2.27
5677.00,2.27
5676.00,2.27
5675.00,2.27
5674.00,2.27
5673.00,2.27
5672.00,2.28
5671.00,2.28
5670.00,2.28
5669.00,2.29
5668.00,2.29
5667.00,2.29
5666.00,2.30
5665.00,2.30
5664.00,2.31
5663.00,2.31
5662.00,2.32
5661.00,2.32
5660.00,2.32
5659.00,2.33
5658.00,2.33
5657.00,2.33
5656.00,2.33
5655.00,2.33
5654.00,2.33
5653.00,2.33
5652.00,2.33
5651.00,2.33
5650.00,2.33
5649.00,2.33
5648.00,2.33
5647.00,2.33
5646.00,2.33
5645.00,2.33
5644.00,2.33
5643.00,2.33
5642.00,2.33
5641.00,2.33
5640.00,2.33
5639.00,2.33
5638.00,2.33
5637.00,2.33
5636.00,2.33
5635.00,2.33
5634.00,2.33
5633.00,2.33
5632.00,2.33
5631.00,2.34
5630.00,2.34
5629.00,2.34
5628.00,2.35
5627.00,2.35
5626.00,2.35
5625.00,2.36
5624.00,2.36
5623.00,2.36
5622.00,2.37
5621.00,2.37
5620.00,2.37
5619.00,2.38
5618.00,2.38
5617.00,2.38
5616.00,2.38
5615.00,2.39
5614.00,2.39
5613.00,2.39
5612.00,2.40
5611.00,2.40
5610.00,2.40
5609.00,2.41
5608.00,2.41
5607.00,2.41
5606.00,2.41
5605.00,2.42
5604.00,2.42
5603.00,2.42
5602.00,2.42
5601.00,2.43
5600.00,2.43
5599.00,2.43
5598.00,2.43
5597.00,2.44
5596.00,2.44
5595.00,2.44
5594.00,2.44
5593.00,2.45
5592.00,2.45
5591.00,2.45
5590.00,2.45
5589.00,2.45
5588.00,2.45
5587.00,2.46
5586.00,2.46
5585.00,2.46
5584.00,2.46
5583.00,2.46
5582.00,2.46
5581.00,2.46
5580.00,2.47
5579.00,2.47
5578.00,2.47
5577.00,2.47
5576.00,2.47
5575.00,2.47
5574.00,2.47
5573.00,2.48
5572.00,2.48
5571.00,2.48
5570.00,2.48
5569.00,2.48
5568.00,2.48
5567.00,2.48
5566.00,2.48
5565.00,2.48
5564.00,2.48
5563.00,2.48
5562.00,2.48
5561.00,2.48
5560.00,2.48
5559.00,2.48
5558.00,2.47
5557.00,2.47
5556.00,2.47
5555.00,2.47
5554.00,2.47
5553.00,2.47
5552.00,2.47
5551.00,2.47
5550.00,2.47
5549.00,2.47
5548.00,2.47
5547.00,2.47
5546.00,2.47
5545.00,2.46
5544.00,2.46
5543.00,2.46
5542.00,2.46
5541.00,2.46
5540.00,2.46
5539.00,2.46
5538.00,2.46
5537.00,2.47
5536.00,2.47
5535.00,2.47
5534.00,2.47
5533.00,2.47
5532.00,2.48
5531.00,2.48
5530.00,2.48
5529.00,2.48
5528.00,2.48
5527.00,2.49
5526.00,2.49
5525.00,2.49
5524.00,2.49
5523.00,2.50
5522.00,2.50
5521.00,2.50
5520.00,2.50
5519.00,2.51
5518.00,2.51
5517.00,2.51
5516.00,2.52
5515.00,2.52
5514.00,2.52
5513.00,2.53
5512.00,2.53
5511.00,2.53
5510.00,2.53
5509.00,2.53
5508.00,2.53
5507.00,2.53
5506.00,2.53
5505.00,2.53
5504.00,2.53
5503.00,2.53
5502.00,2.53
5501.00,2.53
5500.00,2.53
5499.00,2.53
5498.00,2.52
5497.00,2.52
5496.00,2.52
5495.00,2.52
5494.00,2.52
5493.00,2.51
5492.00,2.51
5491.00,2.51
5490.00,2.51
5489.00,2.51
5488.00,2.51
5487.00,2.51
5486.00,2.51
5485.00,2.51
5484.00,2.51
5483.00,2.51
5482.00,2.51
5481.00,2.52
5480.00,2.52
5479.00,2.52
5478.00,2.52
5477.00,2.53
5476.00,2.53
5475.00,2.53
5474.00,2.54
5473.00,2.54
5472.00,2.54
5471.00,2.54
5470.00,2.54
5469.00,2.55
5468.00,2.55
5467.00,2.55
5466.00,2.55
5465.00,2.55
5464.00,2.54
5463.00,2.54
5462.00,2.54
5461.00,2.54
5460.00,2.53
5459.00,2.53
5458.00,2.52
5457.00,2.52
5456.00,2.52
5455.00,2.51
5454.00,2.51
5453.00,2.50
5452.00,2.50
5451.00,2.49
5450.00,2.48
5449.00,2.48
5448.00,2.47
5447.00,2.46
5446.00,2.46
5445.00,2.45
5444.00,2.45
5443.00,2.44
5442.00,2.44
5441.00,2.43
5440.00,2.43
5439.00,2.43
5438.00,2.43
5437.00,2.42
5436.00,2.42
5435.00,2.42
5434.00,2.42
5433.00,2.42
5432.00,2.42
5431.00,2.42
5430.00,2.41
5429.00,2.41
5428.00,2.41
5427.00,2.41
5426.00,2.41
5425.00,2.42
5424.00,2.42
5423.00,2.42
5422.00,2.42
5421.00,2.43
5420.00,2.43
5419.00,2.43
5418.00,2.43
5417.00,2.44
5416.00,2.44
5415.00,2.44
5414.00,2.44
5413.00,2.44
5412.00,2.44
5411.00,2.44
5410.00,2.44
5409.00,2.44
5408.00,2.45
5407.00,2.45
5406.00,2.45
5405.00,2.45
5404.00,2.45
5403.00,2.45
5402.00,2.45
5401.00,2.45
5400.00,2.45
5399.00,2.45
5398.00,2.44
5397.00,2.44
5396.00,2.44
5395.00,2.43
5394.00,2.42
5393.00,2.42
5392.00,2.41
5391.00,2.41
5390.00,2.40
5389.00,2.40
5388.00,2.39
5387.00,2.38
5386.00,2.38
5385.00,2.37
5384.00,2.36
5383.00,2.35
5382.00,2.34
5381.00,2.33
5380.00,2.32
5379.00,2.30
5378.00,2.29
5377.00,2.28
5376.00,2.26
5375.00,2.25
5374.00,2.24
5373.00,2.22
5372.00,2.21
5371.00,2.19
5370.00,2.18
5369.00,2.16
5368.00,2.14
5367.00,2.13
5366.00,2.11
5365.00,2.09
5364.00,2.08
5363.00,2.06
5362.00,2.04
5361.00,2.02
5360.00,2.00
5359.00,1.98
5358.00,1.96
5357.00,1.94
5356.00,1.92
5355.00,1.90
5354.00,1.89
5353.00,1.87
5352.00,1.85
5351.00,1.83
5350.00,1.82
5349.00,1.80
5348.00,1.79
5347.00,1.78
5346.00,1.76
5345.00,1.75
5344.00,1.74
5343.00,1.72
5342.00,1.71
5341.00,1.70
5340.00,1.69
5339.00,1.68
5338.00,1.67
5337.00,1.66
5336.00,1.65
5335.00,1.64
5334.00,1.63
5333.00,1.63
5332.00,1.62
5331.00,1.61
5330.00,1.61
5329.00,1.60
5328.00,1.60
5327.00,1.59
5326.00,1.59
5325.00,1.58
5324.00,1.57
5323.00,1.56
5322.00,1.55
5321.00,1.54
5320.00,1.54
5319.00,1.53
5318.00,1.52
5317.00,1.51
5316.00,1.50
5315.00,1.49
5314.00,1.49
5313.00,1.48
5312.00,1.47
5311.00,1.46
5310.00,1.46
5309.00,1.45
5308.00,1.44
5307.00,1.43
5306.00,1.42
5305.00,1.41
5304.00,1.40
5303.00,1.39
5302.00,1.38
5301.00,1.37
5300.00,1.36
5299.00,1.35
5298.00,1.35
5297.00,1.34
5296.00,1.33
5295.00,1.32
5294.00,1.32
5293.00,1.31
5292.00,1.30
5291.00,1.29
5290.00,1.28
5289.00,1.27
5288.00,1.26
5287.00,1.26
5286.00,1.25
5285.00,1.24
5284.00,1.23
5283.00,1.22
5282.00,1.21
5281.00,1.21
5280.00,1.20
5279.00,1.19
5278.00,1.18
5277.00,1.18
5276.00,1.17
5275.00,1.16
5274.00,1.16
5273.00,1.15
5272.00,1.15
5271.00,1.14
5270.00,1.14
5269.00,1.13
5268.00,1.13
5267.00,1.13
5266.00,1.12
5265.00,1.12
5264.00,1.12
5263.00,1.12
5262.00,1.12
5261.00,1.12
5260.00,1.12
5259.00,1.12
5258.00,1.12
5257.00,1.12
5256.00,1.12
5255.00,1.12
5254.00,1.12
5253.00,1.13
5252.00,1.13
5251.00,1.13
5250.00,1.14
5249.00,1.14
5248.00,1.14
5247.00,1.15
5246.00,1.15
5245.00,1.15
5244.00,1.16
5243.00,1.16
5242.00,1.17
5241.00,1.17
5240.00,1.18
5239.00,1.18
5238.00,1.19
5237.00,1.19
5236.00,1.20
5235.00,1.20
5234.00,1.21
5233.00,1.21
5232.00,1.21
5231.00,1.22
5230.00,1.22
5229.00,1.22
5228.00,1.22
5227.00,1.22
5226.00,1.22
5225.00,1.22
5224.00,1.22
5223.00,1.22
5222.00,1.22
5221.00,1.22
5220.00,1.22
5219.00,1.22
5218.00,1.22
5217.00,1.22
5216.00,1.22
5215.00,1.22
5214.00,1.22
5213.00,1.22
5212.00,1.22
5211.00,1.22
5210.00,1.22
5209.00,1.22
5208.00,1.22
5207.00,1.22
5206.00,1.23
5205.00,1.23
5204.00,1.23
5203.00,1.23
5202.00,1.24
5201.00,1.24
5200.00,1.24
5199.00,1.25
5198.00,1.25
5197.00,1.25
5196.00,1.25
5195.00,1.26
5194.00,1.26
5193.00,1.26
5192.00,1.26
5191.00,1.26
5190.00,1.26
5189.00,1.27
5188.00,1.27
5187.00,1.27
5186.00,1.27
5185.00,1.27
5184.00,1.27
5183.00,1.27
5182.00,1.27
5181.00,1.26
5180.00,1.26
5179.00,1.26
5178.00,1.26
5177.00,1.26
5176.00,1.26
5175.00,1.26
5174.00,1.25
5173.00,1.25
5172.00,1.25
5171.00,1.25
5170.00,1.25
5169.00,1.25
5168.00,1.25
5167.00,1.24
5166.00,1.24
5165.00,1.24
5164.00,1.24
5163.00,1.24
5162.00,1.24
5161.00,1.24
5160.00,1.24
5159.00,1.24
5158.00,1.24
5157.00,1.24
5156.00,1.24
5155.00,1.24
5154.00,1.24
5153.00,1.24
5152.00,1.25
5151.00,1.25
5150.00,1.25
5149.00,1.25
5148.00,1.25
5147.00,1.25
5146.00,1.26
5145.00,1.26
5144.00,1.26
5143.00,1.26
5142.00,1.27
5141.00,1.27
5140.00,1.27
5139.00,1.28
5138.00,1.28
5137.00,1.28
5136.00,1.29
5135.00,1.29
5134.00,1.29
5133.00,1.30
5132.00,1.30
5131.00,1.30
5130.00,1.30
5129.00,1.30
5128.00,1.31
5127.00,1.31
5126.00,1.31
5125.00,1.31
5124.00,1.32
5123.00,1.32
5122.00,1.32
5121.00,1.32
5120.00,1.33
5119.00,1.33
5118.00,1.33
5117.00,1.33
5116.00,1.33
5115.00,1.33
5114.00,1.33
5113.00,1.33
5112.00,1.33
5111.00,1.33
5110.00,1.33
5109.00,1.33
5108.00,1.33
5107.00,1.33
5106.00,1.33
5105.00,1.33
5104.00,1.33
5103.00,1.33
5102.00,1.33
5101.00,1.33
5100.00,1.33
5099.00,1.33
5098.00,1.32
5097.00,1.32
5096.00,1.32
5095.00,1.32
5094.00,1.32
5093.00,1.32
5092.00,1.31
5091.00,1.31
5090.00,1.31
5089.00,1.31
5088.00,1.31
5087.00,1.31
5086.00,1.31
5085.00,1.31
5084.00,1.31
5083.00,1.31
5082.00,1.31
5081.00,1.31
5080.00,1.32
5079.00,1.32
5078.00,1.32
5077.00,1.33
5076.00,1.33
5075.00,1.33
5074.00,1.34
5073.00,1.34
5072.00,1.34
5071.00,1.35
5070.00,1.35
5069.00,1.36
5068.00,1.36
5067.00,1.36
5066.00,1.37
5065.00,1.37
5064.00,1.38
5063.00,1.39
5062.00,1.39
5061.00,1.40
5060.00,1.40
5059.00,1.41
5058.00,1.41
5057.00,1.41
5056.00,1.42
5055.00,1.42
5054.00,1.43
5053.00,1.43
5052.00,1.43
5051.00,1.43
5050.00,1.43
5049.00,1.43
5048.00,1.43
5047.00,1.43
5046.00,1.43
5045.00,1.43
5044.00,1.43
5043.00,1.43
5042.00,1.43
5041.00,1.42
5040.00,1.42
5039.00,1.42
5038.00,1.42
5037.00,1.41
5036.00,1.41
5035.00,1.41
5034.00,1.40
5033.00,1.40
5032.00,1.40
5031.00,1.39
5030.00,1.39
5029.00,1.39
5028.00,1.38
5027.00,1.38
5026.00,1.37
5025.00,1.37
5024.00,1.37
5023.00,1.36
5022.00,1.36
5021.00,1.36
5020.00,1.36
5019.00,1.36
5018.00,1.36
5017.00,1.36
5016.00,1.36
5015.00,1.36
5014.00,1.37
5013.00,1.37
5012.00,1.37
5011.00,1.37
5010.00,1.37
5009.00,1.37
5008.00,1.37
5007.00,1.37
5006.00,1.37
5005.00,1.37
5004.00,1.37
5003.00,1.38
5002.00,1.38
5001.00,1.38
5000.00,1.39
4999.00,1.39
4998.00,1.39
4997.00,1.40
4996.00,1.40
4995.00,1.41
4994.00,1.41
4993.00,1.41
4992.00,1.42
4991.00,1.42
4990.00,1.42
4989.00,1.43
4988.00,1.43
4987.00,1.43
4986.00,1.44
4985.00,1.44
4984.00,1.44
4983.00,1.45
4982.00,1.45
4981.00,1.46
4980.00,1.46
4979.00,1.47
4978.00,1.47
4977.00,1.48
4976.00,1.48
4975.00,1.48
4974.00,1.49
4973.00,1.49
4972.00,1.49
4971.00,1.49
4970.00,1.49
4969.00,1.50
4968.00,1.50
4967.00,1.50
4966.00,1.50
4965.00,1.50
4964.00,1.50
4963.00,1.50
4962.00,1.50
4961.00,1.50
4960.00,1.50
4959.00,1.50
4958.00,1.50
4957.00,1.50
4956.00,1.50
4955.00,1.50
4954.00,1.49
4953.00,1.49
4952.00,1.49
4951.00,1.48
4950.00,1.48
4949.00,1.48
4948.00,1.48
4947.00,1.48
4946.00,1.48
4945.00,1.48
4944.00,1.48
4943.00,1.48
4942.00,1.48
4941.00,1.48
4940.00,1.48
4939.00,1.48
4938.00,1.48
4937.00,1.49
4936.00,1.49
4935.00,1.49
4934.00,1.49
4933.00,1.50
4932.00,1.50
4931.00,1.50
4930.00,1.51
4929.00,1.51
4928.00,1.52
4927.00,1.52
4926.00,1.53
4925.00,1.53
4924.00,1.53
4923.00,1.54
4922.00,1.54
4921.00,1.54
4920.00,1.54
4919.00,1.54
4918.00,1.54
4917.00,1.54
4916.00,1.54
4915.00,1.54
4914.00,1.54
4913.00,1.54
4912.00,1.54
4911.00,1.54
4910.00,1.54
4909.00,1.54
4908.00,1.54
4907.00,1.54
4906.00,1.54
4905.00,1.53
4904.00,1.53
4903.00,1.53
4902.00,1.52
4901.00,1.52
4900.00,1.52
4899.00,1.51
4898.00,1.51
4897.00,1.51
4896.00,1.51
4895.00,1.51
4894.00,1.51
4893.00,1.52
4892.00,1.52
4891.00,1.52
4890.00,1.52
4889.00,1.52
4888.00,1.51
4887.00,1.51
4886.00,1.51
4885.00,1.51
4884.00,1.51
4883.00,1.51
4882.00,1.51
4881.00,1.51
4880.00,1.51
4879.00,1.51
4878.00,1.51
4877.00,1.52
4876.00,1.52
4875.00,1.52
4874.00,1.53
4873.00,1.53
4872.00,1.54
4871.00,1.54
4870.00,1.54
4869.00,1.55
4868.00,1.55
4867.00,1.56
4866.00,1.56
4865.00,1.57
4864.00,1.58
4863.00,1.58
4862.00,1.59
4861.00,1.60
4860.00,1.60
4859.00,1.61
4858.00,1.61
4857.00,1.62
4856.00,1.62
4855.00,1.63
4854.00,1.63
4853.00,1.63
4852.00,1.63
4851.00,1.64
4850.00,1.64
4849.00,1.64
4848.00,1.64
4847.00,1.64
4846.00,1.64
4845.00,1.64
4844.00,1.64
4843.00,1.64
4842.00,1.64
4841.00,1.64
4840.00,1.64
4839.00,1.64
4838.00,1.63
4837.00,1.63
4836.00,1.63
4835.00,1.63
4834.00,1.63
4833.00,1.63
4832.00,1.63
4831.00,1.63
4830.00,1.63
4829.00,1.64
4828.00,1.64
4827.00,1.64
4826.00,1.65
4825.00,1.65
4824.00,1.65
4823.00,1.65
4822.00,1.66
4821.00,1.66
4820.00,1.66
4819.00,1.66
4818.00,1.66
4817.00,1.67
4816.00,1.67
4815.00,1.67
4814.00,1.67
4813.00,1.67
4812.00,1.67
4811.00,1.67
4810.00,1.67
4809.00,1.67
4808.00,1.66
4807.00,1.66
4806.00,1.66
4805.00,1.66
4804.00,1.66
4803.00,1.66
4802.00,1.65
4801.00,1.65
4800.00,1.65
4799.00,1.65
4798.00,1.65
4797.00,1.64
4796.00,1.64
4795.00,1.64
4794.00,1.64
4793.00,1.64
4792.00,1.64
4791.00,1.65
4790.00,1.65
4789.00,1.65
4788.00,1.66
4787.00,1.66
4786.00,1.67
4785.00,1.68
4784.00,1.69
4783.00,1.69
4782.00,1.70
4781.00,1.71
4780.00,1.72
4779.00,1.73
4778.00,1.73
4777.00,1.74
4776.00,1.75
4775.00,1.76
4774.00,1.77
4773.00,1.78
4772.00,1.79
4771.00,1.80
4770.00,1.81
4769.00,1.82
4768.00,1.83
4767.00,1.84
4766.00,1.84
4765.00,1.85
4764.00,1.86
4763.00,1.87
4762.00,1.87
4761.00,1.88
4760.00,1.89
4759.00,1.89
4758.00,1.89
4757.00,1.90
4756.00,1.90
4755.00,1.91
4754.00,1.91
4753.00,1.91
4752.00,1.92
4751.00,1.92
4750.00,1.93
4749.00,1.93
4748.00,1.94
4747.00,1.94
4746.00,1.94
4745.00,1.94
4744.00,1.95
4743.00,1.95
4742.00,1.95
4741.00,1.95
4740.00,1.96
4739.00,1.96
4738.00,1.96
4737.00,1.96
4736.00,1.96
4735.00,1.96
4734.00,1.96
4733.00,1.96
4732.00,1.96
4731.00,1.97
4730.00,1.97
4729.00,1.97
4728.00,1.98
4727.00,1.98
4726.00,1.98
4725.00,1.98
4724.00,1.99
4723.00,1.99
4722.00,1.99
4721.00,1.99
4720.00,1.99
4719.00,1.99
4718.00,2.00
4717.00,2.00
4716.00,2.00
4715.00,2.01
4714.00,2.01
4713.00,2.01
4712.00,2.02
4711.00,2.02
4710.00,2.03
4709.00,2.04
4708.00,2.05
4707.00,2.05
4706.00,2.06
4705.00,2.07
4704.00,2.07
4703.00,2.08
4702.00,2.08
4701.00,2.09
4700.00,2.10
4699.00,2.10
4698.00,2.11
4697.00,2.11
4696.00,2.12
4695.00,2.13
4694.00,2.13
4693.00,2.14
4692.00,2.14
4691.00,2.15
4690.00,2.15
4689.00,2.15
4688.00,2.16
4687.00,2.16
4686.00,2.16
4685.00,2.16
4684.00,2.16
4683.00,2.16
4682.00,2.16
4681.00,2.16
4680.00,2.16
4679.00,2.15
4678.00,2.15
4677.00,2.15
4676.00,2.15
4675.00,2.15
4674.00,2.15
4673.00,2.15
4672.00,2.14
4671.00,2.14
4670.00,2.14
4669.00,2.14
4668.00,2.14
4667.00,2.14
4666.00,2.14
4665.00,2.14
4664.00,2.14
4663.00,2.14
4662.00,2.14
4661.00,2.15
4660.00,2.15
4659.00,2.15
4658.00,2.16
4657.00,2.16
4656.00,2.17
4655.00,2.18
4654.00,2.18
4653.00,2.19
4652.00,2.20
4651.00,2.20
4650.00,2.21
4649.00,2.21
4648.00,2.22
4647.00,2.22
4646.00,2.23
4645.00,2.23
4644.00,2.23
4643.00,2.24
4642.00,2.24
4641.00,2.25
4640.00,2.25
4639.00,2.25
4638.00,2.26
4637.00,2.26
4636.00,2.27
4635.00,2.27
4634.00,2.27
4633.00,2.27
4632.00,2.27
4631.00,2.27
4630.00,2.27
4629.00,2.27
4628.00,2.27
4627.00,2.26
4626.00,2.26
4625.00,2.26
4624.00,2.26
4623.00,2.26
4622.00,2.26
4621.00,2.26
4620.00,2.26
4619.00,2.26
4618.00,2.26
4617.00,2.26
4616.00,2.26
4615.00,2.26
4614.00,2.25
4613.00,2.25
4612.00,2.25
4611.00,2.25
4610.00,2.25
4609.00,2.25
4608.00,2.24
4607.00,2.24
4606.00,2.24
4605.00,2.24
4604.00,2.24
4603.00,2.24
4602.00,2.24
4601.00,2.25
4600.00,2.25
4599.00,2.25
4598.00,2.26
4597.00,2.26
4596.00,2.26
4595.00,2.26
4594.00,2.27
4593.00,2.27
4592.00,2.27
4591.00,2.28
4590.00,2.28
4589.00,2.28
4588.00,2.29
4587.00,2.29
4586.00,2.29
4585.00,2.30
4584.00,2.30
4583.00,2.31
4582.00,2.31
4581.00,2.32
4580.00,2.32
4579.00,2.33
4578.00,2.33
4577.00,2.34
4576.00,2.34
4575.00,2.35
4574.00,2.35
4573.00,2.35
4572.00,2.35
4571.00,2.35
4570.00,2.35
4569.00,2.36
4568.00,2.36
4567.00,2.36
4566.00,2.36
4565.00,2.36
4564.00,2.36
4563.00,2.37
4562.00,2.37
4561.00,2.37
4560.00,2.37
4559.00,2.37
4558.00,2.37
4557.00,2.37
4556.00,2.37
4555.00,2.37
4554.00,2.37
4553.00,2.36
4552.00,2.36
4551.00,2.36
4550.00,2.35
4549.00,2.35
4548.00,2.35
4547.00,2.34
4546.00,2.34
4545.00,2.34
4544.00,2.34
4543.00,2.34
4542.00,2.33
4541.00,2.33
4540.00,2.33
4539.00,2.33
4538.00,2.32
4537.00,2.32
4536.00,2.32
4535.00,2.31
4534.00,2.31
4533.00,2.31
4532.00,2.30
4531.00,2.30
4530.00,2.30
4529.00,2.30
4528.00,2.30
4527.00,2.30
4526.00,2.30
4525.00,2.31
4524.00,2.31
4523.00,2.31
4522.00,2.31
4521.00,2.32
4520.00,2.32
4519.00,2.33
4518.00,2.33
4517.00,2.34
4516.00,2.34
4515.00,2.34
4514.00,2.35
4513.00,2.35
4512.00,2.36
4511.00,2.36
4510.00,2.37
4509.00,2.37
4508.00,2.38
4507.00,2.38
4506.00,2.39
4505.00,2.40
4504.00,2.40
4503.00,2.41
4502.00,2.41
4501.00,2.41
4500.00,2.42
4499.00,2.42
4498.00,2.42
4497.00,2.42
4496.00,2.42
4495.00,2.41
4494.00,2.41
4493.00,2.41
4492.00,2.41
4491.00,2.40
4490.00,2.40
4489.00,2.39
4488.00,2.39
4487.00,2.38
4486.00,2.38
4485.00,2.38
4484.00,2.38
4483.00,2.37
4482.00,2.37
4481.00,2.36
4480.00,2.36
4479.00,2.35
4478.00,2.34
4477.00,2.34
4476.00,2.33
4475.00,2.33
4474.00,2.33
4473.00,2.32
4472.00,2.32
4471.00,2.31
4470.00,2.31
4469.00,2.31
4468.00,2.31
4467.00,2.30
4466.00,2.30
4465.00,2.30
4464.00,2.29
4463.00,2.29
4462.00,2.29
4461.00,2.28
4460.00,2.28
4459.00,2.27
4458.00,2.27
4457.00,2.26
4456.00,2.25
4455.00,2.25
4454.00,2.24
4453.00,2.24
4452.00,2.23
4451.00,2.22
4450.00,2.21
4449.00,2.21
4448.00,2.20
4447.00,2.19
4446.00,2.18
4445.00,2.17
4444.00,2.16
4443.00,2.15
4442.00,2.15
4441.00,2.14
4440.00,2.13
4439.00,2.12
4438.00,2.11
4437.00,2.10
4436.00,2.09
4435.00,2.09
4434.00,2.08
4433.00,2.08
4432.00,2.07
4431.00,2.07
4430.00,2.06
4429.00,2.06
4428.00,2.06
4427.00,2.06
4426.00,2.06
4425.00,2.06
4424.00,2.06
4423.00,2.06
4422.00,2.06
4421.00,2.06
4420.00,2.06
4419.00,2.06
4418.00,2.07
4417.00,2.07
4416.00,2.07
4415.00,2.07
4414.00,2.08
4413.00,2.08
4412.00,2.09
4411.00,2.09
4410.00,2.10
4409.00,2.10
4408.00,2.10
4407.00,2.11
4406.00,2.11
4405.00,2.11
4404.00,2.11
4403.00,2.11
4402.00,2.11
4401.00,2.11
4400.00,2.11
4399.00,2.10
4398.00,2.10
4397.00,2.10
4396.00,2.09
4395.00,2.09
4394.00,2.09
4393.00,2.08
4392.00,2.08
4391.00,2.08
4390.00,2.08
4389.00,2.08
4388.00,2.08
4387.00,2.07
4386.00,2.07
4385.00,2.07
4384.00,2.06
4383.00,2.06
4382.00,2.06
4381.00,2.06
4380.00,2.06
4379.00,2.05
4378.00,2.05
4377.00,2.05
4376.00,2.05
4375.00,2.05
4374.00,2.06
4373.00,2.06
4372.00,2.06
4371.00,2.06
4370.00,2.07
4369.00,2.07
4368.00,2.07
4367.00,2.07
4366.00,2.07
4365.00,2.07
4364.00,2.07
4363.00,2.07
4362.00,2.07
4361.00,2.07
4360.00,2.07
4359.00,2.07
4358.00,2.06
4357.00,2.06
4356.00,2.06
4355.00,2.05
4354.00,2.05
4353.00,2.04
4352.00,2.04
4351.00,2.04
4350.00,2.03
4349.00,2.03
4348.00,2.02
4347.00,2.02
4346.00,2.01
4345.00,2.01
4344.00,2.00
4343.00,2.00
4342.00,1.99
4341.00,1.99
4340.00,1.99
4339.00,1.99
4338.00,1.99
4337.00,1.99
4336.00,1.99
4335.00,1.99
4334.00,2.00
4333.00,2.00
4332.00,2.01
4331.00,2.02
4330.00,2.03
4329.00,2.04
4328.00,2.05
4327.00,2.06
4326.00,2.08
4325.00,2.09
4324.00,2.10
4323.00,2.12
4322.00,2.13
4321.00,2.14
4320.00,2.15
4319.00,2.17
4318.00,2.18
4317.00,2.19
4316.00,2.20
4315.00,2.22
4314.00,2.23
4313.00,2.24
4312.00,2.25
4311.00,2.26
4310.00,2.27
4309.00,2.28
4308.00,2.28
4307.00,2.29
4306.00,2.29
4305.00,2.29
4304.00,2.30
4303.00,2.30
4302.00,2.30
4301.00,2.29
4300.00,2.29
4299.00,2.29
4298.00,2.28
4297.00,2.28
4296.00,2.28
4295.00,2.27
4294.00,2.27
4293.00,2.26
4292.00,2.26
4291.00,2.25
4290.00,2.24
4289.00,2.24
4288.00,2.23
4287.00,2.22
4286.00,2.21
4285.00,2.20
4284.00,2.20
4283.00,2.19
4282.00,2.18
4281.00,2.17
4280.00,2.17
4279.00,2.16
4278.00,2.15
4277.00,2.14
4276.00,2.13
4275.00,2.12
4274.00,2.12
4273.00,2.11
4272.00,2.10
4271.00,2.09
4270.00,2.08
4269.00,2.08
4268.00,2.07
4267.00,2.06
4266.00,2.06
4265.00,2.05
4264.00,2.05
4263.00,2.05
4262.00,2.05
4261.00,2.04
4260.00,2.04
4259.00,2.04
4258.00,2.04
4257.00,2.04
4256.00,2.04
4255.00,2.04
4254.00,2.04
4253.00,2.04
4252.00,2.04
4251.00,2.05
4250.00,2.05
4249.00,2.05
4248.00,2.06
4247.00,2.06
4246.00,2.07
4245.00,2.07
4244.00,2.08
4243.00,2.09
4242.00,2.10
4241.00,2.11
4240.00,2.12
4239.00,2.13
4238.00,2.13
4237.00,2.14
4236.00,2.15
4235.00,2.15
4234.00,2.16
4233.00,2.16
4232.00,2.17
4231.00,2.17
4230.00,2.18
4229.00,2.18
4228.00,2.19
4227.00,2.20
4226.00,2.20
4225.00,2.21
4224.00,2.21
4223.00,2.22
4222.00,2.22
4221.00,2.23
4220.00,2.23
4219.00,2.23
4218.00,2.24
4217.00,2.24
4216.00,2.24
4215.00,2.23
4214.00,2.23
4213.00,2.23
4212.00,2.23
4211.00,2.22
4210.00,2.22
4209.00,2.22
4208.00,2.22
4207.00,2.22
4206.00,2.22
4205.00,2.23
4204.00,2.23
4203.00,2.23
4202.00,2.23
4201.00,2.23
4200.00,2.23
4199.00,2.23
4198.00,2.23
4197.00,2.24
4196.00,2.24
4195.00,2.24
4194.00,2.24
4193.00,2.24
4192.00,2.25
4191.00,2.25
4190.00,2.25
4189.00,2.26
4188.00,2.26
4187.00,2.27
4186.00,2.27
4185.00,2.28
4184.00,2.28
4183.00,2.28
4182.00,2.28
4181.00,2.28
4180.00,2.28
4179.00,2.29
4178.00,2.29
4177.00,2.29
4176.00,2.29
4175.00,2.29
4174.00,2.28
4173.00,2.28
4172.00,2.28
4171.00,2.28
4170.00,2.27
4169.00,2.27
4168.00,2.26
4167.00,2.26
4166.00,2.25
4165.00,2.25
4164.00,2.24
4163.00,2.23
4162.00,2.22
4161.00,2.22
4160.00,2.21
4159.00,2.20
4158.00,2.19
4157.00,2.19
4156.00,2.18
4155.00,2.17
4154.00,2.16
4153.00,2.15
4152.00,2.14
4151.00,2.13
4150.00,2.12
4149.00,2.11
4148.00,2.11
4147.00,2.10
4146.00,2.09
4145.00,2.09
4144.00,2.08
4143.00,2.08
4142.00,2.08
4141.00,2.07
4140.00,2.07
4139.00,2.07
4138.00,2.07
4137.00,2.07
4136.00,2.07
4135.00,2.07
4134.00,2.07
4133.00,2.07
4132.00,2.07
4131.00,2.07
4130.00,2.07
4129.00,2.08
4128.00,2.08
4127.00,2.08
4126.00,2.09
4125.00,2.09
4124.00,2.10
4123.00,2.10
4122.00,2.11
4121.00,2.12
4120.00,2.12
4119.00,2.13
4118.00,2.14
4117.00,2.14
4116.00,2.15
4115.00,2.16
4114.00,2.16
4113.00,2.17
4112.00,2.18
4111.00,2.19
4110.00,2.19
4109.00,2.20
4108.00,2.21
4107.00,2.22
4106.00,2.22
4105.00,2.23
4104.00,2.24
4103.00,2.25
4102.00,2.26
4101.00,2.27
4100.00,2.27
4099.00,2.28
4098.00,2.29
4097.00,2.30
4096.00,2.30
4095.00,2.31
4094.00,2.31
4093.00,2.31
4092.00,2.31
4091.00,2.31
4090.00,2.31
4089.00,2.31
4088.00,2.31
4087.00,2.31
4086.00,2.31
4085.00,2.30
4084.00,2.30
4083.00,2.29
4082.00,2.29
4081.00,2.28
4080.00,2.27
4079.00,2.26
4078.00,2.25
4077.00,2.24
4076.00,2.23
4075.00,2.22
4074.00,2.21
4073.00,2.20
4072.00,2.19
4071.00,2.19
4070.00,2.18
4069.00,2.17
4068.00,2.16
4067.00,2.16
4066.00,2.15
4065.00,2.15
4064.00,2.15
4063.00,2.14
4062.00,2.14
4061.00,2.14
4060.00,2.14
4059.00,2.13
4058.00,2.13
4057.00,2.13
4056.00,2.14
4055.00,2.14
4054.00,2.15
4053.00,2.15
4052.00,2.16
4051.00,2.17
4050.00,2.19
4049.00,2.20
4048.00,2.21
4047.00,2.22
4046.00,2.23
4045.00,2.24
4044.00,2.25
4043.00,2.26
4042.00,2.27
4041.00,2.28
4040.00,2.29
4039.00,2.30
4038.00,2.32
4037.00,2.33
4036.00,2.34
4035.00,2.35
4034.00,2.36
4033.00,2.38
4032.00,2.39
4031.00,2.40
4030.00,2.41
4029.00,2.42
4028.00,2.42
4027.00,2.43
4026.00,2.43
4025.00,2.44
4024.00,2.44
4023.00,2.44
4022.00,2.45
4021.00,2.45
4020.00,2.45
4019.00,2.45
4018.00,2.46
4017.00,2.46
4016.00,2.47
4015.00,2.47
4014.00,2.48
4013.00,2.49
4012.00,2.49
4011.00,2.49
4010.00,2.50
4009.00,2.51
4008.00,2.51
4007.00,2.52
4006.00,2.53
4005.00,2.54
4004.00,2.55
4003.00,2.56
4002.00,2.57
4001.00,2.58
4000.00,2.59
