创建为新数据集,样品 1179 用户 Administrator 日期 星期二, 七月 30 2019
cm-1,%T
10000.00,0.70
9999.00,0.93
9998.00,1.16
9997.00,1.39
9996.00,1.61
9995.00,1.83
9994.00,2.05
9993.00,2.25
9992.00,2.45
9991.00,2.64
9990.00,2.82
9989.00,2.99
9988.00,3.15
9987.00,3.30
9986.00,3.43
9985.00,3.55
9984.00,3.65
9983.00,3.74
9982.00,3.82
9981.00,3.89
9980.00,3.94
9979.00,3.98
9978.00,4.01
9977.00,4.04
9976.00,4.05
9975.00,4.06
9974.00,4.07
9973.00,4.08
9972.00,4.08
9971.00,4.08
9970.00,4.08
9969.00,4.08
9968.00,4.08
9967.00,4.07
9966.00,4.06
9965.00,4.05
9964.00,4.04
9963.00,4.02
9962.00,3.99
9961.00,3.96
9960.00,3.92
9959.00,3.88
9958.00,3.84
9957.00,3.79
9956.00,3.74
9955.00,3.69
9954.00,3.63
9953.00,3.58
9952.00,3.52
9951.00,3.46
9950.00,3.41
9949.00,3.35
9948.00,3.29
9947.00,3.23
9946.00,3.17
9945.00,3.10
9944.00,3.04
9943.00,2.97
9942.00,2.91
9941.00,2.84
9940.00,2.78
9939.00,2.72
9938.00,2.66
9937.00,2.61
9936.00,2.56
9935.00,2.51
9934.00,2.47
9933.00,2.43
9932.00,2.40
9931.00,2.37
9930.00,2.35
9929.00,2.32
9928.00,2.30
9927.00,2.28
9926.00,2.26
9925.00,2.24
9924.00,2.22
9923.00,2.20
9922.00,2.19
9921.00,2.17
9920.00,2.16
9919.00,2.15
9918.00,2.14
9917.00,2.14
9916.00,2.13
9915.00,2.12
9914.00,2.12
9913.00,2.11
9912.00,2.09
9911.00,2.08
9910.00,2.07
9909.00,2.05
9908.00,2.03
9907.00,2.02
9906.00,2.00
9905.00,1.99
9904.00,1.98
9903.00,1.98
9902.00,1.98
9901.00,1.98
9900.00,1.99
9899.00,2.00
9898.00,2.02
9897.00,2.03
9896.00,2.05
9895.00,2.07
9894.00,2.08
9893.00,2.10
9892.00,2.11
9891.00,2.12
9890.00,2.13
9889.00,2.14
9888.00,2.14
9887.00,2.15
9886.00,2.16
9885.00,2.17
9884.00,2.18
9883.00,2.19
9882.00,2.20
9881.00,2.21
9880.00,2.22
9879.00,2.23
9878.00,2.23
9877.00,2.24
9876.00,2.24
9875.00,2.24
9874.00,2.24
9873.00,2.24
9872.00,2.23
9871.00,2.23
9870.00,2.22
9869.00,2.22
9868.00,2.22
9867.00,2.23
9866.00,2.23
9865.00,2.24
9864.00,2.25
9863.00,2.27
9862.00,2.28
9861.00,2.30
9860.00,2.32
9859.00,2.34
9858.00,2.35
9857.00,2.37
9856.00,2.38
9855.00,2.39
9854.00,2.40
9853.00,2.40
9852.00,2.41
9851.00,2.42
9850.00,2.43
9849.00,2.43
9848.00,2.44
9847.00,2.44
9846.00,2.44
9845.00,2.44
9844.00,2.44
9843.00,2.43
9842.00,2.42
9841.00,2.41
9840.00,2.39
9839.00,2.37
9838.00,2.34
9837.00,2.31
9836.00,2.29
9835.00,2.25
9834.00,2.22
9833.00,2.19
9832.00,2.16
9831.00,2.13
9830.00,2.11
9829.00,2.08
9828.00,2.06
9827.00,2.04
9826.00,2.02
9825.00,2.00
9824.00,1.98
9823.00,1.96
9822.00,1.93
9821.00,1.91
9820.00,1.89
9819.00,1.86
9818.00,1.84
9817.00,1.81
9816.00,1.79
9815.00,1.78
9814.00,1.76
9813.00,1.75
9812.00,1.75
9811.00,1.75
9810.00,1.75
9809.00,1.76
9808.00,1.77
9807.00,1.79
9806.00,1.81
9805.00,1.83
9804.00,1.85
9803.00,1.87
9802.00,1.89
9801.00,1.91
9800.00,1.93
9799.00,1.95
9798.00,1.97
9797.00,2.00
9796.00,2.03
9795.00,2.06
9794.00,2.09
9793.00,2.13
9792.00,2.17
9791.00,2.22
9790.00,2.26
9789.00,2.31
9788.00,2.35
9787.00,2.39
9786.00,2.43
9785.00,2.47
9784.00,2.50
9783.00,2.53
9782.00,2.55
9781.00,2.56
9780.00,2.57
9779.00,2.58
9778.00,2.58
9777.00,2.58
9776.00,2.58
9775.00,2.58
9774.00,2.57
9773.00,2.56
9772.00,2.55
9771.00,2.54
9770.00,2.53
9769.00,2.52
9768.00,2.50
9767.00,2.49
9766.00,2.47
9765.00,2.45
9764.00,2.43
9763.00,2.40
9762.00,2.37
9761.00,2.34
9760.00,2.31
9759.00,2.28
9758.00,2.25
9757.00,2.21
9756.00,2.18
9755.00,2.15
9754.00,2.12
9753.00,2.09
9752.00,2.06
9751.00,2.04
9750.00,2.02
9749.00,2.00
9748.00,1.98
9747.00,1.96
9746.00,1.95
9745.00,1.94
9744.00,1.92
9743.00,1.91
9742.00,1.90
9741.00,1.89
9740.00,1.88
9739.00,1.87
9738.00,1.86
9737.00,1.86
9736.00,1.85
9735.00,1.85
9734.00,1.85
9733.00,1.85
9732.00,1.86
9731.00,1.87
9730.00,1.88
9729.00,1.89
9728.00,1.91
9727.00,1.93
9726.00,1.94
9725.00,1.96
9724.00,1.98
9723.00,2.00
9722.00,2.01
9721.00,2.03
9720.00,2.04
9719.00,2.05
9718.00,2.06
9717.00,2.07
9716.00,2.08
9715.00,2.08
9714.00,2.09
9713.00,2.09
9712.00,2.10
9711.00,2.10
9710.00,2.11
9709.00,2.11
9708.00,2.11
9707.00,2.11
9706.00,2.11
9705.00,2.11
9704.00,2.11
9703.00,2.10
9702.00,2.09
9701.00,2.08
9700.00,2.07
9699.00,2.06
9698.00,2.05
9697.00,2.03
9696.00,2.02
9695.00,2.01
9694.00,2.00
9693.00,1.99
9692.00,1.99
9691.00,1.98
9690.00,1.98
9689.00,1.97
9688.00,1.96
9687.00,1.95
9686.00,1.94
9685.00,1.93
9684.00,1.92
9683.00,1.90
9682.00,1.89
9681.00,1.88
9680.00,1.87
9679.00,1.86
9678.00,1.86
9677.00,1.86
9676.00,1.86
9675.00,1.86
9674.00,1.87
9673.00,1.88
9672.00,1.90
9671.00,1.92
9670.00,1.94
9669.00,1.96
9668.00,1.98
9667.00,2.00
9666.00,2.03
9665.00,2.06
9664.00,2.08
9663.00,2.12
9662.00,2.15
9661.00,2.19
9660.00,2.22
9659.00,2.26
9658.00,2.30
9657.00,2.34
9656.00,2.38
9655.00,2.42
9654.00,2.46
9653.00,2.49
9652.00,2.52
9651.00,2.54
9650.00,2.57
9649.00,2.58
9648.00,2.59
9647.00,2.59
9646.00,2.59
9645.00,2.58
9644.00,2.56
9643.00,2.55
9642.00,2.52
9641.00,2.50
9640.00,2.47
9639.00,2.44
9638.00,2.40
9637.00,2.37
9636.00,2.33
9635.00,2.29
9634.00,2.25
9633.00,2.20
9632.00,2.16
9631.00,2.11
9630.00,2.07
9629.00,2.02
9628.00,1.98
9627.00,1.93
9626.00,1.89
9625.00,1.86
9624.00,1.82
9623.00,1.79
9622.00,1.77
9621.00,1.74
9620.00,1.72
9619.00,1.71
9618.00,1.70
9617.00,1.69
9616.00,1.68
9615.00,1.68
9614.00,1.68
9613.00,1.68
9612.00,1.68
9611.00,1.68
9610.00,1.68
9609.00,1.69
9608.00,1.69
9607.00,1.70
9606.00,1.71
9605.00,1.72
9604.00,1.72
9603.00,1.73
9602.00,1.74
9601.00,1.74
9600.00,1.74
9599.00,1.74
9598.00,1.73
9597.00,1.73
9596.00,1.72
9595.00,1.71
9594.00,1.71
9593.00,1.70
9592.00,1.69
9591.00,1.68
9590.00,1.67
9589.00,1.67
9588.00,1.66
9587.00,1.65
9586.00,1.64
9585.00,1.63
9584.00,1.63
9583.00,1.62
9582.00,1.61
9581.00,1.60
9580.00,1.60
9579.00,1.60
9578.00,1.60
9577.00,1.60
9576.00,1.61
9575.00,1.62
9574.00,1.64
9573.00,1.66
9572.00,1.69
9571.00,1.72
9570.00,1.75
9569.00,1.79
9568.00,1.82
9567.00,1.86
9566.00,1.90
9565.00,1.93
9564.00,1.97
9563.00,2.01
9562.00,2.05
9561.00,2.08
9560.00,2.12
9559.00,2.16
9558.00,2.19
9557.00,2.23
9556.00,2.26
9555.00,2.30
9554.00,2.33
9553.00,2.36
9552.00,2.38
9551.00,2.40
9550.00,2.41
9549.00,2.42
9548.00,2.42
9547.00,2.42
9546.00,2.41
9545.00,2.39
9544.00,2.38
9543.00,2.35
9542.00,2.33
9541.00,2.30
9540.00,2.27
9539.00,2.24
9538.00,2.20
9537.00,2.17
9536.00,2.13
9535.00,2.09
9534.00,2.05
9533.00,2.01
9532.00,1.97
9531.00,1.92
9530.00,1.88
9529.00,1.84
9528.00,1.80
9527.00,1.76
9526.00,1.72
9525.00,1.69
9524.00,1.66
9523.00,1.63
9522.00,1.61
9521.00,1.59
9520.00,1.58
9519.00,1.58
9518.00,1.57
9517.00,1.57
9516.00,1.57
9515.00,1.58
9514.00,1.59
9513.00,1.59
9512.00,1.60
9511.00,1.62
9510.00,1.63
9509.00,1.64
9508.00,1.66
9507.00,1.68
9506.00,1.70
9505.00,1.73
9504.00,1.75
9503.00,1.78
9502.00,1.81
9501.00,1.83
9500.00,1.86
9499.00,1.88
9498.00,1.90
9497.00,1.91
9496.00,1.93
9495.00,1.94
9494.00,1.95
9493.00,1.95
9492.00,1.96
9491.00,1.96
9490.00,1.96
9489.00,1.96
9488.00,1.97
9487.00,1.97
9486.00,1.97
9485.00,1.98
9484.00,1.98
9483.00,1.99
9482.00,1.99
9481.00,2.00
9480.00,2.00
9479.00,2.00
9478.00,2.00
9477.00,2.00
9476.00,2.00
9475.00,2.00
9474.00,2.00
9473.00,2.01
9472.00,2.01
9471.00,2.02
9470.00,2.03
9469.00,2.04
9468.00,2.06
9467.00,2.07
9466.00,2.09
9465.00,2.10
9464.00,2.12
9463.00,2.14
9462.00,2.15
9461.00,2.17
9460.00,2.18
9459.00,2.19
9458.00,2.21
9457.00,2.22
9456.00,2.23
9455.00,2.24
9454.00,2.25
9453.00,2.26
9452.00,2.26
9451.00,2.27
9450.00,2.28
9449.00,2.28
9448.00,2.28
9447.00,2.29
9446.00,2.29
9445.00,2.29
9444.00,2.29
9443.00,2.29
9442.00,2.30
9441.00,2.30
9440.00,2.30
9439.00,2.30
9438.00,2.30
9437.00,2.30
9436.00,2.30
9435.00,2.29
9434.00,2.29
9433.00,2.29
9432.00,2.29
9431.00,2.29
9430.00,2.29
9429.00,2.28
9428.00,2.28
9427.00,2.28
9426.00,2.28
9425.00,2.28
9424.00,2.29
9423.00,2.29
9422.00,2.29
9421.00,2.29
9420.00,2.29
9419.00,2.29
9418.00,2.29
9417.00,2.28
9416.00,2.28
9415.00,2.27
9414.00,2.26
9413.00,2.24
9412.00,2.23
9411.00,2.21
9410.00,2.19
9409.00,2.17
9408.00,2.15
9407.00,2.12
9406.00,2.10
9405.00,2.07
9404.00,2.05
9403.00,2.02
9402.00,1.99
9401.00,1.97
9400.00,1.94
9399.00,1.91
9398.00,1.88
9397.00,1.85
9396.00,1.82
9395.00,1.79
9394.00,1.77
9393.00,1.74
9392.00,1.72
9391.00,1.70
9390.00,1.68
9389.00,1.66
9388.00,1.64
9387.00,1.63
9386.00,1.61
9385.00,1.60
9384.00,1.59
9383.00,1.59
9382.00,1.58
9381.00,1.58
9380.00,1.58
9379.00,1.59
9378.00,1.59
9377.00,1.59
9376.00,1.60
9375.00,1.60
9374.00,1.61
9373.00,1.61
9372.00,1.62
9371.00,1.62
9370.00,1.63
9369.00,1.64
9368.00,1.64
9367.00,1.65
9366.00,1.65
9365.00,1.66
9364.00,1.66
9363.00,1.67
9362.00,1.67
9361.00,1.68
9360.00,1.68
9359.00,1.68
9358.00,1.69
9357.00,1.69
9356.00,1.69
9355.00,1.69
9354.00,1.70
9353.00,1.70
9352.00,1.70
9351.00,1.70
9350.00,1.70
9349.00,1.70
9348.00,1.71
9347.00,1.71
9346.00,1.71
9345.00,1.72
9344.00,1.72
9343.00,1.72
9342.00,1.72
9341.00,1.73
9340.00,1.73
9339.00,1.73
9338.00,1.73
9337.00,1.74
9336.00,1.74
9335.00,1.74
9334.00,1.75
9333.00,1.75
9332.00,1.76
9331.00,1.76
9330.00,1.77
9329.00,1.77
9328.00,1.78
9327.00,1.78
9326.00,1.79
9325.00,1.79
9324.00,1.80
9323.00,1.81
9322.00,1.82
9321.00,1.83
9320.00,1.85
9319.00,1.86
9318.00,1.87
9317.00,1.89
9316.00,1.91
9315.00,1.92
9314.00,1.94
9313.00,1.96
9312.00,1.98
9311.00,2.00
9310.00,2.02
9309.00,2.04
9308.00,2.06
9307.00,2.07
9306.00,2.09
9305.00,2.11
9304.00,2.12
9303.00,2.14
9302.00,2.15
9301.00,2.16
9300.00,2.18
9299.00,2.18
9298.00,2.19
9297.00,2.20
9296.00,2.20
9295.00,2.20
9294.00,2.20
9293.00,2.19
9292.00,2.19
9291.00,2.19
9290.00,2.18
9289.00,2.17
9288.00,2.17
9287.00,2.16
9286.00,2.15
9285.00,2.14
9284.00,2.13
9283.00,2.12
9282.00,2.10
9281.00,2.09
9280.00,2.07
9279.00,2.06
9278.00,2.04
9277.00,2.03
9276.00,2.02
9275.00,2.00
9274.00,1.99
9273.00,1.99
9272.00,1.98
9271.00,1.98
9270.00,1.98
9269.00,1.98
9268.00,1.98
9267.00,1.98
9266.00,1.98
9265.00,1.99
9264.00,1.99
9263.00,1.99
9262.00,2.00
9261.00,2.00
9260.00,2.00
9259.00,2.01
9258.00,2.01
9257.00,2.02
9256.00,2.03
9255.00,2.04
9254.00,2.05
9253.00,2.06
9252.00,2.08
9251.00,2.09
9250.00,2.11
9249.00,2.12
9248.00,2.14
9247.00,2.16
9246.00,2.17
9245.00,2.19
9244.00,2.20
9243.00,2.21
9242.00,2.22
9241.00,2.24
9240.00,2.25
9239.00,2.26
9238.00,2.27
9237.00,2.28
9236.00,2.29
9235.00,2.30
9234.00,2.31
9233.00,2.32
9232.00,2.33
9231.00,2.34
9230.00,2.34
9229.00,2.35
9228.00,2.35
9227.00,2.35
9226.00,2.34
9225.00,2.34
9224.00,2.33
9223.00,2.32
9222.00,2.30
9221.00,2.28
9220.00,2.27
9219.00,2.25
9218.00,2.23
9217.00,2.21
9216.00,2.19
9215.00,2.17
9214.00,2.15
9213.00,2.12
9212.00,2.10
9211.00,2.08
9210.00,2.06
9209.00,2.04
9208.00,2.02
9207.00,2.00
9206.00,1.99
9205.00,1.97
9204.00,1.96
9203.00,1.95
9202.00,1.95
9201.00,1.94
9200.00,1.95
9199.00,1.95
9198.00,1.96
9197.00,1.97
9196.00,1.98
9195.00,2.00
9194.00,2.02
9193.00,2.04
9192.00,2.06
9191.00,2.08
9190.00,2.10
9189.00,2.13
9188.00,2.15
9187.00,2.18
9186.00,2.20
9185.00,2.23
9184.00,2.25
9183.00,2.27
9182.00,2.30
9181.00,2.32
9180.00,2.33
9179.00,2.35
9178.00,2.36
9177.00,2.37
9176.00,2.38
9175.00,2.38
9174.00,2.38
9173.00,2.38
9172.00,2.38
9171.00,2.37
9170.00,2.36
9169.00,2.35
9168.00,2.34
9167.00,2.32
9166.00,2.30
9165.00,2.28
9164.00,2.26
9163.00,2.23
9162.00,2.20
9161.00,2.17
9160.00,2.13
9159.00,2.10
9158.00,2.06
9157.00,2.03
9156.00,1.99
9155.00,1.96
9154.00,1.93
9153.00,1.90
9152.00,1.88
9151.00,1.85
9150.00,1.83
9149.00,1.80
9148.00,1.78
9147.00,1.76
9146.00,1.75
9145.00,1.73
9144.00,1.71
9143.00,1.70
9142.00,1.69
9141.00,1.68
9140.00,1.67
9139.00,1.67
9138.00,1.67
9137.00,1.68
9136.00,1.69
9135.00,1.70
9134.00,1.71
9133.00,1.73
9132.00,1.75
9131.00,1.78
9130.00,1.80
9129.00,1.82
9128.00,1.84
9127.00,1.86
9126.00,1.88
9125.00,1.90
9124.00,1.92
9123.00,1.93
9122.00,1.95
9121.00,1.97
9120.00,1.98
9119.00,2.00
9118.00,2.02
9117.00,2.04
9116.00,2.06
9115.00,2.08
9114.00,2.09
9113.00,2.11
9112.00,2.13
9111.00,2.14
9110.00,2.15
9109.00,2.16
9108.00,2.16
9107.00,2.17
9106.00,2.17
9105.00,2.16
9104.00,2.16
9103.00,2.15
9102.00,2.15
9101.00,2.14
9100.00,2.13
9099.00,2.12
9098.00,2.11
9097.00,2.11
9096.00,2.10
9095.00,2.09
9094.00,2.08
9093.00,2.08
9092.00,2.07
9091.00,2.06
9090.00,2.05
9089.00,2.04
9088.00,2.03
9087.00,2.02
9086.00,2.01
9085.00,2.00
9084.00,1.99
9083.00,1.98
9082.00,1.98
9081.00,1.97
9080.00,1.97
9079.00,1.97
9078.00,1.97
9077.00,1.97
9076.00,1.98
9075.00,1.98
9074.00,1.99
9073.00,2.00
9072.00,2.02
9071.00,2.03
9070.00,2.04
9069.00,2.04
9068.00,2.05
9067.00,2.05
9066.00,2.06
9065.00,2.06
9064.00,2.05
9063.00,2.05
9062.00,2.05
9061.00,2.04
9060.00,2.04
9059.00,2.03
9058.00,2.02
9057.00,2.02
9056.00,2.01
9055.00,2.01
9054.00,2.00
9053.00,2.00
9052.00,1.99
9051.00,1.98
9050.00,1.97
9049.00,1.96
9048.00,1.95
9047.00,1.93
9046.00,1.92
9045.00,1.90
9044.00,1.89
9043.00,1.88
9042.00,1.87
9041.00,1.87
9040.00,1.86
9039.00,1.87
9038.00,1.87
9037.00,1.88
9036.00,1.89
9035.00,1.89
9034.00,1.90
9033.00,1.91
9032.00,1.92
9031.00,1.93
9030.00,1.93
9029.00,1.94
9028.00,1.94
9027.00,1.95
9026.00,1.95
9025.00,1.95
9024.00,1.95
9023.00,1.96
9022.00,1.96
9021.00,1.96
9020.00,1.97
9019.00,1.97
9018.00,1.98
9017.00,1.98
9016.00,1.98
9015.00,1.98
9014.00,1.98
9013.00,1.97
9012.00,1.96
9011.00,1.95
9010.00,1.93
9009.00,1.92
9008.00,1.90
9007.00,1.89
9006.00,1.87
9005.00,1.86
9004.00,1.85
9003.00,1.84
9002.00,1.83
9001.00,1.83
9000.00,1.82
8999.00,1.82
8998.00,1.82
8997.00,1.82
8996.00,1.81
8995.00,1.81
8994.00,1.81
8993.00,1.81
8992.00,1.81
8991.00,1.80
8990.00,1.80
8989.00,1.80
8988.00,1.81
8987.00,1.81
8986.00,1.81
8985.00,1.82
8984.00,1.83
8983.00,1.84
8982.00,1.86
8981.00,1.87
8980.00,1.88
8979.00,1.89
8978.00,1.90
8977.00,1.91
8976.00,1.92
8975.00,1.93
8974.00,1.94
8973.00,1.94
8972.00,1.95
8971.00,1.95
8970.00,1.96
8969.00,1.97
8968.00,1.97
8967.00,1.98
8966.00,1.99
8965.00,2.00
8964.00,2.00
8963.00,2.01
8962.00,2.02
8961.00,2.03
8960.00,2.04
8959.00,2.05
8958.00,2.06
8957.00,2.07
8956.00,2.08
8955.00,2.09
8954.00,2.10
8953.00,2.12
8952.00,2.13
8951.00,2.14
8950.00,2.15
8949.00,2.17
8948.00,2.18
8947.00,2.20
8946.00,2.21
8945.00,2.23
8944.00,2.24
8943.00,2.26
8942.00,2.27
8941.00,2.28
8940.00,2.29
8939.00,2.30
8938.00,2.31
8937.00,2.32
8936.00,2.33
8935.00,2.33
8934.00,2.33
8933.00,2.33
8932.00,2.33
8931.00,2.33
8930.00,2.32
8929.00,2.31
8928.00,2.30
8927.00,2.29
8926.00,2.29
8925.00,2.28
8924.00,2.27
8923.00,2.25
8922.00,2.24
8921.00,2.23
8920.00,2.21
8919.00,2.20
8918.00,2.18
8917.00,2.17
8916.00,2.15
8915.00,2.13
8914.00,2.12
8913.00,2.10
8912.00,2.08
8911.00,2.07
8910.00,2.05
8909.00,2.04
8908.00,2.02
8907.00,2.01
8906.00,2.00
8905.00,1.98
8904.00,1.97
8903.00,1.96
8902.00,1.96
8901.00,1.95
8900.00,1.94
8899.00,1.94
8898.00,1.93
8897.00,1.93
8896.00,1.93
8895.00,1.92
8894.00,1.92
8893.00,1.92
8892.00,1.92
8891.00,1.92
8890.00,1.92
8889.00,1.92
8888.00,1.92
8887.00,1.93
8886.00,1.93
8885.00,1.94
8884.00,1.94
8883.00,1.95
8882.00,1.96
8881.00,1.97
8880.00,1.99
8879.00,2.00
8878.00,2.01
8877.00,2.02
8876.00,2.03
8875.00,2.04
8874.00,2.05
8873.00,2.06
8872.00,2.06
8871.00,2.07
8870.00,2.07
8869.00,2.07
8868.00,2.07
8867.00,2.08
8866.00,2.08
8865.00,2.08
8864.00,2.08
8863.00,2.08
8862.00,2.08
8861.00,2.08
8860.00,2.08
8859.00,2.08
8858.00,2.07
8857.00,2.06
8856.00,2.05
8855.00,2.04
8854.00,2.03
8853.00,2.01
8852.00,2.00
8851.00,1.99
8850.00,1.98
8849.00,1.97
8848.00,1.97
8847.00,1.96
8846.00,1.96
8845.00,1.95
8844.00,1.95
8843.00,1.95
8842.00,1.94
8841.00,1.94
8840.00,1.94
8839.00,1.93
8838.00,1.93
8837.00,1.93
8836.00,1.93
8835.00,1.93
8834.00,1.93
8833.00,1.93
8832.00,1.93
8831.00,1.94
8830.00,1.94
8829.00,1.94
8828.00,1.95
8827.00,1.95
8826.00,1.95
8825.00,1.95
8824.00,1.94
8823.00,1.94
8822.00,1.93
8821.00,1.93
8820.00,1.92
8819.00,1.91
8818.00,1.91
8817.00,1.91
8816.00,1.90
8815.00,1.90
8814.00,1.90
8813.00,1.90
8812.00,1.89
8811.00,1.89
8810.00,1.89
8809.00,1.89
8808.00,1.89
8807.00,1.90
8806.00,1.90
8805.00,1.90
8804.00,1.91
8803.00,1.91
8802.00,1.92
8801.00,1.93
8800.00,1.94
8799.00,1.96
8798.00,1.97
8797.00,1.99
8796.00,2.01
8795.00,2.03
8794.00,2.05
8793.00,2.07
8792.00,2.09
8791.00,2.11
8790.00,2.12
8789.00,2.14
8788.00,2.16
8787.00,2.17
8786.00,2.18
8785.00,2.19
8784.00,2.20
8783.00,2.21
8782.00,2.21
8781.00,2.21
8780.00,2.21
8779.00,2.21
8778.00,2.21
8777.00,2.21
8776.00,2.21
8775.00,2.20
8774.00,2.20
8773.00,2.19
8772.00,2.18
8771.00,2.17
8770.00,2.15
8769.00,2.13
8768.00,2.11
8767.00,2.09
8766.00,2.06
8765.00,2.04
8764.00,2.01
8763.00,1.99
8762.00,1.96
8761.00,1.94
8760.00,1.92
8759.00,1.90
8758.00,1.88
8757.00,1.87
8756.00,1.85
8755.00,1.84
8754.00,1.84
8753.00,1.83
8752.00,1.83
8751.00,1.82
8750.00,1.82
8749.00,1.81
8748.00,1.81
8747.00,1.81
8746.00,1.81
8745.00,1.82
8744.00,1.82
8743.00,1.83
8742.00,1.84
8741.00,1.85
8740.00,1.87
8739.00,1.88
8738.00,1.90
8737.00,1.92
8736.00,1.94
8735.00,1.96
8734.00,1.98
8733.00,1.99
8732.00,2.01
8731.00,2.03
8730.00,2.04
8729.00,2.05
8728.00,2.07
8727.00,2.08
8726.00,2.09
8725.00,2.09
8724.00,2.10
8723.00,2.10
8722.00,2.10
8721.00,2.10
8720.00,2.10
8719.00,2.10
8718.00,2.09
8717.00,2.08
8716.00,2.07
8715.00,2.07
8714.00,2.06
8713.00,2.05
8712.00,2.04
8711.00,2.03
8710.00,2.02
8709.00,2.01
8708.00,2.00
8707.00,2.00
8706.00,1.99
8705.00,1.99
8704.00,1.98
8703.00,1.98
8702.00,1.97
8701.00,1.97
8700.00,1.96
8699.00,1.96
8698.00,1.96
8697.00,1.96
8696.00,1.96
8695.00,1.97
8694.00,1.98
8693.00,1.99
8692.00,2.00
8691.00,2.02
8690.00,2.03
8689.00,2.05
8688.00,2.07
8687.00,2.09
8686.00,2.10
8685.00,2.12
8684.00,2.13
8683.00,2.15
8682.00,2.16
8681.00,2.17
8680.00,2.17
8679.00,2.18
8678.00,2.18
8677.00,2.19
8676.00,2.19
8675.00,2.19
8674.00,2.19
8673.00,2.19
8672.00,2.20
8671.00,2.20
8670.00,2.20
8669.00,2.21
8668.00,2.21
8667.00,2.21
8666.00,2.21
8665.00,2.21
8664.00,2.21
8663.00,2.20
8662.00,2.20
8661.00,2.20
8660.00,2.20
8659.00,2.20
8658.00,2.20
8657.00,2.20
8656.00,2.20
8655.00,2.20
8654.00,2.21
8653.00,2.22
8652.00,2.22
8651.00,2.23
8650.00,2.25
8649.00,2.26
8648.00,2.27
8647.00,2.28
8646.00,2.29
8645.00,2.30
8644.00,2.31
8643.00,2.31
8642.00,2.32
8641.00,2.32
8640.00,2.32
8639.00,2.32
8638.00,2.32
8637.00,2.32
8636.00,2.31
8635.00,2.31
8634.00,2.30
8633.00,2.29
8632.00,2.27
8631.00,2.26
8630.00,2.24
8629.00,2.23
8628.00,2.21
8627.00,2.19
8626.00,2.17
8625.00,2.15
8624.00,2.13
8623.00,2.11
8622.00,2.09
8621.00,2.07
8620.00,2.04
8619.00,2.02
8618.00,2.00
8617.00,1.98
8616.00,1.95
8615.00,1.93
8614.00,1.92
8613.00,1.90
8612.00,1.88
8611.00,1.87
8610.00,1.85
8609.00,1.84
8608.00,1.83
8607.00,1.83
8606.00,1.82
8605.00,1.82
8604.00,1.81
8603.00,1.81
8602.00,1.81
8601.00,1.81
8600.00,1.80
8599.00,1.80
8598.00,1.79
8597.00,1.79
8596.00,1.79
8595.00,1.78
8594.00,1.78
8593.00,1.78
8592.00,1.78
8591.00,1.78
8590.00,1.79
8589.00,1.79
8588.00,1.79
8587.00,1.79
8586.00,1.79
8585.00,1.79
8584.00,1.80
8583.00,1.80
8582.00,1.80
8581.00,1.81
8580.00,1.81
8579.00,1.82
8578.00,1.82
8577.00,1.83
8576.00,1.84
8575.00,1.85
8574.00,1.86
8573.00,1.88
8572.00,1.89
8571.00,1.90
8570.00,1.91
8569.00,1.93
8568.00,1.94
8567.00,1.95
8566.00,1.96
8565.00,1.98
8564.00,1.99
8563.00,2.00
8562.00,2.01
8561.00,2.02
8560.00,2.03
8559.00,2.05
8558.00,2.06
8557.00,2.07
8556.00,2.08
8555.00,2.08
8554.00,2.09
8553.00,2.09
8552.00,2.09
8551.00,2.09
8550.00,2.09
8549.00,2.08
8548.00,2.08
8547.00,2.08
8546.00,2.08
8545.00,2.07
8544.00,2.07
8543.00,2.07
8542.00,2.07
8541.00,2.07
8540.00,2.07
8539.00,2.07
8538.00,2.07
8537.00,2.06
8536.00,2.06
8535.00,2.05
8534.00,2.05
8533.00,2.04
8532.00,2.04
8531.00,2.03
8530.00,2.03
8529.00,2.03
8528.00,2.03
8527.00,2.03
8526.00,2.04
8525.00,2.04
8524.00,2.05
8523.00,2.05
8522.00,2.05
8521.00,2.06
8520.00,2.06
8519.00,2.06
8518.00,2.06
8517.00,2.06
8516.00,2.06
8515.00,2.06
8514.00,2.06
8513.00,2.07
8512.00,2.07
8511.00,2.08
8510.00,2.09
8509.00,2.10
8508.00,2.11
8507.00,2.12
8506.00,2.13
8505.00,2.14
8504.00,2.15
8503.00,2.16
8502.00,2.16
8501.00,2.17
8500.00,2.17
8499.00,2.17
8498.00,2.17
8497.00,2.17
8496.00,2.17
8495.00,2.17
8494.00,2.18
8493.00,2.18
8492.00,2.19
8491.00,2.19
8490.00,2.20
8489.00,2.20
8488.00,2.20
8487.00,2.20
8486.00,2.20
8485.00,2.20
8484.00,2.20
8483.00,2.20
8482.00,2.19
8481.00,2.18
8480.00,2.18
8479.00,2.17
8478.00,2.16
8477.00,2.16
8476.00,2.15
8475.00,2.15
8474.00,2.15
8473.00,2.14
8472.00,2.14
8471.00,2.14
8470.00,2.14
8469.00,2.13
8468.00,2.13
8467.00,2.12
8466.00,2.11
8465.00,2.10
8464.00,2.09
8463.00,2.08
8462.00,2.07
8461.00,2.06
8460.00,2.05
8459.00,2.04
8458.00,2.03
8457.00,2.02
8456.00,2.01
8455.00,2.01
8454.00,2.00
8453.00,1.99
8452.00,1.99
8451.00,1.98
8450.00,1.98
8449.00,1.97
8448.00,1.96
8447.00,1.96
8446.00,1.95
8445.00,1.95
8444.00,1.95
8443.00,1.94
8442.00,1.94
8441.00,1.94
8440.00,1.95
8439.00,1.95
8438.00,1.96
8437.00,1.96
8436.00,1.97
8435.00,1.98
8434.00,1.99
8433.00,1.99
8432.00,2.00
8431.00,2.01
8430.00,2.01
8429.00,2.01
8428.00,2.02
8427.00,2.02
8426.00,2.03
8425.00,2.03
8424.00,2.03
8423.00,2.04
8422.00,2.04
8421.00,2.04
8420.00,2.05
8419.00,2.05
8418.00,2.05
8417.00,2.05
8416.00,2.06
8415.00,2.06
8414.00,2.06
8413.00,2.06
8412.00,2.06
8411.00,2.06
8410.00,2.06
8409.00,2.05
8408.00,2.05
8407.00,2.05
8406.00,2.05
8405.00,2.05
8404.00,2.05
8403.00,2.05
8402.00,2.05
8401.00,2.05
8400.00,2.05
8399.00,2.05
8398.00,2.05
8397.00,2.06
8396.00,2.06
8395.00,2.06
8394.00,2.06
8393.00,2.06
8392.00,2.07
8391.00,2.07
8390.00,2.07
8389.00,2.07
8388.00,2.07
8387.00,2.07
8386.00,2.07
8385.00,2.07
8384.00,2.07
8383.00,2.07
8382.00,2.07
8381.00,2.07
8380.00,2.08
8379.00,2.08
8378.00,2.08
8377.00,2.08
8376.00,2.09
8375.00,2.09
8374.00,2.09
8373.00,2.09
8372.00,2.10
8371.00,2.10
8370.00,2.10
8369.00,2.10
8368.00,2.10
8367.00,2.10
8366.00,2.09
8365.00,2.09
8364.00,2.09
8363.00,2.09
8362.00,2.09
8361.00,2.09
8360.00,2.09
8359.00,2.08
8358.00,2.08
8357.00,2.08
8356.00,2.08
8355.00,2.07
8354.00,2.07
8353.00,2.07
8352.00,2.06
8351.00,2.06
8350.00,2.05
8349.00,2.05
8348.00,2.04
8347.00,2.04
8346.00,2.03
8345.00,2.03
8344.00,2.02
8343.00,2.01
8342.00,2.01
8341.00,2.00
8340.00,2.00
8339.00,1.99
8338.00,1.98
8337.00,1.98
8336.00,1.97
8335.00,1.97
8334.00,1.96
8333.00,1.96
8332.00,1.95
8331.00,1.95
8330.00,1.95
8329.00,1.94
8328.00,1.94
8327.00,1.94
8326.00,1.93
8325.00,1.93
8324.00,1.93
8323.00,1.93
8322.00,1.93
8321.00,1.93
8320.00,1.94
8319.00,1.94
8318.00,1.94
8317.00,1.94
8316.00,1.95
8315.00,1.95
8314.00,1.96
8313.00,1.97
8312.00,1.97
8311.00,1.98
8310.00,1.99
8309.00,2.00
8308.00,2.00
8307.00,2.01
8306.00,2.02
8305.00,2.03
8304.00,2.04
8303.00,2.05
8302.00,2.06
8301.00,2.07
8300.00,2.08
8299.00,2.09
8298.00,2.10
8297.00,2.11
8296.00,2.12
8295.00,2.12
8294.00,2.13
8293.00,2.14
8292.00,2.14
8291.00,2.15
8290.00,2.15
8289.00,2.16
8288.00,2.16
8287.00,2.17
8286.00,2.17
8285.00,2.17
8284.00,2.17
8283.00,2.18
8282.00,2.18
8281.00,2.18
8280.00,2.18
8279.00,2.18
8278.00,2.18
8277.00,2.18
8276.00,2.17
8275.00,2.17
8274.00,2.17
8273.00,2.17
8272.00,2.17
8271.00,2.17
8270.00,2.17
8269.00,2.17
8268.00,2.17
8267.00,2.18
8266.00,2.18
8265.00,2.18
8264.00,2.18
8263.00,2.18
8262.00,2.19
8261.00,2.19
8260.00,2.19
8259.00,2.19
8258.00,2.20
8257.00,2.20
8256.00,2.20
8255.00,2.20
8254.00,2.20
8253.00,2.20
8252.00,2.20
8251.00,2.20
8250.00,2.20
8249.00,2.20
8248.00,2.20
8247.00,2.20
8246.00,2.20
8245.00,2.20
8244.00,2.20
8243.00,2.19
8242.00,2.19
8241.00,2.19
8240.00,2.19
8239.00,2.19
8238.00,2.18
8237.00,2.18
8236.00,2.18
8235.00,2.18
8234.00,2.18
8233.00,2.19
8232.00,2.19
8231.00,2.19
8230.00,2.20
8229.00,2.20
8228.00,2.21
8227.00,2.22
8226.00,2.22
8225.00,2.23
8224.00,2.24
8223.00,2.25
8222.00,2.26
8221.00,2.27
8220.00,2.27
8219.00,2.28
8218.00,2.29
8217.00,2.30
8216.00,2.30
8215.00,2.31
8214.00,2.31
8213.00,2.32
8212.00,2.32
8211.00,2.33
8210.00,2.33
8209.00,2.33
8208.00,2.34
8207.00,2.34
8206.00,2.34
8205.00,2.34
8204.00,2.34
8203.00,2.33
8202.00,2.33
8201.00,2.33
8200.00,2.33
8199.00,2.32
8198.00,2.32
8197.00,2.31
8196.00,2.30
8195.00,2.30
8194.00,2.29
8193.00,2.28
8192.00,2.27
8191.00,2.26
8190.00,2.26
8189.00,2.25
8188.00,2.24
8187.00,2.23
8186.00,2.22
8185.00,2.21
8184.00,2.20
8183.00,2.19
8182.00,2.18
8181.00,2.17
8180.00,2.17
8179.00,2.16
8178.00,2.15
8177.00,2.14
8176.00,2.13
8175.00,2.12
8174.00,2.11
8173.00,2.10
8172.00,2.09
8171.00,2.08
8170.00,2.07
8169.00,2.06
8168.00,2.06
8167.00,2.05
8166.00,2.04
8165.00,2.04
8164.00,2.04
8163.00,2.03
8162.00,2.03
8161.00,2.03
8160.00,2.03
8159.00,2.03
8158.00,2.03
8157.00,2.03
8156.00,2.03
8155.00,2.03
8154.00,2.03
8153.00,2.03
8152.00,2.03
8151.00,2.04
8150.00,2.04
8149.00,2.04
8148.00,2.05
8147.00,2.06
8146.00,2.07
8145.00,2.08
8144.00,2.09
8143.00,2.10
8142.00,2.11
8141.00,2.13
8140.00,2.14
8139.00,2.15
8138.00,2.16
8137.00,2.18
8136.00,2.19
8135.00,2.20
8134.00,2.21
8133.00,2.22
8132.00,2.23
8131.00,2.24
8130.00,2.25
8129.00,2.26
8128.00,2.26
8127.00,2.27
8126.00,2.27
8125.00,2.27
8124.00,2.27
8123.00,2.27
8122.00,2.26
8121.00,2.26
8120.00,2.25
8119.00,2.25
8118.00,2.24
8117.00,2.24
8116.00,2.23
8115.00,2.22
8114.00,2.21
8113.00,2.20
8112.00,2.19
8111.00,2.18
8110.00,2.17
8109.00,2.15
8108.00,2.14
8107.00,2.12
8106.00,2.11
8105.00,2.10
8104.00,2.08
8103.00,2.07
8102.00,2.07
8101.00,2.06
8100.00,2.05
8099.00,2.05
8098.00,2.05
8097.00,2.05
8096.00,2.05
8095.00,2.06
8094.00,2.06
8093.00,2.06
8092.00,2.06
8091.00,2.06
8090.00,2.06
8089.00,2.05
8088.00,2.05
8087.00,2.05
8086.00,2.06
8085.00,2.06
8084.00,2.06
8083.00,2.07
8082.00,2.08
8081.00,2.09
8080.00,2.09
8079.00,2.10
8078.00,2.11
8077.00,2.12
8076.00,2.12
8075.00,2.13
8074.00,2.13
8073.00,2.13
8072.00,2.13
8071.00,2.13
8070.00,2.13
8069.00,2.12
8068.00,2.12
8067.00,2.12
8066.00,2.12
8065.00,2.12
8064.00,2.12
8063.00,2.11
8062.00,2.11
8061.00,2.11
8060.00,2.11
8059.00,2.11
8058.00,2.10
8057.00,2.10
8056.00,2.09
8055.00,2.08
8054.00,2.08
8053.00,2.07
8052.00,2.06
8051.00,2.06
8050.00,2.05
8049.00,2.05
8048.00,2.04
8047.00,2.04
8046.00,2.04
8045.00,2.04
8044.00,2.04
8043.00,2.05
8042.00,2.05
8041.00,2.06
8040.00,2.06
8039.00,2.07
8038.00,2.07
8037.00,2.08
8036.00,2.08
8035.00,2.09
8034.00,2.10
8033.00,2.10
8032.00,2.11
8031.00,2.11
8030.00,2.12
8029.00,2.13
8028.00,2.13
8027.00,2.14
8026.00,2.14
8025.00,2.14
8024.00,2.15
8023.00,2.15
8022.00,2.15
8021.00,2.15
8020.00,2.15
8019.00,2.15
8018.00,2.14
8017.00,2.14
8016.00,2.14
8015.00,2.13
8014.00,2.12
8013.00,2.12
8012.00,2.11
8011.00,2.10
8010.00,2.09
8009.00,2.09
8008.00,2.08
8007.00,2.08
8006.00,2.08
8005.00,2.08
8004.00,2.08
8003.00,2.08
8002.00,2.08
8001.00,2.09
8000.00,2.09
7999.00,2.10
7998.00,2.11
7997.00,2.11
7996.00,2.12
7995.00,2.12
7994.00,2.12
7993.00,2.13
7992.00,2.13
7991.00,2.13
7990.00,2.14
7989.00,2.14
7988.00,2.15
7987.00,2.15
7986.00,2.16
7985.00,2.17
7984.00,2.18
7983.00,2.18
7982.00,2.19
7981.00,2.20
7980.00,2.20
7979.00,2.20
7978.00,2.20
7977.00,2.20
7976.00,2.20
7975.00,2.20
7974.00,2.19
7973.00,2.19
7972.00,2.19
7971.00,2.19
7970.00,2.19
7969.00,2.19
7968.00,2.19
7967.00,2.20
7966.00,2.20
7965.00,2.21
7964.00,2.22
7963.00,2.22
7962.00,2.23
7961.00,2.23
7960.00,2.23
7959.00,2.23
7958.00,2.23
7957.00,2.23
7956.00,2.23
7955.00,2.23
7954.00,2.23
7953.00,2.23
7952.00,2.23
7951.00,2.23
7950.00,2.24
7949.00,2.24
7948.00,2.24
7947.00,2.24
7946.00,2.24
7945.00,2.24
7944.00,2.23
7943.00,2.23
7942.00,2.22
7941.00,2.21
7940.00,2.20
7939.00,2.20
7938.00,2.19
7937.00,2.18
7936.00,2.17
7935.00,2.16
7934.00,2.15
7933.00,2.14
7932.00,2.14
7931.00,2.13
7930.00,2.13
7929.00,2.12
7928.00,2.12
7927.00,2.11
7926.00,2.11
7925.00,2.10
7924.00,2.10
7923.00,2.09
7922.00,2.09
7921.00,2.08
7920.00,2.08
7919.00,2.08
7918.00,2.08
7917.00,2.08
7916.00,2.08
7915.00,2.09
7914.00,2.09
7913.00,2.09
7912.00,2.10
7911.00,2.10
7910.00,2.11
7909.00,2.12
7908.00,2.12
7907.00,2.13
7906.00,2.13
7905.00,2.14
7904.00,2.14
7903.00,2.15
7902.00,2.15
7901.00,2.15
7900.00,2.15
7899.00,2.15
7898.00,2.15
7897.00,2.15
7896.00,2.15
7895.00,2.14
7894.00,2.14
7893.00,2.14
7892.00,2.14
7891.00,2.14
7890.00,2.14
7889.00,2.14
7888.00,2.15
7887.00,2.15
7886.00,2.15
7885.00,2.15
7884.00,2.15
7883.00,2.14
7882.00,2.14
7881.00,2.14
7880.00,2.13
7879.00,2.13
7878.00,2.12
7877.00,2.12
7876.00,2.12
7875.00,2.11
7874.00,2.11
7873.00,2.11
7872.00,2.11
7871.00,2.11
7870.00,2.11
7869.00,2.11
7868.00,2.11
7867.00,2.11
7866.00,2.11
7865.00,2.11
7864.00,2.10
7863.00,2.10
7862.00,2.09
7861.00,2.09
7860.00,2.08
7859.00,2.08
7858.00,2.07
7857.00,2.07
7856.00,2.07
7855.00,2.07
7854.00,2.07
7853.00,2.07
7852.00,2.07
7851.00,2.08
7850.00,2.08
7849.00,2.08
7848.00,2.09
7847.00,2.09
7846.00,2.10
7845.00,2.10
7844.00,2.11
7843.00,2.12
7842.00,2.12
7841.00,2.13
7840.00,2.13
7839.00,2.14
7838.00,2.14
7837.00,2.14
7836.00,2.15
7835.00,2.15
7834.00,2.16
7833.00,2.16
7832.00,2.16
7831.00,2.17
7830.00,2.17
7829.00,2.17
7828.00,2.17
7827.00,2.17
7826.00,2.17
7825.00,2.17
7824.00,2.17
7823.00,2.17
7822.00,2.17
7821.00,2.16
7820.00,2.16
7819.00,2.16
7818.00,2.16
7817.00,2.17
7816.00,2.17
7815.00,2.17
7814.00,2.17
7813.00,2.18
7812.00,2.18
7811.00,2.19
7810.00,2.20
7809.00,2.20
7808.00,2.21
7807.00,2.22
7806.00,2.23
7805.00,2.23
7804.00,2.24
7803.00,2.25
7802.00,2.26
7801.00,2.27
7800.00,2.28
7799.00,2.29
7798.00,2.30
7797.00,2.30
7796.00,2.31
7795.00,2.32
7794.00,2.33
7793.00,2.34
7792.00,2.34
7791.00,2.35
7790.00,2.35
7789.00,2.35
7788.00,2.35
7787.00,2.35
7786.00,2.35
7785.00,2.35
7784.00,2.34
7783.00,2.34
7782.00,2.33
7781.00,2.32
7780.00,2.32
7779.00,2.31
7778.00,2.31
7777.00,2.30
7776.00,2.29
7775.00,2.28
7774.00,2.28
7773.00,2.27
7772.00,2.26
7771.00,2.25
7770.00,2.24
7769.00,2.24
7768.00,2.23
7767.00,2.22
7766.00,2.21
7765.00,2.20
7764.00,2.19
7763.00,2.18
7762.00,2.17
7761.00,2.16
7760.00,2.15
7759.00,2.15
7758.00,2.14
7757.00,2.14
7756.00,2.13
7755.00,2.13
7754.00,2.13
7753.00,2.13
7752.00,2.13
7751.00,2.13
7750.00,2.13
7749.00,2.13
7748.00,2.13
7747.00,2.13
7746.00,2.13
7745.00,2.13
7744.00,2.13
7743.00,2.13
7742.00,2.13
7741.00,2.13
7740.00,2.13
7739.00,2.13
7738.00,2.14
7737.00,2.15
7736.00,2.15
7735.00,2.16
7734.00,2.17
7733.00,2.17
7732.00,2.18
7731.00,2.19
7730.00,2.19
7729.00,2.20
7728.00,2.20
7727.00,2.21
7726.00,2.21
7725.00,2.21
7724.00,2.22
7723.00,2.22
7722.00,2.23
7721.00,2.24
7720.00,2.24
7719.00,2.25
7718.00,2.26
7717.00,2.27
7716.00,2.28
7715.00,2.29
7714.00,2.30
7713.00,2.31
7712.00,2.32
7711.00,2.33
7710.00,2.34
7709.00,2.35
7708.00,2.36
7707.00,2.36
7706.00,2.37
7705.00,2.38
7704.00,2.39
7703.00,2.39
7702.00,2.40
7701.00,2.41
7700.00,2.41
7699.00,2.42
7698.00,2.42
7697.00,2.42
7696.00,2.43
7695.00,2.43
7694.00,2.43
7693.00,2.42
7692.00,2.42
7691.00,2.42
7690.00,2.42
7689.00,2.41
7688.00,2.41
7687.00,2.41
7686.00,2.41
7685.00,2.40
7684.00,2.40
7683.00,2.40
7682.00,2.40
7681.00,2.40
7680.00,2.41
7679.00,2.41
7678.00,2.41
7677.00,2.41
7676.00,2.42
7675.00,2.42
7674.00,2.43
7673.00,2.43
7672.00,2.44
7671.00,2.44
7670.00,2.45
7669.00,2.46
7668.00,2.47
7667.00,2.47
7666.00,2.48
7665.00,2.49
7664.00,2.50
7663.00,2.50
7662.00,2.51
7661.00,2.52
7660.00,2.52
7659.00,2.53
7658.00,2.53
7657.00,2.53
7656.00,2.54
7655.00,2.54
7654.00,2.53
7653.00,2.53
7652.00,2.53
7651.00,2.52
7650.00,2.52
7649.00,2.51
7648.00,2.50
7647.00,2.50
7646.00,2.49
7645.00,2.48
7644.00,2.48
7643.00,2.47
7642.00,2.46
7641.00,2.46
7640.00,2.45
7639.00,2.44
7638.00,2.44
7637.00,2.43
7636.00,2.42
7635.00,2.41
7634.00,2.40
7633.00,2.39
7632.00,2.38
7631.00,2.37
7630.00,2.36
7629.00,2.36
7628.00,2.35
7627.00,2.34
7626.00,2.33
7625.00,2.33
7624.00,2.32
7623.00,2.32
7622.00,2.31
7621.00,2.31
7620.00,2.31
7619.00,2.31
7618.00,2.31
7617.00,2.31
7616.00,2.31
7615.00,2.31
7614.00,2.31
7613.00,2.30
7612.00,2.30
7611.00,2.30
7610.00,2.30
7609.00,2.30
7608.00,2.30
7607.00,2.30
7606.00,2.30
7605.00,2.30
7604.00,2.31
7603.00,2.31
7602.00,2.31
7601.00,2.32
7600.00,2.32
7599.00,2.32
7598.00,2.32
7597.00,2.33
7596.00,2.33
7595.00,2.33
7594.00,2.33
7593.00,2.33
7592.00,2.33
7591.00,2.33
7590.00,2.33
7589.00,2.33
7588.00,2.33
7587.00,2.33
7586.00,2.33
7585.00,2.34
7584.00,2.34
7583.00,2.34
7582.00,2.34
7581.00,2.35
7580.00,2.35
7579.00,2.36
7578.00,2.36
7577.00,2.37
7576.00,2.37
7575.00,2.37
7574.00,2.38
7573.00,2.38
7572.00,2.38
7571.00,2.38
7570.00,2.39
7569.00,2.39
7568.00,2.39
7567.00,2.39
7566.00,2.39
7565.00,2.39
7564.00,2.38
7563.00,2.38
7562.00,2.38
7561.00,2.38
7560.00,2.37
7559.00,2.37
7558.00,2.36
7557.00,2.36
7556.00,2.35
7555.00,2.34
7554.00,2.33
7553.00,2.33
7552.00,2.32
7551.00,2.31
7550.00,2.30
7549.00,2.29
7548.00,2.28
7547.00,2.27
7546.00,2.26
7545.00,2.25
7544.00,2.25
7543.00,2.24
7542.00,2.23
7541.00,2.23
7540.00,2.22
7539.00,2.22
7538.00,2.22
7537.00,2.22
7536.00,2.22
7535.00,2.22
7534.00,2.22
7533.00,2.23
7532.00,2.23
7531.00,2.23
7530.00,2.24
7529.00,2.24
7528.00,2.24
7527.00,2.25
7526.00,2.25
7525.00,2.25
7524.00,2.26
7523.00,2.26
7522.00,2.27
7521.00,2.28
7520.00,2.28
7519.00,2.29
7518.00,2.29
7517.00,2.30
7516.00,2.31
7515.00,2.31
7514.00,2.32
7513.00,2.32
7512.00,2.33
7511.00,2.33
7510.00,2.34
7509.00,2.34
7508.00,2.34
7507.00,2.35
7506.00,2.35
7505.00,2.35
7504.00,2.35
7503.00,2.36
7502.00,2.36
7501.00,2.36
7500.00,2.36
7499.00,2.36
7498.00,2.37
7497.00,2.37
7496.00,2.37
7495.00,2.37
7494.00,2.37
7493.00,2.36
7492.00,2.36
7491.00,2.36
7490.00,2.36
7489.00,2.35
7488.00,2.35
7487.00,2.35
7486.00,2.34
7485.00,2.34
7484.00,2.33
7483.00,2.33
7482.00,2.32
7481.00,2.32
7480.00,2.31
7479.00,2.31
7478.00,2.30
7477.00,2.30
7476.00,2.29
7475.00,2.29
7474.00,2.28
7473.00,2.28
7472.00,2.28
7471.00,2.28
7470.00,2.28
7469.00,2.28
7468.00,2.28
7467.00,2.28
7466.00,2.28
7465.00,2.28
7464.00,2.28
7463.00,2.28
7462.00,2.27
7461.00,2.27
7460.00,2.27
7459.00,2.27
7458.00,2.27
7457.00,2.27
7456.00,2.26
7455.00,2.26
7454.00,2.26
7453.00,2.26
7452.00,2.25
7451.00,2.25
7450.00,2.24
7449.00,2.24
7448.00,2.23
7447.00,2.23
7446.00,2.22
7445.00,2.21
7444.00,2.20
7443.00,2.19
7442.00,2.18
7441.00,2.17
7440.00,2.16
7439.00,2.15
7438.00,2.15
7437.00,2.14
7436.00,2.14
7435.00,2.13
7434.00,2.13
7433.00,2.13
7432.00,2.12
7431.00,2.12
7430.00,2.12
7429.00,2.12
7428.00,2.12
7427.00,2.12
7426.00,2.12
7425.00,2.13
7424.00,2.13
7423.00,2.13
7422.00,2.14
7421.00,2.15
7420.00,2.15
7419.00,2.16
7418.00,2.17
7417.00,2.18
7416.00,2.19
7415.00,2.19
7414.00,2.20
7413.00,2.21
7412.00,2.21
7411.00,2.22
7410.00,2.22
7409.00,2.23
7408.00,2.23
7407.00,2.23
7406.00,2.23
7405.00,2.23
7404.00,2.23
7403.00,2.23
7402.00,2.23
7401.00,2.23
7400.00,2.23
7399.00,2.23
7398.00,2.22
7397.00,2.22
7396.00,2.21
7395.00,2.21
7394.00,2.20
7393.00,2.20
7392.00,2.19
7391.00,2.18
7390.00,2.18
7389.00,2.17
7388.00,2.17
7387.00,2.17
7386.00,2.16
7385.00,2.16
7384.00,2.16
7383.00,2.16
7382.00,2.15
7381.00,2.15
7380.00,2.15
7379.00,2.15
7378.00,2.16
7377.00,2.16
7376.00,2.16
7375.00,2.16
7374.00,2.17
7373.00,2.17
7372.00,2.18
7371.00,2.18
7370.00,2.19
7369.00,2.20
7368.00,2.21
7367.00,2.21
7366.00,2.22
7365.00,2.22
7364.00,2.23
7363.00,2.23
7362.00,2.23
7361.00,2.23
7360.00,2.24
7359.00,2.24
7358.00,2.24
7357.00,2.24
7356.00,2.23
7355.00,2.23
7354.00,2.23
7353.00,2.23
7352.00,2.23
7351.00,2.23
7350.00,2.23
7349.00,2.23
7348.00,2.23
7347.00,2.22
7346.00,2.22
7345.00,2.22
7344.00,2.21
7343.00,2.20
7342.00,2.20
7341.00,2.19
7340.00,2.19
7339.00,2.18
7338.00,2.18
7337.00,2.17
7336.00,2.17
7335.00,2.16
7334.00,2.16
7333.00,2.16
7332.00,2.16
7331.00,2.16
7330.00,2.16
7329.00,2.16
7328.00,2.15
7327.00,2.15
7326.00,2.15
7325.00,2.15
7324.00,2.15
7323.00,2.15
7322.00,2.15
7321.00,2.15
7320.00,2.15
7319.00,2.15
7318.00,2.15
7317.00,2.15
7316.00,2.16
7315.00,2.16
7314.00,2.16
7313.00,2.16
7312.00,2.17
7311.00,2.17
7310.00,2.17
7309.00,2.18
7308.00,2.18
7307.00,2.18
7306.00,2.18
7305.00,2.19
7304.00,2.19
7303.00,2.19
7302.00,2.19
7301.00,2.20
7300.00,2.20
7299.00,2.20
7298.00,2.21
7297.00,2.21
7296.00,2.21
7295.00,2.22
7294.00,2.22
7293.00,2.22
7292.00,2.22
7291.00,2.22
7290.00,2.22
7289.00,2.22
7288.00,2.22
7287.00,2.22
7286.00,2.22
7285.00,2.22
7284.00,2.22
7283.00,2.22
7282.00,2.22
7281.00,2.22
7280.00,2.22
7279.00,2.23
7278.00,2.23
7277.00,2.23
7276.00,2.23
7275.00,2.23
7274.00,2.23
7273.00,2.22
7272.00,2.22
7271.00,2.22
7270.00,2.21
7269.00,2.21
7268.00,2.20
7267.00,2.20
7266.00,2.20
7265.00,2.19
7264.00,2.19
7263.00,2.18
7262.00,2.18
7261.00,2.17
7260.00,2.17
7259.00,2.16
7258.00,2.16
7257.00,2.15
7256.00,2.15
7255.00,2.14
7254.00,2.14
7253.00,2.13
7252.00,2.12
7251.00,2.12
7250.00,2.11
7249.00,2.11
7248.00,2.10
7247.00,2.09
7246.00,2.09
7245.00,2.09
7244.00,2.08
7243.00,2.08
7242.00,2.07
7241.00,2.07
7240.00,2.07
7239.00,2.06
7238.00,2.06
7237.00,2.05
7236.00,2.05
7235.00,2.05
7234.00,2.05
7233.00,2.05
7232.00,2.04
7231.00,2.04
7230.00,2.04
7229.00,2.04
7228.00,2.04
7227.00,2.04
7226.00,2.04
7225.00,2.04
7224.00,2.03
7223.00,2.03
7222.00,2.03
7221.00,2.03
7220.00,2.03
7219.00,2.03
7218.00,2.03
7217.00,2.03
7216.00,2.03
7215.00,2.02
7214.00,2.02
7213.00,2.02
7212.00,2.02
7211.00,2.01
7210.00,2.01
7209.00,2.00
7208.00,2.00
7207.00,1.99
7206.00,1.98
7205.00,1.98
7204.00,1.97
7203.00,1.97
7202.00,1.96
7201.00,1.95
7200.00,1.95
7199.00,1.94
7198.00,1.93
7197.00,1.92
7196.00,1.91
7195.00,1.90
7194.00,1.89
7193.00,1.88
7192.00,1.87
7191.00,1.87
7190.00,1.86
7189.00,1.85
7188.00,1.85
7187.00,1.85
7186.00,1.85
7185.00,1.85
7184.00,1.85
7183.00,1.85
7182.00,1.86
7181.00,1.86
7180.00,1.86
7179.00,1.86
7178.00,1.86
7177.00,1.86
7176.00,1.86
7175.00,1.86
7174.00,1.87
7173.00,1.87
7172.00,1.87
7171.00,1.88
7170.00,1.88
7169.00,1.89
7168.00,1.90
7167.00,1.91
7166.00,1.91
7165.00,1.92
7164.00,1.92
7163.00,1.92
7162.00,1.92
7161.00,1.91
7160.00,1.91
7159.00,1.90
7158.00,1.89
7157.00,1.88
7156.00,1.87
7155.00,1.86
7154.00,1.85
7153.00,1.84
7152.00,1.83
7151.00,1.82
7150.00,1.81
7149.00,1.80
7148.00,1.79
7147.00,1.78
7146.00,1.77
7145.00,1.76
7144.00,1.74
7143.00,1.73
7142.00,1.71
7141.00,1.70
7140.00,1.68
7139.00,1.66
7138.00,1.65
7137.00,1.64
7136.00,1.63
7135.00,1.62
7134.00,1.61
7133.00,1.60
7132.00,1.59
7131.00,1.58
7130.00,1.58
7129.00,1.57
7128.00,1.57
7127.00,1.56
7126.00,1.56
7125.00,1.55
7124.00,1.55
7123.00,1.54
7122.00,1.53
7121.00,1.53
7120.00,1.52
7119.00,1.52
7118.00,1.51
7117.00,1.51
7116.00,1.50
7115.00,1.50
7114.00,1.50
7113.00,1.50
7112.00,1.50
7111.00,1.50
7110.00,1.50
7109.00,1.50
7108.00,1.50
7107.00,1.50
7106.00,1.50
7105.00,1.50
7104.00,1.50
7103.00,1.50
7102.00,1.50
7101.00,1.50
7100.00,1.50
7099.00,1.50
7098.00,1.50
7097.00,1.50
7096.00,1.50
7095.00,1.49
7094.00,1.49
7093.00,1.49
7092.00,1.49
7091.00,1.49
7090.00,1.49
7089.00,1.49
7088.00,1.48
7087.00,1.48
7086.00,1.48
7085.00,1.47
7084.00,1.47
7083.00,1.46
7082.00,1.45
7081.00,1.45
7080.00,1.44
7079.00,1.43
7078.00,1.42
7077.00,1.40
7076.00,1.39
7075.00,1.38
7074.00,1.37
7073.00,1.36
7072.00,1.35
7071.00,1.35
7070.00,1.34
7069.00,1.33
7068.00,1.33
7067.00,1.32
7066.00,1.32
7065.00,1.31
7064.00,1.30
7063.00,1.30
7062.00,1.29
7061.00,1.29
7060.00,1.29
7059.00,1.28
7058.00,1.28
7057.00,1.27
7056.00,1.27
7055.00,1.27
7054.00,1.27
7053.00,1.26
7052.00,1.26
7051.00,1.26
7050.00,1.26
7049.00,1.26
7048.00,1.26
7047.00,1.26
7046.00,1.26
7045.00,1.26
7044.00,1.26
7043.00,1.26
7042.00,1.26
7041.00,1.26
7040.00,1.26
7039.00,1.26
7038.00,1.26
7037.00,1.26
7036.00,1.26
7035.00,1.27
7034.00,1.27
7033.00,1.27
7032.00,1.27
7031.00,1.27
7030.00,1.28
7029.00,1.28
7028.00,1.28
7027.00,1.28
7026.00,1.29
7025.00,1.29
7024.00,1.29
7023.00,1.29
7022.00,1.30
7021.00,1.30
7020.00,1.30
7019.00,1.31
7018.00,1.31
7017.00,1.31
7016.00,1.32
7015.00,1.32
7014.00,1.32
7013.00,1.32
7012.00,1.32
7011.00,1.33
7010.00,1.33
7009.00,1.33
7008.00,1.33
7007.00,1.33
7006.00,1.33
7005.00,1.33
7004.00,1.33
7003.00,1.33
7002.00,1.34
7001.00,1.34
7000.00,1.34
6999.00,1.34
6998.00,1.35
6997.00,1.35
6996.00,1.35
6995.00,1.35
6994.00,1.36
6993.00,1.36
6992.00,1.36
6991.00,1.37
6990.00,1.37
6989.00,1.37
6988.00,1.37
6987.00,1.38
6986.00,1.38
6985.00,1.38
6984.00,1.38
6983.00,1.39
6982.00,1.39
6981.00,1.39
6980.00,1.39
6979.00,1.39
6978.00,1.39
6977.00,1.39
6976.00,1.39
6975.00,1.39
6974.00,1.39
6973.00,1.39
6972.00,1.39
6971.00,1.38
6970.00,1.38
6969.00,1.38
6968.00,1.38
6967.00,1.37
6966.00,1.37
6965.00,1.36
6964.00,1.36
6963.00,1.35
6962.00,1.34
6961.00,1.34
6960.00,1.33
6959.00,1.32
6958.00,1.32
6957.00,1.31
6956.00,1.30
6955.00,1.29
6954.00,1.29
6953.00,1.28
6952.00,1.28
6951.00,1.27
6950.00,1.27
6949.00,1.27
6948.00,1.26
6947.00,1.26
6946.00,1.25
6945.00,1.25
6944.00,1.24
6943.00,1.23
6942.00,1.23
6941.00,1.22
6940.00,1.22
6939.00,1.22
6938.00,1.21
6937.00,1.21
6936.00,1.21
6935.00,1.21
6934.00,1.22
6933.00,1.22
6932.00,1.22
6931.00,1.22
6930.00,1.23
6929.00,1.23
6928.00,1.23
6927.00,1.23
6926.00,1.23
6925.00,1.23
6924.00,1.23
6923.00,1.23
6922.00,1.23
6921.00,1.23
6920.00,1.24
6919.00,1.24
6918.00,1.24
6917.00,1.25
6916.00,1.25
6915.00,1.26
6914.00,1.26
6913.00,1.26
6912.00,1.27
6911.00,1.27
6910.00,1.27
6909.00,1.27
6908.00,1.28
6907.00,1.28
6906.00,1.28
6905.00,1.28
6904.00,1.29
6903.00,1.29
6902.00,1.29
6901.00,1.29
6900.00,1.30
6899.00,1.30
6898.00,1.30
6897.00,1.30
6896.00,1.31
6895.00,1.31
6894.00,1.31
6893.00,1.31
6892.00,1.31
6891.00,1.31
6890.00,1.31
6889.00,1.32
6888.00,1.32
6887.00,1.32
6886.00,1.32
6885.00,1.32
6884.00,1.33
6883.00,1.33
6882.00,1.33
6881.00,1.32
6880.00,1.32
6879.00,1.32
6878.00,1.32
6877.00,1.31
6876.00,1.31
6875.00,1.30
6874.00,1.30
6873.00,1.30
6872.00,1.29
6871.00,1.29
6870.00,1.29
6869.00,1.28
6868.00,1.28
6867.00,1.28
6866.00,1.27
6865.00,1.27
6864.00,1.26
6863.00,1.26
6862.00,1.25
6861.00,1.25
6860.00,1.24
6859.00,1.24
6858.00,1.23
6857.00,1.23
6856.00,1.23
6855.00,1.23
6854.00,1.23
6853.00,1.23
6852.00,1.23
6851.00,1.23
6850.00,1.23
6849.00,1.24
6848.00,1.24
6847.00,1.24
6846.00,1.25
6845.00,1.25
6844.00,1.25
6843.00,1.26
6842.00,1.26
6841.00,1.27
6840.00,1.27
6839.00,1.28
6838.00,1.28
6837.00,1.29
6836.00,1.29
6835.00,1.29
6834.00,1.30
6833.00,1.30
6832.00,1.30
6831.00,1.30
6830.00,1.30
6829.00,1.30
6828.00,1.30
6827.00,1.30
6826.00,1.30
6825.00,1.30
6824.00,1.30
6823.00,1.29
6822.00,1.29
6821.00,1.29
6820.00,1.29
6819.00,1.28
6818.00,1.28
6817.00,1.28
6816.00,1.28
6815.00,1.28
6814.00,1.28
6813.00,1.28
6812.00,1.28
6811.00,1.28
6810.00,1.28
6809.00,1.29
6808.00,1.29
6807.00,1.29
6806.00,1.29
6805.00,1.29
6804.00,1.30
6803.00,1.30
6802.00,1.30
6801.00,1.31
6800.00,1.31
6799.00,1.32
6798.00,1.33
6797.00,1.33
6796.00,1.34
6795.00,1.34
6794.00,1.35
6793.00,1.35
6792.00,1.35
6791.00,1.35
6790.00,1.36
6789.00,1.36
6788.00,1.35
6787.00,1.35
6786.00,1.35
6785.00,1.35
6784.00,1.35
6783.00,1.35
6782.00,1.35
6781.00,1.35
6780.00,1.35
6779.00,1.35
6778.00,1.35
6777.00,1.35
6776.00,1.35
6775.00,1.35
6774.00,1.34
6773.00,1.34
6772.00,1.34
6771.00,1.34
6770.00,1.34
6769.00,1.34
6768.00,1.34
6767.00,1.34
6766.00,1.35
6765.00,1.35
6764.00,1.36
6763.00,1.36
6762.00,1.37
6761.00,1.37
6760.00,1.38
6759.00,1.38
6758.00,1.39
6757.00,1.39
6756.00,1.40
6755.00,1.40
6754.00,1.41
6753.00,1.41
6752.00,1.42
6751.00,1.42
6750.00,1.43
6749.00,1.44
6748.00,1.44
6747.00,1.45
6746.00,1.46
6745.00,1.47
6744.00,1.47
6743.00,1.48
6742.00,1.48
6741.00,1.49
6740.00,1.49
6739.00,1.50
6738.00,1.50
6737.00,1.51
6736.00,1.51
6735.00,1.51
6734.00,1.52
6733.00,1.52
6732.00,1.53
6731.00,1.53
6730.00,1.53
6729.00,1.54
6728.00,1.54
6727.00,1.55
6726.00,1.55
6725.00,1.56
6724.00,1.56
6723.00,1.57
6722.00,1.57
6721.00,1.57
6720.00,1.58
6719.00,1.58
6718.00,1.58
6717.00,1.58
6716.00,1.58
6715.00,1.58
6714.00,1.58
6713.00,1.58
6712.00,1.58
6711.00,1.58
6710.00,1.58
6709.00,1.58
6708.00,1.58
6707.00,1.58
6706.00,1.58
6705.00,1.58
6704.00,1.57
6703.00,1.57
6702.00,1.57
6701.00,1.57
6700.00,1.57
6699.00,1.56
6698.00,1.56
6697.00,1.56
6696.00,1.55
6695.00,1.55
6694.00,1.55
6693.00,1.54
6692.00,1.54
6691.00,1.54
6690.00,1.54
6689.00,1.54
6688.00,1.53
6687.00,1.53
6686.00,1.53
6685.00,1.53
6684.00,1.53
6683.00,1.54
6682.00,1.54
6681.00,1.54
6680.00,1.54
6679.00,1.54
6678.00,1.54
6677.00,1.54
6676.00,1.54
6675.00,1.55
6674.00,1.55
6673.00,1.55
6672.00,1.55
6671.00,1.55
6670.00,1.55
6669.00,1.55
6668.00,1.55
6667.00,1.55
6666.00,1.56
6665.00,1.56
6664.00,1.56
6663.00,1.56
6662.00,1.56
6661.00,1.56
6660.00,1.56
6659.00,1.56
6658.00,1.56
6657.00,1.56
6656.00,1.56
6655.00,1.55
6654.00,1.55
6653.00,1.55
6652.00,1.55
6651.00,1.54
6650.00,1.54
6649.00,1.54
6648.00,1.54
6647.00,1.54
6646.00,1.54
6645.00,1.54
6644.00,1.54
6643.00,1.55
6642.00,1.55
6641.00,1.55
6640.00,1.55
6639.00,1.55
6638.00,1.56
6637.00,1.56
6636.00,1.56
6635.00,1.56
6634.00,1.56
6633.00,1.57
6632.00,1.57
6631.00,1.57
6630.00,1.57
6629.00,1.57
6628.00,1.57
6627.00,1.58
6626.00,1.58
6625.00,1.58
6624.00,1.58
6623.00,1.58
6622.00,1.58
6621.00,1.58
6620.00,1.58
6619.00,1.58
6618.00,1.58
6617.00,1.58
6616.00,1.58
6615.00,1.58
6614.00,1.58
6613.00,1.58
6612.00,1.58
6611.00,1.57
6610.00,1.57
6609.00,1.57
6608.00,1.57
6607.00,1.57
6606.00,1.57
6605.00,1.58
6604.00,1.58
6603.00,1.58
6602.00,1.58
6601.00,1.59
6600.00,1.59
6599.00,1.60
6598.00,1.60
6597.00,1.61
6596.00,1.61
6595.00,1.62
6594.00,1.63
6593.00,1.64
6592.00,1.64
6591.00,1.65
6590.00,1.66
6589.00,1.67
6588.00,1.68
6587.00,1.68
6586.00,1.69
6585.00,1.70
6584.00,1.70
6583.00,1.71
6582.00,1.72
6581.00,1.72
6580.00,1.73
6579.00,1.73
6578.00,1.74
6577.00,1.74
6576.00,1.75
6575.00,1.75
6574.00,1.75
6573.00,1.76
6572.00,1.76
6571.00,1.76
6570.00,1.76
6569.00,1.76
6568.00,1.76
6567.00,1.76
6566.00,1.76
6565.00,1.76
6564.00,1.75
6563.00,1.75
6562.00,1.75
6561.00,1.75
6560.00,1.75
6559.00,1.75
6558.00,1.75
6557.00,1.76
6556.00,1.76
6555.00,1.76
6554.00,1.77
6553.00,1.77
6552.00,1.77
6551.00,1.78
6550.00,1.78
6549.00,1.78
6548.00,1.78
6547.00,1.78
6546.00,1.79
6545.00,1.79
6544.00,1.79
6543.00,1.79
6542.00,1.80
6541.00,1.80
6540.00,1.80
6539.00,1.81
6538.00,1.81
6537.00,1.82
6536.00,1.82
6535.00,1.82
6534.00,1.83
6533.00,1.83
6532.00,1.83
6531.00,1.84
6530.00,1.84
6529.00,1.84
6528.00,1.84
6527.00,1.85
6526.00,1.85
6525.00,1.85
6524.00,1.85
6523.00,1.86
6522.00,1.86
6521.00,1.87
6520.00,1.87
6519.00,1.87
6518.00,1.88
6517.00,1.88
6516.00,1.88
6515.00,1.88
6514.00,1.88
6513.00,1.88
6512.00,1.88
6511.00,1.88
6510.00,1.88
6509.00,1.88
6508.00,1.88
6507.00,1.88
6506.00,1.88
6505.00,1.88
6504.00,1.88
6503.00,1.88
6502.00,1.88
6501.00,1.88
6500.00,1.87
6499.00,1.87
6498.00,1.87
6497.00,1.87
6496.00,1.87
6495.00,1.87
6494.00,1.87
6493.00,1.87
6492.00,1.87
6491.00,1.87
6490.00,1.88
6489.00,1.88
6488.00,1.88
6487.00,1.89
6486.00,1.89
6485.00,1.90
6484.00,1.90
6483.00,1.90
6482.00,1.91
6481.00,1.91
6480.00,1.91
6479.00,1.92
6478.00,1.92
6477.00,1.92
6476.00,1.92
6475.00,1.93
6474.00,1.93
6473.00,1.93
6472.00,1.93
6471.00,1.93
6470.00,1.93
6469.00,1.92
6468.00,1.92
6467.00,1.92
6466.00,1.92
6465.00,1.92
6464.00,1.92
6463.00,1.91
6462.00,1.91
6461.00,1.91
6460.00,1.91
6459.00,1.91
6458.00,1.90
6457.00,1.90
6456.00,1.90
6455.00,1.90
6454.00,1.89
6453.00,1.89
6452.00,1.89
6451.00,1.88
6450.00,1.88
6449.00,1.88
6448.00,1.88
6447.00,1.88
6446.00,1.88
6445.00,1.88
6444.00,1.88
6443.00,1.88
6442.00,1.89
6441.00,1.89
6440.00,1.89
6439.00,1.90
6438.00,1.90
6437.00,1.91
6436.00,1.91
6435.00,1.91
6434.00,1.92
6433.00,1.92
6432.00,1.93
6431.00,1.93
6430.00,1.94
6429.00,1.95
6428.00,1.96
6427.00,1.96
6426.00,1.97
6425.00,1.98
6424.00,1.99
6423.00,2.00
6422.00,2.00
6421.00,2.01
6420.00,2.02
6419.00,2.03
6418.00,2.03
6417.00,2.04
6416.00,2.04
6415.00,2.05
6414.00,2.05
6413.00,2.05
6412.00,2.05
6411.00,2.05
6410.00,2.05
6409.00,2.05
6408.00,2.05
6407.00,2.04
6406.00,2.04
6405.00,2.04
6404.00,2.04
6403.00,2.03
6402.00,2.03
6401.00,2.02
6400.00,2.01
6399.00,2.01
6398.00,2.00
6397.00,1.99
6396.00,1.98
6395.00,1.98
6394.00,1.97
6393.00,1.96
6392.00,1.96
6391.00,1.96
6390.00,1.95
6389.00,1.95
6388.00,1.95
6387.00,1.95
6386.00,1.95
6385.00,1.95
6384.00,1.95
6383.00,1.95
6382.00,1.95
6381.00,1.96
6380.00,1.96
6379.00,1.96
6378.00,1.97
6377.00,1.97
6376.00,1.98
6375.00,1.98
6374.00,1.99
6373.00,2.00
6372.00,2.01
6371.00,2.02
6370.00,2.02
6369.00,2.03
6368.00,2.04
6367.00,2.04
6366.00,2.05
6365.00,2.05
6364.00,2.06
6363.00,2.06
6362.00,2.06
6361.00,2.07
6360.00,2.07
6359.00,2.08
6358.00,2.08
6357.00,2.09
6356.00,2.09
6355.00,2.10
6354.00,2.10
6353.00,2.10
6352.00,2.11
6351.00,2.11
6350.00,2.11
6349.00,2.11
6348.00,2.11
6347.00,2.11
6346.00,2.11
6345.00,2.12
6344.00,2.12
6343.00,2.12
6342.00,2.12
6341.00,2.13
6340.00,2.13
6339.00,2.13
6338.00,2.13
6337.00,2.14
6336.00,2.14
6335.00,2.14
6334.00,2.13
6333.00,2.13
6332.00,2.13
6331.00,2.12
6330.00,2.12
6329.00,2.11
6328.00,2.11
6327.00,2.10
6326.00,2.10
6325.00,2.09
6324.00,2.08
6323.00,2.08
6322.00,2.07
6321.00,2.07
6320.00,2.06
6319.00,2.05
6318.00,2.05
6317.00,2.04
6316.00,2.03
6315.00,2.03
6314.00,2.02
6313.00,2.02
6312.00,2.01
6311.00,2.01
6310.00,2.01
6309.00,2.01
6308.00,2.01
6307.00,2.01
6306.00,2.01
6305.00,2.02
6304.00,2.02
6303.00,2.03
6302.00,2.04
6301.00,2.04
6300.00,2.05
6299.00,2.06
6298.00,2.07
6297.00,2.08
6296.00,2.09
6295.00,2.10
6294.00,2.11
6293.00,2.13
6292.00,2.14
6291.00,2.15
6290.00,2.16
6289.00,2.17
6288.00,2.18
6287.00,2.19
6286.00,2.20
6285.00,2.20
6284.00,2.21
6283.00,2.22
6282.00,2.22
6281.00,2.23
6280.00,2.23
6279.00,2.23
6278.00,2.23
6277.00,2.24
6276.00,2.24
6275.00,2.23
6274.00,2.23
6273.00,2.23
6272.00,2.23
6271.00,2.22
6270.00,2.22
6269.00,2.22
6268.00,2.21
6267.00,2.21
6266.00,2.21
6265.00,2.20
6264.00,2.20
6263.00,2.19
6262.00,2.19
6261.00,2.19
6260.00,2.18
6259.00,2.18
6258.00,2.17
6257.00,2.17
6256.00,2.16
6255.00,2.16
6254.00,2.15
6253.00,2.15
6252.00,2.15
6251.00,2.15
6250.00,2.14
6249.00,2.14
6248.00,2.14
6247.00,2.14
6246.00,2.14
6245.00,2.14
6244.00,2.14
6243.00,2.15
6242.00,2.15
6241.00,2.15
6240.00,2.15
6239.00,2.15
6238.00,2.15
6237.00,2.15
6236.00,2.15
6235.00,2.16
6234.00,2.16
6233.00,2.16
6232.00,2.17
6231.00,2.17
6230.00,2.18
6229.00,2.19
6228.00,2.19
6227.00,2.20
6226.00,2.21
6225.00,2.22
6224.00,2.22
6223.00,2.23
6222.00,2.24
6221.00,2.24
6220.00,2.25
6219.00,2.26
6218.00,2.27
6217.00,2.27
6216.00,2.28
6215.00,2.29
6214.00,2.30
6213.00,2.31
6212.00,2.31
6211.00,2.32
6210.00,2.33
6209.00,2.34
6208.00,2.34
6207.00,2.35
6206.00,2.36
6205.00,2.36
6204.00,2.37
6203.00,2.37
6202.00,2.37
6201.00,2.37
6200.00,2.37
6199.00,2.38
6198.00,2.38
6197.00,2.38
6196.00,2.38
6195.00,2.38
6194.00,2.38
6193.00,2.38
6192.00,2.38
6191.00,2.38
6190.00,2.38
6189.00,2.38
6188.00,2.38
6187.00,2.38
6186.00,2.38
6185.00,2.38
6184.00,2.38
6183.00,2.38
6182.00,2.39
6181.00,2.39
6180.00,2.39
6179.00,2.39
6178.00,2.39
6177.00,2.39
6176.00,2.40
6175.00,2.40
6174.00,2.40
6173.00,2.40
6172.00,2.40
6171.00,2.41
6170.00,2.41
6169.00,2.41
6168.00,2.41
6167.00,2.41
6166.00,2.41
6165.00,2.41
6164.00,2.40
6163.00,2.40
6162.00,2.40
6161.00,2.40
6160.00,2.39
6159.00,2.39
6158.00,2.38
6157.00,2.38
6156.00,2.37
6155.00,2.37
6154.00,2.36
6153.00,2.36
6152.00,2.35
6151.00,2.35
6150.00,2.34
6149.00,2.34
6148.00,2.34
6147.00,2.34
6146.00,2.33
6145.00,2.33
6144.00,2.33
6143.00,2.33
6142.00,2.33
6141.00,2.34
6140.00,2.34
6139.00,2.34
6138.00,2.35
6137.00,2.35
6136.00,2.36
6135.00,2.36
6134.00,2.37
6133.00,2.37
6132.00,2.38
6131.00,2.39
6130.00,2.40
6129.00,2.40
6128.00,2.41
6127.00,2.42
6126.00,2.43
6125.00,2.43
6124.00,2.44
6123.00,2.44
6122.00,2.45
6121.00,2.45
6120.00,2.45
6119.00,2.46
6118.00,2.46
6117.00,2.46
6116.00,2.46
6115.00,2.46
6114.00,2.46
6113.00,2.47
6112.00,2.47
6111.00,2.47
6110.00,2.47
6109.00,2.47
6108.00,2.47
6107.00,2.47
6106.00,2.47
6105.00,2.47
6104.00,2.47
6103.00,2.47
6102.00,2.47
6101.00,2.47
6100.00,2.47
6099.00,2.47
6098.00,2.48
6097.00,2.48
6096.00,2.48
6095.00,2.49
6094.00,2.49
6093.00,2.50
6092.00,2.50
6091.00,2.50
6090.00,2.51
6089.00,2.51
6088.00,2.52
6087.00,2.52
6086.00,2.52
6085.00,2.52
6084.00,2.53
6083.00,2.53
6082.00,2.53
6081.00,2.53
6080.00,2.53
6079.00,2.54
6078.00,2.54
6077.00,2.54
6076.00,2.54
6075.00,2.55
6074.00,2.55
6073.00,2.55
6072.00,2.55
6071.00,2.55
6070.00,2.55
6069.00,2.56
6068.00,2.56
6067.00,2.56
6066.00,2.56
6065.00,2.55
6064.00,2.55
6063.00,2.55
6062.00,2.55
6061.00,2.55
6060.00,2.55
6059.00,2.55
6058.00,2.55
6057.00,2.55
6056.00,2.55
6055.00,2.55
6054.00,2.55
6053.00,2.55
6052.00,2.55
6051.00,2.55
6050.00,2.54
6049.00,2.54
6048.00,2.54
6047.00,2.54
6046.00,2.53
6045.00,2.53
6044.00,2.53
6043.00,2.53
6042.00,2.53
6041.00,2.52
6040.00,2.52
6039.00,2.52
6038.00,2.53
6037.00,2.53
6036.00,2.53
6035.00,2.53
6034.00,2.53
6033.00,2.53
6032.00,2.54
6031.00,2.54
6030.00,2.54
6029.00,2.54
6028.00,2.55
6027.00,2.55
6026.00,2.56
6025.00,2.56
6024.00,2.56
6023.00,2.57
6022.00,2.57
6021.00,2.58
6020.00,2.58
6019.00,2.58
6018.00,2.59
6017.00,2.59
6016.00,2.59
6015.00,2.60
6014.00,2.60
6013.00,2.60
6012.00,2.60
6011.00,2.61
6010.00,2.61
6009.00,2.61
6008.00,2.61
6007.00,2.61
6006.00,2.61
6005.00,2.61
6004.00,2.61
6003.00,2.61
6002.00,2.61
6001.00,2.62
6000.00,2.62
5999.00,2.62
5998.00,2.62
5997.00,2.62
5996.00,2.62
5995.00,2.62
5994.00,2.62
5993.00,2.62
5992.00,2.63
5991.00,2.63
5990.00,2.63
5989.00,2.63
5988.00,2.63
5987.00,2.63
5986.00,2.63
5985.00,2.63
5984.00,2.63
5983.00,2.63
5982.00,2.62
5981.00,2.62
5980.00,2.62
5979.00,2.61
5978.00,2.61
5977.00,2.60
5976.00,2.60
5975.00,2.59
5974.00,2.58
5973.00,2.58
5972.00,2.57
5971.00,2.56
5970.00,2.56
5969.00,2.55
5968.00,2.54
5967.00,2.53
5966.00,2.53
5965.00,2.52
5964.00,2.51
5963.00,2.51
5962.00,2.50
5961.00,2.49
5960.00,2.49
5959.00,2.48
5958.00,2.47
5957.00,2.47
5956.00,2.46
5955.00,2.46
5954.00,2.45
5953.00,2.45
5952.00,2.45
5951.00,2.45
5950.00,2.44
5949.00,2.44
5948.00,2.44
5947.00,2.44
5946.00,2.44
5945.00,2.44
5944.00,2.44
5943.00,2.43
5942.00,2.43
5941.00,2.43
5940.00,2.43
5939.00,2.42
5938.00,2.42
5937.00,2.42
5936.00,2.42
5935.00,2.41
5934.00,2.41
5933.00,2.41
5932.00,2.40
5931.00,2.40
5930.00,2.40
5929.00,2.39
5928.00,2.39
5927.00,2.39
5926.00,2.39
5925.00,2.38
5924.00,2.38
5923.00,2.38
5922.00,2.37
5921.00,2.37
5920.00,2.37
5919.00,2.36
5918.00,2.36
5917.00,2.36
5916.00,2.36
5915.00,2.36
5914.00,2.36
5913.00,2.36
5912.00,2.36
5911.00,2.36
5910.00,2.36
5909.00,2.36
5908.00,2.36
5907.00,2.37
5906.00,2.37
5905.00,2.37
5904.00,2.37
5903.00,2.37
5902.00,2.37
5901.00,2.37
5900.00,2.37
5899.00,2.38
5898.00,2.38
5897.00,2.38
5896.00,2.38
5895.00,2.38
5894.00,2.39
5893.00,2.39
5892.00,2.39
5891.00,2.40
5890.00,2.40
5889.00,2.40
5888.00,2.40
5887.00,2.40
5886.00,2.41
5885.00,2.41
5884.00,2.41
5883.00,2.41
5882.00,2.41
5881.00,2.41
5880.00,2.42
5879.00,2.42
5878.00,2.42
5877.00,2.43
5876.00,2.43
5875.00,2.43
5874.00,2.43
5873.00,2.44
5872.00,2.44
5871.00,2.44
5870.00,2.44
5869.00,2.45
5868.00,2.45
5867.00,2.45
5866.00,2.45
5865.00,2.45
5864.00,2.45
5863.00,2.45
5862.00,2.45
5861.00,2.46
5860.00,2.46
5859.00,2.46
5858.00,2.46
5857.00,2.46
5856.00,2.46
5855.00,2.46
5854.00,2.47
5853.00,2.47
5852.00,2.47
5851.00,2.47
5850.00,2.47
5849.00,2.47
5848.00,2.47
5847.00,2.47
5846.00,2.47
5845.00,2.46
5844.00,2.46
5843.00,2.46
5842.00,2.46
5841.00,2.46
5840.00,2.46
5839.00,2.46
5838.00,2.46
5837.00,2.46
5836.00,2.46
5835.00,2.46
5834.00,2.46
5833.00,2.46
5832.00,2.45
5831.00,2.45
5830.00,2.45
5829.00,2.45
5828.00,2.44
5827.00,2.44
5826.00,2.44
5825.00,2.43
5824.00,2.43
5823.00,2.43
5822.00,2.43
5821.00,2.43
5820.00,2.43
5819.00,2.43
5818.00,2.43
5817.00,2.43
5816.00,2.43
5815.00,2.43
5814.00,2.43
5813.00,2.43
5812.00,2.43
5811.00,2.43
5810.00,2.43
5809.00,2.43
5808.00,2.43
5807.00,2.43
5806.00,2.43
5805.00,2.42
5804.00,2.42
5803.00,2.42
5802.00,2.42
5801.00,2.42
5800.00,2.42
5799.00,2.42
5798.00,2.42
5797.00,2.42
5796.00,2.42
5795.00,2.41
5794.00,2.41
5793.00,2.41
5792.00,2.41
5791.00,2.41
5790.00,2.41
5789.00,2.40
5788.00,2.40
5787.00,2.40
5786.00,2.40
5785.00,2.40
5784.00,2.40
5783.00,2.40
5782.00,2.40
5781.00,2.40
5780.00,2.40
5779.00,2.41
5778.00,2.41
5777.00,2.41
5776.00,2.41
5775.00,2.41
5774.00,2.42
5773.00,2.42
5772.00,2.42
5771.00,2.43
5770.00,2.43
5769.00,2.44
5768.00,2.44
5767.00,2.45
5766.00,2.45
5765.00,2.46
5764.00,2.46
5763.00,2.47
5762.00,2.47
5761.00,2.48
5760.00,2.48
5759.00,2.49
5758.00,2.49
5757.00,2.50
5756.00,2.50
5755.00,2.50
5754.00,2.51
5753.00,2.51
5752.00,2.51
5751.00,2.51
5750.00,2.52
5749.00,2.52
5748.00,2.52
5747.00,2.52
5746.00,2.52
5745.00,2.52
5744.00,2.52
5743.00,2.52
5742.00,2.52
5741.00,2.52
5740.00,2.52
5739.00,2.51
5738.00,2.51
5737.00,2.51
5736.00,2.51
5735.00,2.51
5734.00,2.51
5733.00,2.50
5732.00,2.50
5731.00,2.50
5730.00,2.50
5729.00,2.50
5728.00,2.50
5727.00,2.50
5726.00,2.49
5725.00,2.49
5724.00,2.49
5723.00,2.49
5722.00,2.49
5721.00,2.49
5720.00,2.49
5719.00,2.49
5718.00,2.48
5717.00,2.48
5716.00,2.48
5715.00,2.48
5714.00,2.48
5713.00,2.48
5712.00,2.47
5711.00,2.47
5710.00,2.47
5709.00,2.47
5708.00,2.46
5707.00,2.46
5706.00,2.46
5705.00,2.45
5704.00,2.45
5703.00,2.45
5702.00,2.45
5701.00,2.44
5700.00,2.44
5699.00,2.44
5698.00,2.44
5697.00,2.44
5696.00,2.43
5695.00,2.43
5694.00,2.43
5693.00,2.43
5692.00,2.43
5691.00,2.43
5690.00,2.43
5689.00,2.43
5688.00,2.43
5687.00,2.43
5686.00,2.43
5685.00,2.43
5684.00,2.43
5683.00,2.43
5682.00,2.44
5681.00,2.44
5680.00,2.44
5679.00,2.44
5678.00,2.44
5677.00,2.44
5676.00,2.44
5675.00,2.45
5674.00,2.45
5673.00,2.45
5672.00,2.45
5671.00,2.44
5670.00,2.44
5669.00,2.44
5668.00,2.44
5667.00,2.44
5666.00,2.44
5665.00,2.44
5664.00,2.43
5663.00,2.43
5662.00,2.43
5661.00,2.42
5660.00,2.42
5659.00,2.42
5658.00,2.42
5657.00,2.41
5656.00,2.41
5655.00,2.41
5654.00,2.40
5653.00,2.40
5652.00,2.40
5651.00,2.40
5650.00,2.39
5649.00,2.39
5648.00,2.39
5647.00,2.39
5646.00,2.39
5645.00,2.39
5644.00,2.39
5643.00,2.39
5642.00,2.39
5641.00,2.39
5640.00,2.39
5639.00,2.39
5638.00,2.39
5637.00,2.39
5636.00,2.39
5635.00,2.39
5634.00,2.39
5633.00,2.39
5632.00,2.39
5631.00,2.40
5630.00,2.40
5629.00,2.40
5628.00,2.40
5627.00,2.40
5626.00,2.40
5625.00,2.40
5624.00,2.40
5623.00,2.40
5622.00,2.40
5621.00,2.40
5620.00,2.40
5619.00,2.40
5618.00,2.40
5617.00,2.40
5616.00,2.40
5615.00,2.40
5614.00,2.40
5613.00,2.40
5612.00,2.40
5611.00,2.40
5610.00,2.40
5609.00,2.40
5608.00,2.41
5607.00,2.41
5606.00,2.41
5605.00,2.41
5604.00,2.41
5603.00,2.41
5602.00,2.41
5601.00,2.42
5600.00,2.42
5599.00,2.42
5598.00,2.43
5597.00,2.43
5596.00,2.44
5595.00,2.44
5594.00,2.44
5593.00,2.45
5592.00,2.45
5591.00,2.46
5590.00,2.46
5589.00,2.47
5588.00,2.47
5587.00,2.48
5586.00,2.48
5585.00,2.49
5584.00,2.49
5583.00,2.50
5582.00,2.50
5581.00,2.51
5580.00,2.51
5579.00,2.51
5578.00,2.52
5577.00,2.52
5576.00,2.52
5575.00,2.53
5574.00,2.53
5573.00,2.53
5572.00,2.53
5571.00,2.53
5570.00,2.53
5569.00,2.53
5568.00,2.53
5567.00,2.53
5566.00,2.53
5565.00,2.53
5564.00,2.54
5563.00,2.54
5562.00,2.54
5561.00,2.54
5560.00,2.54
5559.00,2.54
5558.00,2.54
5557.00,2.54
5556.00,2.54
5555.00,2.54
5554.00,2.54
5553.00,2.54
5552.00,2.54
5551.00,2.55
5550.00,2.55
5549.00,2.55
5548.00,2.55
5547.00,2.56
5546.00,2.56
5545.00,2.56
5544.00,2.56
5543.00,2.57
5542.00,2.57
5541.00,2.57
5540.00,2.58
5539.00,2.58
5538.00,2.58
5537.00,2.58
5536.00,2.59
5535.00,2.59
5534.00,2.59
5533.00,2.59
5532.00,2.59
5531.00,2.59
5530.00,2.59
5529.00,2.60
5528.00,2.60
5527.00,2.60
5526.00,2.60
5525.00,2.59
5524.00,2.59
5523.00,2.59
5522.00,2.59
5521.00,2.59
5520.00,2.59
5519.00,2.58
5518.00,2.58
5517.00,2.58
5516.00,2.58
5515.00,2.57
5514.00,2.57
5513.00,2.57
5512.00,2.56
5511.00,2.56
5510.00,2.56
5509.00,2.55
5508.00,2.55
5507.00,2.55
5506.00,2.55
5505.00,2.55
5504.00,2.55
5503.00,2.55
5502.00,2.55
5501.00,2.55
5500.00,2.56
5499.00,2.56
5498.00,2.56
5497.00,2.57
5496.00,2.57
5495.00,2.58
5494.00,2.58
5493.00,2.58
5492.00,2.59
5491.00,2.59
5490.00,2.60
5489.00,2.61
5488.00,2.61
5487.00,2.62
5486.00,2.63
5485.00,2.63
5484.00,2.64
5483.00,2.64
5482.00,2.65
5481.00,2.65
5480.00,2.66
5479.00,2.66
5478.00,2.66
5477.00,2.67
5476.00,2.67
5475.00,2.67
5474.00,2.67
5473.00,2.67
5472.00,2.67
5471.00,2.67
5470.00,2.67
5469.00,2.67
5468.00,2.67
5467.00,2.67
5466.00,2.67
5465.00,2.66
5464.00,2.66
5463.00,2.66
5462.00,2.66
5461.00,2.66
5460.00,2.66
5459.00,2.66
5458.00,2.65
5457.00,2.65
5456.00,2.65
5455.00,2.65
5454.00,2.65
5453.00,2.65
5452.00,2.65
5451.00,2.65
5450.00,2.65
5449.00,2.65
5448.00,2.64
5447.00,2.64
5446.00,2.64
5445.00,2.64
5444.00,2.64
5443.00,2.64
5442.00,2.64
5441.00,2.64
5440.00,2.64
5439.00,2.65
5438.00,2.65
5437.00,2.65
5436.00,2.65
5435.00,2.65
5434.00,2.65
5433.00,2.65
5432.00,2.65
5431.00,2.65
5430.00,2.65
5429.00,2.65
5428.00,2.65
5427.00,2.65
5426.00,2.65
5425.00,2.65
5424.00,2.65
5423.00,2.65
5422.00,2.65
5421.00,2.65
5420.00,2.65
5419.00,2.65
5418.00,2.65
5417.00,2.65
5416.00,2.65
5415.00,2.65
5414.00,2.65
5413.00,2.65
5412.00,2.65
5411.00,2.65
5410.00,2.65
5409.00,2.65
5408.00,2.64
5407.00,2.64
5406.00,2.64
5405.00,2.64
5404.00,2.64
5403.00,2.64
5402.00,2.64
5401.00,2.64
5400.00,2.63
5399.00,2.63
5398.00,2.63
5397.00,2.63
5396.00,2.62
5395.00,2.62
5394.00,2.62
5393.00,2.62
5392.00,2.61
5391.00,2.61
5390.00,2.61
5389.00,2.60
5388.00,2.60
5387.00,2.60
5386.00,2.59
5385.00,2.59
5384.00,2.58
5383.00,2.58
5382.00,2.58
5381.00,2.57
5380.00,2.57
5379.00,2.56
5378.00,2.56
5377.00,2.55
5376.00,2.55
5375.00,2.54
5374.00,2.53
5373.00,2.53
5372.00,2.52
5371.00,2.51
5370.00,2.51
5369.00,2.50
5368.00,2.49
5367.00,2.48
5366.00,2.47
5365.00,2.46
5364.00,2.45
5363.00,2.45
5362.00,2.44
5361.00,2.43
5360.00,2.42
5359.00,2.40
5358.00,2.39
5357.00,2.38
5356.00,2.37
5355.00,2.36
5354.00,2.34
5353.00,2.33
5352.00,2.32
5351.00,2.30
5350.00,2.29
5349.00,2.28
5348.00,2.26
5347.00,2.25
5346.00,2.24
5345.00,2.22
5344.00,2.21
5343.00,2.19
5342.00,2.18
5341.00,2.16
5340.00,2.15
5339.00,2.13
5338.00,2.11
5337.00,2.10
5336.00,2.08
5335.00,2.06
5334.00,2.05
5333.00,2.03
5332.00,2.01
5331.00,1.99
5330.00,1.97
5329.00,1.96
5328.00,1.94
5327.00,1.92
5326.00,1.90
5325.00,1.88
5324.00,1.86
5323.00,1.84
5322.00,1.83
5321.00,1.81
5320.00,1.79
5319.00,1.77
5318.00,1.75
5317.00,1.73
5316.00,1.71
5315.00,1.69
5314.00,1.67
5313.00,1.65
5312.00,1.63
5311.00,1.61
5310.00,1.59
5309.00,1.58
5308.00,1.56
5307.00,1.54
5306.00,1.52
5305.00,1.51
5304.00,1.49
5303.00,1.47
5302.00,1.46
5301.00,1.44
5300.00,1.42
5299.00,1.41
5298.00,1.39
5297.00,1.37
5296.00,1.36
5295.00,1.34
5294.00,1.33
5293.00,1.31
5292.00,1.30
5291.00,1.29
5290.00,1.27
5289.00,1.26
5288.00,1.25
5287.00,1.24
5286.00,1.23
5285.00,1.21
5284.00,1.20
5283.00,1.19
5282.00,1.18
5281.00,1.17
5280.00,1.16
5279.00,1.15
5278.00,1.14
5277.00,1.14
5276.00,1.13
5275.00,1.12
5274.00,1.11
5273.00,1.11
5272.00,1.10
5271.00,1.10
5270.00,1.09
5269.00,1.09
5268.00,1.08
5267.00,1.07
5266.00,1.07
5265.00,1.06
5264.00,1.05
5263.00,1.05
5262.00,1.04
5261.00,1.04
5260.00,1.03
5259.00,1.02
5258.00,1.02
5257.00,1.01
5256.00,1.01
5255.00,1.00
5254.00,0.99
5253.00,0.99
5252.00,0.98
5251.00,0.98
5250.00,0.97
5249.00,0.96
5248.00,0.95
5247.00,0.95
5246.00,0.94
5245.00,0.94
5244.00,0.93
5243.00,0.93
5242.00,0.92
5241.00,0.92
5240.00,0.92
5239.00,0.91
5238.00,0.91
5237.00,0.91
5236.00,0.91
5235.00,0.91
5234.00,0.91
5233.00,0.91
5232.00,0.91
5231.00,0.91
5230.00,0.91
5229.00,0.92
5228.00,0.92
5227.00,0.92
5226.00,0.92
5225.00,0.92
5224.00,0.93
5223.00,0.93
5222.00,0.93
5221.00,0.94
5220.00,0.94
5219.00,0.95
5218.00,0.95
5217.00,0.95
5216.00,0.95
5215.00,0.96
5214.00,0.96
5213.00,0.96
5212.00,0.96
5211.00,0.97
5210.00,0.97
5209.00,0.97
5208.00,0.97
5207.00,0.97
5206.00,0.98
5205.00,0.98
5204.00,0.98
5203.00,0.98
5202.00,0.98
5201.00,0.98
5200.00,0.98
5199.00,0.98
5198.00,0.98
5197.00,0.98
5196.00,0.98
5195.00,0.98
5194.00,0.98
5193.00,0.98
5192.00,0.98
5191.00,0.98
5190.00,0.98
5189.00,0.97
5188.00,0.97
5187.00,0.97
5186.00,0.97
5185.00,0.97
5184.00,0.96
5183.00,0.96
5182.00,0.96
5181.00,0.96
5180.00,0.96
5179.00,0.96
5178.00,0.96
5177.00,0.95
5176.00,0.95
5175.00,0.95
5174.00,0.95
5173.00,0.95
5172.00,0.95
5171.00,0.94
5170.00,0.94
5169.00,0.94
5168.00,0.94
5167.00,0.94
5166.00,0.94
5165.00,0.94
5164.00,0.94
5163.00,0.94
5162.00,0.94
5161.00,0.94
5160.00,0.94
5159.00,0.94
5158.00,0.94
5157.00,0.94
5156.00,0.95
5155.00,0.95
5154.00,0.95
5153.00,0.95
5152.00,0.95
5151.00,0.95
5150.00,0.95
5149.00,0.95
5148.00,0.95
5147.00,0.95
5146.00,0.95
5145.00,0.96
5144.00,0.96
5143.00,0.96
5142.00,0.97
5141.00,0.97
5140.00,0.97
5139.00,0.98
5138.00,0.98
5137.00,0.98
5136.00,0.98
5135.00,0.99
5134.00,0.99
5133.00,0.99
5132.00,0.99
5131.00,0.99
5130.00,1.00
5129.00,1.00
5128.00,1.00
5127.00,1.00
5126.00,1.00
5125.00,1.01
5124.00,1.01
5123.00,1.01
5122.00,1.01
5121.00,1.02
5120.00,1.02
5119.00,1.02
5118.00,1.02
5117.00,1.03
5116.00,1.03
5115.00,1.03
5114.00,1.03
5113.00,1.03
5112.00,1.03
5111.00,1.02
5110.00,1.02
5109.00,1.02
5108.00,1.02
5107.00,1.02
5106.00,1.02
5105.00,1.02
5104.00,1.02
5103.00,1.02
5102.00,1.02
5101.00,1.02
5100.00,1.03
5099.00,1.03
5098.00,1.03
5097.00,1.03
5096.00,1.03
5095.00,1.04
5094.00,1.04
5093.00,1.04
5092.00,1.05
5091.00,1.05
5090.00,1.05
5089.00,1.06
5088.00,1.06
5087.00,1.07
5086.00,1.08
5085.00,1.08
5084.00,1.09
5083.00,1.10
5082.00,1.10
5081.00,1.11
5080.00,1.12
5079.00,1.13
5078.00,1.13
5077.00,1.14
5076.00,1.15
5075.00,1.15
5074.00,1.16
5073.00,1.16
5072.00,1.17
5071.00,1.17
5070.00,1.18
5069.00,1.18
5068.00,1.18
5067.00,1.19
5066.00,1.19
5065.00,1.19
5064.00,1.19
5063.00,1.19
5062.00,1.19
5061.00,1.19
5060.00,1.19
5059.00,1.19
5058.00,1.19
5057.00,1.19
5056.00,1.18
5055.00,1.18
5054.00,1.18
5053.00,1.17
5052.00,1.17
5051.00,1.17
5050.00,1.16
5049.00,1.16
5048.00,1.16
5047.00,1.15
5046.00,1.15
5045.00,1.15
5044.00,1.15
5043.00,1.15
5042.00,1.15
5041.00,1.15
5040.00,1.15
5039.00,1.15
5038.00,1.15
5037.00,1.15
5036.00,1.15
5035.00,1.16
5034.00,1.16
5033.00,1.16
5032.00,1.17
5031.00,1.17
5030.00,1.18
5029.00,1.18
5028.00,1.19
5027.00,1.19
5026.00,1.20
5025.00,1.20
5024.00,1.21
5023.00,1.21
5022.00,1.21
5021.00,1.21
5020.00,1.22
5019.00,1.22
5018.00,1.22
5017.00,1.22
5016.00,1.22
5015.00,1.22
5014.00,1.22
5013.00,1.23
5012.00,1.23
5011.00,1.23
5010.00,1.23
5009.00,1.23
5008.00,1.23
5007.00,1.23
5006.00,1.23
5005.00,1.23
5004.00,1.24
5003.00,1.24
5002.00,1.24
5001.00,1.24
5000.00,1.24
4999.00,1.24
4998.00,1.25
4997.00,1.25
4996.00,1.25
4995.00,1.26
4994.00,1.26
4993.00,1.27
4992.00,1.27
4991.00,1.28
4990.00,1.28
4989.00,1.29
4988.00,1.29
4987.00,1.30
4986.00,1.30
4985.00,1.30
4984.00,1.31
4983.00,1.31
4982.00,1.31
4981.00,1.32
4980.00,1.32
4979.00,1.32
4978.00,1.32
4977.00,1.32
4976.00,1.33
4975.00,1.33
4974.00,1.33
4973.00,1.34
4972.00,1.34
4971.00,1.34
4970.00,1.35
4969.00,1.35
4968.00,1.35
4967.00,1.35
4966.00,1.36
4965.00,1.36
4964.00,1.36
4963.00,1.36
4962.00,1.37
4961.00,1.37
4960.00,1.37
4959.00,1.37
4958.00,1.37
4957.00,1.38
4956.00,1.38
4955.00,1.38
4954.00,1.39
4953.00,1.39
4952.00,1.40
4951.00,1.40
4950.00,1.41
4949.00,1.41
4948.00,1.41
4947.00,1.42
4946.00,1.42
4945.00,1.42
4944.00,1.42
4943.00,1.43
4942.00,1.43
4941.00,1.43
4940.00,1.43
4939.00,1.43
4938.00,1.44
4937.00,1.44
4936.00,1.44
4935.00,1.45
4934.00,1.45
4933.00,1.46
4932.00,1.46
4931.00,1.46
4930.00,1.47
4929.00,1.47
4928.00,1.47
4927.00,1.48
4926.00,1.48
4925.00,1.48
4924.00,1.49
4923.00,1.49
4922.00,1.49
4921.00,1.50
4920.00,1.50
4919.00,1.50
4918.00,1.50
4917.00,1.51
4916.00,1.51
4915.00,1.51
4914.00,1.52
4913.00,1.52
4912.00,1.53
4911.00,1.53
4910.00,1.53
4909.00,1.54
4908.00,1.54
4907.00,1.54
4906.00,1.55
4905.00,1.55
4904.00,1.55
4903.00,1.56
4902.00,1.56
4901.00,1.57
4900.00,1.57
4899.00,1.58
4898.00,1.58
4897.00,1.59
4896.00,1.59
4895.00,1.59
4894.00,1.60
4893.00,1.60
4892.00,1.61
4891.00,1.61
4890.00,1.62
4889.00,1.62
4888.00,1.63
4887.00,1.63
4886.00,1.64
4885.00,1.64
4884.00,1.64
4883.00,1.64
4882.00,1.65
4881.00,1.65
4880.00,1.65
4879.00,1.65
4878.00,1.65
4877.00,1.65
4876.00,1.65
4875.00,1.65
4874.00,1.65
4873.00,1.65
4872.00,1.65
4871.00,1.65
4870.00,1.65
4869.00,1.65
4868.00,1.64
4867.00,1.64
4866.00,1.64
4865.00,1.64
4864.00,1.64
4863.00,1.64
4862.00,1.63
4861.00,1.63
4860.00,1.63
4859.00,1.63
4858.00,1.64
4857.00,1.64
4856.00,1.64
4855.00,1.64
4854.00,1.64
4853.00,1.64
4852.00,1.64
4851.00,1.64
4850.00,1.64
4849.00,1.64
4848.00,1.64
4847.00,1.64
4846.00,1.65
4845.00,1.65
4844.00,1.65
4843.00,1.65
4842.00,1.65
4841.00,1.66
4840.00,1.66
4839.00,1.67
4838.00,1.68
4837.00,1.68
4836.00,1.69
4835.00,1.69
4834.00,1.70
4833.00,1.70
4832.00,1.71
4831.00,1.71
4830.00,1.71
4829.00,1.72
4828.00,1.72
4827.00,1.72
4826.00,1.73
4825.00,1.73
4824.00,1.74
4823.00,1.75
4822.00,1.75
4821.00,1.76
4820.00,1.76
4819.00,1.77
4818.00,1.78
4817.00,1.78
4816.00,1.79
4815.00,1.79
4814.00,1.80
4813.00,1.80
4812.00,1.80
4811.00,1.80
4810.00,1.80
4809.00,1.80
4808.00,1.81
4807.00,1.81
4806.00,1.81
4805.00,1.81
4804.00,1.82
4803.00,1.82
4802.00,1.82
4801.00,1.83
4800.00,1.83
4799.00,1.84
4798.00,1.84
4797.00,1.85
4796.00,1.85
4795.00,1.85
4794.00,1.85
4793.00,1.86
4792.00,1.86
4791.00,1.86
4790.00,1.86
4789.00,1.86
4788.00,1.86
4787.00,1.86
4786.00,1.86
4785.00,1.86
4784.00,1.86
4783.00,1.87
4782.00,1.87
4781.00,1.87
4780.00,1.87
4779.00,1.87
4778.00,1.88
4777.00,1.88
4776.00,1.88
4775.00,1.89
4774.00,1.89
4773.00,1.89
4772.00,1.89
4771.00,1.90
4770.00,1.90
4769.00,1.91
4768.00,1.92
4767.00,1.92
4766.00,1.93
4765.00,1.94
4764.00,1.95
4763.00,1.96
4762.00,1.97
4761.00,1.98
4760.00,1.99
4759.00,2.00
4758.00,2.01
4757.00,2.03
4756.00,2.04
4755.00,2.05
4754.00,2.06
4753.00,2.07
4752.00,2.08
4751.00,2.09
4750.00,2.10
4749.00,2.11
4748.00,2.12
4747.00,2.13
4746.00,2.14
4745.00,2.14
4744.00,2.15
4743.00,2.16
4742.00,2.16
4741.00,2.17
4740.00,2.17
4739.00,2.17
4738.00,2.17
4737.00,2.18
4736.00,2.18
4735.00,2.18
4734.00,2.18
4733.00,2.18
4732.00,2.18
4731.00,2.17
4730.00,2.17
4729.00,2.17
4728.00,2.17
4727.00,2.17
4726.00,2.17
4725.00,2.17
4724.00,2.17
4723.00,2.17
4722.00,2.17
4721.00,2.17
4720.00,2.17
4719.00,2.17
4718.00,2.17
4717.00,2.17
4716.00,2.17
4715.00,2.17
4714.00,2.17
4713.00,2.18
4712.00,2.18
4711.00,2.18
4710.00,2.19
4709.00,2.19
4708.00,2.20
4707.00,2.20
4706.00,2.21
4705.00,2.21
4704.00,2.22
4703.00,2.22
4702.00,2.23
4701.00,2.23
4700.00,2.24
4699.00,2.24
4698.00,2.25
4697.00,2.26
4696.00,2.26
4695.00,2.27
4694.00,2.28
4693.00,2.28
4692.00,2.29
4691.00,2.29
4690.00,2.30
4689.00,2.31
4688.00,2.31
4687.00,2.32
4686.00,2.32
4685.00,2.33
4684.00,2.33
4683.00,2.34
4682.00,2.34
4681.00,2.35
4680.00,2.35
4679.00,2.36
4678.00,2.36
4677.00,2.37
4676.00,2.37
4675.00,2.38
4674.00,2.38
4673.00,2.39
4672.00,2.39
4671.00,2.40
4670.00,2.40
4669.00,2.41
4668.00,2.41
4667.00,2.41
4666.00,2.42
4665.00,2.42
4664.00,2.43
4663.00,2.43
4662.00,2.44
4661.00,2.44
4660.00,2.45
4659.00,2.45
4658.00,2.46
4657.00,2.47
4656.00,2.47
4655.00,2.48
4654.00,2.49
4653.00,2.49
4652.00,2.50
4651.00,2.50
4650.00,2.51
4649.00,2.51
4648.00,2.51
4647.00,2.52
4646.00,2.52
4645.00,2.52
4644.00,2.52
4643.00,2.53
4642.00,2.53
4641.00,2.53
4640.00,2.54
4639.00,2.54
4638.00,2.54
4637.00,2.54
4636.00,2.54
4635.00,2.55
4634.00,2.55
4633.00,2.55
4632.00,2.55
4631.00,2.55
4630.00,2.55
4629.00,2.55
4628.00,2.55
4627.00,2.54
4626.00,2.54
4625.00,2.54
4624.00,2.54
4623.00,2.54
4622.00,2.54
4621.00,2.54
4620.00,2.54
4619.00,2.54
4618.00,2.54
4617.00,2.55
4616.00,2.55
4615.00,2.55
4614.00,2.55
4613.00,2.55
4612.00,2.55
4611.00,2.55
4610.00,2.55
4609.00,2.55
4608.00,2.55
4607.00,2.56
4606.00,2.56
4605.00,2.56
4604.00,2.56
4603.00,2.56
4602.00,2.56
4601.00,2.56
4600.00,2.56
4599.00,2.56
4598.00,2.56
4597.00,2.56
4596.00,2.56
4595.00,2.56
4594.00,2.56
4593.00,2.57
4592.00,2.57
4591.00,2.57
4590.00,2.57
4589.00,2.57
4588.00,2.57
4587.00,2.57
4586.00,2.57
4585.00,2.58
4584.00,2.58
4583.00,2.58
4582.00,2.58
4581.00,2.58
4580.00,2.58
4579.00,2.59
4578.00,2.59
4577.00,2.59
4576.00,2.59
4575.00,2.60
4574.00,2.60
4573.00,2.60
4572.00,2.60
4571.00,2.60
4570.00,2.61
4569.00,2.61
4568.00,2.61
4567.00,2.61
4566.00,2.61
4565.00,2.61
4564.00,2.61
4563.00,2.61
4562.00,2.61
4561.00,2.61
4560.00,2.61
4559.00,2.60
4558.00,2.60
4557.00,2.60
4556.00,2.60
4555.00,2.60
4554.00,2.60
4553.00,2.60
4552.00,2.60
4551.00,2.60
4550.00,2.60
4549.00,2.60
4548.00,2.60
4547.00,2.60
4546.00,2.60
4545.00,2.60
4544.00,2.60
4543.00,2.60
4542.00,2.61
4541.00,2.61
4540.00,2.61
4539.00,2.61
4538.00,2.62
4537.00,2.62
4536.00,2.63
4535.00,2.63
4534.00,2.63
4533.00,2.64
4532.00,2.65
4531.00,2.65
4530.00,2.66
4529.00,2.66
4528.00,2.67
4527.00,2.67
4526.00,2.68
4525.00,2.68
4524.00,2.69
4523.00,2.69
4522.00,2.69
4521.00,2.70
4520.00,2.70
4519.00,2.70
4518.00,2.71
4517.00,2.71
4516.00,2.71
4515.00,2.71
4514.00,2.71
4513.00,2.72
4512.00,2.72
4511.00,2.72
4510.00,2.72
4509.00,2.72
4508.00,2.72
4507.00,2.72
4506.00,2.72
4505.00,2.72
4504.00,2.72
4503.00,2.72
4502.00,2.71
4501.00,2.71
4500.00,2.71
4499.00,2.71
4498.00,2.71
4497.00,2.71
4496.00,2.71
4495.00,2.71
4494.00,2.70
4493.00,2.70
4492.00,2.70
4491.00,2.70
4490.00,2.69
4489.00,2.69
4488.00,2.69
4487.00,2.68
4486.00,2.68
4485.00,2.68
4484.00,2.67
4483.00,2.67
4482.00,2.67
4481.00,2.66
4480.00,2.66
4479.00,2.65
4478.00,2.65
4477.00,2.64
4476.00,2.63
4475.00,2.63
4474.00,2.62
4473.00,2.61
4472.00,2.61
4471.00,2.60
4470.00,2.59
4469.00,2.58
4468.00,2.57
4467.00,2.56
4466.00,2.56
4465.00,2.55
4464.00,2.54
4463.00,2.53
4462.00,2.52
4461.00,2.51
4460.00,2.50
4459.00,2.49
4458.00,2.48
4457.00,2.47
4456.00,2.46
4455.00,2.45
4454.00,2.43
4453.00,2.42
4452.00,2.41
4451.00,2.40
4450.00,2.39
4449.00,2.38
4448.00,2.37
4447.00,2.36
4446.00,2.35
4445.00,2.34
4444.00,2.32
4443.00,2.31
4442.00,2.30
4441.00,2.28
4440.00,2.27
4439.00,2.26
4438.00,2.24
4437.00,2.23
4436.00,2.21
4435.00,2.20
4434.00,2.18
4433.00,2.16
4432.00,2.15
4431.00,2.13
4430.00,2.11
4429.00,2.10
4428.00,2.08
4427.00,2.06
4426.00,2.05
4425.00,2.03
4424.00,2.01
4423.00,2.00
4422.00,1.98
4421.00,1.97
4420.00,1.96
4419.00,1.94
4418.00,1.93
4417.00,1.92
4416.00,1.91
4415.00,1.90
4414.00,1.89
4413.00,1.89
4412.00,1.88
4411.00,1.88
4410.00,1.88
4409.00,1.87
4408.00,1.87
4407.00,1.87
4406.00,1.87
4405.00,1.88
4404.00,1.88
4403.00,1.89
4402.00,1.89
4401.00,1.90
4400.00,1.91
4399.00,1.92
4398.00,1.93
4397.00,1.94
4396.00,1.95
4395.00,1.96
4394.00,1.97
4393.00,1.98
4392.00,1.99
4391.00,2.01
4390.00,2.02
4389.00,2.03
4388.00,2.04
4387.00,2.05
4386.00,2.07
4385.00,2.08
4384.00,2.09
4383.00,2.09
4382.00,2.10
4381.00,2.11
4380.00,2.11
4379.00,2.12
4378.00,2.12
4377.00,2.12
4376.00,2.13
4375.00,2.13
4374.00,2.13
4373.00,2.13
4372.00,2.12
4371.00,2.12
4370.00,2.12
4369.00,2.12
4368.00,2.11
4367.00,2.11
4366.00,2.11
4365.00,2.10
4364.00,2.10
4363.00,2.09
4362.00,2.08
4361.00,2.07
4360.00,2.07
4359.00,2.06
4358.00,2.05
4357.00,2.04
4356.00,2.04
4355.00,2.03
4354.00,2.03
4353.00,2.02
4352.00,2.02
4351.00,2.01
4350.00,2.01
4349.00,2.01
4348.00,2.00
4347.00,2.00
4346.00,2.00
4345.00,2.00
4344.00,1.99
4343.00,1.99
4342.00,1.99
4341.00,1.99
4340.00,1.99
4339.00,1.99
4338.00,1.99
4337.00,1.99
4336.00,1.99
4335.00,2.00
4334.00,2.00
4333.00,2.00
4332.00,2.01
4331.00,2.01
4330.00,2.02
4329.00,2.03
4328.00,2.04
4327.00,2.05
4326.00,2.06
4325.00,2.07
4324.00,2.08
4323.00,2.09
4322.00,2.11
4321.00,2.12
4320.00,2.13
4319.00,2.15
4318.00,2.16
4317.00,2.17
4316.00,2.18
4315.00,2.20
4314.00,2.21
4313.00,2.22
4312.00,2.23
4311.00,2.25
4310.00,2.26
4309.00,2.27
4308.00,2.28
4307.00,2.30
4306.00,2.31
4305.00,2.32
4304.00,2.33
4303.00,2.34
4302.00,2.35
4301.00,2.36
4300.00,2.36
4299.00,2.37
4298.00,2.37
4297.00,2.38
4296.00,2.38
4295.00,2.38
4294.00,2.38
4293.00,2.39
4292.00,2.39
4291.00,2.39
4290.00,2.39
4289.00,2.39
4288.00,2.39
4287.00,2.39
4286.00,2.38
4285.00,2.38
4284.00,2.38
4283.00,2.37
4282.00,2.37
4281.00,2.37
4280.00,2.36
4279.00,2.35
4278.00,2.35
4277.00,2.34
4276.00,2.33
4275.00,2.33
4274.00,2.32
4273.00,2.31
4272.00,2.31
4271.00,2.30
4270.00,2.30
4269.00,2.29
4268.00,2.29
4267.00,2.28
4266.00,2.28
4265.00,2.28
4264.00,2.28
4263.00,2.28
4262.00,2.28
4261.00,2.28
4260.00,2.28
4259.00,2.29
4258.00,2.29
4257.00,2.30
4256.00,2.31
4255.00,2.32
4254.00,2.33
4253.00,2.34
4252.00,2.35
4251.00,2.36
4250.00,2.37
4249.00,2.38
4248.00,2.39
4247.00,2.40
4246.00,2.41
4245.00,2.42
4244.00,2.43
4243.00,2.44
4242.00,2.45
4241.00,2.46
4240.00,2.47
4239.00,2.48
4238.00,2.48
4237.00,2.49
4236.00,2.49
4235.00,2.49
4234.00,2.49
4233.00,2.48
4232.00,2.48
4231.00,2.47
4230.00,2.46
4229.00,2.45
4228.00,2.44
4227.00,2.43
4226.00,2.42
4225.00,2.41
4224.00,2.39
4223.00,2.38
4222.00,2.37
4221.00,2.36
4220.00,2.35
4219.00,2.34
4218.00,2.33
4217.00,2.32
4216.00,2.31
4215.00,2.30
4214.00,2.29
4213.00,2.28
4212.00,2.27
4211.00,2.27
4210.00,2.27
4209.00,2.26
4208.00,2.26
4207.00,2.27
4206.00,2.27
4205.00,2.27
4204.00,2.28
4203.00,2.29
4202.00,2.29
4201.00,2.30
4200.00,2.31
4199.00,2.32
4198.00,2.33
4197.00,2.33
4196.00,2.34
4195.00,2.35
4194.00,2.36
4193.00,2.37
4192.00,2.38
4191.00,2.38
4190.00,2.39
4189.00,2.40
4188.00,2.41
4187.00,2.42
4186.00,2.42
4185.00,2.43
4184.00,2.44
4183.00,2.44
4182.00,2.45
4181.00,2.45
4180.00,2.45
4179.00,2.46
4178.00,2.46
4177.00,2.46
4176.00,2.46
4175.00,2.46
4174.00,2.46
4173.00,2.46
4172.00,2.46
4171.00,2.46
4170.00,2.46
4169.00,2.45
4168.00,2.45
4167.00,2.45
4166.00,2.44
4165.00,2.44
4164.00,2.43
4163.00,2.42
4162.00,2.42
4161.00,2.41
4160.00,2.41
4159.00,2.40
4158.00,2.39
4157.00,2.38
4156.00,2.37
4155.00,2.37
4154.00,2.36
4153.00,2.35
4152.00,2.33
4151.00,2.32
4150.00,2.31
4149.00,2.30
4148.00,2.29
4147.00,2.29
4146.00,2.28
4145.00,2.27
4144.00,2.27
4143.00,2.26
4142.00,2.26
4141.00,2.26
4140.00,2.26
4139.00,2.26
4138.00,2.26
4137.00,2.26
4136.00,2.26
4135.00,2.26
4134.00,2.26
4133.00,2.27
4132.00,2.27
4131.00,2.27
4130.00,2.27
4129.00,2.27
4128.00,2.27
4127.00,2.27
4126.00,2.28
4125.00,2.28
4124.00,2.29
4123.00,2.30
4122.00,2.31
4121.00,2.32
4120.00,2.32
4119.00,2.33
4118.00,2.33
4117.00,2.34
4116.00,2.34
4115.00,2.35
4114.00,2.35
4113.00,2.35
4112.00,2.36
4111.00,2.36
4110.00,2.37
4109.00,2.37
4108.00,2.38
4107.00,2.38
4106.00,2.39
4105.00,2.40
4104.00,2.40
4103.00,2.41
4102.00,2.42
4101.00,2.43
4100.00,2.44
4099.00,2.45
4098.00,2.46
4097.00,2.46
4096.00,2.47
4095.00,2.47
4094.00,2.48
4093.00,2.49
4092.00,2.49
4091.00,2.50
4090.00,2.51
4089.00,2.52
4088.00,2.53
4087.00,2.53
4086.00,2.54
4085.00,2.55
4084.00,2.56
4083.00,2.56
4082.00,2.56
4081.00,2.57
4080.00,2.57
4079.00,2.57
4078.00,2.57
4077.00,2.57
4076.00,2.56
4075.00,2.56
4074.00,2.56
4073.00,2.56
4072.00,2.56
4071.00,2.55
4070.00,2.55
4069.00,2.55
4068.00,2.55
4067.00,2.54
4066.00,2.54
4065.00,2.53
4064.00,2.53
4063.00,2.52
4062.00,2.52
4061.00,2.51
4060.00,2.50
4059.00,2.50
4058.00,2.49
4057.00,2.48
4056.00,2.47
4055.00,2.47
4054.00,2.46
4053.00,2.46
4052.00,2.46
4051.00,2.46
4050.00,2.46
4049.00,2.47
4048.00,2.47
4047.00,2.47
4046.00,2.47
4045.00,2.47
4044.00,2.47
4043.00,2.47
4042.00,2.47
4041.00,2.47
4040.00,2.47
4039.00,2.46
4038.00,2.46
4037.00,2.46
4036.00,2.45
4035.00,2.44
4034.00,2.44
4033.00,2.43
4032.00,2.43
4031.00,2.43
4030.00,2.43
4029.00,2.43
4028.00,2.43
4027.00,2.43
4026.00,2.43
4025.00,2.42
4024.00,2.41
4023.00,2.41
4022.00,2.40
4021.00,2.39
4020.00,2.38
4019.00,2.38
4018.00,2.38
4017.00,2.38
4016.00,2.39
4015.00,2.40
4014.00,2.40
4013.00,2.41
4012.00,2.43
4011.00,2.44
4010.00,2.46
4009.00,2.48
4008.00,2.50
4007.00,2.53
4006.00,2.55
4005.00,2.58
4004.00,2.60
4003.00,2.63
4002.00,2.65
4001.00,2.68
4000.00,2.70
