创建为新数据集,样品 1094 用户 Administrator 日期 星期二, 七月 30 2019
cm-1,%T
10000.00,3.44
9999.00,3.49
9998.00,3.54
9997.00,3.59
9996.00,3.64
9995.00,3.67
9994.00,3.70
9993.00,3.72
9992.00,3.73
9991.00,3.73
9990.00,3.72
9989.00,3.70
9988.00,3.68
9987.00,3.66
9986.00,3.63
9985.00,3.60
9984.00,3.57
9983.00,3.53
9982.00,3.49
9981.00,3.45
9980.00,3.41
9979.00,3.36
9978.00,3.31
9977.00,3.25
9976.00,3.20
9975.00,3.14
9974.00,3.08
9973.00,3.03
9972.00,2.97
9971.00,2.92
9970.00,2.87
9969.00,2.83
9968.00,2.79
9967.00,2.75
9966.00,2.73
9965.00,2.70
9964.00,2.68
9963.00,2.67
9962.00,2.66
9961.00,2.64
9960.00,2.63
9959.00,2.62
9958.00,2.61
9957.00,2.59
9956.00,2.58
9955.00,2.56
9954.00,2.54
9953.00,2.52
9952.00,2.50
9951.00,2.48
9950.00,2.45
9949.00,2.43
9948.00,2.40
9947.00,2.37
9946.00,2.34
9945.00,2.30
9944.00,2.27
9943.00,2.23
9942.00,2.20
9941.00,2.16
9940.00,2.12
9939.00,2.08
9938.00,2.04
9937.00,2.01
9936.00,1.97
9935.00,1.94
9934.00,1.91
9933.00,1.88
9932.00,1.86
9931.00,1.84
9930.00,1.82
9929.00,1.81
9928.00,1.79
9927.00,1.78
9926.00,1.77
9925.00,1.77
9924.00,1.76
9923.00,1.75
9922.00,1.75
9921.00,1.75
9920.00,1.74
9919.00,1.74
9918.00,1.74
9917.00,1.74
9916.00,1.74
9915.00,1.75
9914.00,1.75
9913.00,1.75
9912.00,1.75
9911.00,1.75
9910.00,1.75
9909.00,1.75
9908.00,1.74
9907.00,1.74
9906.00,1.74
9905.00,1.74
9904.00,1.73
9903.00,1.73
9902.00,1.73
9901.00,1.73
9900.00,1.73
9899.00,1.74
9898.00,1.74
9897.00,1.75
9896.00,1.76
9895.00,1.77
9894.00,1.78
9893.00,1.79
9892.00,1.81
9891.00,1.83
9890.00,1.84
9889.00,1.87
9888.00,1.89
9887.00,1.92
9886.00,1.95
9885.00,1.98
9884.00,2.01
9883.00,2.05
9882.00,2.08
9881.00,2.12
9880.00,2.15
9879.00,2.18
9878.00,2.21
9877.00,2.23
9876.00,2.25
9875.00,2.26
9874.00,2.28
9873.00,2.28
9872.00,2.29
9871.00,2.29
9870.00,2.29
9869.00,2.28
9868.00,2.27
9867.00,2.26
9866.00,2.24
9865.00,2.22
9864.00,2.20
9863.00,2.17
9862.00,2.14
9861.00,2.11
9860.00,2.07
9859.00,2.03
9858.00,1.98
9857.00,1.94
9856.00,1.89
9855.00,1.85
9854.00,1.80
9853.00,1.75
9852.00,1.71
9851.00,1.67
9850.00,1.63
9849.00,1.59
9848.00,1.55
9847.00,1.52
9846.00,1.49
9845.00,1.46
9844.00,1.44
9843.00,1.42
9842.00,1.40
9841.00,1.39
9840.00,1.38
9839.00,1.38
9838.00,1.37
9837.00,1.37
9836.00,1.38
9835.00,1.38
9834.00,1.39
9833.00,1.40
9832.00,1.41
9831.00,1.43
9830.00,1.44
9829.00,1.46
9828.00,1.48
9827.00,1.51
9826.00,1.54
9825.00,1.56
9824.00,1.59
9823.00,1.62
9822.00,1.65
9821.00,1.69
9820.00,1.72
9819.00,1.75
9818.00,1.78
9817.00,1.81
9816.00,1.84
9815.00,1.86
9814.00,1.89
9813.00,1.92
9812.00,1.94
9811.00,1.96
9810.00,1.99
9809.00,2.01
9808.00,2.03
9807.00,2.05
9806.00,2.08
9805.00,2.10
9804.00,2.11
9803.00,2.13
9802.00,2.14
9801.00,2.15
9800.00,2.16
9799.00,2.16
9798.00,2.17
9797.00,2.17
9796.00,2.17
9795.00,2.16
9794.00,2.16
9793.00,2.16
9792.00,2.15
9791.00,2.15
9790.00,2.15
9789.00,2.14
9788.00,2.13
9787.00,2.13
9786.00,2.12
9785.00,2.10
9784.00,2.09
9783.00,2.08
9782.00,2.06
9781.00,2.04
9780.00,2.02
9779.00,2.01
9778.00,1.99
9777.00,1.98
9776.00,1.97
9775.00,1.96
9774.00,1.95
9773.00,1.94
9772.00,1.93
9771.00,1.92
9770.00,1.92
9769.00,1.91
9768.00,1.90
9767.00,1.88
9766.00,1.87
9765.00,1.85
9764.00,1.84
9763.00,1.82
9762.00,1.81
9761.00,1.80
9760.00,1.79
9759.00,1.78
9758.00,1.78
9757.00,1.78
9756.00,1.78
9755.00,1.78
9754.00,1.78
9753.00,1.79
9752.00,1.79
9751.00,1.79
9750.00,1.79
9749.00,1.80
9748.00,1.80
9747.00,1.80
9746.00,1.80
9745.00,1.81
9744.00,1.81
9743.00,1.82
9742.00,1.83
9741.00,1.85
9740.00,1.86
9739.00,1.88
9738.00,1.90
9737.00,1.91
9736.00,1.93
9735.00,1.94
9734.00,1.94
9733.00,1.94
9732.00,1.94
9731.00,1.94
9730.00,1.93
9729.00,1.92
9728.00,1.91
9727.00,1.89
9726.00,1.88
9725.00,1.86
9724.00,1.85
9723.00,1.83
9722.00,1.82
9721.00,1.80
9720.00,1.79
9719.00,1.77
9718.00,1.75
9717.00,1.73
9716.00,1.71
9715.00,1.69
9714.00,1.67
9713.00,1.66
9712.00,1.64
9711.00,1.62
9710.00,1.61
9709.00,1.60
9708.00,1.60
9707.00,1.59
9706.00,1.59
9705.00,1.60
9704.00,1.60
9703.00,1.61
9702.00,1.61
9701.00,1.62
9700.00,1.63
9699.00,1.63
9698.00,1.64
9697.00,1.65
9696.00,1.65
9695.00,1.65
9694.00,1.66
9693.00,1.66
9692.00,1.66
9691.00,1.65
9690.00,1.65
9689.00,1.64
9688.00,1.64
9687.00,1.63
9686.00,1.62
9685.00,1.60
9684.00,1.59
9683.00,1.58
9682.00,1.56
9681.00,1.55
9680.00,1.54
9679.00,1.53
9678.00,1.52
9677.00,1.51
9676.00,1.51
9675.00,1.50
9674.00,1.51
9673.00,1.51
9672.00,1.52
9671.00,1.52
9670.00,1.53
9669.00,1.54
9668.00,1.55
9667.00,1.57
9666.00,1.58
9665.00,1.59
9664.00,1.61
9663.00,1.63
9662.00,1.64
9661.00,1.66
9660.00,1.68
9659.00,1.69
9658.00,1.71
9657.00,1.72
9656.00,1.74
9655.00,1.75
9654.00,1.76
9653.00,1.77
9652.00,1.77
9651.00,1.77
9650.00,1.77
9649.00,1.76
9648.00,1.75
9647.00,1.74
9646.00,1.72
9645.00,1.70
9644.00,1.68
9643.00,1.66
9642.00,1.63
9641.00,1.61
9640.00,1.59
9639.00,1.56
9638.00,1.54
9637.00,1.52
9636.00,1.50
9635.00,1.49
9634.00,1.48
9633.00,1.46
9632.00,1.46
9631.00,1.45
9630.00,1.44
9629.00,1.44
9628.00,1.44
9627.00,1.45
9626.00,1.46
9625.00,1.47
9624.00,1.48
9623.00,1.50
9622.00,1.52
9621.00,1.54
9620.00,1.57
9619.00,1.60
9618.00,1.64
9617.00,1.67
9616.00,1.71
9615.00,1.75
9614.00,1.79
9613.00,1.83
9612.00,1.87
9611.00,1.90
9610.00,1.94
9609.00,1.97
9608.00,2.00
9607.00,2.03
9606.00,2.05
9605.00,2.07
9604.00,2.09
9603.00,2.10
9602.00,2.11
9601.00,2.11
9600.00,2.11
9599.00,2.11
9598.00,2.10
9597.00,2.09
9596.00,2.08
9595.00,2.06
9594.00,2.05
9593.00,2.03
9592.00,2.01
9591.00,1.99
9590.00,1.96
9589.00,1.94
9588.00,1.91
9587.00,1.89
9586.00,1.86
9585.00,1.83
9584.00,1.80
9583.00,1.77
9582.00,1.74
9581.00,1.71
9580.00,1.68
9579.00,1.65
9578.00,1.63
9577.00,1.61
9576.00,1.59
9575.00,1.57
9574.00,1.56
9573.00,1.55
9572.00,1.53
9571.00,1.52
9570.00,1.52
9569.00,1.51
9568.00,1.50
9567.00,1.49
9566.00,1.48
9565.00,1.48
9564.00,1.47
9563.00,1.47
9562.00,1.46
9561.00,1.46
9560.00,1.46
9559.00,1.46
9558.00,1.47
9557.00,1.48
9556.00,1.49
9555.00,1.50
9554.00,1.52
9553.00,1.54
9552.00,1.56
9551.00,1.58
9550.00,1.61
9549.00,1.63
9548.00,1.66
9547.00,1.69
9546.00,1.71
9545.00,1.74
9544.00,1.77
9543.00,1.80
9542.00,1.83
9541.00,1.85
9540.00,1.88
9539.00,1.90
9538.00,1.92
9537.00,1.94
9536.00,1.96
9535.00,1.97
9534.00,1.99
9533.00,2.01
9532.00,2.02
9531.00,2.03
9530.00,2.04
9529.00,2.05
9528.00,2.06
9527.00,2.06
9526.00,2.05
9525.00,2.05
9524.00,2.04
9523.00,2.02
9522.00,2.01
9521.00,1.99
9520.00,1.96
9519.00,1.94
9518.00,1.91
9517.00,1.88
9516.00,1.85
9515.00,1.82
9514.00,1.79
9513.00,1.77
9512.00,1.74
9511.00,1.72
9510.00,1.70
9509.00,1.68
9508.00,1.66
9507.00,1.64
9506.00,1.62
9505.00,1.60
9504.00,1.58
9503.00,1.56
9502.00,1.54
9501.00,1.53
9500.00,1.51
9499.00,1.50
9498.00,1.50
9497.00,1.50
9496.00,1.50
9495.00,1.50
9494.00,1.51
9493.00,1.51
9492.00,1.52
9491.00,1.54
9490.00,1.55
9489.00,1.56
9488.00,1.58
9487.00,1.59
9486.00,1.61
9485.00,1.62
9484.00,1.63
9483.00,1.65
9482.00,1.66
9481.00,1.67
9480.00,1.68
9479.00,1.70
9478.00,1.71
9477.00,1.72
9476.00,1.73
9475.00,1.75
9474.00,1.76
9473.00,1.76
9472.00,1.77
9471.00,1.77
9470.00,1.78
9469.00,1.78
9468.00,1.78
9467.00,1.78
9466.00,1.78
9465.00,1.78
9464.00,1.78
9463.00,1.78
9462.00,1.77
9461.00,1.77
9460.00,1.76
9459.00,1.75
9458.00,1.74
9457.00,1.73
9456.00,1.72
9455.00,1.71
9454.00,1.70
9453.00,1.69
9452.00,1.67
9451.00,1.66
9450.00,1.65
9449.00,1.63
9448.00,1.62
9447.00,1.60
9446.00,1.58
9445.00,1.56
9444.00,1.54
9443.00,1.52
9442.00,1.50
9441.00,1.48
9440.00,1.47
9439.00,1.45
9438.00,1.43
9437.00,1.42
9436.00,1.41
9435.00,1.41
9434.00,1.41
9433.00,1.41
9432.00,1.41
9431.00,1.42
9430.00,1.43
9429.00,1.43
9428.00,1.44
9427.00,1.45
9426.00,1.47
9425.00,1.48
9424.00,1.49
9423.00,1.50
9422.00,1.51
9421.00,1.53
9420.00,1.55
9419.00,1.57
9418.00,1.59
9417.00,1.61
9416.00,1.63
9415.00,1.65
9414.00,1.67
9413.00,1.69
9412.00,1.70
9411.00,1.72
9410.00,1.72
9409.00,1.73
9408.00,1.73
9407.00,1.73
9406.00,1.72
9405.00,1.71
9404.00,1.70
9403.00,1.69
9402.00,1.68
9401.00,1.67
9400.00,1.66
9399.00,1.66
9398.00,1.65
9397.00,1.64
9396.00,1.64
9395.00,1.63
9394.00,1.63
9393.00,1.62
9392.00,1.62
9391.00,1.61
9390.00,1.61
9389.00,1.60
9388.00,1.60
9387.00,1.60
9386.00,1.60
9385.00,1.60
9384.00,1.60
9383.00,1.61
9382.00,1.62
9381.00,1.63
9380.00,1.64
9379.00,1.66
9378.00,1.67
9377.00,1.69
9376.00,1.71
9375.00,1.72
9374.00,1.74
9373.00,1.76
9372.00,1.77
9371.00,1.78
9370.00,1.79
9369.00,1.80
9368.00,1.81
9367.00,1.82
9366.00,1.83
9365.00,1.84
9364.00,1.85
9363.00,1.86
9362.00,1.86
9361.00,1.87
9360.00,1.87
9359.00,1.88
9358.00,1.88
9357.00,1.88
9356.00,1.88
9355.00,1.88
9354.00,1.88
9353.00,1.88
9352.00,1.88
9351.00,1.88
9350.00,1.88
9349.00,1.88
9348.00,1.89
9347.00,1.89
9346.00,1.90
9345.00,1.90
9344.00,1.90
9343.00,1.91
9342.00,1.91
9341.00,1.91
9340.00,1.91
9339.00,1.91
9338.00,1.91
9337.00,1.91
9336.00,1.91
9335.00,1.91
9334.00,1.91
9333.00,1.91
9332.00,1.91
9331.00,1.91
9330.00,1.91
9329.00,1.91
9328.00,1.91
9327.00,1.90
9326.00,1.89
9325.00,1.88
9324.00,1.86
9323.00,1.84
9322.00,1.82
9321.00,1.80
9320.00,1.78
9319.00,1.75
9318.00,1.72
9317.00,1.69
9316.00,1.67
9315.00,1.64
9314.00,1.61
9313.00,1.58
9312.00,1.56
9311.00,1.53
9310.00,1.50
9309.00,1.48
9308.00,1.45
9307.00,1.42
9306.00,1.40
9305.00,1.38
9304.00,1.35
9303.00,1.33
9302.00,1.32
9301.00,1.30
9300.00,1.29
9299.00,1.27
9298.00,1.27
9297.00,1.26
9296.00,1.26
9295.00,1.26
9294.00,1.27
9293.00,1.27
9292.00,1.28
9291.00,1.30
9290.00,1.32
9289.00,1.34
9288.00,1.36
9287.00,1.38
9286.00,1.41
9285.00,1.44
9284.00,1.47
9283.00,1.49
9282.00,1.52
9281.00,1.54
9280.00,1.57
9279.00,1.59
9278.00,1.61
9277.00,1.63
9276.00,1.64
9275.00,1.65
9274.00,1.66
9273.00,1.67
9272.00,1.67
9271.00,1.67
9270.00,1.67
9269.00,1.66
9268.00,1.65
9267.00,1.63
9266.00,1.61
9265.00,1.59
9264.00,1.57
9263.00,1.54
9262.00,1.50
9261.00,1.47
9260.00,1.43
9259.00,1.40
9258.00,1.36
9257.00,1.33
9256.00,1.30
9255.00,1.27
9254.00,1.24
9253.00,1.22
9252.00,1.20
9251.00,1.19
9250.00,1.18
9249.00,1.18
9248.00,1.18
9247.00,1.18
9246.00,1.19
9245.00,1.20
9244.00,1.21
9243.00,1.23
9242.00,1.25
9241.00,1.28
9240.00,1.30
9239.00,1.33
9238.00,1.37
9237.00,1.40
9236.00,1.44
9235.00,1.47
9234.00,1.51
9233.00,1.54
9232.00,1.58
9231.00,1.61
9230.00,1.64
9229.00,1.67
9228.00,1.70
9227.00,1.72
9226.00,1.74
9225.00,1.76
9224.00,1.78
9223.00,1.79
9222.00,1.80
9221.00,1.80
9220.00,1.81
9219.00,1.81
9218.00,1.80
9217.00,1.80
9216.00,1.79
9215.00,1.79
9214.00,1.78
9213.00,1.77
9212.00,1.76
9211.00,1.75
9210.00,1.74
9209.00,1.73
9208.00,1.73
9207.00,1.72
9206.00,1.72
9205.00,1.72
9204.00,1.72
9203.00,1.72
9202.00,1.72
9201.00,1.72
9200.00,1.72
9199.00,1.72
9198.00,1.72
9197.00,1.71
9196.00,1.71
9195.00,1.71
9194.00,1.70
9193.00,1.70
9192.00,1.70
9191.00,1.70
9190.00,1.70
9189.00,1.70
9188.00,1.71
9187.00,1.71
9186.00,1.72
9185.00,1.72
9184.00,1.73
9183.00,1.73
9182.00,1.73
9181.00,1.73
9180.00,1.72
9179.00,1.71
9178.00,1.70
9177.00,1.69
9176.00,1.68
9175.00,1.66
9174.00,1.65
9173.00,1.64
9172.00,1.62
9171.00,1.61
9170.00,1.61
9169.00,1.60
9168.00,1.59
9167.00,1.58
9166.00,1.57
9165.00,1.57
9164.00,1.56
9163.00,1.55
9162.00,1.54
9161.00,1.52
9160.00,1.51
9159.00,1.50
9158.00,1.48
9157.00,1.47
9156.00,1.46
9155.00,1.44
9154.00,1.43
9153.00,1.42
9152.00,1.41
9151.00,1.41
9150.00,1.40
9149.00,1.40
9148.00,1.40
9147.00,1.40
9146.00,1.40
9145.00,1.40
9144.00,1.40
9143.00,1.40
9142.00,1.40
9141.00,1.41
9140.00,1.41
9139.00,1.42
9138.00,1.42
9137.00,1.43
9136.00,1.43
9135.00,1.44
9134.00,1.44
9133.00,1.45
9132.00,1.46
9131.00,1.47
9130.00,1.47
9129.00,1.48
9128.00,1.50
9127.00,1.51
9126.00,1.52
9125.00,1.53
9124.00,1.54
9123.00,1.56
9122.00,1.56
9121.00,1.57
9120.00,1.58
9119.00,1.59
9118.00,1.60
9117.00,1.60
9116.00,1.61
9115.00,1.61
9114.00,1.61
9113.00,1.61
9112.00,1.61
9111.00,1.61
9110.00,1.61
9109.00,1.61
9108.00,1.61
9107.00,1.61
9106.00,1.60
9105.00,1.60
9104.00,1.59
9103.00,1.59
9102.00,1.58
9101.00,1.57
9100.00,1.57
9099.00,1.56
9098.00,1.54
9097.00,1.53
9096.00,1.52
9095.00,1.51
9094.00,1.51
9093.00,1.50
9092.00,1.49
9091.00,1.48
9090.00,1.48
9089.00,1.48
9088.00,1.48
9087.00,1.48
9086.00,1.48
9085.00,1.48
9084.00,1.48
9083.00,1.48
9082.00,1.48
9081.00,1.48
9080.00,1.47
9079.00,1.47
9078.00,1.47
9077.00,1.47
9076.00,1.47
9075.00,1.48
9074.00,1.48
9073.00,1.49
9072.00,1.49
9071.00,1.50
9070.00,1.51
9069.00,1.52
9068.00,1.53
9067.00,1.54
9066.00,1.55
9065.00,1.56
9064.00,1.57
9063.00,1.57
9062.00,1.57
9061.00,1.57
9060.00,1.58
9059.00,1.58
9058.00,1.58
9057.00,1.59
9056.00,1.59
9055.00,1.60
9054.00,1.61
9053.00,1.63
9052.00,1.64
9051.00,1.65
9050.00,1.66
9049.00,1.67
9048.00,1.68
9047.00,1.69
9046.00,1.69
9045.00,1.70
9044.00,1.70
9043.00,1.70
9042.00,1.70
9041.00,1.70
9040.00,1.70
9039.00,1.70
9038.00,1.70
9037.00,1.70
9036.00,1.71
9035.00,1.71
9034.00,1.72
9033.00,1.73
9032.00,1.75
9031.00,1.76
9030.00,1.77
9029.00,1.77
9028.00,1.78
9027.00,1.79
9026.00,1.80
9025.00,1.80
9024.00,1.81
9023.00,1.81
9022.00,1.81
9021.00,1.82
9020.00,1.83
9019.00,1.83
9018.00,1.84
9017.00,1.85
9016.00,1.86
9015.00,1.87
9014.00,1.89
9013.00,1.90
9012.00,1.91
9011.00,1.92
9010.00,1.93
9009.00,1.94
9008.00,1.95
9007.00,1.95
9006.00,1.96
9005.00,1.96
9004.00,1.96
9003.00,1.97
9002.00,1.97
9001.00,1.97
9000.00,1.97
8999.00,1.97
8998.00,1.97
8997.00,1.97
8996.00,1.97
8995.00,1.97
8994.00,1.97
8993.00,1.97
8992.00,1.97
8991.00,1.98
8990.00,1.98
8989.00,1.98
8988.00,1.98
8987.00,1.98
8986.00,1.98
8985.00,1.97
8984.00,1.97
8983.00,1.97
8982.00,1.96
8981.00,1.95
8980.00,1.95
8979.00,1.94
8978.00,1.94
8977.00,1.93
8976.00,1.93
8975.00,1.93
8974.00,1.93
8973.00,1.94
8972.00,1.94
8971.00,1.95
8970.00,1.96
8969.00,1.97
8968.00,1.97
8967.00,1.98
8966.00,1.99
8965.00,2.00
8964.00,2.01
8963.00,2.01
8962.00,2.02
8961.00,2.02
8960.00,2.03
8959.00,2.04
8958.00,2.04
8957.00,2.05
8956.00,2.05
8955.00,2.06
8954.00,2.06
8953.00,2.06
8952.00,2.07
8951.00,2.07
8950.00,2.06
8949.00,2.06
8948.00,2.05
8947.00,2.04
8946.00,2.03
8945.00,2.01
8944.00,2.00
8943.00,1.98
8942.00,1.97
8941.00,1.95
8940.00,1.93
8939.00,1.92
8938.00,1.90
8937.00,1.88
8936.00,1.86
8935.00,1.84
8934.00,1.82
8933.00,1.80
8932.00,1.79
8931.00,1.77
8930.00,1.75
8929.00,1.73
8928.00,1.71
8927.00,1.70
8926.00,1.68
8925.00,1.67
8924.00,1.66
8923.00,1.65
8922.00,1.64
8921.00,1.63
8920.00,1.62
8919.00,1.62
8918.00,1.61
8917.00,1.60
8916.00,1.59
8915.00,1.58
8914.00,1.57
8913.00,1.56
8912.00,1.56
8911.00,1.55
8910.00,1.54
8909.00,1.54
8908.00,1.54
8907.00,1.54
8906.00,1.54
8905.00,1.54
8904.00,1.54
8903.00,1.54
8902.00,1.54
8901.00,1.54
8900.00,1.54
8899.00,1.54
8898.00,1.54
8897.00,1.54
8896.00,1.54
8895.00,1.53
8894.00,1.53
8893.00,1.53
8892.00,1.53
8891.00,1.54
8890.00,1.54
8889.00,1.55
8888.00,1.56
8887.00,1.57
8886.00,1.58
8885.00,1.59
8884.00,1.60
8883.00,1.61
8882.00,1.61
8881.00,1.62
8880.00,1.62
8879.00,1.63
8878.00,1.63
8877.00,1.64
8876.00,1.65
8875.00,1.66
8874.00,1.67
8873.00,1.68
8872.00,1.70
8871.00,1.72
8870.00,1.74
8869.00,1.77
8868.00,1.79
8867.00,1.82
8866.00,1.84
8865.00,1.87
8864.00,1.89
8863.00,1.91
8862.00,1.94
8861.00,1.96
8860.00,1.98
8859.00,2.00
8858.00,2.02
8857.00,2.04
8856.00,2.06
8855.00,2.08
8854.00,2.10
8853.00,2.12
8852.00,2.14
8851.00,2.16
8850.00,2.17
8849.00,2.18
8848.00,2.19
8847.00,2.20
8846.00,2.21
8845.00,2.21
8844.00,2.21
8843.00,2.20
8842.00,2.20
8841.00,2.19
8840.00,2.17
8839.00,2.15
8838.00,2.14
8837.00,2.12
8836.00,2.09
8835.00,2.07
8834.00,2.05
8833.00,2.03
8832.00,2.00
8831.00,1.98
8830.00,1.96
8829.00,1.94
8828.00,1.93
8827.00,1.91
8826.00,1.90
8825.00,1.89
8824.00,1.88
8823.00,1.87
8822.00,1.86
8821.00,1.85
8820.00,1.84
8819.00,1.83
8818.00,1.83
8817.00,1.82
8816.00,1.82
8815.00,1.82
8814.00,1.82
8813.00,1.83
8812.00,1.84
8811.00,1.85
8810.00,1.86
8809.00,1.87
8808.00,1.88
8807.00,1.89
8806.00,1.90
8805.00,1.92
8804.00,1.93
8803.00,1.94
8802.00,1.95
8801.00,1.96
8800.00,1.96
8799.00,1.97
8798.00,1.98
8797.00,1.98
8796.00,1.98
8795.00,1.99
8794.00,1.99
8793.00,1.99
8792.00,1.99
8791.00,1.99
8790.00,1.99
8789.00,1.99
8788.00,1.99
8787.00,1.99
8786.00,1.99
8785.00,1.98
8784.00,1.98
8783.00,1.98
8782.00,1.98
8781.00,1.98
8780.00,1.98
8779.00,1.97
8778.00,1.96
8777.00,1.96
8776.00,1.94
8775.00,1.93
8774.00,1.92
8773.00,1.90
8772.00,1.88
8771.00,1.86
8770.00,1.84
8769.00,1.82
8768.00,1.80
8767.00,1.78
8766.00,1.76
8765.00,1.74
8764.00,1.72
8763.00,1.70
8762.00,1.67
8761.00,1.65
8760.00,1.62
8759.00,1.60
8758.00,1.57
8757.00,1.54
8756.00,1.51
8755.00,1.48
8754.00,1.45
8753.00,1.42
8752.00,1.40
8751.00,1.38
8750.00,1.36
8749.00,1.35
8748.00,1.34
8747.00,1.33
8746.00,1.33
8745.00,1.32
8744.00,1.32
8743.00,1.32
8742.00,1.32
8741.00,1.33
8740.00,1.33
8739.00,1.33
8738.00,1.34
8737.00,1.34
8736.00,1.35
8735.00,1.36
8734.00,1.37
8733.00,1.38
8732.00,1.39
8731.00,1.40
8730.00,1.41
8729.00,1.42
8728.00,1.43
8727.00,1.44
8726.00,1.45
8725.00,1.46
8724.00,1.46
8723.00,1.47
8722.00,1.47
8721.00,1.48
8720.00,1.48
8719.00,1.48
8718.00,1.48
8717.00,1.48
8716.00,1.48
8715.00,1.48
8714.00,1.47
8713.00,1.47
8712.00,1.47
8711.00,1.47
8710.00,1.46
8709.00,1.46
8708.00,1.46
8707.00,1.46
8706.00,1.46
8705.00,1.46
8704.00,1.46
8703.00,1.47
8702.00,1.48
8701.00,1.48
8700.00,1.49
8699.00,1.50
8698.00,1.51
8697.00,1.52
8696.00,1.53
8695.00,1.54
8694.00,1.55
8693.00,1.55
8692.00,1.56
8691.00,1.57
8690.00,1.58
8689.00,1.59
8688.00,1.60
8687.00,1.62
8686.00,1.63
8685.00,1.65
8684.00,1.67
8683.00,1.69
8682.00,1.71
8681.00,1.73
8680.00,1.75
8679.00,1.77
8678.00,1.79
8677.00,1.80
8676.00,1.82
8675.00,1.84
8674.00,1.86
8673.00,1.87
8672.00,1.89
8671.00,1.91
8670.00,1.93
8669.00,1.96
8668.00,1.98
8667.00,2.01
8666.00,2.04
8665.00,2.06
8664.00,2.09
8663.00,2.11
8662.00,2.13
8661.00,2.15
8660.00,2.16
8659.00,2.18
8658.00,2.19
8657.00,2.20
8656.00,2.22
8655.00,2.23
8654.00,2.24
8653.00,2.24
8652.00,2.25
8651.00,2.26
8650.00,2.26
8649.00,2.27
8648.00,2.27
8647.00,2.27
8646.00,2.27
8645.00,2.27
8644.00,2.26
8643.00,2.25
8642.00,2.25
8641.00,2.23
8640.00,2.22
8639.00,2.21
8638.00,2.19
8637.00,2.18
8636.00,2.17
8635.00,2.16
8634.00,2.14
8633.00,2.13
8632.00,2.11
8631.00,2.10
8630.00,2.08
8629.00,2.06
8628.00,2.04
8627.00,2.01
8626.00,1.99
8625.00,1.96
8624.00,1.93
8623.00,1.91
8622.00,1.88
8621.00,1.85
8620.00,1.83
8619.00,1.80
8618.00,1.77
8617.00,1.75
8616.00,1.73
8615.00,1.70
8614.00,1.68
8613.00,1.66
8612.00,1.65
8611.00,1.63
8610.00,1.62
8609.00,1.60
8608.00,1.59
8607.00,1.58
8606.00,1.58
8605.00,1.57
8604.00,1.57
8603.00,1.57
8602.00,1.57
8601.00,1.57
8600.00,1.58
8599.00,1.58
8598.00,1.59
8597.00,1.61
8596.00,1.62
8595.00,1.63
8594.00,1.65
8593.00,1.66
8592.00,1.68
8591.00,1.69
8590.00,1.71
8589.00,1.73
8588.00,1.74
8587.00,1.75
8586.00,1.76
8585.00,1.77
8584.00,1.78
8583.00,1.79
8582.00,1.79
8581.00,1.79
8580.00,1.80
8579.00,1.80
8578.00,1.80
8577.00,1.80
8576.00,1.80
8575.00,1.81
8574.00,1.81
8573.00,1.81
8572.00,1.81
8571.00,1.81
8570.00,1.81
8569.00,1.81
8568.00,1.81
8567.00,1.81
8566.00,1.81
8565.00,1.81
8564.00,1.81
8563.00,1.80
8562.00,1.80
8561.00,1.80
8560.00,1.80
8559.00,1.81
8558.00,1.81
8557.00,1.81
8556.00,1.81
8555.00,1.82
8554.00,1.82
8553.00,1.82
8552.00,1.82
8551.00,1.81
8550.00,1.81
8549.00,1.81
8548.00,1.80
8547.00,1.79
8546.00,1.79
8545.00,1.78
8544.00,1.77
8543.00,1.76
8542.00,1.75
8541.00,1.74
8540.00,1.73
8539.00,1.72
8538.00,1.71
8537.00,1.70
8536.00,1.69
8535.00,1.68
8534.00,1.67
8533.00,1.66
8532.00,1.64
8531.00,1.63
8530.00,1.61
8529.00,1.60
8528.00,1.59
8527.00,1.58
8526.00,1.57
8525.00,1.56
8524.00,1.55
8523.00,1.54
8522.00,1.53
8521.00,1.52
8520.00,1.51
8519.00,1.49
8518.00,1.48
8517.00,1.47
8516.00,1.46
8515.00,1.44
8514.00,1.43
8513.00,1.42
8512.00,1.40
8511.00,1.39
8510.00,1.38
8509.00,1.37
8508.00,1.36
8507.00,1.36
8506.00,1.35
8505.00,1.35
8504.00,1.34
8503.00,1.34
8502.00,1.34
8501.00,1.34
8500.00,1.33
8499.00,1.33
8498.00,1.33
8497.00,1.33
8496.00,1.34
8495.00,1.34
8494.00,1.34
8493.00,1.35
8492.00,1.35
8491.00,1.36
8490.00,1.37
8489.00,1.37
8488.00,1.38
8487.00,1.39
8486.00,1.40
8485.00,1.42
8484.00,1.43
8483.00,1.44
8482.00,1.45
8481.00,1.47
8480.00,1.48
8479.00,1.49
8478.00,1.51
8477.00,1.52
8476.00,1.53
8475.00,1.55
8474.00,1.56
8473.00,1.57
8472.00,1.59
8471.00,1.60
8470.00,1.62
8469.00,1.64
8468.00,1.65
8467.00,1.67
8466.00,1.68
8465.00,1.70
8464.00,1.71
8463.00,1.72
8462.00,1.73
8461.00,1.75
8460.00,1.75
8459.00,1.76
8458.00,1.77
8457.00,1.77
8456.00,1.77
8455.00,1.77
8454.00,1.77
8453.00,1.76
8452.00,1.76
8451.00,1.75
8450.00,1.74
8449.00,1.73
8448.00,1.71
8447.00,1.70
8446.00,1.68
8445.00,1.67
8444.00,1.65
8443.00,1.63
8442.00,1.61
8441.00,1.59
8440.00,1.57
8439.00,1.56
8438.00,1.54
8437.00,1.52
8436.00,1.51
8435.00,1.49
8434.00,1.48
8433.00,1.47
8432.00,1.47
8431.00,1.47
8430.00,1.47
8429.00,1.47
8428.00,1.47
8427.00,1.48
8426.00,1.49
8425.00,1.51
8424.00,1.52
8423.00,1.54
8422.00,1.56
8421.00,1.59
8420.00,1.61
8419.00,1.64
8418.00,1.66
8417.00,1.69
8416.00,1.72
8415.00,1.75
8414.00,1.78
8413.00,1.81
8412.00,1.84
8411.00,1.88
8410.00,1.91
8409.00,1.94
8408.00,1.97
8407.00,2.00
8406.00,2.03
8405.00,2.06
8404.00,2.08
8403.00,2.10
8402.00,2.12
8401.00,2.13
8400.00,2.15
8399.00,2.16
8398.00,2.16
8397.00,2.17
8396.00,2.17
8395.00,2.17
8394.00,2.17
8393.00,2.17
8392.00,2.16
8391.00,2.16
8390.00,2.16
8389.00,2.15
8388.00,2.14
8387.00,2.13
8386.00,2.12
8385.00,2.11
8384.00,2.10
8383.00,2.08
8382.00,2.07
8381.00,2.05
8380.00,2.04
8379.00,2.03
8378.00,2.01
8377.00,2.00
8376.00,1.99
8375.00,1.98
8374.00,1.97
8373.00,1.97
8372.00,1.96
8371.00,1.96
8370.00,1.96
8369.00,1.96
8368.00,1.96
8367.00,1.97
8366.00,1.97
8365.00,1.98
8364.00,1.98
8363.00,1.99
8362.00,2.00
8361.00,2.01
8360.00,2.02
8359.00,2.02
8358.00,2.03
8357.00,2.04
8356.00,2.05
8355.00,2.06
8354.00,2.07
8353.00,2.07
8352.00,2.08
8351.00,2.09
8350.00,2.09
8349.00,2.09
8348.00,2.09
8347.00,2.09
8346.00,2.08
8345.00,2.08
8344.00,2.07
8343.00,2.07
8342.00,2.06
8341.00,2.04
8340.00,2.03
8339.00,2.02
8338.00,2.00
8337.00,1.98
8336.00,1.96
8335.00,1.94
8334.00,1.93
8333.00,1.91
8332.00,1.89
8331.00,1.87
8330.00,1.85
8329.00,1.83
8328.00,1.82
8327.00,1.80
8326.00,1.78
8325.00,1.77
8324.00,1.76
8323.00,1.74
8322.00,1.74
8321.00,1.73
8320.00,1.72
8319.00,1.72
8318.00,1.71
8317.00,1.71
8316.00,1.71
8315.00,1.71
8314.00,1.71
8313.00,1.71
8312.00,1.71
8311.00,1.71
8310.00,1.71
8309.00,1.71
8308.00,1.71
8307.00,1.71
8306.00,1.71
8305.00,1.71
8304.00,1.72
8303.00,1.72
8302.00,1.73
8301.00,1.73
8300.00,1.74
8299.00,1.74
8298.00,1.75
8297.00,1.76
8296.00,1.77
8295.00,1.78
8294.00,1.79
8293.00,1.79
8292.00,1.80
8291.00,1.81
8290.00,1.82
8289.00,1.82
8288.00,1.83
8287.00,1.84
8286.00,1.85
8285.00,1.86
8284.00,1.88
8283.00,1.89
8282.00,1.90
8281.00,1.91
8280.00,1.93
8279.00,1.94
8278.00,1.95
8277.00,1.96
8276.00,1.98
8275.00,1.99
8274.00,2.00
8273.00,2.01
8272.00,2.01
8271.00,2.02
8270.00,2.03
8269.00,2.03
8268.00,2.03
8267.00,2.04
8266.00,2.04
8265.00,2.04
8264.00,2.05
8263.00,2.05
8262.00,2.06
8261.00,2.06
8260.00,2.07
8259.00,2.08
8258.00,2.08
8257.00,2.09
8256.00,2.09
8255.00,2.09
8254.00,2.09
8253.00,2.08
8252.00,2.08
8251.00,2.07
8250.00,2.07
8249.00,2.06
8248.00,2.05
8247.00,2.04
8246.00,2.03
8245.00,2.02
8244.00,2.01
8243.00,2.00
8242.00,2.00
8241.00,1.99
8240.00,1.98
8239.00,1.97
8238.00,1.96
8237.00,1.94
8236.00,1.93
8235.00,1.91
8234.00,1.90
8233.00,1.88
8232.00,1.86
8231.00,1.84
8230.00,1.83
8229.00,1.81
8228.00,1.80
8227.00,1.79
8226.00,1.78
8225.00,1.77
8224.00,1.76
8223.00,1.75
8222.00,1.75
8221.00,1.74
8220.00,1.74
8219.00,1.73
8218.00,1.73
8217.00,1.72
8216.00,1.72
8215.00,1.72
8214.00,1.72
8213.00,1.72
8212.00,1.73
8211.00,1.73
8210.00,1.74
8209.00,1.74
8208.00,1.75
8207.00,1.76
8206.00,1.77
8205.00,1.77
8204.00,1.78
8203.00,1.79
8202.00,1.80
8201.00,1.80
8200.00,1.81
8199.00,1.81
8198.00,1.82
8197.00,1.82
8196.00,1.82
8195.00,1.82
8194.00,1.82
8193.00,1.82
8192.00,1.82
8191.00,1.82
8190.00,1.82
8189.00,1.82
8188.00,1.81
8187.00,1.81
8186.00,1.80
8185.00,1.80
8184.00,1.79
8183.00,1.78
8182.00,1.78
8181.00,1.77
8180.00,1.76
8179.00,1.75
8178.00,1.74
8177.00,1.73
8176.00,1.72
8175.00,1.71
8174.00,1.71
8173.00,1.71
8172.00,1.71
8171.00,1.71
8170.00,1.72
8169.00,1.73
8168.00,1.74
8167.00,1.75
8166.00,1.75
8165.00,1.76
8164.00,1.77
8163.00,1.78
8162.00,1.79
8161.00,1.79
8160.00,1.80
8159.00,1.80
8158.00,1.81
8157.00,1.81
8156.00,1.82
8155.00,1.83
8154.00,1.84
8153.00,1.85
8152.00,1.85
8151.00,1.86
8150.00,1.87
8149.00,1.88
8148.00,1.89
8147.00,1.89
8146.00,1.89
8145.00,1.89
8144.00,1.89
8143.00,1.89
8142.00,1.89
8141.00,1.89
8140.00,1.90
8139.00,1.90
8138.00,1.91
8137.00,1.92
8136.00,1.93
8135.00,1.94
8134.00,1.95
8133.00,1.97
8132.00,1.98
8131.00,1.99
8130.00,2.01
8129.00,2.02
8128.00,2.03
8127.00,2.05
8126.00,2.06
8125.00,2.07
8124.00,2.09
8123.00,2.10
8122.00,2.12
8121.00,2.14
8120.00,2.15
8119.00,2.17
8118.00,2.18
8117.00,2.19
8116.00,2.21
8115.00,2.22
8114.00,2.23
8113.00,2.24
8112.00,2.25
8111.00,2.25
8110.00,2.26
8109.00,2.26
8108.00,2.27
8107.00,2.27
8106.00,2.27
8105.00,2.28
8104.00,2.28
8103.00,2.28
8102.00,2.27
8101.00,2.27
8100.00,2.27
8099.00,2.27
8098.00,2.26
8097.00,2.25
8096.00,2.24
8095.00,2.23
8094.00,2.22
8093.00,2.21
8092.00,2.19
8091.00,2.18
8090.00,2.16
8089.00,2.14
8088.00,2.12
8087.00,2.10
8086.00,2.08
8085.00,2.06
8084.00,2.04
8083.00,2.02
8082.00,2.00
8081.00,1.97
8080.00,1.95
8079.00,1.93
8078.00,1.91
8077.00,1.89
8076.00,1.87
8075.00,1.86
8074.00,1.84
8073.00,1.82
8072.00,1.80
8071.00,1.79
8070.00,1.77
8069.00,1.75
8068.00,1.74
8067.00,1.72
8066.00,1.71
8065.00,1.70
8064.00,1.69
8063.00,1.69
8062.00,1.68
8061.00,1.68
8060.00,1.68
8059.00,1.68
8058.00,1.68
8057.00,1.69
8056.00,1.69
8055.00,1.70
8054.00,1.71
8053.00,1.71
8052.00,1.72
8051.00,1.73
8050.00,1.74
8049.00,1.76
8048.00,1.77
8047.00,1.78
8046.00,1.79
8045.00,1.80
8044.00,1.82
8043.00,1.83
8042.00,1.85
8041.00,1.87
8040.00,1.88
8039.00,1.90
8038.00,1.92
8037.00,1.94
8036.00,1.95
8035.00,1.97
8034.00,1.98
8033.00,1.99
8032.00,2.01
8031.00,2.02
8030.00,2.03
8029.00,2.04
8028.00,2.04
8027.00,2.05
8026.00,2.06
8025.00,2.06
8024.00,2.07
8023.00,2.07
8022.00,2.08
8021.00,2.08
8020.00,2.09
8019.00,2.09
8018.00,2.09
8017.00,2.09
8016.00,2.09
8015.00,2.09
8014.00,2.09
8013.00,2.09
8012.00,2.09
8011.00,2.09
8010.00,2.08
8009.00,2.08
8008.00,2.07
8007.00,2.07
8006.00,2.07
8005.00,2.06
8004.00,2.06
8003.00,2.06
8002.00,2.06
8001.00,2.05
8000.00,2.05
7999.00,2.05
7998.00,2.05
7997.00,2.05
7996.00,2.05
7995.00,2.04
7994.00,2.04
7993.00,2.04
7992.00,2.03
7991.00,2.03
7990.00,2.03
7989.00,2.03
7988.00,2.02
7987.00,2.02
7986.00,2.02
7985.00,2.03
7984.00,2.03
7983.00,2.03
7982.00,2.03
7981.00,2.03
7980.00,2.03
7979.00,2.02
7978.00,2.02
7977.00,2.01
7976.00,2.00
7975.00,1.99
7974.00,1.98
7973.00,1.97
7972.00,1.96
7971.00,1.95
7970.00,1.94
7969.00,1.93
7968.00,1.91
7967.00,1.90
7966.00,1.89
7965.00,1.88
7964.00,1.87
7963.00,1.86
7962.00,1.85
7961.00,1.84
7960.00,1.83
7959.00,1.81
7958.00,1.80
7957.00,1.79
7956.00,1.78
7955.00,1.77
7954.00,1.76
7953.00,1.76
7952.00,1.76
7951.00,1.76
7950.00,1.76
7949.00,1.76
7948.00,1.76
7947.00,1.76
7946.00,1.77
7945.00,1.77
7944.00,1.78
7943.00,1.78
7942.00,1.79
7941.00,1.80
7940.00,1.81
7939.00,1.83
7938.00,1.84
7937.00,1.85
7936.00,1.87
7935.00,1.88
7934.00,1.90
7933.00,1.92
7932.00,1.93
7931.00,1.94
7930.00,1.96
7929.00,1.97
7928.00,1.98
7927.00,1.99
7926.00,2.00
7925.00,2.01
7924.00,2.02
7923.00,2.03
7922.00,2.04
7921.00,2.05
7920.00,2.06
7919.00,2.07
7918.00,2.08
7917.00,2.09
7916.00,2.09
7915.00,2.10
7914.00,2.10
7913.00,2.09
7912.00,2.09
7911.00,2.08
7910.00,2.07
7909.00,2.06
7908.00,2.05
7907.00,2.04
7906.00,2.03
7905.00,2.02
7904.00,2.00
7903.00,1.99
7902.00,1.98
7901.00,1.97
7900.00,1.96
7899.00,1.95
7898.00,1.93
7897.00,1.92
7896.00,1.90
7895.00,1.88
7894.00,1.87
7893.00,1.85
7892.00,1.83
7891.00,1.81
7890.00,1.79
7889.00,1.78
7888.00,1.77
7887.00,1.75
7886.00,1.74
7885.00,1.73
7884.00,1.73
7883.00,1.72
7882.00,1.72
7881.00,1.72
7880.00,1.72
7879.00,1.73
7878.00,1.73
7877.00,1.73
7876.00,1.73
7875.00,1.74
7874.00,1.74
7873.00,1.74
7872.00,1.75
7871.00,1.75
7870.00,1.76
7869.00,1.76
7868.00,1.77
7867.00,1.78
7866.00,1.78
7865.00,1.79
7864.00,1.80
7863.00,1.80
7862.00,1.81
7861.00,1.82
7860.00,1.82
7859.00,1.83
7858.00,1.83
7857.00,1.84
7856.00,1.84
7855.00,1.84
7854.00,1.84
7853.00,1.84
7852.00,1.84
7851.00,1.84
7850.00,1.83
7849.00,1.83
7848.00,1.83
7847.00,1.83
7846.00,1.83
7845.00,1.83
7844.00,1.84
7843.00,1.84
7842.00,1.84
7841.00,1.85
7840.00,1.86
7839.00,1.86
7838.00,1.87
7837.00,1.88
7836.00,1.88
7835.00,1.89
7834.00,1.90
7833.00,1.90
7832.00,1.91
7831.00,1.91
7830.00,1.92
7829.00,1.92
7828.00,1.93
7827.00,1.93
7826.00,1.94
7825.00,1.94
7824.00,1.94
7823.00,1.95
7822.00,1.95
7821.00,1.95
7820.00,1.96
7819.00,1.96
7818.00,1.96
7817.00,1.96
7816.00,1.96
7815.00,1.96
7814.00,1.96
7813.00,1.96
7812.00,1.96
7811.00,1.96
7810.00,1.95
7809.00,1.95
7808.00,1.95
7807.00,1.95
7806.00,1.95
7805.00,1.95
7804.00,1.95
7803.00,1.96
7802.00,1.96
7801.00,1.97
7800.00,1.98
7799.00,1.99
7798.00,2.00
7797.00,2.01
7796.00,2.02
7795.00,2.04
7794.00,2.05
7793.00,2.07
7792.00,2.08
7791.00,2.10
7790.00,2.11
7789.00,2.12
7788.00,2.13
7787.00,2.14
7786.00,2.16
7785.00,2.17
7784.00,2.18
7783.00,2.19
7782.00,2.20
7781.00,2.21
7780.00,2.22
7779.00,2.23
7778.00,2.24
7777.00,2.24
7776.00,2.25
7775.00,2.26
7774.00,2.26
7773.00,2.26
7772.00,2.26
7771.00,2.26
7770.00,2.25
7769.00,2.25
7768.00,2.24
7767.00,2.23
7766.00,2.22
7765.00,2.20
7764.00,2.19
7763.00,2.18
7762.00,2.16
7761.00,2.15
7760.00,2.14
7759.00,2.12
7758.00,2.11
7757.00,2.09
7756.00,2.08
7755.00,2.06
7754.00,2.04
7753.00,2.02
7752.00,2.00
7751.00,1.98
7750.00,1.97
7749.00,1.95
7748.00,1.93
7747.00,1.91
7746.00,1.89
7745.00,1.88
7744.00,1.86
7743.00,1.85
7742.00,1.84
7741.00,1.84
7740.00,1.83
7739.00,1.83
7738.00,1.83
7737.00,1.82
7736.00,1.82
7735.00,1.83
7734.00,1.83
7733.00,1.83
7732.00,1.83
7731.00,1.84
7730.00,1.85
7729.00,1.85
7728.00,1.86
7727.00,1.88
7726.00,1.89
7725.00,1.90
7724.00,1.92
7723.00,1.94
7722.00,1.95
7721.00,1.97
7720.00,1.99
7719.00,2.00
7718.00,2.02
7717.00,2.03
7716.00,2.04
7715.00,2.05
7714.00,2.06
7713.00,2.07
7712.00,2.08
7711.00,2.09
7710.00,2.09
7709.00,2.10
7708.00,2.11
7707.00,2.11
7706.00,2.11
7705.00,2.12
7704.00,2.12
7703.00,2.12
7702.00,2.12
7701.00,2.12
7700.00,2.12
7699.00,2.12
7698.00,2.12
7697.00,2.12
7696.00,2.11
7695.00,2.11
7694.00,2.10
7693.00,2.10
7692.00,2.10
7691.00,2.09
7690.00,2.09
7689.00,2.09
7688.00,2.09
7687.00,2.09
7686.00,2.08
7685.00,2.08
7684.00,2.08
7683.00,2.08
7682.00,2.08
7681.00,2.08
7680.00,2.08
7679.00,2.08
7678.00,2.07
7677.00,2.07
7676.00,2.07
7675.00,2.06
7674.00,2.06
7673.00,2.06
7672.00,2.05
7671.00,2.05
7670.00,2.04
7669.00,2.04
7668.00,2.04
7667.00,2.04
7666.00,2.03
7665.00,2.03
7664.00,2.03
7663.00,2.02
7662.00,2.02
7661.00,2.02
7660.00,2.01
7659.00,2.01
7658.00,2.01
7657.00,2.00
7656.00,2.00
7655.00,2.00
7654.00,2.00
7653.00,2.00
7652.00,1.99
7651.00,1.99
7650.00,2.00
7649.00,2.00
7648.00,2.00
7647.00,2.00
7646.00,2.01
7645.00,2.01
7644.00,2.01
7643.00,2.02
7642.00,2.02
7641.00,2.03
7640.00,2.03
7639.00,2.04
7638.00,2.04
7637.00,2.04
7636.00,2.04
7635.00,2.04
7634.00,2.05
7633.00,2.05
7632.00,2.05
7631.00,2.05
7630.00,2.05
7629.00,2.05
7628.00,2.06
7627.00,2.06
7626.00,2.06
7625.00,2.06
7624.00,2.06
7623.00,2.06
7622.00,2.06
7621.00,2.06
7620.00,2.06
7619.00,2.05
7618.00,2.05
7617.00,2.04
7616.00,2.04
7615.00,2.04
7614.00,2.04
7613.00,2.03
7612.00,2.03
7611.00,2.03
7610.00,2.03
7609.00,2.04
7608.00,2.04
7607.00,2.04
7606.00,2.04
7605.00,2.05
7604.00,2.05
7603.00,2.05
7602.00,2.06
7601.00,2.06
7600.00,2.06
7599.00,2.07
7598.00,2.07
7597.00,2.08
7596.00,2.08
7595.00,2.09
7594.00,2.09
7593.00,2.10
7592.00,2.11
7591.00,2.11
7590.00,2.12
7589.00,2.12
7588.00,2.13
7587.00,2.13
7586.00,2.13
7585.00,2.13
7584.00,2.13
7583.00,2.14
7582.00,2.14
7581.00,2.14
7580.00,2.13
7579.00,2.13
7578.00,2.13
7577.00,2.13
7576.00,2.13
7575.00,2.13
7574.00,2.13
7573.00,2.13
7572.00,2.12
7571.00,2.12
7570.00,2.12
7569.00,2.11
7568.00,2.11
7567.00,2.11
7566.00,2.10
7565.00,2.10
7564.00,2.10
7563.00,2.10
7562.00,2.09
7561.00,2.09
7560.00,2.09
7559.00,2.09
7558.00,2.09
7557.00,2.09
7556.00,2.09
7555.00,2.09
7554.00,2.09
7553.00,2.09
7552.00,2.09
7551.00,2.08
7550.00,2.08
7549.00,2.08
7548.00,2.07
7547.00,2.07
7546.00,2.07
7545.00,2.06
7544.00,2.06
7543.00,2.06
7542.00,2.05
7541.00,2.05
7540.00,2.04
7539.00,2.04
7538.00,2.03
7537.00,2.02
7536.00,2.02
7535.00,2.01
7534.00,2.01
7533.00,2.00
7532.00,2.00
7531.00,1.99
7530.00,1.98
7529.00,1.98
7528.00,1.97
7527.00,1.97
7526.00,1.97
7525.00,1.96
7524.00,1.96
7523.00,1.96
7522.00,1.95
7521.00,1.95
7520.00,1.95
7519.00,1.95
7518.00,1.94
7517.00,1.94
7516.00,1.94
7515.00,1.94
7514.00,1.94
7513.00,1.94
7512.00,1.94
7511.00,1.94
7510.00,1.95
7509.00,1.95
7508.00,1.95
7507.00,1.96
7506.00,1.96
7505.00,1.96
7504.00,1.97
7503.00,1.97
7502.00,1.98
7501.00,1.99
7500.00,2.00
7499.00,2.00
7498.00,2.01
7497.00,2.02
7496.00,2.03
7495.00,2.04
7494.00,2.05
7493.00,2.05
7492.00,2.06
7491.00,2.07
7490.00,2.07
7489.00,2.07
7488.00,2.08
7487.00,2.08
7486.00,2.08
7485.00,2.08
7484.00,2.08
7483.00,2.08
7482.00,2.08
7481.00,2.08
7480.00,2.07
7479.00,2.07
7478.00,2.07
7477.00,2.06
7476.00,2.06
7475.00,2.05
7474.00,2.04
7473.00,2.03
7472.00,2.02
7471.00,2.01
7470.00,2.00
7469.00,1.99
7468.00,1.98
7467.00,1.97
7466.00,1.96
7465.00,1.96
7464.00,1.95
7463.00,1.95
7462.00,1.95
7461.00,1.95
7460.00,1.96
7459.00,1.96
7458.00,1.97
7457.00,1.97
7456.00,1.98
7455.00,1.99
7454.00,2.00
7453.00,2.00
7452.00,2.01
7451.00,2.02
7450.00,2.03
7449.00,2.04
7448.00,2.05
7447.00,2.07
7446.00,2.08
7445.00,2.09
7444.00,2.10
7443.00,2.11
7442.00,2.12
7441.00,2.13
7440.00,2.14
7439.00,2.15
7438.00,2.16
7437.00,2.16
7436.00,2.16
7435.00,2.16
7434.00,2.16
7433.00,2.16
7432.00,2.16
7431.00,2.16
7430.00,2.15
7429.00,2.15
7428.00,2.14
7427.00,2.14
7426.00,2.13
7425.00,2.12
7424.00,2.12
7423.00,2.11
7422.00,2.11
7421.00,2.10
7420.00,2.09
7419.00,2.08
7418.00,2.08
7417.00,2.07
7416.00,2.06
7415.00,2.05
7414.00,2.05
7413.00,2.04
7412.00,2.04
7411.00,2.03
7410.00,2.03
7409.00,2.03
7408.00,2.03
7407.00,2.03
7406.00,2.02
7405.00,2.02
7404.00,2.02
7403.00,2.01
7402.00,2.01
7401.00,2.01
7400.00,2.00
7399.00,1.99
7398.00,1.99
7397.00,1.98
7396.00,1.98
7395.00,1.97
7394.00,1.97
7393.00,1.97
7392.00,1.96
7391.00,1.96
7390.00,1.96
7389.00,1.96
7388.00,1.96
7387.00,1.95
7386.00,1.95
7385.00,1.94
7384.00,1.94
7383.00,1.93
7382.00,1.92
7381.00,1.91
7380.00,1.91
7379.00,1.90
7378.00,1.90
7377.00,1.89
7376.00,1.89
7375.00,1.88
7374.00,1.88
7373.00,1.88
7372.00,1.88
7371.00,1.87
7370.00,1.87
7369.00,1.87
7368.00,1.87
7367.00,1.87
7366.00,1.86
7365.00,1.86
7364.00,1.85
7363.00,1.85
7362.00,1.85
7361.00,1.84
7360.00,1.84
7359.00,1.84
7358.00,1.84
7357.00,1.84
7356.00,1.85
7355.00,1.85
7354.00,1.85
7353.00,1.85
7352.00,1.85
7351.00,1.85
7350.00,1.85
7349.00,1.85
7348.00,1.85
7347.00,1.85
7346.00,1.85
7345.00,1.85
7344.00,1.85
7343.00,1.85
7342.00,1.86
7341.00,1.86
7340.00,1.86
7339.00,1.86
7338.00,1.87
7337.00,1.87
7336.00,1.88
7335.00,1.88
7334.00,1.89
7333.00,1.89
7332.00,1.90
7331.00,1.91
7330.00,1.91
7329.00,1.92
7328.00,1.93
7327.00,1.94
7326.00,1.95
7325.00,1.96
7324.00,1.98
7323.00,1.99
7322.00,2.01
7321.00,2.03
7320.00,2.04
7319.00,2.06
7318.00,2.08
7317.00,2.09
7316.00,2.11
7315.00,2.13
7314.00,2.14
7313.00,2.16
7312.00,2.17
7311.00,2.18
7310.00,2.19
7309.00,2.20
7308.00,2.21
7307.00,2.22
7306.00,2.23
7305.00,2.23
7304.00,2.24
7303.00,2.24
7302.00,2.25
7301.00,2.25
7300.00,2.25
7299.00,2.25
7298.00,2.25
7297.00,2.24
7296.00,2.24
7295.00,2.23
7294.00,2.22
7293.00,2.21
7292.00,2.20
7291.00,2.19
7290.00,2.18
7289.00,2.17
7288.00,2.16
7287.00,2.15
7286.00,2.14
7285.00,2.13
7284.00,2.12
7283.00,2.11
7282.00,2.10
7281.00,2.09
7280.00,2.08
7279.00,2.07
7278.00,2.06
7277.00,2.05
7276.00,2.05
7275.00,2.04
7274.00,2.03
7273.00,2.02
7272.00,2.01
7271.00,2.01
7270.00,2.00
7269.00,1.99
7268.00,1.99
7267.00,1.99
7266.00,1.98
7265.00,1.98
7264.00,1.97
7263.00,1.97
7262.00,1.96
7261.00,1.96
7260.00,1.95
7259.00,1.95
7258.00,1.95
7257.00,1.95
7256.00,1.95
7255.00,1.95
7254.00,1.95
7253.00,1.95
7252.00,1.95
7251.00,1.95
7250.00,1.94
7249.00,1.94
7248.00,1.94
7247.00,1.94
7246.00,1.94
7245.00,1.94
7244.00,1.95
7243.00,1.95
7242.00,1.95
7241.00,1.95
7240.00,1.96
7239.00,1.96
7238.00,1.96
7237.00,1.97
7236.00,1.97
7235.00,1.97
7234.00,1.98
7233.00,1.98
7232.00,1.98
7231.00,1.99
7230.00,1.99
7229.00,1.99
7228.00,1.99
7227.00,1.99
7226.00,2.00
7225.00,2.00
7224.00,2.00
7223.00,2.01
7222.00,2.01
7221.00,2.02
7220.00,2.02
7219.00,2.03
7218.00,2.03
7217.00,2.04
7216.00,2.05
7215.00,2.05
7214.00,2.06
7213.00,2.07
7212.00,2.07
7211.00,2.07
7210.00,2.08
7209.00,2.08
7208.00,2.08
7207.00,2.09
7206.00,2.09
7205.00,2.09
7204.00,2.10
7203.00,2.10
7202.00,2.11
7201.00,2.11
7200.00,2.12
7199.00,2.13
7198.00,2.13
7197.00,2.14
7196.00,2.14
7195.00,2.15
7194.00,2.15
7193.00,2.15
7192.00,2.15
7191.00,2.15
7190.00,2.15
7189.00,2.15
7188.00,2.14
7187.00,2.14
7186.00,2.13
7185.00,2.13
7184.00,2.12
7183.00,2.12
7182.00,2.11
7181.00,2.10
7180.00,2.09
7179.00,2.08
7178.00,2.08
7177.00,2.07
7176.00,2.06
7175.00,2.05
7174.00,2.04
7173.00,2.03
7172.00,2.02
7171.00,2.01
7170.00,2.00
7169.00,1.99
7168.00,1.97
7167.00,1.96
7166.00,1.95
7165.00,1.94
7164.00,1.93
7163.00,1.91
7162.00,1.91
7161.00,1.90
7160.00,1.89
7159.00,1.88
7158.00,1.88
7157.00,1.87
7156.00,1.87
7155.00,1.86
7154.00,1.86
7153.00,1.86
7152.00,1.86
7151.00,1.86
7150.00,1.85
7149.00,1.85
7148.00,1.84
7147.00,1.84
7146.00,1.83
7145.00,1.83
7144.00,1.83
7143.00,1.82
7142.00,1.82
7141.00,1.82
7140.00,1.82
7139.00,1.82
7138.00,1.81
7137.00,1.81
7136.00,1.81
7135.00,1.81
7134.00,1.81
7133.00,1.81
7132.00,1.81
7131.00,1.81
7130.00,1.80
7129.00,1.80
7128.00,1.80
7127.00,1.80
7126.00,1.79
7125.00,1.79
7124.00,1.79
7123.00,1.79
7122.00,1.78
7121.00,1.78
7120.00,1.78
7119.00,1.78
7118.00,1.78
7117.00,1.77
7116.00,1.77
7115.00,1.77
7114.00,1.77
7113.00,1.76
7112.00,1.76
7111.00,1.76
7110.00,1.75
7109.00,1.75
7108.00,1.75
7107.00,1.74
7106.00,1.74
7105.00,1.74
7104.00,1.74
7103.00,1.73
7102.00,1.73
7101.00,1.73
7100.00,1.72
7099.00,1.72
7098.00,1.71
7097.00,1.70
7096.00,1.70
7095.00,1.69
7094.00,1.69
7093.00,1.68
7092.00,1.68
7091.00,1.67
7090.00,1.67
7089.00,1.66
7088.00,1.66
7087.00,1.66
7086.00,1.65
7085.00,1.65
7084.00,1.64
7083.00,1.64
7082.00,1.64
7081.00,1.64
7080.00,1.64
7079.00,1.64
7078.00,1.64
7077.00,1.64
7076.00,1.64
7075.00,1.64
7074.00,1.65
7073.00,1.65
7072.00,1.66
7071.00,1.66
7070.00,1.67
7069.00,1.67
7068.00,1.68
7067.00,1.68
7066.00,1.69
7065.00,1.69
7064.00,1.70
7063.00,1.71
7062.00,1.71
7061.00,1.72
7060.00,1.72
7059.00,1.73
7058.00,1.73
7057.00,1.73
7056.00,1.74
7055.00,1.74
7054.00,1.74
7053.00,1.74
7052.00,1.74
7051.00,1.74
7050.00,1.74
7049.00,1.73
7048.00,1.73
7047.00,1.73
7046.00,1.72
7045.00,1.71
7044.00,1.71
7043.00,1.70
7042.00,1.70
7041.00,1.69
7040.00,1.68
7039.00,1.68
7038.00,1.67
7037.00,1.66
7036.00,1.65
7035.00,1.64
7034.00,1.63
7033.00,1.63
7032.00,1.62
7031.00,1.61
7030.00,1.60
7029.00,1.59
7028.00,1.58
7027.00,1.58
7026.00,1.57
7025.00,1.56
7024.00,1.55
7023.00,1.54
7022.00,1.53
7021.00,1.52
7020.00,1.51
7019.00,1.50
7018.00,1.50
7017.00,1.49
7016.00,1.49
7015.00,1.48
7014.00,1.48
7013.00,1.47
7012.00,1.47
7011.00,1.47
7010.00,1.46
7009.00,1.46
7008.00,1.45
7007.00,1.45
7006.00,1.44
7005.00,1.43
7004.00,1.43
7003.00,1.43
7002.00,1.42
7001.00,1.42
7000.00,1.42
6999.00,1.42
6998.00,1.42
6997.00,1.42
6996.00,1.42
6995.00,1.42
6994.00,1.43
6993.00,1.43
6992.00,1.43
6991.00,1.44
6990.00,1.44
6989.00,1.44
6988.00,1.45
6987.00,1.45
6986.00,1.46
6985.00,1.47
6984.00,1.47
6983.00,1.48
6982.00,1.49
6981.00,1.49
6980.00,1.50
6979.00,1.51
6978.00,1.52
6977.00,1.53
6976.00,1.54
6975.00,1.54
6974.00,1.55
6973.00,1.56
6972.00,1.56
6971.00,1.57
6970.00,1.57
6969.00,1.58
6968.00,1.58
6967.00,1.58
6966.00,1.59
6965.00,1.59
6964.00,1.59
6963.00,1.59
6962.00,1.59
6961.00,1.59
6960.00,1.59
6959.00,1.59
6958.00,1.59
6957.00,1.59
6956.00,1.59
6955.00,1.60
6954.00,1.60
6953.00,1.60
6952.00,1.60
6951.00,1.60
6950.00,1.60
6949.00,1.60
6948.00,1.60
6947.00,1.60
6946.00,1.60
6945.00,1.60
6944.00,1.59
6943.00,1.59
6942.00,1.59
6941.00,1.58
6940.00,1.58
6939.00,1.58
6938.00,1.57
6937.00,1.57
6936.00,1.56
6935.00,1.55
6934.00,1.55
6933.00,1.54
6932.00,1.54
6931.00,1.53
6930.00,1.52
6929.00,1.51
6928.00,1.50
6927.00,1.49
6926.00,1.49
6925.00,1.48
6924.00,1.47
6923.00,1.46
6922.00,1.45
6921.00,1.44
6920.00,1.44
6919.00,1.44
6918.00,1.43
6917.00,1.43
6916.00,1.43
6915.00,1.43
6914.00,1.44
6913.00,1.44
6912.00,1.45
6911.00,1.45
6910.00,1.46
6909.00,1.47
6908.00,1.48
6907.00,1.48
6906.00,1.49
6905.00,1.50
6904.00,1.51
6903.00,1.52
6902.00,1.52
6901.00,1.53
6900.00,1.54
6899.00,1.55
6898.00,1.56
6897.00,1.57
6896.00,1.57
6895.00,1.58
6894.00,1.58
6893.00,1.58
6892.00,1.58
6891.00,1.58
6890.00,1.58
6889.00,1.58
6888.00,1.58
6887.00,1.57
6886.00,1.57
6885.00,1.57
6884.00,1.56
6883.00,1.55
6882.00,1.55
6881.00,1.54
6880.00,1.53
6879.00,1.53
6878.00,1.52
6877.00,1.52
6876.00,1.52
6875.00,1.52
6874.00,1.51
6873.00,1.52
6872.00,1.52
6871.00,1.52
6870.00,1.52
6869.00,1.53
6868.00,1.53
6867.00,1.54
6866.00,1.55
6865.00,1.55
6864.00,1.56
6863.00,1.57
6862.00,1.58
6861.00,1.58
6860.00,1.59
6859.00,1.60
6858.00,1.61
6857.00,1.62
6856.00,1.62
6855.00,1.63
6854.00,1.64
6853.00,1.65
6852.00,1.66
6851.00,1.67
6850.00,1.67
6849.00,1.68
6848.00,1.68
6847.00,1.69
6846.00,1.69
6845.00,1.69
6844.00,1.70
6843.00,1.70
6842.00,1.70
6841.00,1.70
6840.00,1.70
6839.00,1.70
6838.00,1.71
6837.00,1.71
6836.00,1.71
6835.00,1.71
6834.00,1.71
6833.00,1.71
6832.00,1.71
6831.00,1.71
6830.00,1.71
6829.00,1.71
6828.00,1.71
6827.00,1.70
6826.00,1.70
6825.00,1.70
6824.00,1.70
6823.00,1.69
6822.00,1.69
6821.00,1.69
6820.00,1.68
6819.00,1.68
6818.00,1.67
6817.00,1.67
6816.00,1.67
6815.00,1.66
6814.00,1.66
6813.00,1.66
6812.00,1.66
6811.00,1.66
6810.00,1.66
6809.00,1.66
6808.00,1.66
6807.00,1.66
6806.00,1.67
6805.00,1.67
6804.00,1.67
6803.00,1.67
6802.00,1.67
6801.00,1.67
6800.00,1.67
6799.00,1.68
6798.00,1.68
6797.00,1.68
6796.00,1.68
6795.00,1.69
6794.00,1.69
6793.00,1.69
6792.00,1.70
6791.00,1.70
6790.00,1.70
6789.00,1.70
6788.00,1.70
6787.00,1.70
6786.00,1.70
6785.00,1.70
6784.00,1.69
6783.00,1.69
6782.00,1.68
6781.00,1.67
6780.00,1.67
6779.00,1.66
6778.00,1.65
6777.00,1.65
6776.00,1.65
6775.00,1.64
6774.00,1.64
6773.00,1.64
6772.00,1.64
6771.00,1.64
6770.00,1.64
6769.00,1.64
6768.00,1.65
6767.00,1.65
6766.00,1.65
6765.00,1.65
6764.00,1.66
6763.00,1.66
6762.00,1.67
6761.00,1.68
6760.00,1.68
6759.00,1.69
6758.00,1.70
6757.00,1.71
6756.00,1.72
6755.00,1.73
6754.00,1.74
6753.00,1.75
6752.00,1.76
6751.00,1.77
6750.00,1.78
6749.00,1.79
6748.00,1.80
6747.00,1.80
6746.00,1.81
6745.00,1.81
6744.00,1.82
6743.00,1.82
6742.00,1.82
6741.00,1.83
6740.00,1.83
6739.00,1.83
6738.00,1.83
6737.00,1.83
6736.00,1.83
6735.00,1.82
6734.00,1.82
6733.00,1.82
6732.00,1.81
6731.00,1.81
6730.00,1.81
6729.00,1.80
6728.00,1.80
6727.00,1.79
6726.00,1.79
6725.00,1.78
6724.00,1.78
6723.00,1.78
6722.00,1.77
6721.00,1.77
6720.00,1.77
6719.00,1.76
6718.00,1.76
6717.00,1.76
6716.00,1.75
6715.00,1.75
6714.00,1.75
6713.00,1.75
6712.00,1.74
6711.00,1.74
6710.00,1.74
6709.00,1.75
6708.00,1.75
6707.00,1.75
6706.00,1.75
6705.00,1.76
6704.00,1.76
6703.00,1.76
6702.00,1.76
6701.00,1.76
6700.00,1.76
6699.00,1.76
6698.00,1.76
6697.00,1.76
6696.00,1.76
6695.00,1.76
6694.00,1.76
6693.00,1.76
6692.00,1.76
6691.00,1.76
6690.00,1.76
6689.00,1.76
6688.00,1.76
6687.00,1.77
6686.00,1.77
6685.00,1.77
6684.00,1.77
6683.00,1.77
6682.00,1.76
6681.00,1.76
6680.00,1.76
6679.00,1.75
6678.00,1.75
6677.00,1.75
6676.00,1.75
6675.00,1.74
6674.00,1.74
6673.00,1.75
6672.00,1.75
6671.00,1.75
6670.00,1.75
6669.00,1.75
6668.00,1.75
6667.00,1.75
6666.00,1.75
6665.00,1.75
6664.00,1.75
6663.00,1.75
6662.00,1.75
6661.00,1.75
6660.00,1.75
6659.00,1.75
6658.00,1.75
6657.00,1.75
6656.00,1.75
6655.00,1.76
6654.00,1.76
6653.00,1.76
6652.00,1.76
6651.00,1.77
6650.00,1.77
6649.00,1.77
6648.00,1.77
6647.00,1.77
6646.00,1.77
6645.00,1.77
6644.00,1.77
6643.00,1.78
6642.00,1.78
6641.00,1.78
6640.00,1.78
6639.00,1.79
6638.00,1.79
6637.00,1.80
6636.00,1.80
6635.00,1.80
6634.00,1.81
6633.00,1.81
6632.00,1.82
6631.00,1.82
6630.00,1.82
6629.00,1.83
6628.00,1.83
6627.00,1.83
6626.00,1.84
6625.00,1.84
6624.00,1.85
6623.00,1.85
6622.00,1.86
6621.00,1.87
6620.00,1.88
6619.00,1.88
6618.00,1.89
6617.00,1.89
6616.00,1.90
6615.00,1.90
6614.00,1.91
6613.00,1.91
6612.00,1.91
6611.00,1.91
6610.00,1.91
6609.00,1.91
6608.00,1.90
6607.00,1.90
6606.00,1.90
6605.00,1.90
6604.00,1.89
6603.00,1.89
6602.00,1.89
6601.00,1.89
6600.00,1.89
6599.00,1.88
6598.00,1.88
6597.00,1.88
6596.00,1.88
6595.00,1.88
6594.00,1.88
6593.00,1.88
6592.00,1.87
6591.00,1.87
6590.00,1.87
6589.00,1.87
6588.00,1.87
6587.00,1.88
6586.00,1.88
6585.00,1.88
6584.00,1.89
6583.00,1.90
6582.00,1.90
6581.00,1.91
6580.00,1.92
6579.00,1.93
6578.00,1.95
6577.00,1.96
6576.00,1.97
6575.00,1.97
6574.00,1.98
6573.00,1.99
6572.00,1.99
6571.00,2.00
6570.00,2.00
6569.00,2.01
6568.00,2.01
6567.00,2.01
6566.00,2.02
6565.00,2.02
6564.00,2.02
6563.00,2.02
6562.00,2.03
6561.00,2.03
6560.00,2.03
6559.00,2.03
6558.00,2.03
6557.00,2.03
6556.00,2.03
6555.00,2.03
6554.00,2.03
6553.00,2.02
6552.00,2.02
6551.00,2.02
6550.00,2.02
6549.00,2.02
6548.00,2.02
6547.00,2.02
6546.00,2.02
6545.00,2.02
6544.00,2.02
6543.00,2.02
6542.00,2.02
6541.00,2.02
6540.00,2.02
6539.00,2.03
6538.00,2.03
6537.00,2.03
6536.00,2.03
6535.00,2.03
6534.00,2.03
6533.00,2.03
6532.00,2.03
6531.00,2.03
6530.00,2.03
6529.00,2.03
6528.00,2.02
6527.00,2.02
6526.00,2.02
6525.00,2.02
6524.00,2.01
6523.00,2.01
6522.00,2.01
6521.00,2.01
6520.00,2.01
6519.00,2.01
6518.00,2.01
6517.00,2.01
6516.00,2.01
6515.00,2.01
6514.00,2.01
6513.00,2.02
6512.00,2.02
6511.00,2.02
6510.00,2.02
6509.00,2.02
6508.00,2.03
6507.00,2.03
6506.00,2.03
6505.00,2.04
6504.00,2.04
6503.00,2.04
6502.00,2.05
6501.00,2.05
6500.00,2.06
6499.00,2.06
6498.00,2.07
6497.00,2.07
6496.00,2.07
6495.00,2.08
6494.00,2.08
6493.00,2.08
6492.00,2.08
6491.00,2.08
6490.00,2.08
6489.00,2.08
6488.00,2.07
6487.00,2.07
6486.00,2.07
6485.00,2.07
6484.00,2.06
6483.00,2.06
6482.00,2.06
6481.00,2.05
6480.00,2.05
6479.00,2.05
6478.00,2.05
6477.00,2.04
6476.00,2.04
6475.00,2.04
6474.00,2.04
6473.00,2.03
6472.00,2.03
6471.00,2.03
6470.00,2.03
6469.00,2.03
6468.00,2.02
6467.00,2.02
6466.00,2.02
6465.00,2.02
6464.00,2.02
6463.00,2.02
6462.00,2.02
6461.00,2.02
6460.00,2.02
6459.00,2.02
6458.00,2.02
6457.00,2.02
6456.00,2.02
6455.00,2.02
6454.00,2.02
6453.00,2.02
6452.00,2.02
6451.00,2.02
6450.00,2.02
6449.00,2.01
6448.00,2.01
6447.00,2.01
6446.00,2.01
6445.00,2.01
6444.00,2.01
6443.00,2.01
6442.00,2.01
6441.00,2.01
6440.00,2.01
6439.00,2.01
6438.00,2.02
6437.00,2.02
6436.00,2.02
6435.00,2.02
6434.00,2.02
6433.00,2.02
6432.00,2.03
6431.00,2.03
6430.00,2.03
6429.00,2.04
6428.00,2.04
6427.00,2.04
6426.00,2.05
6425.00,2.05
6424.00,2.06
6423.00,2.06
6422.00,2.07
6421.00,2.07
6420.00,2.08
6419.00,2.08
6418.00,2.09
6417.00,2.09
6416.00,2.10
6415.00,2.10
6414.00,2.11
6413.00,2.11
6412.00,2.11
6411.00,2.12
6410.00,2.12
6409.00,2.12
6408.00,2.13
6407.00,2.13
6406.00,2.14
6405.00,2.14
6404.00,2.14
6403.00,2.15
6402.00,2.15
6401.00,2.15
6400.00,2.15
6399.00,2.15
6398.00,2.15
6397.00,2.16
6396.00,2.16
6395.00,2.16
6394.00,2.16
6393.00,2.16
6392.00,2.16
6391.00,2.16
6390.00,2.16
6389.00,2.16
6388.00,2.17
6387.00,2.17
6386.00,2.17
6385.00,2.17
6384.00,2.17
6383.00,2.17
6382.00,2.17
6381.00,2.17
6380.00,2.18
6379.00,2.18
6378.00,2.18
6377.00,2.18
6376.00,2.18
6375.00,2.18
6374.00,2.17
6373.00,2.17
6372.00,2.17
6371.00,2.17
6370.00,2.17
6369.00,2.17
6368.00,2.16
6367.00,2.16
6366.00,2.16
6365.00,2.16
6364.00,2.15
6363.00,2.15
6362.00,2.15
6361.00,2.14
6360.00,2.14
6359.00,2.14
6358.00,2.13
6357.00,2.13
6356.00,2.13
6355.00,2.13
6354.00,2.12
6353.00,2.12
6352.00,2.12
6351.00,2.12
6350.00,2.12
6349.00,2.13
6348.00,2.13
6347.00,2.13
6346.00,2.13
6345.00,2.14
6344.00,2.14
6343.00,2.14
6342.00,2.15
6341.00,2.15
6340.00,2.15
6339.00,2.16
6338.00,2.16
6337.00,2.17
6336.00,2.18
6335.00,2.18
6334.00,2.19
6333.00,2.19
6332.00,2.20
6331.00,2.20
6330.00,2.21
6329.00,2.21
6328.00,2.22
6327.00,2.22
6326.00,2.23
6325.00,2.23
6324.00,2.23
6323.00,2.24
6322.00,2.24
6321.00,2.24
6320.00,2.25
6319.00,2.25
6318.00,2.25
6317.00,2.26
6316.00,2.26
6315.00,2.26
6314.00,2.27
6313.00,2.27
6312.00,2.27
6311.00,2.27
6310.00,2.27
6309.00,2.28
6308.00,2.28
6307.00,2.28
6306.00,2.28
6305.00,2.27
6304.00,2.27
6303.00,2.27
6302.00,2.27
6301.00,2.27
6300.00,2.26
6299.00,2.26
6298.00,2.26
6297.00,2.25
6296.00,2.25
6295.00,2.25
6294.00,2.24
6293.00,2.24
6292.00,2.23
6291.00,2.23
6290.00,2.22
6289.00,2.22
6288.00,2.21
6287.00,2.21
6286.00,2.20
6285.00,2.20
6284.00,2.20
6283.00,2.20
6282.00,2.20
6281.00,2.20
6280.00,2.19
6279.00,2.19
6278.00,2.19
6277.00,2.19
6276.00,2.20
6275.00,2.20
6274.00,2.20
6273.00,2.20
6272.00,2.20
6271.00,2.20
6270.00,2.21
6269.00,2.21
6268.00,2.21
6267.00,2.21
6266.00,2.21
6265.00,2.21
6264.00,2.22
6263.00,2.22
6262.00,2.22
6261.00,2.22
6260.00,2.22
6259.00,2.22
6258.00,2.22
6257.00,2.22
6256.00,2.21
6255.00,2.21
6254.00,2.21
6253.00,2.21
6252.00,2.21
6251.00,2.21
6250.00,2.21
6249.00,2.21
6248.00,2.21
6247.00,2.21
6246.00,2.21
6245.00,2.21
6244.00,2.21
6243.00,2.22
6242.00,2.22
6241.00,2.22
6240.00,2.23
6239.00,2.23
6238.00,2.23
6237.00,2.24
6236.00,2.25
6235.00,2.25
6234.00,2.26
6233.00,2.27
6232.00,2.28
6231.00,2.29
6230.00,2.29
6229.00,2.30
6228.00,2.31
6227.00,2.31
6226.00,2.32
6225.00,2.33
6224.00,2.33
6223.00,2.34
6222.00,2.34
6221.00,2.34
6220.00,2.35
6219.00,2.35
6218.00,2.35
6217.00,2.36
6216.00,2.36
6215.00,2.36
6214.00,2.37
6213.00,2.37
6212.00,2.37
6211.00,2.37
6210.00,2.37
6209.00,2.37
6208.00,2.37
6207.00,2.36
6206.00,2.36
6205.00,2.36
6204.00,2.36
6203.00,2.35
6202.00,2.35
6201.00,2.35
6200.00,2.35
6199.00,2.35
6198.00,2.35
6197.00,2.35
6196.00,2.35
6195.00,2.35
6194.00,2.35
6193.00,2.35
6192.00,2.35
6191.00,2.35
6190.00,2.35
6189.00,2.35
6188.00,2.35
6187.00,2.35
6186.00,2.35
6185.00,2.35
6184.00,2.35
6183.00,2.35
6182.00,2.35
6181.00,2.35
6180.00,2.35
6179.00,2.35
6178.00,2.36
6177.00,2.36
6176.00,2.36
6175.00,2.36
6174.00,2.36
6173.00,2.36
6172.00,2.36
6171.00,2.36
6170.00,2.36
6169.00,2.36
6168.00,2.37
6167.00,2.37
6166.00,2.37
6165.00,2.37
6164.00,2.37
6163.00,2.37
6162.00,2.37
6161.00,2.37
6160.00,2.37
6159.00,2.37
6158.00,2.37
6157.00,2.37
6156.00,2.37
6155.00,2.37
6154.00,2.37
6153.00,2.37
6152.00,2.38
6151.00,2.38
6150.00,2.38
6149.00,2.38
6148.00,2.38
6147.00,2.38
6146.00,2.38
6145.00,2.38
6144.00,2.38
6143.00,2.37
6142.00,2.37
6141.00,2.37
6140.00,2.37
6139.00,2.36
6138.00,2.36
6137.00,2.36
6136.00,2.35
6135.00,2.35
6134.00,2.35
6133.00,2.35
6132.00,2.35
6131.00,2.35
6130.00,2.35
6129.00,2.35
6128.00,2.35
6127.00,2.35
6126.00,2.34
6125.00,2.34
6124.00,2.34
6123.00,2.34
6122.00,2.34
6121.00,2.34
6120.00,2.34
6119.00,2.34
6118.00,2.34
6117.00,2.34
6116.00,2.34
6115.00,2.34
6114.00,2.34
6113.00,2.34
6112.00,2.35
6111.00,2.35
6110.00,2.35
6109.00,2.35
6108.00,2.35
6107.00,2.35
6106.00,2.35
6105.00,2.35
6104.00,2.35
6103.00,2.35
6102.00,2.35
6101.00,2.35
6100.00,2.35
6099.00,2.35
6098.00,2.35
6097.00,2.35
6096.00,2.35
6095.00,2.36
6094.00,2.36
6093.00,2.36
6092.00,2.36
6091.00,2.36
6090.00,2.36
6089.00,2.36
6088.00,2.37
6087.00,2.37
6086.00,2.37
6085.00,2.37
6084.00,2.38
6083.00,2.38
6082.00,2.38
6081.00,2.38
6080.00,2.38
6079.00,2.39
6078.00,2.39
6077.00,2.39
6076.00,2.39
6075.00,2.40
6074.00,2.40
6073.00,2.40
6072.00,2.40
6071.00,2.41
6070.00,2.41
6069.00,2.41
6068.00,2.42
6067.00,2.42
6066.00,2.42
6065.00,2.43
6064.00,2.43
6063.00,2.43
6062.00,2.44
6061.00,2.44
6060.00,2.44
6059.00,2.45
6058.00,2.45
6057.00,2.46
6056.00,2.46
6055.00,2.46
6054.00,2.47
6053.00,2.47
6052.00,2.48
6051.00,2.48
6050.00,2.49
6049.00,2.50
6048.00,2.50
6047.00,2.51
6046.00,2.51
6045.00,2.52
6044.00,2.53
6043.00,2.53
6042.00,2.54
6041.00,2.54
6040.00,2.54
6039.00,2.55
6038.00,2.55
6037.00,2.56
6036.00,2.56
6035.00,2.56
6034.00,2.57
6033.00,2.57
6032.00,2.58
6031.00,2.58
6030.00,2.58
6029.00,2.58
6028.00,2.59
6027.00,2.59
6026.00,2.59
6025.00,2.59
6024.00,2.59
6023.00,2.59
6022.00,2.59
6021.00,2.59
6020.00,2.59
6019.00,2.58
6018.00,2.58
6017.00,2.58
6016.00,2.58
6015.00,2.58
6014.00,2.58
6013.00,2.58
6012.00,2.58
6011.00,2.58
6010.00,2.58
6009.00,2.58
6008.00,2.58
6007.00,2.58
6006.00,2.58
6005.00,2.58
6004.00,2.58
6003.00,2.58
6002.00,2.58
6001.00,2.58
6000.00,2.58
5999.00,2.58
5998.00,2.58
5997.00,2.58
5996.00,2.58
5995.00,2.59
5994.00,2.59
5993.00,2.59
5992.00,2.59
5991.00,2.59
5990.00,2.59
5989.00,2.59
5988.00,2.58
5987.00,2.58
5986.00,2.58
5985.00,2.58
5984.00,2.57
5983.00,2.57
5982.00,2.57
5981.00,2.57
5980.00,2.57
5979.00,2.57
5978.00,2.56
5977.00,2.56
5976.00,2.56
5975.00,2.56
5974.00,2.55
5973.00,2.55
5972.00,2.54
5971.00,2.54
5970.00,2.54
5969.00,2.53
5968.00,2.53
5967.00,2.53
5966.00,2.52
5965.00,2.52
5964.00,2.52
5963.00,2.52
5962.00,2.51
5961.00,2.51
5960.00,2.51
5959.00,2.51
5958.00,2.51
5957.00,2.51
5956.00,2.51
5955.00,2.50
5954.00,2.50
5953.00,2.50
5952.00,2.49
5951.00,2.49
5950.00,2.49
5949.00,2.49
5948.00,2.49
5947.00,2.49
5946.00,2.49
5945.00,2.49
5944.00,2.48
5943.00,2.48
5942.00,2.49
5941.00,2.49
5940.00,2.49
5939.00,2.49
5938.00,2.49
5937.00,2.49
5936.00,2.49
5935.00,2.49
5934.00,2.49
5933.00,2.50
5932.00,2.50
5931.00,2.50
5930.00,2.50
5929.00,2.50
5928.00,2.51
5927.00,2.51
5926.00,2.51
5925.00,2.52
5924.00,2.52
5923.00,2.52
5922.00,2.52
5921.00,2.53
5920.00,2.53
5919.00,2.53
5918.00,2.53
5917.00,2.54
5916.00,2.54
5915.00,2.54
5914.00,2.54
5913.00,2.54
5912.00,2.54
5911.00,2.54
5910.00,2.54
5909.00,2.54
5908.00,2.54
5907.00,2.54
5906.00,2.54
5905.00,2.54
5904.00,2.54
5903.00,2.54
5902.00,2.53
5901.00,2.53
5900.00,2.53
5899.00,2.53
5898.00,2.53
5897.00,2.52
5896.00,2.52
5895.00,2.52
5894.00,2.52
5893.00,2.51
5892.00,2.51
5891.00,2.51
5890.00,2.50
5889.00,2.50
5888.00,2.50
5887.00,2.49
5886.00,2.49
5885.00,2.49
5884.00,2.49
5883.00,2.49
5882.00,2.49
5881.00,2.48
5880.00,2.48
5879.00,2.48
5878.00,2.48
5877.00,2.48
5876.00,2.48
5875.00,2.49
5874.00,2.49
5873.00,2.49
5872.00,2.49
5871.00,2.49
5870.00,2.50
5869.00,2.50
5868.00,2.51
5867.00,2.51
5866.00,2.51
5865.00,2.52
5864.00,2.52
5863.00,2.53
5862.00,2.53
5861.00,2.54
5860.00,2.54
5859.00,2.55
5858.00,2.55
5857.00,2.56
5856.00,2.56
5855.00,2.56
5854.00,2.57
5853.00,2.57
5852.00,2.58
5851.00,2.58
5850.00,2.58
5849.00,2.58
5848.00,2.59
5847.00,2.59
5846.00,2.59
5845.00,2.59
5844.00,2.59
5843.00,2.58
5842.00,2.58
5841.00,2.58
5840.00,2.58
5839.00,2.58
5838.00,2.58
5837.00,2.57
5836.00,2.57
5835.00,2.57
5834.00,2.57
5833.00,2.56
5832.00,2.56
5831.00,2.56
5830.00,2.56
5829.00,2.55
5828.00,2.55
5827.00,2.55
5826.00,2.55
5825.00,2.55
5824.00,2.55
5823.00,2.55
5822.00,2.55
5821.00,2.55
5820.00,2.55
5819.00,2.55
5818.00,2.55
5817.00,2.55
5816.00,2.54
5815.00,2.54
5814.00,2.54
5813.00,2.54
5812.00,2.54
5811.00,2.54
5810.00,2.54
5809.00,2.54
5808.00,2.54
5807.00,2.54
5806.00,2.53
5805.00,2.53
5804.00,2.53
5803.00,2.53
5802.00,2.52
5801.00,2.52
5800.00,2.52
5799.00,2.51
5798.00,2.51
5797.00,2.51
5796.00,2.50
5795.00,2.50
5794.00,2.49
5793.00,2.49
5792.00,2.48
5791.00,2.48
5790.00,2.47
5789.00,2.47
5788.00,2.47
5787.00,2.46
5786.00,2.46
5785.00,2.46
5784.00,2.46
5783.00,2.46
5782.00,2.46
5781.00,2.46
5780.00,2.45
5779.00,2.45
5778.00,2.45
5777.00,2.45
5776.00,2.45
5775.00,2.46
5774.00,2.46
5773.00,2.46
5772.00,2.46
5771.00,2.46
5770.00,2.47
5769.00,2.47
5768.00,2.47
5767.00,2.47
5766.00,2.48
5765.00,2.48
5764.00,2.48
5763.00,2.49
5762.00,2.49
5761.00,2.49
5760.00,2.49
5759.00,2.50
5758.00,2.50
5757.00,2.50
5756.00,2.50
5755.00,2.50
5754.00,2.50
5753.00,2.50
5752.00,2.50
5751.00,2.50
5750.00,2.50
5749.00,2.50
5748.00,2.50
5747.00,2.50
5746.00,2.50
5745.00,2.50
5744.00,2.50
5743.00,2.50
5742.00,2.50
5741.00,2.50
5740.00,2.50
5739.00,2.50
5738.00,2.50
5737.00,2.50
5736.00,2.50
5735.00,2.50
5734.00,2.50
5733.00,2.50
5732.00,2.50
5731.00,2.51
5730.00,2.51
5729.00,2.51
5728.00,2.51
5727.00,2.52
5726.00,2.52
5725.00,2.52
5724.00,2.53
5723.00,2.53
5722.00,2.53
5721.00,2.54
5720.00,2.54
5719.00,2.54
5718.00,2.54
5717.00,2.55
5716.00,2.55
5715.00,2.55
5714.00,2.55
5713.00,2.55
5712.00,2.55
5711.00,2.55
5710.00,2.55
5709.00,2.55
5708.00,2.55
5707.00,2.55
5706.00,2.55
5705.00,2.55
5704.00,2.55
5703.00,2.55
5702.00,2.54
5701.00,2.54
5700.00,2.54
5699.00,2.54
5698.00,2.54
5697.00,2.53
5696.00,2.53
5695.00,2.53
5694.00,2.53
5693.00,2.52
5692.00,2.52
5691.00,2.52
5690.00,2.52
5689.00,2.52
5688.00,2.52
5687.00,2.52
5686.00,2.52
5685.00,2.52
5684.00,2.52
5683.00,2.52
5682.00,2.53
5681.00,2.53
5680.00,2.53
5679.00,2.53
5678.00,2.54
5677.00,2.54
5676.00,2.54
5675.00,2.54
5674.00,2.55
5673.00,2.55
5672.00,2.55
5671.00,2.55
5670.00,2.56
5669.00,2.56
5668.00,2.57
5667.00,2.57
5666.00,2.58
5665.00,2.58
5664.00,2.59
5663.00,2.59
5662.00,2.60
5661.00,2.60
5660.00,2.60
5659.00,2.60
5658.00,2.61
5657.00,2.61
5656.00,2.61
5655.00,2.61
5654.00,2.61
5653.00,2.61
5652.00,2.60
5651.00,2.60
5650.00,2.60
5649.00,2.60
5648.00,2.60
5647.00,2.60
5646.00,2.60
5645.00,2.60
5644.00,2.60
5643.00,2.59
5642.00,2.59
5641.00,2.59
5640.00,2.58
5639.00,2.58
5638.00,2.57
5637.00,2.57
5636.00,2.57
5635.00,2.56
5634.00,2.56
5633.00,2.56
5632.00,2.56
5631.00,2.56
5630.00,2.56
5629.00,2.56
5628.00,2.56
5627.00,2.56
5626.00,2.55
5625.00,2.55
5624.00,2.55
5623.00,2.55
5622.00,2.56
5621.00,2.56
5620.00,2.56
5619.00,2.56
5618.00,2.56
5617.00,2.56
5616.00,2.56
5615.00,2.56
5614.00,2.57
5613.00,2.57
5612.00,2.57
5611.00,2.57
5610.00,2.58
5609.00,2.58
5608.00,2.58
5607.00,2.58
5606.00,2.58
5605.00,2.58
5604.00,2.58
5603.00,2.58
5602.00,2.58
5601.00,2.58
5600.00,2.58
5599.00,2.58
5598.00,2.58
5597.00,2.57
5596.00,2.57
5595.00,2.57
5594.00,2.57
5593.00,2.56
5592.00,2.56
5591.00,2.56
5590.00,2.55
5589.00,2.55
5588.00,2.55
5587.00,2.54
5586.00,2.54
5585.00,2.53
5584.00,2.53
5583.00,2.52
5582.00,2.52
5581.00,2.52
5580.00,2.51
5579.00,2.51
5578.00,2.51
5577.00,2.51
5576.00,2.50
5575.00,2.50
5574.00,2.50
5573.00,2.50
5572.00,2.50
5571.00,2.49
5570.00,2.49
5569.00,2.49
5568.00,2.49
5567.00,2.49
5566.00,2.49
5565.00,2.49
5564.00,2.49
5563.00,2.49
5562.00,2.49
5561.00,2.49
5560.00,2.49
5559.00,2.48
5558.00,2.48
5557.00,2.48
5556.00,2.48
5555.00,2.48
5554.00,2.48
5553.00,2.48
5552.00,2.48
5551.00,2.48
5550.00,2.48
5549.00,2.48
5548.00,2.48
5547.00,2.48
5546.00,2.48
5545.00,2.48
5544.00,2.48
5543.00,2.48
5542.00,2.48
5541.00,2.48
5540.00,2.48
5539.00,2.48
5538.00,2.48
5537.00,2.48
5536.00,2.48
5535.00,2.48
5534.00,2.49
5533.00,2.49
5532.00,2.49
5531.00,2.50
5530.00,2.50
5529.00,2.50
5528.00,2.51
5527.00,2.51
5526.00,2.52
5525.00,2.52
5524.00,2.53
5523.00,2.53
5522.00,2.54
5521.00,2.54
5520.00,2.55
5519.00,2.55
5518.00,2.56
5517.00,2.56
5516.00,2.57
5515.00,2.57
5514.00,2.57
5513.00,2.58
5512.00,2.58
5511.00,2.58
5510.00,2.58
5509.00,2.58
5508.00,2.58
5507.00,2.58
5506.00,2.59
5505.00,2.59
5504.00,2.59
5503.00,2.59
5502.00,2.59
5501.00,2.59
5500.00,2.59
5499.00,2.59
5498.00,2.58
5497.00,2.58
5496.00,2.58
5495.00,2.58
5494.00,2.58
5493.00,2.58
5492.00,2.57
5491.00,2.57
5490.00,2.57
5489.00,2.57
5488.00,2.57
5487.00,2.57
5486.00,2.57
5485.00,2.57
5484.00,2.57
5483.00,2.57
5482.00,2.57
5481.00,2.57
5480.00,2.57
5479.00,2.57
5478.00,2.56
5477.00,2.56
5476.00,2.56
5475.00,2.55
5474.00,2.55
5473.00,2.55
5472.00,2.54
5471.00,2.54
5470.00,2.54
5469.00,2.53
5468.00,2.53
5467.00,2.53
5466.00,2.52
5465.00,2.52
5464.00,2.52
5463.00,2.51
5462.00,2.51
5461.00,2.50
5460.00,2.50
5459.00,2.50
5458.00,2.49
5457.00,2.49
5456.00,2.48
5455.00,2.48
5454.00,2.48
5453.00,2.48
5452.00,2.48
5451.00,2.48
5450.00,2.48
5449.00,2.48
5448.00,2.48
5447.00,2.48
5446.00,2.49
5445.00,2.49
5444.00,2.49
5443.00,2.50
5442.00,2.50
5441.00,2.51
5440.00,2.51
5439.00,2.51
5438.00,2.52
5437.00,2.52
5436.00,2.53
5435.00,2.53
5434.00,2.54
5433.00,2.54
5432.00,2.55
5431.00,2.55
5430.00,2.55
5429.00,2.55
5428.00,2.56
5427.00,2.56
5426.00,2.56
5425.00,2.56
5424.00,2.56
5423.00,2.56
5422.00,2.56
5421.00,2.56
5420.00,2.55
5419.00,2.55
5418.00,2.55
5417.00,2.55
5416.00,2.55
5415.00,2.54
5414.00,2.54
5413.00,2.54
5412.00,2.54
5411.00,2.53
5410.00,2.53
5409.00,2.53
5408.00,2.53
5407.00,2.53
5406.00,2.53
5405.00,2.53
5404.00,2.53
5403.00,2.53
5402.00,2.53
5401.00,2.53
5400.00,2.53
5399.00,2.53
5398.00,2.54
5397.00,2.54
5396.00,2.54
5395.00,2.54
5394.00,2.54
5393.00,2.55
5392.00,2.55
5391.00,2.55
5390.00,2.55
5389.00,2.55
5388.00,2.55
5387.00,2.55
5386.00,2.55
5385.00,2.55
5384.00,2.54
5383.00,2.54
5382.00,2.54
5381.00,2.53
5380.00,2.53
5379.00,2.53
5378.00,2.52
5377.00,2.52
5376.00,2.51
5375.00,2.51
5374.00,2.50
5373.00,2.50
5372.00,2.49
5371.00,2.49
5370.00,2.48
5369.00,2.47
5368.00,2.47
5367.00,2.46
5366.00,2.45
5365.00,2.44
5364.00,2.44
5363.00,2.43
5362.00,2.42
5361.00,2.41
5360.00,2.40
5359.00,2.39
5358.00,2.39
5357.00,2.38
5356.00,2.37
5355.00,2.36
5354.00,2.36
5353.00,2.35
5352.00,2.34
5351.00,2.33
5350.00,2.32
5349.00,2.31
5348.00,2.31
5347.00,2.30
5346.00,2.29
5345.00,2.28
5344.00,2.27
5343.00,2.26
5342.00,2.25
5341.00,2.24
5340.00,2.23
5339.00,2.22
5338.00,2.21
5337.00,2.20
5336.00,2.20
5335.00,2.19
5334.00,2.18
5333.00,2.17
5332.00,2.16
5331.00,2.15
5330.00,2.14
5329.00,2.13
5328.00,2.12
5327.00,2.11
5326.00,2.10
5325.00,2.09
5324.00,2.08
5323.00,2.07
5322.00,2.06
5321.00,2.05
5320.00,2.04
5319.00,2.03
5318.00,2.02
5317.00,2.01
5316.00,2.00
5315.00,1.99
5314.00,1.98
5313.00,1.97
5312.00,1.96
5311.00,1.95
5310.00,1.94
5309.00,1.93
5308.00,1.92
5307.00,1.91
5306.00,1.90
5305.00,1.88
5304.00,1.87
5303.00,1.86
5302.00,1.85
5301.00,1.84
5300.00,1.83
5299.00,1.82
5298.00,1.81
5297.00,1.80
5296.00,1.78
5295.00,1.77
5294.00,1.76
5293.00,1.75
5292.00,1.73
5291.00,1.72
5290.00,1.71
5289.00,1.69
5288.00,1.68
5287.00,1.67
5286.00,1.65
5285.00,1.64
5284.00,1.63
5283.00,1.61
5282.00,1.60
5281.00,1.59
5280.00,1.58
5279.00,1.57
5278.00,1.55
5277.00,1.54
5276.00,1.53
5275.00,1.52
5274.00,1.51
5273.00,1.50
5272.00,1.49
5271.00,1.48
5270.00,1.47
5269.00,1.46
5268.00,1.45
5267.00,1.44
5266.00,1.43
5265.00,1.42
5264.00,1.41
5263.00,1.41
5262.00,1.40
5261.00,1.40
5260.00,1.39
5259.00,1.39
5258.00,1.38
5257.00,1.38
5256.00,1.38
5255.00,1.37
5254.00,1.37
5253.00,1.36
5252.00,1.36
5251.00,1.36
5250.00,1.35
5249.00,1.35
5248.00,1.35
5247.00,1.34
5246.00,1.34
5245.00,1.34
5244.00,1.34
5243.00,1.34
5242.00,1.34
5241.00,1.34
5240.00,1.34
5239.00,1.34
5238.00,1.33
5237.00,1.33
5236.00,1.33
5235.00,1.33
5234.00,1.33
5233.00,1.32
5232.00,1.32
5231.00,1.32
5230.00,1.32
5229.00,1.31
5228.00,1.31
5227.00,1.31
5226.00,1.31
5225.00,1.30
5224.00,1.30
5223.00,1.30
5222.00,1.30
5221.00,1.30
5220.00,1.29
5219.00,1.29
5218.00,1.29
5217.00,1.28
5216.00,1.28
5215.00,1.28
5214.00,1.27
5213.00,1.27
5212.00,1.27
5211.00,1.27
5210.00,1.26
5209.00,1.26
5208.00,1.26
5207.00,1.26
5206.00,1.25
5205.00,1.25
5204.00,1.25
5203.00,1.26
5202.00,1.26
5201.00,1.26
5200.00,1.26
5199.00,1.26
5198.00,1.26
5197.00,1.26
5196.00,1.26
5195.00,1.27
5194.00,1.27
5193.00,1.27
5192.00,1.27
5191.00,1.28
5190.00,1.28
5189.00,1.29
5188.00,1.29
5187.00,1.29
5186.00,1.30
5185.00,1.30
5184.00,1.31
5183.00,1.31
5182.00,1.32
5181.00,1.32
5180.00,1.32
5179.00,1.33
5178.00,1.33
5177.00,1.33
5176.00,1.34
5175.00,1.34
5174.00,1.34
5173.00,1.35
5172.00,1.35
5171.00,1.35
5170.00,1.35
5169.00,1.36
5168.00,1.36
5167.00,1.36
5166.00,1.36
5165.00,1.37
5164.00,1.37
5163.00,1.37
5162.00,1.37
5161.00,1.37
5160.00,1.38
5159.00,1.38
5158.00,1.38
5157.00,1.38
5156.00,1.38
5155.00,1.38
5154.00,1.39
5153.00,1.39
5152.00,1.39
5151.00,1.39
5150.00,1.39
5149.00,1.39
5148.00,1.39
5147.00,1.39
5146.00,1.39
5145.00,1.39
5144.00,1.39
5143.00,1.39
5142.00,1.39
5141.00,1.39
5140.00,1.39
5139.00,1.39
5138.00,1.39
5137.00,1.39
5136.00,1.39
5135.00,1.39
5134.00,1.39
5133.00,1.39
5132.00,1.38
5131.00,1.38
5130.00,1.38
5129.00,1.38
5128.00,1.38
5127.00,1.38
5126.00,1.38
5125.00,1.38
5124.00,1.38
5123.00,1.38
5122.00,1.38
5121.00,1.38
5120.00,1.38
5119.00,1.38
5118.00,1.38
5117.00,1.38
5116.00,1.38
5115.00,1.39
5114.00,1.39
5113.00,1.39
5112.00,1.39
5111.00,1.39
5110.00,1.39
5109.00,1.39
5108.00,1.39
5107.00,1.40
5106.00,1.40
5105.00,1.40
5104.00,1.40
5103.00,1.40
5102.00,1.40
5101.00,1.41
5100.00,1.41
5099.00,1.41
5098.00,1.41
5097.00,1.41
5096.00,1.41
5095.00,1.41
5094.00,1.41
5093.00,1.41
5092.00,1.41
5091.00,1.41
5090.00,1.42
5089.00,1.42
5088.00,1.42
5087.00,1.42
5086.00,1.42
5085.00,1.42
5084.00,1.43
5083.00,1.43
5082.00,1.43
5081.00,1.43
5080.00,1.44
5079.00,1.44
5078.00,1.44
5077.00,1.44
5076.00,1.45
5075.00,1.45
5074.00,1.45
5073.00,1.46
5072.00,1.46
5071.00,1.47
5070.00,1.47
5069.00,1.47
5068.00,1.48
5067.00,1.48
5066.00,1.48
5065.00,1.48
5064.00,1.49
5063.00,1.49
5062.00,1.49
5061.00,1.49
5060.00,1.49
5059.00,1.50
5058.00,1.50
5057.00,1.50
5056.00,1.50
5055.00,1.50
5054.00,1.50
5053.00,1.50
5052.00,1.50
5051.00,1.50
5050.00,1.50
5049.00,1.50
5048.00,1.50
5047.00,1.50
5046.00,1.50
5045.00,1.50
5044.00,1.50
5043.00,1.50
5042.00,1.51
5041.00,1.51
5040.00,1.51
5039.00,1.52
5038.00,1.52
5037.00,1.52
5036.00,1.53
5035.00,1.53
5034.00,1.54
5033.00,1.54
5032.00,1.55
5031.00,1.55
5030.00,1.56
5029.00,1.57
5028.00,1.57
5027.00,1.58
5026.00,1.58
5025.00,1.59
5024.00,1.59
5023.00,1.60
5022.00,1.60
5021.00,1.60
5020.00,1.61
5019.00,1.61
5018.00,1.61
5017.00,1.61
5016.00,1.62
5015.00,1.62
5014.00,1.62
5013.00,1.62
5012.00,1.62
5011.00,1.63
5010.00,1.63
5009.00,1.63
5008.00,1.63
5007.00,1.63
5006.00,1.63
5005.00,1.63
5004.00,1.63
5003.00,1.63
5002.00,1.63
5001.00,1.64
5000.00,1.64
4999.00,1.64
4998.00,1.65
4997.00,1.65
4996.00,1.65
4995.00,1.66
4994.00,1.66
4993.00,1.67
4992.00,1.67
4991.00,1.68
4990.00,1.68
4989.00,1.69
4988.00,1.69
4987.00,1.70
4986.00,1.70
4985.00,1.71
4984.00,1.71
4983.00,1.71
4982.00,1.72
4981.00,1.72
4980.00,1.73
4979.00,1.73
4978.00,1.74
4977.00,1.74
4976.00,1.74
4975.00,1.75
4974.00,1.75
4973.00,1.75
4972.00,1.76
4971.00,1.76
4970.00,1.76
4969.00,1.76
4968.00,1.76
4967.00,1.76
4966.00,1.76
4965.00,1.77
4964.00,1.77
4963.00,1.77
4962.00,1.77
4961.00,1.77
4960.00,1.77
4959.00,1.77
4958.00,1.77
4957.00,1.77
4956.00,1.77
4955.00,1.77
4954.00,1.77
4953.00,1.78
4952.00,1.78
4951.00,1.78
4950.00,1.78
4949.00,1.78
4948.00,1.79
4947.00,1.79
4946.00,1.79
4945.00,1.80
4944.00,1.80
4943.00,1.80
4942.00,1.81
4941.00,1.81
4940.00,1.82
4939.00,1.82
4938.00,1.82
4937.00,1.83
4936.00,1.84
4935.00,1.84
4934.00,1.85
4933.00,1.85
4932.00,1.86
4931.00,1.86
4930.00,1.87
4929.00,1.87
4928.00,1.88
4927.00,1.88
4926.00,1.88
4925.00,1.88
4924.00,1.88
4923.00,1.89
4922.00,1.89
4921.00,1.89
4920.00,1.89
4919.00,1.89
4918.00,1.90
4917.00,1.90
4916.00,1.90
4915.00,1.90
4914.00,1.90
4913.00,1.90
4912.00,1.90
4911.00,1.90
4910.00,1.90
4909.00,1.90
4908.00,1.90
4907.00,1.90
4906.00,1.90
4905.00,1.90
4904.00,1.90
4903.00,1.90
4902.00,1.90
4901.00,1.91
4900.00,1.91
4899.00,1.91
4898.00,1.91
4897.00,1.91
4896.00,1.91
4895.00,1.91
4894.00,1.91
4893.00,1.91
4892.00,1.92
4891.00,1.92
4890.00,1.92
4889.00,1.92
4888.00,1.92
4887.00,1.92
4886.00,1.93
4885.00,1.93
4884.00,1.93
4883.00,1.93
4882.00,1.93
4881.00,1.93
4880.00,1.94
4879.00,1.94
4878.00,1.94
4877.00,1.95
4876.00,1.95
4875.00,1.96
4874.00,1.96
4873.00,1.96
4872.00,1.97
4871.00,1.97
4870.00,1.97
4869.00,1.98
4868.00,1.98
4867.00,1.99
4866.00,1.99
4865.00,2.00
4864.00,2.00
4863.00,2.00
4862.00,2.01
4861.00,2.01
4860.00,2.02
4859.00,2.02
4858.00,2.02
4857.00,2.03
4856.00,2.03
4855.00,2.03
4854.00,2.04
4853.00,2.04
4852.00,2.04
4851.00,2.04
4850.00,2.04
4849.00,2.04
4848.00,2.05
4847.00,2.05
4846.00,2.05
4845.00,2.05
4844.00,2.06
4843.00,2.06
4842.00,2.06
4841.00,2.07
4840.00,2.07
4839.00,2.07
4838.00,2.08
4837.00,2.08
4836.00,2.08
4835.00,2.09
4834.00,2.09
4833.00,2.09
4832.00,2.10
4831.00,2.10
4830.00,2.11
4829.00,2.11
4828.00,2.12
4827.00,2.12
4826.00,2.13
4825.00,2.13
4824.00,2.14
4823.00,2.14
4822.00,2.15
4821.00,2.15
4820.00,2.16
4819.00,2.16
4818.00,2.16
4817.00,2.16
4816.00,2.17
4815.00,2.17
4814.00,2.17
4813.00,2.17
4812.00,2.17
4811.00,2.18
4810.00,2.18
4809.00,2.18
4808.00,2.18
4807.00,2.18
4806.00,2.18
4805.00,2.18
4804.00,2.18
4803.00,2.18
4802.00,2.18
4801.00,2.18
4800.00,2.18
4799.00,2.18
4798.00,2.18
4797.00,2.18
4796.00,2.18
4795.00,2.19
4794.00,2.19
4793.00,2.19
4792.00,2.19
4791.00,2.20
4790.00,2.20
4789.00,2.20
4788.00,2.21
4787.00,2.21
4786.00,2.21
4785.00,2.22
4784.00,2.22
4783.00,2.23
4782.00,2.23
4781.00,2.24
4780.00,2.24
4779.00,2.25
4778.00,2.25
4777.00,2.26
4776.00,2.27
4775.00,2.27
4774.00,2.28
4773.00,2.28
4772.00,2.29
4771.00,2.29
4770.00,2.30
4769.00,2.30
4768.00,2.31
4767.00,2.31
4766.00,2.32
4765.00,2.32
4764.00,2.32
4763.00,2.33
4762.00,2.33
4761.00,2.33
4760.00,2.34
4759.00,2.34
4758.00,2.34
4757.00,2.34
4756.00,2.34
4755.00,2.34
4754.00,2.34
4753.00,2.34
4752.00,2.34
4751.00,2.34
4750.00,2.34
4749.00,2.34
4748.00,2.34
4747.00,2.34
4746.00,2.34
4745.00,2.34
4744.00,2.34
4743.00,2.34
4742.00,2.33
4741.00,2.33
4740.00,2.33
4739.00,2.33
4738.00,2.33
4737.00,2.32
4736.00,2.32
4735.00,2.32
4734.00,2.32
4733.00,2.32
4732.00,2.32
4731.00,2.32
4730.00,2.32
4729.00,2.32
4728.00,2.32
4727.00,2.33
4726.00,2.33
4725.00,2.33
4724.00,2.33
4723.00,2.34
4722.00,2.34
4721.00,2.34
4720.00,2.35
4719.00,2.35
4718.00,2.36
4717.00,2.36
4716.00,2.37
4715.00,2.37
4714.00,2.38
4713.00,2.39
4712.00,2.39
4711.00,2.40
4710.00,2.41
4709.00,2.41
4708.00,2.42
4707.00,2.42
4706.00,2.43
4705.00,2.43
4704.00,2.44
4703.00,2.44
4702.00,2.45
4701.00,2.45
4700.00,2.45
4699.00,2.45
4698.00,2.46
4697.00,2.46
4696.00,2.46
4695.00,2.46
4694.00,2.46
4693.00,2.47
4692.00,2.47
4691.00,2.47
4690.00,2.47
4689.00,2.47
4688.00,2.47
4687.00,2.48
4686.00,2.48
4685.00,2.48
4684.00,2.48
4683.00,2.49
4682.00,2.49
4681.00,2.49
4680.00,2.50
4679.00,2.50
4678.00,2.50
4677.00,2.51
4676.00,2.51
4675.00,2.51
4674.00,2.52
4673.00,2.52
4672.00,2.52
4671.00,2.53
4670.00,2.53
4669.00,2.53
4668.00,2.54
4667.00,2.54
4666.00,2.55
4665.00,2.55
4664.00,2.55
4663.00,2.56
4662.00,2.56
4661.00,2.56
4660.00,2.56
4659.00,2.56
4658.00,2.56
4657.00,2.56
4656.00,2.56
4655.00,2.56
4654.00,2.56
4653.00,2.56
4652.00,2.55
4651.00,2.55
4650.00,2.55
4649.00,2.54
4648.00,2.54
4647.00,2.54
4646.00,2.53
4645.00,2.53
4644.00,2.53
4643.00,2.53
4642.00,2.52
4641.00,2.52
4640.00,2.52
4639.00,2.52
4638.00,2.51
4637.00,2.51
4636.00,2.51
4635.00,2.51
4634.00,2.51
4633.00,2.51
4632.00,2.51
4631.00,2.51
4630.00,2.51
4629.00,2.51
4628.00,2.52
4627.00,2.52
4626.00,2.52
4625.00,2.53
4624.00,2.53
4623.00,2.54
4622.00,2.55
4621.00,2.55
4620.00,2.56
4619.00,2.56
4618.00,2.57
4617.00,2.57
4616.00,2.58
4615.00,2.58
4614.00,2.58
4613.00,2.59
4612.00,2.59
4611.00,2.60
4610.00,2.60
4609.00,2.60
4608.00,2.61
4607.00,2.61
4606.00,2.61
4605.00,2.61
4604.00,2.61
4603.00,2.61
4602.00,2.61
4601.00,2.61
4600.00,2.60
4599.00,2.60
4598.00,2.59
4597.00,2.59
4596.00,2.58
4595.00,2.58
4594.00,2.57
4593.00,2.57
4592.00,2.56
4591.00,2.56
4590.00,2.55
4589.00,2.54
4588.00,2.54
4587.00,2.53
4586.00,2.52
4585.00,2.52
4584.00,2.51
4583.00,2.50
4582.00,2.50
4581.00,2.49
4580.00,2.49
4579.00,2.48
4578.00,2.48
4577.00,2.48
4576.00,2.48
4575.00,2.47
4574.00,2.47
4573.00,2.47
4572.00,2.47
4571.00,2.47
4570.00,2.47
4569.00,2.48
4568.00,2.48
4567.00,2.48
4566.00,2.48
4565.00,2.48
4564.00,2.48
4563.00,2.48
4562.00,2.49
4561.00,2.49
4560.00,2.49
4559.00,2.50
4558.00,2.50
4557.00,2.50
4556.00,2.51
4555.00,2.51
4554.00,2.51
4553.00,2.52
4552.00,2.52
4551.00,2.52
4550.00,2.52
4549.00,2.52
4548.00,2.52
4547.00,2.52
4546.00,2.52
4545.00,2.52
4544.00,2.52
4543.00,2.52
4542.00,2.52
4541.00,2.52
4540.00,2.52
4539.00,2.52
4538.00,2.52
4537.00,2.52
4536.00,2.52
4535.00,2.52
4534.00,2.52
4533.00,2.52
4532.00,2.52
4531.00,2.52
4530.00,2.52
4529.00,2.52
4528.00,2.52
4527.00,2.52
4526.00,2.52
4525.00,2.52
4524.00,2.53
4523.00,2.53
4522.00,2.53
4521.00,2.53
4520.00,2.53
4519.00,2.54
4518.00,2.54
4517.00,2.54
4516.00,2.54
4515.00,2.54
4514.00,2.55
4513.00,2.55
4512.00,2.55
4511.00,2.56
4510.00,2.56
4509.00,2.56
4508.00,2.56
4507.00,2.57
4506.00,2.57
4505.00,2.57
4504.00,2.57
4503.00,2.58
4502.00,2.58
4501.00,2.58
4500.00,2.58
4499.00,2.58
4498.00,2.58
4497.00,2.58
4496.00,2.58
4495.00,2.58
4494.00,2.58
4493.00,2.58
4492.00,2.58
4491.00,2.58
4490.00,2.58
4489.00,2.58
4488.00,2.58
4487.00,2.58
4486.00,2.58
4485.00,2.57
4484.00,2.57
4483.00,2.57
4482.00,2.57
4481.00,2.56
4480.00,2.56
4479.00,2.55
4478.00,2.55
4477.00,2.54
4476.00,2.54
4475.00,2.54
4474.00,2.53
4473.00,2.53
4472.00,2.53
4471.00,2.52
4470.00,2.52
4469.00,2.52
4468.00,2.52
4467.00,2.51
4466.00,2.51
4465.00,2.51
4464.00,2.50
4463.00,2.50
4462.00,2.50
4461.00,2.49
4460.00,2.49
4459.00,2.49
4458.00,2.49
4457.00,2.48
4456.00,2.48
4455.00,2.48
4454.00,2.48
4453.00,2.48
4452.00,2.48
4451.00,2.49
4450.00,2.49
4449.00,2.49
4448.00,2.49
4447.00,2.49
4446.00,2.49
4445.00,2.48
4444.00,2.48
4443.00,2.48
4442.00,2.48
4441.00,2.48
4440.00,2.48
4439.00,2.48
4438.00,2.47
4437.00,2.47
4436.00,2.47
4435.00,2.47
4434.00,2.46
4433.00,2.46
4432.00,2.46
4431.00,2.45
4430.00,2.45
4429.00,2.45
4428.00,2.44
4427.00,2.44
4426.00,2.43
4425.00,2.43
4424.00,2.42
4423.00,2.42
4422.00,2.41
4421.00,2.41
4420.00,2.41
4419.00,2.41
4418.00,2.41
4417.00,2.41
4416.00,2.40
4415.00,2.40
4414.00,2.40
4413.00,2.41
4412.00,2.41
4411.00,2.41
4410.00,2.41
4409.00,2.41
4408.00,2.41
4407.00,2.42
4406.00,2.42
4405.00,2.42
4404.00,2.42
4403.00,2.43
4402.00,2.43
4401.00,2.43
4400.00,2.44
4399.00,2.44
4398.00,2.45
4397.00,2.45
4396.00,2.46
4395.00,2.46
4394.00,2.47
4393.00,2.47
4392.00,2.47
4391.00,2.47
4390.00,2.48
4389.00,2.48
4388.00,2.48
4387.00,2.48
4386.00,2.48
4385.00,2.49
4384.00,2.49
4383.00,2.49
4382.00,2.49
4381.00,2.50
4380.00,2.50
4379.00,2.50
4378.00,2.51
4377.00,2.51
4376.00,2.52
4375.00,2.52
4374.00,2.52
4373.00,2.53
4372.00,2.53
4371.00,2.53
4370.00,2.54
4369.00,2.54
4368.00,2.54
4367.00,2.54
4366.00,2.54
4365.00,2.54
4364.00,2.54
4363.00,2.54
4362.00,2.55
4361.00,2.55
4360.00,2.55
4359.00,2.55
4358.00,2.55
4357.00,2.55
4356.00,2.55
4355.00,2.55
4354.00,2.55
4353.00,2.55
4352.00,2.55
4351.00,2.55
4350.00,2.54
4349.00,2.54
4348.00,2.54
4347.00,2.54
4346.00,2.53
4345.00,2.53
4344.00,2.53
4343.00,2.53
4342.00,2.53
4341.00,2.53
4340.00,2.53
4339.00,2.53
4338.00,2.53
4337.00,2.54
4336.00,2.54
4335.00,2.54
4334.00,2.54
4333.00,2.54
4332.00,2.54
4331.00,2.54
4330.00,2.55
4329.00,2.55
4328.00,2.55
4327.00,2.56
4326.00,2.56
4325.00,2.57
4324.00,2.57
4323.00,2.58
4322.00,2.58
4321.00,2.59
4320.00,2.60
4319.00,2.60
4318.00,2.61
4317.00,2.61
4316.00,2.62
4315.00,2.62
4314.00,2.63
4313.00,2.63
4312.00,2.63
4311.00,2.64
4310.00,2.64
4309.00,2.65
4308.00,2.65
4307.00,2.65
4306.00,2.65
4305.00,2.66
4304.00,2.66
4303.00,2.66
4302.00,2.66
4301.00,2.66
4300.00,2.66
4299.00,2.65
4298.00,2.65
4297.00,2.65
4296.00,2.65
4295.00,2.64
4294.00,2.64
4293.00,2.64
4292.00,2.63
4291.00,2.63
4290.00,2.63
4289.00,2.62
4288.00,2.62
4287.00,2.61
4286.00,2.61
4285.00,2.60
4284.00,2.59
4283.00,2.59
4282.00,2.59
4281.00,2.58
4280.00,2.58
4279.00,2.57
4278.00,2.57
4277.00,2.57
4276.00,2.57
4275.00,2.57
4274.00,2.56
4273.00,2.56
4272.00,2.56
4271.00,2.56
4270.00,2.56
4269.00,2.56
4268.00,2.56
4267.00,2.56
4266.00,2.56
4265.00,2.56
4264.00,2.57
4263.00,2.57
4262.00,2.57
4261.00,2.57
4260.00,2.57
4259.00,2.57
4258.00,2.58
4257.00,2.58
4256.00,2.58
4255.00,2.58
4254.00,2.58
4253.00,2.58
4252.00,2.58
4251.00,2.58
4250.00,2.58
4249.00,2.59
4248.00,2.59
4247.00,2.59
4246.00,2.59
4245.00,2.59
4244.00,2.60
4243.00,2.60
4242.00,2.60
4241.00,2.60
4240.00,2.61
4239.00,2.61
4238.00,2.61
4237.00,2.61
4236.00,2.61
4235.00,2.61
4234.00,2.62
4233.00,2.62
4232.00,2.62
4231.00,2.62
4230.00,2.62
4229.00,2.62
4228.00,2.62
4227.00,2.62
4226.00,2.62
4225.00,2.62
4224.00,2.61
4223.00,2.61
4222.00,2.61
4221.00,2.60
4220.00,2.60
4219.00,2.60
4218.00,2.59
4217.00,2.59
4216.00,2.58
4215.00,2.58
4214.00,2.57
4213.00,2.57
4212.00,2.56
4211.00,2.56
4210.00,2.55
4209.00,2.55
4208.00,2.54
4207.00,2.54
4206.00,2.54
4205.00,2.53
4204.00,2.53
4203.00,2.53
4202.00,2.53
4201.00,2.52
4200.00,2.52
4199.00,2.52
4198.00,2.52
4197.00,2.52
4196.00,2.52
4195.00,2.52
4194.00,2.51
4193.00,2.51
4192.00,2.51
4191.00,2.51
4190.00,2.51
4189.00,2.51
4188.00,2.51
4187.00,2.51
4186.00,2.50
4185.00,2.50
4184.00,2.50
4183.00,2.50
4182.00,2.49
4181.00,2.49
4180.00,2.49
4179.00,2.49
4178.00,2.48
4177.00,2.48
4176.00,2.47
4175.00,2.47
4174.00,2.47
4173.00,2.46
4172.00,2.46
4171.00,2.46
4170.00,2.45
4169.00,2.45
4168.00,2.45
4167.00,2.45
4166.00,2.45
4165.00,2.45
4164.00,2.45
4163.00,2.45
4162.00,2.45
4161.00,2.45
4160.00,2.45
4159.00,2.45
4158.00,2.44
4157.00,2.45
4156.00,2.45
4155.00,2.45
4154.00,2.45
4153.00,2.45
4152.00,2.46
4151.00,2.46
4150.00,2.47
4149.00,2.47
4148.00,2.48
4147.00,2.48
4146.00,2.49
4145.00,2.49
4144.00,2.49
4143.00,2.50
4142.00,2.50
4141.00,2.50
4140.00,2.50
4139.00,2.50
4138.00,2.50
4137.00,2.50
4136.00,2.50
4135.00,2.50
4134.00,2.50
4133.00,2.50
4132.00,2.50
4131.00,2.50
4130.00,2.50
4129.00,2.50
4128.00,2.50
4127.00,2.50
4126.00,2.49
4125.00,2.49
4124.00,2.48
4123.00,2.47
4122.00,2.47
4121.00,2.46
4120.00,2.46
4119.00,2.45
4118.00,2.45
4117.00,2.45
4116.00,2.44
4115.00,2.44
4114.00,2.43
4113.00,2.43
4112.00,2.43
4111.00,2.42
4110.00,2.42
4109.00,2.42
4108.00,2.42
4107.00,2.42
4106.00,2.41
4105.00,2.41
4104.00,2.40
4103.00,2.40
4102.00,2.39
4101.00,2.38
4100.00,2.38
4099.00,2.37
4098.00,2.37
4097.00,2.36
4096.00,2.36
4095.00,2.35
4094.00,2.35
4093.00,2.34
4092.00,2.34
4091.00,2.33
4090.00,2.33
4089.00,2.32
4088.00,2.32
4087.00,2.31
4086.00,2.31
4085.00,2.30
4084.00,2.30
4083.00,2.29
4082.00,2.29
4081.00,2.29
4080.00,2.28
4079.00,2.28
4078.00,2.28
4077.00,2.28
4076.00,2.28
4075.00,2.28
4074.00,2.28
4073.00,2.29
4072.00,2.29
4071.00,2.30
4070.00,2.30
4069.00,2.31
4068.00,2.31
4067.00,2.32
4066.00,2.33
4065.00,2.34
4064.00,2.35
4063.00,2.36
4062.00,2.37
4061.00,2.38
4060.00,2.39
4059.00,2.40
4058.00,2.41
4057.00,2.42
4056.00,2.43
4055.00,2.44
4054.00,2.45
4053.00,2.46
4052.00,2.46
4051.00,2.47
4050.00,2.48
4049.00,2.48
4048.00,2.49
4047.00,2.49
4046.00,2.49
4045.00,2.50
4044.00,2.50
4043.00,2.50
4042.00,2.50
4041.00,2.49
4040.00,2.49
4039.00,2.48
4038.00,2.48
4037.00,2.47
4036.00,2.46
4035.00,2.46
4034.00,2.45
4033.00,2.44
4032.00,2.43
4031.00,2.42
4030.00,2.41
4029.00,2.41
4028.00,2.40
4027.00,2.40
4026.00,2.39
4025.00,2.39
4024.00,2.39
4023.00,2.39
4022.00,2.38
4021.00,2.38
4020.00,2.39
4019.00,2.39
4018.00,2.39
4017.00,2.40
4016.00,2.40
4015.00,2.41
4014.00,2.41
4013.00,2.42
4012.00,2.44
4011.00,2.45
4010.00,2.46
4009.00,2.48
4008.00,2.49
4007.00,2.51
4006.00,2.53
4005.00,2.55
4004.00,2.56
4003.00,2.58
4002.00,2.60
4001.00,2.62
4000.00,2.63
