创建为新数据集,样品 1045 用户 Administrator 日期 星期二, 七月 30 2019
cm-1,%T
10000.00,2.99
9999.00,2.96
9998.00,2.92
9997.00,2.88
9996.00,2.85
9995.00,2.82
9994.00,2.79
9993.00,2.77
9992.00,2.75
9991.00,2.73
9990.00,2.71
9989.00,2.69
9988.00,2.68
9987.00,2.66
9986.00,2.64
9985.00,2.62
9984.00,2.60
9983.00,2.58
9982.00,2.56
9981.00,2.54
9980.00,2.52
9979.00,2.50
9978.00,2.49
9977.00,2.47
9976.00,2.47
9975.00,2.47
9974.00,2.47
9973.00,2.47
9972.00,2.48
9971.00,2.49
9970.00,2.50
9969.00,2.52
9968.00,2.53
9967.00,2.53
9966.00,2.54
9965.00,2.55
9964.00,2.55
9963.00,2.55
9962.00,2.56
9961.00,2.56
9960.00,2.56
9959.00,2.56
9958.00,2.56
9957.00,2.57
9956.00,2.57
9955.00,2.57
9954.00,2.57
9953.00,2.57
9952.00,2.57
9951.00,2.57
9950.00,2.57
9949.00,2.57
9948.00,2.57
9947.00,2.57
9946.00,2.57
9945.00,2.57
9944.00,2.56
9943.00,2.56
9942.00,2.56
9941.00,2.55
9940.00,2.55
9939.00,2.55
9938.00,2.54
9937.00,2.54
9936.00,2.54
9935.00,2.53
9934.00,2.53
9933.00,2.53
9932.00,2.52
9931.00,2.52
9930.00,2.52
9929.00,2.51
9928.00,2.51
9927.00,2.50
9926.00,2.50
9925.00,2.49
9924.00,2.47
9923.00,2.46
9922.00,2.44
9921.00,2.42
9920.00,2.40
9919.00,2.38
9918.00,2.36
9917.00,2.34
9916.00,2.32
9915.00,2.30
9914.00,2.28
9913.00,2.26
9912.00,2.24
9911.00,2.22
9910.00,2.20
9909.00,2.19
9908.00,2.17
9907.00,2.16
9906.00,2.14
9905.00,2.13
9904.00,2.12
9903.00,2.12
9902.00,2.12
9901.00,2.12
9900.00,2.12
9899.00,2.13
9898.00,2.14
9897.00,2.15
9896.00,2.16
9895.00,2.18
9894.00,2.20
9893.00,2.22
9892.00,2.23
9891.00,2.25
9890.00,2.27
9889.00,2.29
9888.00,2.31
9887.00,2.33
9886.00,2.34
9885.00,2.36
9884.00,2.38
9883.00,2.40
9882.00,2.42
9881.00,2.43
9880.00,2.45
9879.00,2.46
9878.00,2.46
9877.00,2.47
9876.00,2.47
9875.00,2.47
9874.00,2.47
9873.00,2.47
9872.00,2.46
9871.00,2.46
9870.00,2.45
9869.00,2.44
9868.00,2.43
9867.00,2.42
9866.00,2.41
9865.00,2.41
9864.00,2.40
9863.00,2.40
9862.00,2.40
9861.00,2.40
9860.00,2.41
9859.00,2.42
9858.00,2.42
9857.00,2.43
9856.00,2.45
9855.00,2.46
9854.00,2.47
9853.00,2.49
9852.00,2.50
9851.00,2.52
9850.00,2.53
9849.00,2.55
9848.00,2.57
9847.00,2.58
9846.00,2.60
9845.00,2.62
9844.00,2.63
9843.00,2.65
9842.00,2.67
9841.00,2.68
9840.00,2.70
9839.00,2.71
9838.00,2.73
9837.00,2.73
9836.00,2.74
9835.00,2.74
9834.00,2.73
9833.00,2.72
9832.00,2.70
9831.00,2.69
9830.00,2.67
9829.00,2.64
9828.00,2.62
9827.00,2.60
9826.00,2.58
9825.00,2.56
9824.00,2.54
9823.00,2.51
9822.00,2.49
9821.00,2.47
9820.00,2.45
9819.00,2.42
9818.00,2.40
9817.00,2.37
9816.00,2.35
9815.00,2.32
9814.00,2.29
9813.00,2.27
9812.00,2.24
9811.00,2.22
9810.00,2.20
9809.00,2.19
9808.00,2.17
9807.00,2.17
9806.00,2.16
9805.00,2.16
9804.00,2.15
9803.00,2.16
9802.00,2.16
9801.00,2.16
9800.00,2.17
9799.00,2.17
9798.00,2.18
9797.00,2.19
9796.00,2.19
9795.00,2.20
9794.00,2.22
9793.00,2.23
9792.00,2.24
9791.00,2.26
9790.00,2.27
9789.00,2.28
9788.00,2.29
9787.00,2.30
9786.00,2.31
9785.00,2.32
9784.00,2.33
9783.00,2.33
9782.00,2.33
9781.00,2.34
9780.00,2.34
9779.00,2.34
9778.00,2.34
9777.00,2.34
9776.00,2.33
9775.00,2.33
9774.00,2.32
9773.00,2.31
9772.00,2.30
9771.00,2.30
9770.00,2.29
9769.00,2.28
9768.00,2.27
9767.00,2.27
9766.00,2.26
9765.00,2.26
9764.00,2.25
9763.00,2.25
9762.00,2.24
9761.00,2.24
9760.00,2.24
9759.00,2.24
9758.00,2.23
9757.00,2.23
9756.00,2.23
9755.00,2.23
9754.00,2.22
9753.00,2.22
9752.00,2.21
9751.00,2.20
9750.00,2.20
9749.00,2.19
9748.00,2.19
9747.00,2.18
9746.00,2.17
9745.00,2.16
9744.00,2.15
9743.00,2.14
9742.00,2.12
9741.00,2.11
9740.00,2.09
9739.00,2.07
9738.00,2.04
9737.00,2.02
9736.00,2.00
9735.00,1.97
9734.00,1.95
9733.00,1.93
9732.00,1.91
9731.00,1.89
9730.00,1.87
9729.00,1.85
9728.00,1.83
9727.00,1.81
9726.00,1.79
9725.00,1.77
9724.00,1.76
9723.00,1.74
9722.00,1.73
9721.00,1.71
9720.00,1.70
9719.00,1.69
9718.00,1.68
9717.00,1.67
9716.00,1.66
9715.00,1.65
9714.00,1.65
9713.00,1.65
9712.00,1.65
9711.00,1.65
9710.00,1.66
9709.00,1.66
9708.00,1.67
9707.00,1.68
9706.00,1.70
9705.00,1.71
9704.00,1.73
9703.00,1.75
9702.00,1.77
9701.00,1.79
9700.00,1.81
9699.00,1.84
9698.00,1.87
9697.00,1.90
9696.00,1.93
9695.00,1.96
9694.00,1.99
9693.00,2.03
9692.00,2.06
9691.00,2.09
9690.00,2.12
9689.00,2.16
9688.00,2.19
9687.00,2.21
9686.00,2.24
9685.00,2.26
9684.00,2.27
9683.00,2.28
9682.00,2.29
9681.00,2.30
9680.00,2.30
9679.00,2.29
9678.00,2.29
9677.00,2.28
9676.00,2.27
9675.00,2.25
9674.00,2.23
9673.00,2.21
9672.00,2.18
9671.00,2.15
9670.00,2.12
9669.00,2.09
9668.00,2.05
9667.00,2.02
9666.00,1.98
9665.00,1.94
9664.00,1.91
9663.00,1.87
9662.00,1.84
9661.00,1.81
9660.00,1.78
9659.00,1.76
9658.00,1.74
9657.00,1.72
9656.00,1.71
9655.00,1.71
9654.00,1.70
9653.00,1.70
9652.00,1.70
9651.00,1.70
9650.00,1.70
9649.00,1.71
9648.00,1.71
9647.00,1.71
9646.00,1.72
9645.00,1.72
9644.00,1.72
9643.00,1.73
9642.00,1.74
9641.00,1.75
9640.00,1.75
9639.00,1.76
9638.00,1.77
9637.00,1.78
9636.00,1.79
9635.00,1.80
9634.00,1.81
9633.00,1.82
9632.00,1.82
9631.00,1.82
9630.00,1.83
9629.00,1.83
9628.00,1.82
9627.00,1.82
9626.00,1.83
9625.00,1.83
9624.00,1.83
9623.00,1.84
9622.00,1.85
9621.00,1.87
9620.00,1.88
9619.00,1.91
9618.00,1.93
9617.00,1.96
9616.00,1.98
9615.00,2.01
9614.00,2.04
9613.00,2.06
9612.00,2.08
9611.00,2.10
9610.00,2.12
9609.00,2.13
9608.00,2.14
9607.00,2.15
9606.00,2.16
9605.00,2.17
9604.00,2.17
9603.00,2.18
9602.00,2.18
9601.00,2.18
9600.00,2.18
9599.00,2.18
9598.00,2.18
9597.00,2.17
9596.00,2.16
9595.00,2.14
9594.00,2.13
9593.00,2.11
9592.00,2.08
9591.00,2.06
9590.00,2.03
9589.00,2.00
9588.00,1.98
9587.00,1.95
9586.00,1.93
9585.00,1.91
9584.00,1.89
9583.00,1.88
9582.00,1.87
9581.00,1.86
9580.00,1.86
9579.00,1.86
9578.00,1.86
9577.00,1.86
9576.00,1.87
9575.00,1.88
9574.00,1.89
9573.00,1.90
9572.00,1.91
9571.00,1.92
9570.00,1.93
9569.00,1.94
9568.00,1.96
9567.00,1.97
9566.00,1.98
9565.00,1.99
9564.00,2.00
9563.00,2.02
9562.00,2.02
9561.00,2.03
9560.00,2.04
9559.00,2.04
9558.00,2.05
9557.00,2.05
9556.00,2.05
9555.00,2.04
9554.00,2.04
9553.00,2.04
9552.00,2.03
9551.00,2.02
9550.00,2.01
9549.00,2.00
9548.00,1.98
9547.00,1.96
9546.00,1.94
9545.00,1.92
9544.00,1.90
9543.00,1.88
9542.00,1.85
9541.00,1.83
9540.00,1.81
9539.00,1.79
9538.00,1.77
9537.00,1.75
9536.00,1.73
9535.00,1.71
9534.00,1.70
9533.00,1.69
9532.00,1.67
9531.00,1.66
9530.00,1.65
9529.00,1.64
9528.00,1.63
9527.00,1.61
9526.00,1.60
9525.00,1.59
9524.00,1.59
9523.00,1.58
9522.00,1.58
9521.00,1.59
9520.00,1.60
9519.00,1.61
9518.00,1.62
9517.00,1.64
9516.00,1.66
9515.00,1.68
9514.00,1.70
9513.00,1.73
9512.00,1.75
9511.00,1.78
9510.00,1.81
9509.00,1.83
9508.00,1.86
9507.00,1.89
9506.00,1.92
9505.00,1.95
9504.00,1.98
9503.00,2.01
9502.00,2.04
9501.00,2.07
9500.00,2.10
9499.00,2.13
9498.00,2.16
9497.00,2.18
9496.00,2.21
9495.00,2.23
9494.00,2.25
9493.00,2.26
9492.00,2.28
9491.00,2.29
9490.00,2.29
9489.00,2.30
9488.00,2.30
9487.00,2.30
9486.00,2.29
9485.00,2.29
9484.00,2.28
9483.00,2.27
9482.00,2.25
9481.00,2.24
9480.00,2.22
9479.00,2.20
9478.00,2.18
9477.00,2.16
9476.00,2.14
9475.00,2.12
9474.00,2.10
9473.00,2.08
9472.00,2.06
9471.00,2.04
9470.00,2.01
9469.00,1.99
9468.00,1.96
9467.00,1.94
9466.00,1.92
9465.00,1.90
9464.00,1.89
9463.00,1.87
9462.00,1.86
9461.00,1.85
9460.00,1.84
9459.00,1.83
9458.00,1.83
9457.00,1.82
9456.00,1.82
9455.00,1.82
9454.00,1.81
9453.00,1.81
9452.00,1.81
9451.00,1.81
9450.00,1.81
9449.00,1.81
9448.00,1.82
9447.00,1.82
9446.00,1.83
9445.00,1.84
9444.00,1.85
9443.00,1.86
9442.00,1.88
9441.00,1.89
9440.00,1.90
9439.00,1.91
9438.00,1.92
9437.00,1.93
9436.00,1.94
9435.00,1.95
9434.00,1.96
9433.00,1.97
9432.00,1.98
9431.00,1.99
9430.00,2.00
9429.00,2.01
9428.00,2.03
9427.00,2.05
9426.00,2.07
9425.00,2.08
9424.00,2.10
9423.00,2.12
9422.00,2.13
9421.00,2.15
9420.00,2.16
9419.00,2.17
9418.00,2.18
9417.00,2.19
9416.00,2.20
9415.00,2.21
9414.00,2.22
9413.00,2.23
9412.00,2.24
9411.00,2.25
9410.00,2.25
9409.00,2.26
9408.00,2.27
9407.00,2.27
9406.00,2.27
9405.00,2.27
9404.00,2.26
9403.00,2.25
9402.00,2.24
9401.00,2.23
9400.00,2.21
9399.00,2.20
9398.00,2.18
9397.00,2.16
9396.00,2.14
9395.00,2.12
9394.00,2.10
9393.00,2.08
9392.00,2.07
9391.00,2.05
9390.00,2.03
9389.00,2.01
9388.00,2.00
9387.00,1.98
9386.00,1.96
9385.00,1.94
9384.00,1.92
9383.00,1.91
9382.00,1.89
9381.00,1.88
9380.00,1.87
9379.00,1.87
9378.00,1.87
9377.00,1.87
9376.00,1.87
9375.00,1.88
9374.00,1.89
9373.00,1.90
9372.00,1.91
9371.00,1.92
9370.00,1.94
9369.00,1.95
9368.00,1.97
9367.00,1.98
9366.00,1.99
9365.00,2.00
9364.00,2.01
9363.00,2.02
9362.00,2.03
9361.00,2.04
9360.00,2.05
9359.00,2.06
9358.00,2.07
9357.00,2.09
9356.00,2.10
9355.00,2.11
9354.00,2.12
9353.00,2.12
9352.00,2.13
9351.00,2.13
9350.00,2.13
9349.00,2.13
9348.00,2.12
9347.00,2.11
9346.00,2.10
9345.00,2.09
9344.00,2.08
9343.00,2.06
9342.00,2.05
9341.00,2.03
9340.00,2.02
9339.00,2.00
9338.00,1.99
9337.00,1.97
9336.00,1.96
9335.00,1.95
9334.00,1.94
9333.00,1.93
9332.00,1.92
9331.00,1.91
9330.00,1.90
9329.00,1.89
9328.00,1.88
9327.00,1.88
9326.00,1.87
9325.00,1.87
9324.00,1.87
9323.00,1.88
9322.00,1.89
9321.00,1.90
9320.00,1.91
9319.00,1.93
9318.00,1.95
9317.00,1.97
9316.00,2.00
9315.00,2.03
9314.00,2.06
9313.00,2.09
9312.00,2.12
9311.00,2.16
9310.00,2.19
9309.00,2.23
9308.00,2.27
9307.00,2.30
9306.00,2.34
9305.00,2.37
9304.00,2.40
9303.00,2.43
9302.00,2.46
9301.00,2.48
9300.00,2.50
9299.00,2.51
9298.00,2.53
9297.00,2.54
9296.00,2.54
9295.00,2.55
9294.00,2.55
9293.00,2.54
9292.00,2.54
9291.00,2.53
9290.00,2.52
9289.00,2.50
9288.00,2.49
9287.00,2.47
9286.00,2.45
9285.00,2.43
9284.00,2.40
9283.00,2.38
9282.00,2.34
9281.00,2.31
9280.00,2.28
9279.00,2.24
9278.00,2.21
9277.00,2.17
9276.00,2.14
9275.00,2.11
9274.00,2.07
9273.00,2.04
9272.00,2.01
9271.00,1.99
9270.00,1.96
9269.00,1.94
9268.00,1.91
9267.00,1.89
9266.00,1.87
9265.00,1.85
9264.00,1.83
9263.00,1.80
9262.00,1.78
9261.00,1.76
9260.00,1.74
9259.00,1.72
9258.00,1.70
9257.00,1.68
9256.00,1.67
9255.00,1.66
9254.00,1.65
9253.00,1.65
9252.00,1.65
9251.00,1.65
9250.00,1.65
9249.00,1.66
9248.00,1.67
9247.00,1.68
9246.00,1.69
9245.00,1.70
9244.00,1.72
9243.00,1.74
9242.00,1.75
9241.00,1.77
9240.00,1.80
9239.00,1.82
9238.00,1.84
9237.00,1.86
9236.00,1.88
9235.00,1.91
9234.00,1.93
9233.00,1.95
9232.00,1.98
9231.00,2.00
9230.00,2.02
9229.00,2.04
9228.00,2.05
9227.00,2.07
9226.00,2.08
9225.00,2.09
9224.00,2.10
9223.00,2.11
9222.00,2.11
9221.00,2.11
9220.00,2.10
9219.00,2.09
9218.00,2.08
9217.00,2.06
9216.00,2.04
9215.00,2.02
9214.00,2.00
9213.00,1.98
9212.00,1.96
9211.00,1.93
9210.00,1.91
9209.00,1.89
9208.00,1.87
9207.00,1.85
9206.00,1.83
9205.00,1.82
9204.00,1.80
9203.00,1.78
9202.00,1.77
9201.00,1.75
9200.00,1.74
9199.00,1.73
9198.00,1.72
9197.00,1.70
9196.00,1.69
9195.00,1.69
9194.00,1.68
9193.00,1.67
9192.00,1.67
9191.00,1.66
9190.00,1.66
9189.00,1.66
9188.00,1.67
9187.00,1.67
9186.00,1.68
9185.00,1.68
9184.00,1.69
9183.00,1.69
9182.00,1.69
9181.00,1.69
9180.00,1.70
9179.00,1.70
9178.00,1.70
9177.00,1.69
9176.00,1.69
9175.00,1.68
9174.00,1.68
9173.00,1.67
9172.00,1.66
9171.00,1.66
9170.00,1.66
9169.00,1.66
9168.00,1.66
9167.00,1.66
9166.00,1.67
9165.00,1.68
9164.00,1.69
9163.00,1.70
9162.00,1.71
9161.00,1.72
9160.00,1.72
9159.00,1.73
9158.00,1.74
9157.00,1.75
9156.00,1.75
9155.00,1.76
9154.00,1.76
9153.00,1.77
9152.00,1.77
9151.00,1.78
9150.00,1.79
9149.00,1.80
9148.00,1.81
9147.00,1.82
9146.00,1.83
9145.00,1.84
9144.00,1.85
9143.00,1.87
9142.00,1.87
9141.00,1.88
9140.00,1.89
9139.00,1.90
9138.00,1.90
9137.00,1.90
9136.00,1.91
9135.00,1.91
9134.00,1.91
9133.00,1.92
9132.00,1.92
9131.00,1.93
9130.00,1.93
9129.00,1.94
9128.00,1.95
9127.00,1.97
9126.00,1.98
9125.00,2.00
9124.00,2.02
9123.00,2.03
9122.00,2.05
9121.00,2.07
9120.00,2.09
9119.00,2.11
9118.00,2.14
9117.00,2.16
9116.00,2.18
9115.00,2.20
9114.00,2.22
9113.00,2.24
9112.00,2.25
9111.00,2.27
9110.00,2.28
9109.00,2.30
9108.00,2.31
9107.00,2.31
9106.00,2.32
9105.00,2.33
9104.00,2.33
9103.00,2.33
9102.00,2.33
9101.00,2.33
9100.00,2.32
9099.00,2.32
9098.00,2.31
9097.00,2.30
9096.00,2.29
9095.00,2.28
9094.00,2.27
9093.00,2.26
9092.00,2.24
9091.00,2.22
9090.00,2.21
9089.00,2.19
9088.00,2.16
9087.00,2.14
9086.00,2.12
9085.00,2.10
9084.00,2.08
9083.00,2.06
9082.00,2.04
9081.00,2.02
9080.00,2.00
9079.00,1.99
9078.00,1.97
9077.00,1.96
9076.00,1.95
9075.00,1.94
9074.00,1.92
9073.00,1.91
9072.00,1.90
9071.00,1.89
9070.00,1.88
9069.00,1.87
9068.00,1.86
9067.00,1.84
9066.00,1.83
9065.00,1.81
9064.00,1.80
9063.00,1.78
9062.00,1.77
9061.00,1.76
9060.00,1.75
9059.00,1.75
9058.00,1.74
9057.00,1.74
9056.00,1.74
9055.00,1.74
9054.00,1.74
9053.00,1.74
9052.00,1.74
9051.00,1.74
9050.00,1.75
9049.00,1.75
9048.00,1.75
9047.00,1.75
9046.00,1.75
9045.00,1.75
9044.00,1.75
9043.00,1.76
9042.00,1.76
9041.00,1.77
9040.00,1.77
9039.00,1.78
9038.00,1.79
9037.00,1.80
9036.00,1.81
9035.00,1.82
9034.00,1.84
9033.00,1.85
9032.00,1.85
9031.00,1.86
9030.00,1.87
9029.00,1.88
9028.00,1.89
9027.00,1.89
9026.00,1.90
9025.00,1.91
9024.00,1.91
9023.00,1.92
9022.00,1.93
9021.00,1.93
9020.00,1.93
9019.00,1.94
9018.00,1.94
9017.00,1.94
9016.00,1.94
9015.00,1.94
9014.00,1.93
9013.00,1.93
9012.00,1.93
9011.00,1.92
9010.00,1.92
9009.00,1.92
9008.00,1.91
9007.00,1.91
9006.00,1.90
9005.00,1.89
9004.00,1.88
9003.00,1.87
9002.00,1.86
9001.00,1.85
9000.00,1.84
8999.00,1.82
8998.00,1.81
8997.00,1.80
8996.00,1.79
8995.00,1.78
8994.00,1.77
8993.00,1.76
8992.00,1.76
8991.00,1.75
8990.00,1.75
8989.00,1.76
8988.00,1.76
8987.00,1.76
8986.00,1.77
8985.00,1.78
8984.00,1.79
8983.00,1.80
8982.00,1.81
8981.00,1.82
8980.00,1.83
8979.00,1.85
8978.00,1.86
8977.00,1.88
8976.00,1.89
8975.00,1.91
8974.00,1.92
8973.00,1.94
8972.00,1.96
8971.00,1.97
8970.00,1.99
8969.00,2.00
8968.00,2.02
8967.00,2.03
8966.00,2.05
8965.00,2.06
8964.00,2.07
8963.00,2.08
8962.00,2.08
8961.00,2.09
8960.00,2.09
8959.00,2.10
8958.00,2.10
8957.00,2.10
8956.00,2.09
8955.00,2.09
8954.00,2.09
8953.00,2.08
8952.00,2.08
8951.00,2.08
8950.00,2.08
8949.00,2.08
8948.00,2.08
8947.00,2.08
8946.00,2.09
8945.00,2.09
8944.00,2.09
8943.00,2.09
8942.00,2.10
8941.00,2.10
8940.00,2.10
8939.00,2.10
8938.00,2.10
8937.00,2.11
8936.00,2.11
8935.00,2.11
8934.00,2.12
8933.00,2.12
8932.00,2.13
8931.00,2.13
8930.00,2.13
8929.00,2.14
8928.00,2.14
8927.00,2.14
8926.00,2.14
8925.00,2.15
8924.00,2.15
8923.00,2.15
8922.00,2.14
8921.00,2.14
8920.00,2.14
8919.00,2.14
8918.00,2.14
8917.00,2.13
8916.00,2.13
8915.00,2.14
8914.00,2.14
8913.00,2.14
8912.00,2.14
8911.00,2.14
8910.00,2.13
8909.00,2.13
8908.00,2.13
8907.00,2.12
8906.00,2.12
8905.00,2.11
8904.00,2.11
8903.00,2.11
8902.00,2.10
8901.00,2.10
8900.00,2.10
8899.00,2.10
8898.00,2.09
8897.00,2.09
8896.00,2.08
8895.00,2.08
8894.00,2.07
8893.00,2.06
8892.00,2.06
8891.00,2.05
8890.00,2.04
8889.00,2.04
8888.00,2.03
8887.00,2.02
8886.00,2.01
8885.00,2.01
8884.00,2.00
8883.00,1.99
8882.00,1.99
8881.00,1.98
8880.00,1.97
8879.00,1.97
8878.00,1.96
8877.00,1.96
8876.00,1.95
8875.00,1.95
8874.00,1.95
8873.00,1.95
8872.00,1.95
8871.00,1.95
8870.00,1.95
8869.00,1.95
8868.00,1.95
8867.00,1.95
8866.00,1.95
8865.00,1.95
8864.00,1.95
8863.00,1.94
8862.00,1.94
8861.00,1.93
8860.00,1.93
8859.00,1.93
8858.00,1.93
8857.00,1.92
8856.00,1.92
8855.00,1.93
8854.00,1.93
8853.00,1.93
8852.00,1.93
8851.00,1.93
8850.00,1.93
8849.00,1.93
8848.00,1.93
8847.00,1.93
8846.00,1.93
8845.00,1.93
8844.00,1.93
8843.00,1.93
8842.00,1.93
8841.00,1.93
8840.00,1.93
8839.00,1.94
8838.00,1.95
8837.00,1.96
8836.00,1.97
8835.00,1.98
8834.00,1.98
8833.00,1.99
8832.00,2.00
8831.00,2.01
8830.00,2.02
8829.00,2.02
8828.00,2.03
8827.00,2.04
8826.00,2.05
8825.00,2.05
8824.00,2.06
8823.00,2.07
8822.00,2.08
8821.00,2.09
8820.00,2.10
8819.00,2.11
8818.00,2.12
8817.00,2.13
8816.00,2.14
8815.00,2.15
8814.00,2.16
8813.00,2.16
8812.00,2.17
8811.00,2.17
8810.00,2.18
8809.00,2.18
8808.00,2.18
8807.00,2.18
8806.00,2.19
8805.00,2.19
8804.00,2.19
8803.00,2.20
8802.00,2.20
8801.00,2.20
8800.00,2.20
8799.00,2.20
8798.00,2.19
8797.00,2.19
8796.00,2.18
8795.00,2.17
8794.00,2.16
8793.00,2.15
8792.00,2.14
8791.00,2.13
8790.00,2.12
8789.00,2.11
8788.00,2.10
8787.00,2.08
8786.00,2.08
8785.00,2.07
8784.00,2.06
8783.00,2.06
8782.00,2.05
8781.00,2.05
8780.00,2.05
8779.00,2.05
8778.00,2.04
8777.00,2.04
8776.00,2.04
8775.00,2.04
8774.00,2.04
8773.00,2.04
8772.00,2.04
8771.00,2.05
8770.00,2.06
8769.00,2.07
8768.00,2.08
8767.00,2.09
8766.00,2.10
8765.00,2.12
8764.00,2.13
8763.00,2.15
8762.00,2.16
8761.00,2.18
8760.00,2.19
8759.00,2.20
8758.00,2.21
8757.00,2.21
8756.00,2.22
8755.00,2.22
8754.00,2.22
8753.00,2.22
8752.00,2.23
8751.00,2.23
8750.00,2.23
8749.00,2.23
8748.00,2.23
8747.00,2.23
8746.00,2.24
8745.00,2.23
8744.00,2.23
8743.00,2.23
8742.00,2.22
8741.00,2.21
8740.00,2.20
8739.00,2.19
8738.00,2.18
8737.00,2.17
8736.00,2.16
8735.00,2.14
8734.00,2.13
8733.00,2.12
8732.00,2.11
8731.00,2.10
8730.00,2.08
8729.00,2.07
8728.00,2.06
8727.00,2.05
8726.00,2.04
8725.00,2.02
8724.00,2.01
8723.00,2.00
8722.00,1.99
8721.00,1.98
8720.00,1.96
8719.00,1.95
8718.00,1.94
8717.00,1.93
8716.00,1.92
8715.00,1.91
8714.00,1.90
8713.00,1.89
8712.00,1.88
8711.00,1.87
8710.00,1.87
8709.00,1.86
8708.00,1.86
8707.00,1.86
8706.00,1.87
8705.00,1.87
8704.00,1.88
8703.00,1.89
8702.00,1.91
8701.00,1.92
8700.00,1.93
8699.00,1.95
8698.00,1.96
8697.00,1.98
8696.00,1.99
8695.00,2.00
8694.00,2.02
8693.00,2.03
8692.00,2.04
8691.00,2.06
8690.00,2.07
8689.00,2.08
8688.00,2.09
8687.00,2.10
8686.00,2.11
8685.00,2.12
8684.00,2.12
8683.00,2.13
8682.00,2.13
8681.00,2.12
8680.00,2.12
8679.00,2.11
8678.00,2.10
8677.00,2.09
8676.00,2.07
8675.00,2.06
8674.00,2.04
8673.00,2.02
8672.00,2.01
8671.00,1.99
8670.00,1.97
8669.00,1.96
8668.00,1.94
8667.00,1.93
8666.00,1.92
8665.00,1.91
8664.00,1.90
8663.00,1.89
8662.00,1.89
8661.00,1.89
8660.00,1.88
8659.00,1.88
8658.00,1.89
8657.00,1.89
8656.00,1.89
8655.00,1.90
8654.00,1.91
8653.00,1.92
8652.00,1.94
8651.00,1.95
8650.00,1.97
8649.00,1.99
8648.00,2.00
8647.00,2.02
8646.00,2.04
8645.00,2.06
8644.00,2.08
8643.00,2.10
8642.00,2.12
8641.00,2.14
8640.00,2.16
8639.00,2.17
8638.00,2.19
8637.00,2.21
8636.00,2.23
8635.00,2.25
8634.00,2.26
8633.00,2.28
8632.00,2.30
8631.00,2.31
8630.00,2.32
8629.00,2.34
8628.00,2.35
8627.00,2.36
8626.00,2.37
8625.00,2.38
8624.00,2.38
8623.00,2.39
8622.00,2.39
8621.00,2.40
8620.00,2.40
8619.00,2.41
8618.00,2.41
8617.00,2.41
8616.00,2.42
8615.00,2.42
8614.00,2.42
8613.00,2.42
8612.00,2.41
8611.00,2.41
8610.00,2.40
8609.00,2.39
8608.00,2.39
8607.00,2.38
8606.00,2.37
8605.00,2.37
8604.00,2.36
8603.00,2.36
8602.00,2.36
8601.00,2.35
8600.00,2.35
8599.00,2.35
8598.00,2.35
8597.00,2.36
8596.00,2.36
8595.00,2.36
8594.00,2.37
8593.00,2.37
8592.00,2.38
8591.00,2.38
8590.00,2.38
8589.00,2.39
8588.00,2.39
8587.00,2.39
8586.00,2.40
8585.00,2.40
8584.00,2.40
8583.00,2.41
8582.00,2.41
8581.00,2.41
8580.00,2.41
8579.00,2.41
8578.00,2.41
8577.00,2.41
8576.00,2.41
8575.00,2.40
8574.00,2.39
8573.00,2.39
8572.00,2.38
8571.00,2.37
8570.00,2.36
8569.00,2.35
8568.00,2.34
8567.00,2.33
8566.00,2.32
8565.00,2.32
8564.00,2.32
8563.00,2.32
8562.00,2.32
8561.00,2.32
8560.00,2.32
8559.00,2.33
8558.00,2.33
8557.00,2.34
8556.00,2.34
8555.00,2.35
8554.00,2.35
8553.00,2.36
8552.00,2.36
8551.00,2.37
8550.00,2.38
8549.00,2.39
8548.00,2.40
8547.00,2.41
8546.00,2.42
8545.00,2.43
8544.00,2.44
8543.00,2.44
8542.00,2.45
8541.00,2.45
8540.00,2.45
8539.00,2.45
8538.00,2.45
8537.00,2.44
8536.00,2.43
8535.00,2.42
8534.00,2.41
8533.00,2.40
8532.00,2.39
8531.00,2.38
8530.00,2.37
8529.00,2.36
8528.00,2.35
8527.00,2.34
8526.00,2.33
8525.00,2.32
8524.00,2.31
8523.00,2.30
8522.00,2.29
8521.00,2.29
8520.00,2.28
8519.00,2.27
8518.00,2.26
8517.00,2.25
8516.00,2.24
8515.00,2.23
8514.00,2.22
8513.00,2.21
8512.00,2.20
8511.00,2.19
8510.00,2.18
8509.00,2.17
8508.00,2.16
8507.00,2.15
8506.00,2.14
8505.00,2.13
8504.00,2.13
8503.00,2.12
8502.00,2.11
8501.00,2.10
8500.00,2.10
8499.00,2.09
8498.00,2.08
8497.00,2.07
8496.00,2.06
8495.00,2.05
8494.00,2.05
8493.00,2.04
8492.00,2.04
8491.00,2.03
8490.00,2.03
8489.00,2.03
8488.00,2.03
8487.00,2.03
8486.00,2.03
8485.00,2.04
8484.00,2.04
8483.00,2.05
8482.00,2.06
8481.00,2.07
8480.00,2.08
8479.00,2.09
8478.00,2.10
8477.00,2.12
8476.00,2.13
8475.00,2.14
8474.00,2.16
8473.00,2.17
8472.00,2.19
8471.00,2.20
8470.00,2.21
8469.00,2.22
8468.00,2.23
8467.00,2.24
8466.00,2.25
8465.00,2.26
8464.00,2.26
8463.00,2.27
8462.00,2.28
8461.00,2.28
8460.00,2.29
8459.00,2.29
8458.00,2.29
8457.00,2.29
8456.00,2.28
8455.00,2.28
8454.00,2.27
8453.00,2.27
8452.00,2.26
8451.00,2.25
8450.00,2.24
8449.00,2.22
8448.00,2.21
8447.00,2.20
8446.00,2.19
8445.00,2.17
8444.00,2.16
8443.00,2.15
8442.00,2.14
8441.00,2.13
8440.00,2.12
8439.00,2.11
8438.00,2.09
8437.00,2.08
8436.00,2.07
8435.00,2.06
8434.00,2.06
8433.00,2.05
8432.00,2.05
8431.00,2.05
8430.00,2.05
8429.00,2.05
8428.00,2.05
8427.00,2.06
8426.00,2.06
8425.00,2.07
8424.00,2.08
8423.00,2.09
8422.00,2.10
8421.00,2.11
8420.00,2.12
8419.00,2.13
8418.00,2.14
8417.00,2.15
8416.00,2.16
8415.00,2.17
8414.00,2.18
8413.00,2.19
8412.00,2.20
8411.00,2.21
8410.00,2.23
8409.00,2.24
8408.00,2.26
8407.00,2.27
8406.00,2.28
8405.00,2.29
8404.00,2.30
8403.00,2.30
8402.00,2.31
8401.00,2.31
8400.00,2.31
8399.00,2.31
8398.00,2.30
8397.00,2.30
8396.00,2.29
8395.00,2.28
8394.00,2.27
8393.00,2.26
8392.00,2.25
8391.00,2.23
8390.00,2.22
8389.00,2.21
8388.00,2.19
8387.00,2.18
8386.00,2.16
8385.00,2.15
8384.00,2.13
8383.00,2.11
8382.00,2.09
8381.00,2.07
8380.00,2.05
8379.00,2.03
8378.00,2.01
8377.00,1.99
8376.00,1.97
8375.00,1.96
8374.00,1.95
8373.00,1.94
8372.00,1.93
8371.00,1.93
8370.00,1.92
8369.00,1.92
8368.00,1.92
8367.00,1.92
8366.00,1.92
8365.00,1.93
8364.00,1.93
8363.00,1.93
8362.00,1.94
8361.00,1.94
8360.00,1.95
8359.00,1.95
8358.00,1.96
8357.00,1.97
8356.00,1.97
8355.00,1.98
8354.00,1.99
8353.00,2.00
8352.00,2.00
8351.00,2.01
8350.00,2.01
8349.00,2.01
8348.00,2.01
8347.00,2.00
8346.00,2.00
8345.00,1.99
8344.00,1.98
8343.00,1.97
8342.00,1.96
8341.00,1.96
8340.00,1.95
8339.00,1.94
8338.00,1.93
8337.00,1.93
8336.00,1.92
8335.00,1.91
8334.00,1.91
8333.00,1.90
8332.00,1.90
8331.00,1.90
8330.00,1.89
8329.00,1.89
8328.00,1.89
8327.00,1.88
8326.00,1.88
8325.00,1.88
8324.00,1.89
8323.00,1.89
8322.00,1.90
8321.00,1.91
8320.00,1.92
8319.00,1.93
8318.00,1.95
8317.00,1.96
8316.00,1.97
8315.00,1.99
8314.00,2.00
8313.00,2.02
8312.00,2.03
8311.00,2.04
8310.00,2.06
8309.00,2.07
8308.00,2.08
8307.00,2.09
8306.00,2.10
8305.00,2.11
8304.00,2.12
8303.00,2.13
8302.00,2.13
8301.00,2.14
8300.00,2.15
8299.00,2.15
8298.00,2.16
8297.00,2.17
8296.00,2.17
8295.00,2.17
8294.00,2.18
8293.00,2.18
8292.00,2.18
8291.00,2.18
8290.00,2.18
8289.00,2.18
8288.00,2.18
8287.00,2.18
8286.00,2.18
8285.00,2.17
8284.00,2.17
8283.00,2.17
8282.00,2.17
8281.00,2.17
8280.00,2.17
8279.00,2.17
8278.00,2.17
8277.00,2.18
8276.00,2.18
8275.00,2.18
8274.00,2.19
8273.00,2.19
8272.00,2.19
8271.00,2.19
8270.00,2.19
8269.00,2.19
8268.00,2.19
8267.00,2.19
8266.00,2.19
8265.00,2.19
8264.00,2.19
8263.00,2.19
8262.00,2.19
8261.00,2.19
8260.00,2.19
8259.00,2.19
8258.00,2.19
8257.00,2.19
8256.00,2.19
8255.00,2.19
8254.00,2.19
8253.00,2.19
8252.00,2.18
8251.00,2.18
8250.00,2.17
8249.00,2.17
8248.00,2.17
8247.00,2.16
8246.00,2.16
8245.00,2.16
8244.00,2.16
8243.00,2.16
8242.00,2.16
8241.00,2.16
8240.00,2.16
8239.00,2.16
8238.00,2.17
8237.00,2.17
8236.00,2.18
8235.00,2.19
8234.00,2.20
8233.00,2.20
8232.00,2.21
8231.00,2.21
8230.00,2.22
8229.00,2.22
8228.00,2.23
8227.00,2.23
8226.00,2.24
8225.00,2.25
8224.00,2.25
8223.00,2.26
8222.00,2.27
8221.00,2.28
8220.00,2.29
8219.00,2.30
8218.00,2.31
8217.00,2.32
8216.00,2.33
8215.00,2.34
8214.00,2.34
8213.00,2.35
8212.00,2.35
8211.00,2.35
8210.00,2.35
8209.00,2.35
8208.00,2.35
8207.00,2.35
8206.00,2.35
8205.00,2.35
8204.00,2.35
8203.00,2.35
8202.00,2.35
8201.00,2.35
8200.00,2.35
8199.00,2.35
8198.00,2.35
8197.00,2.35
8196.00,2.34
8195.00,2.33
8194.00,2.33
8193.00,2.32
8192.00,2.31
8191.00,2.30
8190.00,2.29
8189.00,2.29
8188.00,2.28
8187.00,2.28
8186.00,2.27
8185.00,2.27
8184.00,2.27
8183.00,2.27
8182.00,2.27
8181.00,2.28
8180.00,2.28
8179.00,2.28
8178.00,2.29
8177.00,2.29
8176.00,2.30
8175.00,2.31
8174.00,2.31
8173.00,2.32
8172.00,2.33
8171.00,2.34
8170.00,2.35
8169.00,2.36
8168.00,2.37
8167.00,2.38
8166.00,2.38
8165.00,2.39
8164.00,2.40
8163.00,2.40
8162.00,2.40
8161.00,2.40
8160.00,2.40
8159.00,2.40
8158.00,2.39
8157.00,2.39
8156.00,2.39
8155.00,2.38
8154.00,2.38
8153.00,2.38
8152.00,2.38
8151.00,2.37
8150.00,2.37
8149.00,2.37
8148.00,2.36
8147.00,2.36
8146.00,2.35
8145.00,2.35
8144.00,2.34
8143.00,2.34
8142.00,2.34
8141.00,2.33
8140.00,2.33
8139.00,2.33
8138.00,2.34
8137.00,2.34
8136.00,2.35
8135.00,2.35
8134.00,2.36
8133.00,2.37
8132.00,2.37
8131.00,2.38
8130.00,2.38
8129.00,2.38
8128.00,2.38
8127.00,2.38
8126.00,2.38
8125.00,2.37
8124.00,2.37
8123.00,2.36
8122.00,2.36
8121.00,2.35
8120.00,2.35
8119.00,2.34
8118.00,2.33
8117.00,2.32
8116.00,2.31
8115.00,2.30
8114.00,2.29
8113.00,2.27
8112.00,2.25
8111.00,2.23
8110.00,2.21
8109.00,2.19
8108.00,2.17
8107.00,2.15
8106.00,2.13
8105.00,2.11
8104.00,2.10
8103.00,2.08
8102.00,2.06
8101.00,2.05
8100.00,2.03
8099.00,2.02
8098.00,2.01
8097.00,2.00
8096.00,1.99
8095.00,1.97
8094.00,1.96
8093.00,1.95
8092.00,1.94
8091.00,1.93
8090.00,1.93
8089.00,1.92
8088.00,1.92
8087.00,1.91
8086.00,1.92
8085.00,1.92
8084.00,1.92
8083.00,1.93
8082.00,1.94
8081.00,1.95
8080.00,1.96
8079.00,1.97
8078.00,1.98
8077.00,1.99
8076.00,2.00
8075.00,2.01
8074.00,2.02
8073.00,2.03
8072.00,2.04
8071.00,2.04
8070.00,2.05
8069.00,2.07
8068.00,2.08
8067.00,2.09
8066.00,2.10
8065.00,2.12
8064.00,2.13
8063.00,2.14
8062.00,2.16
8061.00,2.17
8060.00,2.18
8059.00,2.18
8058.00,2.19
8057.00,2.20
8056.00,2.20
8055.00,2.21
8054.00,2.21
8053.00,2.22
8052.00,2.22
8051.00,2.23
8050.00,2.24
8049.00,2.24
8048.00,2.25
8047.00,2.26
8046.00,2.27
8045.00,2.28
8044.00,2.29
8043.00,2.30
8042.00,2.31
8041.00,2.32
8040.00,2.33
8039.00,2.34
8038.00,2.35
8037.00,2.35
8036.00,2.36
8035.00,2.37
8034.00,2.38
8033.00,2.39
8032.00,2.40
8031.00,2.41
8030.00,2.42
8029.00,2.43
8028.00,2.45
8027.00,2.46
8026.00,2.46
8025.00,2.47
8024.00,2.48
8023.00,2.48
8022.00,2.48
8021.00,2.48
8020.00,2.48
8019.00,2.48
8018.00,2.48
8017.00,2.47
8016.00,2.47
8015.00,2.46
8014.00,2.46
8013.00,2.45
8012.00,2.45
8011.00,2.45
8010.00,2.44
8009.00,2.44
8008.00,2.43
8007.00,2.43
8006.00,2.42
8005.00,2.42
8004.00,2.41
8003.00,2.40
8002.00,2.39
8001.00,2.38
8000.00,2.37
7999.00,2.37
7998.00,2.36
7997.00,2.36
7996.00,2.35
7995.00,2.35
7994.00,2.35
7993.00,2.35
7992.00,2.35
7991.00,2.35
7990.00,2.35
7989.00,2.35
7988.00,2.35
7987.00,2.35
7986.00,2.35
7985.00,2.35
7984.00,2.35
7983.00,2.34
7982.00,2.34
7981.00,2.34
7980.00,2.33
7979.00,2.33
7978.00,2.32
7977.00,2.32
7976.00,2.31
7975.00,2.31
7974.00,2.30
7973.00,2.29
7972.00,2.29
7971.00,2.28
7970.00,2.27
7969.00,2.27
7968.00,2.26
7967.00,2.26
7966.00,2.25
7965.00,2.25
7964.00,2.25
7963.00,2.24
7962.00,2.24
7961.00,2.24
7960.00,2.23
7959.00,2.23
7958.00,2.23
7957.00,2.22
7956.00,2.22
7955.00,2.22
7954.00,2.22
7953.00,2.22
7952.00,2.22
7951.00,2.22
7950.00,2.23
7949.00,2.23
7948.00,2.23
7947.00,2.24
7946.00,2.24
7945.00,2.24
7944.00,2.24
7943.00,2.24
7942.00,2.24
7941.00,2.24
7940.00,2.23
7939.00,2.23
7938.00,2.22
7937.00,2.22
7936.00,2.22
7935.00,2.22
7934.00,2.22
7933.00,2.22
7932.00,2.22
7931.00,2.22
7930.00,2.22
7929.00,2.23
7928.00,2.23
7927.00,2.24
7926.00,2.25
7925.00,2.25
7924.00,2.26
7923.00,2.27
7922.00,2.28
7921.00,2.29
7920.00,2.30
7919.00,2.31
7918.00,2.32
7917.00,2.34
7916.00,2.35
7915.00,2.36
7914.00,2.38
7913.00,2.39
7912.00,2.40
7911.00,2.42
7910.00,2.43
7909.00,2.44
7908.00,2.45
7907.00,2.47
7906.00,2.47
7905.00,2.48
7904.00,2.49
7903.00,2.50
7902.00,2.50
7901.00,2.50
7900.00,2.50
7899.00,2.50
7898.00,2.49
7897.00,2.49
7896.00,2.49
7895.00,2.48
7894.00,2.48
7893.00,2.48
7892.00,2.48
7891.00,2.47
7890.00,2.47
7889.00,2.47
7888.00,2.47
7887.00,2.46
7886.00,2.46
7885.00,2.45
7884.00,2.45
7883.00,2.44
7882.00,2.44
7881.00,2.43
7880.00,2.43
7879.00,2.43
7878.00,2.42
7877.00,2.42
7876.00,2.42
7875.00,2.42
7874.00,2.42
7873.00,2.42
7872.00,2.42
7871.00,2.42
7870.00,2.42
7869.00,2.42
7868.00,2.42
7867.00,2.41
7866.00,2.41
7865.00,2.41
7864.00,2.40
7863.00,2.40
7862.00,2.39
7861.00,2.39
7860.00,2.39
7859.00,2.39
7858.00,2.39
7857.00,2.39
7856.00,2.39
7855.00,2.39
7854.00,2.39
7853.00,2.39
7852.00,2.38
7851.00,2.38
7850.00,2.37
7849.00,2.37
7848.00,2.37
7847.00,2.36
7846.00,2.36
7845.00,2.36
7844.00,2.35
7843.00,2.35
7842.00,2.35
7841.00,2.36
7840.00,2.36
7839.00,2.36
7838.00,2.37
7837.00,2.37
7836.00,2.38
7835.00,2.38
7834.00,2.38
7833.00,2.39
7832.00,2.39
7831.00,2.39
7830.00,2.39
7829.00,2.40
7828.00,2.40
7827.00,2.41
7826.00,2.41
7825.00,2.42
7824.00,2.43
7823.00,2.44
7822.00,2.44
7821.00,2.45
7820.00,2.46
7819.00,2.46
7818.00,2.47
7817.00,2.48
7816.00,2.48
7815.00,2.49
7814.00,2.50
7813.00,2.50
7812.00,2.51
7811.00,2.52
7810.00,2.52
7809.00,2.53
7808.00,2.53
7807.00,2.53
7806.00,2.53
7805.00,2.53
7804.00,2.54
7803.00,2.54
7802.00,2.54
7801.00,2.54
7800.00,2.54
7799.00,2.55
7798.00,2.55
7797.00,2.55
7796.00,2.56
7795.00,2.56
7794.00,2.57
7793.00,2.57
7792.00,2.58
7791.00,2.58
7790.00,2.58
7789.00,2.58
7788.00,2.58
7787.00,2.58
7786.00,2.58
7785.00,2.57
7784.00,2.57
7783.00,2.57
7782.00,2.57
7781.00,2.57
7780.00,2.58
7779.00,2.58
7778.00,2.58
7777.00,2.58
7776.00,2.59
7775.00,2.59
7774.00,2.59
7773.00,2.59
7772.00,2.59
7771.00,2.58
7770.00,2.58
7769.00,2.58
7768.00,2.57
7767.00,2.57
7766.00,2.56
7765.00,2.55
7764.00,2.55
7763.00,2.54
7762.00,2.54
7761.00,2.53
7760.00,2.52
7759.00,2.52
7758.00,2.51
7757.00,2.51
7756.00,2.50
7755.00,2.50
7754.00,2.49
7753.00,2.49
7752.00,2.48
7751.00,2.47
7750.00,2.47
7749.00,2.46
7748.00,2.46
7747.00,2.46
7746.00,2.45
7745.00,2.45
7744.00,2.44
7743.00,2.44
7742.00,2.43
7741.00,2.43
7740.00,2.43
7739.00,2.43
7738.00,2.43
7737.00,2.43
7736.00,2.43
7735.00,2.43
7734.00,2.43
7733.00,2.44
7732.00,2.44
7731.00,2.44
7730.00,2.44
7729.00,2.45
7728.00,2.45
7727.00,2.45
7726.00,2.45
7725.00,2.46
7724.00,2.46
7723.00,2.46
7722.00,2.47
7721.00,2.47
7720.00,2.48
7719.00,2.49
7718.00,2.49
7717.00,2.50
7716.00,2.51
7715.00,2.51
7714.00,2.52
7713.00,2.52
7712.00,2.53
7711.00,2.53
7710.00,2.54
7709.00,2.54
7708.00,2.54
7707.00,2.55
7706.00,2.55
7705.00,2.55
7704.00,2.55
7703.00,2.55
7702.00,2.55
7701.00,2.55
7700.00,2.55
7699.00,2.55
7698.00,2.54
7697.00,2.53
7696.00,2.53
7695.00,2.52
7694.00,2.51
7693.00,2.50
7692.00,2.49
7691.00,2.48
7690.00,2.46
7689.00,2.45
7688.00,2.44
7687.00,2.44
7686.00,2.43
7685.00,2.42
7684.00,2.41
7683.00,2.40
7682.00,2.39
7681.00,2.38
7680.00,2.37
7679.00,2.37
7678.00,2.36
7677.00,2.35
7676.00,2.35
7675.00,2.34
7674.00,2.33
7673.00,2.33
7672.00,2.33
7671.00,2.32
7670.00,2.32
7669.00,2.32
7668.00,2.32
7667.00,2.33
7666.00,2.33
7665.00,2.33
7664.00,2.33
7663.00,2.34
7662.00,2.34
7661.00,2.34
7660.00,2.34
7659.00,2.35
7658.00,2.35
7657.00,2.35
7656.00,2.36
7655.00,2.36
7654.00,2.37
7653.00,2.37
7652.00,2.38
7651.00,2.39
7650.00,2.40
7649.00,2.41
7648.00,2.42
7647.00,2.43
7646.00,2.44
7645.00,2.45
7644.00,2.46
7643.00,2.48
7642.00,2.49
7641.00,2.51
7640.00,2.52
7639.00,2.53
7638.00,2.55
7637.00,2.56
7636.00,2.57
7635.00,2.58
7634.00,2.59
7633.00,2.60
7632.00,2.61
7631.00,2.62
7630.00,2.63
7629.00,2.63
7628.00,2.63
7627.00,2.64
7626.00,2.64
7625.00,2.64
7624.00,2.64
7623.00,2.64
7622.00,2.64
7621.00,2.64
7620.00,2.63
7619.00,2.63
7618.00,2.62
7617.00,2.61
7616.00,2.60
7615.00,2.59
7614.00,2.58
7613.00,2.57
7612.00,2.56
7611.00,2.55
7610.00,2.54
7609.00,2.53
7608.00,2.52
7607.00,2.51
7606.00,2.51
7605.00,2.50
7604.00,2.50
7603.00,2.49
7602.00,2.49
7601.00,2.48
7600.00,2.48
7599.00,2.48
7598.00,2.47
7597.00,2.47
7596.00,2.46
7595.00,2.46
7594.00,2.46
7593.00,2.46
7592.00,2.45
7591.00,2.45
7590.00,2.45
7589.00,2.45
7588.00,2.45
7587.00,2.45
7586.00,2.44
7585.00,2.44
7584.00,2.44
7583.00,2.43
7582.00,2.43
7581.00,2.42
7580.00,2.42
7579.00,2.42
7578.00,2.41
7577.00,2.41
7576.00,2.41
7575.00,2.41
7574.00,2.40
7573.00,2.40
7572.00,2.40
7571.00,2.40
7570.00,2.40
7569.00,2.40
7568.00,2.40
7567.00,2.41
7566.00,2.41
7565.00,2.41
7564.00,2.41
7563.00,2.41
7562.00,2.41
7561.00,2.41
7560.00,2.42
7559.00,2.42
7558.00,2.42
7557.00,2.43
7556.00,2.43
7555.00,2.43
7554.00,2.44
7553.00,2.44
7552.00,2.44
7551.00,2.44
7550.00,2.44
7549.00,2.43
7548.00,2.43
7547.00,2.43
7546.00,2.43
7545.00,2.43
7544.00,2.43
7543.00,2.43
7542.00,2.43
7541.00,2.43
7540.00,2.43
7539.00,2.43
7538.00,2.43
7537.00,2.43
7536.00,2.43
7535.00,2.44
7534.00,2.44
7533.00,2.44
7532.00,2.44
7531.00,2.44
7530.00,2.45
7529.00,2.45
7528.00,2.45
7527.00,2.46
7526.00,2.46
7525.00,2.47
7524.00,2.48
7523.00,2.48
7522.00,2.49
7521.00,2.50
7520.00,2.51
7519.00,2.52
7518.00,2.53
7517.00,2.54
7516.00,2.55
7515.00,2.55
7514.00,2.56
7513.00,2.56
7512.00,2.56
7511.00,2.56
7510.00,2.57
7509.00,2.57
7508.00,2.57
7507.00,2.57
7506.00,2.57
7505.00,2.57
7504.00,2.57
7503.00,2.57
7502.00,2.57
7501.00,2.57
7500.00,2.57
7499.00,2.57
7498.00,2.56
7497.00,2.56
7496.00,2.56
7495.00,2.55
7494.00,2.55
7493.00,2.54
7492.00,2.53
7491.00,2.53
7490.00,2.52
7489.00,2.51
7488.00,2.51
7487.00,2.50
7486.00,2.50
7485.00,2.49
7484.00,2.48
7483.00,2.48
7482.00,2.47
7481.00,2.47
7480.00,2.46
7479.00,2.46
7478.00,2.46
7477.00,2.45
7476.00,2.45
7475.00,2.44
7474.00,2.43
7473.00,2.43
7472.00,2.42
7471.00,2.42
7470.00,2.41
7469.00,2.41
7468.00,2.40
7467.00,2.40
7466.00,2.40
7465.00,2.40
7464.00,2.40
7463.00,2.40
7462.00,2.40
7461.00,2.40
7460.00,2.40
7459.00,2.40
7458.00,2.41
7457.00,2.41
7456.00,2.41
7455.00,2.42
7454.00,2.42
7453.00,2.42
7452.00,2.43
7451.00,2.43
7450.00,2.43
7449.00,2.44
7448.00,2.44
7447.00,2.45
7446.00,2.45
7445.00,2.45
7444.00,2.46
7443.00,2.46
7442.00,2.47
7441.00,2.47
7440.00,2.47
7439.00,2.47
7438.00,2.47
7437.00,2.47
7436.00,2.47
7435.00,2.48
7434.00,2.48
7433.00,2.48
7432.00,2.48
7431.00,2.48
7430.00,2.48
7429.00,2.48
7428.00,2.48
7427.00,2.48
7426.00,2.48
7425.00,2.48
7424.00,2.48
7423.00,2.48
7422.00,2.48
7421.00,2.48
7420.00,2.48
7419.00,2.48
7418.00,2.48
7417.00,2.48
7416.00,2.48
7415.00,2.48
7414.00,2.48
7413.00,2.48
7412.00,2.48
7411.00,2.48
7410.00,2.47
7409.00,2.47
7408.00,2.47
7407.00,2.46
7406.00,2.46
7405.00,2.45
7404.00,2.45
7403.00,2.44
7402.00,2.43
7401.00,2.43
7400.00,2.42
7399.00,2.42
7398.00,2.41
7397.00,2.40
7396.00,2.40
7395.00,2.39
7394.00,2.39
7393.00,2.38
7392.00,2.37
7391.00,2.37
7390.00,2.36
7389.00,2.36
7388.00,2.36
7387.00,2.35
7386.00,2.35
7385.00,2.35
7384.00,2.35
7383.00,2.35
7382.00,2.36
7381.00,2.36
7380.00,2.37
7379.00,2.38
7378.00,2.39
7377.00,2.40
7376.00,2.40
7375.00,2.41
7374.00,2.42
7373.00,2.43
7372.00,2.44
7371.00,2.46
7370.00,2.47
7369.00,2.48
7368.00,2.50
7367.00,2.51
7366.00,2.53
7365.00,2.54
7364.00,2.56
7363.00,2.57
7362.00,2.59
7361.00,2.60
7360.00,2.62
7359.00,2.63
7358.00,2.64
7357.00,2.65
7356.00,2.66
7355.00,2.67
7354.00,2.67
7353.00,2.68
7352.00,2.69
7351.00,2.69
7350.00,2.69
7349.00,2.70
7348.00,2.70
7347.00,2.69
7346.00,2.69
7345.00,2.69
7344.00,2.68
7343.00,2.67
7342.00,2.66
7341.00,2.65
7340.00,2.64
7339.00,2.62
7338.00,2.61
7337.00,2.60
7336.00,2.58
7335.00,2.57
7334.00,2.56
7333.00,2.55
7332.00,2.54
7331.00,2.53
7330.00,2.51
7329.00,2.50
7328.00,2.49
7327.00,2.48
7326.00,2.47
7325.00,2.46
7324.00,2.45
7323.00,2.44
7322.00,2.43
7321.00,2.43
7320.00,2.42
7319.00,2.42
7318.00,2.42
7317.00,2.43
7316.00,2.43
7315.00,2.43
7314.00,2.43
7313.00,2.43
7312.00,2.44
7311.00,2.44
7310.00,2.44
7309.00,2.43
7308.00,2.43
7307.00,2.43
7306.00,2.43
7305.00,2.43
7304.00,2.43
7303.00,2.43
7302.00,2.43
7301.00,2.43
7300.00,2.43
7299.00,2.43
7298.00,2.43
7297.00,2.44
7296.00,2.44
7295.00,2.43
7294.00,2.43
7293.00,2.43
7292.00,2.42
7291.00,2.41
7290.00,2.41
7289.00,2.40
7288.00,2.39
7287.00,2.39
7286.00,2.38
7285.00,2.38
7284.00,2.37
7283.00,2.37
7282.00,2.37
7281.00,2.37
7280.00,2.36
7279.00,2.36
7278.00,2.36
7277.00,2.35
7276.00,2.34
7275.00,2.34
7274.00,2.33
7273.00,2.32
7272.00,2.31
7271.00,2.31
7270.00,2.30
7269.00,2.29
7268.00,2.28
7267.00,2.28
7266.00,2.28
7265.00,2.27
7264.00,2.27
7263.00,2.27
7262.00,2.27
7261.00,2.26
7260.00,2.26
7259.00,2.26
7258.00,2.26
7257.00,2.25
7256.00,2.25
7255.00,2.25
7254.00,2.25
7253.00,2.24
7252.00,2.24
7251.00,2.24
7250.00,2.24
7249.00,2.24
7248.00,2.24
7247.00,2.24
7246.00,2.24
7245.00,2.25
7244.00,2.25
7243.00,2.25
7242.00,2.25
7241.00,2.25
7240.00,2.25
7239.00,2.25
7238.00,2.25
7237.00,2.25
7236.00,2.25
7235.00,2.24
7234.00,2.24
7233.00,2.24
7232.00,2.24
7231.00,2.24
7230.00,2.24
7229.00,2.24
7228.00,2.24
7227.00,2.24
7226.00,2.24
7225.00,2.24
7224.00,2.24
7223.00,2.24
7222.00,2.24
7221.00,2.24
7220.00,2.23
7219.00,2.23
7218.00,2.23
7217.00,2.22
7216.00,2.22
7215.00,2.22
7214.00,2.21
7213.00,2.20
7212.00,2.20
7211.00,2.19
7210.00,2.18
7209.00,2.17
7208.00,2.16
7207.00,2.15
7206.00,2.14
7205.00,2.13
7204.00,2.12
7203.00,2.10
7202.00,2.09
7201.00,2.08
7200.00,2.06
7199.00,2.05
7198.00,2.04
7197.00,2.03
7196.00,2.02
7195.00,2.01
7194.00,2.01
7193.00,2.00
7192.00,1.99
7191.00,1.99
7190.00,1.98
7189.00,1.98
7188.00,1.98
7187.00,1.98
7186.00,1.98
7185.00,1.98
7184.00,1.98
7183.00,1.99
7182.00,1.99
7181.00,1.99
7180.00,2.00
7179.00,2.00
7178.00,2.01
7177.00,2.01
7176.00,2.02
7175.00,2.02
7174.00,2.02
7173.00,2.02
7172.00,2.03
7171.00,2.03
7170.00,2.03
7169.00,2.02
7168.00,2.02
7167.00,2.02
7166.00,2.01
7165.00,2.00
7164.00,2.00
7163.00,1.99
7162.00,1.98
7161.00,1.97
7160.00,1.95
7159.00,1.94
7158.00,1.92
7157.00,1.91
7156.00,1.89
7155.00,1.88
7154.00,1.86
7153.00,1.85
7152.00,1.83
7151.00,1.82
7150.00,1.81
7149.00,1.79
7148.00,1.78
7147.00,1.76
7146.00,1.75
7145.00,1.73
7144.00,1.72
7143.00,1.70
7142.00,1.69
7141.00,1.67
7140.00,1.66
7139.00,1.64
7138.00,1.63
7137.00,1.62
7136.00,1.61
7135.00,1.60
7134.00,1.59
7133.00,1.58
7132.00,1.58
7131.00,1.57
7130.00,1.57
7129.00,1.56
7128.00,1.55
7127.00,1.55
7126.00,1.54
7125.00,1.54
7124.00,1.53
7123.00,1.52
7122.00,1.52
7121.00,1.52
7120.00,1.52
7119.00,1.52
7118.00,1.52
7117.00,1.52
7116.00,1.52
7115.00,1.53
7114.00,1.53
7113.00,1.54
7112.00,1.54
7111.00,1.55
7110.00,1.55
7109.00,1.56
7108.00,1.56
7107.00,1.57
7106.00,1.57
7105.00,1.57
7104.00,1.58
7103.00,1.58
7102.00,1.59
7101.00,1.59
7100.00,1.60
7099.00,1.60
7098.00,1.61
7097.00,1.61
7096.00,1.62
7095.00,1.62
7094.00,1.62
7093.00,1.63
7092.00,1.63
7091.00,1.63
7090.00,1.63
7089.00,1.62
7088.00,1.62
7087.00,1.62
7086.00,1.61
7085.00,1.61
7084.00,1.60
7083.00,1.59
7082.00,1.59
7081.00,1.58
7080.00,1.57
7079.00,1.56
7078.00,1.56
7077.00,1.55
7076.00,1.54
7075.00,1.53
7074.00,1.52
7073.00,1.51
7072.00,1.50
7071.00,1.49
7070.00,1.48
7069.00,1.47
7068.00,1.46
7067.00,1.45
7066.00,1.44
7065.00,1.44
7064.00,1.43
7063.00,1.42
7062.00,1.42
7061.00,1.41
7060.00,1.41
7059.00,1.41
7058.00,1.41
7057.00,1.41
7056.00,1.41
7055.00,1.40
7054.00,1.40
7053.00,1.40
7052.00,1.40
7051.00,1.40
7050.00,1.40
7049.00,1.40
7048.00,1.40
7047.00,1.40
7046.00,1.40
7045.00,1.40
7044.00,1.41
7043.00,1.41
7042.00,1.41
7041.00,1.41
7040.00,1.42
7039.00,1.42
7038.00,1.42
7037.00,1.42
7036.00,1.42
7035.00,1.41
7034.00,1.41
7033.00,1.41
7032.00,1.41
7031.00,1.41
7030.00,1.41
7029.00,1.41
7028.00,1.41
7027.00,1.42
7026.00,1.42
7025.00,1.42
7024.00,1.42
7023.00,1.42
7022.00,1.42
7021.00,1.42
7020.00,1.42
7019.00,1.42
7018.00,1.42
7017.00,1.42
7016.00,1.42
7015.00,1.42
7014.00,1.42
7013.00,1.43
7012.00,1.43
7011.00,1.43
7010.00,1.43
7009.00,1.43
7008.00,1.43
7007.00,1.43
7006.00,1.43
7005.00,1.43
7004.00,1.43
7003.00,1.43
7002.00,1.43
7001.00,1.43
7000.00,1.42
6999.00,1.42
6998.00,1.42
6997.00,1.41
6996.00,1.41
6995.00,1.41
6994.00,1.40
6993.00,1.40
6992.00,1.39
6991.00,1.39
6990.00,1.39
6989.00,1.39
6988.00,1.39
6987.00,1.39
6986.00,1.39
6985.00,1.38
6984.00,1.38
6983.00,1.38
6982.00,1.38
6981.00,1.38
6980.00,1.38
6979.00,1.37
6978.00,1.37
6977.00,1.37
6976.00,1.37
6975.00,1.36
6974.00,1.36
6973.00,1.35
6972.00,1.35
6971.00,1.35
6970.00,1.34
6969.00,1.34
6968.00,1.34
6967.00,1.33
6966.00,1.33
6965.00,1.32
6964.00,1.32
6963.00,1.31
6962.00,1.30
6961.00,1.30
6960.00,1.29
6959.00,1.28
6958.00,1.27
6957.00,1.26
6956.00,1.25
6955.00,1.24
6954.00,1.24
6953.00,1.23
6952.00,1.22
6951.00,1.21
6950.00,1.21
6949.00,1.20
6948.00,1.20
6947.00,1.20
6946.00,1.20
6945.00,1.19
6944.00,1.19
6943.00,1.19
6942.00,1.19
6941.00,1.19
6940.00,1.18
6939.00,1.18
6938.00,1.18
6937.00,1.18
6936.00,1.18
6935.00,1.17
6934.00,1.17
6933.00,1.17
6932.00,1.17
6931.00,1.17
6930.00,1.17
6929.00,1.17
6928.00,1.17
6927.00,1.17
6926.00,1.18
6925.00,1.18
6924.00,1.18
6923.00,1.18
6922.00,1.18
6921.00,1.17
6920.00,1.17
6919.00,1.17
6918.00,1.17
6917.00,1.17
6916.00,1.17
6915.00,1.17
6914.00,1.17
6913.00,1.17
6912.00,1.18
6911.00,1.18
6910.00,1.19
6909.00,1.19
6908.00,1.20
6907.00,1.21
6906.00,1.21
6905.00,1.22
6904.00,1.22
6903.00,1.23
6902.00,1.23
6901.00,1.24
6900.00,1.24
6899.00,1.24
6898.00,1.25
6897.00,1.25
6896.00,1.26
6895.00,1.26
6894.00,1.27
6893.00,1.27
6892.00,1.28
6891.00,1.28
6890.00,1.29
6889.00,1.29
6888.00,1.30
6887.00,1.30
6886.00,1.30
6885.00,1.30
6884.00,1.31
6883.00,1.31
6882.00,1.31
6881.00,1.31
6880.00,1.31
6879.00,1.31
6878.00,1.31
6877.00,1.31
6876.00,1.31
6875.00,1.31
6874.00,1.31
6873.00,1.32
6872.00,1.32
6871.00,1.32
6870.00,1.32
6869.00,1.32
6868.00,1.32
6867.00,1.32
6866.00,1.32
6865.00,1.31
6864.00,1.31
6863.00,1.31
6862.00,1.31
6861.00,1.31
6860.00,1.31
6859.00,1.31
6858.00,1.31
6857.00,1.31
6856.00,1.31
6855.00,1.31
6854.00,1.31
6853.00,1.31
6852.00,1.31
6851.00,1.30
6850.00,1.30
6849.00,1.30
6848.00,1.30
6847.00,1.30
6846.00,1.30
6845.00,1.30
6844.00,1.30
6843.00,1.30
6842.00,1.30
6841.00,1.30
6840.00,1.30
6839.00,1.30
6838.00,1.30
6837.00,1.30
6836.00,1.30
6835.00,1.31
6834.00,1.31
6833.00,1.31
6832.00,1.31
6831.00,1.31
6830.00,1.31
6829.00,1.32
6828.00,1.32
6827.00,1.32
6826.00,1.32
6825.00,1.32
6824.00,1.32
6823.00,1.32
6822.00,1.32
6821.00,1.32
6820.00,1.32
6819.00,1.32
6818.00,1.32
6817.00,1.32
6816.00,1.32
6815.00,1.32
6814.00,1.32
6813.00,1.31
6812.00,1.31
6811.00,1.31
6810.00,1.30
6809.00,1.30
6808.00,1.29
6807.00,1.29
6806.00,1.28
6805.00,1.27
6804.00,1.26
6803.00,1.25
6802.00,1.25
6801.00,1.24
6800.00,1.23
6799.00,1.22
6798.00,1.22
6797.00,1.21
6796.00,1.20
6795.00,1.20
6794.00,1.19
6793.00,1.18
6792.00,1.18
6791.00,1.17
6790.00,1.17
6789.00,1.16
6788.00,1.16
6787.00,1.16
6786.00,1.15
6785.00,1.15
6784.00,1.15
6783.00,1.14
6782.00,1.14
6781.00,1.14
6780.00,1.14
6779.00,1.15
6778.00,1.15
6777.00,1.16
6776.00,1.16
6775.00,1.17
6774.00,1.18
6773.00,1.18
6772.00,1.19
6771.00,1.19
6770.00,1.20
6769.00,1.20
6768.00,1.21
6767.00,1.21
6766.00,1.22
6765.00,1.23
6764.00,1.23
6763.00,1.24
6762.00,1.25
6761.00,1.25
6760.00,1.26
6759.00,1.27
6758.00,1.28
6757.00,1.28
6756.00,1.29
6755.00,1.30
6754.00,1.30
6753.00,1.31
6752.00,1.31
6751.00,1.32
6750.00,1.32
6749.00,1.32
6748.00,1.32
6747.00,1.33
6746.00,1.33
6745.00,1.33
6744.00,1.34
6743.00,1.34
6742.00,1.35
6741.00,1.35
6740.00,1.36
6739.00,1.36
6738.00,1.37
6737.00,1.37
6736.00,1.38
6735.00,1.38
6734.00,1.39
6733.00,1.39
6732.00,1.40
6731.00,1.40
6730.00,1.41
6729.00,1.41
6728.00,1.42
6727.00,1.43
6726.00,1.43
6725.00,1.44
6724.00,1.45
6723.00,1.45
6722.00,1.46
6721.00,1.47
6720.00,1.47
6719.00,1.48
6718.00,1.48
6717.00,1.49
6716.00,1.49
6715.00,1.49
6714.00,1.50
6713.00,1.50
6712.00,1.50
6711.00,1.50
6710.00,1.50
6709.00,1.51
6708.00,1.51
6707.00,1.51
6706.00,1.51
6705.00,1.51
6704.00,1.51
6703.00,1.51
6702.00,1.52
6701.00,1.52
6700.00,1.52
6699.00,1.52
6698.00,1.52
6697.00,1.52
6696.00,1.52
6695.00,1.53
6694.00,1.53
6693.00,1.53
6692.00,1.53
6691.00,1.54
6690.00,1.54
6689.00,1.54
6688.00,1.55
6687.00,1.55
6686.00,1.55
6685.00,1.55
6684.00,1.55
6683.00,1.55
6682.00,1.55
6681.00,1.55
6680.00,1.55
6679.00,1.55
6678.00,1.55
6677.00,1.55
6676.00,1.54
6675.00,1.54
6674.00,1.54
6673.00,1.54
6672.00,1.54
6671.00,1.54
6670.00,1.53
6669.00,1.53
6668.00,1.53
6667.00,1.53
6666.00,1.53
6665.00,1.53
6664.00,1.53
6663.00,1.53
6662.00,1.53
6661.00,1.53
6660.00,1.53
6659.00,1.53
6658.00,1.53
6657.00,1.54
6656.00,1.54
6655.00,1.55
6654.00,1.55
6653.00,1.56
6652.00,1.56
6651.00,1.57
6650.00,1.57
6649.00,1.58
6648.00,1.58
6647.00,1.59
6646.00,1.59
6645.00,1.59
6644.00,1.60
6643.00,1.60
6642.00,1.60
6641.00,1.60
6640.00,1.61
6639.00,1.61
6638.00,1.61
6637.00,1.61
6636.00,1.62
6635.00,1.62
6634.00,1.62
6633.00,1.62
6632.00,1.62
6631.00,1.63
6630.00,1.63
6629.00,1.63
6628.00,1.63
6627.00,1.63
6626.00,1.63
6625.00,1.64
6624.00,1.64
6623.00,1.64
6622.00,1.65
6621.00,1.65
6620.00,1.66
6619.00,1.66
6618.00,1.67
6617.00,1.68
6616.00,1.68
6615.00,1.69
6614.00,1.70
6613.00,1.71
6612.00,1.71
6611.00,1.72
6610.00,1.73
6609.00,1.73
6608.00,1.74
6607.00,1.75
6606.00,1.76
6605.00,1.77
6604.00,1.77
6603.00,1.78
6602.00,1.79
6601.00,1.79
6600.00,1.80
6599.00,1.80
6598.00,1.81
6597.00,1.81
6596.00,1.81
6595.00,1.82
6594.00,1.82
6593.00,1.82
6592.00,1.82
6591.00,1.82
6590.00,1.82
6589.00,1.82
6588.00,1.82
6587.00,1.82
6586.00,1.81
6585.00,1.81
6584.00,1.81
6583.00,1.80
6582.00,1.80
6581.00,1.79
6580.00,1.79
6579.00,1.78
6578.00,1.78
6577.00,1.77
6576.00,1.77
6575.00,1.76
6574.00,1.76
6573.00,1.76
6572.00,1.75
6571.00,1.75
6570.00,1.75
6569.00,1.75
6568.00,1.75
6567.00,1.75
6566.00,1.75
6565.00,1.74
6564.00,1.74
6563.00,1.74
6562.00,1.74
6561.00,1.74
6560.00,1.75
6559.00,1.75
6558.00,1.75
6557.00,1.75
6556.00,1.76
6555.00,1.76
6554.00,1.77
6553.00,1.78
6552.00,1.78
6551.00,1.79
6550.00,1.79
6549.00,1.80
6548.00,1.81
6547.00,1.81
6546.00,1.82
6545.00,1.83
6544.00,1.83
6543.00,1.84
6542.00,1.84
6541.00,1.85
6540.00,1.85
6539.00,1.86
6538.00,1.86
6537.00,1.87
6536.00,1.87
6535.00,1.88
6534.00,1.88
6533.00,1.89
6532.00,1.89
6531.00,1.90
6530.00,1.90
6529.00,1.90
6528.00,1.90
6527.00,1.91
6526.00,1.91
6525.00,1.90
6524.00,1.90
6523.00,1.90
6522.00,1.90
6521.00,1.90
6520.00,1.89
6519.00,1.89
6518.00,1.89
6517.00,1.88
6516.00,1.88
6515.00,1.88
6514.00,1.87
6513.00,1.87
6512.00,1.87
6511.00,1.86
6510.00,1.86
6509.00,1.85
6508.00,1.85
6507.00,1.84
6506.00,1.84
6505.00,1.83
6504.00,1.83
6503.00,1.83
6502.00,1.82
6501.00,1.82
6500.00,1.82
6499.00,1.82
6498.00,1.82
6497.00,1.83
6496.00,1.83
6495.00,1.84
6494.00,1.84
6493.00,1.85
6492.00,1.86
6491.00,1.86
6490.00,1.87
6489.00,1.88
6488.00,1.89
6487.00,1.90
6486.00,1.91
6485.00,1.92
6484.00,1.93
6483.00,1.94
6482.00,1.95
6481.00,1.96
6480.00,1.97
6479.00,1.98
6478.00,1.98
6477.00,1.99
6476.00,2.00
6475.00,2.01
6474.00,2.01
6473.00,2.02
6472.00,2.02
6471.00,2.02
6470.00,2.03
6469.00,2.03
6468.00,2.03
6467.00,2.03
6466.00,2.04
6465.00,2.04
6464.00,2.04
6463.00,2.04
6462.00,2.03
6461.00,2.03
6460.00,2.03
6459.00,2.03
6458.00,2.03
6457.00,2.02
6456.00,2.02
6455.00,2.02
6454.00,2.02
6453.00,2.02
6452.00,2.01
6451.00,2.01
6450.00,2.01
6449.00,2.02
6448.00,2.02
6447.00,2.02
6446.00,2.02
6445.00,2.02
6444.00,2.02
6443.00,2.02
6442.00,2.02
6441.00,2.01
6440.00,2.01
6439.00,2.01
6438.00,2.01
6437.00,2.01
6436.00,2.01
6435.00,2.01
6434.00,2.01
6433.00,2.01
6432.00,2.01
6431.00,2.01
6430.00,2.01
6429.00,2.01
6428.00,2.01
6427.00,2.01
6426.00,2.01
6425.00,2.01
6424.00,2.00
6423.00,2.00
6422.00,2.00
6421.00,2.00
6420.00,2.00
6419.00,1.99
6418.00,1.99
6417.00,2.00
6416.00,2.00
6415.00,2.00
6414.00,2.00
6413.00,2.01
6412.00,2.01
6411.00,2.02
6410.00,2.02
6409.00,2.02
6408.00,2.03
6407.00,2.03
6406.00,2.04
6405.00,2.05
6404.00,2.05
6403.00,2.06
6402.00,2.06
6401.00,2.07
6400.00,2.08
6399.00,2.09
6398.00,2.10
6397.00,2.11
6396.00,2.12
6395.00,2.13
6394.00,2.14
6393.00,2.15
6392.00,2.16
6391.00,2.17
6390.00,2.18
6389.00,2.19
6388.00,2.20
6387.00,2.21
6386.00,2.22
6385.00,2.22
6384.00,2.23
6383.00,2.24
6382.00,2.24
6381.00,2.25
6380.00,2.25
6379.00,2.26
6378.00,2.26
6377.00,2.26
6376.00,2.27
6375.00,2.27
6374.00,2.28
6373.00,2.28
6372.00,2.28
6371.00,2.28
6370.00,2.29
6369.00,2.29
6368.00,2.29
6367.00,2.29
6366.00,2.29
6365.00,2.29
6364.00,2.29
6363.00,2.29
6362.00,2.29
6361.00,2.30
6360.00,2.30
6359.00,2.30
6358.00,2.30
6357.00,2.30
6356.00,2.30
6355.00,2.30
6354.00,2.31
6353.00,2.31
6352.00,2.31
6351.00,2.31
6350.00,2.31
6349.00,2.32
6348.00,2.32
6347.00,2.32
6346.00,2.32
6345.00,2.32
6344.00,2.32
6343.00,2.32
6342.00,2.32
6341.00,2.32
6340.00,2.32
6339.00,2.32
6338.00,2.32
6337.00,2.32
6336.00,2.31
6335.00,2.31
6334.00,2.31
6333.00,2.31
6332.00,2.31
6331.00,2.31
6330.00,2.30
6329.00,2.30
6328.00,2.30
6327.00,2.30
6326.00,2.30
6325.00,2.30
6324.00,2.30
6323.00,2.30
6322.00,2.30
6321.00,2.30
6320.00,2.30
6319.00,2.30
6318.00,2.30
6317.00,2.30
6316.00,2.30
6315.00,2.30
6314.00,2.30
6313.00,2.30
6312.00,2.30
6311.00,2.30
6310.00,2.31
6309.00,2.31
6308.00,2.31
6307.00,2.31
6306.00,2.31
6305.00,2.32
6304.00,2.32
6303.00,2.32
6302.00,2.32
6301.00,2.32
6300.00,2.32
6299.00,2.32
6298.00,2.32
6297.00,2.32
6296.00,2.32
6295.00,2.32
6294.00,2.32
6293.00,2.32
6292.00,2.32
6291.00,2.33
6290.00,2.33
6289.00,2.33
6288.00,2.33
6287.00,2.33
6286.00,2.34
6285.00,2.34
6284.00,2.34
6283.00,2.34
6282.00,2.34
6281.00,2.35
6280.00,2.35
6279.00,2.35
6278.00,2.35
6277.00,2.36
6276.00,2.36
6275.00,2.36
6274.00,2.37
6273.00,2.37
6272.00,2.37
6271.00,2.38
6270.00,2.38
6269.00,2.38
6268.00,2.39
6267.00,2.39
6266.00,2.39
6265.00,2.39
6264.00,2.39
6263.00,2.39
6262.00,2.39
6261.00,2.39
6260.00,2.39
6259.00,2.40
6258.00,2.40
6257.00,2.39
6256.00,2.39
6255.00,2.39
6254.00,2.39
6253.00,2.39
6252.00,2.39
6251.00,2.39
6250.00,2.38
6249.00,2.38
6248.00,2.38
6247.00,2.38
6246.00,2.38
6245.00,2.38
6244.00,2.37
6243.00,2.37
6242.00,2.37
6241.00,2.37
6240.00,2.37
6239.00,2.37
6238.00,2.37
6237.00,2.37
6236.00,2.37
6235.00,2.37
6234.00,2.37
6233.00,2.37
6232.00,2.37
6231.00,2.38
6230.00,2.38
6229.00,2.38
6228.00,2.38
6227.00,2.39
6226.00,2.39
6225.00,2.39
6224.00,2.40
6223.00,2.40
6222.00,2.40
6221.00,2.41
6220.00,2.41
6219.00,2.42
6218.00,2.42
6217.00,2.42
6216.00,2.42
6215.00,2.43
6214.00,2.43
6213.00,2.43
6212.00,2.43
6211.00,2.44
6210.00,2.44
6209.00,2.44
6208.00,2.45
6207.00,2.45
6206.00,2.46
6205.00,2.46
6204.00,2.46
6203.00,2.47
6202.00,2.47
6201.00,2.47
6200.00,2.48
6199.00,2.48
6198.00,2.48
6197.00,2.49
6196.00,2.49
6195.00,2.49
6194.00,2.49
6193.00,2.50
6192.00,2.50
6191.00,2.50
6190.00,2.51
6189.00,2.51
6188.00,2.52
6187.00,2.52
6186.00,2.52
6185.00,2.53
6184.00,2.53
6183.00,2.53
6182.00,2.53
6181.00,2.53
6180.00,2.53
6179.00,2.53
6178.00,2.53
6177.00,2.53
6176.00,2.53
6175.00,2.53
6174.00,2.53
6173.00,2.53
6172.00,2.52
6171.00,2.52
6170.00,2.52
6169.00,2.52
6168.00,2.52
6167.00,2.52
6166.00,2.52
6165.00,2.52
6164.00,2.51
6163.00,2.51
6162.00,2.51
6161.00,2.51
6160.00,2.50
6159.00,2.50
6158.00,2.50
6157.00,2.50
6156.00,2.50
6155.00,2.50
6154.00,2.50
6153.00,2.50
6152.00,2.50
6151.00,2.50
6150.00,2.51
6149.00,2.51
6148.00,2.51
6147.00,2.51
6146.00,2.51
6145.00,2.51
6144.00,2.51
6143.00,2.51
6142.00,2.51
6141.00,2.51
6140.00,2.52
6139.00,2.52
6138.00,2.52
6137.00,2.52
6136.00,2.52
6135.00,2.52
6134.00,2.53
6133.00,2.53
6132.00,2.53
6131.00,2.53
6130.00,2.53
6129.00,2.53
6128.00,2.53
6127.00,2.53
6126.00,2.53
6125.00,2.53
6124.00,2.53
6123.00,2.53
6122.00,2.53
6121.00,2.54
6120.00,2.54
6119.00,2.54
6118.00,2.54
6117.00,2.54
6116.00,2.54
6115.00,2.54
6114.00,2.54
6113.00,2.55
6112.00,2.55
6111.00,2.55
6110.00,2.55
6109.00,2.55
6108.00,2.55
6107.00,2.56
6106.00,2.56
6105.00,2.56
6104.00,2.56
6103.00,2.56
6102.00,2.56
6101.00,2.56
6100.00,2.56
6099.00,2.56
6098.00,2.55
6097.00,2.55
6096.00,2.55
6095.00,2.55
6094.00,2.55
6093.00,2.56
6092.00,2.56
6091.00,2.56
6090.00,2.56
6089.00,2.56
6088.00,2.56
6087.00,2.57
6086.00,2.57
6085.00,2.57
6084.00,2.57
6083.00,2.58
6082.00,2.58
6081.00,2.58
6080.00,2.59
6079.00,2.59
6078.00,2.60
6077.00,2.60
6076.00,2.61
6075.00,2.61
6074.00,2.62
6073.00,2.62
6072.00,2.63
6071.00,2.63
6070.00,2.64
6069.00,2.64
6068.00,2.64
6067.00,2.64
6066.00,2.65
6065.00,2.65
6064.00,2.65
6063.00,2.65
6062.00,2.65
6061.00,2.65
6060.00,2.65
6059.00,2.66
6058.00,2.66
6057.00,2.66
6056.00,2.66
6055.00,2.66
6054.00,2.66
6053.00,2.66
6052.00,2.66
6051.00,2.66
6050.00,2.66
6049.00,2.65
6048.00,2.65
6047.00,2.65
6046.00,2.65
6045.00,2.65
6044.00,2.65
6043.00,2.65
6042.00,2.65
6041.00,2.65
6040.00,2.65
6039.00,2.65
6038.00,2.65
6037.00,2.65
6036.00,2.65
6035.00,2.65
6034.00,2.65
6033.00,2.65
6032.00,2.65
6031.00,2.65
6030.00,2.65
6029.00,2.65
6028.00,2.65
6027.00,2.65
6026.00,2.65
6025.00,2.66
6024.00,2.66
6023.00,2.66
6022.00,2.66
6021.00,2.66
6020.00,2.67
6019.00,2.67
6018.00,2.67
6017.00,2.67
6016.00,2.67
6015.00,2.67
6014.00,2.68
6013.00,2.68
6012.00,2.68
6011.00,2.69
6010.00,2.69
6009.00,2.70
6008.00,2.70
6007.00,2.71
6006.00,2.71
6005.00,2.71
6004.00,2.71
6003.00,2.72
6002.00,2.72
6001.00,2.72
6000.00,2.72
5999.00,2.72
5998.00,2.72
5997.00,2.72
5996.00,2.72
5995.00,2.72
5994.00,2.72
5993.00,2.72
5992.00,2.72
5991.00,2.72
5990.00,2.72
5989.00,2.71
5988.00,2.71
5987.00,2.71
5986.00,2.70
5985.00,2.70
5984.00,2.69
5983.00,2.69
5982.00,2.68
5981.00,2.68
5980.00,2.67
5979.00,2.67
5978.00,2.66
5977.00,2.66
5976.00,2.66
5975.00,2.65
5974.00,2.65
5973.00,2.65
5972.00,2.64
5971.00,2.64
5970.00,2.63
5969.00,2.63
5968.00,2.62
5967.00,2.62
5966.00,2.62
5965.00,2.61
5964.00,2.61
5963.00,2.61
5962.00,2.61
5961.00,2.61
5960.00,2.61
5959.00,2.60
5958.00,2.60
5957.00,2.60
5956.00,2.60
5955.00,2.60
5954.00,2.60
5953.00,2.59
5952.00,2.59
5951.00,2.59
5950.00,2.59
5949.00,2.59
5948.00,2.59
5947.00,2.59
5946.00,2.59
5945.00,2.59
5944.00,2.58
5943.00,2.58
5942.00,2.58
5941.00,2.58
5940.00,2.58
5939.00,2.57
5938.00,2.57
5937.00,2.57
5936.00,2.57
5935.00,2.56
5934.00,2.56
5933.00,2.56
5932.00,2.56
5931.00,2.56
5930.00,2.55
5929.00,2.55
5928.00,2.55
5927.00,2.55
5926.00,2.55
5925.00,2.54
5924.00,2.54
5923.00,2.54
5922.00,2.54
5921.00,2.53
5920.00,2.53
5919.00,2.53
5918.00,2.54
5917.00,2.54
5916.00,2.54
5915.00,2.55
5914.00,2.55
5913.00,2.55
5912.00,2.56
5911.00,2.56
5910.00,2.57
5909.00,2.57
5908.00,2.58
5907.00,2.58
5906.00,2.58
5905.00,2.59
5904.00,2.59
5903.00,2.60
5902.00,2.60
5901.00,2.61
5900.00,2.61
5899.00,2.62
5898.00,2.62
5897.00,2.63
5896.00,2.63
5895.00,2.64
5894.00,2.64
5893.00,2.65
5892.00,2.65
5891.00,2.65
5890.00,2.65
5889.00,2.65
5888.00,2.65
5887.00,2.66
5886.00,2.66
5885.00,2.66
5884.00,2.66
5883.00,2.66
5882.00,2.66
5881.00,2.66
5880.00,2.66
5879.00,2.66
5878.00,2.66
5877.00,2.67
5876.00,2.67
5875.00,2.67
5874.00,2.67
5873.00,2.67
5872.00,2.67
5871.00,2.68
5870.00,2.68
5869.00,2.68
5868.00,2.68
5867.00,2.68
5866.00,2.68
5865.00,2.68
5864.00,2.68
5863.00,2.68
5862.00,2.68
5861.00,2.69
5860.00,2.69
5859.00,2.68
5858.00,2.68
5857.00,2.68
5856.00,2.69
5855.00,2.69
5854.00,2.69
5853.00,2.69
5852.00,2.69
5851.00,2.69
5850.00,2.69
5849.00,2.69
5848.00,2.69
5847.00,2.69
5846.00,2.68
5845.00,2.68
5844.00,2.68
5843.00,2.68
5842.00,2.68
5841.00,2.68
5840.00,2.68
5839.00,2.68
5838.00,2.68
5837.00,2.69
5836.00,2.69
5835.00,2.69
5834.00,2.69
5833.00,2.70
5832.00,2.70
5831.00,2.70
5830.00,2.70
5829.00,2.70
5828.00,2.71
5827.00,2.71
5826.00,2.71
5825.00,2.71
5824.00,2.71
5823.00,2.71
5822.00,2.71
5821.00,2.71
5820.00,2.71
5819.00,2.71
5818.00,2.71
5817.00,2.71
5816.00,2.71
5815.00,2.71
5814.00,2.71
5813.00,2.71
5812.00,2.71
5811.00,2.70
5810.00,2.70
5809.00,2.70
5808.00,2.69
5807.00,2.69
5806.00,2.68
5805.00,2.68
5804.00,2.68
5803.00,2.67
5802.00,2.67
5801.00,2.67
5800.00,2.67
5799.00,2.66
5798.00,2.66
5797.00,2.66
5796.00,2.66
5795.00,2.66
5794.00,2.66
5793.00,2.66
5792.00,2.66
5791.00,2.65
5790.00,2.65
5789.00,2.65
5788.00,2.65
5787.00,2.65
5786.00,2.64
5785.00,2.64
5784.00,2.64
5783.00,2.64
5782.00,2.63
5781.00,2.63
5780.00,2.63
5779.00,2.63
5778.00,2.63
5777.00,2.63
5776.00,2.63
5775.00,2.62
5774.00,2.62
5773.00,2.62
5772.00,2.62
5771.00,2.62
5770.00,2.61
5769.00,2.61
5768.00,2.61
5767.00,2.61
5766.00,2.61
5765.00,2.61
5764.00,2.61
5763.00,2.61
5762.00,2.61
5761.00,2.61
5760.00,2.61
5759.00,2.61
5758.00,2.62
5757.00,2.62
5756.00,2.62
5755.00,2.62
5754.00,2.62
5753.00,2.62
5752.00,2.63
5751.00,2.63
5750.00,2.63
5749.00,2.63
5748.00,2.63
5747.00,2.63
5746.00,2.63
5745.00,2.63
5744.00,2.63
5743.00,2.63
5742.00,2.63
5741.00,2.63
5740.00,2.63
5739.00,2.63
5738.00,2.63
5737.00,2.63
5736.00,2.63
5735.00,2.62
5734.00,2.62
5733.00,2.62
5732.00,2.62
5731.00,2.62
5730.00,2.61
5729.00,2.61
5728.00,2.61
5727.00,2.61
5726.00,2.61
5725.00,2.61
5724.00,2.61
5723.00,2.61
5722.00,2.61
5721.00,2.60
5720.00,2.60
5719.00,2.60
5718.00,2.60
5717.00,2.60
5716.00,2.60
5715.00,2.60
5714.00,2.60
5713.00,2.60
5712.00,2.60
5711.00,2.60
5710.00,2.60
5709.00,2.60
5708.00,2.60
5707.00,2.60
5706.00,2.60
5705.00,2.60
5704.00,2.60
5703.00,2.60
5702.00,2.60
5701.00,2.60
5700.00,2.60
5699.00,2.60
5698.00,2.60
5697.00,2.60
5696.00,2.60
5695.00,2.60
5694.00,2.60
5693.00,2.60
5692.00,2.60
5691.00,2.60
5690.00,2.60
5689.00,2.60
5688.00,2.60
5687.00,2.60
5686.00,2.60
5685.00,2.60
5684.00,2.60
5683.00,2.60
5682.00,2.59
5681.00,2.59
5680.00,2.59
5679.00,2.59
5678.00,2.58
5677.00,2.58
5676.00,2.58
5675.00,2.58
5674.00,2.58
5673.00,2.57
5672.00,2.57
5671.00,2.57
5670.00,2.57
5669.00,2.56
5668.00,2.56
5667.00,2.56
5666.00,2.55
5665.00,2.55
5664.00,2.55
5663.00,2.55
5662.00,2.55
5661.00,2.55
5660.00,2.54
5659.00,2.54
5658.00,2.54
5657.00,2.54
5656.00,2.54
5655.00,2.54
5654.00,2.55
5653.00,2.55
5652.00,2.55
5651.00,2.55
5650.00,2.55
5649.00,2.55
5648.00,2.55
5647.00,2.55
5646.00,2.55
5645.00,2.55
5644.00,2.55
5643.00,2.55
5642.00,2.55
5641.00,2.55
5640.00,2.55
5639.00,2.55
5638.00,2.56
5637.00,2.56
5636.00,2.56
5635.00,2.56
5634.00,2.56
5633.00,2.56
5632.00,2.56
5631.00,2.56
5630.00,2.56
5629.00,2.56
5628.00,2.56
5627.00,2.56
5626.00,2.55
5625.00,2.55
5624.00,2.55
5623.00,2.55
5622.00,2.55
5621.00,2.55
5620.00,2.55
5619.00,2.55
5618.00,2.55
5617.00,2.55
5616.00,2.55
5615.00,2.55
5614.00,2.55
5613.00,2.54
5612.00,2.54
5611.00,2.54
5610.00,2.54
5609.00,2.53
5608.00,2.53
5607.00,2.53
5606.00,2.53
5605.00,2.53
5604.00,2.53
5603.00,2.53
5602.00,2.53
5601.00,2.53
5600.00,2.53
5599.00,2.53
5598.00,2.53
5597.00,2.53
5596.00,2.53
5595.00,2.53
5594.00,2.53
5593.00,2.53
5592.00,2.53
5591.00,2.54
5590.00,2.54
5589.00,2.54
5588.00,2.54
5587.00,2.54
5586.00,2.54
5585.00,2.54
5584.00,2.54
5583.00,2.55
5582.00,2.55
5581.00,2.55
5580.00,2.55
5579.00,2.55
5578.00,2.55
5577.00,2.55
5576.00,2.56
5575.00,2.56
5574.00,2.56
5573.00,2.56
5572.00,2.56
5571.00,2.57
5570.00,2.57
5569.00,2.57
5568.00,2.57
5567.00,2.56
5566.00,2.56
5565.00,2.56
5564.00,2.56
5563.00,2.56
5562.00,2.56
5561.00,2.56
5560.00,2.57
5559.00,2.57
5558.00,2.57
5557.00,2.57
5556.00,2.57
5555.00,2.57
5554.00,2.58
5553.00,2.58
5552.00,2.58
5551.00,2.58
5550.00,2.58
5549.00,2.59
5548.00,2.59
5547.00,2.59
5546.00,2.59
5545.00,2.59
5544.00,2.59
5543.00,2.59
5542.00,2.60
5541.00,2.60
5540.00,2.61
5539.00,2.61
5538.00,2.61
5537.00,2.62
5536.00,2.62
5535.00,2.62
5534.00,2.63
5533.00,2.63
5532.00,2.63
5531.00,2.63
5530.00,2.63
5529.00,2.64
5528.00,2.64
5527.00,2.64
5526.00,2.64
5525.00,2.64
5524.00,2.64
5523.00,2.65
5522.00,2.65
5521.00,2.65
5520.00,2.65
5519.00,2.65
5518.00,2.65
5517.00,2.65
5516.00,2.66
5515.00,2.66
5514.00,2.66
5513.00,2.65
5512.00,2.65
5511.00,2.65
5510.00,2.65
5509.00,2.65
5508.00,2.65
5507.00,2.65
5506.00,2.65
5505.00,2.65
5504.00,2.65
5503.00,2.65
5502.00,2.65
5501.00,2.65
5500.00,2.65
5499.00,2.65
5498.00,2.65
5497.00,2.65
5496.00,2.65
5495.00,2.65
5494.00,2.65
5493.00,2.65
5492.00,2.65
5491.00,2.65
5490.00,2.65
5489.00,2.65
5488.00,2.65
5487.00,2.65
5486.00,2.65
5485.00,2.65
5484.00,2.65
5483.00,2.65
5482.00,2.65
5481.00,2.66
5480.00,2.66
5479.00,2.66
5478.00,2.66
5477.00,2.66
5476.00,2.67
5475.00,2.67
5474.00,2.67
5473.00,2.67
5472.00,2.68
5471.00,2.68
5470.00,2.68
5469.00,2.68
5468.00,2.69
5467.00,2.69
5466.00,2.69
5465.00,2.69
5464.00,2.69
5463.00,2.69
5462.00,2.70
5461.00,2.70
5460.00,2.70
5459.00,2.71
5458.00,2.71
5457.00,2.71
5456.00,2.71
5455.00,2.72
5454.00,2.72
5453.00,2.72
5452.00,2.72
5451.00,2.72
5450.00,2.73
5449.00,2.73
5448.00,2.73
5447.00,2.73
5446.00,2.74
5445.00,2.74
5444.00,2.74
5443.00,2.74
5442.00,2.75
5441.00,2.75
5440.00,2.75
5439.00,2.76
5438.00,2.76
5437.00,2.76
5436.00,2.77
5435.00,2.77
5434.00,2.77
5433.00,2.77
5432.00,2.77
5431.00,2.77
5430.00,2.77
5429.00,2.77
5428.00,2.77
5427.00,2.77
5426.00,2.77
5425.00,2.77
5424.00,2.76
5423.00,2.76
5422.00,2.75
5421.00,2.75
5420.00,2.75
5419.00,2.74
5418.00,2.74
5417.00,2.73
5416.00,2.73
5415.00,2.72
5414.00,2.72
5413.00,2.71
5412.00,2.71
5411.00,2.70
5410.00,2.70
5409.00,2.69
5408.00,2.69
5407.00,2.68
5406.00,2.68
5405.00,2.67
5404.00,2.67
5403.00,2.66
5402.00,2.66
5401.00,2.66
5400.00,2.65
5399.00,2.65
5398.00,2.65
5397.00,2.64
5396.00,2.64
5395.00,2.63
5394.00,2.63
5393.00,2.62
5392.00,2.62
5391.00,2.61
5390.00,2.60
5389.00,2.60
5388.00,2.59
5387.00,2.58
5386.00,2.57
5385.00,2.56
5384.00,2.55
5383.00,2.54
5382.00,2.53
5381.00,2.52
5380.00,2.51
5379.00,2.50
5378.00,2.49
5377.00,2.48
5376.00,2.47
5375.00,2.46
5374.00,2.44
5373.00,2.43
5372.00,2.42
5371.00,2.41
5370.00,2.39
5369.00,2.38
5368.00,2.37
5367.00,2.36
5366.00,2.35
5365.00,2.34
5364.00,2.33
5363.00,2.32
5362.00,2.31
5361.00,2.30
5360.00,2.29
5359.00,2.29
5358.00,2.28
5357.00,2.27
5356.00,2.26
5355.00,2.26
5354.00,2.25
5353.00,2.24
5352.00,2.23
5351.00,2.23
5350.00,2.22
5349.00,2.21
5348.00,2.21
5347.00,2.20
5346.00,2.19
5345.00,2.19
5344.00,2.18
5343.00,2.17
5342.00,2.16
5341.00,2.15
5340.00,2.14
5339.00,2.13
5338.00,2.12
5337.00,2.11
5336.00,2.10
5335.00,2.08
5334.00,2.07
5333.00,2.05
5332.00,2.04
5331.00,2.02
5330.00,2.01
5329.00,1.99
5328.00,1.97
5327.00,1.95
5326.00,1.94
5325.00,1.92
5324.00,1.90
5323.00,1.88
5322.00,1.86
5321.00,1.84
5320.00,1.82
5319.00,1.80
5318.00,1.78
5317.00,1.76
5316.00,1.74
5315.00,1.72
5314.00,1.70
5313.00,1.68
5312.00,1.66
5311.00,1.64
5310.00,1.62
5309.00,1.60
5308.00,1.58
5307.00,1.56
5306.00,1.54
5305.00,1.53
5304.00,1.51
5303.00,1.49
5302.00,1.47
5301.00,1.46
5300.00,1.44
5299.00,1.42
5298.00,1.41
5297.00,1.39
5296.00,1.37
5295.00,1.36
5294.00,1.34
5293.00,1.32
5292.00,1.31
5291.00,1.29
5290.00,1.28
5289.00,1.27
5288.00,1.25
5287.00,1.24
5286.00,1.23
5285.00,1.21
5284.00,1.20
5283.00,1.19
5282.00,1.18
5281.00,1.17
5280.00,1.16
5279.00,1.15
5278.00,1.14
5277.00,1.14
5276.00,1.13
5275.00,1.12
5274.00,1.12
5273.00,1.11
5272.00,1.10
5271.00,1.10
5270.00,1.10
5269.00,1.09
5268.00,1.09
5267.00,1.09
5266.00,1.09
5265.00,1.09
5264.00,1.09
5263.00,1.09
5262.00,1.08
5261.00,1.08
5260.00,1.08
5259.00,1.08
5258.00,1.08
5257.00,1.08
5256.00,1.08
5255.00,1.08
5254.00,1.08
5253.00,1.08
5252.00,1.08
5251.00,1.08
5250.00,1.07
5249.00,1.07
5248.00,1.07
5247.00,1.07
5246.00,1.07
5245.00,1.07
5244.00,1.06
5243.00,1.06
5242.00,1.06
5241.00,1.06
5240.00,1.06
5239.00,1.06
5238.00,1.06
5237.00,1.06
5236.00,1.06
5235.00,1.05
5234.00,1.05
5233.00,1.05
5232.00,1.05
5231.00,1.05
5230.00,1.05
5229.00,1.05
5228.00,1.05
5227.00,1.05
5226.00,1.05
5225.00,1.05
5224.00,1.06
5223.00,1.06
5222.00,1.06
5221.00,1.06
5220.00,1.07
5219.00,1.07
5218.00,1.07
5217.00,1.07
5216.00,1.08
5215.00,1.08
5214.00,1.08
5213.00,1.08
5212.00,1.09
5211.00,1.09
5210.00,1.09
5209.00,1.10
5208.00,1.10
5207.00,1.10
5206.00,1.11
5205.00,1.11
5204.00,1.11
5203.00,1.11
5202.00,1.12
5201.00,1.12
5200.00,1.12
5199.00,1.12
5198.00,1.12
5197.00,1.13
5196.00,1.13
5195.00,1.13
5194.00,1.13
5193.00,1.13
5192.00,1.13
5191.00,1.13
5190.00,1.12
5189.00,1.12
5188.00,1.12
5187.00,1.12
5186.00,1.12
5185.00,1.12
5184.00,1.12
5183.00,1.12
5182.00,1.12
5181.00,1.12
5180.00,1.12
5179.00,1.12
5178.00,1.12
5177.00,1.12
5176.00,1.11
5175.00,1.11
5174.00,1.11
5173.00,1.11
5172.00,1.11
5171.00,1.11
5170.00,1.11
5169.00,1.11
5168.00,1.11
5167.00,1.11
5166.00,1.11
5165.00,1.11
5164.00,1.11
5163.00,1.11
5162.00,1.11
5161.00,1.11
5160.00,1.11
5159.00,1.11
5158.00,1.11
5157.00,1.11
5156.00,1.11
5155.00,1.11
5154.00,1.11
5153.00,1.11
5152.00,1.11
5151.00,1.11
5150.00,1.11
5149.00,1.11
5148.00,1.11
5147.00,1.11
5146.00,1.11
5145.00,1.11
5144.00,1.11
5143.00,1.11
5142.00,1.12
5141.00,1.12
5140.00,1.12
5139.00,1.13
5138.00,1.13
5137.00,1.13
5136.00,1.13
5135.00,1.13
5134.00,1.14
5133.00,1.14
5132.00,1.14
5131.00,1.14
5130.00,1.14
5129.00,1.14
5128.00,1.15
5127.00,1.15
5126.00,1.15
5125.00,1.15
5124.00,1.15
5123.00,1.16
5122.00,1.16
5121.00,1.16
5120.00,1.16
5119.00,1.16
5118.00,1.17
5117.00,1.17
5116.00,1.17
5115.00,1.17
5114.00,1.17
5113.00,1.17
5112.00,1.17
5111.00,1.17
5110.00,1.17
5109.00,1.17
5108.00,1.17
5107.00,1.17
5106.00,1.17
5105.00,1.17
5104.00,1.17
5103.00,1.18
5102.00,1.18
5101.00,1.18
5100.00,1.18
5099.00,1.18
5098.00,1.18
5097.00,1.18
5096.00,1.18
5095.00,1.18
5094.00,1.18
5093.00,1.18
5092.00,1.18
5091.00,1.18
5090.00,1.19
5089.00,1.19
5088.00,1.19
5087.00,1.19
5086.00,1.19
5085.00,1.19
5084.00,1.19
5083.00,1.19
5082.00,1.19
5081.00,1.19
5080.00,1.20
5079.00,1.20
5078.00,1.20
5077.00,1.20
5076.00,1.20
5075.00,1.20
5074.00,1.20
5073.00,1.20
5072.00,1.19
5071.00,1.19
5070.00,1.20
5069.00,1.20
5068.00,1.20
5067.00,1.20
5066.00,1.20
5065.00,1.20
5064.00,1.20
5063.00,1.20
5062.00,1.21
5061.00,1.21
5060.00,1.21
5059.00,1.21
5058.00,1.22
5057.00,1.22
5056.00,1.22
5055.00,1.23
5054.00,1.23
5053.00,1.23
5052.00,1.23
5051.00,1.24
5050.00,1.24
5049.00,1.24
5048.00,1.25
5047.00,1.25
5046.00,1.26
5045.00,1.26
5044.00,1.26
5043.00,1.27
5042.00,1.27
5041.00,1.27
5040.00,1.27
5039.00,1.28
5038.00,1.28
5037.00,1.28
5036.00,1.28
5035.00,1.28
5034.00,1.29
5033.00,1.29
5032.00,1.29
5031.00,1.29
5030.00,1.29
5029.00,1.29
5028.00,1.29
5027.00,1.29
5026.00,1.30
5025.00,1.30
5024.00,1.30
5023.00,1.30
5022.00,1.30
5021.00,1.31
5020.00,1.31
5019.00,1.31
5018.00,1.31
5017.00,1.31
5016.00,1.32
5015.00,1.32
5014.00,1.32
5013.00,1.32
5012.00,1.32
5011.00,1.32
5010.00,1.32
5009.00,1.32
5008.00,1.32
5007.00,1.32
5006.00,1.32
5005.00,1.32
5004.00,1.32
5003.00,1.32
5002.00,1.32
5001.00,1.32
5000.00,1.32
4999.00,1.32
4998.00,1.32
4997.00,1.31
4996.00,1.31
4995.00,1.31
4994.00,1.30
4993.00,1.30
4992.00,1.30
4991.00,1.30
4990.00,1.30
4989.00,1.30
4988.00,1.30
4987.00,1.30
4986.00,1.30
4985.00,1.30
4984.00,1.30
4983.00,1.30
4982.00,1.30
4981.00,1.30
4980.00,1.30
4979.00,1.30
4978.00,1.30
4977.00,1.31
4976.00,1.31
4975.00,1.31
4974.00,1.32
4973.00,1.32
4972.00,1.33
4971.00,1.33
4970.00,1.33
4969.00,1.34
4968.00,1.34
4967.00,1.35
4966.00,1.35
4965.00,1.36
4964.00,1.36
4963.00,1.36
4962.00,1.37
4961.00,1.37
4960.00,1.38
4959.00,1.38
4958.00,1.38
4957.00,1.39
4956.00,1.39
4955.00,1.40
4954.00,1.40
4953.00,1.40
4952.00,1.41
4951.00,1.41
4950.00,1.41
4949.00,1.42
4948.00,1.42
4947.00,1.42
4946.00,1.42
4945.00,1.43
4944.00,1.43
4943.00,1.43
4942.00,1.44
4941.00,1.44
4940.00,1.45
4939.00,1.45
4938.00,1.46
4937.00,1.46
4936.00,1.46
4935.00,1.47
4934.00,1.47
4933.00,1.48
4932.00,1.48
4931.00,1.49
4930.00,1.49
4929.00,1.50
4928.00,1.50
4927.00,1.51
4926.00,1.52
4925.00,1.52
4924.00,1.53
4923.00,1.54
4922.00,1.55
4921.00,1.55
4920.00,1.56
4919.00,1.57
4918.00,1.57
4917.00,1.58
4916.00,1.58
4915.00,1.59
4914.00,1.59
4913.00,1.60
4912.00,1.60
4911.00,1.61
4910.00,1.61
4909.00,1.62
4908.00,1.62
4907.00,1.63
4906.00,1.63
4905.00,1.63
4904.00,1.64
4903.00,1.64
4902.00,1.64
4901.00,1.65
4900.00,1.65
4899.00,1.65
4898.00,1.65
4897.00,1.65
4896.00,1.66
4895.00,1.66
4894.00,1.66
4893.00,1.66
4892.00,1.66
4891.00,1.66
4890.00,1.66
4889.00,1.67
4888.00,1.67
4887.00,1.67
4886.00,1.67
4885.00,1.67
4884.00,1.68
4883.00,1.68
4882.00,1.68
4881.00,1.68
4880.00,1.68
4879.00,1.68
4878.00,1.68
4877.00,1.68
4876.00,1.68
4875.00,1.68
4874.00,1.69
4873.00,1.69
4872.00,1.69
4871.00,1.69
4870.00,1.69
4869.00,1.69
4868.00,1.69
4867.00,1.69
4866.00,1.69
4865.00,1.69
4864.00,1.70
4863.00,1.70
4862.00,1.70
4861.00,1.70
4860.00,1.70
4859.00,1.71
4858.00,1.71
4857.00,1.71
4856.00,1.72
4855.00,1.72
4854.00,1.72
4853.00,1.73
4852.00,1.73
4851.00,1.74
4850.00,1.75
4849.00,1.75
4848.00,1.76
4847.00,1.76
4846.00,1.77
4845.00,1.77
4844.00,1.78
4843.00,1.78
4842.00,1.79
4841.00,1.79
4840.00,1.80
4839.00,1.80
4838.00,1.81
4837.00,1.81
4836.00,1.81
4835.00,1.82
4834.00,1.82
4833.00,1.83
4832.00,1.83
4831.00,1.83
4830.00,1.83
4829.00,1.84
4828.00,1.84
4827.00,1.84
4826.00,1.84
4825.00,1.84
4824.00,1.84
4823.00,1.84
4822.00,1.84
4821.00,1.85
4820.00,1.85
4819.00,1.85
4818.00,1.85
4817.00,1.85
4816.00,1.85
4815.00,1.85
4814.00,1.85
4813.00,1.85
4812.00,1.86
4811.00,1.86
4810.00,1.86
4809.00,1.86
4808.00,1.87
4807.00,1.87
4806.00,1.87
4805.00,1.87
4804.00,1.88
4803.00,1.88
4802.00,1.89
4801.00,1.89
4800.00,1.89
4799.00,1.90
4798.00,1.90
4797.00,1.91
4796.00,1.91
4795.00,1.91
4794.00,1.92
4793.00,1.92
4792.00,1.93
4791.00,1.93
4790.00,1.94
4789.00,1.94
4788.00,1.95
4787.00,1.95
4786.00,1.96
4785.00,1.96
4784.00,1.97
4783.00,1.97
4782.00,1.98
4781.00,1.98
4780.00,1.99
4779.00,1.99
4778.00,2.00
4777.00,2.00
4776.00,2.01
4775.00,2.01
4774.00,2.02
4773.00,2.03
4772.00,2.03
4771.00,2.04
4770.00,2.04
4769.00,2.05
4768.00,2.05
4767.00,2.06
4766.00,2.07
4765.00,2.07
4764.00,2.08
4763.00,2.08
4762.00,2.09
4761.00,2.09
4760.00,2.10
4759.00,2.11
4758.00,2.11
4757.00,2.12
4756.00,2.12
4755.00,2.13
4754.00,2.14
4753.00,2.14
4752.00,2.15
4751.00,2.15
4750.00,2.16
4749.00,2.16
4748.00,2.17
4747.00,2.17
4746.00,2.18
4745.00,2.18
4744.00,2.18
4743.00,2.19
4742.00,2.19
4741.00,2.20
4740.00,2.20
4739.00,2.20
4738.00,2.20
4737.00,2.21
4736.00,2.21
4735.00,2.21
4734.00,2.21
4733.00,2.21
4732.00,2.22
4731.00,2.22
4730.00,2.22
4729.00,2.22
4728.00,2.22
4727.00,2.22
4726.00,2.22
4725.00,2.22
4724.00,2.22
4723.00,2.22
4722.00,2.22
4721.00,2.22
4720.00,2.23
4719.00,2.23
4718.00,2.23
4717.00,2.23
4716.00,2.24
4715.00,2.24
4714.00,2.24
4713.00,2.24
4712.00,2.25
4711.00,2.25
4710.00,2.25
4709.00,2.26
4708.00,2.26
4707.00,2.27
4706.00,2.27
4705.00,2.28
4704.00,2.28
4703.00,2.29
4702.00,2.29
4701.00,2.30
4700.00,2.31
4699.00,2.31
4698.00,2.32
4697.00,2.32
4696.00,2.33
4695.00,2.34
4694.00,2.34
4693.00,2.35
4692.00,2.36
4691.00,2.36
4690.00,2.37
4689.00,2.37
4688.00,2.38
4687.00,2.39
4686.00,2.39
4685.00,2.40
4684.00,2.41
4683.00,2.42
4682.00,2.43
4681.00,2.43
4680.00,2.44
4679.00,2.45
4678.00,2.46
4677.00,2.46
4676.00,2.47
4675.00,2.48
4674.00,2.48
4673.00,2.49
4672.00,2.50
4671.00,2.51
4670.00,2.52
4669.00,2.52
4668.00,2.53
4667.00,2.54
4666.00,2.55
4665.00,2.56
4664.00,2.57
4663.00,2.58
4662.00,2.59
4661.00,2.60
4660.00,2.60
4659.00,2.61
4658.00,2.62
4657.00,2.62
4656.00,2.63
4655.00,2.64
4654.00,2.64
4653.00,2.65
4652.00,2.65
4651.00,2.66
4650.00,2.67
4649.00,2.67
4648.00,2.68
4647.00,2.68
4646.00,2.69
4645.00,2.69
4644.00,2.69
4643.00,2.69
4642.00,2.70
4641.00,2.70
4640.00,2.70
4639.00,2.70
4638.00,2.69
4637.00,2.69
4636.00,2.69
4635.00,2.69
4634.00,2.69
4633.00,2.69
4632.00,2.69
4631.00,2.69
4630.00,2.69
4629.00,2.69
4628.00,2.69
4627.00,2.69
4626.00,2.69
4625.00,2.69
4624.00,2.69
4623.00,2.69
4622.00,2.69
4621.00,2.69
4620.00,2.69
4619.00,2.68
4618.00,2.68
4617.00,2.69
4616.00,2.69
4615.00,2.69
4614.00,2.69
4613.00,2.69
4612.00,2.69
4611.00,2.70
4610.00,2.70
4609.00,2.70
4608.00,2.70
4607.00,2.70
4606.00,2.70
4605.00,2.71
4604.00,2.71
4603.00,2.71
4602.00,2.71
4601.00,2.71
4600.00,2.71
4599.00,2.71
4598.00,2.71
4597.00,2.71
4596.00,2.71
4595.00,2.71
4594.00,2.71
4593.00,2.71
4592.00,2.71
4591.00,2.71
4590.00,2.71
4589.00,2.70
4588.00,2.70
4587.00,2.70
4586.00,2.69
4585.00,2.69
4584.00,2.69
4583.00,2.68
4582.00,2.68
4581.00,2.68
4580.00,2.68
4579.00,2.67
4578.00,2.67
4577.00,2.67
4576.00,2.67
4575.00,2.67
4574.00,2.67
4573.00,2.67
4572.00,2.67
4571.00,2.67
4570.00,2.67
4569.00,2.67
4568.00,2.67
4567.00,2.68
4566.00,2.68
4565.00,2.68
4564.00,2.69
4563.00,2.69
4562.00,2.70
4561.00,2.71
4560.00,2.71
4559.00,2.72
4558.00,2.73
4557.00,2.73
4556.00,2.74
4555.00,2.75
4554.00,2.75
4553.00,2.76
4552.00,2.76
4551.00,2.77
4550.00,2.77
4549.00,2.78
4548.00,2.78
4547.00,2.78
4546.00,2.79
4545.00,2.79
4544.00,2.80
4543.00,2.80
4542.00,2.80
4541.00,2.80
4540.00,2.81
4539.00,2.81
4538.00,2.81
4537.00,2.81
4536.00,2.81
4535.00,2.81
4534.00,2.81
4533.00,2.81
4532.00,2.81
4531.00,2.81
4530.00,2.81
4529.00,2.81
4528.00,2.81
4527.00,2.81
4526.00,2.82
4525.00,2.82
4524.00,2.82
4523.00,2.82
4522.00,2.82
4521.00,2.82
4520.00,2.82
4519.00,2.82
4518.00,2.82
4517.00,2.82
4516.00,2.82
4515.00,2.82
4514.00,2.82
4513.00,2.82
4512.00,2.82
4511.00,2.82
4510.00,2.82
4509.00,2.82
4508.00,2.82
4507.00,2.82
4506.00,2.81
4505.00,2.81
4504.00,2.81
4503.00,2.81
4502.00,2.81
4501.00,2.81
4500.00,2.81
4499.00,2.81
4498.00,2.81
4497.00,2.81
4496.00,2.81
4495.00,2.80
4494.00,2.80
4493.00,2.80
4492.00,2.80
4491.00,2.80
4490.00,2.79
4489.00,2.79
4488.00,2.79
4487.00,2.79
4486.00,2.79
4485.00,2.79
4484.00,2.79
4483.00,2.79
4482.00,2.79
4481.00,2.79
4480.00,2.78
4479.00,2.78
4478.00,2.78
4477.00,2.78
4476.00,2.78
4475.00,2.78
4474.00,2.78
4473.00,2.77
4472.00,2.77
4471.00,2.77
4470.00,2.77
4469.00,2.77
4468.00,2.77
4467.00,2.77
4466.00,2.77
4465.00,2.77
4464.00,2.77
4463.00,2.77
4462.00,2.77
4461.00,2.76
4460.00,2.76
4459.00,2.76
4458.00,2.75
4457.00,2.75
4456.00,2.75
4455.00,2.74
4454.00,2.74
4453.00,2.73
4452.00,2.73
4451.00,2.72
4450.00,2.72
4449.00,2.72
4448.00,2.71
4447.00,2.70
4446.00,2.70
4445.00,2.69
4444.00,2.68
4443.00,2.67
4442.00,2.66
4441.00,2.65
4440.00,2.64
4439.00,2.64
4438.00,2.63
4437.00,2.62
4436.00,2.61
4435.00,2.60
4434.00,2.59
4433.00,2.59
4432.00,2.58
4431.00,2.57
4430.00,2.56
4429.00,2.56
4428.00,2.55
4427.00,2.54
4426.00,2.54
4425.00,2.53
4424.00,2.52
4423.00,2.52
4422.00,2.51
4421.00,2.51
4420.00,2.51
4419.00,2.51
4418.00,2.51
4417.00,2.51
4416.00,2.51
4415.00,2.51
4414.00,2.51
4413.00,2.51
4412.00,2.51
4411.00,2.51
4410.00,2.51
4409.00,2.51
4408.00,2.52
4407.00,2.52
4406.00,2.52
4405.00,2.53
4404.00,2.53
4403.00,2.53
4402.00,2.54
4401.00,2.54
4400.00,2.55
4399.00,2.55
4398.00,2.55
4397.00,2.56
4396.00,2.56
4395.00,2.56
4394.00,2.57
4393.00,2.57
4392.00,2.57
4391.00,2.57
4390.00,2.57
4389.00,2.57
4388.00,2.57
4387.00,2.57
4386.00,2.57
4385.00,2.57
4384.00,2.57
4383.00,2.58
4382.00,2.58
4381.00,2.58
4380.00,2.58
4379.00,2.58
4378.00,2.58
4377.00,2.57
4376.00,2.57
4375.00,2.57
4374.00,2.57
4373.00,2.57
4372.00,2.56
4371.00,2.56
4370.00,2.56
4369.00,2.56
4368.00,2.56
4367.00,2.56
4366.00,2.56
4365.00,2.56
4364.00,2.56
4363.00,2.55
4362.00,2.55
4361.00,2.55
4360.00,2.55
4359.00,2.54
4358.00,2.54
4357.00,2.54
4356.00,2.54
4355.00,2.53
4354.00,2.53
4353.00,2.53
4352.00,2.53
4351.00,2.52
4350.00,2.52
4349.00,2.52
4348.00,2.52
4347.00,2.52
4346.00,2.52
4345.00,2.52
4344.00,2.52
4343.00,2.52
4342.00,2.52
4341.00,2.52
4340.00,2.51
4339.00,2.51
4338.00,2.51
4337.00,2.51
4336.00,2.51
4335.00,2.51
4334.00,2.51
4333.00,2.51
4332.00,2.52
4331.00,2.52
4330.00,2.52
4329.00,2.52
4328.00,2.52
4327.00,2.52
4326.00,2.53
4325.00,2.53
4324.00,2.53
4323.00,2.54
4322.00,2.54
4321.00,2.55
4320.00,2.55
4319.00,2.56
4318.00,2.57
4317.00,2.57
4316.00,2.58
4315.00,2.58
4314.00,2.59
4313.00,2.59
4312.00,2.60
4311.00,2.61
4310.00,2.61
4309.00,2.62
4308.00,2.62
4307.00,2.63
4306.00,2.63
4305.00,2.63
4304.00,2.64
4303.00,2.64
4302.00,2.65
4301.00,2.65
4300.00,2.65
4299.00,2.66
4298.00,2.66
4297.00,2.66
4296.00,2.66
4295.00,2.66
4294.00,2.66
4293.00,2.66
4292.00,2.66
4291.00,2.65
4290.00,2.65
4289.00,2.64
4288.00,2.64
4287.00,2.63
4286.00,2.63
4285.00,2.62
4284.00,2.62
4283.00,2.61
4282.00,2.61
4281.00,2.60
4280.00,2.60
4279.00,2.59
4278.00,2.59
4277.00,2.58
4276.00,2.57
4275.00,2.57
4274.00,2.56
4273.00,2.55
4272.00,2.54
4271.00,2.53
4270.00,2.53
4269.00,2.52
4268.00,2.52
4267.00,2.51
4266.00,2.51
4265.00,2.51
4264.00,2.51
4263.00,2.50
4262.00,2.50
4261.00,2.50
4260.00,2.51
4259.00,2.51
4258.00,2.51
4257.00,2.51
4256.00,2.52
4255.00,2.52
4254.00,2.52
4253.00,2.52
4252.00,2.52
4251.00,2.53
4250.00,2.53
4249.00,2.53
4248.00,2.54
4247.00,2.54
4246.00,2.54
4245.00,2.55
4244.00,2.55
4243.00,2.56
4242.00,2.56
4241.00,2.57
4240.00,2.57
4239.00,2.57
4238.00,2.57
4237.00,2.58
4236.00,2.58
4235.00,2.58
4234.00,2.58
4233.00,2.58
4232.00,2.57
4231.00,2.57
4230.00,2.57
4229.00,2.57
4228.00,2.57
4227.00,2.57
4226.00,2.57
4225.00,2.57
4224.00,2.57
4223.00,2.57
4222.00,2.57
4221.00,2.57
4220.00,2.57
4219.00,2.58
4218.00,2.58
4217.00,2.58
4216.00,2.58
4215.00,2.58
4214.00,2.59
4213.00,2.59
4212.00,2.59
4211.00,2.60
4210.00,2.60
4209.00,2.60
4208.00,2.61
4207.00,2.61
4206.00,2.61
4205.00,2.61
4204.00,2.62
4203.00,2.62
4202.00,2.62
4201.00,2.62
4200.00,2.62
4199.00,2.62
4198.00,2.63
4197.00,2.63
4196.00,2.63
4195.00,2.63
4194.00,2.63
4193.00,2.63
4192.00,2.63
4191.00,2.63
4190.00,2.63
4189.00,2.63
4188.00,2.63
4187.00,2.63
4186.00,2.63
4185.00,2.63
4184.00,2.63
4183.00,2.63
4182.00,2.64
4181.00,2.64
4180.00,2.64
4179.00,2.65
4178.00,2.65
4177.00,2.65
4176.00,2.66
4175.00,2.66
4174.00,2.66
4173.00,2.67
4172.00,2.67
4171.00,2.67
4170.00,2.67
4169.00,2.67
4168.00,2.68
4167.00,2.68
4166.00,2.68
4165.00,2.68
4164.00,2.68
4163.00,2.68
4162.00,2.67
4161.00,2.67
4160.00,2.66
4159.00,2.65
4158.00,2.64
4157.00,2.63
4156.00,2.62
4155.00,2.61
4154.00,2.60
4153.00,2.59
4152.00,2.58
4151.00,2.57
4150.00,2.56
4149.00,2.54
4148.00,2.53
4147.00,2.52
4146.00,2.51
4145.00,2.50
4144.00,2.48
4143.00,2.47
4142.00,2.46
4141.00,2.44
4140.00,2.43
4139.00,2.42
4138.00,2.42
4137.00,2.41
4136.00,2.40
4135.00,2.40
4134.00,2.40
4133.00,2.40
4132.00,2.40
4131.00,2.40
4130.00,2.40
4129.00,2.40
4128.00,2.40
4127.00,2.41
4126.00,2.41
4125.00,2.41
4124.00,2.41
4123.00,2.42
4122.00,2.42
4121.00,2.43
4120.00,2.43
4119.00,2.43
4118.00,2.44
4117.00,2.44
4116.00,2.45
4115.00,2.45
4114.00,2.45
4113.00,2.45
4112.00,2.45
4111.00,2.45
4110.00,2.45
4109.00,2.45
4108.00,2.44
4107.00,2.44
4106.00,2.44
4105.00,2.44
4104.00,2.43
4103.00,2.43
4102.00,2.43
4101.00,2.43
4100.00,2.42
4099.00,2.42
4098.00,2.42
4097.00,2.42
4096.00,2.42
4095.00,2.42
4094.00,2.42
4093.00,2.43
4092.00,2.43
4091.00,2.43
4090.00,2.43
4089.00,2.44
4088.00,2.44
4087.00,2.45
4086.00,2.46
4085.00,2.47
4084.00,2.47
4083.00,2.48
4082.00,2.49
4081.00,2.50
4080.00,2.51
4079.00,2.51
4078.00,2.52
4077.00,2.52
4076.00,2.52
4075.00,2.53
4074.00,2.53
4073.00,2.53
4072.00,2.53
4071.00,2.53
4070.00,2.53
4069.00,2.53
4068.00,2.52
4067.00,2.52
4066.00,2.52
4065.00,2.52
4064.00,2.51
4063.00,2.51
4062.00,2.50
4061.00,2.50
4060.00,2.49
4059.00,2.49
4058.00,2.48
4057.00,2.48
4056.00,2.47
4055.00,2.47
4054.00,2.47
4053.00,2.47
4052.00,2.47
4051.00,2.47
4050.00,2.48
4049.00,2.48
4048.00,2.48
4047.00,2.49
4046.00,2.49
4045.00,2.50
4044.00,2.50
4043.00,2.51
4042.00,2.51
4041.00,2.52
4040.00,2.52
4039.00,2.53
4038.00,2.54
4037.00,2.55
4036.00,2.56
4035.00,2.57
4034.00,2.58
4033.00,2.58
4032.00,2.59
4031.00,2.60
4030.00,2.61
4029.00,2.62
4028.00,2.63
4027.00,2.64
4026.00,2.65
4025.00,2.65
4024.00,2.66
4023.00,2.67
4022.00,2.68
4021.00,2.68
4020.00,2.69
4019.00,2.70
4018.00,2.71
4017.00,2.72
4016.00,2.72
4015.00,2.73
4014.00,2.74
4013.00,2.75
4012.00,2.76
4011.00,2.77
4010.00,2.79
4009.00,2.80
4008.00,2.81
4007.00,2.82
4006.00,2.83
4005.00,2.84
4004.00,2.85
4003.00,2.86
4002.00,2.87
4001.00,2.88
4000.00,2.89
