创建为新数据集,样品 1104 用户 Administrator 日期 星期二, 七月 30 2019
cm-1,%T
10000.00,4.17
9999.00,4.08
9998.00,3.99
9997.00,3.90
9996.00,3.80
9995.00,3.72
9994.00,3.63
9993.00,3.55
9992.00,3.47
9991.00,3.40
9990.00,3.33
9989.00,3.26
9988.00,3.20
9987.00,3.15
9986.00,3.10
9985.00,3.05
9984.00,3.01
9983.00,2.97
9982.00,2.93
9981.00,2.90
9980.00,2.87
9979.00,2.84
9978.00,2.81
9977.00,2.79
9976.00,2.77
9975.00,2.74
9974.00,2.72
9973.00,2.70
9972.00,2.68
9971.00,2.66
9970.00,2.64
9969.00,2.62
9968.00,2.59
9967.00,2.57
9966.00,2.54
9965.00,2.51
9964.00,2.48
9963.00,2.45
9962.00,2.42
9961.00,2.39
9960.00,2.36
9959.00,2.33
9958.00,2.30
9957.00,2.27
9956.00,2.25
9955.00,2.22
9954.00,2.20
9953.00,2.18
9952.00,2.16
9951.00,2.14
9950.00,2.13
9949.00,2.11
9948.00,2.09
9947.00,2.08
9946.00,2.07
9945.00,2.06
9944.00,2.05
9943.00,2.05
9942.00,2.05
9941.00,2.06
9940.00,2.07
9939.00,2.08
9938.00,2.10
9937.00,2.11
9936.00,2.13
9935.00,2.16
9934.00,2.18
9933.00,2.20
9932.00,2.23
9931.00,2.25
9930.00,2.27
9929.00,2.30
9928.00,2.32
9927.00,2.35
9926.00,2.37
9925.00,2.40
9924.00,2.43
9923.00,2.45
9922.00,2.48
9921.00,2.50
9920.00,2.53
9919.00,2.55
9918.00,2.56
9917.00,2.57
9916.00,2.58
9915.00,2.59
9914.00,2.60
9913.00,2.60
9912.00,2.60
9911.00,2.60
9910.00,2.60
9909.00,2.60
9908.00,2.61
9907.00,2.61
9906.00,2.61
9905.00,2.61
9904.00,2.62
9903.00,2.62
9902.00,2.63
9901.00,2.63
9900.00,2.63
9899.00,2.63
9898.00,2.63
9897.00,2.63
9896.00,2.64
9895.00,2.64
9894.00,2.64
9893.00,2.64
9892.00,2.65
9891.00,2.65
9890.00,2.66
9889.00,2.66
9888.00,2.66
9887.00,2.67
9886.00,2.67
9885.00,2.66
9884.00,2.66
9883.00,2.65
9882.00,2.65
9881.00,2.64
9880.00,2.63
9879.00,2.62
9878.00,2.62
9877.00,2.61
9876.00,2.60
9875.00,2.59
9874.00,2.59
9873.00,2.58
9872.00,2.58
9871.00,2.57
9870.00,2.56
9869.00,2.55
9868.00,2.54
9867.00,2.53
9866.00,2.52
9865.00,2.51
9864.00,2.50
9863.00,2.49
9862.00,2.48
9861.00,2.47
9860.00,2.46
9859.00,2.46
9858.00,2.45
9857.00,2.45
9856.00,2.44
9855.00,2.43
9854.00,2.42
9853.00,2.41
9852.00,2.39
9851.00,2.38
9850.00,2.36
9849.00,2.34
9848.00,2.32
9847.00,2.30
9846.00,2.28
9845.00,2.26
9844.00,2.25
9843.00,2.24
9842.00,2.22
9841.00,2.22
9840.00,2.21
9839.00,2.21
9838.00,2.22
9837.00,2.22
9836.00,2.23
9835.00,2.24
9834.00,2.25
9833.00,2.27
9832.00,2.28
9831.00,2.30
9830.00,2.31
9829.00,2.33
9828.00,2.35
9827.00,2.37
9826.00,2.39
9825.00,2.41
9824.00,2.44
9823.00,2.46
9822.00,2.49
9821.00,2.52
9820.00,2.54
9819.00,2.57
9818.00,2.60
9817.00,2.62
9816.00,2.64
9815.00,2.66
9814.00,2.68
9813.00,2.69
9812.00,2.70
9811.00,2.71
9810.00,2.71
9809.00,2.71
9808.00,2.70
9807.00,2.69
9806.00,2.68
9805.00,2.67
9804.00,2.65
9803.00,2.63
9802.00,2.61
9801.00,2.59
9800.00,2.56
9799.00,2.53
9798.00,2.50
9797.00,2.46
9796.00,2.43
9795.00,2.39
9794.00,2.35
9793.00,2.31
9792.00,2.27
9791.00,2.23
9790.00,2.19
9789.00,2.16
9788.00,2.12
9787.00,2.09
9786.00,2.06
9785.00,2.04
9784.00,2.02
9783.00,2.00
9782.00,1.98
9781.00,1.97
9780.00,1.97
9779.00,1.97
9778.00,1.97
9777.00,1.97
9776.00,1.98
9775.00,1.99
9774.00,2.01
9773.00,2.02
9772.00,2.04
9771.00,2.07
9770.00,2.09
9769.00,2.11
9768.00,2.14
9767.00,2.16
9766.00,2.18
9765.00,2.20
9764.00,2.21
9763.00,2.23
9762.00,2.24
9761.00,2.25
9760.00,2.26
9759.00,2.27
9758.00,2.28
9757.00,2.28
9756.00,2.29
9755.00,2.29
9754.00,2.28
9753.00,2.28
9752.00,2.28
9751.00,2.27
9750.00,2.26
9749.00,2.26
9748.00,2.26
9747.00,2.26
9746.00,2.26
9745.00,2.26
9744.00,2.26
9743.00,2.27
9742.00,2.28
9741.00,2.29
9740.00,2.30
9739.00,2.31
9738.00,2.33
9737.00,2.35
9736.00,2.37
9735.00,2.39
9734.00,2.41
9733.00,2.42
9732.00,2.44
9731.00,2.46
9730.00,2.48
9729.00,2.50
9728.00,2.51
9727.00,2.53
9726.00,2.54
9725.00,2.55
9724.00,2.56
9723.00,2.57
9722.00,2.57
9721.00,2.57
9720.00,2.56
9719.00,2.55
9718.00,2.54
9717.00,2.53
9716.00,2.52
9715.00,2.51
9714.00,2.49
9713.00,2.47
9712.00,2.46
9711.00,2.44
9710.00,2.42
9709.00,2.40
9708.00,2.38
9707.00,2.36
9706.00,2.34
9705.00,2.32
9704.00,2.31
9703.00,2.29
9702.00,2.28
9701.00,2.26
9700.00,2.25
9699.00,2.25
9698.00,2.24
9697.00,2.24
9696.00,2.24
9695.00,2.24
9694.00,2.24
9693.00,2.24
9692.00,2.24
9691.00,2.24
9690.00,2.24
9689.00,2.24
9688.00,2.25
9687.00,2.25
9686.00,2.26
9685.00,2.26
9684.00,2.27
9683.00,2.27
9682.00,2.28
9681.00,2.29
9680.00,2.30
9679.00,2.31
9678.00,2.32
9677.00,2.33
9676.00,2.34
9675.00,2.35
9674.00,2.36
9673.00,2.37
9672.00,2.38
9671.00,2.39
9670.00,2.41
9669.00,2.42
9668.00,2.43
9667.00,2.44
9666.00,2.46
9665.00,2.48
9664.00,2.49
9663.00,2.51
9662.00,2.53
9661.00,2.55
9660.00,2.57
9659.00,2.60
9658.00,2.62
9657.00,2.64
9656.00,2.66
9655.00,2.68
9654.00,2.71
9653.00,2.73
9652.00,2.74
9651.00,2.76
9650.00,2.78
9649.00,2.79
9648.00,2.80
9647.00,2.81
9646.00,2.82
9645.00,2.83
9644.00,2.83
9643.00,2.83
9642.00,2.84
9641.00,2.83
9640.00,2.83
9639.00,2.82
9638.00,2.81
9637.00,2.80
9636.00,2.79
9635.00,2.77
9634.00,2.75
9633.00,2.73
9632.00,2.71
9631.00,2.68
9630.00,2.66
9629.00,2.63
9628.00,2.60
9627.00,2.57
9626.00,2.55
9625.00,2.52
9624.00,2.49
9623.00,2.47
9622.00,2.44
9621.00,2.42
9620.00,2.40
9619.00,2.38
9618.00,2.36
9617.00,2.35
9616.00,2.33
9615.00,2.31
9614.00,2.29
9613.00,2.28
9612.00,2.27
9611.00,2.25
9610.00,2.24
9609.00,2.23
9608.00,2.23
9607.00,2.22
9606.00,2.22
9605.00,2.22
9604.00,2.22
9603.00,2.22
9602.00,2.22
9601.00,2.22
9600.00,2.22
9599.00,2.22
9598.00,2.23
9597.00,2.23
9596.00,2.24
9595.00,2.25
9594.00,2.26
9593.00,2.27
9592.00,2.28
9591.00,2.29
9590.00,2.30
9589.00,2.32
9588.00,2.34
9587.00,2.36
9586.00,2.38
9585.00,2.40
9584.00,2.42
9583.00,2.44
9582.00,2.46
9581.00,2.48
9580.00,2.50
9579.00,2.52
9578.00,2.53
9577.00,2.55
9576.00,2.56
9575.00,2.58
9574.00,2.59
9573.00,2.60
9572.00,2.61
9571.00,2.62
9570.00,2.63
9569.00,2.63
9568.00,2.64
9567.00,2.64
9566.00,2.64
9565.00,2.64
9564.00,2.63
9563.00,2.63
9562.00,2.62
9561.00,2.61
9560.00,2.60
9559.00,2.59
9558.00,2.57
9557.00,2.56
9556.00,2.54
9555.00,2.53
9554.00,2.51
9553.00,2.50
9552.00,2.48
9551.00,2.47
9550.00,2.46
9549.00,2.45
9548.00,2.43
9547.00,2.42
9546.00,2.41
9545.00,2.40
9544.00,2.39
9543.00,2.37
9542.00,2.36
9541.00,2.35
9540.00,2.34
9539.00,2.32
9538.00,2.31
9537.00,2.30
9536.00,2.29
9535.00,2.27
9534.00,2.26
9533.00,2.25
9532.00,2.24
9531.00,2.23
9530.00,2.23
9529.00,2.22
9528.00,2.21
9527.00,2.20
9526.00,2.20
9525.00,2.19
9524.00,2.19
9523.00,2.19
9522.00,2.19
9521.00,2.19
9520.00,2.19
9519.00,2.19
9518.00,2.20
9517.00,2.21
9516.00,2.21
9515.00,2.22
9514.00,2.23
9513.00,2.24
9512.00,2.25
9511.00,2.25
9510.00,2.26
9509.00,2.27
9508.00,2.27
9507.00,2.28
9506.00,2.28
9505.00,2.29
9504.00,2.29
9503.00,2.30
9502.00,2.31
9501.00,2.31
9500.00,2.32
9499.00,2.33
9498.00,2.33
9497.00,2.34
9496.00,2.34
9495.00,2.34
9494.00,2.34
9493.00,2.34
9492.00,2.33
9491.00,2.33
9490.00,2.32
9489.00,2.32
9488.00,2.31
9487.00,2.31
9486.00,2.31
9485.00,2.31
9484.00,2.31
9483.00,2.32
9482.00,2.32
9481.00,2.33
9480.00,2.34
9479.00,2.35
9478.00,2.35
9477.00,2.36
9476.00,2.36
9475.00,2.36
9474.00,2.35
9473.00,2.35
9472.00,2.35
9471.00,2.34
9470.00,2.34
9469.00,2.33
9468.00,2.33
9467.00,2.34
9466.00,2.34
9465.00,2.35
9464.00,2.35
9463.00,2.36
9462.00,2.37
9461.00,2.38
9460.00,2.38
9459.00,2.39
9458.00,2.39
9457.00,2.40
9456.00,2.40
9455.00,2.40
9454.00,2.40
9453.00,2.40
9452.00,2.40
9451.00,2.41
9450.00,2.42
9449.00,2.43
9448.00,2.44
9447.00,2.45
9446.00,2.46
9445.00,2.47
9444.00,2.48
9443.00,2.49
9442.00,2.50
9441.00,2.50
9440.00,2.50
9439.00,2.49
9438.00,2.49
9437.00,2.48
9436.00,2.47
9435.00,2.46
9434.00,2.45
9433.00,2.44
9432.00,2.43
9431.00,2.42
9430.00,2.41
9429.00,2.40
9428.00,2.39
9427.00,2.38
9426.00,2.37
9425.00,2.36
9424.00,2.34
9423.00,2.33
9422.00,2.31
9421.00,2.30
9420.00,2.28
9419.00,2.26
9418.00,2.25
9417.00,2.24
9416.00,2.22
9415.00,2.22
9414.00,2.21
9413.00,2.21
9412.00,2.20
9411.00,2.20
9410.00,2.20
9409.00,2.20
9408.00,2.21
9407.00,2.21
9406.00,2.22
9405.00,2.23
9404.00,2.23
9403.00,2.24
9402.00,2.25
9401.00,2.27
9400.00,2.28
9399.00,2.29
9398.00,2.30
9397.00,2.32
9396.00,2.34
9395.00,2.35
9394.00,2.37
9393.00,2.40
9392.00,2.42
9391.00,2.44
9390.00,2.47
9389.00,2.49
9388.00,2.52
9387.00,2.54
9386.00,2.56
9385.00,2.59
9384.00,2.60
9383.00,2.62
9382.00,2.64
9381.00,2.65
9380.00,2.66
9379.00,2.67
9378.00,2.68
9377.00,2.69
9376.00,2.69
9375.00,2.70
9374.00,2.71
9373.00,2.71
9372.00,2.71
9371.00,2.72
9370.00,2.72
9369.00,2.71
9368.00,2.70
9367.00,2.69
9366.00,2.68
9365.00,2.66
9364.00,2.64
9363.00,2.62
9362.00,2.59
9361.00,2.57
9360.00,2.54
9359.00,2.52
9358.00,2.49
9357.00,2.47
9356.00,2.45
9355.00,2.43
9354.00,2.41
9353.00,2.39
9352.00,2.37
9351.00,2.35
9350.00,2.34
9349.00,2.32
9348.00,2.30
9347.00,2.29
9346.00,2.27
9345.00,2.26
9344.00,2.25
9343.00,2.24
9342.00,2.24
9341.00,2.24
9340.00,2.24
9339.00,2.24
9338.00,2.24
9337.00,2.24
9336.00,2.25
9335.00,2.26
9334.00,2.26
9333.00,2.27
9332.00,2.27
9331.00,2.27
9330.00,2.28
9329.00,2.28
9328.00,2.29
9327.00,2.29
9326.00,2.30
9325.00,2.31
9324.00,2.31
9323.00,2.32
9322.00,2.32
9321.00,2.32
9320.00,2.33
9319.00,2.33
9318.00,2.33
9317.00,2.32
9316.00,2.32
9315.00,2.31
9314.00,2.31
9313.00,2.30
9312.00,2.30
9311.00,2.30
9310.00,2.30
9309.00,2.30
9308.00,2.31
9307.00,2.31
9306.00,2.32
9305.00,2.33
9304.00,2.34
9303.00,2.35
9302.00,2.36
9301.00,2.37
9300.00,2.38
9299.00,2.39
9298.00,2.40
9297.00,2.41
9296.00,2.43
9295.00,2.44
9294.00,2.46
9293.00,2.48
9292.00,2.50
9291.00,2.51
9290.00,2.53
9289.00,2.55
9288.00,2.57
9287.00,2.58
9286.00,2.60
9285.00,2.60
9284.00,2.61
9283.00,2.61
9282.00,2.61
9281.00,2.61
9280.00,2.60
9279.00,2.59
9278.00,2.58
9277.00,2.57
9276.00,2.55
9275.00,2.54
9274.00,2.52
9273.00,2.50
9272.00,2.48
9271.00,2.46
9270.00,2.44
9269.00,2.41
9268.00,2.38
9267.00,2.36
9266.00,2.33
9265.00,2.30
9264.00,2.27
9263.00,2.24
9262.00,2.22
9261.00,2.19
9260.00,2.18
9259.00,2.16
9258.00,2.15
9257.00,2.15
9256.00,2.15
9255.00,2.14
9254.00,2.15
9253.00,2.15
9252.00,2.16
9251.00,2.17
9250.00,2.17
9249.00,2.18
9248.00,2.19
9247.00,2.20
9246.00,2.22
9245.00,2.23
9244.00,2.24
9243.00,2.26
9242.00,2.28
9241.00,2.30
9240.00,2.31
9239.00,2.33
9238.00,2.35
9237.00,2.37
9236.00,2.39
9235.00,2.40
9234.00,2.41
9233.00,2.43
9232.00,2.44
9231.00,2.44
9230.00,2.45
9229.00,2.46
9228.00,2.47
9227.00,2.47
9226.00,2.48
9225.00,2.48
9224.00,2.49
9223.00,2.49
9222.00,2.49
9221.00,2.50
9220.00,2.50
9219.00,2.50
9218.00,2.51
9217.00,2.51
9216.00,2.51
9215.00,2.51
9214.00,2.52
9213.00,2.52
9212.00,2.53
9211.00,2.53
9210.00,2.54
9209.00,2.54
9208.00,2.55
9207.00,2.55
9206.00,2.56
9205.00,2.56
9204.00,2.56
9203.00,2.57
9202.00,2.56
9201.00,2.56
9200.00,2.56
9199.00,2.55
9198.00,2.54
9197.00,2.53
9196.00,2.51
9195.00,2.50
9194.00,2.48
9193.00,2.46
9192.00,2.45
9191.00,2.43
9190.00,2.41
9189.00,2.39
9188.00,2.37
9187.00,2.35
9186.00,2.33
9185.00,2.30
9184.00,2.28
9183.00,2.25
9182.00,2.22
9181.00,2.20
9180.00,2.17
9179.00,2.15
9178.00,2.13
9177.00,2.10
9176.00,2.09
9175.00,2.07
9174.00,2.06
9173.00,2.05
9172.00,2.05
9171.00,2.05
9170.00,2.06
9169.00,2.07
9168.00,2.09
9167.00,2.11
9166.00,2.13
9165.00,2.15
9164.00,2.17
9163.00,2.20
9162.00,2.22
9161.00,2.25
9160.00,2.27
9159.00,2.30
9158.00,2.33
9157.00,2.35
9156.00,2.39
9155.00,2.42
9154.00,2.45
9153.00,2.48
9152.00,2.51
9151.00,2.54
9150.00,2.57
9149.00,2.59
9148.00,2.62
9147.00,2.64
9146.00,2.66
9145.00,2.67
9144.00,2.68
9143.00,2.69
9142.00,2.69
9141.00,2.69
9140.00,2.70
9139.00,2.70
9138.00,2.69
9137.00,2.69
9136.00,2.69
9135.00,2.70
9134.00,2.70
9133.00,2.71
9132.00,2.71
9131.00,2.72
9130.00,2.73
9129.00,2.74
9128.00,2.74
9127.00,2.75
9126.00,2.76
9125.00,2.77
9124.00,2.77
9123.00,2.78
9122.00,2.79
9121.00,2.80
9120.00,2.81
9119.00,2.82
9118.00,2.83
9117.00,2.84
9116.00,2.85
9115.00,2.85
9114.00,2.86
9113.00,2.86
9112.00,2.86
9111.00,2.86
9110.00,2.86
9109.00,2.86
9108.00,2.85
9107.00,2.84
9106.00,2.83
9105.00,2.82
9104.00,2.81
9103.00,2.79
9102.00,2.77
9101.00,2.74
9100.00,2.72
9099.00,2.69
9098.00,2.66
9097.00,2.63
9096.00,2.60
9095.00,2.57
9094.00,2.54
9093.00,2.52
9092.00,2.49
9091.00,2.47
9090.00,2.45
9089.00,2.44
9088.00,2.43
9087.00,2.42
9086.00,2.41
9085.00,2.41
9084.00,2.40
9083.00,2.40
9082.00,2.39
9081.00,2.38
9080.00,2.38
9079.00,2.37
9078.00,2.37
9077.00,2.37
9076.00,2.36
9075.00,2.36
9074.00,2.36
9073.00,2.37
9072.00,2.37
9071.00,2.37
9070.00,2.38
9069.00,2.39
9068.00,2.39
9067.00,2.40
9066.00,2.40
9065.00,2.40
9064.00,2.39
9063.00,2.38
9062.00,2.37
9061.00,2.35
9060.00,2.34
9059.00,2.32
9058.00,2.30
9057.00,2.29
9056.00,2.27
9055.00,2.25
9054.00,2.24
9053.00,2.23
9052.00,2.22
9051.00,2.21
9050.00,2.20
9049.00,2.19
9048.00,2.19
9047.00,2.18
9046.00,2.18
9045.00,2.18
9044.00,2.18
9043.00,2.18
9042.00,2.18
9041.00,2.18
9040.00,2.19
9039.00,2.19
9038.00,2.20
9037.00,2.22
9036.00,2.23
9035.00,2.25
9034.00,2.27
9033.00,2.30
9032.00,2.32
9031.00,2.35
9030.00,2.38
9029.00,2.41
9028.00,2.44
9027.00,2.46
9026.00,2.49
9025.00,2.51
9024.00,2.53
9023.00,2.55
9022.00,2.57
9021.00,2.58
9020.00,2.60
9019.00,2.61
9018.00,2.62
9017.00,2.63
9016.00,2.64
9015.00,2.65
9014.00,2.66
9013.00,2.66
9012.00,2.66
9011.00,2.66
9010.00,2.66
9009.00,2.65
9008.00,2.64
9007.00,2.62
9006.00,2.61
9005.00,2.59
9004.00,2.56
9003.00,2.54
9002.00,2.51
9001.00,2.49
9000.00,2.46
8999.00,2.44
8998.00,2.41
8997.00,2.39
8996.00,2.36
8995.00,2.34
8994.00,2.32
8993.00,2.31
8992.00,2.29
8991.00,2.27
8990.00,2.26
8989.00,2.24
8988.00,2.23
8987.00,2.22
8986.00,2.21
8985.00,2.20
8984.00,2.19
8983.00,2.19
8982.00,2.19
8981.00,2.19
8980.00,2.19
8979.00,2.20
8978.00,2.21
8977.00,2.22
8976.00,2.24
8975.00,2.25
8974.00,2.27
8973.00,2.29
8972.00,2.31
8971.00,2.33
8970.00,2.35
8969.00,2.37
8968.00,2.40
8967.00,2.42
8966.00,2.43
8965.00,2.45
8964.00,2.47
8963.00,2.49
8962.00,2.51
8961.00,2.52
8960.00,2.54
8959.00,2.56
8958.00,2.58
8957.00,2.60
8956.00,2.61
8955.00,2.63
8954.00,2.65
8953.00,2.66
8952.00,2.67
8951.00,2.69
8950.00,2.70
8949.00,2.71
8948.00,2.72
8947.00,2.73
8946.00,2.74
8945.00,2.75
8944.00,2.76
8943.00,2.76
8942.00,2.77
8941.00,2.77
8940.00,2.77
8939.00,2.78
8938.00,2.78
8937.00,2.78
8936.00,2.79
8935.00,2.79
8934.00,2.79
8933.00,2.78
8932.00,2.78
8931.00,2.78
8930.00,2.77
8929.00,2.77
8928.00,2.76
8927.00,2.76
8926.00,2.75
8925.00,2.74
8924.00,2.73
8923.00,2.72
8922.00,2.71
8921.00,2.70
8920.00,2.69
8919.00,2.68
8918.00,2.67
8917.00,2.66
8916.00,2.65
8915.00,2.64
8914.00,2.63
8913.00,2.62
8912.00,2.61
8911.00,2.60
8910.00,2.58
8909.00,2.57
8908.00,2.56
8907.00,2.55
8906.00,2.54
8905.00,2.53
8904.00,2.52
8903.00,2.52
8902.00,2.51
8901.00,2.50
8900.00,2.49
8899.00,2.49
8898.00,2.48
8897.00,2.48
8896.00,2.47
8895.00,2.46
8894.00,2.46
8893.00,2.45
8892.00,2.44
8891.00,2.44
8890.00,2.43
8889.00,2.42
8888.00,2.42
8887.00,2.41
8886.00,2.41
8885.00,2.40
8884.00,2.40
8883.00,2.40
8882.00,2.40
8881.00,2.40
8880.00,2.40
8879.00,2.40
8878.00,2.40
8877.00,2.40
8876.00,2.41
8875.00,2.41
8874.00,2.41
8873.00,2.41
8872.00,2.41
8871.00,2.41
8870.00,2.42
8869.00,2.42
8868.00,2.42
8867.00,2.42
8866.00,2.42
8865.00,2.42
8864.00,2.41
8863.00,2.41
8862.00,2.41
8861.00,2.41
8860.00,2.41
8859.00,2.41
8858.00,2.41
8857.00,2.41
8856.00,2.41
8855.00,2.41
8854.00,2.40
8853.00,2.40
8852.00,2.39
8851.00,2.38
8850.00,2.37
8849.00,2.37
8848.00,2.36
8847.00,2.35
8846.00,2.34
8845.00,2.33
8844.00,2.32
8843.00,2.31
8842.00,2.30
8841.00,2.29
8840.00,2.29
8839.00,2.28
8838.00,2.27
8837.00,2.27
8836.00,2.26
8835.00,2.26
8834.00,2.25
8833.00,2.25
8832.00,2.24
8831.00,2.24
8830.00,2.23
8829.00,2.23
8828.00,2.22
8827.00,2.22
8826.00,2.22
8825.00,2.22
8824.00,2.22
8823.00,2.22
8822.00,2.22
8821.00,2.22
8820.00,2.22
8819.00,2.23
8818.00,2.23
8817.00,2.24
8816.00,2.25
8815.00,2.26
8814.00,2.27
8813.00,2.28
8812.00,2.29
8811.00,2.31
8810.00,2.32
8809.00,2.33
8808.00,2.34
8807.00,2.35
8806.00,2.36
8805.00,2.37
8804.00,2.38
8803.00,2.39
8802.00,2.41
8801.00,2.42
8800.00,2.43
8799.00,2.44
8798.00,2.45
8797.00,2.46
8796.00,2.47
8795.00,2.48
8794.00,2.49
8793.00,2.49
8792.00,2.50
8791.00,2.50
8790.00,2.50
8789.00,2.50
8788.00,2.50
8787.00,2.50
8786.00,2.49
8785.00,2.49
8784.00,2.49
8783.00,2.48
8782.00,2.48
8781.00,2.47
8780.00,2.47
8779.00,2.46
8778.00,2.45
8777.00,2.44
8776.00,2.43
8775.00,2.42
8774.00,2.41
8773.00,2.40
8772.00,2.39
8771.00,2.38
8770.00,2.36
8769.00,2.35
8768.00,2.34
8767.00,2.33
8766.00,2.32
8765.00,2.31
8764.00,2.30
8763.00,2.29
8762.00,2.28
8761.00,2.27
8760.00,2.27
8759.00,2.26
8758.00,2.26
8757.00,2.26
8756.00,2.26
8755.00,2.26
8754.00,2.26
8753.00,2.26
8752.00,2.27
8751.00,2.28
8750.00,2.29
8749.00,2.30
8748.00,2.31
8747.00,2.32
8746.00,2.33
8745.00,2.34
8744.00,2.35
8743.00,2.36
8742.00,2.37
8741.00,2.37
8740.00,2.38
8739.00,2.39
8738.00,2.40
8737.00,2.41
8736.00,2.42
8735.00,2.43
8734.00,2.44
8733.00,2.44
8732.00,2.45
8731.00,2.45
8730.00,2.45
8729.00,2.44
8728.00,2.44
8727.00,2.43
8726.00,2.42
8725.00,2.41
8724.00,2.40
8723.00,2.39
8722.00,2.37
8721.00,2.36
8720.00,2.35
8719.00,2.34
8718.00,2.33
8717.00,2.32
8716.00,2.32
8715.00,2.31
8714.00,2.31
8713.00,2.31
8712.00,2.31
8711.00,2.31
8710.00,2.31
8709.00,2.31
8708.00,2.31
8707.00,2.31
8706.00,2.31
8705.00,2.32
8704.00,2.32
8703.00,2.33
8702.00,2.34
8701.00,2.36
8700.00,2.38
8699.00,2.39
8698.00,2.41
8697.00,2.43
8696.00,2.46
8695.00,2.48
8694.00,2.50
8693.00,2.52
8692.00,2.53
8691.00,2.55
8690.00,2.56
8689.00,2.58
8688.00,2.59
8687.00,2.60
8686.00,2.61
8685.00,2.61
8684.00,2.62
8683.00,2.63
8682.00,2.64
8681.00,2.65
8680.00,2.66
8679.00,2.66
8678.00,2.67
8677.00,2.67
8676.00,2.67
8675.00,2.67
8674.00,2.67
8673.00,2.66
8672.00,2.65
8671.00,2.64
8670.00,2.63
8669.00,2.62
8668.00,2.61
8667.00,2.60
8666.00,2.60
8665.00,2.59
8664.00,2.59
8663.00,2.59
8662.00,2.59
8661.00,2.58
8660.00,2.58
8659.00,2.58
8658.00,2.58
8657.00,2.57
8656.00,2.57
8655.00,2.56
8654.00,2.56
8653.00,2.56
8652.00,2.55
8651.00,2.55
8650.00,2.55
8649.00,2.54
8648.00,2.54
8647.00,2.55
8646.00,2.55
8645.00,2.55
8644.00,2.56
8643.00,2.56
8642.00,2.56
8641.00,2.57
8640.00,2.57
8639.00,2.56
8638.00,2.56
8637.00,2.55
8636.00,2.54
8635.00,2.53
8634.00,2.52
8633.00,2.51
8632.00,2.49
8631.00,2.48
8630.00,2.46
8629.00,2.44
8628.00,2.42
8627.00,2.40
8626.00,2.38
8625.00,2.35
8624.00,2.33
8623.00,2.30
8622.00,2.28
8621.00,2.25
8620.00,2.22
8619.00,2.19
8618.00,2.17
8617.00,2.14
8616.00,2.11
8615.00,2.09
8614.00,2.06
8613.00,2.04
8612.00,2.02
8611.00,2.00
8610.00,1.98
8609.00,1.96
8608.00,1.95
8607.00,1.94
8606.00,1.93
8605.00,1.93
8604.00,1.93
8603.00,1.93
8602.00,1.93
8601.00,1.94
8600.00,1.95
8599.00,1.97
8598.00,1.99
8597.00,2.01
8596.00,2.03
8595.00,2.06
8594.00,2.08
8593.00,2.11
8592.00,2.14
8591.00,2.16
8590.00,2.19
8589.00,2.22
8588.00,2.24
8587.00,2.27
8586.00,2.29
8585.00,2.32
8584.00,2.34
8583.00,2.36
8582.00,2.38
8581.00,2.40
8580.00,2.42
8579.00,2.44
8578.00,2.46
8577.00,2.47
8576.00,2.49
8575.00,2.50
8574.00,2.51
8573.00,2.51
8572.00,2.52
8571.00,2.52
8570.00,2.52
8569.00,2.51
8568.00,2.51
8567.00,2.50
8566.00,2.50
8565.00,2.49
8564.00,2.49
8563.00,2.49
8562.00,2.48
8561.00,2.48
8560.00,2.48
8559.00,2.48
8558.00,2.48
8557.00,2.48
8556.00,2.49
8555.00,2.49
8554.00,2.49
8553.00,2.50
8552.00,2.50
8551.00,2.50
8550.00,2.51
8549.00,2.51
8548.00,2.52
8547.00,2.52
8546.00,2.53
8545.00,2.53
8544.00,2.54
8543.00,2.55
8542.00,2.56
8541.00,2.56
8540.00,2.57
8539.00,2.58
8538.00,2.58
8537.00,2.59
8536.00,2.59
8535.00,2.59
8534.00,2.59
8533.00,2.59
8532.00,2.59
8531.00,2.59
8530.00,2.58
8529.00,2.58
8528.00,2.57
8527.00,2.56
8526.00,2.56
8525.00,2.55
8524.00,2.55
8523.00,2.55
8522.00,2.54
8521.00,2.54
8520.00,2.54
8519.00,2.53
8518.00,2.53
8517.00,2.52
8516.00,2.52
8515.00,2.51
8514.00,2.50
8513.00,2.49
8512.00,2.49
8511.00,2.48
8510.00,2.48
8509.00,2.47
8508.00,2.47
8507.00,2.46
8506.00,2.46
8505.00,2.46
8504.00,2.46
8503.00,2.46
8502.00,2.46
8501.00,2.46
8500.00,2.46
8499.00,2.46
8498.00,2.46
8497.00,2.46
8496.00,2.45
8495.00,2.45
8494.00,2.45
8493.00,2.46
8492.00,2.46
8491.00,2.46
8490.00,2.47
8489.00,2.48
8488.00,2.49
8487.00,2.50
8486.00,2.51
8485.00,2.52
8484.00,2.52
8483.00,2.53
8482.00,2.54
8481.00,2.54
8480.00,2.55
8479.00,2.56
8478.00,2.56
8477.00,2.57
8476.00,2.57
8475.00,2.57
8474.00,2.58
8473.00,2.58
8472.00,2.58
8471.00,2.58
8470.00,2.58
8469.00,2.58
8468.00,2.58
8467.00,2.58
8466.00,2.58
8465.00,2.57
8464.00,2.57
8463.00,2.56
8462.00,2.56
8461.00,2.55
8460.00,2.54
8459.00,2.54
8458.00,2.53
8457.00,2.53
8456.00,2.53
8455.00,2.53
8454.00,2.53
8453.00,2.54
8452.00,2.54
8451.00,2.55
8450.00,2.55
8449.00,2.56
8448.00,2.57
8447.00,2.57
8446.00,2.58
8445.00,2.59
8444.00,2.59
8443.00,2.60
8442.00,2.61
8441.00,2.61
8440.00,2.62
8439.00,2.62
8438.00,2.62
8437.00,2.62
8436.00,2.63
8435.00,2.63
8434.00,2.63
8433.00,2.63
8432.00,2.62
8431.00,2.62
8430.00,2.61
8429.00,2.60
8428.00,2.59
8427.00,2.58
8426.00,2.57
8425.00,2.55
8424.00,2.54
8423.00,2.52
8422.00,2.50
8421.00,2.49
8420.00,2.47
8419.00,2.45
8418.00,2.43
8417.00,2.42
8416.00,2.40
8415.00,2.38
8414.00,2.37
8413.00,2.36
8412.00,2.34
8411.00,2.33
8410.00,2.32
8409.00,2.31
8408.00,2.31
8407.00,2.30
8406.00,2.30
8405.00,2.30
8404.00,2.30
8403.00,2.31
8402.00,2.31
8401.00,2.32
8400.00,2.33
8399.00,2.34
8398.00,2.35
8397.00,2.36
8396.00,2.37
8395.00,2.38
8394.00,2.40
8393.00,2.41
8392.00,2.43
8391.00,2.45
8390.00,2.46
8389.00,2.48
8388.00,2.50
8387.00,2.51
8386.00,2.53
8385.00,2.54
8384.00,2.55
8383.00,2.56
8382.00,2.57
8381.00,2.58
8380.00,2.58
8379.00,2.59
8378.00,2.59
8377.00,2.60
8376.00,2.60
8375.00,2.60
8374.00,2.61
8373.00,2.61
8372.00,2.61
8371.00,2.61
8370.00,2.61
8369.00,2.61
8368.00,2.61
8367.00,2.60
8366.00,2.59
8365.00,2.59
8364.00,2.58
8363.00,2.57
8362.00,2.56
8361.00,2.55
8360.00,2.54
8359.00,2.53
8358.00,2.52
8357.00,2.52
8356.00,2.51
8355.00,2.50
8354.00,2.50
8353.00,2.49
8352.00,2.48
8351.00,2.48
8350.00,2.47
8349.00,2.46
8348.00,2.45
8347.00,2.43
8346.00,2.42
8345.00,2.41
8344.00,2.40
8343.00,2.39
8342.00,2.38
8341.00,2.37
8340.00,2.36
8339.00,2.35
8338.00,2.35
8337.00,2.34
8336.00,2.34
8335.00,2.34
8334.00,2.33
8333.00,2.33
8332.00,2.33
8331.00,2.33
8330.00,2.33
8329.00,2.34
8328.00,2.34
8327.00,2.35
8326.00,2.35
8325.00,2.36
8324.00,2.37
8323.00,2.38
8322.00,2.40
8321.00,2.41
8320.00,2.43
8319.00,2.45
8318.00,2.46
8317.00,2.48
8316.00,2.50
8315.00,2.52
8314.00,2.54
8313.00,2.56
8312.00,2.58
8311.00,2.60
8310.00,2.62
8309.00,2.64
8308.00,2.66
8307.00,2.68
8306.00,2.70
8305.00,2.72
8304.00,2.74
8303.00,2.76
8302.00,2.77
8301.00,2.78
8300.00,2.79
8299.00,2.80
8298.00,2.81
8297.00,2.81
8296.00,2.82
8295.00,2.82
8294.00,2.82
8293.00,2.82
8292.00,2.82
8291.00,2.82
8290.00,2.81
8289.00,2.81
8288.00,2.80
8287.00,2.80
8286.00,2.79
8285.00,2.78
8284.00,2.76
8283.00,2.75
8282.00,2.74
8281.00,2.72
8280.00,2.70
8279.00,2.69
8278.00,2.67
8277.00,2.66
8276.00,2.64
8275.00,2.63
8274.00,2.62
8273.00,2.60
8272.00,2.59
8271.00,2.57
8270.00,2.56
8269.00,2.55
8268.00,2.53
8267.00,2.52
8266.00,2.50
8265.00,2.49
8264.00,2.48
8263.00,2.47
8262.00,2.46
8261.00,2.45
8260.00,2.44
8259.00,2.44
8258.00,2.43
8257.00,2.43
8256.00,2.43
8255.00,2.43
8254.00,2.42
8253.00,2.42
8252.00,2.42
8251.00,2.42
8250.00,2.41
8249.00,2.41
8248.00,2.41
8247.00,2.41
8246.00,2.41
8245.00,2.42
8244.00,2.42
8243.00,2.43
8242.00,2.43
8241.00,2.44
8240.00,2.45
8239.00,2.45
8238.00,2.46
8237.00,2.47
8236.00,2.48
8235.00,2.48
8234.00,2.48
8233.00,2.49
8232.00,2.49
8231.00,2.49
8230.00,2.49
8229.00,2.49
8228.00,2.49
8227.00,2.48
8226.00,2.49
8225.00,2.49
8224.00,2.49
8223.00,2.49
8222.00,2.49
8221.00,2.48
8220.00,2.48
8219.00,2.48
8218.00,2.47
8217.00,2.47
8216.00,2.46
8215.00,2.46
8214.00,2.45
8213.00,2.45
8212.00,2.44
8211.00,2.44
8210.00,2.44
8209.00,2.43
8208.00,2.43
8207.00,2.44
8206.00,2.44
8205.00,2.44
8204.00,2.45
8203.00,2.45
8202.00,2.46
8201.00,2.46
8200.00,2.47
8199.00,2.48
8198.00,2.48
8197.00,2.49
8196.00,2.50
8195.00,2.51
8194.00,2.52
8193.00,2.53
8192.00,2.54
8191.00,2.54
8190.00,2.55
8189.00,2.56
8188.00,2.56
8187.00,2.56
8186.00,2.57
8185.00,2.57
8184.00,2.57
8183.00,2.57
8182.00,2.57
8181.00,2.57
8180.00,2.57
8179.00,2.57
8178.00,2.57
8177.00,2.58
8176.00,2.58
8175.00,2.58
8174.00,2.58
8173.00,2.58
8172.00,2.58
8171.00,2.57
8170.00,2.57
8169.00,2.57
8168.00,2.57
8167.00,2.57
8166.00,2.57
8165.00,2.58
8164.00,2.58
8163.00,2.59
8162.00,2.59
8161.00,2.60
8160.00,2.61
8159.00,2.62
8158.00,2.62
8157.00,2.63
8156.00,2.63
8155.00,2.63
8154.00,2.63
8153.00,2.63
8152.00,2.63
8151.00,2.62
8150.00,2.61
8149.00,2.61
8148.00,2.60
8147.00,2.59
8146.00,2.59
8145.00,2.58
8144.00,2.58
8143.00,2.58
8142.00,2.57
8141.00,2.56
8140.00,2.56
8139.00,2.55
8138.00,2.54
8137.00,2.53
8136.00,2.52
8135.00,2.51
8134.00,2.50
8133.00,2.49
8132.00,2.49
8131.00,2.48
8130.00,2.48
8129.00,2.48
8128.00,2.48
8127.00,2.48
8126.00,2.49
8125.00,2.49
8124.00,2.50
8123.00,2.51
8122.00,2.52
8121.00,2.52
8120.00,2.53
8119.00,2.54
8118.00,2.55
8117.00,2.56
8116.00,2.56
8115.00,2.57
8114.00,2.58
8113.00,2.59
8112.00,2.61
8111.00,2.62
8110.00,2.63
8109.00,2.64
8108.00,2.65
8107.00,2.67
8106.00,2.68
8105.00,2.69
8104.00,2.70
8103.00,2.71
8102.00,2.72
8101.00,2.72
8100.00,2.73
8099.00,2.74
8098.00,2.74
8097.00,2.74
8096.00,2.75
8095.00,2.75
8094.00,2.75
8093.00,2.75
8092.00,2.76
8091.00,2.76
8090.00,2.76
8089.00,2.76
8088.00,2.75
8087.00,2.75
8086.00,2.74
8085.00,2.74
8084.00,2.73
8083.00,2.72
8082.00,2.71
8081.00,2.71
8080.00,2.70
8079.00,2.69
8078.00,2.68
8077.00,2.67
8076.00,2.67
8075.00,2.66
8074.00,2.65
8073.00,2.65
8072.00,2.64
8071.00,2.64
8070.00,2.64
8069.00,2.63
8068.00,2.63
8067.00,2.63
8066.00,2.63
8065.00,2.63
8064.00,2.63
8063.00,2.63
8062.00,2.63
8061.00,2.63
8060.00,2.63
8059.00,2.63
8058.00,2.63
8057.00,2.63
8056.00,2.64
8055.00,2.64
8054.00,2.65
8053.00,2.65
8052.00,2.65
8051.00,2.65
8050.00,2.65
8049.00,2.65
8048.00,2.66
8047.00,2.66
8046.00,2.66
8045.00,2.67
8044.00,2.67
8043.00,2.67
8042.00,2.67
8041.00,2.68
8040.00,2.68
8039.00,2.69
8038.00,2.69
8037.00,2.70
8036.00,2.71
8035.00,2.71
8034.00,2.72
8033.00,2.72
8032.00,2.73
8031.00,2.73
8030.00,2.73
8029.00,2.74
8028.00,2.74
8027.00,2.74
8026.00,2.74
8025.00,2.75
8024.00,2.75
8023.00,2.75
8022.00,2.74
8021.00,2.74
8020.00,2.74
8019.00,2.73
8018.00,2.73
8017.00,2.72
8016.00,2.71
8015.00,2.70
8014.00,2.69
8013.00,2.69
8012.00,2.68
8011.00,2.67
8010.00,2.66
8009.00,2.66
8008.00,2.65
8007.00,2.65
8006.00,2.64
8005.00,2.64
8004.00,2.64
8003.00,2.64
8002.00,2.64
8001.00,2.64
8000.00,2.64
7999.00,2.64
7998.00,2.65
7997.00,2.65
7996.00,2.66
7995.00,2.66
7994.00,2.67
7993.00,2.67
7992.00,2.68
7991.00,2.68
7990.00,2.68
7989.00,2.69
7988.00,2.69
7987.00,2.69
7986.00,2.69
7985.00,2.68
7984.00,2.68
7983.00,2.67
7982.00,2.66
7981.00,2.65
7980.00,2.65
7979.00,2.63
7978.00,2.62
7977.00,2.61
7976.00,2.60
7975.00,2.59
7974.00,2.57
7973.00,2.56
7972.00,2.54
7971.00,2.53
7970.00,2.51
7969.00,2.50
7968.00,2.49
7967.00,2.47
7966.00,2.46
7965.00,2.45
7964.00,2.45
7963.00,2.44
7962.00,2.44
7961.00,2.43
7960.00,2.44
7959.00,2.44
7958.00,2.44
7957.00,2.45
7956.00,2.46
7955.00,2.47
7954.00,2.48
7953.00,2.49
7952.00,2.51
7951.00,2.52
7950.00,2.53
7949.00,2.54
7948.00,2.56
7947.00,2.57
7946.00,2.58
7945.00,2.60
7944.00,2.61
7943.00,2.63
7942.00,2.64
7941.00,2.66
7940.00,2.68
7939.00,2.69
7938.00,2.71
7937.00,2.72
7936.00,2.74
7935.00,2.75
7934.00,2.76
7933.00,2.77
7932.00,2.77
7931.00,2.78
7930.00,2.78
7929.00,2.78
7928.00,2.78
7927.00,2.77
7926.00,2.77
7925.00,2.77
7924.00,2.77
7923.00,2.77
7922.00,2.78
7921.00,2.78
7920.00,2.78
7919.00,2.78
7918.00,2.78
7917.00,2.77
7916.00,2.77
7915.00,2.76
7914.00,2.75
7913.00,2.74
7912.00,2.73
7911.00,2.72
7910.00,2.71
7909.00,2.70
7908.00,2.69
7907.00,2.68
7906.00,2.67
7905.00,2.67
7904.00,2.66
7903.00,2.66
7902.00,2.66
7901.00,2.66
7900.00,2.65
7899.00,2.65
7898.00,2.65
7897.00,2.64
7896.00,2.63
7895.00,2.63
7894.00,2.62
7893.00,2.61
7892.00,2.61
7891.00,2.60
7890.00,2.60
7889.00,2.60
7888.00,2.60
7887.00,2.60
7886.00,2.60
7885.00,2.60
7884.00,2.61
7883.00,2.61
7882.00,2.62
7881.00,2.62
7880.00,2.62
7879.00,2.63
7878.00,2.63
7877.00,2.63
7876.00,2.63
7875.00,2.64
7874.00,2.64
7873.00,2.65
7872.00,2.65
7871.00,2.66
7870.00,2.66
7869.00,2.67
7868.00,2.68
7867.00,2.68
7866.00,2.69
7865.00,2.70
7864.00,2.70
7863.00,2.71
7862.00,2.71
7861.00,2.72
7860.00,2.72
7859.00,2.73
7858.00,2.73
7857.00,2.73
7856.00,2.74
7855.00,2.74
7854.00,2.74
7853.00,2.74
7852.00,2.74
7851.00,2.73
7850.00,2.73
7849.00,2.72
7848.00,2.72
7847.00,2.71
7846.00,2.70
7845.00,2.69
7844.00,2.69
7843.00,2.68
7842.00,2.67
7841.00,2.66
7840.00,2.66
7839.00,2.65
7838.00,2.65
7837.00,2.64
7836.00,2.63
7835.00,2.63
7834.00,2.62
7833.00,2.62
7832.00,2.61
7831.00,2.61
7830.00,2.60
7829.00,2.60
7828.00,2.60
7827.00,2.60
7826.00,2.60
7825.00,2.60
7824.00,2.60
7823.00,2.61
7822.00,2.61
7821.00,2.62
7820.00,2.63
7819.00,2.63
7818.00,2.64
7817.00,2.65
7816.00,2.65
7815.00,2.66
7814.00,2.66
7813.00,2.67
7812.00,2.67
7811.00,2.67
7810.00,2.68
7809.00,2.68
7808.00,2.69
7807.00,2.69
7806.00,2.69
7805.00,2.70
7804.00,2.70
7803.00,2.70
7802.00,2.70
7801.00,2.69
7800.00,2.69
7799.00,2.69
7798.00,2.68
7797.00,2.68
7796.00,2.67
7795.00,2.67
7794.00,2.66
7793.00,2.66
7792.00,2.65
7791.00,2.65
7790.00,2.65
7789.00,2.64
7788.00,2.64
7787.00,2.64
7786.00,2.63
7785.00,2.63
7784.00,2.62
7783.00,2.62
7782.00,2.61
7781.00,2.61
7780.00,2.61
7779.00,2.60
7778.00,2.60
7777.00,2.60
7776.00,2.60
7775.00,2.60
7774.00,2.61
7773.00,2.61
7772.00,2.61
7771.00,2.62
7770.00,2.62
7769.00,2.62
7768.00,2.63
7767.00,2.63
7766.00,2.63
7765.00,2.64
7764.00,2.64
7763.00,2.64
7762.00,2.64
7761.00,2.64
7760.00,2.65
7759.00,2.65
7758.00,2.65
7757.00,2.66
7756.00,2.66
7755.00,2.66
7754.00,2.66
7753.00,2.67
7752.00,2.67
7751.00,2.67
7750.00,2.68
7749.00,2.68
7748.00,2.68
7747.00,2.69
7746.00,2.69
7745.00,2.69
7744.00,2.69
7743.00,2.70
7742.00,2.70
7741.00,2.70
7740.00,2.70
7739.00,2.70
7738.00,2.70
7737.00,2.70
7736.00,2.70
7735.00,2.70
7734.00,2.70
7733.00,2.70
7732.00,2.70
7731.00,2.70
7730.00,2.70
7729.00,2.70
7728.00,2.70
7727.00,2.70
7726.00,2.70
7725.00,2.70
7724.00,2.70
7723.00,2.70
7722.00,2.69
7721.00,2.69
7720.00,2.69
7719.00,2.68
7718.00,2.68
7717.00,2.68
7716.00,2.67
7715.00,2.67
7714.00,2.67
7713.00,2.66
7712.00,2.66
7711.00,2.66
7710.00,2.66
7709.00,2.66
7708.00,2.66
7707.00,2.67
7706.00,2.67
7705.00,2.67
7704.00,2.67
7703.00,2.67
7702.00,2.67
7701.00,2.67
7700.00,2.67
7699.00,2.67
7698.00,2.67
7697.00,2.66
7696.00,2.66
7695.00,2.66
7694.00,2.66
7693.00,2.66
7692.00,2.66
7691.00,2.66
7690.00,2.66
7689.00,2.66
7688.00,2.66
7687.00,2.67
7686.00,2.67
7685.00,2.67
7684.00,2.67
7683.00,2.67
7682.00,2.67
7681.00,2.67
7680.00,2.67
7679.00,2.67
7678.00,2.67
7677.00,2.68
7676.00,2.68
7675.00,2.69
7674.00,2.69
7673.00,2.70
7672.00,2.71
7671.00,2.72
7670.00,2.73
7669.00,2.74
7668.00,2.75
7667.00,2.76
7666.00,2.77
7665.00,2.77
7664.00,2.78
7663.00,2.78
7662.00,2.79
7661.00,2.80
7660.00,2.80
7659.00,2.81
7658.00,2.81
7657.00,2.81
7656.00,2.82
7655.00,2.82
7654.00,2.82
7653.00,2.82
7652.00,2.82
7651.00,2.82
7650.00,2.82
7649.00,2.82
7648.00,2.82
7647.00,2.81
7646.00,2.81
7645.00,2.80
7644.00,2.80
7643.00,2.79
7642.00,2.79
7641.00,2.78
7640.00,2.78
7639.00,2.78
7638.00,2.77
7637.00,2.77
7636.00,2.76
7635.00,2.76
7634.00,2.75
7633.00,2.75
7632.00,2.75
7631.00,2.74
7630.00,2.74
7629.00,2.74
7628.00,2.74
7627.00,2.74
7626.00,2.74
7625.00,2.74
7624.00,2.74
7623.00,2.74
7622.00,2.74
7621.00,2.74
7620.00,2.74
7619.00,2.74
7618.00,2.74
7617.00,2.74
7616.00,2.74
7615.00,2.74
7614.00,2.74
7613.00,2.73
7612.00,2.73
7611.00,2.74
7610.00,2.74
7609.00,2.74
7608.00,2.74
7607.00,2.74
7606.00,2.74
7605.00,2.74
7604.00,2.74
7603.00,2.74
7602.00,2.74
7601.00,2.75
7600.00,2.75
7599.00,2.75
7598.00,2.75
7597.00,2.75
7596.00,2.75
7595.00,2.75
7594.00,2.75
7593.00,2.75
7592.00,2.75
7591.00,2.76
7590.00,2.76
7589.00,2.76
7588.00,2.76
7587.00,2.77
7586.00,2.77
7585.00,2.77
7584.00,2.77
7583.00,2.77
7582.00,2.78
7581.00,2.78
7580.00,2.78
7579.00,2.79
7578.00,2.79
7577.00,2.79
7576.00,2.80
7575.00,2.80
7574.00,2.81
7573.00,2.81
7572.00,2.82
7571.00,2.82
7570.00,2.83
7569.00,2.84
7568.00,2.85
7567.00,2.86
7566.00,2.87
7565.00,2.88
7564.00,2.89
7563.00,2.90
7562.00,2.91
7561.00,2.92
7560.00,2.94
7559.00,2.95
7558.00,2.96
7557.00,2.97
7556.00,2.98
7555.00,2.99
7554.00,3.00
7553.00,3.01
7552.00,3.02
7551.00,3.03
7550.00,3.03
7549.00,3.03
7548.00,3.03
7547.00,3.03
7546.00,3.03
7545.00,3.03
7544.00,3.03
7543.00,3.03
7542.00,3.02
7541.00,3.02
7540.00,3.01
7539.00,3.00
7538.00,2.99
7537.00,2.98
7536.00,2.97
7535.00,2.96
7534.00,2.95
7533.00,2.94
7532.00,2.92
7531.00,2.91
7530.00,2.90
7529.00,2.89
7528.00,2.87
7527.00,2.86
7526.00,2.85
7525.00,2.84
7524.00,2.83
7523.00,2.82
7522.00,2.81
7521.00,2.80
7520.00,2.80
7519.00,2.80
7518.00,2.79
7517.00,2.79
7516.00,2.79
7515.00,2.79
7514.00,2.79
7513.00,2.79
7512.00,2.78
7511.00,2.78
7510.00,2.78
7509.00,2.78
7508.00,2.78
7507.00,2.77
7506.00,2.77
7505.00,2.77
7504.00,2.77
7503.00,2.76
7502.00,2.76
7501.00,2.76
7500.00,2.76
7499.00,2.76
7498.00,2.76
7497.00,2.76
7496.00,2.76
7495.00,2.75
7494.00,2.75
7493.00,2.75
7492.00,2.75
7491.00,2.74
7490.00,2.74
7489.00,2.74
7488.00,2.74
7487.00,2.74
7486.00,2.74
7485.00,2.74
7484.00,2.74
7483.00,2.75
7482.00,2.75
7481.00,2.76
7480.00,2.77
7479.00,2.77
7478.00,2.78
7477.00,2.79
7476.00,2.79
7475.00,2.80
7474.00,2.81
7473.00,2.82
7472.00,2.82
7471.00,2.83
7470.00,2.84
7469.00,2.85
7468.00,2.85
7467.00,2.86
7466.00,2.87
7465.00,2.87
7464.00,2.88
7463.00,2.88
7462.00,2.88
7461.00,2.89
7460.00,2.89
7459.00,2.89
7458.00,2.89
7457.00,2.88
7456.00,2.88
7455.00,2.88
7454.00,2.88
7453.00,2.87
7452.00,2.87
7451.00,2.86
7450.00,2.86
7449.00,2.85
7448.00,2.85
7447.00,2.84
7446.00,2.83
7445.00,2.82
7444.00,2.81
7443.00,2.80
7442.00,2.80
7441.00,2.79
7440.00,2.78
7439.00,2.77
7438.00,2.77
7437.00,2.76
7436.00,2.75
7435.00,2.75
7434.00,2.74
7433.00,2.73
7432.00,2.72
7431.00,2.72
7430.00,2.71
7429.00,2.70
7428.00,2.69
7427.00,2.68
7426.00,2.67
7425.00,2.66
7424.00,2.65
7423.00,2.65
7422.00,2.64
7421.00,2.63
7420.00,2.63
7419.00,2.62
7418.00,2.62
7417.00,2.61
7416.00,2.61
7415.00,2.61
7414.00,2.60
7413.00,2.60
7412.00,2.59
7411.00,2.59
7410.00,2.59
7409.00,2.59
7408.00,2.59
7407.00,2.59
7406.00,2.59
7405.00,2.59
7404.00,2.60
7403.00,2.61
7402.00,2.61
7401.00,2.62
7400.00,2.63
7399.00,2.64
7398.00,2.65
7397.00,2.66
7396.00,2.67
7395.00,2.68
7394.00,2.69
7393.00,2.70
7392.00,2.71
7391.00,2.72
7390.00,2.72
7389.00,2.73
7388.00,2.74
7387.00,2.75
7386.00,2.76
7385.00,2.77
7384.00,2.78
7383.00,2.79
7382.00,2.80
7381.00,2.81
7380.00,2.81
7379.00,2.82
7378.00,2.82
7377.00,2.83
7376.00,2.83
7375.00,2.83
7374.00,2.83
7373.00,2.83
7372.00,2.83
7371.00,2.83
7370.00,2.83
7369.00,2.83
7368.00,2.82
7367.00,2.82
7366.00,2.81
7365.00,2.80
7364.00,2.80
7363.00,2.79
7362.00,2.78
7361.00,2.78
7360.00,2.77
7359.00,2.76
7358.00,2.76
7357.00,2.75
7356.00,2.74
7355.00,2.74
7354.00,2.73
7353.00,2.72
7352.00,2.71
7351.00,2.71
7350.00,2.70
7349.00,2.69
7348.00,2.68
7347.00,2.67
7346.00,2.67
7345.00,2.66
7344.00,2.65
7343.00,2.65
7342.00,2.64
7341.00,2.64
7340.00,2.63
7339.00,2.63
7338.00,2.63
7337.00,2.63
7336.00,2.63
7335.00,2.63
7334.00,2.63
7333.00,2.63
7332.00,2.63
7331.00,2.62
7330.00,2.62
7329.00,2.61
7328.00,2.61
7327.00,2.61
7326.00,2.61
7325.00,2.61
7324.00,2.60
7323.00,2.60
7322.00,2.60
7321.00,2.60
7320.00,2.60
7319.00,2.61
7318.00,2.61
7317.00,2.61
7316.00,2.61
7315.00,2.61
7314.00,2.61
7313.00,2.61
7312.00,2.61
7311.00,2.60
7310.00,2.60
7309.00,2.60
7308.00,2.59
7307.00,2.59
7306.00,2.59
7305.00,2.59
7304.00,2.59
7303.00,2.58
7302.00,2.58
7301.00,2.58
7300.00,2.58
7299.00,2.58
7298.00,2.57
7297.00,2.57
7296.00,2.57
7295.00,2.57
7294.00,2.57
7293.00,2.57
7292.00,2.57
7291.00,2.57
7290.00,2.57
7289.00,2.57
7288.00,2.57
7287.00,2.57
7286.00,2.57
7285.00,2.58
7284.00,2.58
7283.00,2.59
7282.00,2.59
7281.00,2.60
7280.00,2.61
7279.00,2.61
7278.00,2.62
7277.00,2.62
7276.00,2.62
7275.00,2.63
7274.00,2.63
7273.00,2.64
7272.00,2.64
7271.00,2.64
7270.00,2.65
7269.00,2.65
7268.00,2.65
7267.00,2.65
7266.00,2.65
7265.00,2.65
7264.00,2.65
7263.00,2.65
7262.00,2.65
7261.00,2.65
7260.00,2.64
7259.00,2.64
7258.00,2.64
7257.00,2.63
7256.00,2.62
7255.00,2.61
7254.00,2.60
7253.00,2.60
7252.00,2.59
7251.00,2.58
7250.00,2.57
7249.00,2.57
7248.00,2.56
7247.00,2.55
7246.00,2.55
7245.00,2.54
7244.00,2.53
7243.00,2.53
7242.00,2.52
7241.00,2.52
7240.00,2.51
7239.00,2.50
7238.00,2.50
7237.00,2.49
7236.00,2.49
7235.00,2.48
7234.00,2.47
7233.00,2.47
7232.00,2.46
7231.00,2.46
7230.00,2.45
7229.00,2.45
7228.00,2.45
7227.00,2.45
7226.00,2.45
7225.00,2.45
7224.00,2.44
7223.00,2.44
7222.00,2.44
7221.00,2.43
7220.00,2.43
7219.00,2.43
7218.00,2.42
7217.00,2.42
7216.00,2.41
7215.00,2.41
7214.00,2.41
7213.00,2.40
7212.00,2.40
7211.00,2.40
7210.00,2.40
7209.00,2.39
7208.00,2.39
7207.00,2.39
7206.00,2.39
7205.00,2.38
7204.00,2.38
7203.00,2.37
7202.00,2.37
7201.00,2.36
7200.00,2.36
7199.00,2.35
7198.00,2.35
7197.00,2.35
7196.00,2.34
7195.00,2.34
7194.00,2.33
7193.00,2.33
7192.00,2.33
7191.00,2.32
7190.00,2.32
7189.00,2.32
7188.00,2.31
7187.00,2.30
7186.00,2.30
7185.00,2.29
7184.00,2.28
7183.00,2.28
7182.00,2.27
7181.00,2.27
7180.00,2.26
7179.00,2.26
7178.00,2.25
7177.00,2.25
7176.00,2.24
7175.00,2.24
7174.00,2.24
7173.00,2.23
7172.00,2.22
7171.00,2.22
7170.00,2.21
7169.00,2.21
7168.00,2.20
7167.00,2.19
7166.00,2.19
7165.00,2.18
7164.00,2.18
7163.00,2.18
7162.00,2.17
7161.00,2.17
7160.00,2.17
7159.00,2.17
7158.00,2.17
7157.00,2.17
7156.00,2.17
7155.00,2.17
7154.00,2.16
7153.00,2.16
7152.00,2.16
7151.00,2.16
7150.00,2.16
7149.00,2.16
7148.00,2.16
7147.00,2.16
7146.00,2.15
7145.00,2.15
7144.00,2.15
7143.00,2.15
7142.00,2.15
7141.00,2.15
7140.00,2.14
7139.00,2.14
7138.00,2.13
7137.00,2.13
7136.00,2.12
7135.00,2.11
7134.00,2.10
7133.00,2.10
7132.00,2.08
7131.00,2.07
7130.00,2.06
7129.00,2.05
7128.00,2.04
7127.00,2.02
7126.00,2.01
7125.00,2.00
7124.00,1.99
7123.00,1.97
7122.00,1.96
7121.00,1.95
7120.00,1.93
7119.00,1.92
7118.00,1.91
7117.00,1.89
7116.00,1.88
7115.00,1.87
7114.00,1.86
7113.00,1.85
7112.00,1.84
7111.00,1.84
7110.00,1.83
7109.00,1.83
7108.00,1.82
7107.00,1.82
7106.00,1.81
7105.00,1.81
7104.00,1.81
7103.00,1.80
7102.00,1.80
7101.00,1.79
7100.00,1.79
7099.00,1.78
7098.00,1.77
7097.00,1.77
7096.00,1.76
7095.00,1.76
7094.00,1.76
7093.00,1.75
7092.00,1.75
7091.00,1.75
7090.00,1.75
7089.00,1.75
7088.00,1.74
7087.00,1.74
7086.00,1.74
7085.00,1.74
7084.00,1.73
7083.00,1.73
7082.00,1.72
7081.00,1.72
7080.00,1.72
7079.00,1.72
7078.00,1.72
7077.00,1.72
7076.00,1.72
7075.00,1.72
7074.00,1.73
7073.00,1.73
7072.00,1.74
7071.00,1.75
7070.00,1.75
7069.00,1.76
7068.00,1.77
7067.00,1.77
7066.00,1.78
7065.00,1.78
7064.00,1.79
7063.00,1.79
7062.00,1.80
7061.00,1.80
7060.00,1.81
7059.00,1.81
7058.00,1.82
7057.00,1.82
7056.00,1.82
7055.00,1.83
7054.00,1.83
7053.00,1.83
7052.00,1.83
7051.00,1.83
7050.00,1.83
7049.00,1.83
7048.00,1.83
7047.00,1.82
7046.00,1.82
7045.00,1.81
7044.00,1.81
7043.00,1.80
7042.00,1.80
7041.00,1.79
7040.00,1.78
7039.00,1.78
7038.00,1.77
7037.00,1.76
7036.00,1.76
7035.00,1.75
7034.00,1.75
7033.00,1.74
7032.00,1.74
7031.00,1.73
7030.00,1.73
7029.00,1.72
7028.00,1.72
7027.00,1.72
7026.00,1.71
7025.00,1.71
7024.00,1.71
7023.00,1.71
7022.00,1.70
7021.00,1.70
7020.00,1.70
7019.00,1.70
7018.00,1.70
7017.00,1.70
7016.00,1.69
7015.00,1.69
7014.00,1.69
7013.00,1.69
7012.00,1.69
7011.00,1.69
7010.00,1.69
7009.00,1.69
7008.00,1.69
7007.00,1.69
7006.00,1.68
7005.00,1.68
7004.00,1.68
7003.00,1.67
7002.00,1.67
7001.00,1.66
7000.00,1.65
6999.00,1.65
6998.00,1.64
6997.00,1.63
6996.00,1.63
6995.00,1.62
6994.00,1.62
6993.00,1.61
6992.00,1.60
6991.00,1.60
6990.00,1.59
6989.00,1.59
6988.00,1.58
6987.00,1.58
6986.00,1.57
6985.00,1.57
6984.00,1.56
6983.00,1.56
6982.00,1.55
6981.00,1.55
6980.00,1.54
6979.00,1.54
6978.00,1.54
6977.00,1.53
6976.00,1.53
6975.00,1.53
6974.00,1.54
6973.00,1.54
6972.00,1.54
6971.00,1.55
6970.00,1.55
6969.00,1.56
6968.00,1.56
6967.00,1.57
6966.00,1.57
6965.00,1.57
6964.00,1.58
6963.00,1.58
6962.00,1.58
6961.00,1.59
6960.00,1.59
6959.00,1.59
6958.00,1.60
6957.00,1.60
6956.00,1.61
6955.00,1.61
6954.00,1.62
6953.00,1.62
6952.00,1.63
6951.00,1.63
6950.00,1.63
6949.00,1.64
6948.00,1.64
6947.00,1.64
6946.00,1.64
6945.00,1.64
6944.00,1.64
6943.00,1.64
6942.00,1.63
6941.00,1.63
6940.00,1.63
6939.00,1.63
6938.00,1.62
6937.00,1.62
6936.00,1.62
6935.00,1.62
6934.00,1.62
6933.00,1.62
6932.00,1.62
6931.00,1.62
6930.00,1.62
6929.00,1.61
6928.00,1.61
6927.00,1.61
6926.00,1.61
6925.00,1.61
6924.00,1.61
6923.00,1.62
6922.00,1.62
6921.00,1.62
6920.00,1.62
6919.00,1.62
6918.00,1.62
6917.00,1.62
6916.00,1.63
6915.00,1.63
6914.00,1.63
6913.00,1.64
6912.00,1.64
6911.00,1.65
6910.00,1.65
6909.00,1.65
6908.00,1.66
6907.00,1.66
6906.00,1.66
6905.00,1.67
6904.00,1.67
6903.00,1.67
6902.00,1.67
6901.00,1.67
6900.00,1.66
6899.00,1.66
6898.00,1.66
6897.00,1.65
6896.00,1.65
6895.00,1.64
6894.00,1.64
6893.00,1.63
6892.00,1.63
6891.00,1.62
6890.00,1.61
6889.00,1.61
6888.00,1.60
6887.00,1.60
6886.00,1.59
6885.00,1.58
6884.00,1.58
6883.00,1.58
6882.00,1.57
6881.00,1.57
6880.00,1.57
6879.00,1.57
6878.00,1.57
6877.00,1.56
6876.00,1.57
6875.00,1.57
6874.00,1.57
6873.00,1.57
6872.00,1.58
6871.00,1.58
6870.00,1.59
6869.00,1.59
6868.00,1.60
6867.00,1.60
6866.00,1.60
6865.00,1.61
6864.00,1.61
6863.00,1.62
6862.00,1.62
6861.00,1.62
6860.00,1.63
6859.00,1.63
6858.00,1.64
6857.00,1.64
6856.00,1.64
6855.00,1.65
6854.00,1.65
6853.00,1.65
6852.00,1.65
6851.00,1.65
6850.00,1.65
6849.00,1.65
6848.00,1.64
6847.00,1.64
6846.00,1.64
6845.00,1.64
6844.00,1.63
6843.00,1.63
6842.00,1.63
6841.00,1.63
6840.00,1.63
6839.00,1.63
6838.00,1.62
6837.00,1.62
6836.00,1.62
6835.00,1.62
6834.00,1.61
6833.00,1.61
6832.00,1.60
6831.00,1.60
6830.00,1.59
6829.00,1.59
6828.00,1.58
6827.00,1.58
6826.00,1.57
6825.00,1.56
6824.00,1.56
6823.00,1.55
6822.00,1.54
6821.00,1.54
6820.00,1.53
6819.00,1.53
6818.00,1.52
6817.00,1.52
6816.00,1.52
6815.00,1.51
6814.00,1.51
6813.00,1.51
6812.00,1.50
6811.00,1.50
6810.00,1.50
6809.00,1.50
6808.00,1.50
6807.00,1.50
6806.00,1.50
6805.00,1.50
6804.00,1.51
6803.00,1.51
6802.00,1.52
6801.00,1.52
6800.00,1.53
6799.00,1.53
6798.00,1.54
6797.00,1.55
6796.00,1.56
6795.00,1.57
6794.00,1.57
6793.00,1.58
6792.00,1.59
6791.00,1.60
6790.00,1.60
6789.00,1.61
6788.00,1.61
6787.00,1.62
6786.00,1.62
6785.00,1.63
6784.00,1.64
6783.00,1.64
6782.00,1.64
6781.00,1.65
6780.00,1.65
6779.00,1.65
6778.00,1.66
6777.00,1.66
6776.00,1.66
6775.00,1.66
6774.00,1.66
6773.00,1.66
6772.00,1.66
6771.00,1.67
6770.00,1.67
6769.00,1.67
6768.00,1.67
6767.00,1.67
6766.00,1.67
6765.00,1.67
6764.00,1.68
6763.00,1.68
6762.00,1.68
6761.00,1.69
6760.00,1.69
6759.00,1.69
6758.00,1.70
6757.00,1.70
6756.00,1.70
6755.00,1.70
6754.00,1.71
6753.00,1.71
6752.00,1.71
6751.00,1.72
6750.00,1.72
6749.00,1.72
6748.00,1.73
6747.00,1.73
6746.00,1.73
6745.00,1.74
6744.00,1.74
6743.00,1.74
6742.00,1.75
6741.00,1.75
6740.00,1.75
6739.00,1.75
6738.00,1.76
6737.00,1.76
6736.00,1.76
6735.00,1.76
6734.00,1.76
6733.00,1.76
6732.00,1.76
6731.00,1.77
6730.00,1.77
6729.00,1.77
6728.00,1.77
6727.00,1.77
6726.00,1.77
6725.00,1.77
6724.00,1.77
6723.00,1.77
6722.00,1.77
6721.00,1.77
6720.00,1.77
6719.00,1.77
6718.00,1.77
6717.00,1.77
6716.00,1.78
6715.00,1.78
6714.00,1.78
6713.00,1.78
6712.00,1.79
6711.00,1.79
6710.00,1.79
6709.00,1.80
6708.00,1.80
6707.00,1.80
6706.00,1.81
6705.00,1.81
6704.00,1.82
6703.00,1.82
6702.00,1.83
6701.00,1.84
6700.00,1.85
6699.00,1.85
6698.00,1.86
6697.00,1.87
6696.00,1.88
6695.00,1.89
6694.00,1.90
6693.00,1.90
6692.00,1.91
6691.00,1.92
6690.00,1.93
6689.00,1.93
6688.00,1.94
6687.00,1.95
6686.00,1.95
6685.00,1.96
6684.00,1.97
6683.00,1.97
6682.00,1.98
6681.00,1.99
6680.00,1.99
6679.00,2.00
6678.00,2.00
6677.00,2.01
6676.00,2.01
6675.00,2.02
6674.00,2.02
6673.00,2.03
6672.00,2.03
6671.00,2.03
6670.00,2.04
6669.00,2.04
6668.00,2.04
6667.00,2.05
6666.00,2.05
6665.00,2.05
6664.00,2.06
6663.00,2.06
6662.00,2.06
6661.00,2.07
6660.00,2.07
6659.00,2.07
6658.00,2.07
6657.00,2.08
6656.00,2.08
6655.00,2.08
6654.00,2.08
6653.00,2.08
6652.00,2.08
6651.00,2.08
6650.00,2.07
6649.00,2.07
6648.00,2.07
6647.00,2.07
6646.00,2.07
6645.00,2.06
6644.00,2.06
6643.00,2.06
6642.00,2.06
6641.00,2.06
6640.00,2.06
6639.00,2.06
6638.00,2.05
6637.00,2.05
6636.00,2.05
6635.00,2.05
6634.00,2.05
6633.00,2.04
6632.00,2.04
6631.00,2.05
6630.00,2.05
6629.00,2.05
6628.00,2.06
6627.00,2.06
6626.00,2.07
6625.00,2.07
6624.00,2.08
6623.00,2.09
6622.00,2.09
6621.00,2.10
6620.00,2.10
6619.00,2.11
6618.00,2.12
6617.00,2.12
6616.00,2.13
6615.00,2.13
6614.00,2.14
6613.00,2.14
6612.00,2.15
6611.00,2.16
6610.00,2.17
6609.00,2.17
6608.00,2.18
6607.00,2.18
6606.00,2.19
6605.00,2.19
6604.00,2.20
6603.00,2.20
6602.00,2.20
6601.00,2.20
6600.00,2.20
6599.00,2.19
6598.00,2.19
6597.00,2.19
6596.00,2.19
6595.00,2.19
6594.00,2.19
6593.00,2.19
6592.00,2.19
6591.00,2.19
6590.00,2.19
6589.00,2.19
6588.00,2.18
6587.00,2.18
6586.00,2.18
6585.00,2.18
6584.00,2.17
6583.00,2.17
6582.00,2.17
6581.00,2.17
6580.00,2.16
6579.00,2.16
6578.00,2.16
6577.00,2.16
6576.00,2.16
6575.00,2.16
6574.00,2.16
6573.00,2.16
6572.00,2.16
6571.00,2.17
6570.00,2.17
6569.00,2.17
6568.00,2.17
6567.00,2.17
6566.00,2.17
6565.00,2.17
6564.00,2.17
6563.00,2.16
6562.00,2.16
6561.00,2.17
6560.00,2.17
6559.00,2.17
6558.00,2.17
6557.00,2.17
6556.00,2.17
6555.00,2.17
6554.00,2.17
6553.00,2.17
6552.00,2.17
6551.00,2.17
6550.00,2.17
6549.00,2.17
6548.00,2.17
6547.00,2.17
6546.00,2.17
6545.00,2.18
6544.00,2.18
6543.00,2.18
6542.00,2.18
6541.00,2.18
6540.00,2.19
6539.00,2.19
6538.00,2.19
6537.00,2.19
6536.00,2.20
6535.00,2.20
6534.00,2.20
6533.00,2.20
6532.00,2.21
6531.00,2.21
6530.00,2.21
6529.00,2.21
6528.00,2.22
6527.00,2.22
6526.00,2.22
6525.00,2.23
6524.00,2.23
6523.00,2.24
6522.00,2.24
6521.00,2.24
6520.00,2.25
6519.00,2.25
6518.00,2.25
6517.00,2.25
6516.00,2.26
6515.00,2.26
6514.00,2.26
6513.00,2.26
6512.00,2.26
6511.00,2.27
6510.00,2.27
6509.00,2.27
6508.00,2.28
6507.00,2.28
6506.00,2.28
6505.00,2.29
6504.00,2.29
6503.00,2.29
6502.00,2.29
6501.00,2.29
6500.00,2.29
6499.00,2.29
6498.00,2.29
6497.00,2.29
6496.00,2.29
6495.00,2.29
6494.00,2.29
6493.00,2.29
6492.00,2.29
6491.00,2.29
6490.00,2.29
6489.00,2.28
6488.00,2.28
6487.00,2.28
6486.00,2.28
6485.00,2.28
6484.00,2.28
6483.00,2.27
6482.00,2.27
6481.00,2.27
6480.00,2.27
6479.00,2.27
6478.00,2.27
6477.00,2.27
6476.00,2.27
6475.00,2.28
6474.00,2.28
6473.00,2.28
6472.00,2.29
6471.00,2.29
6470.00,2.29
6469.00,2.30
6468.00,2.30
6467.00,2.30
6466.00,2.31
6465.00,2.31
6464.00,2.31
6463.00,2.32
6462.00,2.32
6461.00,2.33
6460.00,2.34
6459.00,2.34
6458.00,2.35
6457.00,2.36
6456.00,2.36
6455.00,2.37
6454.00,2.37
6453.00,2.38
6452.00,2.38
6451.00,2.38
6450.00,2.39
6449.00,2.39
6448.00,2.39
6447.00,2.39
6446.00,2.40
6445.00,2.40
6444.00,2.40
6443.00,2.40
6442.00,2.41
6441.00,2.41
6440.00,2.42
6439.00,2.42
6438.00,2.42
6437.00,2.43
6436.00,2.43
6435.00,2.43
6434.00,2.43
6433.00,2.43
6432.00,2.43
6431.00,2.43
6430.00,2.43
6429.00,2.43
6428.00,2.43
6427.00,2.43
6426.00,2.42
6425.00,2.42
6424.00,2.42
6423.00,2.42
6422.00,2.42
6421.00,2.42
6420.00,2.42
6419.00,2.41
6418.00,2.41
6417.00,2.41
6416.00,2.41
6415.00,2.41
6414.00,2.41
6413.00,2.41
6412.00,2.41
6411.00,2.41
6410.00,2.41
6409.00,2.41
6408.00,2.41
6407.00,2.41
6406.00,2.41
6405.00,2.42
6404.00,2.42
6403.00,2.42
6402.00,2.42
6401.00,2.42
6400.00,2.43
6399.00,2.43
6398.00,2.43
6397.00,2.43
6396.00,2.43
6395.00,2.43
6394.00,2.43
6393.00,2.44
6392.00,2.44
6391.00,2.44
6390.00,2.44
6389.00,2.45
6388.00,2.45
6387.00,2.45
6386.00,2.45
6385.00,2.45
6384.00,2.45
6383.00,2.45
6382.00,2.46
6381.00,2.46
6380.00,2.46
6379.00,2.46
6378.00,2.46
6377.00,2.46
6376.00,2.47
6375.00,2.47
6374.00,2.47
6373.00,2.48
6372.00,2.49
6371.00,2.49
6370.00,2.50
6369.00,2.50
6368.00,2.51
6367.00,2.52
6366.00,2.52
6365.00,2.53
6364.00,2.53
6363.00,2.54
6362.00,2.54
6361.00,2.55
6360.00,2.55
6359.00,2.55
6358.00,2.56
6357.00,2.56
6356.00,2.56
6355.00,2.56
6354.00,2.57
6353.00,2.57
6352.00,2.57
6351.00,2.57
6350.00,2.57
6349.00,2.57
6348.00,2.58
6347.00,2.58
6346.00,2.58
6345.00,2.58
6344.00,2.57
6343.00,2.57
6342.00,2.57
6341.00,2.57
6340.00,2.57
6339.00,2.56
6338.00,2.56
6337.00,2.56
6336.00,2.56
6335.00,2.56
6334.00,2.56
6333.00,2.56
6332.00,2.56
6331.00,2.56
6330.00,2.56
6329.00,2.56
6328.00,2.56
6327.00,2.56
6326.00,2.56
6325.00,2.56
6324.00,2.56
6323.00,2.56
6322.00,2.56
6321.00,2.56
6320.00,2.57
6319.00,2.57
6318.00,2.57
6317.00,2.57
6316.00,2.57
6315.00,2.57
6314.00,2.57
6313.00,2.57
6312.00,2.57
6311.00,2.57
6310.00,2.56
6309.00,2.56
6308.00,2.56
6307.00,2.56
6306.00,2.56
6305.00,2.57
6304.00,2.57
6303.00,2.57
6302.00,2.57
6301.00,2.57
6300.00,2.57
6299.00,2.57
6298.00,2.58
6297.00,2.58
6296.00,2.58
6295.00,2.58
6294.00,2.59
6293.00,2.59
6292.00,2.60
6291.00,2.61
6290.00,2.61
6289.00,2.62
6288.00,2.63
6287.00,2.64
6286.00,2.65
6285.00,2.66
6284.00,2.67
6283.00,2.69
6282.00,2.70
6281.00,2.71
6280.00,2.73
6279.00,2.74
6278.00,2.75
6277.00,2.76
6276.00,2.78
6275.00,2.79
6274.00,2.80
6273.00,2.81
6272.00,2.82
6271.00,2.83
6270.00,2.84
6269.00,2.84
6268.00,2.85
6267.00,2.86
6266.00,2.86
6265.00,2.87
6264.00,2.87
6263.00,2.87
6262.00,2.88
6261.00,2.88
6260.00,2.88
6259.00,2.88
6258.00,2.88
6257.00,2.88
6256.00,2.87
6255.00,2.87
6254.00,2.87
6253.00,2.86
6252.00,2.85
6251.00,2.85
6250.00,2.84
6249.00,2.83
6248.00,2.83
6247.00,2.82
6246.00,2.82
6245.00,2.81
6244.00,2.81
6243.00,2.81
6242.00,2.80
6241.00,2.80
6240.00,2.80
6239.00,2.80
6238.00,2.79
6237.00,2.79
6236.00,2.79
6235.00,2.79
6234.00,2.79
6233.00,2.78
6232.00,2.78
6231.00,2.78
6230.00,2.78
6229.00,2.78
6228.00,2.78
6227.00,2.78
6226.00,2.78
6225.00,2.78
6224.00,2.78
6223.00,2.79
6222.00,2.79
6221.00,2.79
6220.00,2.80
6219.00,2.80
6218.00,2.80
6217.00,2.80
6216.00,2.80
6215.00,2.80
6214.00,2.80
6213.00,2.81
6212.00,2.81
6211.00,2.81
6210.00,2.81
6209.00,2.81
6208.00,2.82
6207.00,2.82
6206.00,2.82
6205.00,2.83
6204.00,2.83
6203.00,2.84
6202.00,2.84
6201.00,2.84
6200.00,2.85
6199.00,2.85
6198.00,2.85
6197.00,2.85
6196.00,2.85
6195.00,2.86
6194.00,2.86
6193.00,2.86
6192.00,2.86
6191.00,2.87
6190.00,2.87
6189.00,2.87
6188.00,2.88
6187.00,2.88
6186.00,2.88
6185.00,2.89
6184.00,2.89
6183.00,2.89
6182.00,2.89
6181.00,2.89
6180.00,2.90
6179.00,2.90
6178.00,2.90
6177.00,2.90
6176.00,2.90
6175.00,2.90
6174.00,2.91
6173.00,2.91
6172.00,2.91
6171.00,2.92
6170.00,2.92
6169.00,2.92
6168.00,2.93
6167.00,2.93
6166.00,2.93
6165.00,2.93
6164.00,2.94
6163.00,2.94
6162.00,2.94
6161.00,2.94
6160.00,2.95
6159.00,2.95
6158.00,2.95
6157.00,2.96
6156.00,2.96
6155.00,2.96
6154.00,2.96
6153.00,2.97
6152.00,2.97
6151.00,2.97
6150.00,2.97
6149.00,2.98
6148.00,2.98
6147.00,2.98
6146.00,2.98
6145.00,2.98
6144.00,2.99
6143.00,2.99
6142.00,2.99
6141.00,2.99
6140.00,3.00
6139.00,3.00
6138.00,3.00
6137.00,3.00
6136.00,3.00
6135.00,3.01
6134.00,3.01
6133.00,3.01
6132.00,3.01
6131.00,3.01
6130.00,3.01
6129.00,3.01
6128.00,3.02
6127.00,3.02
6126.00,3.02
6125.00,3.02
6124.00,3.02
6123.00,3.01
6122.00,3.01
6121.00,3.01
6120.00,3.01
6119.00,3.01
6118.00,3.00
6117.00,3.00
6116.00,3.00
6115.00,2.99
6114.00,2.99
6113.00,2.98
6112.00,2.98
6111.00,2.98
6110.00,2.97
6109.00,2.97
6108.00,2.96
6107.00,2.96
6106.00,2.96
6105.00,2.95
6104.00,2.95
6103.00,2.95
6102.00,2.95
6101.00,2.94
6100.00,2.94
6099.00,2.94
6098.00,2.95
6097.00,2.95
6096.00,2.95
6095.00,2.95
6094.00,2.96
6093.00,2.96
6092.00,2.96
6091.00,2.97
6090.00,2.97
6089.00,2.98
6088.00,2.98
6087.00,2.98
6086.00,2.99
6085.00,2.99
6084.00,3.00
6083.00,3.01
6082.00,3.01
6081.00,3.02
6080.00,3.02
6079.00,3.02
6078.00,3.03
6077.00,3.03
6076.00,3.03
6075.00,3.04
6074.00,3.04
6073.00,3.04
6072.00,3.04
6071.00,3.04
6070.00,3.04
6069.00,3.04
6068.00,3.04
6067.00,3.03
6066.00,3.03
6065.00,3.03
6064.00,3.03
6063.00,3.03
6062.00,3.03
6061.00,3.03
6060.00,3.03
6059.00,3.03
6058.00,3.02
6057.00,3.02
6056.00,3.02
6055.00,3.02
6054.00,3.02
6053.00,3.02
6052.00,3.02
6051.00,3.02
6050.00,3.03
6049.00,3.03
6048.00,3.03
6047.00,3.03
6046.00,3.04
6045.00,3.04
6044.00,3.04
6043.00,3.05
6042.00,3.05
6041.00,3.06
6040.00,3.06
6039.00,3.07
6038.00,3.07
6037.00,3.08
6036.00,3.08
6035.00,3.08
6034.00,3.09
6033.00,3.09
6032.00,3.10
6031.00,3.10
6030.00,3.11
6029.00,3.11
6028.00,3.11
6027.00,3.12
6026.00,3.12
6025.00,3.12
6024.00,3.12
6023.00,3.12
6022.00,3.12
6021.00,3.12
6020.00,3.11
6019.00,3.11
6018.00,3.11
6017.00,3.11
6016.00,3.11
6015.00,3.11
6014.00,3.11
6013.00,3.10
6012.00,3.10
6011.00,3.10
6010.00,3.10
6009.00,3.10
6008.00,3.09
6007.00,3.09
6006.00,3.09
6005.00,3.08
6004.00,3.08
6003.00,3.08
6002.00,3.08
6001.00,3.08
6000.00,3.07
5999.00,3.07
5998.00,3.07
5997.00,3.07
5996.00,3.07
5995.00,3.07
5994.00,3.07
5993.00,3.07
5992.00,3.07
5991.00,3.07
5990.00,3.07
5989.00,3.07
5988.00,3.06
5987.00,3.06
5986.00,3.06
5985.00,3.06
5984.00,3.06
5983.00,3.05
5982.00,3.05
5981.00,3.05
5980.00,3.05
5979.00,3.05
5978.00,3.04
5977.00,3.04
5976.00,3.04
5975.00,3.04
5974.00,3.04
5973.00,3.04
5972.00,3.04
5971.00,3.04
5970.00,3.03
5969.00,3.03
5968.00,3.03
5967.00,3.03
5966.00,3.03
5965.00,3.03
5964.00,3.03
5963.00,3.02
5962.00,3.02
5961.00,3.02
5960.00,3.02
5959.00,3.02
5958.00,3.02
5957.00,3.02
5956.00,3.02
5955.00,3.02
5954.00,3.02
5953.00,3.02
5952.00,3.01
5951.00,3.01
5950.00,3.01
5949.00,3.01
5948.00,3.01
5947.00,3.01
5946.00,3.00
5945.00,3.00
5944.00,3.00
5943.00,3.00
5942.00,2.99
5941.00,2.99
5940.00,2.99
5939.00,2.99
5938.00,2.98
5937.00,2.98
5936.00,2.98
5935.00,2.98
5934.00,2.97
5933.00,2.97
5932.00,2.97
5931.00,2.97
5930.00,2.97
5929.00,2.96
5928.00,2.96
5927.00,2.96
5926.00,2.95
5925.00,2.95
5924.00,2.95
5923.00,2.95
5922.00,2.95
5921.00,2.95
5920.00,2.94
5919.00,2.94
5918.00,2.94
5917.00,2.94
5916.00,2.94
5915.00,2.94
5914.00,2.94
5913.00,2.94
5912.00,2.94
5911.00,2.94
5910.00,2.94
5909.00,2.94
5908.00,2.95
5907.00,2.95
5906.00,2.95
5905.00,2.95
5904.00,2.95
5903.00,2.96
5902.00,2.96
5901.00,2.96
5900.00,2.96
5899.00,2.97
5898.00,2.97
5897.00,2.97
5896.00,2.98
5895.00,2.98
5894.00,2.98
5893.00,2.98
5892.00,2.98
5891.00,2.98
5890.00,2.99
5889.00,2.99
5888.00,2.99
5887.00,2.99
5886.00,2.99
5885.00,3.00
5884.00,3.00
5883.00,3.00
5882.00,3.00
5881.00,3.01
5880.00,3.01
5879.00,3.01
5878.00,3.01
5877.00,3.01
5876.00,3.01
5875.00,3.01
5874.00,3.01
5873.00,3.02
5872.00,3.02
5871.00,3.02
5870.00,3.02
5869.00,3.03
5868.00,3.03
5867.00,3.03
5866.00,3.04
5865.00,3.04
5864.00,3.05
5863.00,3.05
5862.00,3.05
5861.00,3.06
5860.00,3.06
5859.00,3.06
5858.00,3.07
5857.00,3.07
5856.00,3.07
5855.00,3.07
5854.00,3.08
5853.00,3.08
5852.00,3.08
5851.00,3.09
5850.00,3.09
5849.00,3.09
5848.00,3.09
5847.00,3.10
5846.00,3.10
5845.00,3.10
5844.00,3.10
5843.00,3.09
5842.00,3.09
5841.00,3.09
5840.00,3.08
5839.00,3.08
5838.00,3.08
5837.00,3.07
5836.00,3.07
5835.00,3.07
5834.00,3.06
5833.00,3.06
5832.00,3.05
5831.00,3.05
5830.00,3.05
5829.00,3.04
5828.00,3.04
5827.00,3.04
5826.00,3.03
5825.00,3.03
5824.00,3.02
5823.00,3.02
5822.00,3.01
5821.00,3.01
5820.00,3.00
5819.00,3.00
5818.00,3.00
5817.00,3.00
5816.00,3.00
5815.00,3.00
5814.00,3.00
5813.00,3.00
5812.00,3.00
5811.00,3.00
5810.00,3.00
5809.00,3.00
5808.00,3.00
5807.00,3.00
5806.00,3.00
5805.00,3.00
5804.00,3.01
5803.00,3.01
5802.00,3.01
5801.00,3.01
5800.00,3.01
5799.00,3.01
5798.00,3.02
5797.00,3.02
5796.00,3.02
5795.00,3.03
5794.00,3.03
5793.00,3.03
5792.00,3.03
5791.00,3.03
5790.00,3.04
5789.00,3.04
5788.00,3.04
5787.00,3.04
5786.00,3.04
5785.00,3.04
5784.00,3.04
5783.00,3.04
5782.00,3.04
5781.00,3.04
5780.00,3.04
5779.00,3.04
5778.00,3.04
5777.00,3.05
5776.00,3.05
5775.00,3.05
5774.00,3.05
5773.00,3.05
5772.00,3.05
5771.00,3.05
5770.00,3.05
5769.00,3.05
5768.00,3.05
5767.00,3.04
5766.00,3.04
5765.00,3.04
5764.00,3.04
5763.00,3.03
5762.00,3.03
5761.00,3.03
5760.00,3.03
5759.00,3.03
5758.00,3.02
5757.00,3.02
5756.00,3.02
5755.00,3.02
5754.00,3.02
5753.00,3.01
5752.00,3.01
5751.00,3.01
5750.00,3.00
5749.00,3.00
5748.00,3.00
5747.00,3.00
5746.00,2.99
5745.00,2.99
5744.00,2.99
5743.00,2.99
5742.00,2.99
5741.00,2.99
5740.00,2.99
5739.00,2.99
5738.00,2.99
5737.00,2.99
5736.00,3.00
5735.00,3.00
5734.00,3.00
5733.00,3.00
5732.00,3.01
5731.00,3.01
5730.00,3.01
5729.00,3.01
5728.00,3.02
5727.00,3.02
5726.00,3.02
5725.00,3.03
5724.00,3.03
5723.00,3.03
5722.00,3.03
5721.00,3.03
5720.00,3.04
5719.00,3.04
5718.00,3.04
5717.00,3.04
5716.00,3.04
5715.00,3.05
5714.00,3.05
5713.00,3.05
5712.00,3.05
5711.00,3.05
5710.00,3.05
5709.00,3.05
5708.00,3.05
5707.00,3.05
5706.00,3.05
5705.00,3.05
5704.00,3.04
5703.00,3.04
5702.00,3.04
5701.00,3.04
5700.00,3.03
5699.00,3.03
5698.00,3.03
5697.00,3.02
5696.00,3.02
5695.00,3.02
5694.00,3.02
5693.00,3.01
5692.00,3.01
5691.00,3.01
5690.00,3.01
5689.00,3.00
5688.00,3.00
5687.00,3.00
5686.00,2.99
5685.00,2.99
5684.00,2.99
5683.00,2.98
5682.00,2.98
5681.00,2.98
5680.00,2.98
5679.00,2.97
5678.00,2.97
5677.00,2.97
5676.00,2.97
5675.00,2.97
5674.00,2.97
5673.00,2.97
5672.00,2.97
5671.00,2.97
5670.00,2.98
5669.00,2.98
5668.00,2.98
5667.00,2.98
5666.00,2.98
5665.00,2.98
5664.00,2.98
5663.00,2.99
5662.00,2.99
5661.00,2.99
5660.00,2.99
5659.00,2.99
5658.00,2.99
5657.00,2.99
5656.00,2.99
5655.00,2.99
5654.00,2.99
5653.00,2.99
5652.00,2.99
5651.00,2.99
5650.00,2.99
5649.00,3.00
5648.00,3.00
5647.00,3.00
5646.00,3.00
5645.00,3.00
5644.00,3.00
5643.00,3.00
5642.00,3.00
5641.00,3.00
5640.00,3.00
5639.00,3.01
5638.00,3.01
5637.00,3.01
5636.00,3.01
5635.00,3.01
5634.00,3.02
5633.00,3.02
5632.00,3.02
5631.00,3.02
5630.00,3.02
5629.00,3.03
5628.00,3.03
5627.00,3.03
5626.00,3.03
5625.00,3.03
5624.00,3.03
5623.00,3.03
5622.00,3.03
5621.00,3.03
5620.00,3.04
5619.00,3.04
5618.00,3.04
5617.00,3.04
5616.00,3.04
5615.00,3.04
5614.00,3.04
5613.00,3.04
5612.00,3.04
5611.00,3.04
5610.00,3.05
5609.00,3.05
5608.00,3.05
5607.00,3.05
5606.00,3.05
5605.00,3.06
5604.00,3.06
5603.00,3.06
5602.00,3.06
5601.00,3.07
5600.00,3.07
5599.00,3.07
5598.00,3.08
5597.00,3.08
5596.00,3.08
5595.00,3.09
5594.00,3.09
5593.00,3.09
5592.00,3.10
5591.00,3.10
5590.00,3.10
5589.00,3.10
5588.00,3.10
5587.00,3.10
5586.00,3.11
5585.00,3.11
5584.00,3.11
5583.00,3.11
5582.00,3.11
5581.00,3.10
5580.00,3.10
5579.00,3.10
5578.00,3.10
5577.00,3.10
5576.00,3.10
5575.00,3.10
5574.00,3.10
5573.00,3.10
5572.00,3.09
5571.00,3.09
5570.00,3.09
5569.00,3.09
5568.00,3.08
5567.00,3.08
5566.00,3.08
5565.00,3.07
5564.00,3.07
5563.00,3.07
5562.00,3.07
5561.00,3.07
5560.00,3.07
5559.00,3.07
5558.00,3.07
5557.00,3.07
5556.00,3.07
5555.00,3.08
5554.00,3.08
5553.00,3.08
5552.00,3.09
5551.00,3.09
5550.00,3.09
5549.00,3.10
5548.00,3.10
5547.00,3.10
5546.00,3.11
5545.00,3.11
5544.00,3.12
5543.00,3.12
5542.00,3.12
5541.00,3.13
5540.00,3.13
5539.00,3.13
5538.00,3.14
5537.00,3.14
5536.00,3.14
5535.00,3.15
5534.00,3.15
5533.00,3.15
5532.00,3.15
5531.00,3.15
5530.00,3.15
5529.00,3.15
5528.00,3.15
5527.00,3.15
5526.00,3.15
5525.00,3.15
5524.00,3.15
5523.00,3.14
5522.00,3.14
5521.00,3.14
5520.00,3.14
5519.00,3.14
5518.00,3.14
5517.00,3.14
5516.00,3.14
5515.00,3.14
5514.00,3.14
5513.00,3.14
5512.00,3.14
5511.00,3.13
5510.00,3.13
5509.00,3.13
5508.00,3.13
5507.00,3.13
5506.00,3.13
5505.00,3.13
5504.00,3.13
5503.00,3.13
5502.00,3.13
5501.00,3.14
5500.00,3.14
5499.00,3.14
5498.00,3.14
5497.00,3.14
5496.00,3.15
5495.00,3.15
5494.00,3.15
5493.00,3.15
5492.00,3.15
5491.00,3.15
5490.00,3.15
5489.00,3.15
5488.00,3.15
5487.00,3.15
5486.00,3.15
5485.00,3.15
5484.00,3.15
5483.00,3.15
5482.00,3.16
5481.00,3.16
5480.00,3.16
5479.00,3.16
5478.00,3.16
5477.00,3.16
5476.00,3.16
5475.00,3.16
5474.00,3.16
5473.00,3.16
5472.00,3.16
5471.00,3.16
5470.00,3.16
5469.00,3.16
5468.00,3.16
5467.00,3.16
5466.00,3.16
5465.00,3.16
5464.00,3.16
5463.00,3.17
5462.00,3.17
5461.00,3.17
5460.00,3.17
5459.00,3.17
5458.00,3.17
5457.00,3.17
5456.00,3.17
5455.00,3.18
5454.00,3.18
5453.00,3.18
5452.00,3.18
5451.00,3.18
5450.00,3.18
5449.00,3.18
5448.00,3.18
5447.00,3.18
5446.00,3.18
5445.00,3.18
5444.00,3.18
5443.00,3.18
5442.00,3.17
5441.00,3.17
5440.00,3.17
5439.00,3.17
5438.00,3.17
5437.00,3.17
5436.00,3.16
5435.00,3.16
5434.00,3.16
5433.00,3.16
5432.00,3.16
5431.00,3.15
5430.00,3.15
5429.00,3.15
5428.00,3.15
5427.00,3.15
5426.00,3.14
5425.00,3.14
5424.00,3.14
5423.00,3.14
5422.00,3.14
5421.00,3.14
5420.00,3.14
5419.00,3.14
5418.00,3.14
5417.00,3.14
5416.00,3.14
5415.00,3.14
5414.00,3.14
5413.00,3.14
5412.00,3.14
5411.00,3.14
5410.00,3.14
5409.00,3.14
5408.00,3.14
5407.00,3.14
5406.00,3.14
5405.00,3.14
5404.00,3.14
5403.00,3.14
5402.00,3.14
5401.00,3.14
5400.00,3.14
5399.00,3.14
5398.00,3.14
5397.00,3.13
5396.00,3.13
5395.00,3.13
5394.00,3.13
5393.00,3.12
5392.00,3.12
5391.00,3.12
5390.00,3.11
5389.00,3.10
5388.00,3.10
5387.00,3.09
5386.00,3.09
5385.00,3.08
5384.00,3.07
5383.00,3.07
5382.00,3.06
5381.00,3.05
5380.00,3.04
5379.00,3.03
5378.00,3.02
5377.00,3.02
5376.00,3.00
5375.00,2.99
5374.00,2.98
5373.00,2.97
5372.00,2.96
5371.00,2.95
5370.00,2.94
5369.00,2.92
5368.00,2.91
5367.00,2.90
5366.00,2.89
5365.00,2.88
5364.00,2.87
5363.00,2.85
5362.00,2.84
5361.00,2.83
5360.00,2.82
5359.00,2.81
5358.00,2.79
5357.00,2.78
5356.00,2.77
5355.00,2.76
5354.00,2.74
5353.00,2.73
5352.00,2.71
5351.00,2.70
5350.00,2.68
5349.00,2.67
5348.00,2.66
5347.00,2.64
5346.00,2.63
5345.00,2.62
5344.00,2.60
5343.00,2.59
5342.00,2.57
5341.00,2.56
5340.00,2.54
5339.00,2.52
5338.00,2.51
5337.00,2.49
5336.00,2.47
5335.00,2.46
5334.00,2.44
5333.00,2.42
5332.00,2.41
5331.00,2.39
5330.00,2.38
5329.00,2.36
5328.00,2.34
5327.00,2.32
5326.00,2.31
5325.00,2.29
5324.00,2.27
5323.00,2.26
5322.00,2.24
5321.00,2.22
5320.00,2.20
5319.00,2.18
5318.00,2.16
5317.00,2.14
5316.00,2.12
5315.00,2.10
5314.00,2.07
5313.00,2.05
5312.00,2.03
5311.00,2.01
5310.00,1.99
5309.00,1.97
5308.00,1.94
5307.00,1.92
5306.00,1.90
5305.00,1.88
5304.00,1.85
5303.00,1.83
5302.00,1.81
5301.00,1.79
5300.00,1.77
5299.00,1.74
5298.00,1.72
5297.00,1.70
5296.00,1.68
5295.00,1.66
5294.00,1.65
5293.00,1.63
5292.00,1.61
5291.00,1.59
5290.00,1.58
5289.00,1.56
5288.00,1.54
5287.00,1.53
5286.00,1.51
5285.00,1.50
5284.00,1.49
5283.00,1.47
5282.00,1.46
5281.00,1.45
5280.00,1.44
5279.00,1.42
5278.00,1.41
5277.00,1.40
5276.00,1.39
5275.00,1.38
5274.00,1.37
5273.00,1.36
5272.00,1.35
5271.00,1.34
5270.00,1.33
5269.00,1.32
5268.00,1.31
5267.00,1.30
5266.00,1.29
5265.00,1.28
5264.00,1.28
5263.00,1.27
5262.00,1.26
5261.00,1.25
5260.00,1.24
5259.00,1.24
5258.00,1.23
5257.00,1.22
5256.00,1.21
5255.00,1.20
5254.00,1.20
5253.00,1.19
5252.00,1.18
5251.00,1.17
5250.00,1.16
5249.00,1.16
5248.00,1.15
5247.00,1.14
5246.00,1.14
5245.00,1.13
5244.00,1.13
5243.00,1.12
5242.00,1.12
5241.00,1.11
5240.00,1.11
5239.00,1.11
5238.00,1.10
5237.00,1.10
5236.00,1.10
5235.00,1.09
5234.00,1.09
5233.00,1.09
5232.00,1.09
5231.00,1.09
5230.00,1.09
5229.00,1.09
5228.00,1.09
5227.00,1.09
5226.00,1.09
5225.00,1.09
5224.00,1.10
5223.00,1.10
5222.00,1.10
5221.00,1.10
5220.00,1.10
5219.00,1.11
5218.00,1.11
5217.00,1.11
5216.00,1.11
5215.00,1.11
5214.00,1.11
5213.00,1.11
5212.00,1.11
5211.00,1.11
5210.00,1.11
5209.00,1.11
5208.00,1.11
5207.00,1.11
5206.00,1.10
5205.00,1.10
5204.00,1.10
5203.00,1.10
5202.00,1.09
5201.00,1.09
5200.00,1.09
5199.00,1.08
5198.00,1.08
5197.00,1.08
5196.00,1.08
5195.00,1.07
5194.00,1.07
5193.00,1.07
5192.00,1.06
5191.00,1.06
5190.00,1.06
5189.00,1.05
5188.00,1.05
5187.00,1.05
5186.00,1.04
5185.00,1.04
5184.00,1.04
5183.00,1.04
5182.00,1.04
5181.00,1.04
5180.00,1.04
5179.00,1.04
5178.00,1.04
5177.00,1.04
5176.00,1.04
5175.00,1.05
5174.00,1.05
5173.00,1.05
5172.00,1.05
5171.00,1.05
5170.00,1.05
5169.00,1.05
5168.00,1.05
5167.00,1.05
5166.00,1.05
5165.00,1.06
5164.00,1.06
5163.00,1.06
5162.00,1.06
5161.00,1.07
5160.00,1.07
5159.00,1.07
5158.00,1.07
5157.00,1.07
5156.00,1.07
5155.00,1.08
5154.00,1.08
5153.00,1.08
5152.00,1.08
5151.00,1.08
5150.00,1.08
5149.00,1.08
5148.00,1.08
5147.00,1.08
5146.00,1.08
5145.00,1.08
5144.00,1.09
5143.00,1.09
5142.00,1.09
5141.00,1.10
5140.00,1.10
5139.00,1.10
5138.00,1.10
5137.00,1.11
5136.00,1.11
5135.00,1.11
5134.00,1.12
5133.00,1.12
5132.00,1.12
5131.00,1.13
5130.00,1.13
5129.00,1.13
5128.00,1.13
5127.00,1.14
5126.00,1.14
5125.00,1.15
5124.00,1.15
5123.00,1.15
5122.00,1.16
5121.00,1.16
5120.00,1.17
5119.00,1.17
5118.00,1.17
5117.00,1.18
5116.00,1.18
5115.00,1.18
5114.00,1.18
5113.00,1.18
5112.00,1.19
5111.00,1.19
5110.00,1.19
5109.00,1.19
5108.00,1.19
5107.00,1.19
5106.00,1.19
5105.00,1.20
5104.00,1.20
5103.00,1.20
5102.00,1.20
5101.00,1.20
5100.00,1.20
5099.00,1.20
5098.00,1.20
5097.00,1.20
5096.00,1.20
5095.00,1.20
5094.00,1.20
5093.00,1.20
5092.00,1.20
5091.00,1.20
5090.00,1.21
5089.00,1.21
5088.00,1.21
5087.00,1.21
5086.00,1.21
5085.00,1.21
5084.00,1.22
5083.00,1.22
5082.00,1.22
5081.00,1.23
5080.00,1.23
5079.00,1.23
5078.00,1.24
5077.00,1.24
5076.00,1.25
5075.00,1.25
5074.00,1.26
5073.00,1.26
5072.00,1.27
5071.00,1.27
5070.00,1.28
5069.00,1.28
5068.00,1.29
5067.00,1.30
5066.00,1.30
5065.00,1.31
5064.00,1.31
5063.00,1.32
5062.00,1.32
5061.00,1.33
5060.00,1.33
5059.00,1.33
5058.00,1.34
5057.00,1.34
5056.00,1.34
5055.00,1.34
5054.00,1.35
5053.00,1.35
5052.00,1.35
5051.00,1.35
5050.00,1.36
5049.00,1.36
5048.00,1.36
5047.00,1.36
5046.00,1.36
5045.00,1.36
5044.00,1.37
5043.00,1.37
5042.00,1.37
5041.00,1.37
5040.00,1.38
5039.00,1.38
5038.00,1.38
5037.00,1.39
5036.00,1.39
5035.00,1.40
5034.00,1.40
5033.00,1.41
5032.00,1.42
5031.00,1.42
5030.00,1.43
5029.00,1.43
5028.00,1.44
5027.00,1.44
5026.00,1.45
5025.00,1.46
5024.00,1.46
5023.00,1.47
5022.00,1.47
5021.00,1.48
5020.00,1.49
5019.00,1.49
5018.00,1.50
5017.00,1.50
5016.00,1.51
5015.00,1.51
5014.00,1.51
5013.00,1.52
5012.00,1.52
5011.00,1.52
5010.00,1.52
5009.00,1.52
5008.00,1.52
5007.00,1.52
5006.00,1.52
5005.00,1.52
5004.00,1.52
5003.00,1.52
5002.00,1.52
5001.00,1.52
5000.00,1.52
4999.00,1.52
4998.00,1.52
4997.00,1.52
4996.00,1.51
4995.00,1.51
4994.00,1.51
4993.00,1.51
4992.00,1.51
4991.00,1.51
4990.00,1.51
4989.00,1.51
4988.00,1.51
4987.00,1.52
4986.00,1.52
4985.00,1.52
4984.00,1.53
4983.00,1.53
4982.00,1.54
4981.00,1.54
4980.00,1.55
4979.00,1.55
4978.00,1.56
4977.00,1.57
4976.00,1.57
4975.00,1.58
4974.00,1.58
4973.00,1.59
4972.00,1.60
4971.00,1.61
4970.00,1.61
4969.00,1.62
4968.00,1.63
4967.00,1.64
4966.00,1.65
4965.00,1.66
4964.00,1.67
4963.00,1.67
4962.00,1.68
4961.00,1.69
4960.00,1.70
4959.00,1.70
4958.00,1.71
4957.00,1.72
4956.00,1.72
4955.00,1.73
4954.00,1.73
4953.00,1.74
4952.00,1.75
4951.00,1.75
4950.00,1.76
4949.00,1.76
4948.00,1.77
4947.00,1.78
4946.00,1.78
4945.00,1.79
4944.00,1.79
4943.00,1.79
4942.00,1.80
4941.00,1.80
4940.00,1.80
4939.00,1.81
4938.00,1.81
4937.00,1.82
4936.00,1.82
4935.00,1.83
4934.00,1.83
4933.00,1.84
4932.00,1.84
4931.00,1.85
4930.00,1.86
4929.00,1.86
4928.00,1.87
4927.00,1.87
4926.00,1.88
4925.00,1.89
4924.00,1.89
4923.00,1.90
4922.00,1.90
4921.00,1.91
4920.00,1.91
4919.00,1.92
4918.00,1.92
4917.00,1.93
4916.00,1.93
4915.00,1.94
4914.00,1.94
4913.00,1.95
4912.00,1.95
4911.00,1.96
4910.00,1.96
4909.00,1.97
4908.00,1.97
4907.00,1.97
4906.00,1.98
4905.00,1.98
4904.00,1.98
4903.00,1.98
4902.00,1.98
4901.00,1.99
4900.00,1.99
4899.00,1.99
4898.00,1.99
4897.00,1.99
4896.00,2.00
4895.00,2.00
4894.00,2.00
4893.00,2.01
4892.00,2.01
4891.00,2.01
4890.00,2.02
4889.00,2.02
4888.00,2.02
4887.00,2.02
4886.00,2.03
4885.00,2.03
4884.00,2.03
4883.00,2.03
4882.00,2.03
4881.00,2.03
4880.00,2.03
4879.00,2.03
4878.00,2.04
4877.00,2.04
4876.00,2.04
4875.00,2.04
4874.00,2.04
4873.00,2.04
4872.00,2.05
4871.00,2.05
4870.00,2.05
4869.00,2.05
4868.00,2.06
4867.00,2.06
4866.00,2.06
4865.00,2.06
4864.00,2.06
4863.00,2.06
4862.00,2.07
4861.00,2.07
4860.00,2.07
4859.00,2.07
4858.00,2.07
4857.00,2.08
4856.00,2.08
4855.00,2.08
4854.00,2.09
4853.00,2.09
4852.00,2.09
4851.00,2.10
4850.00,2.10
4849.00,2.10
4848.00,2.10
4847.00,2.11
4846.00,2.11
4845.00,2.11
4844.00,2.11
4843.00,2.12
4842.00,2.12
4841.00,2.12
4840.00,2.12
4839.00,2.12
4838.00,2.12
4837.00,2.12
4836.00,2.13
4835.00,2.13
4834.00,2.13
4833.00,2.13
4832.00,2.14
4831.00,2.14
4830.00,2.14
4829.00,2.15
4828.00,2.15
4827.00,2.15
4826.00,2.16
4825.00,2.17
4824.00,2.17
4823.00,2.18
4822.00,2.19
4821.00,2.19
4820.00,2.20
4819.00,2.20
4818.00,2.21
4817.00,2.22
4816.00,2.22
4815.00,2.23
4814.00,2.24
4813.00,2.25
4812.00,2.25
4811.00,2.26
4810.00,2.27
4809.00,2.28
4808.00,2.29
4807.00,2.30
4806.00,2.30
4805.00,2.31
4804.00,2.32
4803.00,2.32
4802.00,2.33
4801.00,2.33
4800.00,2.33
4799.00,2.34
4798.00,2.34
4797.00,2.34
4796.00,2.35
4795.00,2.35
4794.00,2.35
4793.00,2.36
4792.00,2.36
4791.00,2.36
4790.00,2.37
4789.00,2.37
4788.00,2.38
4787.00,2.38
4786.00,2.38
4785.00,2.39
4784.00,2.39
4783.00,2.39
4782.00,2.40
4781.00,2.40
4780.00,2.41
4779.00,2.41
4778.00,2.42
4777.00,2.43
4776.00,2.43
4775.00,2.44
4774.00,2.45
4773.00,2.46
4772.00,2.47
4771.00,2.47
4770.00,2.48
4769.00,2.49
4768.00,2.50
4767.00,2.51
4766.00,2.51
4765.00,2.52
4764.00,2.53
4763.00,2.53
4762.00,2.54
4761.00,2.54
4760.00,2.55
4759.00,2.55
4758.00,2.55
4757.00,2.56
4756.00,2.56
4755.00,2.56
4754.00,2.56
4753.00,2.56
4752.00,2.56
4751.00,2.57
4750.00,2.57
4749.00,2.57
4748.00,2.57
4747.00,2.57
4746.00,2.57
4745.00,2.57
4744.00,2.57
4743.00,2.57
4742.00,2.57
4741.00,2.57
4740.00,2.58
4739.00,2.58
4738.00,2.58
4737.00,2.59
4736.00,2.59
4735.00,2.60
4734.00,2.60
4733.00,2.61
4732.00,2.61
4731.00,2.62
4730.00,2.63
4729.00,2.63
4728.00,2.64
4727.00,2.65
4726.00,2.66
4725.00,2.67
4724.00,2.68
4723.00,2.69
4722.00,2.69
4721.00,2.70
4720.00,2.71
4719.00,2.72
4718.00,2.72
4717.00,2.73
4716.00,2.74
4715.00,2.74
4714.00,2.74
4713.00,2.75
4712.00,2.75
4711.00,2.75
4710.00,2.75
4709.00,2.76
4708.00,2.76
4707.00,2.76
4706.00,2.76
4705.00,2.77
4704.00,2.77
4703.00,2.77
4702.00,2.77
4701.00,2.77
4700.00,2.77
4699.00,2.77
4698.00,2.76
4697.00,2.76
4696.00,2.76
4695.00,2.76
4694.00,2.76
4693.00,2.75
4692.00,2.75
4691.00,2.75
4690.00,2.75
4689.00,2.75
4688.00,2.75
4687.00,2.75
4686.00,2.75
4685.00,2.76
4684.00,2.76
4683.00,2.76
4682.00,2.77
4681.00,2.77
4680.00,2.77
4679.00,2.78
4678.00,2.78
4677.00,2.79
4676.00,2.79
4675.00,2.80
4674.00,2.80
4673.00,2.81
4672.00,2.81
4671.00,2.82
4670.00,2.83
4669.00,2.84
4668.00,2.85
4667.00,2.86
4666.00,2.87
4665.00,2.88
4664.00,2.89
4663.00,2.90
4662.00,2.91
4661.00,2.92
4660.00,2.93
4659.00,2.94
4658.00,2.95
4657.00,2.96
4656.00,2.97
4655.00,2.97
4654.00,2.98
4653.00,2.99
4652.00,2.99
4651.00,3.00
4650.00,3.00
4649.00,3.01
4648.00,3.01
4647.00,3.02
4646.00,3.02
4645.00,3.02
4644.00,3.02
4643.00,3.02
4642.00,3.02
4641.00,3.02
4640.00,3.02
4639.00,3.02
4638.00,3.02
4637.00,3.01
4636.00,3.01
4635.00,3.01
4634.00,3.01
4633.00,3.00
4632.00,3.00
4631.00,3.00
4630.00,2.99
4629.00,2.99
4628.00,2.98
4627.00,2.98
4626.00,2.97
4625.00,2.97
4624.00,2.97
4623.00,2.96
4622.00,2.96
4621.00,2.96
4620.00,2.95
4619.00,2.95
4618.00,2.95
4617.00,2.95
4616.00,2.95
4615.00,2.95
4614.00,2.95
4613.00,2.95
4612.00,2.95
4611.00,2.96
4610.00,2.96
4609.00,2.96
4608.00,2.96
4607.00,2.96
4606.00,2.96
4605.00,2.97
4604.00,2.97
4603.00,2.97
4602.00,2.98
4601.00,2.98
4600.00,2.99
4599.00,3.00
4598.00,3.00
4597.00,3.01
4596.00,3.02
4595.00,3.02
4594.00,3.03
4593.00,3.04
4592.00,3.04
4591.00,3.04
4590.00,3.05
4589.00,3.05
4588.00,3.06
4587.00,3.06
4586.00,3.06
4585.00,3.06
4584.00,3.07
4583.00,3.07
4582.00,3.07
4581.00,3.07
4580.00,3.08
4579.00,3.08
4578.00,3.08
4577.00,3.08
4576.00,3.08
4575.00,3.08
4574.00,3.08
4573.00,3.08
4572.00,3.08
4571.00,3.07
4570.00,3.07
4569.00,3.07
4568.00,3.07
4567.00,3.07
4566.00,3.07
4565.00,3.07
4564.00,3.07
4563.00,3.07
4562.00,3.08
4561.00,3.08
4560.00,3.08
4559.00,3.08
4558.00,3.09
4557.00,3.09
4556.00,3.09
4555.00,3.10
4554.00,3.10
4553.00,3.11
4552.00,3.11
4551.00,3.12
4550.00,3.12
4549.00,3.13
4548.00,3.13
4547.00,3.13
4546.00,3.14
4545.00,3.14
4544.00,3.15
4543.00,3.15
4542.00,3.15
4541.00,3.16
4540.00,3.16
4539.00,3.16
4538.00,3.16
4537.00,3.16
4536.00,3.17
4535.00,3.17
4534.00,3.17
4533.00,3.16
4532.00,3.16
4531.00,3.16
4530.00,3.16
4529.00,3.16
4528.00,3.16
4527.00,3.16
4526.00,3.16
4525.00,3.16
4524.00,3.16
4523.00,3.15
4522.00,3.15
4521.00,3.15
4520.00,3.15
4519.00,3.15
4518.00,3.15
4517.00,3.15
4516.00,3.15
4515.00,3.15
4514.00,3.15
4513.00,3.15
4512.00,3.15
4511.00,3.15
4510.00,3.16
4509.00,3.16
4508.00,3.16
4507.00,3.16
4506.00,3.17
4505.00,3.17
4504.00,3.17
4503.00,3.17
4502.00,3.17
4501.00,3.18
4500.00,3.18
4499.00,3.18
4498.00,3.18
4497.00,3.18
4496.00,3.19
4495.00,3.19
4494.00,3.19
4493.00,3.19
4492.00,3.19
4491.00,3.20
4490.00,3.20
4489.00,3.20
4488.00,3.20
4487.00,3.20
4486.00,3.20
4485.00,3.20
4484.00,3.20
4483.00,3.20
4482.00,3.20
4481.00,3.19
4480.00,3.19
4479.00,3.19
4478.00,3.19
4477.00,3.18
4476.00,3.18
4475.00,3.18
4474.00,3.18
4473.00,3.17
4472.00,3.17
4471.00,3.16
4470.00,3.16
4469.00,3.15
4468.00,3.14
4467.00,3.14
4466.00,3.13
4465.00,3.12
4464.00,3.11
4463.00,3.10
4462.00,3.09
4461.00,3.08
4460.00,3.07
4459.00,3.06
4458.00,3.05
4457.00,3.04
4456.00,3.03
4455.00,3.02
4454.00,3.00
4453.00,2.99
4452.00,2.98
4451.00,2.96
4450.00,2.95
4449.00,2.94
4448.00,2.92
4447.00,2.91
4446.00,2.89
4445.00,2.88
4444.00,2.87
4443.00,2.85
4442.00,2.84
4441.00,2.83
4440.00,2.81
4439.00,2.80
4438.00,2.79
4437.00,2.78
4436.00,2.76
4435.00,2.75
4434.00,2.74
4433.00,2.73
4432.00,2.72
4431.00,2.71
4430.00,2.71
4429.00,2.70
4428.00,2.69
4427.00,2.68
4426.00,2.67
4425.00,2.66
4424.00,2.66
4423.00,2.65
4422.00,2.65
4421.00,2.65
4420.00,2.64
4419.00,2.64
4418.00,2.64
4417.00,2.63
4416.00,2.63
4415.00,2.63
4414.00,2.63
4413.00,2.63
4412.00,2.63
4411.00,2.63
4410.00,2.64
4409.00,2.64
4408.00,2.64
4407.00,2.64
4406.00,2.64
4405.00,2.64
4404.00,2.65
4403.00,2.65
4402.00,2.65
4401.00,2.66
4400.00,2.66
4399.00,2.67
4398.00,2.67
4397.00,2.67
4396.00,2.68
4395.00,2.68
4394.00,2.68
4393.00,2.69
4392.00,2.69
4391.00,2.69
4390.00,2.70
4389.00,2.70
4388.00,2.71
4387.00,2.71
4386.00,2.71
4385.00,2.72
4384.00,2.72
4383.00,2.73
4382.00,2.73
4381.00,2.73
4380.00,2.74
4379.00,2.74
4378.00,2.74
4377.00,2.75
4376.00,2.75
4375.00,2.75
4374.00,2.76
4373.00,2.76
4372.00,2.77
4371.00,2.77
4370.00,2.77
4369.00,2.77
4368.00,2.77
4367.00,2.77
4366.00,2.77
4365.00,2.77
4364.00,2.76
4363.00,2.76
4362.00,2.76
4361.00,2.75
4360.00,2.74
4359.00,2.74
4358.00,2.73
4357.00,2.72
4356.00,2.71
4355.00,2.70
4354.00,2.69
4353.00,2.68
4352.00,2.67
4351.00,2.66
4350.00,2.65
4349.00,2.64
4348.00,2.63
4347.00,2.62
4346.00,2.61
4345.00,2.60
4344.00,2.59
4343.00,2.58
4342.00,2.58
4341.00,2.57
4340.00,2.57
4339.00,2.57
4338.00,2.57
4337.00,2.57
4336.00,2.57
4335.00,2.57
4334.00,2.58
4333.00,2.58
4332.00,2.59
4331.00,2.60
4330.00,2.61
4329.00,2.62
4328.00,2.63
4327.00,2.65
4326.00,2.66
4325.00,2.68
4324.00,2.69
4323.00,2.71
4322.00,2.72
4321.00,2.74
4320.00,2.75
4319.00,2.77
4318.00,2.78
4317.00,2.79
4316.00,2.80
4315.00,2.82
4314.00,2.83
4313.00,2.84
4312.00,2.85
4311.00,2.86
4310.00,2.87
4309.00,2.88
4308.00,2.89
4307.00,2.90
4306.00,2.91
4305.00,2.91
4304.00,2.92
4303.00,2.92
4302.00,2.93
4301.00,2.93
4300.00,2.93
4299.00,2.93
4298.00,2.93
4297.00,2.93
4296.00,2.93
4295.00,2.93
4294.00,2.94
4293.00,2.94
4292.00,2.94
4291.00,2.94
4290.00,2.94
4289.00,2.95
4288.00,2.95
4287.00,2.95
4286.00,2.94
4285.00,2.94
4284.00,2.94
4283.00,2.93
4282.00,2.93
4281.00,2.93
4280.00,2.92
4279.00,2.91
4278.00,2.91
4277.00,2.90
4276.00,2.90
4275.00,2.89
4274.00,2.89
4273.00,2.88
4272.00,2.87
4271.00,2.87
4270.00,2.86
4269.00,2.85
4268.00,2.84
4267.00,2.84
4266.00,2.83
4265.00,2.82
4264.00,2.81
4263.00,2.80
4262.00,2.79
4261.00,2.79
4260.00,2.78
4259.00,2.78
4258.00,2.78
4257.00,2.78
4256.00,2.78
4255.00,2.78
4254.00,2.78
4253.00,2.78
4252.00,2.78
4251.00,2.78
4250.00,2.78
4249.00,2.78
4248.00,2.79
4247.00,2.79
4246.00,2.79
4245.00,2.80
4244.00,2.80
4243.00,2.81
4242.00,2.81
4241.00,2.82
4240.00,2.83
4239.00,2.83
4238.00,2.84
4237.00,2.85
4236.00,2.85
4235.00,2.86
4234.00,2.86
4233.00,2.86
4232.00,2.86
4231.00,2.87
4230.00,2.87
4229.00,2.87
4228.00,2.87
4227.00,2.87
4226.00,2.87
4225.00,2.88
4224.00,2.88
4223.00,2.88
4222.00,2.89
4221.00,2.89
4220.00,2.89
4219.00,2.90
4218.00,2.90
4217.00,2.90
4216.00,2.90
4215.00,2.90
4214.00,2.90
4213.00,2.91
4212.00,2.91
4211.00,2.91
4210.00,2.91
4209.00,2.91
4208.00,2.91
4207.00,2.91
4206.00,2.91
4205.00,2.91
4204.00,2.91
4203.00,2.91
4202.00,2.91
4201.00,2.90
4200.00,2.90
4199.00,2.89
4198.00,2.88
4197.00,2.88
4196.00,2.87
4195.00,2.86
4194.00,2.85
4193.00,2.84
4192.00,2.83
4191.00,2.81
4190.00,2.80
4189.00,2.80
4188.00,2.79
4187.00,2.78
4186.00,2.77
4185.00,2.75
4184.00,2.74
4183.00,2.73
4182.00,2.72
4181.00,2.71
4180.00,2.70
4179.00,2.69
4178.00,2.68
4177.00,2.68
4176.00,2.67
4175.00,2.66
4174.00,2.65
4173.00,2.65
4172.00,2.65
4171.00,2.64
4170.00,2.64
4169.00,2.64
4168.00,2.64
4167.00,2.64
4166.00,2.64
4165.00,2.64
4164.00,2.64
4163.00,2.64
4162.00,2.63
4161.00,2.63
4160.00,2.63
4159.00,2.63
4158.00,2.63
4157.00,2.62
4156.00,2.62
4155.00,2.62
4154.00,2.63
4153.00,2.63
4152.00,2.63
4151.00,2.63
4150.00,2.63
4149.00,2.64
4148.00,2.64
4147.00,2.64
4146.00,2.64
4145.00,2.64
4144.00,2.64
4143.00,2.64
4142.00,2.64
4141.00,2.64
4140.00,2.64
4139.00,2.64
4138.00,2.64
4137.00,2.64
4136.00,2.64
4135.00,2.64
4134.00,2.64
4133.00,2.64
4132.00,2.64
4131.00,2.64
4130.00,2.64
4129.00,2.64
4128.00,2.64
4127.00,2.63
4126.00,2.63
4125.00,2.63
4124.00,2.62
4123.00,2.62
4122.00,2.62
4121.00,2.62
4120.00,2.61
4119.00,2.61
4118.00,2.61
4117.00,2.61
4116.00,2.61
4115.00,2.60
4114.00,2.60
4113.00,2.60
4112.00,2.59
4111.00,2.59
4110.00,2.59
4109.00,2.59
4108.00,2.59
4107.00,2.58
4106.00,2.58
4105.00,2.58
4104.00,2.58
4103.00,2.57
4102.00,2.57
4101.00,2.57
4100.00,2.57
4099.00,2.57
4098.00,2.57
4097.00,2.56
4096.00,2.56
4095.00,2.56
4094.00,2.56
4093.00,2.55
4092.00,2.55
4091.00,2.55
4090.00,2.55
4089.00,2.55
4088.00,2.55
4087.00,2.55
4086.00,2.55
4085.00,2.55
4084.00,2.55
4083.00,2.55
4082.00,2.55
4081.00,2.55
4080.00,2.55
4079.00,2.55
4078.00,2.54
4077.00,2.54
4076.00,2.54
4075.00,2.54
4074.00,2.55
4073.00,2.55
4072.00,2.55
4071.00,2.55
4070.00,2.55
4069.00,2.55
4068.00,2.55
4067.00,2.56
4066.00,2.56
4065.00,2.56
4064.00,2.57
4063.00,2.57
4062.00,2.57
4061.00,2.57
4060.00,2.57
4059.00,2.57
4058.00,2.57
4057.00,2.58
4056.00,2.58
4055.00,2.58
4054.00,2.59
4053.00,2.59
4052.00,2.60
4051.00,2.60
4050.00,2.61
4049.00,2.61
4048.00,2.61
4047.00,2.61
4046.00,2.61
4045.00,2.61
4044.00,2.61
4043.00,2.61
4042.00,2.60
4041.00,2.60
4040.00,2.60
4039.00,2.59
4038.00,2.59
4037.00,2.59
4036.00,2.60
4035.00,2.60
4034.00,2.61
4033.00,2.62
4032.00,2.62
4031.00,2.63
4030.00,2.64
4029.00,2.65
4028.00,2.66
4027.00,2.66
4026.00,2.67
4025.00,2.68
4024.00,2.70
4023.00,2.71
4022.00,2.73
4021.00,2.75
4020.00,2.77
4019.00,2.80
4018.00,2.82
4017.00,2.85
4016.00,2.88
4015.00,2.91
4014.00,2.94
4013.00,2.97
4012.00,2.99
4011.00,3.01
4010.00,3.04
4009.00,3.05
4008.00,3.07
4007.00,3.09
4006.00,3.11
4005.00,3.14
4004.00,3.16
4003.00,3.18
4002.00,3.21
4001.00,3.23
4000.00,3.26
