创建为新数据集,样品 1055 用户 Administrator 日期 星期二, 七月 30 2019
cm-1,%T
10000.00,2.86
9999.00,2.83
9998.00,2.79
9997.00,2.76
9996.00,2.73
9995.00,2.71
9994.00,2.68
9993.00,2.66
9992.00,2.64
9991.00,2.61
9990.00,2.59
9989.00,2.57
9988.00,2.54
9987.00,2.52
9986.00,2.49
9985.00,2.45
9984.00,2.42
9983.00,2.38
9982.00,2.34
9981.00,2.31
9980.00,2.27
9979.00,2.24
9978.00,2.21
9977.00,2.18
9976.00,2.15
9975.00,2.13
9974.00,2.11
9973.00,2.09
9972.00,2.07
9971.00,2.05
9970.00,2.03
9969.00,2.01
9968.00,2.00
9967.00,1.98
9966.00,1.97
9965.00,1.95
9964.00,1.95
9963.00,1.94
9962.00,1.93
9961.00,1.93
9960.00,1.93
9959.00,1.94
9958.00,1.95
9957.00,1.95
9956.00,1.96
9955.00,1.97
9954.00,1.98
9953.00,1.99
9952.00,2.00
9951.00,2.01
9950.00,2.02
9949.00,2.04
9948.00,2.05
9947.00,2.06
9946.00,2.07
9945.00,2.09
9944.00,2.10
9943.00,2.12
9942.00,2.13
9941.00,2.14
9940.00,2.15
9939.00,2.15
9938.00,2.16
9937.00,2.16
9936.00,2.16
9935.00,2.16
9934.00,2.16
9933.00,2.16
9932.00,2.15
9931.00,2.15
9930.00,2.15
9929.00,2.15
9928.00,2.15
9927.00,2.15
9926.00,2.15
9925.00,2.15
9924.00,2.15
9923.00,2.14
9922.00,2.14
9921.00,2.12
9920.00,2.11
9919.00,2.10
9918.00,2.08
9917.00,2.06
9916.00,2.04
9915.00,2.03
9914.00,2.01
9913.00,2.01
9912.00,2.00
9911.00,1.99
9910.00,1.99
9909.00,1.99
9908.00,1.99
9907.00,1.98
9906.00,1.98
9905.00,1.97
9904.00,1.96
9903.00,1.96
9902.00,1.95
9901.00,1.94
9900.00,1.93
9899.00,1.93
9898.00,1.93
9897.00,1.93
9896.00,1.94
9895.00,1.95
9894.00,1.97
9893.00,1.98
9892.00,2.00
9891.00,2.02
9890.00,2.03
9889.00,2.05
9888.00,2.06
9887.00,2.07
9886.00,2.07
9885.00,2.08
9884.00,2.08
9883.00,2.07
9882.00,2.07
9881.00,2.07
9880.00,2.06
9879.00,2.06
9878.00,2.06
9877.00,2.06
9876.00,2.06
9875.00,2.06
9874.00,2.05
9873.00,2.05
9872.00,2.04
9871.00,2.03
9870.00,2.01
9869.00,2.00
9868.00,1.98
9867.00,1.96
9866.00,1.94
9865.00,1.93
9864.00,1.91
9863.00,1.90
9862.00,1.89
9861.00,1.89
9860.00,1.89
9859.00,1.89
9858.00,1.89
9857.00,1.89
9856.00,1.90
9855.00,1.90
9854.00,1.90
9853.00,1.91
9852.00,1.91
9851.00,1.91
9850.00,1.91
9849.00,1.91
9848.00,1.90
9847.00,1.90
9846.00,1.90
9845.00,1.90
9844.00,1.89
9843.00,1.89
9842.00,1.89
9841.00,1.88
9840.00,1.87
9839.00,1.86
9838.00,1.84
9837.00,1.83
9836.00,1.81
9835.00,1.78
9834.00,1.76
9833.00,1.74
9832.00,1.71
9831.00,1.69
9830.00,1.67
9829.00,1.65
9828.00,1.63
9827.00,1.61
9826.00,1.59
9825.00,1.57
9824.00,1.55
9823.00,1.53
9822.00,1.51
9821.00,1.50
9820.00,1.48
9819.00,1.46
9818.00,1.45
9817.00,1.44
9816.00,1.43
9815.00,1.42
9814.00,1.41
9813.00,1.41
9812.00,1.41
9811.00,1.41
9810.00,1.41
9809.00,1.41
9808.00,1.41
9807.00,1.42
9806.00,1.42
9805.00,1.42
9804.00,1.42
9803.00,1.43
9802.00,1.43
9801.00,1.44
9800.00,1.45
9799.00,1.47
9798.00,1.48
9797.00,1.50
9796.00,1.53
9795.00,1.55
9794.00,1.58
9793.00,1.61
9792.00,1.64
9791.00,1.67
9790.00,1.69
9789.00,1.72
9788.00,1.75
9787.00,1.78
9786.00,1.82
9785.00,1.85
9784.00,1.88
9783.00,1.92
9782.00,1.95
9781.00,1.99
9780.00,2.03
9779.00,2.07
9778.00,2.10
9777.00,2.14
9776.00,2.17
9775.00,2.20
9774.00,2.22
9773.00,2.24
9772.00,2.25
9771.00,2.26
9770.00,2.27
9769.00,2.27
9768.00,2.27
9767.00,2.27
9766.00,2.26
9765.00,2.26
9764.00,2.25
9763.00,2.25
9762.00,2.24
9761.00,2.23
9760.00,2.22
9759.00,2.21
9758.00,2.20
9757.00,2.19
9756.00,2.17
9755.00,2.16
9754.00,2.14
9753.00,2.12
9752.00,2.10
9751.00,2.08
9750.00,2.06
9749.00,2.04
9748.00,2.02
9747.00,2.01
9746.00,1.99
9745.00,1.98
9744.00,1.97
9743.00,1.96
9742.00,1.95
9741.00,1.95
9740.00,1.95
9739.00,1.96
9738.00,1.96
9737.00,1.97
9736.00,1.97
9735.00,1.98
9734.00,1.99
9733.00,1.99
9732.00,2.00
9731.00,2.00
9730.00,2.00
9729.00,2.00
9728.00,2.00
9727.00,2.01
9726.00,2.01
9725.00,2.02
9724.00,2.02
9723.00,2.03
9722.00,2.05
9721.00,2.06
9720.00,2.07
9719.00,2.09
9718.00,2.10
9717.00,2.11
9716.00,2.12
9715.00,2.13
9714.00,2.13
9713.00,2.13
9712.00,2.13
9711.00,2.13
9710.00,2.12
9709.00,2.11
9708.00,2.11
9707.00,2.10
9706.00,2.10
9705.00,2.09
9704.00,2.09
9703.00,2.09
9702.00,2.09
9701.00,2.08
9700.00,2.08
9699.00,2.08
9698.00,2.07
9697.00,2.07
9696.00,2.07
9695.00,2.06
9694.00,2.06
9693.00,2.05
9692.00,2.05
9691.00,2.04
9690.00,2.04
9689.00,2.04
9688.00,2.04
9687.00,2.04
9686.00,2.04
9685.00,2.04
9684.00,2.05
9683.00,2.05
9682.00,2.05
9681.00,2.05
9680.00,2.05
9679.00,2.05
9678.00,2.05
9677.00,2.05
9676.00,2.05
9675.00,2.04
9674.00,2.04
9673.00,2.03
9672.00,2.02
9671.00,2.01
9670.00,1.99
9669.00,1.97
9668.00,1.95
9667.00,1.93
9666.00,1.91
9665.00,1.89
9664.00,1.87
9663.00,1.85
9662.00,1.83
9661.00,1.82
9660.00,1.80
9659.00,1.79
9658.00,1.78
9657.00,1.77
9656.00,1.76
9655.00,1.75
9654.00,1.74
9653.00,1.74
9652.00,1.74
9651.00,1.73
9650.00,1.73
9649.00,1.73
9648.00,1.73
9647.00,1.73
9646.00,1.74
9645.00,1.75
9644.00,1.77
9643.00,1.79
9642.00,1.81
9641.00,1.83
9640.00,1.85
9639.00,1.88
9638.00,1.90
9637.00,1.92
9636.00,1.93
9635.00,1.94
9634.00,1.95
9633.00,1.95
9632.00,1.95
9631.00,1.95
9630.00,1.94
9629.00,1.94
9628.00,1.93
9627.00,1.93
9626.00,1.92
9625.00,1.92
9624.00,1.91
9623.00,1.91
9622.00,1.91
9621.00,1.91
9620.00,1.90
9619.00,1.89
9618.00,1.89
9617.00,1.88
9616.00,1.86
9615.00,1.85
9614.00,1.83
9613.00,1.81
9612.00,1.80
9611.00,1.78
9610.00,1.77
9609.00,1.76
9608.00,1.76
9607.00,1.76
9606.00,1.76
9605.00,1.76
9604.00,1.77
9603.00,1.77
9602.00,1.78
9601.00,1.78
9600.00,1.79
9599.00,1.79
9598.00,1.78
9597.00,1.78
9596.00,1.77
9595.00,1.76
9594.00,1.75
9593.00,1.74
9592.00,1.72
9591.00,1.71
9590.00,1.70
9589.00,1.69
9588.00,1.69
9587.00,1.68
9586.00,1.68
9585.00,1.68
9584.00,1.69
9583.00,1.69
9582.00,1.69
9581.00,1.69
9580.00,1.69
9579.00,1.69
9578.00,1.69
9577.00,1.68
9576.00,1.68
9575.00,1.68
9574.00,1.68
9573.00,1.68
9572.00,1.68
9571.00,1.69
9570.00,1.70
9569.00,1.71
9568.00,1.72
9567.00,1.73
9566.00,1.74
9565.00,1.75
9564.00,1.76
9563.00,1.76
9562.00,1.76
9561.00,1.76
9560.00,1.76
9559.00,1.75
9558.00,1.74
9557.00,1.72
9556.00,1.70
9555.00,1.69
9554.00,1.67
9553.00,1.65
9552.00,1.63
9551.00,1.61
9550.00,1.59
9549.00,1.57
9548.00,1.55
9547.00,1.53
9546.00,1.51
9545.00,1.49
9544.00,1.47
9543.00,1.46
9542.00,1.44
9541.00,1.43
9540.00,1.42
9539.00,1.41
9538.00,1.41
9537.00,1.41
9536.00,1.41
9535.00,1.42
9534.00,1.42
9533.00,1.44
9532.00,1.45
9531.00,1.47
9530.00,1.49
9529.00,1.52
9528.00,1.55
9527.00,1.57
9526.00,1.60
9525.00,1.63
9524.00,1.66
9523.00,1.69
9522.00,1.71
9521.00,1.74
9520.00,1.76
9519.00,1.78
9518.00,1.80
9517.00,1.82
9516.00,1.84
9515.00,1.85
9514.00,1.86
9513.00,1.87
9512.00,1.88
9511.00,1.89
9510.00,1.89
9509.00,1.89
9508.00,1.89
9507.00,1.88
9506.00,1.88
9505.00,1.87
9504.00,1.85
9503.00,1.84
9502.00,1.82
9501.00,1.80
9500.00,1.78
9499.00,1.76
9498.00,1.74
9497.00,1.72
9496.00,1.70
9495.00,1.68
9494.00,1.67
9493.00,1.65
9492.00,1.64
9491.00,1.63
9490.00,1.62
9489.00,1.61
9488.00,1.60
9487.00,1.60
9486.00,1.59
9485.00,1.59
9484.00,1.58
9483.00,1.58
9482.00,1.58
9481.00,1.59
9480.00,1.59
9479.00,1.60
9478.00,1.61
9477.00,1.62
9476.00,1.64
9475.00,1.65
9474.00,1.66
9473.00,1.68
9472.00,1.69
9471.00,1.70
9470.00,1.71
9469.00,1.72
9468.00,1.72
9467.00,1.73
9466.00,1.74
9465.00,1.75
9464.00,1.76
9463.00,1.77
9462.00,1.78
9461.00,1.78
9460.00,1.79
9459.00,1.79
9458.00,1.79
9457.00,1.79
9456.00,1.78
9455.00,1.78
9454.00,1.76
9453.00,1.75
9452.00,1.74
9451.00,1.72
9450.00,1.71
9449.00,1.70
9448.00,1.68
9447.00,1.67
9446.00,1.67
9445.00,1.66
9444.00,1.65
9443.00,1.65
9442.00,1.65
9441.00,1.64
9440.00,1.64
9439.00,1.64
9438.00,1.64
9437.00,1.64
9436.00,1.64
9435.00,1.65
9434.00,1.65
9433.00,1.66
9432.00,1.67
9431.00,1.68
9430.00,1.70
9429.00,1.72
9428.00,1.74
9427.00,1.76
9426.00,1.79
9425.00,1.81
9424.00,1.84
9423.00,1.87
9422.00,1.90
9421.00,1.93
9420.00,1.95
9419.00,1.98
9418.00,2.01
9417.00,2.04
9416.00,2.07
9415.00,2.10
9414.00,2.13
9413.00,2.16
9412.00,2.19
9411.00,2.21
9410.00,2.24
9409.00,2.26
9408.00,2.27
9407.00,2.29
9406.00,2.30
9405.00,2.31
9404.00,2.32
9403.00,2.32
9402.00,2.32
9401.00,2.32
9400.00,2.32
9399.00,2.32
9398.00,2.32
9397.00,2.31
9396.00,2.30
9395.00,2.29
9394.00,2.28
9393.00,2.26
9392.00,2.24
9391.00,2.22
9390.00,2.20
9389.00,2.17
9388.00,2.15
9387.00,2.12
9386.00,2.09
9385.00,2.06
9384.00,2.03
9383.00,2.01
9382.00,1.98
9381.00,1.96
9380.00,1.94
9379.00,1.92
9378.00,1.90
9377.00,1.88
9376.00,1.87
9375.00,1.86
9374.00,1.85
9373.00,1.85
9372.00,1.84
9371.00,1.84
9370.00,1.84
9369.00,1.83
9368.00,1.84
9367.00,1.84
9366.00,1.84
9365.00,1.85
9364.00,1.85
9363.00,1.86
9362.00,1.87
9361.00,1.88
9360.00,1.89
9359.00,1.90
9358.00,1.90
9357.00,1.91
9356.00,1.92
9355.00,1.93
9354.00,1.94
9353.00,1.95
9352.00,1.96
9351.00,1.97
9350.00,1.97
9349.00,1.98
9348.00,1.98
9347.00,1.98
9346.00,1.98
9345.00,1.98
9344.00,1.97
9343.00,1.97
9342.00,1.97
9341.00,1.96
9340.00,1.95
9339.00,1.95
9338.00,1.94
9337.00,1.94
9336.00,1.93
9335.00,1.93
9334.00,1.92
9333.00,1.92
9332.00,1.91
9331.00,1.91
9330.00,1.90
9329.00,1.90
9328.00,1.89
9327.00,1.88
9326.00,1.88
9325.00,1.87
9324.00,1.86
9323.00,1.85
9322.00,1.85
9321.00,1.84
9320.00,1.83
9319.00,1.83
9318.00,1.82
9317.00,1.82
9316.00,1.81
9315.00,1.81
9314.00,1.82
9313.00,1.82
9312.00,1.82
9311.00,1.82
9310.00,1.83
9309.00,1.84
9308.00,1.85
9307.00,1.85
9306.00,1.86
9305.00,1.87
9304.00,1.89
9303.00,1.90
9302.00,1.91
9301.00,1.93
9300.00,1.94
9299.00,1.96
9298.00,1.97
9297.00,1.99
9296.00,2.00
9295.00,2.02
9294.00,2.03
9293.00,2.04
9292.00,2.05
9291.00,2.06
9290.00,2.07
9289.00,2.07
9288.00,2.08
9287.00,2.08
9286.00,2.08
9285.00,2.08
9284.00,2.08
9283.00,2.07
9282.00,2.06
9281.00,2.05
9280.00,2.04
9279.00,2.03
9278.00,2.01
9277.00,1.99
9276.00,1.98
9275.00,1.96
9274.00,1.94
9273.00,1.92
9272.00,1.90
9271.00,1.88
9270.00,1.87
9269.00,1.86
9268.00,1.84
9267.00,1.83
9266.00,1.82
9265.00,1.81
9264.00,1.80
9263.00,1.79
9262.00,1.79
9261.00,1.78
9260.00,1.78
9259.00,1.77
9258.00,1.77
9257.00,1.77
9256.00,1.78
9255.00,1.78
9254.00,1.79
9253.00,1.80
9252.00,1.80
9251.00,1.81
9250.00,1.82
9249.00,1.83
9248.00,1.84
9247.00,1.84
9246.00,1.85
9245.00,1.85
9244.00,1.85
9243.00,1.86
9242.00,1.86
9241.00,1.86
9240.00,1.86
9239.00,1.86
9238.00,1.86
9237.00,1.86
9236.00,1.86
9235.00,1.85
9234.00,1.85
9233.00,1.84
9232.00,1.83
9231.00,1.82
9230.00,1.81
9229.00,1.79
9228.00,1.78
9227.00,1.76
9226.00,1.75
9225.00,1.74
9224.00,1.73
9223.00,1.72
9222.00,1.71
9221.00,1.70
9220.00,1.70
9219.00,1.70
9218.00,1.69
9217.00,1.69
9216.00,1.68
9215.00,1.68
9214.00,1.68
9213.00,1.68
9212.00,1.68
9211.00,1.68
9210.00,1.69
9209.00,1.70
9208.00,1.71
9207.00,1.72
9206.00,1.74
9205.00,1.75
9204.00,1.77
9203.00,1.79
9202.00,1.81
9201.00,1.84
9200.00,1.86
9199.00,1.88
9198.00,1.90
9197.00,1.92
9196.00,1.94
9195.00,1.95
9194.00,1.97
9193.00,1.99
9192.00,2.00
9191.00,2.02
9190.00,2.04
9189.00,2.05
9188.00,2.07
9187.00,2.09
9186.00,2.11
9185.00,2.12
9184.00,2.14
9183.00,2.16
9182.00,2.17
9181.00,2.18
9180.00,2.19
9179.00,2.20
9178.00,2.20
9177.00,2.20
9176.00,2.20
9175.00,2.20
9174.00,2.20
9173.00,2.19
9172.00,2.19
9171.00,2.18
9170.00,2.18
9169.00,2.18
9168.00,2.17
9167.00,2.17
9166.00,2.17
9165.00,2.17
9164.00,2.16
9163.00,2.16
9162.00,2.16
9161.00,2.15
9160.00,2.15
9159.00,2.14
9158.00,2.13
9157.00,2.12
9156.00,2.11
9155.00,2.10
9154.00,2.09
9153.00,2.08
9152.00,2.07
9151.00,2.07
9150.00,2.06
9149.00,2.06
9148.00,2.06
9147.00,2.06
9146.00,2.06
9145.00,2.06
9144.00,2.07
9143.00,2.06
9142.00,2.06
9141.00,2.06
9140.00,2.06
9139.00,2.06
9138.00,2.05
9137.00,2.05
9136.00,2.04
9135.00,2.04
9134.00,2.04
9133.00,2.03
9132.00,2.03
9131.00,2.03
9130.00,2.03
9129.00,2.03
9128.00,2.02
9127.00,2.02
9126.00,2.02
9125.00,2.01
9124.00,2.00
9123.00,2.00
9122.00,1.99
9121.00,1.98
9120.00,1.98
9119.00,1.97
9118.00,1.96
9117.00,1.96
9116.00,1.95
9115.00,1.95
9114.00,1.94
9113.00,1.94
9112.00,1.93
9111.00,1.93
9110.00,1.92
9109.00,1.91
9108.00,1.91
9107.00,1.90
9106.00,1.89
9105.00,1.89
9104.00,1.88
9103.00,1.88
9102.00,1.87
9101.00,1.87
9100.00,1.86
9099.00,1.85
9098.00,1.85
9097.00,1.84
9096.00,1.84
9095.00,1.83
9094.00,1.82
9093.00,1.81
9092.00,1.80
9091.00,1.79
9090.00,1.79
9089.00,1.78
9088.00,1.77
9087.00,1.76
9086.00,1.76
9085.00,1.76
9084.00,1.76
9083.00,1.76
9082.00,1.76
9081.00,1.76
9080.00,1.76
9079.00,1.76
9078.00,1.76
9077.00,1.77
9076.00,1.77
9075.00,1.77
9074.00,1.78
9073.00,1.78
9072.00,1.78
9071.00,1.79
9070.00,1.79
9069.00,1.80
9068.00,1.81
9067.00,1.81
9066.00,1.82
9065.00,1.83
9064.00,1.83
9063.00,1.84
9062.00,1.84
9061.00,1.85
9060.00,1.85
9059.00,1.86
9058.00,1.86
9057.00,1.87
9056.00,1.87
9055.00,1.88
9054.00,1.88
9053.00,1.88
9052.00,1.89
9051.00,1.89
9050.00,1.90
9049.00,1.90
9048.00,1.91
9047.00,1.92
9046.00,1.92
9045.00,1.93
9044.00,1.93
9043.00,1.94
9042.00,1.95
9041.00,1.95
9040.00,1.96
9039.00,1.96
9038.00,1.96
9037.00,1.96
9036.00,1.95
9035.00,1.95
9034.00,1.94
9033.00,1.92
9032.00,1.91
9031.00,1.90
9030.00,1.88
9029.00,1.86
9028.00,1.85
9027.00,1.83
9026.00,1.82
9025.00,1.80
9024.00,1.78
9023.00,1.76
9022.00,1.74
9021.00,1.72
9020.00,1.70
9019.00,1.68
9018.00,1.66
9017.00,1.64
9016.00,1.62
9015.00,1.60
9014.00,1.58
9013.00,1.57
9012.00,1.55
9011.00,1.54
9010.00,1.53
9009.00,1.52
9008.00,1.52
9007.00,1.52
9006.00,1.52
9005.00,1.52
9004.00,1.53
9003.00,1.53
9002.00,1.53
9001.00,1.54
9000.00,1.54
8999.00,1.54
8998.00,1.54
8997.00,1.54
8996.00,1.54
8995.00,1.54
8994.00,1.54
8993.00,1.53
8992.00,1.53
8991.00,1.53
8990.00,1.52
8989.00,1.52
8988.00,1.51
8987.00,1.50
8986.00,1.49
8985.00,1.48
8984.00,1.47
8983.00,1.46
8982.00,1.44
8981.00,1.43
8980.00,1.41
8979.00,1.39
8978.00,1.37
8977.00,1.36
8976.00,1.34
8975.00,1.33
8974.00,1.32
8973.00,1.30
8972.00,1.29
8971.00,1.29
8970.00,1.28
8969.00,1.27
8968.00,1.27
8967.00,1.26
8966.00,1.26
8965.00,1.26
8964.00,1.26
8963.00,1.26
8962.00,1.26
8961.00,1.26
8960.00,1.27
8959.00,1.28
8958.00,1.29
8957.00,1.30
8956.00,1.31
8955.00,1.33
8954.00,1.34
8953.00,1.35
8952.00,1.37
8951.00,1.38
8950.00,1.39
8949.00,1.40
8948.00,1.40
8947.00,1.41
8946.00,1.41
8945.00,1.42
8944.00,1.42
8943.00,1.42
8942.00,1.42
8941.00,1.42
8940.00,1.42
8939.00,1.42
8938.00,1.42
8937.00,1.42
8936.00,1.42
8935.00,1.42
8934.00,1.42
8933.00,1.43
8932.00,1.43
8931.00,1.43
8930.00,1.43
8929.00,1.43
8928.00,1.43
8927.00,1.43
8926.00,1.44
8925.00,1.44
8924.00,1.45
8923.00,1.45
8922.00,1.46
8921.00,1.47
8920.00,1.48
8919.00,1.49
8918.00,1.51
8917.00,1.53
8916.00,1.55
8915.00,1.57
8914.00,1.59
8913.00,1.61
8912.00,1.64
8911.00,1.66
8910.00,1.69
8909.00,1.72
8908.00,1.74
8907.00,1.76
8906.00,1.78
8905.00,1.80
8904.00,1.82
8903.00,1.84
8902.00,1.85
8901.00,1.87
8900.00,1.88
8899.00,1.89
8898.00,1.90
8897.00,1.91
8896.00,1.92
8895.00,1.93
8894.00,1.94
8893.00,1.95
8892.00,1.96
8891.00,1.97
8890.00,1.97
8889.00,1.97
8888.00,1.97
8887.00,1.97
8886.00,1.97
8885.00,1.97
8884.00,1.96
8883.00,1.96
8882.00,1.95
8881.00,1.95
8880.00,1.95
8879.00,1.96
8878.00,1.96
8877.00,1.96
8876.00,1.96
8875.00,1.97
8874.00,1.97
8873.00,1.97
8872.00,1.97
8871.00,1.97
8870.00,1.97
8869.00,1.97
8868.00,1.96
8867.00,1.96
8866.00,1.95
8865.00,1.95
8864.00,1.94
8863.00,1.94
8862.00,1.93
8861.00,1.93
8860.00,1.92
8859.00,1.92
8858.00,1.91
8857.00,1.90
8856.00,1.89
8855.00,1.88
8854.00,1.86
8853.00,1.85
8852.00,1.83
8851.00,1.81
8850.00,1.79
8849.00,1.77
8848.00,1.75
8847.00,1.74
8846.00,1.72
8845.00,1.71
8844.00,1.70
8843.00,1.69
8842.00,1.68
8841.00,1.67
8840.00,1.66
8839.00,1.65
8838.00,1.65
8837.00,1.64
8836.00,1.63
8835.00,1.62
8834.00,1.62
8833.00,1.61
8832.00,1.60
8831.00,1.59
8830.00,1.59
8829.00,1.58
8828.00,1.58
8827.00,1.57
8826.00,1.57
8825.00,1.57
8824.00,1.57
8823.00,1.58
8822.00,1.58
8821.00,1.58
8820.00,1.59
8819.00,1.59
8818.00,1.60
8817.00,1.61
8816.00,1.61
8815.00,1.62
8814.00,1.63
8813.00,1.64
8812.00,1.65
8811.00,1.66
8810.00,1.67
8809.00,1.68
8808.00,1.69
8807.00,1.71
8806.00,1.72
8805.00,1.73
8804.00,1.75
8803.00,1.76
8802.00,1.77
8801.00,1.79
8800.00,1.80
8799.00,1.81
8798.00,1.81
8797.00,1.82
8796.00,1.82
8795.00,1.82
8794.00,1.83
8793.00,1.82
8792.00,1.82
8791.00,1.82
8790.00,1.82
8789.00,1.81
8788.00,1.81
8787.00,1.81
8786.00,1.80
8785.00,1.79
8784.00,1.79
8783.00,1.78
8782.00,1.77
8781.00,1.76
8780.00,1.75
8779.00,1.74
8778.00,1.73
8777.00,1.72
8776.00,1.71
8775.00,1.71
8774.00,1.70
8773.00,1.70
8772.00,1.69
8771.00,1.69
8770.00,1.69
8769.00,1.70
8768.00,1.70
8767.00,1.71
8766.00,1.71
8765.00,1.72
8764.00,1.72
8763.00,1.73
8762.00,1.73
8761.00,1.74
8760.00,1.74
8759.00,1.75
8758.00,1.75
8757.00,1.76
8756.00,1.76
8755.00,1.77
8754.00,1.78
8753.00,1.79
8752.00,1.80
8751.00,1.82
8750.00,1.83
8749.00,1.84
8748.00,1.85
8747.00,1.87
8746.00,1.88
8745.00,1.89
8744.00,1.90
8743.00,1.90
8742.00,1.91
8741.00,1.91
8740.00,1.91
8739.00,1.91
8738.00,1.90
8737.00,1.90
8736.00,1.89
8735.00,1.89
8734.00,1.88
8733.00,1.88
8732.00,1.87
8731.00,1.87
8730.00,1.86
8729.00,1.86
8728.00,1.85
8727.00,1.84
8726.00,1.84
8725.00,1.83
8724.00,1.82
8723.00,1.81
8722.00,1.80
8721.00,1.79
8720.00,1.78
8719.00,1.77
8718.00,1.77
8717.00,1.76
8716.00,1.76
8715.00,1.76
8714.00,1.76
8713.00,1.77
8712.00,1.77
8711.00,1.78
8710.00,1.79
8709.00,1.80
8708.00,1.82
8707.00,1.83
8706.00,1.85
8705.00,1.86
8704.00,1.87
8703.00,1.89
8702.00,1.90
8701.00,1.91
8700.00,1.92
8699.00,1.93
8698.00,1.94
8697.00,1.95
8696.00,1.96
8695.00,1.96
8694.00,1.97
8693.00,1.97
8692.00,1.98
8691.00,1.98
8690.00,1.98
8689.00,1.98
8688.00,1.97
8687.00,1.97
8686.00,1.97
8685.00,1.96
8684.00,1.95
8683.00,1.94
8682.00,1.93
8681.00,1.92
8680.00,1.91
8679.00,1.90
8678.00,1.89
8677.00,1.87
8676.00,1.86
8675.00,1.85
8674.00,1.84
8673.00,1.83
8672.00,1.81
8671.00,1.80
8670.00,1.79
8669.00,1.78
8668.00,1.77
8667.00,1.76
8666.00,1.76
8665.00,1.75
8664.00,1.75
8663.00,1.75
8662.00,1.75
8661.00,1.75
8660.00,1.75
8659.00,1.75
8658.00,1.76
8657.00,1.76
8656.00,1.76
8655.00,1.76
8654.00,1.77
8653.00,1.77
8652.00,1.78
8651.00,1.78
8650.00,1.79
8649.00,1.79
8648.00,1.80
8647.00,1.80
8646.00,1.81
8645.00,1.82
8644.00,1.83
8643.00,1.84
8642.00,1.84
8641.00,1.85
8640.00,1.86
8639.00,1.87
8638.00,1.88
8637.00,1.88
8636.00,1.89
8635.00,1.89
8634.00,1.89
8633.00,1.89
8632.00,1.89
8631.00,1.89
8630.00,1.88
8629.00,1.88
8628.00,1.88
8627.00,1.87
8626.00,1.87
8625.00,1.86
8624.00,1.86
8623.00,1.85
8622.00,1.85
8621.00,1.84
8620.00,1.84
8619.00,1.83
8618.00,1.82
8617.00,1.81
8616.00,1.80
8615.00,1.79
8614.00,1.78
8613.00,1.76
8612.00,1.75
8611.00,1.73
8610.00,1.72
8609.00,1.71
8608.00,1.70
8607.00,1.69
8606.00,1.68
8605.00,1.67
8604.00,1.66
8603.00,1.65
8602.00,1.64
8601.00,1.63
8600.00,1.63
8599.00,1.62
8598.00,1.61
8597.00,1.61
8596.00,1.60
8595.00,1.60
8594.00,1.60
8593.00,1.60
8592.00,1.60
8591.00,1.60
8590.00,1.60
8589.00,1.60
8588.00,1.60
8587.00,1.61
8586.00,1.61
8585.00,1.61
8584.00,1.62
8583.00,1.62
8582.00,1.62
8581.00,1.62
8580.00,1.62
8579.00,1.62
8578.00,1.62
8577.00,1.62
8576.00,1.63
8575.00,1.63
8574.00,1.63
8573.00,1.63
8572.00,1.64
8571.00,1.64
8570.00,1.64
8569.00,1.63
8568.00,1.63
8567.00,1.63
8566.00,1.62
8565.00,1.62
8564.00,1.61
8563.00,1.60
8562.00,1.60
8561.00,1.59
8560.00,1.59
8559.00,1.59
8558.00,1.58
8557.00,1.58
8556.00,1.58
8555.00,1.58
8554.00,1.58
8553.00,1.58
8552.00,1.59
8551.00,1.59
8550.00,1.59
8549.00,1.60
8548.00,1.60
8547.00,1.61
8546.00,1.62
8545.00,1.63
8544.00,1.64
8543.00,1.65
8542.00,1.67
8541.00,1.69
8540.00,1.70
8539.00,1.72
8538.00,1.74
8537.00,1.76
8536.00,1.78
8535.00,1.79
8534.00,1.81
8533.00,1.83
8532.00,1.85
8531.00,1.86
8530.00,1.88
8529.00,1.89
8528.00,1.91
8527.00,1.92
8526.00,1.94
8525.00,1.95
8524.00,1.96
8523.00,1.97
8522.00,1.97
8521.00,1.98
8520.00,1.98
8519.00,1.98
8518.00,1.97
8517.00,1.97
8516.00,1.96
8515.00,1.95
8514.00,1.94
8513.00,1.92
8512.00,1.91
8511.00,1.90
8510.00,1.89
8509.00,1.88
8508.00,1.86
8507.00,1.85
8506.00,1.84
8505.00,1.83
8504.00,1.82
8503.00,1.81
8502.00,1.80
8501.00,1.79
8500.00,1.78
8499.00,1.78
8498.00,1.77
8497.00,1.76
8496.00,1.76
8495.00,1.76
8494.00,1.75
8493.00,1.75
8492.00,1.75
8491.00,1.75
8490.00,1.76
8489.00,1.76
8488.00,1.76
8487.00,1.77
8486.00,1.77
8485.00,1.78
8484.00,1.79
8483.00,1.79
8482.00,1.80
8481.00,1.80
8480.00,1.80
8479.00,1.81
8478.00,1.81
8477.00,1.82
8476.00,1.82
8475.00,1.82
8474.00,1.82
8473.00,1.83
8472.00,1.83
8471.00,1.83
8470.00,1.83
8469.00,1.83
8468.00,1.84
8467.00,1.84
8466.00,1.84
8465.00,1.85
8464.00,1.85
8463.00,1.85
8462.00,1.85
8461.00,1.85
8460.00,1.85
8459.00,1.86
8458.00,1.86
8457.00,1.86
8456.00,1.86
8455.00,1.86
8454.00,1.87
8453.00,1.87
8452.00,1.87
8451.00,1.88
8450.00,1.88
8449.00,1.88
8448.00,1.88
8447.00,1.88
8446.00,1.88
8445.00,1.89
8444.00,1.89
8443.00,1.88
8442.00,1.88
8441.00,1.88
8440.00,1.88
8439.00,1.87
8438.00,1.87
8437.00,1.87
8436.00,1.87
8435.00,1.86
8434.00,1.86
8433.00,1.86
8432.00,1.86
8431.00,1.85
8430.00,1.85
8429.00,1.84
8428.00,1.83
8427.00,1.82
8426.00,1.81
8425.00,1.80
8424.00,1.78
8423.00,1.77
8422.00,1.76
8421.00,1.74
8420.00,1.73
8419.00,1.72
8418.00,1.70
8417.00,1.69
8416.00,1.68
8415.00,1.67
8414.00,1.66
8413.00,1.65
8412.00,1.64
8411.00,1.63
8410.00,1.62
8409.00,1.61
8408.00,1.60
8407.00,1.60
8406.00,1.59
8405.00,1.59
8404.00,1.59
8403.00,1.58
8402.00,1.58
8401.00,1.59
8400.00,1.59
8399.00,1.60
8398.00,1.60
8397.00,1.61
8396.00,1.62
8395.00,1.63
8394.00,1.65
8393.00,1.66
8392.00,1.67
8391.00,1.68
8390.00,1.69
8389.00,1.70
8388.00,1.72
8387.00,1.73
8386.00,1.74
8385.00,1.75
8384.00,1.76
8383.00,1.76
8382.00,1.77
8381.00,1.78
8380.00,1.79
8379.00,1.80
8378.00,1.81
8377.00,1.82
8376.00,1.83
8375.00,1.84
8374.00,1.86
8373.00,1.87
8372.00,1.88
8371.00,1.89
8370.00,1.90
8369.00,1.90
8368.00,1.91
8367.00,1.92
8366.00,1.92
8365.00,1.93
8364.00,1.93
8363.00,1.94
8362.00,1.94
8361.00,1.94
8360.00,1.94
8359.00,1.94
8358.00,1.94
8357.00,1.94
8356.00,1.93
8355.00,1.92
8354.00,1.91
8353.00,1.90
8352.00,1.89
8351.00,1.87
8350.00,1.85
8349.00,1.83
8348.00,1.81
8347.00,1.79
8346.00,1.77
8345.00,1.74
8344.00,1.72
8343.00,1.70
8342.00,1.67
8341.00,1.65
8340.00,1.63
8339.00,1.61
8338.00,1.59
8337.00,1.57
8336.00,1.55
8335.00,1.53
8334.00,1.52
8333.00,1.50
8332.00,1.49
8331.00,1.48
8330.00,1.48
8329.00,1.47
8328.00,1.47
8327.00,1.47
8326.00,1.47
8325.00,1.47
8324.00,1.47
8323.00,1.48
8322.00,1.48
8321.00,1.49
8320.00,1.50
8319.00,1.51
8318.00,1.51
8317.00,1.52
8316.00,1.53
8315.00,1.55
8314.00,1.56
8313.00,1.57
8312.00,1.58
8311.00,1.59
8310.00,1.60
8309.00,1.61
8308.00,1.62
8307.00,1.63
8306.00,1.64
8305.00,1.64
8304.00,1.65
8303.00,1.65
8302.00,1.66
8301.00,1.66
8300.00,1.67
8299.00,1.68
8298.00,1.68
8297.00,1.69
8296.00,1.69
8295.00,1.70
8294.00,1.70
8293.00,1.71
8292.00,1.71
8291.00,1.71
8290.00,1.72
8289.00,1.72
8288.00,1.71
8287.00,1.71
8286.00,1.71
8285.00,1.71
8284.00,1.71
8283.00,1.71
8282.00,1.70
8281.00,1.70
8280.00,1.70
8279.00,1.70
8278.00,1.70
8277.00,1.70
8276.00,1.69
8275.00,1.69
8274.00,1.68
8273.00,1.68
8272.00,1.67
8271.00,1.66
8270.00,1.66
8269.00,1.65
8268.00,1.65
8267.00,1.65
8266.00,1.64
8265.00,1.64
8264.00,1.64
8263.00,1.64
8262.00,1.64
8261.00,1.64
8260.00,1.65
8259.00,1.65
8258.00,1.65
8257.00,1.66
8256.00,1.66
8255.00,1.66
8254.00,1.66
8253.00,1.67
8252.00,1.67
8251.00,1.68
8250.00,1.68
8249.00,1.69
8248.00,1.70
8247.00,1.71
8246.00,1.72
8245.00,1.73
8244.00,1.74
8243.00,1.75
8242.00,1.76
8241.00,1.77
8240.00,1.77
8239.00,1.78
8238.00,1.78
8237.00,1.78
8236.00,1.79
8235.00,1.79
8234.00,1.79
8233.00,1.79
8232.00,1.79
8231.00,1.79
8230.00,1.79
8229.00,1.79
8228.00,1.78
8227.00,1.78
8226.00,1.77
8225.00,1.77
8224.00,1.76
8223.00,1.75
8222.00,1.74
8221.00,1.73
8220.00,1.72
8219.00,1.70
8218.00,1.69
8217.00,1.68
8216.00,1.67
8215.00,1.66
8214.00,1.65
8213.00,1.65
8212.00,1.64
8211.00,1.63
8210.00,1.63
8209.00,1.62
8208.00,1.61
8207.00,1.61
8206.00,1.60
8205.00,1.60
8204.00,1.59
8203.00,1.59
8202.00,1.59
8201.00,1.59
8200.00,1.60
8199.00,1.60
8198.00,1.61
8197.00,1.61
8196.00,1.62
8195.00,1.63
8194.00,1.64
8193.00,1.65
8192.00,1.66
8191.00,1.67
8190.00,1.69
8189.00,1.70
8188.00,1.71
8187.00,1.73
8186.00,1.74
8185.00,1.76
8184.00,1.78
8183.00,1.80
8182.00,1.81
8181.00,1.83
8180.00,1.85
8179.00,1.87
8178.00,1.89
8177.00,1.91
8176.00,1.93
8175.00,1.95
8174.00,1.97
8173.00,1.99
8172.00,2.00
8171.00,2.02
8170.00,2.03
8169.00,2.05
8168.00,2.06
8167.00,2.07
8166.00,2.08
8165.00,2.09
8164.00,2.09
8163.00,2.09
8162.00,2.09
8161.00,2.09
8160.00,2.08
8159.00,2.08
8158.00,2.07
8157.00,2.06
8156.00,2.05
8155.00,2.03
8154.00,2.02
8153.00,2.01
8152.00,1.99
8151.00,1.98
8150.00,1.96
8149.00,1.95
8148.00,1.94
8147.00,1.92
8146.00,1.91
8145.00,1.90
8144.00,1.89
8143.00,1.88
8142.00,1.87
8141.00,1.86
8140.00,1.85
8139.00,1.85
8138.00,1.84
8137.00,1.84
8136.00,1.84
8135.00,1.85
8134.00,1.85
8133.00,1.86
8132.00,1.87
8131.00,1.88
8130.00,1.89
8129.00,1.91
8128.00,1.92
8127.00,1.93
8126.00,1.95
8125.00,1.96
8124.00,1.97
8123.00,1.99
8122.00,2.00
8121.00,2.01
8120.00,2.02
8119.00,2.03
8118.00,2.04
8117.00,2.05
8116.00,2.06
8115.00,2.07
8114.00,2.08
8113.00,2.08
8112.00,2.09
8111.00,2.09
8110.00,2.10
8109.00,2.10
8108.00,2.10
8107.00,2.10
8106.00,2.10
8105.00,2.09
8104.00,2.09
8103.00,2.08
8102.00,2.08
8101.00,2.07
8100.00,2.07
8099.00,2.06
8098.00,2.05
8097.00,2.04
8096.00,2.04
8095.00,2.02
8094.00,2.01
8093.00,2.00
8092.00,1.99
8091.00,1.97
8090.00,1.96
8089.00,1.94
8088.00,1.92
8087.00,1.91
8086.00,1.89
8085.00,1.87
8084.00,1.86
8083.00,1.85
8082.00,1.84
8081.00,1.83
8080.00,1.82
8079.00,1.81
8078.00,1.81
8077.00,1.80
8076.00,1.80
8075.00,1.79
8074.00,1.79
8073.00,1.79
8072.00,1.79
8071.00,1.79
8070.00,1.79
8069.00,1.79
8068.00,1.79
8067.00,1.80
8066.00,1.81
8065.00,1.82
8064.00,1.83
8063.00,1.84
8062.00,1.86
8061.00,1.87
8060.00,1.88
8059.00,1.89
8058.00,1.90
8057.00,1.91
8056.00,1.91
8055.00,1.92
8054.00,1.92
8053.00,1.92
8052.00,1.91
8051.00,1.91
8050.00,1.91
8049.00,1.90
8048.00,1.89
8047.00,1.89
8046.00,1.88
8045.00,1.87
8044.00,1.86
8043.00,1.86
8042.00,1.85
8041.00,1.84
8040.00,1.84
8039.00,1.83
8038.00,1.82
8037.00,1.82
8036.00,1.81
8035.00,1.80
8034.00,1.80
8033.00,1.80
8032.00,1.79
8031.00,1.80
8030.00,1.80
8029.00,1.80
8028.00,1.81
8027.00,1.81
8026.00,1.82
8025.00,1.83
8024.00,1.84
8023.00,1.85
8022.00,1.86
8021.00,1.87
8020.00,1.88
8019.00,1.89
8018.00,1.90
8017.00,1.91
8016.00,1.92
8015.00,1.93
8014.00,1.93
8013.00,1.94
8012.00,1.94
8011.00,1.95
8010.00,1.95
8009.00,1.95
8008.00,1.95
8007.00,1.96
8006.00,1.96
8005.00,1.96
8004.00,1.95
8003.00,1.95
8002.00,1.95
8001.00,1.95
8000.00,1.95
7999.00,1.94
7998.00,1.94
7997.00,1.93
7996.00,1.93
7995.00,1.93
7994.00,1.92
7993.00,1.92
7992.00,1.91
7991.00,1.91
7990.00,1.90
7989.00,1.89
7988.00,1.89
7987.00,1.88
7986.00,1.88
7985.00,1.87
7984.00,1.87
7983.00,1.86
7982.00,1.85
7981.00,1.85
7980.00,1.84
7979.00,1.84
7978.00,1.83
7977.00,1.82
7976.00,1.82
7975.00,1.81
7974.00,1.80
7973.00,1.80
7972.00,1.79
7971.00,1.78
7970.00,1.78
7969.00,1.77
7968.00,1.77
7967.00,1.76
7966.00,1.76
7965.00,1.76
7964.00,1.76
7963.00,1.76
7962.00,1.76
7961.00,1.76
7960.00,1.77
7959.00,1.77
7958.00,1.77
7957.00,1.78
7956.00,1.78
7955.00,1.79
7954.00,1.80
7953.00,1.80
7952.00,1.81
7951.00,1.82
7950.00,1.82
7949.00,1.83
7948.00,1.84
7947.00,1.85
7946.00,1.85
7945.00,1.86
7944.00,1.87
7943.00,1.87
7942.00,1.88
7941.00,1.88
7940.00,1.89
7939.00,1.90
7938.00,1.90
7937.00,1.90
7936.00,1.91
7935.00,1.91
7934.00,1.91
7933.00,1.91
7932.00,1.91
7931.00,1.91
7930.00,1.91
7929.00,1.91
7928.00,1.90
7927.00,1.90
7926.00,1.90
7925.00,1.90
7924.00,1.89
7923.00,1.89
7922.00,1.89
7921.00,1.89
7920.00,1.89
7919.00,1.88
7918.00,1.88
7917.00,1.88
7916.00,1.88
7915.00,1.88
7914.00,1.88
7913.00,1.88
7912.00,1.88
7911.00,1.88
7910.00,1.88
7909.00,1.89
7908.00,1.89
7907.00,1.89
7906.00,1.90
7905.00,1.90
7904.00,1.91
7903.00,1.92
7902.00,1.92
7901.00,1.93
7900.00,1.94
7899.00,1.95
7898.00,1.95
7897.00,1.96
7896.00,1.97
7895.00,1.97
7894.00,1.98
7893.00,1.99
7892.00,1.99
7891.00,2.00
7890.00,2.00
7889.00,2.01
7888.00,2.01
7887.00,2.01
7886.00,2.01
7885.00,2.01
7884.00,2.01
7883.00,2.01
7882.00,2.00
7881.00,2.00
7880.00,1.99
7879.00,1.98
7878.00,1.97
7877.00,1.96
7876.00,1.95
7875.00,1.94
7874.00,1.93
7873.00,1.91
7872.00,1.90
7871.00,1.88
7870.00,1.87
7869.00,1.86
7868.00,1.84
7867.00,1.83
7866.00,1.81
7865.00,1.80
7864.00,1.78
7863.00,1.77
7862.00,1.76
7861.00,1.75
7860.00,1.74
7859.00,1.73
7858.00,1.72
7857.00,1.72
7856.00,1.72
7855.00,1.72
7854.00,1.72
7853.00,1.72
7852.00,1.72
7851.00,1.73
7850.00,1.73
7849.00,1.74
7848.00,1.75
7847.00,1.76
7846.00,1.77
7845.00,1.78
7844.00,1.79
7843.00,1.81
7842.00,1.82
7841.00,1.84
7840.00,1.85
7839.00,1.86
7838.00,1.88
7837.00,1.89
7836.00,1.90
7835.00,1.91
7834.00,1.92
7833.00,1.93
7832.00,1.94
7831.00,1.95
7830.00,1.96
7829.00,1.97
7828.00,1.97
7827.00,1.98
7826.00,1.98
7825.00,1.99
7824.00,1.99
7823.00,1.99
7822.00,1.99
7821.00,1.99
7820.00,1.99
7819.00,1.99
7818.00,1.99
7817.00,1.99
7816.00,1.98
7815.00,1.98
7814.00,1.98
7813.00,1.97
7812.00,1.97
7811.00,1.97
7810.00,1.96
7809.00,1.96
7808.00,1.95
7807.00,1.95
7806.00,1.95
7805.00,1.94
7804.00,1.94
7803.00,1.94
7802.00,1.94
7801.00,1.94
7800.00,1.94
7799.00,1.94
7798.00,1.94
7797.00,1.94
7796.00,1.94
7795.00,1.94
7794.00,1.94
7793.00,1.94
7792.00,1.94
7791.00,1.95
7790.00,1.95
7789.00,1.95
7788.00,1.95
7787.00,1.95
7786.00,1.95
7785.00,1.96
7784.00,1.96
7783.00,1.96
7782.00,1.96
7781.00,1.97
7780.00,1.97
7779.00,1.97
7778.00,1.97
7777.00,1.96
7776.00,1.96
7775.00,1.96
7774.00,1.96
7773.00,1.95
7772.00,1.95
7771.00,1.94
7770.00,1.94
7769.00,1.93
7768.00,1.93
7767.00,1.92
7766.00,1.92
7765.00,1.91
7764.00,1.91
7763.00,1.90
7762.00,1.90
7761.00,1.89
7760.00,1.89
7759.00,1.89
7758.00,1.88
7757.00,1.88
7756.00,1.88
7755.00,1.88
7754.00,1.89
7753.00,1.89
7752.00,1.90
7751.00,1.90
7750.00,1.91
7749.00,1.91
7748.00,1.92
7747.00,1.93
7746.00,1.93
7745.00,1.94
7744.00,1.94
7743.00,1.95
7742.00,1.95
7741.00,1.96
7740.00,1.97
7739.00,1.97
7738.00,1.98
7737.00,1.98
7736.00,1.99
7735.00,2.00
7734.00,2.00
7733.00,2.01
7732.00,2.01
7731.00,2.01
7730.00,2.02
7729.00,2.02
7728.00,2.02
7727.00,2.01
7726.00,2.01
7725.00,2.01
7724.00,2.01
7723.00,2.01
7722.00,2.01
7721.00,2.01
7720.00,2.01
7719.00,2.01
7718.00,2.01
7717.00,2.02
7716.00,2.02
7715.00,2.03
7714.00,2.03
7713.00,2.03
7712.00,2.04
7711.00,2.04
7710.00,2.05
7709.00,2.05
7708.00,2.05
7707.00,2.05
7706.00,2.05
7705.00,2.05
7704.00,2.06
7703.00,2.06
7702.00,2.06
7701.00,2.06
7700.00,2.06
7699.00,2.06
7698.00,2.06
7697.00,2.07
7696.00,2.07
7695.00,2.07
7694.00,2.07
7693.00,2.08
7692.00,2.08
7691.00,2.08
7690.00,2.08
7689.00,2.08
7688.00,2.07
7687.00,2.07
7686.00,2.07
7685.00,2.07
7684.00,2.06
7683.00,2.06
7682.00,2.06
7681.00,2.06
7680.00,2.06
7679.00,2.06
7678.00,2.07
7677.00,2.07
7676.00,2.07
7675.00,2.08
7674.00,2.08
7673.00,2.08
7672.00,2.09
7671.00,2.09
7670.00,2.09
7669.00,2.09
7668.00,2.09
7667.00,2.09
7666.00,2.09
7665.00,2.09
7664.00,2.09
7663.00,2.09
7662.00,2.09
7661.00,2.09
7660.00,2.09
7659.00,2.09
7658.00,2.09
7657.00,2.09
7656.00,2.09
7655.00,2.10
7654.00,2.10
7653.00,2.10
7652.00,2.10
7651.00,2.10
7650.00,2.10
7649.00,2.10
7648.00,2.09
7647.00,2.09
7646.00,2.08
7645.00,2.08
7644.00,2.08
7643.00,2.07
7642.00,2.07
7641.00,2.06
7640.00,2.06
7639.00,2.06
7638.00,2.06
7637.00,2.06
7636.00,2.06
7635.00,2.06
7634.00,2.05
7633.00,2.05
7632.00,2.05
7631.00,2.05
7630.00,2.05
7629.00,2.05
7628.00,2.05
7627.00,2.05
7626.00,2.04
7625.00,2.04
7624.00,2.04
7623.00,2.03
7622.00,2.03
7621.00,2.03
7620.00,2.03
7619.00,2.03
7618.00,2.03
7617.00,2.03
7616.00,2.03
7615.00,2.02
7614.00,2.02
7613.00,2.02
7612.00,2.02
7611.00,2.01
7610.00,2.01
7609.00,2.00
7608.00,1.99
7607.00,1.99
7606.00,1.98
7605.00,1.97
7604.00,1.96
7603.00,1.95
7602.00,1.95
7601.00,1.94
7600.00,1.93
7599.00,1.92
7598.00,1.92
7597.00,1.91
7596.00,1.91
7595.00,1.90
7594.00,1.90
7593.00,1.90
7592.00,1.89
7591.00,1.89
7590.00,1.89
7589.00,1.88
7588.00,1.88
7587.00,1.88
7586.00,1.88
7585.00,1.88
7584.00,1.88
7583.00,1.88
7582.00,1.88
7581.00,1.88
7580.00,1.88
7579.00,1.88
7578.00,1.89
7577.00,1.89
7576.00,1.89
7575.00,1.89
7574.00,1.90
7573.00,1.90
7572.00,1.90
7571.00,1.90
7570.00,1.90
7569.00,1.91
7568.00,1.91
7567.00,1.91
7566.00,1.92
7565.00,1.93
7564.00,1.93
7563.00,1.94
7562.00,1.95
7561.00,1.96
7560.00,1.97
7559.00,1.98
7558.00,1.99
7557.00,2.01
7556.00,2.02
7555.00,2.03
7554.00,2.04
7553.00,2.06
7552.00,2.07
7551.00,2.08
7550.00,2.10
7549.00,2.11
7548.00,2.13
7547.00,2.14
7546.00,2.16
7545.00,2.17
7544.00,2.18
7543.00,2.20
7542.00,2.21
7541.00,2.22
7540.00,2.22
7539.00,2.23
7538.00,2.24
7537.00,2.24
7536.00,2.25
7535.00,2.25
7534.00,2.25
7533.00,2.25
7532.00,2.25
7531.00,2.25
7530.00,2.25
7529.00,2.25
7528.00,2.24
7527.00,2.24
7526.00,2.24
7525.00,2.24
7524.00,2.23
7523.00,2.23
7522.00,2.22
7521.00,2.22
7520.00,2.22
7519.00,2.21
7518.00,2.21
7517.00,2.20
7516.00,2.20
7515.00,2.20
7514.00,2.19
7513.00,2.19
7512.00,2.19
7511.00,2.18
7510.00,2.18
7509.00,2.17
7508.00,2.17
7507.00,2.16
7506.00,2.16
7505.00,2.15
7504.00,2.14
7503.00,2.14
7502.00,2.13
7501.00,2.12
7500.00,2.11
7499.00,2.10
7498.00,2.09
7497.00,2.08
7496.00,2.07
7495.00,2.06
7494.00,2.05
7493.00,2.03
7492.00,2.02
7491.00,2.01
7490.00,2.00
7489.00,1.99
7488.00,1.98
7487.00,1.97
7486.00,1.96
7485.00,1.95
7484.00,1.94
7483.00,1.94
7482.00,1.93
7481.00,1.93
7480.00,1.92
7479.00,1.92
7478.00,1.92
7477.00,1.92
7476.00,1.92
7475.00,1.92
7474.00,1.92
7473.00,1.92
7472.00,1.92
7471.00,1.92
7470.00,1.93
7469.00,1.93
7468.00,1.93
7467.00,1.93
7466.00,1.94
7465.00,1.94
7464.00,1.95
7463.00,1.95
7462.00,1.95
7461.00,1.96
7460.00,1.96
7459.00,1.97
7458.00,1.97
7457.00,1.97
7456.00,1.97
7455.00,1.97
7454.00,1.97
7453.00,1.97
7452.00,1.97
7451.00,1.97
7450.00,1.96
7449.00,1.96
7448.00,1.96
7447.00,1.96
7446.00,1.96
7445.00,1.96
7444.00,1.97
7443.00,1.97
7442.00,1.97
7441.00,1.98
7440.00,1.98
7439.00,1.98
7438.00,1.99
7437.00,1.99
7436.00,1.99
7435.00,1.99
7434.00,1.99
7433.00,1.99
7432.00,1.99
7431.00,1.99
7430.00,1.99
7429.00,1.99
7428.00,1.99
7427.00,2.00
7426.00,2.00
7425.00,2.00
7424.00,2.00
7423.00,2.00
7422.00,2.00
7421.00,2.00
7420.00,2.00
7419.00,1.99
7418.00,1.99
7417.00,1.99
7416.00,1.98
7415.00,1.98
7414.00,1.97
7413.00,1.96
7412.00,1.96
7411.00,1.95
7410.00,1.95
7409.00,1.94
7408.00,1.93
7407.00,1.93
7406.00,1.92
7405.00,1.91
7404.00,1.91
7403.00,1.90
7402.00,1.90
7401.00,1.90
7400.00,1.89
7399.00,1.89
7398.00,1.89
7397.00,1.89
7396.00,1.89
7395.00,1.89
7394.00,1.89
7393.00,1.89
7392.00,1.89
7391.00,1.89
7390.00,1.89
7389.00,1.89
7388.00,1.89
7387.00,1.89
7386.00,1.89
7385.00,1.90
7384.00,1.90
7383.00,1.91
7382.00,1.91
7381.00,1.92
7380.00,1.93
7379.00,1.93
7378.00,1.94
7377.00,1.95
7376.00,1.95
7375.00,1.96
7374.00,1.96
7373.00,1.97
7372.00,1.97
7371.00,1.98
7370.00,1.98
7369.00,1.99
7368.00,1.99
7367.00,2.00
7366.00,2.01
7365.00,2.02
7364.00,2.03
7363.00,2.03
7362.00,2.04
7361.00,2.05
7360.00,2.06
7359.00,2.07
7358.00,2.07
7357.00,2.08
7356.00,2.09
7355.00,2.09
7354.00,2.09
7353.00,2.10
7352.00,2.10
7351.00,2.10
7350.00,2.10
7349.00,2.10
7348.00,2.11
7347.00,2.11
7346.00,2.11
7345.00,2.11
7344.00,2.12
7343.00,2.12
7342.00,2.12
7341.00,2.12
7340.00,2.12
7339.00,2.11
7338.00,2.11
7337.00,2.11
7336.00,2.10
7335.00,2.10
7334.00,2.10
7333.00,2.09
7332.00,2.09
7331.00,2.09
7330.00,2.08
7329.00,2.08
7328.00,2.08
7327.00,2.08
7326.00,2.08
7325.00,2.08
7324.00,2.08
7323.00,2.09
7322.00,2.09
7321.00,2.09
7320.00,2.09
7319.00,2.09
7318.00,2.09
7317.00,2.10
7316.00,2.10
7315.00,2.10
7314.00,2.10
7313.00,2.10
7312.00,2.10
7311.00,2.10
7310.00,2.10
7309.00,2.10
7308.00,2.09
7307.00,2.09
7306.00,2.09
7305.00,2.09
7304.00,2.09
7303.00,2.09
7302.00,2.09
7301.00,2.09
7300.00,2.08
7299.00,2.08
7298.00,2.07
7297.00,2.07
7296.00,2.06
7295.00,2.06
7294.00,2.05
7293.00,2.05
7292.00,2.04
7291.00,2.04
7290.00,2.04
7289.00,2.04
7288.00,2.03
7287.00,2.03
7286.00,2.03
7285.00,2.03
7284.00,2.04
7283.00,2.04
7282.00,2.04
7281.00,2.04
7280.00,2.05
7279.00,2.05
7278.00,2.05
7277.00,2.05
7276.00,2.05
7275.00,2.05
7274.00,2.05
7273.00,2.05
7272.00,2.05
7271.00,2.06
7270.00,2.06
7269.00,2.06
7268.00,2.07
7267.00,2.07
7266.00,2.07
7265.00,2.07
7264.00,2.07
7263.00,2.07
7262.00,2.07
7261.00,2.07
7260.00,2.07
7259.00,2.07
7258.00,2.06
7257.00,2.06
7256.00,2.05
7255.00,2.04
7254.00,2.03
7253.00,2.03
7252.00,2.02
7251.00,2.01
7250.00,2.01
7249.00,2.00
7248.00,2.00
7247.00,1.99
7246.00,1.99
7245.00,1.98
7244.00,1.98
7243.00,1.97
7242.00,1.96
7241.00,1.95
7240.00,1.95
7239.00,1.94
7238.00,1.93
7237.00,1.92
7236.00,1.91
7235.00,1.91
7234.00,1.90
7233.00,1.89
7232.00,1.89
7231.00,1.88
7230.00,1.88
7229.00,1.88
7228.00,1.87
7227.00,1.87
7226.00,1.87
7225.00,1.86
7224.00,1.86
7223.00,1.86
7222.00,1.85
7221.00,1.85
7220.00,1.84
7219.00,1.83
7218.00,1.83
7217.00,1.82
7216.00,1.82
7215.00,1.81
7214.00,1.81
7213.00,1.80
7212.00,1.80
7211.00,1.79
7210.00,1.78
7209.00,1.78
7208.00,1.77
7207.00,1.76
7206.00,1.76
7205.00,1.75
7204.00,1.75
7203.00,1.74
7202.00,1.74
7201.00,1.73
7200.00,1.73
7199.00,1.72
7198.00,1.72
7197.00,1.72
7196.00,1.71
7195.00,1.71
7194.00,1.71
7193.00,1.70
7192.00,1.70
7191.00,1.70
7190.00,1.69
7189.00,1.69
7188.00,1.69
7187.00,1.69
7186.00,1.69
7185.00,1.69
7184.00,1.70
7183.00,1.70
7182.00,1.70
7181.00,1.71
7180.00,1.71
7179.00,1.71
7178.00,1.72
7177.00,1.72
7176.00,1.73
7175.00,1.73
7174.00,1.73
7173.00,1.74
7172.00,1.74
7171.00,1.75
7170.00,1.75
7169.00,1.76
7168.00,1.77
7167.00,1.78
7166.00,1.79
7165.00,1.80
7164.00,1.80
7163.00,1.81
7162.00,1.82
7161.00,1.83
7160.00,1.83
7159.00,1.84
7158.00,1.85
7157.00,1.85
7156.00,1.86
7155.00,1.86
7154.00,1.87
7153.00,1.87
7152.00,1.87
7151.00,1.88
7150.00,1.88
7149.00,1.88
7148.00,1.88
7147.00,1.88
7146.00,1.88
7145.00,1.87
7144.00,1.87
7143.00,1.86
7142.00,1.86
7141.00,1.85
7140.00,1.84
7139.00,1.83
7138.00,1.82
7137.00,1.81
7136.00,1.80
7135.00,1.79
7134.00,1.78
7133.00,1.77
7132.00,1.76
7131.00,1.75
7130.00,1.74
7129.00,1.73
7128.00,1.72
7127.00,1.72
7126.00,1.71
7125.00,1.70
7124.00,1.69
7123.00,1.68
7122.00,1.68
7121.00,1.67
7120.00,1.67
7119.00,1.66
7118.00,1.66
7117.00,1.66
7116.00,1.66
7115.00,1.67
7114.00,1.67
7113.00,1.68
7112.00,1.68
7111.00,1.69
7110.00,1.69
7109.00,1.70
7108.00,1.71
7107.00,1.71
7106.00,1.72
7105.00,1.72
7104.00,1.73
7103.00,1.73
7102.00,1.74
7101.00,1.74
7100.00,1.74
7099.00,1.75
7098.00,1.75
7097.00,1.75
7096.00,1.75
7095.00,1.76
7094.00,1.76
7093.00,1.76
7092.00,1.75
7091.00,1.75
7090.00,1.74
7089.00,1.73
7088.00,1.72
7087.00,1.71
7086.00,1.70
7085.00,1.69
7084.00,1.68
7083.00,1.66
7082.00,1.65
7081.00,1.64
7080.00,1.63
7079.00,1.62
7078.00,1.60
7077.00,1.59
7076.00,1.58
7075.00,1.57
7074.00,1.56
7073.00,1.55
7072.00,1.55
7071.00,1.54
7070.00,1.53
7069.00,1.52
7068.00,1.51
7067.00,1.50
7066.00,1.50
7065.00,1.49
7064.00,1.48
7063.00,1.48
7062.00,1.48
7061.00,1.48
7060.00,1.48
7059.00,1.48
7058.00,1.48
7057.00,1.49
7056.00,1.49
7055.00,1.49
7054.00,1.49
7053.00,1.49
7052.00,1.50
7051.00,1.50
7050.00,1.50
7049.00,1.50
7048.00,1.50
7047.00,1.50
7046.00,1.50
7045.00,1.50
7044.00,1.50
7043.00,1.49
7042.00,1.49
7041.00,1.49
7040.00,1.49
7039.00,1.49
7038.00,1.49
7037.00,1.49
7036.00,1.49
7035.00,1.49
7034.00,1.48
7033.00,1.48
7032.00,1.47
7031.00,1.47
7030.00,1.46
7029.00,1.46
7028.00,1.45
7027.00,1.44
7026.00,1.43
7025.00,1.43
7024.00,1.42
7023.00,1.41
7022.00,1.41
7021.00,1.40
7020.00,1.40
7019.00,1.40
7018.00,1.39
7017.00,1.39
7016.00,1.39
7015.00,1.39
7014.00,1.39
7013.00,1.39
7012.00,1.39
7011.00,1.39
7010.00,1.39
7009.00,1.39
7008.00,1.39
7007.00,1.40
7006.00,1.40
7005.00,1.40
7004.00,1.41
7003.00,1.41
7002.00,1.42
7001.00,1.43
7000.00,1.43
6999.00,1.44
6998.00,1.45
6997.00,1.46
6996.00,1.47
6995.00,1.47
6994.00,1.48
6993.00,1.49
6992.00,1.49
6991.00,1.50
6990.00,1.50
6989.00,1.51
6988.00,1.51
6987.00,1.51
6986.00,1.51
6985.00,1.51
6984.00,1.51
6983.00,1.50
6982.00,1.50
6981.00,1.49
6980.00,1.49
6979.00,1.48
6978.00,1.47
6977.00,1.47
6976.00,1.46
6975.00,1.45
6974.00,1.44
6973.00,1.44
6972.00,1.43
6971.00,1.42
6970.00,1.41
6969.00,1.40
6968.00,1.39
6967.00,1.38
6966.00,1.37
6965.00,1.36
6964.00,1.35
6963.00,1.35
6962.00,1.34
6961.00,1.34
6960.00,1.33
6959.00,1.33
6958.00,1.33
6957.00,1.33
6956.00,1.33
6955.00,1.33
6954.00,1.34
6953.00,1.34
6952.00,1.34
6951.00,1.34
6950.00,1.34
6949.00,1.35
6948.00,1.35
6947.00,1.36
6946.00,1.36
6945.00,1.37
6944.00,1.37
6943.00,1.38
6942.00,1.39
6941.00,1.39
6940.00,1.40
6939.00,1.41
6938.00,1.41
6937.00,1.41
6936.00,1.41
6935.00,1.41
6934.00,1.41
6933.00,1.41
6932.00,1.41
6931.00,1.41
6930.00,1.41
6929.00,1.41
6928.00,1.41
6927.00,1.41
6926.00,1.41
6925.00,1.41
6924.00,1.41
6923.00,1.41
6922.00,1.41
6921.00,1.41
6920.00,1.41
6919.00,1.41
6918.00,1.41
6917.00,1.40
6916.00,1.40
6915.00,1.40
6914.00,1.40
6913.00,1.40
6912.00,1.40
6911.00,1.40
6910.00,1.40
6909.00,1.40
6908.00,1.41
6907.00,1.41
6906.00,1.42
6905.00,1.42
6904.00,1.42
6903.00,1.43
6902.00,1.43
6901.00,1.44
6900.00,1.44
6899.00,1.44
6898.00,1.44
6897.00,1.45
6896.00,1.45
6895.00,1.45
6894.00,1.45
6893.00,1.45
6892.00,1.45
6891.00,1.46
6890.00,1.46
6889.00,1.46
6888.00,1.47
6887.00,1.47
6886.00,1.47
6885.00,1.47
6884.00,1.47
6883.00,1.47
6882.00,1.48
6881.00,1.48
6880.00,1.48
6879.00,1.48
6878.00,1.48
6877.00,1.48
6876.00,1.48
6875.00,1.48
6874.00,1.48
6873.00,1.48
6872.00,1.48
6871.00,1.48
6870.00,1.48
6869.00,1.48
6868.00,1.49
6867.00,1.49
6866.00,1.49
6865.00,1.49
6864.00,1.50
6863.00,1.50
6862.00,1.50
6861.00,1.50
6860.00,1.50
6859.00,1.50
6858.00,1.50
6857.00,1.50
6856.00,1.51
6855.00,1.51
6854.00,1.51
6853.00,1.51
6852.00,1.51
6851.00,1.51
6850.00,1.51
6849.00,1.51
6848.00,1.51
6847.00,1.51
6846.00,1.51
6845.00,1.51
6844.00,1.51
6843.00,1.51
6842.00,1.50
6841.00,1.50
6840.00,1.50
6839.00,1.49
6838.00,1.49
6837.00,1.49
6836.00,1.48
6835.00,1.48
6834.00,1.48
6833.00,1.48
6832.00,1.47
6831.00,1.47
6830.00,1.47
6829.00,1.47
6828.00,1.47
6827.00,1.46
6826.00,1.46
6825.00,1.46
6824.00,1.46
6823.00,1.46
6822.00,1.46
6821.00,1.46
6820.00,1.47
6819.00,1.47
6818.00,1.47
6817.00,1.47
6816.00,1.47
6815.00,1.48
6814.00,1.48
6813.00,1.49
6812.00,1.49
6811.00,1.49
6810.00,1.50
6809.00,1.50
6808.00,1.51
6807.00,1.51
6806.00,1.51
6805.00,1.52
6804.00,1.52
6803.00,1.52
6802.00,1.53
6801.00,1.53
6800.00,1.53
6799.00,1.53
6798.00,1.53
6797.00,1.53
6796.00,1.53
6795.00,1.53
6794.00,1.53
6793.00,1.53
6792.00,1.54
6791.00,1.54
6790.00,1.54
6789.00,1.54
6788.00,1.54
6787.00,1.54
6786.00,1.54
6785.00,1.54
6784.00,1.54
6783.00,1.55
6782.00,1.55
6781.00,1.55
6780.00,1.55
6779.00,1.55
6778.00,1.56
6777.00,1.56
6776.00,1.56
6775.00,1.56
6774.00,1.57
6773.00,1.57
6772.00,1.57
6771.00,1.58
6770.00,1.58
6769.00,1.58
6768.00,1.59
6767.00,1.59
6766.00,1.59
6765.00,1.59
6764.00,1.59
6763.00,1.60
6762.00,1.60
6761.00,1.60
6760.00,1.60
6759.00,1.60
6758.00,1.60
6757.00,1.61
6756.00,1.61
6755.00,1.61
6754.00,1.60
6753.00,1.60
6752.00,1.60
6751.00,1.60
6750.00,1.60
6749.00,1.60
6748.00,1.60
6747.00,1.60
6746.00,1.60
6745.00,1.60
6744.00,1.60
6743.00,1.60
6742.00,1.60
6741.00,1.60
6740.00,1.60
6739.00,1.60
6738.00,1.60
6737.00,1.59
6736.00,1.59
6735.00,1.59
6734.00,1.59
6733.00,1.59
6732.00,1.59
6731.00,1.60
6730.00,1.60
6729.00,1.60
6728.00,1.60
6727.00,1.60
6726.00,1.60
6725.00,1.60
6724.00,1.60
6723.00,1.60
6722.00,1.60
6721.00,1.60
6720.00,1.60
6719.00,1.60
6718.00,1.60
6717.00,1.60
6716.00,1.60
6715.00,1.60
6714.00,1.60
6713.00,1.60
6712.00,1.60
6711.00,1.60
6710.00,1.60
6709.00,1.60
6708.00,1.60
6707.00,1.60
6706.00,1.59
6705.00,1.59
6704.00,1.59
6703.00,1.59
6702.00,1.58
6701.00,1.58
6700.00,1.58
6699.00,1.58
6698.00,1.58
6697.00,1.58
6696.00,1.58
6695.00,1.59
6694.00,1.59
6693.00,1.60
6692.00,1.60
6691.00,1.60
6690.00,1.61
6689.00,1.61
6688.00,1.62
6687.00,1.62
6686.00,1.63
6685.00,1.64
6684.00,1.64
6683.00,1.65
6682.00,1.65
6681.00,1.66
6680.00,1.66
6679.00,1.67
6678.00,1.68
6677.00,1.68
6676.00,1.69
6675.00,1.70
6674.00,1.71
6673.00,1.72
6672.00,1.72
6671.00,1.73
6670.00,1.73
6669.00,1.73
6668.00,1.73
6667.00,1.74
6666.00,1.74
6665.00,1.74
6664.00,1.74
6663.00,1.74
6662.00,1.74
6661.00,1.74
6660.00,1.74
6659.00,1.74
6658.00,1.73
6657.00,1.73
6656.00,1.73
6655.00,1.73
6654.00,1.73
6653.00,1.72
6652.00,1.72
6651.00,1.72
6650.00,1.71
6649.00,1.71
6648.00,1.70
6647.00,1.70
6646.00,1.69
6645.00,1.69
6644.00,1.68
6643.00,1.68
6642.00,1.68
6641.00,1.67
6640.00,1.67
6639.00,1.67
6638.00,1.67
6637.00,1.66
6636.00,1.66
6635.00,1.66
6634.00,1.66
6633.00,1.66
6632.00,1.66
6631.00,1.66
6630.00,1.66
6629.00,1.67
6628.00,1.67
6627.00,1.67
6626.00,1.67
6625.00,1.68
6624.00,1.68
6623.00,1.68
6622.00,1.69
6621.00,1.69
6620.00,1.70
6619.00,1.70
6618.00,1.71
6617.00,1.71
6616.00,1.72
6615.00,1.73
6614.00,1.73
6613.00,1.74
6612.00,1.75
6611.00,1.75
6610.00,1.76
6609.00,1.77
6608.00,1.78
6607.00,1.78
6606.00,1.79
6605.00,1.79
6604.00,1.79
6603.00,1.80
6602.00,1.80
6601.00,1.81
6600.00,1.81
6599.00,1.81
6598.00,1.82
6597.00,1.82
6596.00,1.83
6595.00,1.83
6594.00,1.83
6593.00,1.83
6592.00,1.84
6591.00,1.84
6590.00,1.84
6589.00,1.84
6588.00,1.84
6587.00,1.84
6586.00,1.84
6585.00,1.84
6584.00,1.85
6583.00,1.85
6582.00,1.85
6581.00,1.85
6580.00,1.86
6579.00,1.86
6578.00,1.86
6577.00,1.87
6576.00,1.87
6575.00,1.87
6574.00,1.88
6573.00,1.88
6572.00,1.88
6571.00,1.88
6570.00,1.88
6569.00,1.88
6568.00,1.88
6567.00,1.88
6566.00,1.88
6565.00,1.88
6564.00,1.88
6563.00,1.88
6562.00,1.88
6561.00,1.88
6560.00,1.88
6559.00,1.87
6558.00,1.87
6557.00,1.87
6556.00,1.86
6555.00,1.86
6554.00,1.85
6553.00,1.85
6552.00,1.84
6551.00,1.83
6550.00,1.83
6549.00,1.82
6548.00,1.82
6547.00,1.81
6546.00,1.81
6545.00,1.81
6544.00,1.80
6543.00,1.80
6542.00,1.80
6541.00,1.80
6540.00,1.80
6539.00,1.80
6538.00,1.80
6537.00,1.81
6536.00,1.81
6535.00,1.81
6534.00,1.81
6533.00,1.82
6532.00,1.82
6531.00,1.83
6530.00,1.83
6529.00,1.84
6528.00,1.84
6527.00,1.85
6526.00,1.85
6525.00,1.86
6524.00,1.86
6523.00,1.87
6522.00,1.87
6521.00,1.88
6520.00,1.88
6519.00,1.89
6518.00,1.89
6517.00,1.90
6516.00,1.90
6515.00,1.90
6514.00,1.91
6513.00,1.91
6512.00,1.92
6511.00,1.92
6510.00,1.92
6509.00,1.92
6508.00,1.92
6507.00,1.93
6506.00,1.93
6505.00,1.93
6504.00,1.93
6503.00,1.93
6502.00,1.93
6501.00,1.93
6500.00,1.93
6499.00,1.93
6498.00,1.93
6497.00,1.93
6496.00,1.93
6495.00,1.93
6494.00,1.93
6493.00,1.93
6492.00,1.93
6491.00,1.93
6490.00,1.93
6489.00,1.93
6488.00,1.93
6487.00,1.92
6486.00,1.92
6485.00,1.92
6484.00,1.92
6483.00,1.92
6482.00,1.92
6481.00,1.92
6480.00,1.92
6479.00,1.93
6478.00,1.93
6477.00,1.93
6476.00,1.94
6475.00,1.94
6474.00,1.94
6473.00,1.95
6472.00,1.95
6471.00,1.96
6470.00,1.96
6469.00,1.96
6468.00,1.97
6467.00,1.97
6466.00,1.98
6465.00,1.98
6464.00,1.98
6463.00,1.99
6462.00,1.99
6461.00,2.00
6460.00,2.00
6459.00,2.00
6458.00,2.01
6457.00,2.01
6456.00,2.02
6455.00,2.02
6454.00,2.02
6453.00,2.02
6452.00,2.02
6451.00,2.02
6450.00,2.02
6449.00,2.02
6448.00,2.02
6447.00,2.02
6446.00,2.01
6445.00,2.01
6444.00,2.01
6443.00,2.01
6442.00,2.00
6441.00,2.00
6440.00,2.00
6439.00,2.00
6438.00,2.00
6437.00,2.00
6436.00,1.99
6435.00,1.99
6434.00,1.99
6433.00,1.99
6432.00,1.99
6431.00,1.99
6430.00,1.99
6429.00,1.99
6428.00,1.99
6427.00,1.99
6426.00,1.99
6425.00,1.99
6424.00,1.99
6423.00,1.99
6422.00,1.99
6421.00,1.99
6420.00,1.99
6419.00,1.99
6418.00,1.99
6417.00,2.00
6416.00,2.00
6415.00,2.00
6414.00,2.00
6413.00,2.00
6412.00,2.00
6411.00,2.00
6410.00,2.00
6409.00,2.01
6408.00,2.01
6407.00,2.01
6406.00,2.01
6405.00,2.02
6404.00,2.02
6403.00,2.02
6402.00,2.03
6401.00,2.03
6400.00,2.03
6399.00,2.04
6398.00,2.04
6397.00,2.04
6396.00,2.05
6395.00,2.05
6394.00,2.05
6393.00,2.06
6392.00,2.06
6391.00,2.06
6390.00,2.07
6389.00,2.07
6388.00,2.07
6387.00,2.08
6386.00,2.08
6385.00,2.08
6384.00,2.09
6383.00,2.09
6382.00,2.09
6381.00,2.09
6380.00,2.09
6379.00,2.09
6378.00,2.09
6377.00,2.09
6376.00,2.09
6375.00,2.09
6374.00,2.09
6373.00,2.09
6372.00,2.09
6371.00,2.09
6370.00,2.09
6369.00,2.09
6368.00,2.09
6367.00,2.09
6366.00,2.09
6365.00,2.09
6364.00,2.09
6363.00,2.09
6362.00,2.09
6361.00,2.09
6360.00,2.09
6359.00,2.09
6358.00,2.09
6357.00,2.09
6356.00,2.09
6355.00,2.09
6354.00,2.10
6353.00,2.10
6352.00,2.10
6351.00,2.10
6350.00,2.11
6349.00,2.11
6348.00,2.11
6347.00,2.11
6346.00,2.12
6345.00,2.12
6344.00,2.12
6343.00,2.13
6342.00,2.13
6341.00,2.13
6340.00,2.13
6339.00,2.13
6338.00,2.13
6337.00,2.14
6336.00,2.14
6335.00,2.14
6334.00,2.14
6333.00,2.14
6332.00,2.14
6331.00,2.14
6330.00,2.14
6329.00,2.14
6328.00,2.14
6327.00,2.14
6326.00,2.14
6325.00,2.14
6324.00,2.13
6323.00,2.13
6322.00,2.13
6321.00,2.13
6320.00,2.12
6319.00,2.12
6318.00,2.12
6317.00,2.11
6316.00,2.11
6315.00,2.11
6314.00,2.10
6313.00,2.10
6312.00,2.10
6311.00,2.09
6310.00,2.09
6309.00,2.09
6308.00,2.08
6307.00,2.08
6306.00,2.08
6305.00,2.07
6304.00,2.07
6303.00,2.07
6302.00,2.07
6301.00,2.08
6300.00,2.08
6299.00,2.08
6298.00,2.09
6297.00,2.09
6296.00,2.10
6295.00,2.10
6294.00,2.11
6293.00,2.11
6292.00,2.12
6291.00,2.12
6290.00,2.13
6289.00,2.14
6288.00,2.14
6287.00,2.15
6286.00,2.15
6285.00,2.16
6284.00,2.16
6283.00,2.17
6282.00,2.17
6281.00,2.18
6280.00,2.18
6279.00,2.19
6278.00,2.19
6277.00,2.19
6276.00,2.19
6275.00,2.19
6274.00,2.19
6273.00,2.19
6272.00,2.18
6271.00,2.18
6270.00,2.17
6269.00,2.17
6268.00,2.16
6267.00,2.16
6266.00,2.16
6265.00,2.15
6264.00,2.15
6263.00,2.15
6262.00,2.14
6261.00,2.14
6260.00,2.14
6259.00,2.14
6258.00,2.14
6257.00,2.14
6256.00,2.14
6255.00,2.14
6254.00,2.14
6253.00,2.13
6252.00,2.13
6251.00,2.13
6250.00,2.13
6249.00,2.14
6248.00,2.14
6247.00,2.14
6246.00,2.15
6245.00,2.15
6244.00,2.16
6243.00,2.16
6242.00,2.17
6241.00,2.17
6240.00,2.17
6239.00,2.17
6238.00,2.18
6237.00,2.18
6236.00,2.18
6235.00,2.18
6234.00,2.18
6233.00,2.18
6232.00,2.18
6231.00,2.18
6230.00,2.18
6229.00,2.18
6228.00,2.19
6227.00,2.19
6226.00,2.19
6225.00,2.20
6224.00,2.20
6223.00,2.20
6222.00,2.21
6221.00,2.21
6220.00,2.21
6219.00,2.22
6218.00,2.22
6217.00,2.22
6216.00,2.23
6215.00,2.23
6214.00,2.24
6213.00,2.25
6212.00,2.25
6211.00,2.26
6210.00,2.27
6209.00,2.28
6208.00,2.29
6207.00,2.29
6206.00,2.30
6205.00,2.31
6204.00,2.31
6203.00,2.32
6202.00,2.32
6201.00,2.32
6200.00,2.32
6199.00,2.32
6198.00,2.33
6197.00,2.33
6196.00,2.33
6195.00,2.33
6194.00,2.33
6193.00,2.33
6192.00,2.33
6191.00,2.33
6190.00,2.33
6189.00,2.33
6188.00,2.33
6187.00,2.33
6186.00,2.33
6185.00,2.33
6184.00,2.33
6183.00,2.32
6182.00,2.32
6181.00,2.32
6180.00,2.32
6179.00,2.32
6178.00,2.31
6177.00,2.31
6176.00,2.31
6175.00,2.31
6174.00,2.31
6173.00,2.31
6172.00,2.31
6171.00,2.30
6170.00,2.30
6169.00,2.30
6168.00,2.30
6167.00,2.30
6166.00,2.29
6165.00,2.29
6164.00,2.29
6163.00,2.29
6162.00,2.28
6161.00,2.28
6160.00,2.28
6159.00,2.28
6158.00,2.28
6157.00,2.27
6156.00,2.27
6155.00,2.27
6154.00,2.27
6153.00,2.27
6152.00,2.27
6151.00,2.27
6150.00,2.27
6149.00,2.27
6148.00,2.27
6147.00,2.27
6146.00,2.28
6145.00,2.28
6144.00,2.28
6143.00,2.28
6142.00,2.29
6141.00,2.29
6140.00,2.29
6139.00,2.29
6138.00,2.30
6137.00,2.30
6136.00,2.30
6135.00,2.31
6134.00,2.31
6133.00,2.31
6132.00,2.31
6131.00,2.32
6130.00,2.32
6129.00,2.32
6128.00,2.32
6127.00,2.32
6126.00,2.32
6125.00,2.32
6124.00,2.32
6123.00,2.32
6122.00,2.32
6121.00,2.32
6120.00,2.32
6119.00,2.32
6118.00,2.32
6117.00,2.32
6116.00,2.32
6115.00,2.32
6114.00,2.32
6113.00,2.32
6112.00,2.32
6111.00,2.32
6110.00,2.32
6109.00,2.32
6108.00,2.32
6107.00,2.32
6106.00,2.32
6105.00,2.32
6104.00,2.32
6103.00,2.32
6102.00,2.32
6101.00,2.32
6100.00,2.33
6099.00,2.33
6098.00,2.33
6097.00,2.33
6096.00,2.34
6095.00,2.34
6094.00,2.34
6093.00,2.35
6092.00,2.35
6091.00,2.36
6090.00,2.36
6089.00,2.36
6088.00,2.37
6087.00,2.37
6086.00,2.37
6085.00,2.38
6084.00,2.38
6083.00,2.38
6082.00,2.38
6081.00,2.39
6080.00,2.39
6079.00,2.39
6078.00,2.39
6077.00,2.40
6076.00,2.40
6075.00,2.40
6074.00,2.41
6073.00,2.41
6072.00,2.41
6071.00,2.41
6070.00,2.41
6069.00,2.41
6068.00,2.41
6067.00,2.41
6066.00,2.41
6065.00,2.41
6064.00,2.41
6063.00,2.41
6062.00,2.41
6061.00,2.40
6060.00,2.40
6059.00,2.40
6058.00,2.40
6057.00,2.40
6056.00,2.40
6055.00,2.40
6054.00,2.40
6053.00,2.40
6052.00,2.40
6051.00,2.40
6050.00,2.39
6049.00,2.39
6048.00,2.39
6047.00,2.38
6046.00,2.38
6045.00,2.38
6044.00,2.38
6043.00,2.37
6042.00,2.37
6041.00,2.37
6040.00,2.37
6039.00,2.37
6038.00,2.37
6037.00,2.37
6036.00,2.38
6035.00,2.38
6034.00,2.38
6033.00,2.38
6032.00,2.38
6031.00,2.38
6030.00,2.38
6029.00,2.38
6028.00,2.38
6027.00,2.39
6026.00,2.39
6025.00,2.39
6024.00,2.39
6023.00,2.39
6022.00,2.39
6021.00,2.39
6020.00,2.39
6019.00,2.39
6018.00,2.39
6017.00,2.39
6016.00,2.39
6015.00,2.39
6014.00,2.39
6013.00,2.39
6012.00,2.39
6011.00,2.39
6010.00,2.39
6009.00,2.39
6008.00,2.38
6007.00,2.38
6006.00,2.38
6005.00,2.38
6004.00,2.37
6003.00,2.37
6002.00,2.37
6001.00,2.37
6000.00,2.37
5999.00,2.37
5998.00,2.37
5997.00,2.37
5996.00,2.37
5995.00,2.38
5994.00,2.38
5993.00,2.38
5992.00,2.38
5991.00,2.38
5990.00,2.38
5989.00,2.39
5988.00,2.39
5987.00,2.39
5986.00,2.39
5985.00,2.39
5984.00,2.39
5983.00,2.40
5982.00,2.40
5981.00,2.40
5980.00,2.40
5979.00,2.40
5978.00,2.40
5977.00,2.40
5976.00,2.40
5975.00,2.40
5974.00,2.40
5973.00,2.40
5972.00,2.40
5971.00,2.40
5970.00,2.39
5969.00,2.39
5968.00,2.39
5967.00,2.39
5966.00,2.39
5965.00,2.39
5964.00,2.39
5963.00,2.39
5962.00,2.39
5961.00,2.39
5960.00,2.39
5959.00,2.39
5958.00,2.39
5957.00,2.39
5956.00,2.39
5955.00,2.39
5954.00,2.39
5953.00,2.40
5952.00,2.40
5951.00,2.40
5950.00,2.40
5949.00,2.41
5948.00,2.41
5947.00,2.41
5946.00,2.42
5945.00,2.42
5944.00,2.43
5943.00,2.43
5942.00,2.43
5941.00,2.44
5940.00,2.44
5939.00,2.44
5938.00,2.44
5937.00,2.45
5936.00,2.45
5935.00,2.45
5934.00,2.45
5933.00,2.45
5932.00,2.46
5931.00,2.46
5930.00,2.46
5929.00,2.46
5928.00,2.46
5927.00,2.46
5926.00,2.45
5925.00,2.45
5924.00,2.45
5923.00,2.45
5922.00,2.44
5921.00,2.44
5920.00,2.43
5919.00,2.43
5918.00,2.43
5917.00,2.42
5916.00,2.42
5915.00,2.41
5914.00,2.41
5913.00,2.40
5912.00,2.40
5911.00,2.39
5910.00,2.39
5909.00,2.38
5908.00,2.38
5907.00,2.37
5906.00,2.37
5905.00,2.36
5904.00,2.36
5903.00,2.36
5902.00,2.36
5901.00,2.35
5900.00,2.35
5899.00,2.35
5898.00,2.35
5897.00,2.35
5896.00,2.35
5895.00,2.36
5894.00,2.36
5893.00,2.36
5892.00,2.36
5891.00,2.36
5890.00,2.36
5889.00,2.36
5888.00,2.36
5887.00,2.37
5886.00,2.37
5885.00,2.37
5884.00,2.37
5883.00,2.38
5882.00,2.38
5881.00,2.38
5880.00,2.38
5879.00,2.38
5878.00,2.39
5877.00,2.39
5876.00,2.39
5875.00,2.39
5874.00,2.39
5873.00,2.39
5872.00,2.39
5871.00,2.38
5870.00,2.38
5869.00,2.38
5868.00,2.38
5867.00,2.38
5866.00,2.38
5865.00,2.38
5864.00,2.37
5863.00,2.37
5862.00,2.37
5861.00,2.37
5860.00,2.37
5859.00,2.36
5858.00,2.36
5857.00,2.36
5856.00,2.36
5855.00,2.36
5854.00,2.36
5853.00,2.36
5852.00,2.35
5851.00,2.35
5850.00,2.35
5849.00,2.35
5848.00,2.35
5847.00,2.35
5846.00,2.35
5845.00,2.35
5844.00,2.35
5843.00,2.35
5842.00,2.35
5841.00,2.35
5840.00,2.35
5839.00,2.35
5838.00,2.35
5837.00,2.35
5836.00,2.35
5835.00,2.35
5834.00,2.36
5833.00,2.36
5832.00,2.36
5831.00,2.36
5830.00,2.36
5829.00,2.37
5828.00,2.37
5827.00,2.37
5826.00,2.37
5825.00,2.37
5824.00,2.38
5823.00,2.38
5822.00,2.38
5821.00,2.38
5820.00,2.39
5819.00,2.39
5818.00,2.40
5817.00,2.40
5816.00,2.40
5815.00,2.41
5814.00,2.41
5813.00,2.41
5812.00,2.42
5811.00,2.42
5810.00,2.42
5809.00,2.43
5808.00,2.43
5807.00,2.43
5806.00,2.43
5805.00,2.44
5804.00,2.44
5803.00,2.44
5802.00,2.45
5801.00,2.45
5800.00,2.45
5799.00,2.45
5798.00,2.46
5797.00,2.46
5796.00,2.46
5795.00,2.46
5794.00,2.46
5793.00,2.47
5792.00,2.47
5791.00,2.47
5790.00,2.47
5789.00,2.47
5788.00,2.47
5787.00,2.47
5786.00,2.47
5785.00,2.47
5784.00,2.47
5783.00,2.47
5782.00,2.46
5781.00,2.46
5780.00,2.46
5779.00,2.46
5778.00,2.46
5777.00,2.45
5776.00,2.45
5775.00,2.44
5774.00,2.44
5773.00,2.44
5772.00,2.43
5771.00,2.43
5770.00,2.42
5769.00,2.42
5768.00,2.41
5767.00,2.40
5766.00,2.40
5765.00,2.39
5764.00,2.39
5763.00,2.38
5762.00,2.38
5761.00,2.37
5760.00,2.37
5759.00,2.37
5758.00,2.36
5757.00,2.36
5756.00,2.35
5755.00,2.35
5754.00,2.35
5753.00,2.35
5752.00,2.35
5751.00,2.35
5750.00,2.35
5749.00,2.35
5748.00,2.35
5747.00,2.35
5746.00,2.35
5745.00,2.35
5744.00,2.35
5743.00,2.36
5742.00,2.36
5741.00,2.36
5740.00,2.37
5739.00,2.37
5738.00,2.37
5737.00,2.38
5736.00,2.38
5735.00,2.39
5734.00,2.39
5733.00,2.39
5732.00,2.40
5731.00,2.40
5730.00,2.40
5729.00,2.40
5728.00,2.40
5727.00,2.41
5726.00,2.41
5725.00,2.41
5724.00,2.41
5723.00,2.41
5722.00,2.41
5721.00,2.41
5720.00,2.41
5719.00,2.42
5718.00,2.42
5717.00,2.42
5716.00,2.42
5715.00,2.42
5714.00,2.42
5713.00,2.42
5712.00,2.42
5711.00,2.42
5710.00,2.42
5709.00,2.43
5708.00,2.43
5707.00,2.43
5706.00,2.43
5705.00,2.43
5704.00,2.43
5703.00,2.43
5702.00,2.44
5701.00,2.44
5700.00,2.44
5699.00,2.44
5698.00,2.44
5697.00,2.44
5696.00,2.44
5695.00,2.45
5694.00,2.45
5693.00,2.45
5692.00,2.45
5691.00,2.45
5690.00,2.45
5689.00,2.45
5688.00,2.45
5687.00,2.45
5686.00,2.45
5685.00,2.45
5684.00,2.45
5683.00,2.44
5682.00,2.44
5681.00,2.44
5680.00,2.44
5679.00,2.44
5678.00,2.44
5677.00,2.44
5676.00,2.44
5675.00,2.43
5674.00,2.43
5673.00,2.43
5672.00,2.43
5671.00,2.43
5670.00,2.43
5669.00,2.43
5668.00,2.42
5667.00,2.42
5666.00,2.42
5665.00,2.42
5664.00,2.41
5663.00,2.41
5662.00,2.41
5661.00,2.41
5660.00,2.41
5659.00,2.41
5658.00,2.41
5657.00,2.40
5656.00,2.40
5655.00,2.40
5654.00,2.40
5653.00,2.40
5652.00,2.40
5651.00,2.40
5650.00,2.39
5649.00,2.39
5648.00,2.39
5647.00,2.39
5646.00,2.39
5645.00,2.39
5644.00,2.39
5643.00,2.38
5642.00,2.38
5641.00,2.38
5640.00,2.38
5639.00,2.38
5638.00,2.38
5637.00,2.38
5636.00,2.38
5635.00,2.38
5634.00,2.38
5633.00,2.38
5632.00,2.38
5631.00,2.38
5630.00,2.38
5629.00,2.38
5628.00,2.38
5627.00,2.38
5626.00,2.38
5625.00,2.38
5624.00,2.38
5623.00,2.37
5622.00,2.37
5621.00,2.37
5620.00,2.37
5619.00,2.37
5618.00,2.38
5617.00,2.38
5616.00,2.38
5615.00,2.38
5614.00,2.38
5613.00,2.38
5612.00,2.38
5611.00,2.39
5610.00,2.39
5609.00,2.39
5608.00,2.39
5607.00,2.40
5606.00,2.40
5605.00,2.40
5604.00,2.40
5603.00,2.41
5602.00,2.41
5601.00,2.41
5600.00,2.42
5599.00,2.42
5598.00,2.42
5597.00,2.43
5596.00,2.43
5595.00,2.44
5594.00,2.44
5593.00,2.44
5592.00,2.45
5591.00,2.45
5590.00,2.45
5589.00,2.46
5588.00,2.46
5587.00,2.46
5586.00,2.46
5585.00,2.46
5584.00,2.46
5583.00,2.46
5582.00,2.46
5581.00,2.46
5580.00,2.46
5579.00,2.46
5578.00,2.46
5577.00,2.46
5576.00,2.46
5575.00,2.46
5574.00,2.46
5573.00,2.46
5572.00,2.46
5571.00,2.45
5570.00,2.45
5569.00,2.45
5568.00,2.45
5567.00,2.45
5566.00,2.44
5565.00,2.44
5564.00,2.44
5563.00,2.44
5562.00,2.44
5561.00,2.44
5560.00,2.44
5559.00,2.43
5558.00,2.43
5557.00,2.43
5556.00,2.43
5555.00,2.43
5554.00,2.44
5553.00,2.44
5552.00,2.44
5551.00,2.44
5550.00,2.44
5549.00,2.44
5548.00,2.44
5547.00,2.45
5546.00,2.45
5545.00,2.45
5544.00,2.46
5543.00,2.46
5542.00,2.46
5541.00,2.47
5540.00,2.47
5539.00,2.47
5538.00,2.48
5537.00,2.48
5536.00,2.48
5535.00,2.48
5534.00,2.49
5533.00,2.49
5532.00,2.49
5531.00,2.49
5530.00,2.50
5529.00,2.50
5528.00,2.50
5527.00,2.50
5526.00,2.50
5525.00,2.50
5524.00,2.50
5523.00,2.51
5522.00,2.50
5521.00,2.50
5520.00,2.50
5519.00,2.50
5518.00,2.50
5517.00,2.50
5516.00,2.50
5515.00,2.50
5514.00,2.49
5513.00,2.49
5512.00,2.49
5511.00,2.49
5510.00,2.48
5509.00,2.48
5508.00,2.48
5507.00,2.48
5506.00,2.47
5505.00,2.47
5504.00,2.47
5503.00,2.46
5502.00,2.46
5501.00,2.46
5500.00,2.46
5499.00,2.45
5498.00,2.45
5497.00,2.45
5496.00,2.44
5495.00,2.44
5494.00,2.44
5493.00,2.44
5492.00,2.43
5491.00,2.43
5490.00,2.43
5489.00,2.43
5488.00,2.43
5487.00,2.42
5486.00,2.42
5485.00,2.42
5484.00,2.42
5483.00,2.42
5482.00,2.42
5481.00,2.42
5480.00,2.42
5479.00,2.42
5478.00,2.42
5477.00,2.42
5476.00,2.42
5475.00,2.43
5474.00,2.43
5473.00,2.43
5472.00,2.43
5471.00,2.43
5470.00,2.44
5469.00,2.44
5468.00,2.44
5467.00,2.44
5466.00,2.45
5465.00,2.45
5464.00,2.45
5463.00,2.46
5462.00,2.46
5461.00,2.46
5460.00,2.47
5459.00,2.47
5458.00,2.48
5457.00,2.48
5456.00,2.48
5455.00,2.48
5454.00,2.49
5453.00,2.49
5452.00,2.49
5451.00,2.49
5450.00,2.49
5449.00,2.49
5448.00,2.49
5447.00,2.49
5446.00,2.48
5445.00,2.48
5444.00,2.48
5443.00,2.48
5442.00,2.48
5441.00,2.48
5440.00,2.48
5439.00,2.48
5438.00,2.47
5437.00,2.47
5436.00,2.47
5435.00,2.47
5434.00,2.46
5433.00,2.46
5432.00,2.46
5431.00,2.45
5430.00,2.45
5429.00,2.45
5428.00,2.45
5427.00,2.45
5426.00,2.45
5425.00,2.45
5424.00,2.45
5423.00,2.45
5422.00,2.46
5421.00,2.46
5420.00,2.46
5419.00,2.46
5418.00,2.46
5417.00,2.46
5416.00,2.46
5415.00,2.46
5414.00,2.46
5413.00,2.47
5412.00,2.47
5411.00,2.47
5410.00,2.47
5409.00,2.47
5408.00,2.47
5407.00,2.48
5406.00,2.48
5405.00,2.48
5404.00,2.48
5403.00,2.48
5402.00,2.48
5401.00,2.48
5400.00,2.48
5399.00,2.48
5398.00,2.47
5397.00,2.47
5396.00,2.47
5395.00,2.46
5394.00,2.46
5393.00,2.46
5392.00,2.45
5391.00,2.45
5390.00,2.45
5389.00,2.45
5388.00,2.45
5387.00,2.45
5386.00,2.44
5385.00,2.44
5384.00,2.44
5383.00,2.44
5382.00,2.44
5381.00,2.43
5380.00,2.43
5379.00,2.43
5378.00,2.42
5377.00,2.42
5376.00,2.42
5375.00,2.41
5374.00,2.41
5373.00,2.41
5372.00,2.41
5371.00,2.40
5370.00,2.40
5369.00,2.40
5368.00,2.39
5367.00,2.39
5366.00,2.39
5365.00,2.38
5364.00,2.38
5363.00,2.37
5362.00,2.37
5361.00,2.36
5360.00,2.35
5359.00,2.34
5358.00,2.33
5357.00,2.32
5356.00,2.32
5355.00,2.31
5354.00,2.30
5353.00,2.29
5352.00,2.28
5351.00,2.27
5350.00,2.26
5349.00,2.25
5348.00,2.24
5347.00,2.23
5346.00,2.22
5345.00,2.21
5344.00,2.19
5343.00,2.18
5342.00,2.17
5341.00,2.16
5340.00,2.15
5339.00,2.14
5338.00,2.12
5337.00,2.11
5336.00,2.10
5335.00,2.09
5334.00,2.08
5333.00,2.06
5332.00,2.05
5331.00,2.04
5330.00,2.03
5329.00,2.01
5328.00,2.00
5327.00,1.99
5326.00,1.97
5325.00,1.96
5324.00,1.94
5323.00,1.93
5322.00,1.92
5321.00,1.90
5320.00,1.89
5319.00,1.87
5318.00,1.85
5317.00,1.84
5316.00,1.82
5315.00,1.81
5314.00,1.79
5313.00,1.78
5312.00,1.76
5311.00,1.74
5310.00,1.73
5309.00,1.71
5308.00,1.70
5307.00,1.69
5306.00,1.67
5305.00,1.66
5304.00,1.65
5303.00,1.64
5302.00,1.62
5301.00,1.61
5300.00,1.60
5299.00,1.59
5298.00,1.58
5297.00,1.57
5296.00,1.56
5295.00,1.54
5294.00,1.53
5293.00,1.52
5292.00,1.51
5291.00,1.50
5290.00,1.49
5289.00,1.48
5288.00,1.47
5287.00,1.46
5286.00,1.45
5285.00,1.44
5284.00,1.43
5283.00,1.42
5282.00,1.41
5281.00,1.40
5280.00,1.39
5279.00,1.38
5278.00,1.37
5277.00,1.35
5276.00,1.34
5275.00,1.33
5274.00,1.31
5273.00,1.30
5272.00,1.29
5271.00,1.28
5270.00,1.27
5269.00,1.26
5268.00,1.24
5267.00,1.23
5266.00,1.22
5265.00,1.21
5264.00,1.20
5263.00,1.19
5262.00,1.19
5261.00,1.18
5260.00,1.17
5259.00,1.16
5258.00,1.16
5257.00,1.15
5256.00,1.14
5255.00,1.14
5254.00,1.13
5253.00,1.13
5252.00,1.12
5251.00,1.12
5250.00,1.11
5249.00,1.11
5248.00,1.11
5247.00,1.10
5246.00,1.10
5245.00,1.10
5244.00,1.10
5243.00,1.09
5242.00,1.09
5241.00,1.09
5240.00,1.09
5239.00,1.09
5238.00,1.09
5237.00,1.09
5236.00,1.09
5235.00,1.09
5234.00,1.09
5233.00,1.09
5232.00,1.09
5231.00,1.09
5230.00,1.08
5229.00,1.08
5228.00,1.08
5227.00,1.08
5226.00,1.08
5225.00,1.08
5224.00,1.08
5223.00,1.08
5222.00,1.08
5221.00,1.08
5220.00,1.08
5219.00,1.08
5218.00,1.08
5217.00,1.08
5216.00,1.08
5215.00,1.08
5214.00,1.08
5213.00,1.08
5212.00,1.07
5211.00,1.07
5210.00,1.07
5209.00,1.07
5208.00,1.07
5207.00,1.07
5206.00,1.07
5205.00,1.07
5204.00,1.07
5203.00,1.06
5202.00,1.06
5201.00,1.06
5200.00,1.06
5199.00,1.06
5198.00,1.06
5197.00,1.06
5196.00,1.06
5195.00,1.06
5194.00,1.06
5193.00,1.06
5192.00,1.05
5191.00,1.05
5190.00,1.05
5189.00,1.05
5188.00,1.05
5187.00,1.05
5186.00,1.05
5185.00,1.05
5184.00,1.05
5183.00,1.04
5182.00,1.04
5181.00,1.04
5180.00,1.03
5179.00,1.03
5178.00,1.03
5177.00,1.03
5176.00,1.03
5175.00,1.03
5174.00,1.03
5173.00,1.03
5172.00,1.03
5171.00,1.03
5170.00,1.03
5169.00,1.03
5168.00,1.03
5167.00,1.03
5166.00,1.03
5165.00,1.03
5164.00,1.03
5163.00,1.03
5162.00,1.03
5161.00,1.03
5160.00,1.04
5159.00,1.04
5158.00,1.04
5157.00,1.05
5156.00,1.05
5155.00,1.06
5154.00,1.06
5153.00,1.07
5152.00,1.08
5151.00,1.08
5150.00,1.09
5149.00,1.09
5148.00,1.09
5147.00,1.10
5146.00,1.10
5145.00,1.10
5144.00,1.10
5143.00,1.11
5142.00,1.11
5141.00,1.11
5140.00,1.11
5139.00,1.11
5138.00,1.12
5137.00,1.12
5136.00,1.12
5135.00,1.12
5134.00,1.12
5133.00,1.12
5132.00,1.12
5131.00,1.13
5130.00,1.13
5129.00,1.13
5128.00,1.12
5127.00,1.12
5126.00,1.12
5125.00,1.12
5124.00,1.12
5123.00,1.12
5122.00,1.13
5121.00,1.13
5120.00,1.13
5119.00,1.13
5118.00,1.13
5117.00,1.13
5116.00,1.13
5115.00,1.14
5114.00,1.14
5113.00,1.14
5112.00,1.14
5111.00,1.14
5110.00,1.14
5109.00,1.14
5108.00,1.14
5107.00,1.14
5106.00,1.14
5105.00,1.14
5104.00,1.14
5103.00,1.14
5102.00,1.14
5101.00,1.15
5100.00,1.15
5099.00,1.15
5098.00,1.15
5097.00,1.15
5096.00,1.15
5095.00,1.15
5094.00,1.15
5093.00,1.15
5092.00,1.15
5091.00,1.15
5090.00,1.15
5089.00,1.15
5088.00,1.15
5087.00,1.16
5086.00,1.16
5085.00,1.16
5084.00,1.16
5083.00,1.16
5082.00,1.17
5081.00,1.17
5080.00,1.17
5079.00,1.18
5078.00,1.18
5077.00,1.18
5076.00,1.18
5075.00,1.18
5074.00,1.19
5073.00,1.19
5072.00,1.19
5071.00,1.19
5070.00,1.19
5069.00,1.19
5068.00,1.20
5067.00,1.20
5066.00,1.20
5065.00,1.20
5064.00,1.21
5063.00,1.21
5062.00,1.21
5061.00,1.21
5060.00,1.22
5059.00,1.22
5058.00,1.22
5057.00,1.22
5056.00,1.23
5055.00,1.23
5054.00,1.23
5053.00,1.24
5052.00,1.24
5051.00,1.24
5050.00,1.25
5049.00,1.25
5048.00,1.26
5047.00,1.26
5046.00,1.27
5045.00,1.28
5044.00,1.28
5043.00,1.29
5042.00,1.29
5041.00,1.30
5040.00,1.30
5039.00,1.31
5038.00,1.31
5037.00,1.32
5036.00,1.32
5035.00,1.33
5034.00,1.33
5033.00,1.34
5032.00,1.34
5031.00,1.35
5030.00,1.35
5029.00,1.36
5028.00,1.36
5027.00,1.36
5026.00,1.37
5025.00,1.37
5024.00,1.38
5023.00,1.38
5022.00,1.38
5021.00,1.39
5020.00,1.39
5019.00,1.39
5018.00,1.39
5017.00,1.40
5016.00,1.40
5015.00,1.40
5014.00,1.41
5013.00,1.41
5012.00,1.41
5011.00,1.41
5010.00,1.41
5009.00,1.42
5008.00,1.42
5007.00,1.42
5006.00,1.42
5005.00,1.42
5004.00,1.42
5003.00,1.42
5002.00,1.42
5001.00,1.42
5000.00,1.42
4999.00,1.42
4998.00,1.42
4997.00,1.42
4996.00,1.42
4995.00,1.42
4994.00,1.42
4993.00,1.42
4992.00,1.42
4991.00,1.42
4990.00,1.42
4989.00,1.42
4988.00,1.42
4987.00,1.42
4986.00,1.42
4985.00,1.43
4984.00,1.43
4983.00,1.43
4982.00,1.43
4981.00,1.43
4980.00,1.43
4979.00,1.43
4978.00,1.43
4977.00,1.44
4976.00,1.44
4975.00,1.44
4974.00,1.44
4973.00,1.44
4972.00,1.45
4971.00,1.45
4970.00,1.45
4969.00,1.45
4968.00,1.46
4967.00,1.46
4966.00,1.46
4965.00,1.46
4964.00,1.47
4963.00,1.47
4962.00,1.47
4961.00,1.47
4960.00,1.48
4959.00,1.48
4958.00,1.48
4957.00,1.48
4956.00,1.49
4955.00,1.49
4954.00,1.49
4953.00,1.49
4952.00,1.50
4951.00,1.50
4950.00,1.50
4949.00,1.51
4948.00,1.51
4947.00,1.51
4946.00,1.52
4945.00,1.52
4944.00,1.53
4943.00,1.53
4942.00,1.54
4941.00,1.55
4940.00,1.55
4939.00,1.56
4938.00,1.56
4937.00,1.57
4936.00,1.58
4935.00,1.58
4934.00,1.59
4933.00,1.59
4932.00,1.60
4931.00,1.61
4930.00,1.61
4929.00,1.62
4928.00,1.63
4927.00,1.63
4926.00,1.64
4925.00,1.65
4924.00,1.66
4923.00,1.66
4922.00,1.67
4921.00,1.68
4920.00,1.69
4919.00,1.69
4918.00,1.70
4917.00,1.71
4916.00,1.71
4915.00,1.72
4914.00,1.72
4913.00,1.73
4912.00,1.74
4911.00,1.74
4910.00,1.75
4909.00,1.76
4908.00,1.76
4907.00,1.77
4906.00,1.77
4905.00,1.78
4904.00,1.78
4903.00,1.79
4902.00,1.79
4901.00,1.79
4900.00,1.79
4899.00,1.80
4898.00,1.80
4897.00,1.80
4896.00,1.80
4895.00,1.80
4894.00,1.80
4893.00,1.80
4892.00,1.80
4891.00,1.79
4890.00,1.79
4889.00,1.79
4888.00,1.79
4887.00,1.79
4886.00,1.78
4885.00,1.78
4884.00,1.78
4883.00,1.78
4882.00,1.78
4881.00,1.77
4880.00,1.77
4879.00,1.77
4878.00,1.77
4877.00,1.77
4876.00,1.77
4875.00,1.77
4874.00,1.77
4873.00,1.77
4872.00,1.77
4871.00,1.77
4870.00,1.77
4869.00,1.78
4868.00,1.78
4867.00,1.78
4866.00,1.79
4865.00,1.79
4864.00,1.79
4863.00,1.80
4862.00,1.80
4861.00,1.81
4860.00,1.81
4859.00,1.82
4858.00,1.82
4857.00,1.82
4856.00,1.83
4855.00,1.83
4854.00,1.84
4853.00,1.84
4852.00,1.84
4851.00,1.84
4850.00,1.85
4849.00,1.85
4848.00,1.85
4847.00,1.86
4846.00,1.86
4845.00,1.86
4844.00,1.86
4843.00,1.87
4842.00,1.87
4841.00,1.87
4840.00,1.87
4839.00,1.88
4838.00,1.88
4837.00,1.88
4836.00,1.88
4835.00,1.88
4834.00,1.88
4833.00,1.89
4832.00,1.89
4831.00,1.89
4830.00,1.89
4829.00,1.89
4828.00,1.90
4827.00,1.90
4826.00,1.90
4825.00,1.91
4824.00,1.91
4823.00,1.91
4822.00,1.92
4821.00,1.92
4820.00,1.92
4819.00,1.93
4818.00,1.93
4817.00,1.94
4816.00,1.94
4815.00,1.94
4814.00,1.95
4813.00,1.95
4812.00,1.96
4811.00,1.96
4810.00,1.97
4809.00,1.98
4808.00,1.98
4807.00,1.99
4806.00,1.99
4805.00,2.00
4804.00,2.00
4803.00,2.01
4802.00,2.01
4801.00,2.02
4800.00,2.02
4799.00,2.02
4798.00,2.03
4797.00,2.03
4796.00,2.03
4795.00,2.03
4794.00,2.04
4793.00,2.04
4792.00,2.04
4791.00,2.04
4790.00,2.04
4789.00,2.04
4788.00,2.04
4787.00,2.04
4786.00,2.04
4785.00,2.05
4784.00,2.05
4783.00,2.05
4782.00,2.05
4781.00,2.05
4780.00,2.05
4779.00,2.05
4778.00,2.05
4777.00,2.05
4776.00,2.05
4775.00,2.06
4774.00,2.06
4773.00,2.06
4772.00,2.07
4771.00,2.07
4770.00,2.08
4769.00,2.09
4768.00,2.09
4767.00,2.10
4766.00,2.10
4765.00,2.11
4764.00,2.11
4763.00,2.12
4762.00,2.13
4761.00,2.13
4760.00,2.14
4759.00,2.14
4758.00,2.15
4757.00,2.15
4756.00,2.16
4755.00,2.16
4754.00,2.17
4753.00,2.17
4752.00,2.18
4751.00,2.18
4750.00,2.18
4749.00,2.19
4748.00,2.19
4747.00,2.19
4746.00,2.20
4745.00,2.20
4744.00,2.20
4743.00,2.21
4742.00,2.21
4741.00,2.22
4740.00,2.22
4739.00,2.23
4738.00,2.23
4737.00,2.24
4736.00,2.24
4735.00,2.25
4734.00,2.25
4733.00,2.25
4732.00,2.26
4731.00,2.26
4730.00,2.26
4729.00,2.27
4728.00,2.27
4727.00,2.27
4726.00,2.27
4725.00,2.28
4724.00,2.28
4723.00,2.28
4722.00,2.28
4721.00,2.28
4720.00,2.29
4719.00,2.29
4718.00,2.29
4717.00,2.29
4716.00,2.29
4715.00,2.29
4714.00,2.29
4713.00,2.29
4712.00,2.29
4711.00,2.29
4710.00,2.29
4709.00,2.29
4708.00,2.30
4707.00,2.30
4706.00,2.30
4705.00,2.31
4704.00,2.31
4703.00,2.31
4702.00,2.32
4701.00,2.32
4700.00,2.33
4699.00,2.33
4698.00,2.34
4697.00,2.34
4696.00,2.35
4695.00,2.35
4694.00,2.35
4693.00,2.36
4692.00,2.36
4691.00,2.36
4690.00,2.37
4689.00,2.37
4688.00,2.38
4687.00,2.38
4686.00,2.38
4685.00,2.39
4684.00,2.39
4683.00,2.39
4682.00,2.39
4681.00,2.39
4680.00,2.39
4679.00,2.40
4678.00,2.40
4677.00,2.40
4676.00,2.40
4675.00,2.40
4674.00,2.40
4673.00,2.40
4672.00,2.40
4671.00,2.40
4670.00,2.40
4669.00,2.40
4668.00,2.40
4667.00,2.40
4666.00,2.40
4665.00,2.40
4664.00,2.40
4663.00,2.40
4662.00,2.41
4661.00,2.41
4660.00,2.41
4659.00,2.41
4658.00,2.42
4657.00,2.42
4656.00,2.42
4655.00,2.42
4654.00,2.43
4653.00,2.43
4652.00,2.43
4651.00,2.43
4650.00,2.43
4649.00,2.43
4648.00,2.44
4647.00,2.44
4646.00,2.44
4645.00,2.44
4644.00,2.45
4643.00,2.45
4642.00,2.45
4641.00,2.45
4640.00,2.45
4639.00,2.45
4638.00,2.45
4637.00,2.45
4636.00,2.45
4635.00,2.45
4634.00,2.45
4633.00,2.45
4632.00,2.45
4631.00,2.45
4630.00,2.45
4629.00,2.45
4628.00,2.45
4627.00,2.45
4626.00,2.44
4625.00,2.44
4624.00,2.44
4623.00,2.44
4622.00,2.44
4621.00,2.44
4620.00,2.44
4619.00,2.44
4618.00,2.44
4617.00,2.44
4616.00,2.44
4615.00,2.44
4614.00,2.44
4613.00,2.44
4612.00,2.44
4611.00,2.45
4610.00,2.45
4609.00,2.45
4608.00,2.45
4607.00,2.45
4606.00,2.45
4605.00,2.45
4604.00,2.45
4603.00,2.46
4602.00,2.46
4601.00,2.46
4600.00,2.46
4599.00,2.46
4598.00,2.46
4597.00,2.46
4596.00,2.46
4595.00,2.46
4594.00,2.46
4593.00,2.46
4592.00,2.46
4591.00,2.46
4590.00,2.46
4589.00,2.46
4588.00,2.46
4587.00,2.46
4586.00,2.46
4585.00,2.46
4584.00,2.46
4583.00,2.46
4582.00,2.46
4581.00,2.45
4580.00,2.45
4579.00,2.45
4578.00,2.45
4577.00,2.45
4576.00,2.45
4575.00,2.45
4574.00,2.45
4573.00,2.45
4572.00,2.45
4571.00,2.45
4570.00,2.45
4569.00,2.45
4568.00,2.45
4567.00,2.45
4566.00,2.45
4565.00,2.45
4564.00,2.45
4563.00,2.45
4562.00,2.45
4561.00,2.45
4560.00,2.45
4559.00,2.45
4558.00,2.45
4557.00,2.45
4556.00,2.45
4555.00,2.45
4554.00,2.45
4553.00,2.45
4552.00,2.45
4551.00,2.45
4550.00,2.45
4549.00,2.45
4548.00,2.45
4547.00,2.44
4546.00,2.44
4545.00,2.44
4544.00,2.44
4543.00,2.44
4542.00,2.43
4541.00,2.43
4540.00,2.43
4539.00,2.43
4538.00,2.43
4537.00,2.43
4536.00,2.43
4535.00,2.43
4534.00,2.43
4533.00,2.42
4532.00,2.42
4531.00,2.42
4530.00,2.43
4529.00,2.43
4528.00,2.43
4527.00,2.43
4526.00,2.43
4525.00,2.44
4524.00,2.44
4523.00,2.44
4522.00,2.44
4521.00,2.45
4520.00,2.45
4519.00,2.45
4518.00,2.45
4517.00,2.46
4516.00,2.46
4515.00,2.46
4514.00,2.47
4513.00,2.47
4512.00,2.47
4511.00,2.48
4510.00,2.48
4509.00,2.48
4508.00,2.48
4507.00,2.48
4506.00,2.48
4505.00,2.48
4504.00,2.48
4503.00,2.48
4502.00,2.48
4501.00,2.48
4500.00,2.47
4499.00,2.47
4498.00,2.47
4497.00,2.47
4496.00,2.47
4495.00,2.46
4494.00,2.46
4493.00,2.46
4492.00,2.46
4491.00,2.46
4490.00,2.46
4489.00,2.45
4488.00,2.45
4487.00,2.45
4486.00,2.45
4485.00,2.45
4484.00,2.44
4483.00,2.44
4482.00,2.44
4481.00,2.44
4480.00,2.44
4479.00,2.44
4478.00,2.45
4477.00,2.45
4476.00,2.45
4475.00,2.45
4474.00,2.45
4473.00,2.45
4472.00,2.45
4471.00,2.45
4470.00,2.45
4469.00,2.46
4468.00,2.45
4467.00,2.45
4466.00,2.45
4465.00,2.45
4464.00,2.45
4463.00,2.45
4462.00,2.45
4461.00,2.44
4460.00,2.44
4459.00,2.44
4458.00,2.44
4457.00,2.43
4456.00,2.43
4455.00,2.43
4454.00,2.42
4453.00,2.42
4452.00,2.41
4451.00,2.41
4450.00,2.40
4449.00,2.39
4448.00,2.39
4447.00,2.38
4446.00,2.38
4445.00,2.37
4444.00,2.36
4443.00,2.36
4442.00,2.35
4441.00,2.34
4440.00,2.33
4439.00,2.33
4438.00,2.32
4437.00,2.31
4436.00,2.30
4435.00,2.29
4434.00,2.28
4433.00,2.27
4432.00,2.27
4431.00,2.26
4430.00,2.25
4429.00,2.24
4428.00,2.23
4427.00,2.22
4426.00,2.21
4425.00,2.20
4424.00,2.19
4423.00,2.18
4422.00,2.17
4421.00,2.16
4420.00,2.15
4419.00,2.15
4418.00,2.14
4417.00,2.13
4416.00,2.13
4415.00,2.12
4414.00,2.12
4413.00,2.11
4412.00,2.11
4411.00,2.11
4410.00,2.11
4409.00,2.11
4408.00,2.11
4407.00,2.11
4406.00,2.11
4405.00,2.12
4404.00,2.12
4403.00,2.12
4402.00,2.12
4401.00,2.13
4400.00,2.13
4399.00,2.14
4398.00,2.15
4397.00,2.15
4396.00,2.16
4395.00,2.17
4394.00,2.18
4393.00,2.18
4392.00,2.19
4391.00,2.20
4390.00,2.21
4389.00,2.21
4388.00,2.22
4387.00,2.22
4386.00,2.23
4385.00,2.23
4384.00,2.24
4383.00,2.24
4382.00,2.24
4381.00,2.25
4380.00,2.25
4379.00,2.25
4378.00,2.25
4377.00,2.25
4376.00,2.25
4375.00,2.25
4374.00,2.25
4373.00,2.25
4372.00,2.24
4371.00,2.24
4370.00,2.24
4369.00,2.23
4368.00,2.23
4367.00,2.22
4366.00,2.21
4365.00,2.21
4364.00,2.20
4363.00,2.20
4362.00,2.19
4361.00,2.19
4360.00,2.18
4359.00,2.18
4358.00,2.17
4357.00,2.17
4356.00,2.16
4355.00,2.16
4354.00,2.16
4353.00,2.16
4352.00,2.15
4351.00,2.15
4350.00,2.15
4349.00,2.15
4348.00,2.15
4347.00,2.15
4346.00,2.15
4345.00,2.15
4344.00,2.15
4343.00,2.15
4342.00,2.15
4341.00,2.16
4340.00,2.16
4339.00,2.16
4338.00,2.17
4337.00,2.17
4336.00,2.17
4335.00,2.18
4334.00,2.18
4333.00,2.19
4332.00,2.19
4331.00,2.19
4330.00,2.20
4329.00,2.20
4328.00,2.21
4327.00,2.21
4326.00,2.22
4325.00,2.22
4324.00,2.23
4323.00,2.24
4322.00,2.24
4321.00,2.25
4320.00,2.25
4319.00,2.26
4318.00,2.27
4317.00,2.27
4316.00,2.28
4315.00,2.28
4314.00,2.29
4313.00,2.29
4312.00,2.30
4311.00,2.30
4310.00,2.31
4309.00,2.31
4308.00,2.32
4307.00,2.32
4306.00,2.33
4305.00,2.33
4304.00,2.34
4303.00,2.35
4302.00,2.35
4301.00,2.36
4300.00,2.36
4299.00,2.37
4298.00,2.37
4297.00,2.38
4296.00,2.38
4295.00,2.39
4294.00,2.39
4293.00,2.40
4292.00,2.40
4291.00,2.40
4290.00,2.41
4289.00,2.41
4288.00,2.42
4287.00,2.42
4286.00,2.42
4285.00,2.43
4284.00,2.43
4283.00,2.43
4282.00,2.43
4281.00,2.44
4280.00,2.44
4279.00,2.44
4278.00,2.44
4277.00,2.43
4276.00,2.43
4275.00,2.43
4274.00,2.42
4273.00,2.42
4272.00,2.41
4271.00,2.41
4270.00,2.40
4269.00,2.39
4268.00,2.39
4267.00,2.38
4266.00,2.37
4265.00,2.36
4264.00,2.36
4263.00,2.35
4262.00,2.34
4261.00,2.33
4260.00,2.32
4259.00,2.31
4258.00,2.30
4257.00,2.29
4256.00,2.29
4255.00,2.28
4254.00,2.27
4253.00,2.27
4252.00,2.26
4251.00,2.26
4250.00,2.26
4249.00,2.25
4248.00,2.25
4247.00,2.25
4246.00,2.25
4245.00,2.24
4244.00,2.24
4243.00,2.24
4242.00,2.24
4241.00,2.24
4240.00,2.25
4239.00,2.25
4238.00,2.26
4237.00,2.26
4236.00,2.27
4235.00,2.27
4234.00,2.28
4233.00,2.29
4232.00,2.29
4231.00,2.30
4230.00,2.31
4229.00,2.31
4228.00,2.32
4227.00,2.32
4226.00,2.33
4225.00,2.33
4224.00,2.34
4223.00,2.34
4222.00,2.35
4221.00,2.35
4220.00,2.36
4219.00,2.36
4218.00,2.37
4217.00,2.38
4216.00,2.38
4215.00,2.39
4214.00,2.39
4213.00,2.40
4212.00,2.40
4211.00,2.40
4210.00,2.41
4209.00,2.41
4208.00,2.41
4207.00,2.41
4206.00,2.42
4205.00,2.42
4204.00,2.42
4203.00,2.43
4202.00,2.43
4201.00,2.43
4200.00,2.44
4199.00,2.44
4198.00,2.44
4197.00,2.45
4196.00,2.45
4195.00,2.46
4194.00,2.46
4193.00,2.46
4192.00,2.46
4191.00,2.46
4190.00,2.46
4189.00,2.46
4188.00,2.46
4187.00,2.47
4186.00,2.47
4185.00,2.47
4184.00,2.47
4183.00,2.47
4182.00,2.47
4181.00,2.47
4180.00,2.47
4179.00,2.46
4178.00,2.46
4177.00,2.46
4176.00,2.46
4175.00,2.45
4174.00,2.45
4173.00,2.45
4172.00,2.45
4171.00,2.44
4170.00,2.44
4169.00,2.43
4168.00,2.43
4167.00,2.42
4166.00,2.42
4165.00,2.41
4164.00,2.40
4163.00,2.39
4162.00,2.39
4161.00,2.38
4160.00,2.37
4159.00,2.37
4158.00,2.36
4157.00,2.35
4156.00,2.34
4155.00,2.34
4154.00,2.33
4153.00,2.32
4152.00,2.32
4151.00,2.31
4150.00,2.30
4149.00,2.30
4148.00,2.29
4147.00,2.28
4146.00,2.28
4145.00,2.27
4144.00,2.27
4143.00,2.26
4142.00,2.26
4141.00,2.26
4140.00,2.27
4139.00,2.27
4138.00,2.28
4137.00,2.28
4136.00,2.29
4135.00,2.29
4134.00,2.30
4133.00,2.31
4132.00,2.31
4131.00,2.32
4130.00,2.32
4129.00,2.33
4128.00,2.34
4127.00,2.34
4126.00,2.35
4125.00,2.36
4124.00,2.36
4123.00,2.37
4122.00,2.38
4121.00,2.38
4120.00,2.39
4119.00,2.39
4118.00,2.40
4117.00,2.40
4116.00,2.40
4115.00,2.40
4114.00,2.40
4113.00,2.40
4112.00,2.39
4111.00,2.39
4110.00,2.38
4109.00,2.38
4108.00,2.37
4107.00,2.36
4106.00,2.36
4105.00,2.35
4104.00,2.34
4103.00,2.34
4102.00,2.33
4101.00,2.33
4100.00,2.32
4099.00,2.31
4098.00,2.31
4097.00,2.30
4096.00,2.29
4095.00,2.29
4094.00,2.28
4093.00,2.28
4092.00,2.27
4091.00,2.26
4090.00,2.26
4089.00,2.25
4088.00,2.25
4087.00,2.24
4086.00,2.24
4085.00,2.24
4084.00,2.23
4083.00,2.23
4082.00,2.22
4081.00,2.22
4080.00,2.22
4079.00,2.22
4078.00,2.22
4077.00,2.22
4076.00,2.21
4075.00,2.21
4074.00,2.21
4073.00,2.21
4072.00,2.21
4071.00,2.21
4070.00,2.21
4069.00,2.21
4068.00,2.21
4067.00,2.21
4066.00,2.21
4065.00,2.21
4064.00,2.21
4063.00,2.21
4062.00,2.22
4061.00,2.22
4060.00,2.22
4059.00,2.23
4058.00,2.23
4057.00,2.24
4056.00,2.25
4055.00,2.26
4054.00,2.27
4053.00,2.28
4052.00,2.29
4051.00,2.30
4050.00,2.30
4049.00,2.31
4048.00,2.32
4047.00,2.32
4046.00,2.33
4045.00,2.33
4044.00,2.34
4043.00,2.35
4042.00,2.35
4041.00,2.36
4040.00,2.37
4039.00,2.37
4038.00,2.37
4037.00,2.38
4036.00,2.38
4035.00,2.38
4034.00,2.38
4033.00,2.39
4032.00,2.39
4031.00,2.39
4030.00,2.39
4029.00,2.39
4028.00,2.38
4027.00,2.38
4026.00,2.37
4025.00,2.37
4024.00,2.37
4023.00,2.37
4022.00,2.37
4021.00,2.37
4020.00,2.38
4019.00,2.38
4018.00,2.39
4017.00,2.39
4016.00,2.40
4015.00,2.41
4014.00,2.41
4013.00,2.43
4012.00,2.44
4011.00,2.45
4010.00,2.47
4009.00,2.49
4008.00,2.50
4007.00,2.52
4006.00,2.54
4005.00,2.56
4004.00,2.57
4003.00,2.60
4002.00,2.62
4001.00,2.64
4000.00,2.67
