创建为新数据集,样品 1062 用户 Administrator 日期 星期二, 七月 30 2019
cm-1,%T
10000.00,3.93
9999.00,3.95
9998.00,3.96
9997.00,3.98
9996.00,3.99
9995.00,3.99
9994.00,3.99
9993.00,3.99
9992.00,3.98
9991.00,3.96
9990.00,3.94
9989.00,3.91
9988.00,3.88
9987.00,3.84
9986.00,3.80
9985.00,3.75
9984.00,3.70
9983.00,3.65
9982.00,3.60
9981.00,3.54
9980.00,3.49
9979.00,3.43
9978.00,3.37
9977.00,3.31
9976.00,3.25
9975.00,3.18
9974.00,3.12
9973.00,3.05
9972.00,2.98
9971.00,2.92
9970.00,2.86
9969.00,2.80
9968.00,2.75
9967.00,2.70
9966.00,2.66
9965.00,2.62
9964.00,2.59
9963.00,2.56
9962.00,2.53
9961.00,2.51
9960.00,2.49
9959.00,2.47
9958.00,2.45
9957.00,2.44
9956.00,2.42
9955.00,2.40
9954.00,2.38
9953.00,2.37
9952.00,2.36
9951.00,2.36
9950.00,2.36
9949.00,2.36
9948.00,2.38
9947.00,2.40
9946.00,2.43
9945.00,2.46
9944.00,2.50
9943.00,2.54
9942.00,2.58
9941.00,2.62
9940.00,2.65
9939.00,2.69
9938.00,2.73
9937.00,2.76
9936.00,2.80
9935.00,2.84
9934.00,2.87
9933.00,2.91
9932.00,2.96
9931.00,3.00
9930.00,3.05
9929.00,3.09
9928.00,3.14
9927.00,3.19
9926.00,3.24
9925.00,3.28
9924.00,3.31
9923.00,3.34
9922.00,3.37
9921.00,3.38
9920.00,3.39
9919.00,3.39
9918.00,3.39
9917.00,3.38
9916.00,3.37
9915.00,3.36
9914.00,3.35
9913.00,3.34
9912.00,3.32
9911.00,3.31
9910.00,3.30
9909.00,3.29
9908.00,3.28
9907.00,3.27
9906.00,3.26
9905.00,3.25
9904.00,3.23
9903.00,3.22
9902.00,3.19
9901.00,3.17
9900.00,3.14
9899.00,3.10
9898.00,3.07
9897.00,3.03
9896.00,2.98
9895.00,2.94
9894.00,2.89
9893.00,2.85
9892.00,2.81
9891.00,2.77
9890.00,2.73
9889.00,2.69
9888.00,2.66
9887.00,2.63
9886.00,2.60
9885.00,2.58
9884.00,2.55
9883.00,2.52
9882.00,2.50
9881.00,2.47
9880.00,2.44
9879.00,2.41
9878.00,2.38
9877.00,2.35
9876.00,2.33
9875.00,2.31
9874.00,2.29
9873.00,2.28
9872.00,2.28
9871.00,2.28
9870.00,2.29
9869.00,2.31
9868.00,2.33
9867.00,2.36
9866.00,2.38
9865.00,2.41
9864.00,2.43
9863.00,2.46
9862.00,2.48
9861.00,2.50
9860.00,2.51
9859.00,2.53
9858.00,2.54
9857.00,2.56
9856.00,2.57
9855.00,2.58
9854.00,2.59
9853.00,2.61
9852.00,2.62
9851.00,2.63
9850.00,2.64
9849.00,2.64
9848.00,2.64
9847.00,2.64
9846.00,2.63
9845.00,2.62
9844.00,2.60
9843.00,2.58
9842.00,2.55
9841.00,2.53
9840.00,2.50
9839.00,2.46
9838.00,2.43
9837.00,2.40
9836.00,2.36
9835.00,2.32
9834.00,2.28
9833.00,2.24
9832.00,2.20
9831.00,2.15
9830.00,2.11
9829.00,2.06
9828.00,2.02
9827.00,1.98
9826.00,1.94
9825.00,1.91
9824.00,1.88
9823.00,1.85
9822.00,1.83
9821.00,1.81
9820.00,1.80
9819.00,1.79
9818.00,1.78
9817.00,1.78
9816.00,1.77
9815.00,1.77
9814.00,1.77
9813.00,1.77
9812.00,1.77
9811.00,1.78
9810.00,1.79
9809.00,1.80
9808.00,1.81
9807.00,1.83
9806.00,1.85
9805.00,1.87
9804.00,1.90
9803.00,1.92
9802.00,1.94
9801.00,1.96
9800.00,1.97
9799.00,1.98
9798.00,1.99
9797.00,2.00
9796.00,2.00
9795.00,2.00
9794.00,2.00
9793.00,2.00
9792.00,2.00
9791.00,2.00
9790.00,2.00
9789.00,2.01
9788.00,2.01
9787.00,2.01
9786.00,2.02
9785.00,2.02
9784.00,2.03
9783.00,2.03
9782.00,2.04
9781.00,2.04
9780.00,2.05
9779.00,2.06
9778.00,2.07
9777.00,2.08
9776.00,2.10
9775.00,2.11
9774.00,2.13
9773.00,2.15
9772.00,2.17
9771.00,2.19
9770.00,2.22
9769.00,2.24
9768.00,2.26
9767.00,2.29
9766.00,2.31
9765.00,2.33
9764.00,2.35
9763.00,2.36
9762.00,2.38
9761.00,2.39
9760.00,2.41
9759.00,2.42
9758.00,2.43
9757.00,2.44
9756.00,2.45
9755.00,2.46
9754.00,2.47
9753.00,2.47
9752.00,2.47
9751.00,2.47
9750.00,2.46
9749.00,2.46
9748.00,2.45
9747.00,2.43
9746.00,2.42
9745.00,2.41
9744.00,2.39
9743.00,2.38
9742.00,2.36
9741.00,2.35
9740.00,2.33
9739.00,2.31
9738.00,2.29
9737.00,2.27
9736.00,2.24
9735.00,2.22
9734.00,2.19
9733.00,2.16
9732.00,2.14
9731.00,2.10
9730.00,2.07
9729.00,2.04
9728.00,2.01
9727.00,1.98
9726.00,1.96
9725.00,1.93
9724.00,1.91
9723.00,1.89
9722.00,1.87
9721.00,1.86
9720.00,1.85
9719.00,1.84
9718.00,1.84
9717.00,1.83
9716.00,1.83
9715.00,1.82
9714.00,1.82
9713.00,1.82
9712.00,1.82
9711.00,1.83
9710.00,1.83
9709.00,1.84
9708.00,1.86
9707.00,1.87
9706.00,1.89
9705.00,1.91
9704.00,1.93
9703.00,1.96
9702.00,1.98
9701.00,2.00
9700.00,2.01
9699.00,2.03
9698.00,2.04
9697.00,2.05
9696.00,2.05
9695.00,2.05
9694.00,2.05
9693.00,2.05
9692.00,2.04
9691.00,2.03
9690.00,2.02
9689.00,2.01
9688.00,2.00
9687.00,1.99
9686.00,1.97
9685.00,1.95
9684.00,1.93
9683.00,1.90
9682.00,1.88
9681.00,1.85
9680.00,1.82
9679.00,1.79
9678.00,1.75
9677.00,1.72
9676.00,1.69
9675.00,1.66
9674.00,1.63
9673.00,1.60
9672.00,1.58
9671.00,1.56
9670.00,1.54
9669.00,1.52
9668.00,1.51
9667.00,1.50
9666.00,1.49
9665.00,1.48
9664.00,1.48
9663.00,1.47
9662.00,1.47
9661.00,1.47
9660.00,1.48
9659.00,1.48
9658.00,1.49
9657.00,1.51
9656.00,1.52
9655.00,1.54
9654.00,1.56
9653.00,1.57
9652.00,1.59
9651.00,1.61
9650.00,1.63
9649.00,1.65
9648.00,1.66
9647.00,1.68
9646.00,1.69
9645.00,1.71
9644.00,1.72
9643.00,1.73
9642.00,1.74
9641.00,1.75
9640.00,1.76
9639.00,1.77
9638.00,1.77
9637.00,1.78
9636.00,1.78
9635.00,1.78
9634.00,1.78
9633.00,1.78
9632.00,1.77
9631.00,1.76
9630.00,1.75
9629.00,1.74
9628.00,1.73
9627.00,1.72
9626.00,1.71
9625.00,1.70
9624.00,1.69
9623.00,1.69
9622.00,1.69
9621.00,1.68
9620.00,1.68
9619.00,1.69
9618.00,1.69
9617.00,1.69
9616.00,1.70
9615.00,1.70
9614.00,1.71
9613.00,1.72
9612.00,1.73
9611.00,1.74
9610.00,1.75
9609.00,1.76
9608.00,1.78
9607.00,1.80
9606.00,1.81
9605.00,1.83
9604.00,1.85
9603.00,1.87
9602.00,1.89
9601.00,1.91
9600.00,1.93
9599.00,1.95
9598.00,1.97
9597.00,1.98
9596.00,1.99
9595.00,2.00
9594.00,2.01
9593.00,2.01
9592.00,2.02
9591.00,2.01
9590.00,2.01
9589.00,2.00
9588.00,1.99
9587.00,1.98
9586.00,1.96
9585.00,1.94
9584.00,1.92
9583.00,1.90
9582.00,1.88
9581.00,1.85
9580.00,1.83
9579.00,1.81
9578.00,1.78
9577.00,1.76
9576.00,1.74
9575.00,1.72
9574.00,1.70
9573.00,1.67
9572.00,1.65
9571.00,1.63
9570.00,1.61
9569.00,1.59
9568.00,1.58
9567.00,1.56
9566.00,1.54
9565.00,1.53
9564.00,1.52
9563.00,1.51
9562.00,1.51
9561.00,1.50
9560.00,1.50
9559.00,1.50
9558.00,1.51
9557.00,1.51
9556.00,1.52
9555.00,1.53
9554.00,1.54
9553.00,1.55
9552.00,1.56
9551.00,1.57
9550.00,1.59
9549.00,1.61
9548.00,1.62
9547.00,1.64
9546.00,1.67
9545.00,1.69
9544.00,1.71
9543.00,1.73
9542.00,1.76
9541.00,1.78
9540.00,1.80
9539.00,1.83
9538.00,1.85
9537.00,1.87
9536.00,1.89
9535.00,1.92
9534.00,1.94
9533.00,1.96
9532.00,1.98
9531.00,2.00
9530.00,2.02
9529.00,2.04
9528.00,2.06
9527.00,2.07
9526.00,2.09
9525.00,2.10
9524.00,2.10
9523.00,2.11
9522.00,2.12
9521.00,2.12
9520.00,2.12
9519.00,2.12
9518.00,2.13
9517.00,2.13
9516.00,2.13
9515.00,2.13
9514.00,2.14
9513.00,2.14
9512.00,2.14
9511.00,2.15
9510.00,2.15
9509.00,2.16
9508.00,2.17
9507.00,2.17
9506.00,2.18
9505.00,2.18
9504.00,2.19
9503.00,2.19
9502.00,2.20
9501.00,2.21
9500.00,2.22
9499.00,2.23
9498.00,2.24
9497.00,2.25
9496.00,2.26
9495.00,2.27
9494.00,2.28
9493.00,2.29
9492.00,2.30
9491.00,2.30
9490.00,2.31
9489.00,2.31
9488.00,2.31
9487.00,2.30
9486.00,2.30
9485.00,2.29
9484.00,2.29
9483.00,2.28
9482.00,2.27
9481.00,2.26
9480.00,2.25
9479.00,2.24
9478.00,2.22
9477.00,2.21
9476.00,2.19
9475.00,2.17
9474.00,2.15
9473.00,2.13
9472.00,2.11
9471.00,2.09
9470.00,2.06
9469.00,2.04
9468.00,2.02
9467.00,2.00
9466.00,1.99
9465.00,1.97
9464.00,1.95
9463.00,1.94
9462.00,1.92
9461.00,1.91
9460.00,1.90
9459.00,1.89
9458.00,1.89
9457.00,1.88
9456.00,1.88
9455.00,1.88
9454.00,1.89
9453.00,1.89
9452.00,1.90
9451.00,1.91
9450.00,1.92
9449.00,1.93
9448.00,1.94
9447.00,1.96
9446.00,1.97
9445.00,1.99
9444.00,2.01
9443.00,2.03
9442.00,2.06
9441.00,2.08
9440.00,2.10
9439.00,2.13
9438.00,2.16
9437.00,2.18
9436.00,2.21
9435.00,2.24
9434.00,2.27
9433.00,2.29
9432.00,2.32
9431.00,2.35
9430.00,2.37
9429.00,2.39
9428.00,2.41
9427.00,2.43
9426.00,2.45
9425.00,2.47
9424.00,2.48
9423.00,2.50
9422.00,2.51
9421.00,2.52
9420.00,2.53
9419.00,2.53
9418.00,2.54
9417.00,2.54
9416.00,2.54
9415.00,2.53
9414.00,2.53
9413.00,2.52
9412.00,2.51
9411.00,2.50
9410.00,2.49
9409.00,2.48
9408.00,2.47
9407.00,2.46
9406.00,2.44
9405.00,2.43
9404.00,2.42
9403.00,2.40
9402.00,2.39
9401.00,2.38
9400.00,2.37
9399.00,2.36
9398.00,2.35
9397.00,2.34
9396.00,2.33
9395.00,2.33
9394.00,2.32
9393.00,2.32
9392.00,2.32
9391.00,2.32
9390.00,2.32
9389.00,2.33
9388.00,2.33
9387.00,2.33
9386.00,2.34
9385.00,2.34
9384.00,2.34
9383.00,2.35
9382.00,2.35
9381.00,2.36
9380.00,2.36
9379.00,2.37
9378.00,2.37
9377.00,2.37
9376.00,2.38
9375.00,2.38
9374.00,2.38
9373.00,2.38
9372.00,2.38
9371.00,2.38
9370.00,2.37
9369.00,2.36
9368.00,2.35
9367.00,2.34
9366.00,2.32
9365.00,2.30
9364.00,2.29
9363.00,2.27
9362.00,2.25
9361.00,2.23
9360.00,2.21
9359.00,2.19
9358.00,2.17
9357.00,2.15
9356.00,2.13
9355.00,2.11
9354.00,2.09
9353.00,2.07
9352.00,2.06
9351.00,2.04
9350.00,2.02
9349.00,2.00
9348.00,1.99
9347.00,1.97
9346.00,1.96
9345.00,1.95
9344.00,1.94
9343.00,1.93
9342.00,1.92
9341.00,1.92
9340.00,1.92
9339.00,1.93
9338.00,1.93
9337.00,1.94
9336.00,1.94
9335.00,1.95
9334.00,1.96
9333.00,1.97
9332.00,1.99
9331.00,2.00
9330.00,2.01
9329.00,2.02
9328.00,2.02
9327.00,2.03
9326.00,2.04
9325.00,2.04
9324.00,2.05
9323.00,2.05
9322.00,2.05
9321.00,2.04
9320.00,2.04
9319.00,2.04
9318.00,2.03
9317.00,2.03
9316.00,2.02
9315.00,2.01
9314.00,2.01
9313.00,2.00
9312.00,1.99
9311.00,1.98
9310.00,1.97
9309.00,1.96
9308.00,1.95
9307.00,1.94
9306.00,1.93
9305.00,1.93
9304.00,1.92
9303.00,1.92
9302.00,1.92
9301.00,1.92
9300.00,1.92
9299.00,1.93
9298.00,1.94
9297.00,1.95
9296.00,1.97
9295.00,1.99
9294.00,2.01
9293.00,2.03
9292.00,2.05
9291.00,2.08
9290.00,2.10
9289.00,2.12
9288.00,2.14
9287.00,2.17
9286.00,2.19
9285.00,2.21
9284.00,2.23
9283.00,2.25
9282.00,2.27
9281.00,2.29
9280.00,2.30
9279.00,2.31
9278.00,2.32
9277.00,2.33
9276.00,2.33
9275.00,2.33
9274.00,2.33
9273.00,2.33
9272.00,2.32
9271.00,2.32
9270.00,2.31
9269.00,2.30
9268.00,2.30
9267.00,2.29
9266.00,2.28
9265.00,2.27
9264.00,2.26
9263.00,2.25
9262.00,2.24
9261.00,2.23
9260.00,2.22
9259.00,2.21
9258.00,2.20
9257.00,2.19
9256.00,2.19
9255.00,2.18
9254.00,2.18
9253.00,2.17
9252.00,2.17
9251.00,2.17
9250.00,2.17
9249.00,2.17
9248.00,2.18
9247.00,2.18
9246.00,2.18
9245.00,2.18
9244.00,2.18
9243.00,2.18
9242.00,2.18
9241.00,2.17
9240.00,2.16
9239.00,2.16
9238.00,2.15
9237.00,2.14
9236.00,2.13
9235.00,2.13
9234.00,2.12
9233.00,2.11
9232.00,2.11
9231.00,2.10
9230.00,2.09
9229.00,2.09
9228.00,2.08
9227.00,2.07
9226.00,2.07
9225.00,2.06
9224.00,2.05
9223.00,2.05
9222.00,2.04
9221.00,2.04
9220.00,2.04
9219.00,2.03
9218.00,2.03
9217.00,2.04
9216.00,2.04
9215.00,2.04
9214.00,2.05
9213.00,2.05
9212.00,2.06
9211.00,2.07
9210.00,2.08
9209.00,2.09
9208.00,2.09
9207.00,2.10
9206.00,2.10
9205.00,2.11
9204.00,2.11
9203.00,2.12
9202.00,2.12
9201.00,2.12
9200.00,2.13
9199.00,2.13
9198.00,2.14
9197.00,2.15
9196.00,2.15
9195.00,2.16
9194.00,2.17
9193.00,2.17
9192.00,2.18
9191.00,2.18
9190.00,2.19
9189.00,2.19
9188.00,2.20
9187.00,2.20
9186.00,2.20
9185.00,2.20
9184.00,2.20
9183.00,2.20
9182.00,2.20
9181.00,2.20
9180.00,2.19
9179.00,2.19
9178.00,2.19
9177.00,2.19
9176.00,2.18
9175.00,2.18
9174.00,2.17
9173.00,2.17
9172.00,2.16
9171.00,2.15
9170.00,2.14
9169.00,2.13
9168.00,2.12
9167.00,2.10
9166.00,2.09
9165.00,2.08
9164.00,2.06
9163.00,2.05
9162.00,2.04
9161.00,2.02
9160.00,2.01
9159.00,2.00
9158.00,1.99
9157.00,1.98
9156.00,1.97
9155.00,1.97
9154.00,1.96
9153.00,1.95
9152.00,1.95
9151.00,1.94
9150.00,1.93
9149.00,1.92
9148.00,1.92
9147.00,1.91
9146.00,1.90
9145.00,1.89
9144.00,1.88
9143.00,1.87
9142.00,1.86
9141.00,1.85
9140.00,1.84
9139.00,1.83
9138.00,1.83
9137.00,1.82
9136.00,1.81
9135.00,1.81
9134.00,1.80
9133.00,1.80
9132.00,1.80
9131.00,1.80
9130.00,1.80
9129.00,1.80
9128.00,1.80
9127.00,1.81
9126.00,1.81
9125.00,1.82
9124.00,1.83
9123.00,1.85
9122.00,1.86
9121.00,1.88
9120.00,1.90
9119.00,1.92
9118.00,1.94
9117.00,1.96
9116.00,1.98
9115.00,2.00
9114.00,2.03
9113.00,2.05
9112.00,2.07
9111.00,2.10
9110.00,2.12
9109.00,2.14
9108.00,2.15
9107.00,2.17
9106.00,2.18
9105.00,2.18
9104.00,2.19
9103.00,2.19
9102.00,2.18
9101.00,2.18
9100.00,2.17
9099.00,2.16
9098.00,2.15
9097.00,2.14
9096.00,2.14
9095.00,2.12
9094.00,2.11
9093.00,2.10
9092.00,2.09
9091.00,2.08
9090.00,2.06
9089.00,2.05
9088.00,2.04
9087.00,2.03
9086.00,2.02
9085.00,2.01
9084.00,2.00
9083.00,1.99
9082.00,1.98
9081.00,1.97
9080.00,1.97
9079.00,1.96
9078.00,1.96
9077.00,1.97
9076.00,1.97
9075.00,1.98
9074.00,1.99
9073.00,1.99
9072.00,2.00
9071.00,2.01
9070.00,2.02
9069.00,2.03
9068.00,2.03
9067.00,2.04
9066.00,2.04
9065.00,2.04
9064.00,2.04
9063.00,2.04
9062.00,2.04
9061.00,2.04
9060.00,2.04
9059.00,2.04
9058.00,2.04
9057.00,2.04
9056.00,2.04
9055.00,2.04
9054.00,2.04
9053.00,2.05
9052.00,2.05
9051.00,2.05
9050.00,2.06
9049.00,2.06
9048.00,2.07
9047.00,2.07
9046.00,2.07
9045.00,2.07
9044.00,2.07
9043.00,2.08
9042.00,2.08
9041.00,2.08
9040.00,2.08
9039.00,2.09
9038.00,2.09
9037.00,2.10
9036.00,2.10
9035.00,2.11
9034.00,2.11
9033.00,2.12
9032.00,2.12
9031.00,2.12
9030.00,2.12
9029.00,2.12
9028.00,2.11
9027.00,2.10
9026.00,2.09
9025.00,2.07
9024.00,2.05
9023.00,2.03
9022.00,2.01
9021.00,1.99
9020.00,1.97
9019.00,1.95
9018.00,1.94
9017.00,1.92
9016.00,1.90
9015.00,1.89
9014.00,1.87
9013.00,1.86
9012.00,1.85
9011.00,1.83
9010.00,1.82
9009.00,1.81
9008.00,1.80
9007.00,1.78
9006.00,1.78
9005.00,1.77
9004.00,1.77
9003.00,1.77
9002.00,1.77
9001.00,1.78
9000.00,1.79
8999.00,1.81
8998.00,1.82
8997.00,1.85
8996.00,1.87
8995.00,1.89
8994.00,1.91
8993.00,1.94
8992.00,1.96
8991.00,1.98
8990.00,1.99
8989.00,2.01
8988.00,2.02
8987.00,2.03
8986.00,2.04
8985.00,2.04
8984.00,2.05
8983.00,2.06
8982.00,2.07
8981.00,2.08
8980.00,2.09
8979.00,2.10
8978.00,2.10
8977.00,2.11
8976.00,2.11
8975.00,2.10
8974.00,2.10
8973.00,2.09
8972.00,2.08
8971.00,2.07
8970.00,2.06
8969.00,2.05
8968.00,2.04
8967.00,2.03
8966.00,2.02
8965.00,2.01
8964.00,2.01
8963.00,2.01
8962.00,2.01
8961.00,2.01
8960.00,2.02
8959.00,2.02
8958.00,2.03
8957.00,2.04
8956.00,2.04
8955.00,2.05
8954.00,2.05
8953.00,2.06
8952.00,2.07
8951.00,2.08
8950.00,2.09
8949.00,2.10
8948.00,2.10
8947.00,2.11
8946.00,2.12
8945.00,2.13
8944.00,2.14
8943.00,2.14
8942.00,2.15
8941.00,2.15
8940.00,2.16
8939.00,2.16
8938.00,2.16
8937.00,2.17
8936.00,2.17
8935.00,2.17
8934.00,2.17
8933.00,2.17
8932.00,2.17
8931.00,2.17
8930.00,2.16
8929.00,2.16
8928.00,2.15
8927.00,2.15
8926.00,2.14
8925.00,2.14
8924.00,2.13
8923.00,2.12
8922.00,2.12
8921.00,2.12
8920.00,2.12
8919.00,2.11
8918.00,2.12
8917.00,2.12
8916.00,2.12
8915.00,2.12
8914.00,2.12
8913.00,2.12
8912.00,2.12
8911.00,2.11
8910.00,2.11
8909.00,2.10
8908.00,2.09
8907.00,2.08
8906.00,2.08
8905.00,2.07
8904.00,2.06
8903.00,2.05
8902.00,2.04
8901.00,2.04
8900.00,2.03
8899.00,2.02
8898.00,2.01
8897.00,2.01
8896.00,2.00
8895.00,1.99
8894.00,1.98
8893.00,1.97
8892.00,1.96
8891.00,1.96
8890.00,1.95
8889.00,1.94
8888.00,1.94
8887.00,1.94
8886.00,1.94
8885.00,1.94
8884.00,1.95
8883.00,1.96
8882.00,1.97
8881.00,1.99
8880.00,2.00
8879.00,2.02
8878.00,2.04
8877.00,2.06
8876.00,2.09
8875.00,2.11
8874.00,2.13
8873.00,2.16
8872.00,2.18
8871.00,2.21
8870.00,2.23
8869.00,2.25
8868.00,2.27
8867.00,2.29
8866.00,2.31
8865.00,2.32
8864.00,2.33
8863.00,2.35
8862.00,2.35
8861.00,2.36
8860.00,2.36
8859.00,2.36
8858.00,2.36
8857.00,2.36
8856.00,2.35
8855.00,2.34
8854.00,2.33
8853.00,2.32
8852.00,2.31
8851.00,2.29
8850.00,2.28
8849.00,2.27
8848.00,2.25
8847.00,2.23
8846.00,2.22
8845.00,2.20
8844.00,2.19
8843.00,2.18
8842.00,2.17
8841.00,2.16
8840.00,2.16
8839.00,2.15
8838.00,2.15
8837.00,2.15
8836.00,2.16
8835.00,2.17
8834.00,2.17
8833.00,2.18
8832.00,2.20
8831.00,2.21
8830.00,2.22
8829.00,2.23
8828.00,2.24
8827.00,2.25
8826.00,2.27
8825.00,2.28
8824.00,2.29
8823.00,2.30
8822.00,2.30
8821.00,2.31
8820.00,2.32
8819.00,2.33
8818.00,2.33
8817.00,2.34
8816.00,2.34
8815.00,2.34
8814.00,2.33
8813.00,2.32
8812.00,2.31
8811.00,2.30
8810.00,2.28
8809.00,2.27
8808.00,2.25
8807.00,2.23
8806.00,2.21
8805.00,2.19
8804.00,2.18
8803.00,2.16
8802.00,2.15
8801.00,2.14
8800.00,2.12
8799.00,2.11
8798.00,2.10
8797.00,2.10
8796.00,2.09
8795.00,2.08
8794.00,2.07
8793.00,2.06
8792.00,2.06
8791.00,2.05
8790.00,2.05
8789.00,2.05
8788.00,2.05
8787.00,2.06
8786.00,2.07
8785.00,2.08
8784.00,2.10
8783.00,2.11
8782.00,2.13
8781.00,2.15
8780.00,2.16
8779.00,2.18
8778.00,2.19
8777.00,2.21
8776.00,2.22
8775.00,2.23
8774.00,2.23
8773.00,2.24
8772.00,2.25
8771.00,2.25
8770.00,2.25
8769.00,2.26
8768.00,2.26
8767.00,2.26
8766.00,2.26
8765.00,2.25
8764.00,2.25
8763.00,2.24
8762.00,2.23
8761.00,2.22
8760.00,2.21
8759.00,2.19
8758.00,2.17
8757.00,2.15
8756.00,2.14
8755.00,2.11
8754.00,2.09
8753.00,2.08
8752.00,2.06
8751.00,2.04
8750.00,2.02
8749.00,2.00
8748.00,1.98
8747.00,1.97
8746.00,1.95
8745.00,1.93
8744.00,1.91
8743.00,1.90
8742.00,1.88
8741.00,1.87
8740.00,1.85
8739.00,1.84
8738.00,1.83
8737.00,1.82
8736.00,1.81
8735.00,1.80
8734.00,1.80
8733.00,1.79
8732.00,1.78
8731.00,1.78
8730.00,1.77
8729.00,1.77
8728.00,1.77
8727.00,1.77
8726.00,1.77
8725.00,1.77
8724.00,1.77
8723.00,1.78
8722.00,1.79
8721.00,1.80
8720.00,1.81
8719.00,1.82
8718.00,1.84
8717.00,1.86
8716.00,1.88
8715.00,1.90
8714.00,1.93
8713.00,1.95
8712.00,1.97
8711.00,1.99
8710.00,2.01
8709.00,2.03
8708.00,2.05
8707.00,2.07
8706.00,2.09
8705.00,2.11
8704.00,2.13
8703.00,2.15
8702.00,2.16
8701.00,2.18
8700.00,2.19
8699.00,2.20
8698.00,2.21
8697.00,2.21
8696.00,2.21
8695.00,2.21
8694.00,2.20
8693.00,2.19
8692.00,2.18
8691.00,2.16
8690.00,2.15
8689.00,2.13
8688.00,2.11
8687.00,2.10
8686.00,2.08
8685.00,2.07
8684.00,2.06
8683.00,2.05
8682.00,2.04
8681.00,2.02
8680.00,2.01
8679.00,2.00
8678.00,1.98
8677.00,1.97
8676.00,1.96
8675.00,1.94
8674.00,1.93
8673.00,1.92
8672.00,1.91
8671.00,1.91
8670.00,1.90
8669.00,1.90
8668.00,1.90
8667.00,1.91
8666.00,1.91
8665.00,1.91
8664.00,1.91
8663.00,1.91
8662.00,1.92
8661.00,1.92
8660.00,1.92
8659.00,1.92
8658.00,1.92
8657.00,1.92
8656.00,1.92
8655.00,1.92
8654.00,1.92
8653.00,1.93
8652.00,1.93
8651.00,1.94
8650.00,1.94
8649.00,1.95
8648.00,1.96
8647.00,1.96
8646.00,1.97
8645.00,1.97
8644.00,1.97
8643.00,1.98
8642.00,1.98
8641.00,1.98
8640.00,1.99
8639.00,1.99
8638.00,2.00
8637.00,2.01
8636.00,2.02
8635.00,2.03
8634.00,2.03
8633.00,2.04
8632.00,2.05
8631.00,2.06
8630.00,2.06
8629.00,2.07
8628.00,2.07
8627.00,2.07
8626.00,2.08
8625.00,2.08
8624.00,2.08
8623.00,2.09
8622.00,2.09
8621.00,2.10
8620.00,2.11
8619.00,2.12
8618.00,2.13
8617.00,2.14
8616.00,2.15
8615.00,2.16
8614.00,2.18
8613.00,2.19
8612.00,2.20
8611.00,2.21
8610.00,2.21
8609.00,2.22
8608.00,2.23
8607.00,2.23
8606.00,2.23
8605.00,2.23
8604.00,2.23
8603.00,2.24
8602.00,2.24
8601.00,2.24
8600.00,2.23
8599.00,2.23
8598.00,2.23
8597.00,2.23
8596.00,2.22
8595.00,2.22
8594.00,2.21
8593.00,2.21
8592.00,2.20
8591.00,2.19
8590.00,2.18
8589.00,2.18
8588.00,2.17
8587.00,2.16
8586.00,2.15
8585.00,2.14
8584.00,2.13
8583.00,2.12
8582.00,2.11
8581.00,2.11
8580.00,2.10
8579.00,2.10
8578.00,2.10
8577.00,2.10
8576.00,2.10
8575.00,2.10
8574.00,2.09
8573.00,2.09
8572.00,2.09
8571.00,2.09
8570.00,2.08
8569.00,2.07
8568.00,2.07
8567.00,2.06
8566.00,2.05
8565.00,2.04
8564.00,2.03
8563.00,2.02
8562.00,2.01
8561.00,2.00
8560.00,1.99
8559.00,1.98
8558.00,1.97
8557.00,1.96
8556.00,1.95
8555.00,1.94
8554.00,1.93
8553.00,1.92
8552.00,1.92
8551.00,1.91
8550.00,1.90
8549.00,1.89
8548.00,1.89
8547.00,1.88
8546.00,1.88
8545.00,1.88
8544.00,1.88
8543.00,1.88
8542.00,1.88
8541.00,1.88
8540.00,1.89
8539.00,1.89
8538.00,1.89
8537.00,1.90
8536.00,1.90
8535.00,1.91
8534.00,1.92
8533.00,1.93
8532.00,1.94
8531.00,1.95
8530.00,1.96
8529.00,1.97
8528.00,1.98
8527.00,1.99
8526.00,2.01
8525.00,2.02
8524.00,2.03
8523.00,2.05
8522.00,2.06
8521.00,2.07
8520.00,2.08
8519.00,2.10
8518.00,2.11
8517.00,2.12
8516.00,2.13
8515.00,2.14
8514.00,2.15
8513.00,2.16
8512.00,2.17
8511.00,2.18
8510.00,2.19
8509.00,2.19
8508.00,2.19
8507.00,2.19
8506.00,2.19
8505.00,2.19
8504.00,2.19
8503.00,2.18
8502.00,2.18
8501.00,2.17
8500.00,2.16
8499.00,2.15
8498.00,2.14
8497.00,2.12
8496.00,2.11
8495.00,2.09
8494.00,2.07
8493.00,2.05
8492.00,2.03
8491.00,2.01
8490.00,1.99
8489.00,1.97
8488.00,1.94
8487.00,1.92
8486.00,1.91
8485.00,1.89
8484.00,1.87
8483.00,1.86
8482.00,1.85
8481.00,1.84
8480.00,1.83
8479.00,1.83
8478.00,1.83
8477.00,1.82
8476.00,1.82
8475.00,1.82
8474.00,1.82
8473.00,1.83
8472.00,1.83
8471.00,1.84
8470.00,1.85
8469.00,1.86
8468.00,1.87
8467.00,1.89
8466.00,1.91
8465.00,1.92
8464.00,1.94
8463.00,1.96
8462.00,1.98
8461.00,2.00
8460.00,2.01
8459.00,2.03
8458.00,2.04
8457.00,2.05
8456.00,2.06
8455.00,2.07
8454.00,2.08
8453.00,2.08
8452.00,2.08
8451.00,2.09
8450.00,2.09
8449.00,2.09
8448.00,2.10
8447.00,2.10
8446.00,2.10
8445.00,2.11
8444.00,2.11
8443.00,2.11
8442.00,2.11
8441.00,2.11
8440.00,2.11
8439.00,2.11
8438.00,2.11
8437.00,2.11
8436.00,2.11
8435.00,2.11
8434.00,2.10
8433.00,2.10
8432.00,2.10
8431.00,2.10
8430.00,2.10
8429.00,2.10
8428.00,2.10
8427.00,2.10
8426.00,2.11
8425.00,2.11
8424.00,2.12
8423.00,2.12
8422.00,2.13
8421.00,2.13
8420.00,2.13
8419.00,2.14
8418.00,2.14
8417.00,2.14
8416.00,2.14
8415.00,2.14
8414.00,2.14
8413.00,2.14
8412.00,2.14
8411.00,2.15
8410.00,2.16
8409.00,2.16
8408.00,2.17
8407.00,2.18
8406.00,2.19
8405.00,2.20
8404.00,2.22
8403.00,2.23
8402.00,2.24
8401.00,2.25
8400.00,2.26
8399.00,2.27
8398.00,2.29
8397.00,2.30
8396.00,2.31
8395.00,2.32
8394.00,2.33
8393.00,2.34
8392.00,2.35
8391.00,2.36
8390.00,2.36
8389.00,2.37
8388.00,2.38
8387.00,2.39
8386.00,2.39
8385.00,2.39
8384.00,2.39
8383.00,2.39
8382.00,2.39
8381.00,2.39
8380.00,2.39
8379.00,2.39
8378.00,2.39
8377.00,2.39
8376.00,2.38
8375.00,2.38
8374.00,2.37
8373.00,2.36
8372.00,2.36
8371.00,2.35
8370.00,2.34
8369.00,2.33
8368.00,2.33
8367.00,2.32
8366.00,2.31
8365.00,2.30
8364.00,2.29
8363.00,2.28
8362.00,2.27
8361.00,2.26
8360.00,2.25
8359.00,2.24
8358.00,2.23
8357.00,2.22
8356.00,2.22
8355.00,2.21
8354.00,2.20
8353.00,2.19
8352.00,2.19
8351.00,2.18
8350.00,2.17
8349.00,2.16
8348.00,2.16
8347.00,2.15
8346.00,2.14
8345.00,2.14
8344.00,2.13
8343.00,2.13
8342.00,2.12
8341.00,2.12
8340.00,2.11
8339.00,2.11
8338.00,2.12
8337.00,2.12
8336.00,2.12
8335.00,2.13
8334.00,2.14
8333.00,2.15
8332.00,2.16
8331.00,2.16
8330.00,2.17
8329.00,2.18
8328.00,2.19
8327.00,2.20
8326.00,2.21
8325.00,2.21
8324.00,2.22
8323.00,2.23
8322.00,2.24
8321.00,2.25
8320.00,2.25
8319.00,2.26
8318.00,2.27
8317.00,2.28
8316.00,2.29
8315.00,2.29
8314.00,2.30
8313.00,2.30
8312.00,2.30
8311.00,2.31
8310.00,2.31
8309.00,2.31
8308.00,2.31
8307.00,2.30
8306.00,2.30
8305.00,2.30
8304.00,2.30
8303.00,2.29
8302.00,2.29
8301.00,2.29
8300.00,2.28
8299.00,2.28
8298.00,2.28
8297.00,2.27
8296.00,2.27
8295.00,2.26
8294.00,2.25
8293.00,2.25
8292.00,2.24
8291.00,2.24
8290.00,2.23
8289.00,2.23
8288.00,2.23
8287.00,2.23
8286.00,2.23
8285.00,2.23
8284.00,2.23
8283.00,2.23
8282.00,2.23
8281.00,2.24
8280.00,2.24
8279.00,2.24
8278.00,2.24
8277.00,2.24
8276.00,2.24
8275.00,2.25
8274.00,2.25
8273.00,2.26
8272.00,2.26
8271.00,2.27
8270.00,2.28
8269.00,2.29
8268.00,2.31
8267.00,2.32
8266.00,2.33
8265.00,2.34
8264.00,2.35
8263.00,2.35
8262.00,2.36
8261.00,2.37
8260.00,2.37
8259.00,2.38
8258.00,2.38
8257.00,2.39
8256.00,2.39
8255.00,2.39
8254.00,2.39
8253.00,2.39
8252.00,2.39
8251.00,2.39
8250.00,2.39
8249.00,2.39
8248.00,2.39
8247.00,2.39
8246.00,2.38
8245.00,2.38
8244.00,2.37
8243.00,2.37
8242.00,2.36
8241.00,2.36
8240.00,2.35
8239.00,2.35
8238.00,2.34
8237.00,2.33
8236.00,2.33
8235.00,2.32
8234.00,2.32
8233.00,2.31
8232.00,2.30
8231.00,2.30
8230.00,2.29
8229.00,2.28
8228.00,2.28
8227.00,2.27
8226.00,2.27
8225.00,2.26
8224.00,2.25
8223.00,2.25
8222.00,2.24
8221.00,2.24
8220.00,2.23
8219.00,2.22
8218.00,2.21
8217.00,2.20
8216.00,2.19
8215.00,2.19
8214.00,2.18
8213.00,2.17
8212.00,2.16
8211.00,2.16
8210.00,2.15
8209.00,2.15
8208.00,2.15
8207.00,2.15
8206.00,2.15
8205.00,2.16
8204.00,2.17
8203.00,2.17
8202.00,2.18
8201.00,2.19
8200.00,2.20
8199.00,2.21
8198.00,2.22
8197.00,2.23
8196.00,2.25
8195.00,2.26
8194.00,2.28
8193.00,2.29
8192.00,2.31
8191.00,2.33
8190.00,2.35
8189.00,2.37
8188.00,2.39
8187.00,2.40
8186.00,2.42
8185.00,2.43
8184.00,2.44
8183.00,2.44
8182.00,2.45
8181.00,2.45
8180.00,2.45
8179.00,2.44
8178.00,2.44
8177.00,2.43
8176.00,2.42
8175.00,2.41
8174.00,2.40
8173.00,2.39
8172.00,2.38
8171.00,2.37
8170.00,2.36
8169.00,2.35
8168.00,2.33
8167.00,2.32
8166.00,2.30
8165.00,2.29
8164.00,2.28
8163.00,2.27
8162.00,2.25
8161.00,2.25
8160.00,2.24
8159.00,2.24
8158.00,2.23
8157.00,2.24
8156.00,2.24
8155.00,2.24
8154.00,2.25
8153.00,2.26
8152.00,2.26
8151.00,2.27
8150.00,2.29
8149.00,2.30
8148.00,2.31
8147.00,2.33
8146.00,2.34
8145.00,2.36
8144.00,2.37
8143.00,2.39
8142.00,2.40
8141.00,2.41
8140.00,2.42
8139.00,2.43
8138.00,2.44
8137.00,2.45
8136.00,2.45
8135.00,2.45
8134.00,2.45
8133.00,2.45
8132.00,2.44
8131.00,2.44
8130.00,2.44
8129.00,2.43
8128.00,2.43
8127.00,2.42
8126.00,2.42
8125.00,2.42
8124.00,2.41
8123.00,2.41
8122.00,2.40
8121.00,2.39
8120.00,2.38
8119.00,2.37
8118.00,2.36
8117.00,2.35
8116.00,2.34
8115.00,2.33
8114.00,2.32
8113.00,2.32
8112.00,2.31
8111.00,2.31
8110.00,2.31
8109.00,2.31
8108.00,2.31
8107.00,2.31
8106.00,2.32
8105.00,2.32
8104.00,2.32
8103.00,2.33
8102.00,2.33
8101.00,2.33
8100.00,2.33
8099.00,2.33
8098.00,2.34
8097.00,2.34
8096.00,2.34
8095.00,2.34
8094.00,2.35
8093.00,2.35
8092.00,2.35
8091.00,2.36
8090.00,2.36
8089.00,2.37
8088.00,2.37
8087.00,2.37
8086.00,2.38
8085.00,2.38
8084.00,2.38
8083.00,2.39
8082.00,2.39
8081.00,2.40
8080.00,2.40
8079.00,2.41
8078.00,2.41
8077.00,2.41
8076.00,2.42
8075.00,2.42
8074.00,2.42
8073.00,2.42
8072.00,2.42
8071.00,2.43
8070.00,2.43
8069.00,2.43
8068.00,2.43
8067.00,2.43
8066.00,2.43
8065.00,2.43
8064.00,2.43
8063.00,2.43
8062.00,2.43
8061.00,2.43
8060.00,2.43
8059.00,2.43
8058.00,2.43
8057.00,2.43
8056.00,2.42
8055.00,2.42
8054.00,2.42
8053.00,2.42
8052.00,2.41
8051.00,2.41
8050.00,2.41
8049.00,2.40
8048.00,2.40
8047.00,2.40
8046.00,2.40
8045.00,2.40
8044.00,2.39
8043.00,2.39
8042.00,2.39
8041.00,2.39
8040.00,2.39
8039.00,2.39
8038.00,2.38
8037.00,2.38
8036.00,2.38
8035.00,2.38
8034.00,2.37
8033.00,2.37
8032.00,2.37
8031.00,2.36
8030.00,2.36
8029.00,2.35
8028.00,2.35
8027.00,2.34
8026.00,2.33
8025.00,2.33
8024.00,2.32
8023.00,2.31
8022.00,2.30
8021.00,2.30
8020.00,2.29
8019.00,2.29
8018.00,2.28
8017.00,2.28
8016.00,2.28
8015.00,2.27
8014.00,2.27
8013.00,2.27
8012.00,2.27
8011.00,2.28
8010.00,2.28
8009.00,2.28
8008.00,2.29
8007.00,2.29
8006.00,2.30
8005.00,2.31
8004.00,2.32
8003.00,2.33
8002.00,2.34
8001.00,2.35
8000.00,2.36
7999.00,2.38
7998.00,2.39
7997.00,2.41
7996.00,2.42
7995.00,2.44
7994.00,2.45
7993.00,2.47
7992.00,2.48
7991.00,2.50
7990.00,2.51
7989.00,2.52
7988.00,2.53
7987.00,2.54
7986.00,2.55
7985.00,2.56
7984.00,2.57
7983.00,2.57
7982.00,2.58
7981.00,2.58
7980.00,2.58
7979.00,2.59
7978.00,2.59
7977.00,2.59
7976.00,2.59
7975.00,2.58
7974.00,2.58
7973.00,2.57
7972.00,2.57
7971.00,2.56
7970.00,2.55
7969.00,2.54
7968.00,2.53
7967.00,2.51
7966.00,2.50
7965.00,2.49
7964.00,2.48
7963.00,2.47
7962.00,2.46
7961.00,2.45
7960.00,2.44
7959.00,2.43
7958.00,2.43
7957.00,2.42
7956.00,2.42
7955.00,2.42
7954.00,2.41
7953.00,2.41
7952.00,2.40
7951.00,2.40
7950.00,2.40
7949.00,2.40
7948.00,2.40
7947.00,2.40
7946.00,2.40
7945.00,2.40
7944.00,2.40
7943.00,2.41
7942.00,2.41
7941.00,2.41
7940.00,2.41
7939.00,2.42
7938.00,2.42
7937.00,2.42
7936.00,2.42
7935.00,2.42
7934.00,2.42
7933.00,2.42
7932.00,2.41
7931.00,2.41
7930.00,2.41
7929.00,2.40
7928.00,2.39
7927.00,2.39
7926.00,2.38
7925.00,2.38
7924.00,2.37
7923.00,2.37
7922.00,2.37
7921.00,2.36
7920.00,2.36
7919.00,2.35
7918.00,2.35
7917.00,2.35
7916.00,2.35
7915.00,2.35
7914.00,2.35
7913.00,2.35
7912.00,2.35
7911.00,2.35
7910.00,2.35
7909.00,2.35
7908.00,2.34
7907.00,2.34
7906.00,2.34
7905.00,2.34
7904.00,2.34
7903.00,2.34
7902.00,2.34
7901.00,2.34
7900.00,2.34
7899.00,2.34
7898.00,2.35
7897.00,2.35
7896.00,2.35
7895.00,2.35
7894.00,2.34
7893.00,2.34
7892.00,2.34
7891.00,2.34
7890.00,2.34
7889.00,2.33
7888.00,2.33
7887.00,2.32
7886.00,2.32
7885.00,2.31
7884.00,2.31
7883.00,2.30
7882.00,2.30
7881.00,2.29
7880.00,2.29
7879.00,2.28
7878.00,2.27
7877.00,2.27
7876.00,2.26
7875.00,2.25
7874.00,2.24
7873.00,2.24
7872.00,2.23
7871.00,2.22
7870.00,2.22
7869.00,2.21
7868.00,2.21
7867.00,2.20
7866.00,2.19
7865.00,2.18
7864.00,2.18
7863.00,2.17
7862.00,2.16
7861.00,2.15
7860.00,2.15
7859.00,2.14
7858.00,2.14
7857.00,2.13
7856.00,2.13
7855.00,2.13
7854.00,2.13
7853.00,2.13
7852.00,2.13
7851.00,2.13
7850.00,2.12
7849.00,2.12
7848.00,2.12
7847.00,2.11
7846.00,2.11
7845.00,2.10
7844.00,2.10
7843.00,2.09
7842.00,2.09
7841.00,2.09
7840.00,2.09
7839.00,2.08
7838.00,2.08
7837.00,2.09
7836.00,2.09
7835.00,2.09
7834.00,2.09
7833.00,2.10
7832.00,2.10
7831.00,2.10
7830.00,2.11
7829.00,2.11
7828.00,2.11
7827.00,2.11
7826.00,2.12
7825.00,2.12
7824.00,2.13
7823.00,2.13
7822.00,2.14
7821.00,2.14
7820.00,2.15
7819.00,2.16
7818.00,2.17
7817.00,2.18
7816.00,2.19
7815.00,2.20
7814.00,2.21
7813.00,2.21
7812.00,2.22
7811.00,2.23
7810.00,2.23
7809.00,2.24
7808.00,2.24
7807.00,2.25
7806.00,2.25
7805.00,2.25
7804.00,2.26
7803.00,2.26
7802.00,2.27
7801.00,2.27
7800.00,2.28
7799.00,2.28
7798.00,2.29
7797.00,2.30
7796.00,2.30
7795.00,2.31
7794.00,2.32
7793.00,2.32
7792.00,2.33
7791.00,2.33
7790.00,2.33
7789.00,2.34
7788.00,2.34
7787.00,2.35
7786.00,2.35
7785.00,2.36
7784.00,2.36
7783.00,2.37
7782.00,2.37
7781.00,2.38
7780.00,2.38
7779.00,2.38
7778.00,2.39
7777.00,2.39
7776.00,2.39
7775.00,2.39
7774.00,2.39
7773.00,2.38
7772.00,2.38
7771.00,2.37
7770.00,2.37
7769.00,2.37
7768.00,2.36
7767.00,2.36
7766.00,2.35
7765.00,2.35
7764.00,2.34
7763.00,2.34
7762.00,2.33
7761.00,2.33
7760.00,2.32
7759.00,2.32
7758.00,2.31
7757.00,2.31
7756.00,2.30
7755.00,2.30
7754.00,2.29
7753.00,2.29
7752.00,2.28
7751.00,2.28
7750.00,2.28
7749.00,2.28
7748.00,2.28
7747.00,2.28
7746.00,2.28
7745.00,2.28
7744.00,2.28
7743.00,2.28
7742.00,2.29
7741.00,2.29
7740.00,2.29
7739.00,2.30
7738.00,2.30
7737.00,2.30
7736.00,2.31
7735.00,2.32
7734.00,2.33
7733.00,2.34
7732.00,2.34
7731.00,2.36
7730.00,2.37
7729.00,2.38
7728.00,2.39
7727.00,2.40
7726.00,2.42
7725.00,2.43
7724.00,2.44
7723.00,2.46
7722.00,2.47
7721.00,2.48
7720.00,2.49
7719.00,2.50
7718.00,2.51
7717.00,2.52
7716.00,2.53
7715.00,2.54
7714.00,2.54
7713.00,2.55
7712.00,2.55
7711.00,2.56
7710.00,2.56
7709.00,2.56
7708.00,2.55
7707.00,2.55
7706.00,2.54
7705.00,2.53
7704.00,2.52
7703.00,2.51
7702.00,2.50
7701.00,2.49
7700.00,2.47
7699.00,2.45
7698.00,2.44
7697.00,2.42
7696.00,2.40
7695.00,2.39
7694.00,2.37
7693.00,2.35
7692.00,2.34
7691.00,2.33
7690.00,2.31
7689.00,2.30
7688.00,2.29
7687.00,2.28
7686.00,2.27
7685.00,2.26
7684.00,2.25
7683.00,2.25
7682.00,2.25
7681.00,2.25
7680.00,2.25
7679.00,2.25
7678.00,2.25
7677.00,2.26
7676.00,2.26
7675.00,2.27
7674.00,2.27
7673.00,2.28
7672.00,2.29
7671.00,2.29
7670.00,2.30
7669.00,2.31
7668.00,2.31
7667.00,2.32
7666.00,2.32
7665.00,2.33
7664.00,2.34
7663.00,2.34
7662.00,2.34
7661.00,2.35
7660.00,2.35
7659.00,2.35
7658.00,2.35
7657.00,2.35
7656.00,2.35
7655.00,2.35
7654.00,2.34
7653.00,2.34
7652.00,2.34
7651.00,2.33
7650.00,2.33
7649.00,2.33
7648.00,2.33
7647.00,2.33
7646.00,2.33
7645.00,2.33
7644.00,2.33
7643.00,2.34
7642.00,2.34
7641.00,2.34
7640.00,2.34
7639.00,2.34
7638.00,2.35
7637.00,2.35
7636.00,2.35
7635.00,2.36
7634.00,2.36
7633.00,2.37
7632.00,2.38
7631.00,2.39
7630.00,2.40
7629.00,2.41
7628.00,2.42
7627.00,2.43
7626.00,2.44
7625.00,2.44
7624.00,2.45
7623.00,2.46
7622.00,2.46
7621.00,2.46
7620.00,2.47
7619.00,2.47
7618.00,2.47
7617.00,2.47
7616.00,2.47
7615.00,2.47
7614.00,2.47
7613.00,2.47
7612.00,2.48
7611.00,2.48
7610.00,2.48
7609.00,2.47
7608.00,2.47
7607.00,2.47
7606.00,2.47
7605.00,2.46
7604.00,2.45
7603.00,2.45
7602.00,2.44
7601.00,2.44
7600.00,2.43
7599.00,2.42
7598.00,2.42
7597.00,2.42
7596.00,2.41
7595.00,2.41
7594.00,2.41
7593.00,2.41
7592.00,2.41
7591.00,2.41
7590.00,2.40
7589.00,2.40
7588.00,2.40
7587.00,2.40
7586.00,2.40
7585.00,2.40
7584.00,2.40
7583.00,2.40
7582.00,2.40
7581.00,2.40
7580.00,2.41
7579.00,2.41
7578.00,2.41
7577.00,2.42
7576.00,2.42
7575.00,2.43
7574.00,2.43
7573.00,2.43
7572.00,2.44
7571.00,2.44
7570.00,2.44
7569.00,2.45
7568.00,2.45
7567.00,2.45
7566.00,2.46
7565.00,2.46
7564.00,2.47
7563.00,2.48
7562.00,2.48
7561.00,2.49
7560.00,2.50
7559.00,2.50
7558.00,2.51
7557.00,2.51
7556.00,2.52
7555.00,2.52
7554.00,2.53
7553.00,2.53
7552.00,2.53
7551.00,2.54
7550.00,2.54
7549.00,2.54
7548.00,2.55
7547.00,2.55
7546.00,2.55
7545.00,2.55
7544.00,2.56
7543.00,2.56
7542.00,2.56
7541.00,2.57
7540.00,2.57
7539.00,2.57
7538.00,2.56
7537.00,2.56
7536.00,2.56
7535.00,2.55
7534.00,2.55
7533.00,2.54
7532.00,2.54
7531.00,2.53
7530.00,2.53
7529.00,2.52
7528.00,2.51
7527.00,2.51
7526.00,2.50
7525.00,2.50
7524.00,2.49
7523.00,2.49
7522.00,2.48
7521.00,2.47
7520.00,2.47
7519.00,2.46
7518.00,2.46
7517.00,2.45
7516.00,2.44
7515.00,2.44
7514.00,2.44
7513.00,2.43
7512.00,2.43
7511.00,2.43
7510.00,2.43
7509.00,2.43
7508.00,2.43
7507.00,2.43
7506.00,2.43
7505.00,2.43
7504.00,2.44
7503.00,2.44
7502.00,2.45
7501.00,2.45
7500.00,2.46
7499.00,2.46
7498.00,2.47
7497.00,2.48
7496.00,2.48
7495.00,2.49
7494.00,2.50
7493.00,2.51
7492.00,2.51
7491.00,2.52
7490.00,2.53
7489.00,2.54
7488.00,2.55
7487.00,2.55
7486.00,2.56
7485.00,2.56
7484.00,2.57
7483.00,2.57
7482.00,2.58
7481.00,2.58
7480.00,2.58
7479.00,2.59
7478.00,2.59
7477.00,2.59
7476.00,2.59
7475.00,2.59
7474.00,2.59
7473.00,2.59
7472.00,2.58
7471.00,2.58
7470.00,2.58
7469.00,2.57
7468.00,2.56
7467.00,2.56
7466.00,2.55
7465.00,2.55
7464.00,2.54
7463.00,2.54
7462.00,2.54
7461.00,2.53
7460.00,2.53
7459.00,2.52
7458.00,2.52
7457.00,2.52
7456.00,2.51
7455.00,2.51
7454.00,2.51
7453.00,2.51
7452.00,2.51
7451.00,2.50
7450.00,2.50
7449.00,2.50
7448.00,2.50
7447.00,2.50
7446.00,2.50
7445.00,2.50
7444.00,2.50
7443.00,2.50
7442.00,2.50
7441.00,2.51
7440.00,2.51
7439.00,2.51
7438.00,2.51
7437.00,2.52
7436.00,2.52
7435.00,2.52
7434.00,2.52
7433.00,2.52
7432.00,2.52
7431.00,2.52
7430.00,2.52
7429.00,2.52
7428.00,2.51
7427.00,2.51
7426.00,2.51
7425.00,2.51
7424.00,2.51
7423.00,2.50
7422.00,2.50
7421.00,2.50
7420.00,2.50
7419.00,2.50
7418.00,2.50
7417.00,2.50
7416.00,2.50
7415.00,2.50
7414.00,2.49
7413.00,2.49
7412.00,2.48
7411.00,2.48
7410.00,2.47
7409.00,2.47
7408.00,2.47
7407.00,2.46
7406.00,2.46
7405.00,2.46
7404.00,2.46
7403.00,2.45
7402.00,2.45
7401.00,2.45
7400.00,2.46
7399.00,2.46
7398.00,2.46
7397.00,2.46
7396.00,2.46
7395.00,2.46
7394.00,2.46
7393.00,2.46
7392.00,2.46
7391.00,2.46
7390.00,2.46
7389.00,2.46
7388.00,2.46
7387.00,2.47
7386.00,2.47
7385.00,2.47
7384.00,2.48
7383.00,2.48
7382.00,2.49
7381.00,2.49
7380.00,2.50
7379.00,2.50
7378.00,2.51
7377.00,2.51
7376.00,2.52
7375.00,2.52
7374.00,2.52
7373.00,2.53
7372.00,2.53
7371.00,2.54
7370.00,2.54
7369.00,2.55
7368.00,2.56
7367.00,2.56
7366.00,2.57
7365.00,2.58
7364.00,2.59
7363.00,2.59
7362.00,2.60
7361.00,2.60
7360.00,2.61
7359.00,2.61
7358.00,2.61
7357.00,2.61
7356.00,2.62
7355.00,2.62
7354.00,2.62
7353.00,2.62
7352.00,2.62
7351.00,2.62
7350.00,2.62
7349.00,2.62
7348.00,2.63
7347.00,2.63
7346.00,2.63
7345.00,2.63
7344.00,2.63
7343.00,2.62
7342.00,2.62
7341.00,2.62
7340.00,2.62
7339.00,2.61
7338.00,2.61
7337.00,2.60
7336.00,2.60
7335.00,2.59
7334.00,2.59
7333.00,2.59
7332.00,2.59
7331.00,2.59
7330.00,2.59
7329.00,2.59
7328.00,2.59
7327.00,2.59
7326.00,2.59
7325.00,2.59
7324.00,2.59
7323.00,2.58
7322.00,2.58
7321.00,2.57
7320.00,2.57
7319.00,2.56
7318.00,2.55
7317.00,2.55
7316.00,2.54
7315.00,2.54
7314.00,2.53
7313.00,2.53
7312.00,2.52
7311.00,2.52
7310.00,2.51
7309.00,2.50
7308.00,2.50
7307.00,2.49
7306.00,2.48
7305.00,2.47
7304.00,2.46
7303.00,2.45
7302.00,2.44
7301.00,2.43
7300.00,2.42
7299.00,2.41
7298.00,2.41
7297.00,2.40
7296.00,2.39
7295.00,2.39
7294.00,2.38
7293.00,2.38
7292.00,2.38
7291.00,2.38
7290.00,2.38
7289.00,2.38
7288.00,2.38
7287.00,2.38
7286.00,2.38
7285.00,2.38
7284.00,2.38
7283.00,2.39
7282.00,2.39
7281.00,2.39
7280.00,2.40
7279.00,2.40
7278.00,2.41
7277.00,2.41
7276.00,2.42
7275.00,2.43
7274.00,2.44
7273.00,2.45
7272.00,2.46
7271.00,2.47
7270.00,2.48
7269.00,2.49
7268.00,2.49
7267.00,2.50
7266.00,2.50
7265.00,2.51
7264.00,2.51
7263.00,2.52
7262.00,2.52
7261.00,2.53
7260.00,2.53
7259.00,2.54
7258.00,2.54
7257.00,2.55
7256.00,2.55
7255.00,2.56
7254.00,2.56
7253.00,2.56
7252.00,2.56
7251.00,2.56
7250.00,2.56
7249.00,2.56
7248.00,2.56
7247.00,2.55
7246.00,2.55
7245.00,2.54
7244.00,2.54
7243.00,2.53
7242.00,2.53
7241.00,2.52
7240.00,2.52
7239.00,2.51
7238.00,2.51
7237.00,2.50
7236.00,2.49
7235.00,2.48
7234.00,2.47
7233.00,2.45
7232.00,2.44
7231.00,2.43
7230.00,2.41
7229.00,2.40
7228.00,2.39
7227.00,2.37
7226.00,2.36
7225.00,2.35
7224.00,2.34
7223.00,2.33
7222.00,2.32
7221.00,2.30
7220.00,2.29
7219.00,2.28
7218.00,2.26
7217.00,2.25
7216.00,2.24
7215.00,2.22
7214.00,2.21
7213.00,2.20
7212.00,2.19
7211.00,2.18
7210.00,2.17
7209.00,2.16
7208.00,2.15
7207.00,2.14
7206.00,2.13
7205.00,2.13
7204.00,2.12
7203.00,2.11
7202.00,2.10
7201.00,2.09
7200.00,2.07
7199.00,2.06
7198.00,2.05
7197.00,2.04
7196.00,2.03
7195.00,2.03
7194.00,2.02
7193.00,2.01
7192.00,2.01
7191.00,2.00
7190.00,2.00
7189.00,2.00
7188.00,2.00
7187.00,2.00
7186.00,1.99
7185.00,1.99
7184.00,1.99
7183.00,1.99
7182.00,1.99
7181.00,1.99
7180.00,1.99
7179.00,1.99
7178.00,2.00
7177.00,2.00
7176.00,2.00
7175.00,2.01
7174.00,2.01
7173.00,2.02
7172.00,2.02
7171.00,2.03
7170.00,2.04
7169.00,2.04
7168.00,2.05
7167.00,2.05
7166.00,2.05
7165.00,2.05
7164.00,2.05
7163.00,2.05
7162.00,2.05
7161.00,2.04
7160.00,2.04
7159.00,2.03
7158.00,2.02
7157.00,2.01
7156.00,2.00
7155.00,1.99
7154.00,1.98
7153.00,1.97
7152.00,1.96
7151.00,1.95
7150.00,1.94
7149.00,1.93
7148.00,1.91
7147.00,1.90
7146.00,1.89
7145.00,1.87
7144.00,1.86
7143.00,1.85
7142.00,1.83
7141.00,1.82
7140.00,1.81
7139.00,1.79
7138.00,1.78
7137.00,1.77
7136.00,1.76
7135.00,1.75
7134.00,1.75
7133.00,1.74
7132.00,1.74
7131.00,1.74
7130.00,1.74
7129.00,1.74
7128.00,1.73
7127.00,1.73
7126.00,1.73
7125.00,1.73
7124.00,1.73
7123.00,1.73
7122.00,1.72
7121.00,1.72
7120.00,1.72
7119.00,1.72
7118.00,1.72
7117.00,1.71
7116.00,1.71
7115.00,1.70
7114.00,1.70
7113.00,1.70
7112.00,1.69
7111.00,1.69
7110.00,1.68
7109.00,1.67
7108.00,1.67
7107.00,1.66
7106.00,1.65
7105.00,1.65
7104.00,1.64
7103.00,1.63
7102.00,1.62
7101.00,1.62
7100.00,1.61
7099.00,1.60
7098.00,1.60
7097.00,1.59
7096.00,1.59
7095.00,1.58
7094.00,1.58
7093.00,1.58
7092.00,1.58
7091.00,1.58
7090.00,1.58
7089.00,1.58
7088.00,1.59
7087.00,1.59
7086.00,1.60
7085.00,1.60
7084.00,1.60
7083.00,1.61
7082.00,1.62
7081.00,1.62
7080.00,1.63
7079.00,1.64
7078.00,1.64
7077.00,1.65
7076.00,1.66
7075.00,1.66
7074.00,1.67
7073.00,1.67
7072.00,1.68
7071.00,1.68
7070.00,1.68
7069.00,1.68
7068.00,1.68
7067.00,1.68
7066.00,1.67
7065.00,1.67
7064.00,1.66
7063.00,1.66
7062.00,1.66
7061.00,1.65
7060.00,1.65
7059.00,1.64
7058.00,1.64
7057.00,1.64
7056.00,1.63
7055.00,1.62
7054.00,1.62
7053.00,1.61
7052.00,1.60
7051.00,1.59
7050.00,1.58
7049.00,1.57
7048.00,1.56
7047.00,1.56
7046.00,1.55
7045.00,1.55
7044.00,1.54
7043.00,1.54
7042.00,1.54
7041.00,1.54
7040.00,1.54
7039.00,1.54
7038.00,1.54
7037.00,1.54
7036.00,1.53
7035.00,1.53
7034.00,1.53
7033.00,1.53
7032.00,1.52
7031.00,1.52
7030.00,1.52
7029.00,1.52
7028.00,1.52
7027.00,1.52
7026.00,1.52
7025.00,1.53
7024.00,1.53
7023.00,1.54
7022.00,1.54
7021.00,1.54
7020.00,1.54
7019.00,1.55
7018.00,1.55
7017.00,1.55
7016.00,1.54
7015.00,1.54
7014.00,1.54
7013.00,1.54
7012.00,1.54
7011.00,1.54
7010.00,1.53
7009.00,1.53
7008.00,1.53
7007.00,1.53
7006.00,1.53
7005.00,1.52
7004.00,1.52
7003.00,1.51
7002.00,1.51
7001.00,1.50
7000.00,1.50
6999.00,1.49
6998.00,1.48
6997.00,1.48
6996.00,1.47
6995.00,1.47
6994.00,1.46
6993.00,1.45
6992.00,1.45
6991.00,1.44
6990.00,1.43
6989.00,1.43
6988.00,1.42
6987.00,1.42
6986.00,1.42
6985.00,1.41
6984.00,1.41
6983.00,1.41
6982.00,1.41
6981.00,1.41
6980.00,1.41
6979.00,1.41
6978.00,1.41
6977.00,1.41
6976.00,1.41
6975.00,1.41
6974.00,1.41
6973.00,1.41
6972.00,1.41
6971.00,1.41
6970.00,1.41
6969.00,1.41
6968.00,1.41
6967.00,1.41
6966.00,1.41
6965.00,1.41
6964.00,1.41
6963.00,1.41
6962.00,1.41
6961.00,1.41
6960.00,1.41
6959.00,1.41
6958.00,1.41
6957.00,1.41
6956.00,1.41
6955.00,1.41
6954.00,1.41
6953.00,1.41
6952.00,1.40
6951.00,1.40
6950.00,1.40
6949.00,1.40
6948.00,1.40
6947.00,1.39
6946.00,1.39
6945.00,1.39
6944.00,1.38
6943.00,1.38
6942.00,1.38
6941.00,1.38
6940.00,1.38
6939.00,1.37
6938.00,1.37
6937.00,1.37
6936.00,1.37
6935.00,1.37
6934.00,1.37
6933.00,1.36
6932.00,1.36
6931.00,1.35
6930.00,1.35
6929.00,1.34
6928.00,1.34
6927.00,1.33
6926.00,1.33
6925.00,1.32
6924.00,1.32
6923.00,1.32
6922.00,1.31
6921.00,1.31
6920.00,1.31
6919.00,1.32
6918.00,1.32
6917.00,1.32
6916.00,1.32
6915.00,1.33
6914.00,1.33
6913.00,1.34
6912.00,1.34
6911.00,1.35
6910.00,1.35
6909.00,1.36
6908.00,1.36
6907.00,1.37
6906.00,1.38
6905.00,1.38
6904.00,1.39
6903.00,1.40
6902.00,1.41
6901.00,1.42
6900.00,1.43
6899.00,1.44
6898.00,1.45
6897.00,1.46
6896.00,1.47
6895.00,1.47
6894.00,1.48
6893.00,1.49
6892.00,1.49
6891.00,1.50
6890.00,1.50
6889.00,1.50
6888.00,1.50
6887.00,1.50
6886.00,1.50
6885.00,1.50
6884.00,1.50
6883.00,1.50
6882.00,1.49
6881.00,1.49
6880.00,1.48
6879.00,1.48
6878.00,1.47
6877.00,1.47
6876.00,1.46
6875.00,1.45
6874.00,1.45
6873.00,1.44
6872.00,1.43
6871.00,1.42
6870.00,1.41
6869.00,1.40
6868.00,1.40
6867.00,1.39
6866.00,1.38
6865.00,1.37
6864.00,1.36
6863.00,1.36
6862.00,1.35
6861.00,1.35
6860.00,1.34
6859.00,1.34
6858.00,1.34
6857.00,1.33
6856.00,1.33
6855.00,1.33
6854.00,1.33
6853.00,1.32
6852.00,1.32
6851.00,1.32
6850.00,1.32
6849.00,1.32
6848.00,1.31
6847.00,1.31
6846.00,1.31
6845.00,1.31
6844.00,1.31
6843.00,1.31
6842.00,1.31
6841.00,1.31
6840.00,1.31
6839.00,1.31
6838.00,1.31
6837.00,1.31
6836.00,1.31
6835.00,1.31
6834.00,1.31
6833.00,1.31
6832.00,1.31
6831.00,1.31
6830.00,1.31
6829.00,1.31
6828.00,1.31
6827.00,1.32
6826.00,1.32
6825.00,1.32
6824.00,1.33
6823.00,1.33
6822.00,1.34
6821.00,1.34
6820.00,1.35
6819.00,1.35
6818.00,1.36
6817.00,1.36
6816.00,1.37
6815.00,1.37
6814.00,1.37
6813.00,1.37
6812.00,1.37
6811.00,1.38
6810.00,1.38
6809.00,1.38
6808.00,1.39
6807.00,1.39
6806.00,1.39
6805.00,1.40
6804.00,1.40
6803.00,1.41
6802.00,1.41
6801.00,1.41
6800.00,1.41
6799.00,1.41
6798.00,1.41
6797.00,1.41
6796.00,1.41
6795.00,1.41
6794.00,1.42
6793.00,1.42
6792.00,1.42
6791.00,1.42
6790.00,1.42
6789.00,1.43
6788.00,1.43
6787.00,1.43
6786.00,1.44
6785.00,1.44
6784.00,1.45
6783.00,1.45
6782.00,1.45
6781.00,1.46
6780.00,1.46
6779.00,1.46
6778.00,1.46
6777.00,1.46
6776.00,1.47
6775.00,1.47
6774.00,1.47
6773.00,1.47
6772.00,1.47
6771.00,1.47
6770.00,1.47
6769.00,1.48
6768.00,1.48
6767.00,1.48
6766.00,1.48
6765.00,1.48
6764.00,1.47
6763.00,1.47
6762.00,1.47
6761.00,1.47
6760.00,1.47
6759.00,1.47
6758.00,1.47
6757.00,1.46
6756.00,1.46
6755.00,1.46
6754.00,1.46
6753.00,1.46
6752.00,1.46
6751.00,1.45
6750.00,1.45
6749.00,1.45
6748.00,1.45
6747.00,1.45
6746.00,1.44
6745.00,1.44
6744.00,1.44
6743.00,1.44
6742.00,1.44
6741.00,1.44
6740.00,1.44
6739.00,1.44
6738.00,1.44
6737.00,1.44
6736.00,1.45
6735.00,1.45
6734.00,1.45
6733.00,1.45
6732.00,1.45
6731.00,1.46
6730.00,1.46
6729.00,1.46
6728.00,1.46
6727.00,1.47
6726.00,1.47
6725.00,1.47
6724.00,1.48
6723.00,1.48
6722.00,1.49
6721.00,1.50
6720.00,1.51
6719.00,1.51
6718.00,1.52
6717.00,1.53
6716.00,1.54
6715.00,1.55
6714.00,1.55
6713.00,1.56
6712.00,1.56
6711.00,1.57
6710.00,1.58
6709.00,1.58
6708.00,1.59
6707.00,1.59
6706.00,1.60
6705.00,1.60
6704.00,1.61
6703.00,1.62
6702.00,1.62
6701.00,1.63
6700.00,1.63
6699.00,1.63
6698.00,1.64
6697.00,1.64
6696.00,1.64
6695.00,1.64
6694.00,1.65
6693.00,1.65
6692.00,1.65
6691.00,1.65
6690.00,1.65
6689.00,1.65
6688.00,1.65
6687.00,1.66
6686.00,1.66
6685.00,1.66
6684.00,1.66
6683.00,1.66
6682.00,1.66
6681.00,1.66
6680.00,1.66
6679.00,1.66
6678.00,1.65
6677.00,1.65
6676.00,1.65
6675.00,1.65
6674.00,1.65
6673.00,1.66
6672.00,1.66
6671.00,1.66
6670.00,1.66
6669.00,1.66
6668.00,1.66
6667.00,1.66
6666.00,1.66
6665.00,1.66
6664.00,1.66
6663.00,1.66
6662.00,1.66
6661.00,1.66
6660.00,1.66
6659.00,1.66
6658.00,1.66
6657.00,1.66
6656.00,1.67
6655.00,1.67
6654.00,1.68
6653.00,1.68
6652.00,1.69
6651.00,1.69
6650.00,1.70
6649.00,1.70
6648.00,1.71
6647.00,1.71
6646.00,1.72
6645.00,1.72
6644.00,1.73
6643.00,1.74
6642.00,1.74
6641.00,1.75
6640.00,1.75
6639.00,1.76
6638.00,1.77
6637.00,1.77
6636.00,1.78
6635.00,1.78
6634.00,1.79
6633.00,1.79
6632.00,1.80
6631.00,1.80
6630.00,1.80
6629.00,1.80
6628.00,1.80
6627.00,1.81
6626.00,1.81
6625.00,1.81
6624.00,1.80
6623.00,1.80
6622.00,1.80
6621.00,1.80
6620.00,1.80
6619.00,1.79
6618.00,1.79
6617.00,1.78
6616.00,1.78
6615.00,1.77
6614.00,1.77
6613.00,1.76
6612.00,1.76
6611.00,1.75
6610.00,1.75
6609.00,1.74
6608.00,1.74
6607.00,1.74
6606.00,1.73
6605.00,1.73
6604.00,1.73
6603.00,1.72
6602.00,1.72
6601.00,1.72
6600.00,1.71
6599.00,1.71
6598.00,1.71
6597.00,1.70
6596.00,1.70
6595.00,1.70
6594.00,1.70
6593.00,1.70
6592.00,1.70
6591.00,1.71
6590.00,1.71
6589.00,1.71
6588.00,1.72
6587.00,1.72
6586.00,1.73
6585.00,1.73
6584.00,1.74
6583.00,1.74
6582.00,1.75
6581.00,1.75
6580.00,1.76
6579.00,1.76
6578.00,1.77
6577.00,1.77
6576.00,1.78
6575.00,1.78
6574.00,1.79
6573.00,1.79
6572.00,1.80
6571.00,1.80
6570.00,1.81
6569.00,1.81
6568.00,1.82
6567.00,1.82
6566.00,1.82
6565.00,1.83
6564.00,1.83
6563.00,1.83
6562.00,1.83
6561.00,1.83
6560.00,1.84
6559.00,1.84
6558.00,1.84
6557.00,1.85
6556.00,1.85
6555.00,1.85
6554.00,1.86
6553.00,1.86
6552.00,1.87
6551.00,1.87
6550.00,1.88
6549.00,1.88
6548.00,1.89
6547.00,1.89
6546.00,1.90
6545.00,1.91
6544.00,1.92
6543.00,1.92
6542.00,1.93
6541.00,1.94
6540.00,1.95
6539.00,1.96
6538.00,1.97
6537.00,1.98
6536.00,1.98
6535.00,1.99
6534.00,2.00
6533.00,2.01
6532.00,2.01
6531.00,2.02
6530.00,2.02
6529.00,2.02
6528.00,2.03
6527.00,2.03
6526.00,2.03
6525.00,2.04
6524.00,2.04
6523.00,2.04
6522.00,2.04
6521.00,2.04
6520.00,2.05
6519.00,2.05
6518.00,2.05
6517.00,2.05
6516.00,2.05
6515.00,2.04
6514.00,2.04
6513.00,2.04
6512.00,2.04
6511.00,2.04
6510.00,2.04
6509.00,2.04
6508.00,2.03
6507.00,2.03
6506.00,2.03
6505.00,2.03
6504.00,2.03
6503.00,2.03
6502.00,2.03
6501.00,2.02
6500.00,2.02
6499.00,2.02
6498.00,2.02
6497.00,2.02
6496.00,2.02
6495.00,2.02
6494.00,2.03
6493.00,2.03
6492.00,2.03
6491.00,2.03
6490.00,2.03
6489.00,2.04
6488.00,2.04
6487.00,2.04
6486.00,2.04
6485.00,2.04
6484.00,2.04
6483.00,2.03
6482.00,2.03
6481.00,2.03
6480.00,2.03
6479.00,2.03
6478.00,2.03
6477.00,2.03
6476.00,2.03
6475.00,2.03
6474.00,2.03
6473.00,2.03
6472.00,2.04
6471.00,2.04
6470.00,2.04
6469.00,2.04
6468.00,2.04
6467.00,2.04
6466.00,2.04
6465.00,2.03
6464.00,2.03
6463.00,2.03
6462.00,2.03
6461.00,2.03
6460.00,2.03
6459.00,2.03
6458.00,2.03
6457.00,2.03
6456.00,2.04
6455.00,2.04
6454.00,2.04
6453.00,2.05
6452.00,2.05
6451.00,2.05
6450.00,2.05
6449.00,2.05
6448.00,2.05
6447.00,2.06
6446.00,2.06
6445.00,2.06
6444.00,2.06
6443.00,2.06
6442.00,2.06
6441.00,2.06
6440.00,2.06
6439.00,2.06
6438.00,2.07
6437.00,2.07
6436.00,2.07
6435.00,2.07
6434.00,2.08
6433.00,2.08
6432.00,2.08
6431.00,2.08
6430.00,2.08
6429.00,2.08
6428.00,2.08
6427.00,2.09
6426.00,2.09
6425.00,2.09
6424.00,2.09
6423.00,2.10
6422.00,2.10
6421.00,2.10
6420.00,2.11
6419.00,2.11
6418.00,2.11
6417.00,2.11
6416.00,2.11
6415.00,2.11
6414.00,2.11
6413.00,2.11
6412.00,2.11
6411.00,2.12
6410.00,2.12
6409.00,2.12
6408.00,2.12
6407.00,2.12
6406.00,2.13
6405.00,2.13
6404.00,2.13
6403.00,2.14
6402.00,2.14
6401.00,2.14
6400.00,2.14
6399.00,2.14
6398.00,2.14
6397.00,2.14
6396.00,2.14
6395.00,2.13
6394.00,2.13
6393.00,2.13
6392.00,2.13
6391.00,2.13
6390.00,2.14
6389.00,2.14
6388.00,2.14
6387.00,2.14
6386.00,2.14
6385.00,2.15
6384.00,2.15
6383.00,2.15
6382.00,2.15
6381.00,2.15
6380.00,2.15
6379.00,2.15
6378.00,2.15
6377.00,2.15
6376.00,2.15
6375.00,2.15
6374.00,2.15
6373.00,2.16
6372.00,2.16
6371.00,2.16
6370.00,2.16
6369.00,2.16
6368.00,2.17
6367.00,2.17
6366.00,2.17
6365.00,2.17
6364.00,2.17
6363.00,2.17
6362.00,2.17
6361.00,2.17
6360.00,2.16
6359.00,2.16
6358.00,2.16
6357.00,2.16
6356.00,2.16
6355.00,2.16
6354.00,2.15
6353.00,2.15
6352.00,2.15
6351.00,2.15
6350.00,2.15
6349.00,2.14
6348.00,2.14
6347.00,2.14
6346.00,2.14
6345.00,2.13
6344.00,2.13
6343.00,2.13
6342.00,2.13
6341.00,2.13
6340.00,2.13
6339.00,2.13
6338.00,2.13
6337.00,2.13
6336.00,2.13
6335.00,2.14
6334.00,2.14
6333.00,2.14
6332.00,2.15
6331.00,2.15
6330.00,2.16
6329.00,2.16
6328.00,2.16
6327.00,2.17
6326.00,2.17
6325.00,2.18
6324.00,2.18
6323.00,2.19
6322.00,2.19
6321.00,2.20
6320.00,2.20
6319.00,2.21
6318.00,2.22
6317.00,2.22
6316.00,2.23
6315.00,2.24
6314.00,2.24
6313.00,2.25
6312.00,2.26
6311.00,2.26
6310.00,2.27
6309.00,2.27
6308.00,2.28
6307.00,2.29
6306.00,2.29
6305.00,2.30
6304.00,2.31
6303.00,2.31
6302.00,2.32
6301.00,2.33
6300.00,2.33
6299.00,2.34
6298.00,2.34
6297.00,2.35
6296.00,2.35
6295.00,2.36
6294.00,2.36
6293.00,2.36
6292.00,2.36
6291.00,2.36
6290.00,2.36
6289.00,2.36
6288.00,2.36
6287.00,2.35
6286.00,2.35
6285.00,2.35
6284.00,2.35
6283.00,2.34
6282.00,2.34
6281.00,2.34
6280.00,2.33
6279.00,2.33
6278.00,2.32
6277.00,2.32
6276.00,2.31
6275.00,2.30
6274.00,2.30
6273.00,2.29
6272.00,2.28
6271.00,2.28
6270.00,2.27
6269.00,2.27
6268.00,2.27
6267.00,2.27
6266.00,2.27
6265.00,2.27
6264.00,2.27
6263.00,2.27
6262.00,2.27
6261.00,2.27
6260.00,2.27
6259.00,2.27
6258.00,2.28
6257.00,2.28
6256.00,2.28
6255.00,2.28
6254.00,2.29
6253.00,2.29
6252.00,2.30
6251.00,2.30
6250.00,2.31
6249.00,2.31
6248.00,2.31
6247.00,2.32
6246.00,2.32
6245.00,2.33
6244.00,2.33
6243.00,2.34
6242.00,2.34
6241.00,2.34
6240.00,2.34
6239.00,2.35
6238.00,2.35
6237.00,2.35
6236.00,2.35
6235.00,2.35
6234.00,2.35
6233.00,2.36
6232.00,2.36
6231.00,2.36
6230.00,2.36
6229.00,2.37
6228.00,2.37
6227.00,2.37
6226.00,2.37
6225.00,2.37
6224.00,2.37
6223.00,2.37
6222.00,2.37
6221.00,2.37
6220.00,2.37
6219.00,2.37
6218.00,2.37
6217.00,2.38
6216.00,2.38
6215.00,2.38
6214.00,2.38
6213.00,2.38
6212.00,2.38
6211.00,2.38
6210.00,2.38
6209.00,2.39
6208.00,2.39
6207.00,2.39
6206.00,2.39
6205.00,2.39
6204.00,2.39
6203.00,2.39
6202.00,2.39
6201.00,2.39
6200.00,2.39
6199.00,2.39
6198.00,2.39
6197.00,2.39
6196.00,2.39
6195.00,2.39
6194.00,2.39
6193.00,2.40
6192.00,2.40
6191.00,2.40
6190.00,2.40
6189.00,2.41
6188.00,2.41
6187.00,2.41
6186.00,2.42
6185.00,2.42
6184.00,2.42
6183.00,2.43
6182.00,2.43
6181.00,2.43
6180.00,2.43
6179.00,2.44
6178.00,2.44
6177.00,2.44
6176.00,2.45
6175.00,2.45
6174.00,2.45
6173.00,2.46
6172.00,2.46
6171.00,2.47
6170.00,2.47
6169.00,2.47
6168.00,2.48
6167.00,2.48
6166.00,2.48
6165.00,2.49
6164.00,2.49
6163.00,2.49
6162.00,2.49
6161.00,2.49
6160.00,2.49
6159.00,2.49
6158.00,2.49
6157.00,2.49
6156.00,2.49
6155.00,2.50
6154.00,2.50
6153.00,2.50
6152.00,2.50
6151.00,2.50
6150.00,2.51
6149.00,2.51
6148.00,2.51
6147.00,2.51
6146.00,2.51
6145.00,2.51
6144.00,2.51
6143.00,2.51
6142.00,2.51
6141.00,2.51
6140.00,2.51
6139.00,2.51
6138.00,2.51
6137.00,2.51
6136.00,2.52
6135.00,2.52
6134.00,2.52
6133.00,2.52
6132.00,2.52
6131.00,2.52
6130.00,2.52
6129.00,2.52
6128.00,2.52
6127.00,2.52
6126.00,2.52
6125.00,2.51
6124.00,2.51
6123.00,2.51
6122.00,2.51
6121.00,2.51
6120.00,2.51
6119.00,2.51
6118.00,2.51
6117.00,2.51
6116.00,2.51
6115.00,2.51
6114.00,2.51
6113.00,2.51
6112.00,2.51
6111.00,2.51
6110.00,2.51
6109.00,2.51
6108.00,2.51
6107.00,2.50
6106.00,2.50
6105.00,2.50
6104.00,2.50
6103.00,2.50
6102.00,2.50
6101.00,2.50
6100.00,2.51
6099.00,2.51
6098.00,2.51
6097.00,2.51
6096.00,2.52
6095.00,2.52
6094.00,2.52
6093.00,2.52
6092.00,2.52
6091.00,2.52
6090.00,2.52
6089.00,2.53
6088.00,2.53
6087.00,2.53
6086.00,2.53
6085.00,2.53
6084.00,2.53
6083.00,2.53
6082.00,2.54
6081.00,2.54
6080.00,2.54
6079.00,2.54
6078.00,2.55
6077.00,2.55
6076.00,2.56
6075.00,2.56
6074.00,2.56
6073.00,2.57
6072.00,2.57
6071.00,2.57
6070.00,2.58
6069.00,2.58
6068.00,2.58
6067.00,2.58
6066.00,2.58
6065.00,2.59
6064.00,2.59
6063.00,2.59
6062.00,2.59
6061.00,2.59
6060.00,2.59
6059.00,2.60
6058.00,2.60
6057.00,2.60
6056.00,2.60
6055.00,2.60
6054.00,2.60
6053.00,2.60
6052.00,2.60
6051.00,2.60
6050.00,2.60
6049.00,2.60
6048.00,2.59
6047.00,2.59
6046.00,2.59
6045.00,2.59
6044.00,2.58
6043.00,2.58
6042.00,2.57
6041.00,2.57
6040.00,2.57
6039.00,2.57
6038.00,2.56
6037.00,2.56
6036.00,2.56
6035.00,2.55
6034.00,2.55
6033.00,2.55
6032.00,2.55
6031.00,2.55
6030.00,2.55
6029.00,2.55
6028.00,2.55
6027.00,2.55
6026.00,2.55
6025.00,2.55
6024.00,2.54
6023.00,2.54
6022.00,2.54
6021.00,2.54
6020.00,2.54
6019.00,2.55
6018.00,2.55
6017.00,2.55
6016.00,2.55
6015.00,2.56
6014.00,2.56
6013.00,2.56
6012.00,2.57
6011.00,2.57
6010.00,2.58
6009.00,2.58
6008.00,2.59
6007.00,2.59
6006.00,2.60
6005.00,2.60
6004.00,2.60
6003.00,2.61
6002.00,2.61
6001.00,2.62
6000.00,2.62
5999.00,2.62
5998.00,2.62
5997.00,2.63
5996.00,2.63
5995.00,2.63
5994.00,2.64
5993.00,2.64
5992.00,2.64
5991.00,2.64
5990.00,2.64
5989.00,2.64
5988.00,2.64
5987.00,2.64
5986.00,2.64
5985.00,2.64
5984.00,2.64
5983.00,2.63
5982.00,2.63
5981.00,2.62
5980.00,2.62
5979.00,2.61
5978.00,2.60
5977.00,2.60
5976.00,2.59
5975.00,2.58
5974.00,2.57
5973.00,2.56
5972.00,2.55
5971.00,2.55
5970.00,2.54
5969.00,2.53
5968.00,2.52
5967.00,2.51
5966.00,2.50
5965.00,2.49
5964.00,2.48
5963.00,2.47
5962.00,2.46
5961.00,2.45
5960.00,2.45
5959.00,2.44
5958.00,2.44
5957.00,2.43
5956.00,2.43
5955.00,2.43
5954.00,2.42
5953.00,2.42
5952.00,2.42
5951.00,2.42
5950.00,2.42
5949.00,2.42
5948.00,2.42
5947.00,2.42
5946.00,2.42
5945.00,2.43
5944.00,2.43
5943.00,2.43
5942.00,2.44
5941.00,2.44
5940.00,2.44
5939.00,2.45
5938.00,2.45
5937.00,2.46
5936.00,2.46
5935.00,2.46
5934.00,2.47
5933.00,2.47
5932.00,2.47
5931.00,2.47
5930.00,2.48
5929.00,2.48
5928.00,2.48
5927.00,2.48
5926.00,2.48
5925.00,2.47
5924.00,2.47
5923.00,2.47
5922.00,2.47
5921.00,2.47
5920.00,2.47
5919.00,2.47
5918.00,2.47
5917.00,2.47
5916.00,2.46
5915.00,2.46
5914.00,2.46
5913.00,2.46
5912.00,2.46
5911.00,2.46
5910.00,2.46
5909.00,2.46
5908.00,2.46
5907.00,2.46
5906.00,2.46
5905.00,2.46
5904.00,2.46
5903.00,2.46
5902.00,2.46
5901.00,2.47
5900.00,2.47
5899.00,2.47
5898.00,2.48
5897.00,2.48
5896.00,2.48
5895.00,2.49
5894.00,2.49
5893.00,2.49
5892.00,2.50
5891.00,2.50
5890.00,2.50
5889.00,2.50
5888.00,2.50
5887.00,2.51
5886.00,2.51
5885.00,2.51
5884.00,2.51
5883.00,2.51
5882.00,2.52
5881.00,2.52
5880.00,2.52
5879.00,2.52
5878.00,2.52
5877.00,2.52
5876.00,2.52
5875.00,2.52
5874.00,2.51
5873.00,2.51
5872.00,2.51
5871.00,2.51
5870.00,2.51
5869.00,2.50
5868.00,2.50
5867.00,2.50
5866.00,2.50
5865.00,2.50
5864.00,2.49
5863.00,2.49
5862.00,2.49
5861.00,2.49
5860.00,2.48
5859.00,2.48
5858.00,2.48
5857.00,2.48
5856.00,2.48
5855.00,2.47
5854.00,2.47
5853.00,2.47
5852.00,2.47
5851.00,2.47
5850.00,2.47
5849.00,2.47
5848.00,2.47
5847.00,2.47
5846.00,2.47
5845.00,2.48
5844.00,2.48
5843.00,2.48
5842.00,2.49
5841.00,2.49
5840.00,2.50
5839.00,2.50
5838.00,2.50
5837.00,2.51
5836.00,2.51
5835.00,2.51
5834.00,2.52
5833.00,2.52
5832.00,2.52
5831.00,2.53
5830.00,2.53
5829.00,2.54
5828.00,2.54
5827.00,2.55
5826.00,2.55
5825.00,2.56
5824.00,2.56
5823.00,2.57
5822.00,2.57
5821.00,2.58
5820.00,2.58
5819.00,2.58
5818.00,2.59
5817.00,2.59
5816.00,2.59
5815.00,2.59
5814.00,2.59
5813.00,2.59
5812.00,2.59
5811.00,2.60
5810.00,2.60
5809.00,2.60
5808.00,2.60
5807.00,2.60
5806.00,2.60
5805.00,2.60
5804.00,2.60
5803.00,2.60
5802.00,2.60
5801.00,2.60
5800.00,2.60
5799.00,2.59
5798.00,2.59
5797.00,2.59
5796.00,2.59
5795.00,2.58
5794.00,2.58
5793.00,2.58
5792.00,2.57
5791.00,2.57
5790.00,2.57
5789.00,2.57
5788.00,2.57
5787.00,2.56
5786.00,2.56
5785.00,2.56
5784.00,2.56
5783.00,2.56
5782.00,2.56
5781.00,2.55
5780.00,2.55
5779.00,2.55
5778.00,2.55
5777.00,2.55
5776.00,2.55
5775.00,2.55
5774.00,2.54
5773.00,2.54
5772.00,2.54
5771.00,2.54
5770.00,2.54
5769.00,2.54
5768.00,2.55
5767.00,2.55
5766.00,2.55
5765.00,2.55
5764.00,2.55
5763.00,2.55
5762.00,2.56
5761.00,2.56
5760.00,2.56
5759.00,2.56
5758.00,2.56
5757.00,2.56
5756.00,2.56
5755.00,2.56
5754.00,2.56
5753.00,2.56
5752.00,2.56
5751.00,2.56
5750.00,2.56
5749.00,2.56
5748.00,2.56
5747.00,2.56
5746.00,2.55
5745.00,2.55
5744.00,2.55
5743.00,2.55
5742.00,2.55
5741.00,2.54
5740.00,2.54
5739.00,2.54
5738.00,2.53
5737.00,2.53
5736.00,2.53
5735.00,2.52
5734.00,2.52
5733.00,2.52
5732.00,2.52
5731.00,2.51
5730.00,2.51
5729.00,2.51
5728.00,2.51
5727.00,2.51
5726.00,2.50
5725.00,2.50
5724.00,2.50
5723.00,2.50
5722.00,2.50
5721.00,2.50
5720.00,2.50
5719.00,2.50
5718.00,2.50
5717.00,2.50
5716.00,2.50
5715.00,2.50
5714.00,2.50
5713.00,2.50
5712.00,2.50
5711.00,2.50
5710.00,2.50
5709.00,2.49
5708.00,2.49
5707.00,2.49
5706.00,2.49
5705.00,2.49
5704.00,2.49
5703.00,2.49
5702.00,2.49
5701.00,2.49
5700.00,2.49
5699.00,2.49
5698.00,2.49
5697.00,2.48
5696.00,2.48
5695.00,2.48
5694.00,2.48
5693.00,2.48
5692.00,2.48
5691.00,2.48
5690.00,2.48
5689.00,2.48
5688.00,2.48
5687.00,2.48
5686.00,2.48
5685.00,2.49
5684.00,2.49
5683.00,2.49
5682.00,2.49
5681.00,2.49
5680.00,2.49
5679.00,2.49
5678.00,2.49
5677.00,2.49
5676.00,2.49
5675.00,2.49
5674.00,2.49
5673.00,2.49
5672.00,2.49
5671.00,2.49
5670.00,2.49
5669.00,2.49
5668.00,2.49
5667.00,2.49
5666.00,2.49
5665.00,2.49
5664.00,2.49
5663.00,2.49
5662.00,2.49
5661.00,2.49
5660.00,2.49
5659.00,2.49
5658.00,2.49
5657.00,2.49
5656.00,2.49
5655.00,2.48
5654.00,2.48
5653.00,2.48
5652.00,2.48
5651.00,2.49
5650.00,2.49
5649.00,2.49
5648.00,2.49
5647.00,2.49
5646.00,2.49
5645.00,2.50
5644.00,2.50
5643.00,2.50
5642.00,2.50
5641.00,2.50
5640.00,2.50
5639.00,2.49
5638.00,2.49
5637.00,2.49
5636.00,2.49
5635.00,2.49
5634.00,2.49
5633.00,2.49
5632.00,2.49
5631.00,2.49
5630.00,2.49
5629.00,2.49
5628.00,2.49
5627.00,2.49
5626.00,2.49
5625.00,2.49
5624.00,2.49
5623.00,2.49
5622.00,2.49
5621.00,2.49
5620.00,2.49
5619.00,2.49
5618.00,2.50
5617.00,2.50
5616.00,2.50
5615.00,2.50
5614.00,2.50
5613.00,2.50
5612.00,2.51
5611.00,2.51
5610.00,2.51
5609.00,2.52
5608.00,2.52
5607.00,2.52
5606.00,2.52
5605.00,2.52
5604.00,2.53
5603.00,2.53
5602.00,2.53
5601.00,2.53
5600.00,2.53
5599.00,2.53
5598.00,2.53
5597.00,2.53
5596.00,2.53
5595.00,2.53
5594.00,2.54
5593.00,2.54
5592.00,2.54
5591.00,2.54
5590.00,2.54
5589.00,2.54
5588.00,2.55
5587.00,2.55
5586.00,2.55
5585.00,2.55
5584.00,2.56
5583.00,2.56
5582.00,2.56
5581.00,2.56
5580.00,2.57
5579.00,2.57
5578.00,2.57
5577.00,2.57
5576.00,2.58
5575.00,2.58
5574.00,2.58
5573.00,2.58
5572.00,2.59
5571.00,2.59
5570.00,2.59
5569.00,2.59
5568.00,2.60
5567.00,2.60
5566.00,2.60
5565.00,2.60
5564.00,2.60
5563.00,2.60
5562.00,2.60
5561.00,2.60
5560.00,2.60
5559.00,2.60
5558.00,2.60
5557.00,2.59
5556.00,2.59
5555.00,2.59
5554.00,2.59
5553.00,2.59
5552.00,2.59
5551.00,2.59
5550.00,2.59
5549.00,2.58
5548.00,2.58
5547.00,2.58
5546.00,2.58
5545.00,2.58
5544.00,2.58
5543.00,2.58
5542.00,2.59
5541.00,2.59
5540.00,2.59
5539.00,2.59
5538.00,2.60
5537.00,2.60
5536.00,2.61
5535.00,2.61
5534.00,2.62
5533.00,2.62
5532.00,2.63
5531.00,2.63
5530.00,2.64
5529.00,2.65
5528.00,2.65
5527.00,2.66
5526.00,2.67
5525.00,2.67
5524.00,2.68
5523.00,2.69
5522.00,2.70
5521.00,2.70
5520.00,2.71
5519.00,2.72
5518.00,2.73
5517.00,2.73
5516.00,2.74
5515.00,2.75
5514.00,2.75
5513.00,2.76
5512.00,2.76
5511.00,2.77
5510.00,2.77
5509.00,2.77
5508.00,2.78
5507.00,2.78
5506.00,2.78
5505.00,2.78
5504.00,2.79
5503.00,2.79
5502.00,2.79
5501.00,2.79
5500.00,2.79
5499.00,2.79
5498.00,2.79
5497.00,2.79
5496.00,2.79
5495.00,2.78
5494.00,2.78
5493.00,2.78
5492.00,2.78
5491.00,2.78
5490.00,2.77
5489.00,2.77
5488.00,2.77
5487.00,2.77
5486.00,2.76
5485.00,2.76
5484.00,2.76
5483.00,2.75
5482.00,2.75
5481.00,2.75
5480.00,2.75
5479.00,2.74
5478.00,2.74
5477.00,2.74
5476.00,2.74
5475.00,2.74
5474.00,2.73
5473.00,2.73
5472.00,2.73
5471.00,2.73
5470.00,2.73
5469.00,2.73
5468.00,2.73
5467.00,2.73
5466.00,2.73
5465.00,2.73
5464.00,2.73
5463.00,2.73
5462.00,2.73
5461.00,2.73
5460.00,2.73
5459.00,2.74
5458.00,2.74
5457.00,2.74
5456.00,2.74
5455.00,2.74
5454.00,2.75
5453.00,2.75
5452.00,2.75
5451.00,2.75
5450.00,2.75
5449.00,2.76
5448.00,2.76
5447.00,2.76
5446.00,2.76
5445.00,2.76
5444.00,2.76
5443.00,2.76
5442.00,2.76
5441.00,2.76
5440.00,2.76
5439.00,2.76
5438.00,2.76
5437.00,2.76
5436.00,2.77
5435.00,2.77
5434.00,2.77
5433.00,2.77
5432.00,2.77
5431.00,2.77
5430.00,2.77
5429.00,2.77
5428.00,2.77
5427.00,2.77
5426.00,2.77
5425.00,2.77
5424.00,2.77
5423.00,2.77
5422.00,2.77
5421.00,2.77
5420.00,2.77
5419.00,2.77
5418.00,2.77
5417.00,2.76
5416.00,2.76
5415.00,2.76
5414.00,2.76
5413.00,2.76
5412.00,2.76
5411.00,2.76
5410.00,2.76
5409.00,2.75
5408.00,2.75
5407.00,2.75
5406.00,2.75
5405.00,2.74
5404.00,2.74
5403.00,2.74
5402.00,2.74
5401.00,2.73
5400.00,2.73
5399.00,2.73
5398.00,2.72
5397.00,2.72
5396.00,2.71
5395.00,2.71
5394.00,2.71
5393.00,2.70
5392.00,2.70
5391.00,2.70
5390.00,2.70
5389.00,2.69
5388.00,2.69
5387.00,2.69
5386.00,2.68
5385.00,2.68
5384.00,2.68
5383.00,2.67
5382.00,2.67
5381.00,2.67
5380.00,2.66
5379.00,2.66
5378.00,2.65
5377.00,2.65
5376.00,2.65
5375.00,2.64
5374.00,2.64
5373.00,2.64
5372.00,2.63
5371.00,2.63
5370.00,2.63
5369.00,2.62
5368.00,2.62
5367.00,2.62
5366.00,2.61
5365.00,2.60
5364.00,2.60
5363.00,2.59
5362.00,2.58
5361.00,2.58
5360.00,2.57
5359.00,2.56
5358.00,2.55
5357.00,2.54
5356.00,2.53
5355.00,2.52
5354.00,2.51
5353.00,2.50
5352.00,2.49
5351.00,2.48
5350.00,2.46
5349.00,2.45
5348.00,2.43
5347.00,2.42
5346.00,2.40
5345.00,2.38
5344.00,2.36
5343.00,2.34
5342.00,2.32
5341.00,2.30
5340.00,2.28
5339.00,2.25
5338.00,2.23
5337.00,2.21
5336.00,2.18
5335.00,2.16
5334.00,2.14
5333.00,2.11
5332.00,2.09
5331.00,2.06
5330.00,2.04
5329.00,2.01
5328.00,1.99
5327.00,1.96
5326.00,1.93
5325.00,1.91
5324.00,1.88
5323.00,1.86
5322.00,1.83
5321.00,1.81
5320.00,1.79
5319.00,1.76
5318.00,1.74
5317.00,1.72
5316.00,1.70
5315.00,1.68
5314.00,1.66
5313.00,1.64
5312.00,1.62
5311.00,1.60
5310.00,1.58
5309.00,1.56
5308.00,1.55
5307.00,1.53
5306.00,1.51
5305.00,1.50
5304.00,1.48
5303.00,1.46
5302.00,1.45
5301.00,1.43
5300.00,1.42
5299.00,1.41
5298.00,1.39
5297.00,1.38
5296.00,1.37
5295.00,1.35
5294.00,1.34
5293.00,1.33
5292.00,1.32
5291.00,1.30
5290.00,1.29
5289.00,1.28
5288.00,1.27
5287.00,1.26
5286.00,1.25
5285.00,1.24
5284.00,1.23
5283.00,1.22
5282.00,1.21
5281.00,1.20
5280.00,1.19
5279.00,1.18
5278.00,1.17
5277.00,1.17
5276.00,1.16
5275.00,1.15
5274.00,1.14
5273.00,1.14
5272.00,1.13
5271.00,1.12
5270.00,1.12
5269.00,1.12
5268.00,1.11
5267.00,1.11
5266.00,1.10
5265.00,1.10
5264.00,1.10
5263.00,1.09
5262.00,1.09
5261.00,1.09
5260.00,1.09
5259.00,1.09
5258.00,1.08
5257.00,1.08
5256.00,1.08
5255.00,1.08
5254.00,1.07
5253.00,1.07
5252.00,1.07
5251.00,1.07
5250.00,1.07
5249.00,1.06
5248.00,1.06
5247.00,1.06
5246.00,1.06
5245.00,1.05
5244.00,1.05
5243.00,1.04
5242.00,1.04
5241.00,1.03
5240.00,1.03
5239.00,1.03
5238.00,1.02
5237.00,1.02
5236.00,1.01
5235.00,1.01
5234.00,1.01
5233.00,1.00
5232.00,1.00
5231.00,0.99
5230.00,0.99
5229.00,0.99
5228.00,0.98
5227.00,0.98
5226.00,0.98
5225.00,0.98
5224.00,0.98
5223.00,0.98
5222.00,0.98
5221.00,0.98
5220.00,0.98
5219.00,0.98
5218.00,0.98
5217.00,0.98
5216.00,0.98
5215.00,0.98
5214.00,0.98
5213.00,0.98
5212.00,0.98
5211.00,0.99
5210.00,0.99
5209.00,0.99
5208.00,0.99
5207.00,0.99
5206.00,0.99
5205.00,0.99
5204.00,0.99
5203.00,0.99
5202.00,1.00
5201.00,1.00
5200.00,1.00
5199.00,1.00
5198.00,1.00
5197.00,1.00
5196.00,1.00
5195.00,1.00
5194.00,1.00
5193.00,0.99
5192.00,0.99
5191.00,0.99
5190.00,0.99
5189.00,0.99
5188.00,0.99
5187.00,0.99
5186.00,0.99
5185.00,0.99
5184.00,0.99
5183.00,0.99
5182.00,0.99
5181.00,0.98
5180.00,0.98
5179.00,0.98
5178.00,0.98
5177.00,0.98
5176.00,0.98
5175.00,0.98
5174.00,0.98
5173.00,0.98
5172.00,0.98
5171.00,0.99
5170.00,0.99
5169.00,0.99
5168.00,0.99
5167.00,0.99
5166.00,0.99
5165.00,1.00
5164.00,1.00
5163.00,1.00
5162.00,1.00
5161.00,1.00
5160.00,1.01
5159.00,1.01
5158.00,1.01
5157.00,1.02
5156.00,1.02
5155.00,1.02
5154.00,1.03
5153.00,1.03
5152.00,1.03
5151.00,1.03
5150.00,1.04
5149.00,1.04
5148.00,1.04
5147.00,1.04
5146.00,1.04
5145.00,1.04
5144.00,1.03
5143.00,1.03
5142.00,1.03
5141.00,1.03
5140.00,1.03
5139.00,1.03
5138.00,1.03
5137.00,1.03
5136.00,1.03
5135.00,1.02
5134.00,1.02
5133.00,1.02
5132.00,1.02
5131.00,1.02
5130.00,1.02
5129.00,1.02
5128.00,1.02
5127.00,1.02
5126.00,1.01
5125.00,1.01
5124.00,1.01
5123.00,1.01
5122.00,1.01
5121.00,1.01
5120.00,1.02
5119.00,1.02
5118.00,1.02
5117.00,1.02
5116.00,1.02
5115.00,1.03
5114.00,1.03
5113.00,1.03
5112.00,1.03
5111.00,1.03
5110.00,1.04
5109.00,1.04
5108.00,1.04
5107.00,1.04
5106.00,1.04
5105.00,1.04
5104.00,1.04
5103.00,1.04
5102.00,1.04
5101.00,1.04
5100.00,1.04
5099.00,1.04
5098.00,1.04
5097.00,1.05
5096.00,1.05
5095.00,1.05
5094.00,1.05
5093.00,1.05
5092.00,1.05
5091.00,1.05
5090.00,1.05
5089.00,1.05
5088.00,1.05
5087.00,1.05
5086.00,1.05
5085.00,1.05
5084.00,1.05
5083.00,1.06
5082.00,1.06
5081.00,1.06
5080.00,1.06
5079.00,1.06
5078.00,1.07
5077.00,1.07
5076.00,1.07
5075.00,1.07
5074.00,1.07
5073.00,1.08
5072.00,1.08
5071.00,1.08
5070.00,1.08
5069.00,1.09
5068.00,1.09
5067.00,1.10
5066.00,1.10
5065.00,1.10
5064.00,1.10
5063.00,1.11
5062.00,1.11
5061.00,1.11
5060.00,1.11
5059.00,1.11
5058.00,1.12
5057.00,1.12
5056.00,1.12
5055.00,1.12
5054.00,1.12
5053.00,1.13
5052.00,1.13
5051.00,1.13
5050.00,1.14
5049.00,1.14
5048.00,1.14
5047.00,1.15
5046.00,1.15
5045.00,1.15
5044.00,1.15
5043.00,1.16
5042.00,1.16
5041.00,1.16
5040.00,1.16
5039.00,1.16
5038.00,1.17
5037.00,1.17
5036.00,1.17
5035.00,1.18
5034.00,1.18
5033.00,1.18
5032.00,1.19
5031.00,1.19
5030.00,1.20
5029.00,1.20
5028.00,1.21
5027.00,1.21
5026.00,1.21
5025.00,1.21
5024.00,1.22
5023.00,1.22
5022.00,1.22
5021.00,1.22
5020.00,1.23
5019.00,1.23
5018.00,1.23
5017.00,1.24
5016.00,1.24
5015.00,1.24
5014.00,1.25
5013.00,1.25
5012.00,1.25
5011.00,1.25
5010.00,1.25
5009.00,1.26
5008.00,1.26
5007.00,1.26
5006.00,1.26
5005.00,1.26
5004.00,1.26
5003.00,1.26
5002.00,1.26
5001.00,1.26
5000.00,1.26
4999.00,1.27
4998.00,1.27
4997.00,1.27
4996.00,1.27
4995.00,1.27
4994.00,1.27
4993.00,1.27
4992.00,1.27
4991.00,1.27
4990.00,1.27
4989.00,1.27
4988.00,1.28
4987.00,1.28
4986.00,1.28
4985.00,1.28
4984.00,1.28
4983.00,1.28
4982.00,1.29
4981.00,1.29
4980.00,1.29
4979.00,1.29
4978.00,1.29
4977.00,1.30
4976.00,1.30
4975.00,1.30
4974.00,1.30
4973.00,1.31
4972.00,1.31
4971.00,1.31
4970.00,1.31
4969.00,1.31
4968.00,1.32
4967.00,1.32
4966.00,1.32
4965.00,1.33
4964.00,1.33
4963.00,1.33
4962.00,1.34
4961.00,1.34
4960.00,1.35
4959.00,1.35
4958.00,1.35
4957.00,1.36
4956.00,1.36
4955.00,1.37
4954.00,1.37
4953.00,1.37
4952.00,1.38
4951.00,1.38
4950.00,1.38
4949.00,1.39
4948.00,1.39
4947.00,1.39
4946.00,1.40
4945.00,1.40
4944.00,1.41
4943.00,1.41
4942.00,1.42
4941.00,1.42
4940.00,1.42
4939.00,1.43
4938.00,1.43
4937.00,1.43
4936.00,1.44
4935.00,1.44
4934.00,1.44
4933.00,1.45
4932.00,1.45
4931.00,1.45
4930.00,1.46
4929.00,1.46
4928.00,1.46
4927.00,1.47
4926.00,1.47
4925.00,1.47
4924.00,1.47
4923.00,1.48
4922.00,1.48
4921.00,1.48
4920.00,1.49
4919.00,1.49
4918.00,1.49
4917.00,1.49
4916.00,1.50
4915.00,1.50
4914.00,1.50
4913.00,1.51
4912.00,1.51
4911.00,1.51
4910.00,1.52
4909.00,1.52
4908.00,1.53
4907.00,1.53
4906.00,1.53
4905.00,1.54
4904.00,1.54
4903.00,1.55
4902.00,1.55
4901.00,1.56
4900.00,1.56
4899.00,1.57
4898.00,1.57
4897.00,1.58
4896.00,1.58
4895.00,1.59
4894.00,1.59
4893.00,1.60
4892.00,1.60
4891.00,1.60
4890.00,1.61
4889.00,1.61
4888.00,1.61
4887.00,1.61
4886.00,1.62
4885.00,1.62
4884.00,1.62
4883.00,1.62
4882.00,1.62
4881.00,1.63
4880.00,1.63
4879.00,1.63
4878.00,1.63
4877.00,1.64
4876.00,1.64
4875.00,1.64
4874.00,1.64
4873.00,1.64
4872.00,1.65
4871.00,1.65
4870.00,1.65
4869.00,1.66
4868.00,1.66
4867.00,1.66
4866.00,1.67
4865.00,1.67
4864.00,1.68
4863.00,1.69
4862.00,1.69
4861.00,1.70
4860.00,1.71
4859.00,1.71
4858.00,1.72
4857.00,1.73
4856.00,1.73
4855.00,1.74
4854.00,1.74
4853.00,1.75
4852.00,1.75
4851.00,1.76
4850.00,1.76
4849.00,1.76
4848.00,1.77
4847.00,1.77
4846.00,1.77
4845.00,1.78
4844.00,1.78
4843.00,1.78
4842.00,1.78
4841.00,1.78
4840.00,1.78
4839.00,1.78
4838.00,1.79
4837.00,1.79
4836.00,1.79
4835.00,1.79
4834.00,1.79
4833.00,1.79
4832.00,1.79
4831.00,1.80
4830.00,1.80
4829.00,1.80
4828.00,1.81
4827.00,1.81
4826.00,1.81
4825.00,1.82
4824.00,1.82
4823.00,1.82
4822.00,1.83
4821.00,1.83
4820.00,1.84
4819.00,1.84
4818.00,1.85
4817.00,1.86
4816.00,1.86
4815.00,1.87
4814.00,1.88
4813.00,1.88
4812.00,1.89
4811.00,1.90
4810.00,1.90
4809.00,1.91
4808.00,1.91
4807.00,1.92
4806.00,1.92
4805.00,1.93
4804.00,1.93
4803.00,1.93
4802.00,1.94
4801.00,1.94
4800.00,1.95
4799.00,1.95
4798.00,1.95
4797.00,1.96
4796.00,1.96
4795.00,1.96
4794.00,1.97
4793.00,1.97
4792.00,1.98
4791.00,1.98
4790.00,1.98
4789.00,1.99
4788.00,1.99
4787.00,1.99
4786.00,1.99
4785.00,2.00
4784.00,2.00
4783.00,2.00
4782.00,2.01
4781.00,2.01
4780.00,2.02
4779.00,2.02
4778.00,2.02
4777.00,2.03
4776.00,2.03
4775.00,2.04
4774.00,2.04
4773.00,2.05
4772.00,2.05
4771.00,2.06
4770.00,2.06
4769.00,2.07
4768.00,2.07
4767.00,2.08
4766.00,2.09
4765.00,2.09
4764.00,2.10
4763.00,2.11
4762.00,2.12
4761.00,2.12
4760.00,2.13
4759.00,2.14
4758.00,2.15
4757.00,2.16
4756.00,2.16
4755.00,2.17
4754.00,2.18
4753.00,2.19
4752.00,2.19
4751.00,2.20
4750.00,2.21
4749.00,2.22
4748.00,2.23
4747.00,2.23
4746.00,2.24
4745.00,2.25
4744.00,2.26
4743.00,2.26
4742.00,2.27
4741.00,2.27
4740.00,2.28
4739.00,2.28
4738.00,2.28
4737.00,2.28
4736.00,2.29
4735.00,2.29
4734.00,2.29
4733.00,2.29
4732.00,2.29
4731.00,2.30
4730.00,2.30
4729.00,2.30
4728.00,2.30
4727.00,2.31
4726.00,2.31
4725.00,2.31
4724.00,2.32
4723.00,2.32
4722.00,2.32
4721.00,2.32
4720.00,2.32
4719.00,2.32
4718.00,2.32
4717.00,2.32
4716.00,2.32
4715.00,2.32
4714.00,2.33
4713.00,2.33
4712.00,2.34
4711.00,2.34
4710.00,2.35
4709.00,2.35
4708.00,2.36
4707.00,2.36
4706.00,2.37
4705.00,2.37
4704.00,2.37
4703.00,2.37
4702.00,2.37
4701.00,2.37
4700.00,2.37
4699.00,2.37
4698.00,2.37
4697.00,2.38
4696.00,2.38
4695.00,2.38
4694.00,2.39
4693.00,2.39
4692.00,2.40
4691.00,2.40
4690.00,2.40
4689.00,2.41
4688.00,2.41
4687.00,2.41
4686.00,2.41
4685.00,2.41
4684.00,2.41
4683.00,2.41
4682.00,2.42
4681.00,2.42
4680.00,2.42
4679.00,2.42
4678.00,2.43
4677.00,2.43
4676.00,2.43
4675.00,2.44
4674.00,2.44
4673.00,2.45
4672.00,2.46
4671.00,2.46
4670.00,2.47
4669.00,2.47
4668.00,2.48
4667.00,2.48
4666.00,2.49
4665.00,2.49
4664.00,2.50
4663.00,2.51
4662.00,2.51
4661.00,2.52
4660.00,2.53
4659.00,2.54
4658.00,2.54
4657.00,2.55
4656.00,2.56
4655.00,2.56
4654.00,2.57
4653.00,2.58
4652.00,2.59
4651.00,2.59
4650.00,2.60
4649.00,2.61
4648.00,2.62
4647.00,2.62
4646.00,2.63
4645.00,2.63
4644.00,2.64
4643.00,2.64
4642.00,2.64
4641.00,2.65
4640.00,2.65
4639.00,2.65
4638.00,2.65
4637.00,2.65
4636.00,2.65
4635.00,2.65
4634.00,2.65
4633.00,2.65
4632.00,2.64
4631.00,2.64
4630.00,2.64
4629.00,2.64
4628.00,2.63
4627.00,2.63
4626.00,2.62
4625.00,2.62
4624.00,2.61
4623.00,2.61
4622.00,2.60
4621.00,2.60
4620.00,2.59
4619.00,2.59
4618.00,2.59
4617.00,2.58
4616.00,2.58
4615.00,2.58
4614.00,2.58
4613.00,2.58
4612.00,2.57
4611.00,2.57
4610.00,2.57
4609.00,2.57
4608.00,2.57
4607.00,2.57
4606.00,2.57
4605.00,2.57
4604.00,2.57
4603.00,2.57
4602.00,2.57
4601.00,2.57
4600.00,2.57
4599.00,2.57
4598.00,2.57
4597.00,2.57
4596.00,2.57
4595.00,2.57
4594.00,2.58
4593.00,2.58
4592.00,2.58
4591.00,2.58
4590.00,2.58
4589.00,2.58
4588.00,2.58
4587.00,2.58
4586.00,2.58
4585.00,2.58
4584.00,2.58
4583.00,2.58
4582.00,2.58
4581.00,2.58
4580.00,2.59
4579.00,2.59
4578.00,2.59
4577.00,2.59
4576.00,2.59
4575.00,2.59
4574.00,2.59
4573.00,2.60
4572.00,2.60
4571.00,2.60
4570.00,2.60
4569.00,2.60
4568.00,2.61
4567.00,2.61
4566.00,2.61
4565.00,2.61
4564.00,2.62
4563.00,2.62
4562.00,2.62
4561.00,2.62
4560.00,2.62
4559.00,2.63
4558.00,2.63
4557.00,2.63
4556.00,2.63
4555.00,2.63
4554.00,2.64
4553.00,2.64
4552.00,2.64
4551.00,2.64
4550.00,2.64
4549.00,2.64
4548.00,2.65
4547.00,2.65
4546.00,2.65
4545.00,2.65
4544.00,2.65
4543.00,2.65
4542.00,2.65
4541.00,2.66
4540.00,2.66
4539.00,2.66
4538.00,2.66
4537.00,2.66
4536.00,2.66
4535.00,2.67
4534.00,2.67
4533.00,2.67
4532.00,2.67
4531.00,2.68
4530.00,2.68
4529.00,2.68
4528.00,2.69
4527.00,2.69
4526.00,2.69
4525.00,2.70
4524.00,2.70
4523.00,2.71
4522.00,2.71
4521.00,2.72
4520.00,2.72
4519.00,2.73
4518.00,2.73
4517.00,2.74
4516.00,2.74
4515.00,2.74
4514.00,2.75
4513.00,2.75
4512.00,2.75
4511.00,2.76
4510.00,2.76
4509.00,2.76
4508.00,2.76
4507.00,2.76
4506.00,2.77
4505.00,2.77
4504.00,2.77
4503.00,2.77
4502.00,2.77
4501.00,2.77
4500.00,2.77
4499.00,2.77
4498.00,2.76
4497.00,2.76
4496.00,2.76
4495.00,2.75
4494.00,2.75
4493.00,2.74
4492.00,2.74
4491.00,2.73
4490.00,2.73
4489.00,2.73
4488.00,2.72
4487.00,2.72
4486.00,2.72
4485.00,2.71
4484.00,2.71
4483.00,2.71
4482.00,2.70
4481.00,2.70
4480.00,2.70
4479.00,2.69
4478.00,2.69
4477.00,2.69
4476.00,2.68
4475.00,2.68
4474.00,2.67
4473.00,2.67
4472.00,2.66
4471.00,2.66
4470.00,2.66
4469.00,2.65
4468.00,2.65
4467.00,2.65
4466.00,2.64
4465.00,2.63
4464.00,2.63
4463.00,2.62
4462.00,2.61
4461.00,2.60
4460.00,2.59
4459.00,2.58
4458.00,2.57
4457.00,2.56
4456.00,2.54
4455.00,2.53
4454.00,2.52
4453.00,2.50
4452.00,2.49
4451.00,2.48
4450.00,2.46
4449.00,2.45
4448.00,2.44
4447.00,2.42
4446.00,2.41
4445.00,2.39
4444.00,2.38
4443.00,2.36
4442.00,2.34
4441.00,2.33
4440.00,2.31
4439.00,2.30
4438.00,2.29
4437.00,2.27
4436.00,2.26
4435.00,2.25
4434.00,2.23
4433.00,2.22
4432.00,2.21
4431.00,2.20
4430.00,2.19
4429.00,2.18
4428.00,2.17
4427.00,2.16
4426.00,2.16
4425.00,2.15
4424.00,2.14
4423.00,2.13
4422.00,2.13
4421.00,2.12
4420.00,2.11
4419.00,2.11
4418.00,2.11
4417.00,2.10
4416.00,2.10
4415.00,2.10
4414.00,2.10
4413.00,2.10
4412.00,2.11
4411.00,2.11
4410.00,2.11
4409.00,2.11
4408.00,2.12
4407.00,2.12
4406.00,2.13
4405.00,2.14
4404.00,2.15
4403.00,2.15
4402.00,2.16
4401.00,2.17
4400.00,2.18
4399.00,2.19
4398.00,2.20
4397.00,2.21
4396.00,2.22
4395.00,2.23
4394.00,2.24
4393.00,2.26
4392.00,2.27
4391.00,2.28
4390.00,2.29
4389.00,2.30
4388.00,2.31
4387.00,2.31
4386.00,2.32
4385.00,2.33
4384.00,2.34
4383.00,2.35
4382.00,2.35
4381.00,2.36
4380.00,2.36
4379.00,2.36
4378.00,2.37
4377.00,2.37
4376.00,2.37
4375.00,2.37
4374.00,2.38
4373.00,2.38
4372.00,2.38
4371.00,2.37
4370.00,2.37
4369.00,2.37
4368.00,2.36
4367.00,2.36
4366.00,2.35
4365.00,2.35
4364.00,2.34
4363.00,2.34
4362.00,2.33
4361.00,2.33
4360.00,2.32
4359.00,2.31
4358.00,2.31
4357.00,2.30
4356.00,2.29
4355.00,2.29
4354.00,2.28
4353.00,2.28
4352.00,2.27
4351.00,2.27
4350.00,2.26
4349.00,2.26
4348.00,2.25
4347.00,2.25
4346.00,2.24
4345.00,2.24
4344.00,2.24
4343.00,2.23
4342.00,2.23
4341.00,2.23
4340.00,2.23
4339.00,2.23
4338.00,2.23
4337.00,2.23
4336.00,2.23
4335.00,2.23
4334.00,2.23
4333.00,2.24
4332.00,2.24
4331.00,2.24
4330.00,2.24
4329.00,2.25
4328.00,2.25
4327.00,2.26
4326.00,2.26
4325.00,2.27
4324.00,2.27
4323.00,2.28
4322.00,2.28
4321.00,2.29
4320.00,2.30
4319.00,2.30
4318.00,2.31
4317.00,2.32
4316.00,2.32
4315.00,2.33
4314.00,2.34
4313.00,2.35
4312.00,2.36
4311.00,2.37
4310.00,2.37
4309.00,2.38
4308.00,2.39
4307.00,2.40
4306.00,2.41
4305.00,2.42
4304.00,2.43
4303.00,2.44
4302.00,2.44
4301.00,2.45
4300.00,2.46
4299.00,2.46
4298.00,2.47
4297.00,2.47
4296.00,2.48
4295.00,2.48
4294.00,2.49
4293.00,2.50
4292.00,2.50
4291.00,2.51
4290.00,2.51
4289.00,2.51
4288.00,2.52
4287.00,2.52
4286.00,2.52
4285.00,2.52
4284.00,2.52
4283.00,2.52
4282.00,2.52
4281.00,2.52
4280.00,2.51
4279.00,2.51
4278.00,2.51
4277.00,2.51
4276.00,2.51
4275.00,2.51
4274.00,2.50
4273.00,2.50
4272.00,2.50
4271.00,2.49
4270.00,2.49
4269.00,2.48
4268.00,2.48
4267.00,2.47
4266.00,2.47
4265.00,2.46
4264.00,2.45
4263.00,2.45
4262.00,2.45
4261.00,2.44
4260.00,2.44
4259.00,2.44
4258.00,2.43
4257.00,2.43
4256.00,2.43
4255.00,2.43
4254.00,2.44
4253.00,2.44
4252.00,2.44
4251.00,2.44
4250.00,2.44
4249.00,2.44
4248.00,2.45
4247.00,2.45
4246.00,2.45
4245.00,2.46
4244.00,2.46
4243.00,2.47
4242.00,2.47
4241.00,2.48
4240.00,2.48
4239.00,2.49
4238.00,2.50
4237.00,2.51
4236.00,2.51
4235.00,2.52
4234.00,2.53
4233.00,2.53
4232.00,2.53
4231.00,2.54
4230.00,2.54
4229.00,2.54
4228.00,2.54
4227.00,2.54
4226.00,2.54
4225.00,2.54
4224.00,2.53
4223.00,2.54
4222.00,2.54
4221.00,2.54
4220.00,2.54
4219.00,2.54
4218.00,2.54
4217.00,2.55
4216.00,2.55
4215.00,2.56
4214.00,2.56
4213.00,2.56
4212.00,2.57
4211.00,2.57
4210.00,2.57
4209.00,2.58
4208.00,2.58
4207.00,2.58
4206.00,2.59
4205.00,2.59
4204.00,2.60
4203.00,2.60
4202.00,2.61
4201.00,2.61
4200.00,2.61
4199.00,2.62
4198.00,2.62
4197.00,2.62
4196.00,2.62
4195.00,2.62
4194.00,2.62
4193.00,2.62
4192.00,2.62
4191.00,2.61
4190.00,2.61
4189.00,2.60
4188.00,2.59
4187.00,2.58
4186.00,2.57
4185.00,2.56
4184.00,2.55
4183.00,2.53
4182.00,2.52
4181.00,2.50
4180.00,2.49
4179.00,2.47
4178.00,2.46
4177.00,2.45
4176.00,2.44
4175.00,2.43
4174.00,2.42
4173.00,2.41
4172.00,2.41
4171.00,2.40
4170.00,2.39
4169.00,2.38
4168.00,2.37
4167.00,2.36
4166.00,2.36
4165.00,2.35
4164.00,2.35
4163.00,2.34
4162.00,2.34
4161.00,2.34
4160.00,2.34
4159.00,2.34
4158.00,2.34
4157.00,2.34
4156.00,2.34
4155.00,2.35
4154.00,2.35
4153.00,2.35
4152.00,2.36
4151.00,2.36
4150.00,2.37
4149.00,2.37
4148.00,2.38
4147.00,2.38
4146.00,2.38
4145.00,2.38
4144.00,2.38
4143.00,2.39
4142.00,2.39
4141.00,2.39
4140.00,2.40
4139.00,2.40
4138.00,2.40
4137.00,2.40
4136.00,2.40
4135.00,2.40
4134.00,2.40
4133.00,2.40
4132.00,2.40
4131.00,2.40
4130.00,2.40
4129.00,2.40
4128.00,2.40
4127.00,2.40
4126.00,2.40
4125.00,2.39
4124.00,2.39
4123.00,2.38
4122.00,2.38
4121.00,2.37
4120.00,2.37
4119.00,2.36
4118.00,2.36
4117.00,2.35
4116.00,2.35
4115.00,2.34
4114.00,2.33
4113.00,2.32
4112.00,2.32
4111.00,2.31
4110.00,2.30
4109.00,2.29
4108.00,2.29
4107.00,2.28
4106.00,2.27
4105.00,2.27
4104.00,2.26
4103.00,2.25
4102.00,2.25
4101.00,2.25
4100.00,2.24
4099.00,2.24
4098.00,2.24
4097.00,2.24
4096.00,2.24
4095.00,2.24
4094.00,2.24
4093.00,2.24
4092.00,2.24
4091.00,2.24
4090.00,2.24
4089.00,2.24
4088.00,2.24
4087.00,2.25
4086.00,2.25
4085.00,2.25
4084.00,2.26
4083.00,2.26
4082.00,2.26
4081.00,2.26
4080.00,2.26
4079.00,2.26
4078.00,2.26
4077.00,2.26
4076.00,2.25
4075.00,2.25
4074.00,2.24
4073.00,2.24
4072.00,2.23
4071.00,2.22
4070.00,2.21
4069.00,2.21
4068.00,2.20
4067.00,2.19
4066.00,2.19
4065.00,2.18
4064.00,2.18
4063.00,2.17
4062.00,2.17
4061.00,2.17
4060.00,2.17
4059.00,2.17
4058.00,2.17
4057.00,2.17
4056.00,2.17
4055.00,2.17
4054.00,2.17
4053.00,2.18
4052.00,2.18
4051.00,2.18
4050.00,2.19
4049.00,2.19
4048.00,2.20
4047.00,2.20
4046.00,2.21
4045.00,2.22
4044.00,2.23
4043.00,2.24
4042.00,2.25
4041.00,2.26
4040.00,2.27
4039.00,2.28
4038.00,2.29
4037.00,2.30
4036.00,2.30
4035.00,2.31
4034.00,2.32
4033.00,2.33
4032.00,2.33
4031.00,2.34
4030.00,2.35
4029.00,2.36
4028.00,2.37
4027.00,2.38
4026.00,2.39
4025.00,2.40
4024.00,2.41
4023.00,2.43
4022.00,2.44
4021.00,2.46
4020.00,2.48
4019.00,2.49
4018.00,2.51
4017.00,2.52
4016.00,2.54
4015.00,2.55
4014.00,2.57
4013.00,2.59
4012.00,2.61
4011.00,2.63
4010.00,2.65
4009.00,2.67
4008.00,2.69
4007.00,2.71
4006.00,2.74
4005.00,2.76
4004.00,2.78
4003.00,2.80
4002.00,2.82
4001.00,2.85
4000.00,2.87
