创建为新数据集,样品 952 用户 Administrator 日期 星期二, 七月 30 2019
cm-1,%T
10000.00,2.14
9999.00,2.13
9998.00,2.12
9997.00,2.11
9996.00,2.10
9995.00,2.09
9994.00,2.08
9993.00,2.07
9992.00,2.05
9991.00,2.04
9990.00,2.03
9989.00,2.02
9988.00,2.00
9987.00,1.99
9986.00,1.98
9985.00,1.96
9984.00,1.95
9983.00,1.94
9982.00,1.92
9981.00,1.91
9980.00,1.90
9979.00,1.88
9978.00,1.87
9977.00,1.86
9976.00,1.85
9975.00,1.83
9974.00,1.82
9973.00,1.81
9972.00,1.80
9971.00,1.79
9970.00,1.78
9969.00,1.77
9968.00,1.77
9967.00,1.76
9966.00,1.76
9965.00,1.75
9964.00,1.75
9963.00,1.75
9962.00,1.75
9961.00,1.76
9960.00,1.76
9959.00,1.76
9958.00,1.77
9957.00,1.77
9956.00,1.78
9955.00,1.78
9954.00,1.79
9953.00,1.80
9952.00,1.80
9951.00,1.81
9950.00,1.82
9949.00,1.83
9948.00,1.84
9947.00,1.84
9946.00,1.85
9945.00,1.86
9944.00,1.86
9943.00,1.87
9942.00,1.87
9941.00,1.88
9940.00,1.88
9939.00,1.88
9938.00,1.88
9937.00,1.88
9936.00,1.88
9935.00,1.88
9934.00,1.88
9933.00,1.88
9932.00,1.88
9931.00,1.88
9930.00,1.87
9929.00,1.87
9928.00,1.87
9927.00,1.87
9926.00,1.86
9925.00,1.86
9924.00,1.85
9923.00,1.85
9922.00,1.84
9921.00,1.83
9920.00,1.83
9919.00,1.82
9918.00,1.81
9917.00,1.80
9916.00,1.80
9915.00,1.79
9914.00,1.78
9913.00,1.78
9912.00,1.77
9911.00,1.77
9910.00,1.76
9909.00,1.76
9908.00,1.75
9907.00,1.74
9906.00,1.74
9905.00,1.73
9904.00,1.72
9903.00,1.72
9902.00,1.71
9901.00,1.71
9900.00,1.70
9899.00,1.70
9898.00,1.69
9897.00,1.69
9896.00,1.69
9895.00,1.69
9894.00,1.69
9893.00,1.69
9892.00,1.69
9891.00,1.70
9890.00,1.70
9889.00,1.70
9888.00,1.71
9887.00,1.71
9886.00,1.71
9885.00,1.71
9884.00,1.72
9883.00,1.72
9882.00,1.73
9881.00,1.73
9880.00,1.74
9879.00,1.75
9878.00,1.75
9877.00,1.76
9876.00,1.77
9875.00,1.77
9874.00,1.78
9873.00,1.79
9872.00,1.80
9871.00,1.80
9870.00,1.81
9869.00,1.81
9868.00,1.82
9867.00,1.82
9866.00,1.83
9865.00,1.83
9864.00,1.84
9863.00,1.85
9862.00,1.85
9861.00,1.86
9860.00,1.86
9859.00,1.86
9858.00,1.87
9857.00,1.87
9856.00,1.87
9855.00,1.87
9854.00,1.87
9853.00,1.87
9852.00,1.86
9851.00,1.86
9850.00,1.86
9849.00,1.85
9848.00,1.85
9847.00,1.85
9846.00,1.84
9845.00,1.84
9844.00,1.84
9843.00,1.84
9842.00,1.83
9841.00,1.83
9840.00,1.83
9839.00,1.82
9838.00,1.82
9837.00,1.82
9836.00,1.82
9835.00,1.81
9834.00,1.81
9833.00,1.81
9832.00,1.81
9831.00,1.81
9830.00,1.81
9829.00,1.81
9828.00,1.82
9827.00,1.82
9826.00,1.83
9825.00,1.83
9824.00,1.84
9823.00,1.84
9822.00,1.85
9821.00,1.86
9820.00,1.86
9819.00,1.87
9818.00,1.87
9817.00,1.88
9816.00,1.88
9815.00,1.89
9814.00,1.89
9813.00,1.90
9812.00,1.90
9811.00,1.91
9810.00,1.91
9809.00,1.92
9808.00,1.92
9807.00,1.92
9806.00,1.93
9805.00,1.93
9804.00,1.93
9803.00,1.93
9802.00,1.93
9801.00,1.93
9800.00,1.93
9799.00,1.93
9798.00,1.93
9797.00,1.92
9796.00,1.92
9795.00,1.91
9794.00,1.91
9793.00,1.90
9792.00,1.90
9791.00,1.89
9790.00,1.89
9789.00,1.88
9788.00,1.88
9787.00,1.87
9786.00,1.86
9785.00,1.86
9784.00,1.85
9783.00,1.85
9782.00,1.84
9781.00,1.84
9780.00,1.83
9779.00,1.83
9778.00,1.83
9777.00,1.82
9776.00,1.82
9775.00,1.82
9774.00,1.82
9773.00,1.81
9772.00,1.81
9771.00,1.81
9770.00,1.81
9769.00,1.81
9768.00,1.81
9767.00,1.81
9766.00,1.82
9765.00,1.82
9764.00,1.82
9763.00,1.83
9762.00,1.83
9761.00,1.83
9760.00,1.84
9759.00,1.84
9758.00,1.84
9757.00,1.85
9756.00,1.85
9755.00,1.85
9754.00,1.85
9753.00,1.85
9752.00,1.85
9751.00,1.85
9750.00,1.85
9749.00,1.85
9748.00,1.84
9747.00,1.84
9746.00,1.84
9745.00,1.84
9744.00,1.84
9743.00,1.84
9742.00,1.84
9741.00,1.84
9740.00,1.83
9739.00,1.83
9738.00,1.82
9737.00,1.82
9736.00,1.81
9735.00,1.80
9734.00,1.80
9733.00,1.79
9732.00,1.79
9731.00,1.78
9730.00,1.78
9729.00,1.78
9728.00,1.77
9727.00,1.77
9726.00,1.77
9725.00,1.77
9724.00,1.77
9723.00,1.77
9722.00,1.77
9721.00,1.76
9720.00,1.76
9719.00,1.76
9718.00,1.76
9717.00,1.76
9716.00,1.76
9715.00,1.76
9714.00,1.76
9713.00,1.76
9712.00,1.76
9711.00,1.77
9710.00,1.77
9709.00,1.78
9708.00,1.79
9707.00,1.79
9706.00,1.80
9705.00,1.81
9704.00,1.81
9703.00,1.82
9702.00,1.82
9701.00,1.83
9700.00,1.83
9699.00,1.84
9698.00,1.84
9697.00,1.84
9696.00,1.85
9695.00,1.85
9694.00,1.86
9693.00,1.87
9692.00,1.87
9691.00,1.88
9690.00,1.89
9689.00,1.89
9688.00,1.90
9687.00,1.91
9686.00,1.91
9685.00,1.92
9684.00,1.92
9683.00,1.92
9682.00,1.92
9681.00,1.92
9680.00,1.92
9679.00,1.92
9678.00,1.92
9677.00,1.92
9676.00,1.92
9675.00,1.92
9674.00,1.92
9673.00,1.92
9672.00,1.92
9671.00,1.92
9670.00,1.91
9669.00,1.91
9668.00,1.90
9667.00,1.90
9666.00,1.89
9665.00,1.88
9664.00,1.87
9663.00,1.86
9662.00,1.85
9661.00,1.84
9660.00,1.84
9659.00,1.83
9658.00,1.82
9657.00,1.81
9656.00,1.80
9655.00,1.80
9654.00,1.79
9653.00,1.78
9652.00,1.78
9651.00,1.77
9650.00,1.77
9649.00,1.76
9648.00,1.76
9647.00,1.75
9646.00,1.75
9645.00,1.75
9644.00,1.75
9643.00,1.75
9642.00,1.75
9641.00,1.75
9640.00,1.75
9639.00,1.76
9638.00,1.76
9637.00,1.76
9636.00,1.77
9635.00,1.77
9634.00,1.78
9633.00,1.79
9632.00,1.79
9631.00,1.79
9630.00,1.80
9629.00,1.80
9628.00,1.80
9627.00,1.81
9626.00,1.81
9625.00,1.81
9624.00,1.81
9623.00,1.81
9622.00,1.81
9621.00,1.81
9620.00,1.80
9619.00,1.80
9618.00,1.80
9617.00,1.79
9616.00,1.79
9615.00,1.79
9614.00,1.78
9613.00,1.78
9612.00,1.77
9611.00,1.77
9610.00,1.76
9609.00,1.76
9608.00,1.75
9607.00,1.75
9606.00,1.74
9605.00,1.74
9604.00,1.74
9603.00,1.74
9602.00,1.73
9601.00,1.73
9600.00,1.73
9599.00,1.73
9598.00,1.73
9597.00,1.73
9596.00,1.73
9595.00,1.73
9594.00,1.73
9593.00,1.73
9592.00,1.73
9591.00,1.73
9590.00,1.73
9589.00,1.73
9588.00,1.73
9587.00,1.72
9586.00,1.72
9585.00,1.72
9584.00,1.72
9583.00,1.72
9582.00,1.71
9581.00,1.71
9580.00,1.70
9579.00,1.70
9578.00,1.69
9577.00,1.69
9576.00,1.68
9575.00,1.68
9574.00,1.67
9573.00,1.67
9572.00,1.66
9571.00,1.66
9570.00,1.65
9569.00,1.65
9568.00,1.65
9567.00,1.65
9566.00,1.64
9565.00,1.64
9564.00,1.64
9563.00,1.64
9562.00,1.64
9561.00,1.64
9560.00,1.64
9559.00,1.64
9558.00,1.64
9557.00,1.64
9556.00,1.64
9555.00,1.64
9554.00,1.64
9553.00,1.64
9552.00,1.64
9551.00,1.64
9550.00,1.64
9549.00,1.64
9548.00,1.64
9547.00,1.63
9546.00,1.63
9545.00,1.63
9544.00,1.63
9543.00,1.63
9542.00,1.62
9541.00,1.62
9540.00,1.62
9539.00,1.62
9538.00,1.62
9537.00,1.62
9536.00,1.62
9535.00,1.62
9534.00,1.62
9533.00,1.62
9532.00,1.62
9531.00,1.62
9530.00,1.62
9529.00,1.63
9528.00,1.63
9527.00,1.63
9526.00,1.64
9525.00,1.64
9524.00,1.65
9523.00,1.65
9522.00,1.66
9521.00,1.67
9520.00,1.67
9519.00,1.68
9518.00,1.69
9517.00,1.70
9516.00,1.71
9515.00,1.72
9514.00,1.73
9513.00,1.74
9512.00,1.75
9511.00,1.76
9510.00,1.77
9509.00,1.78
9508.00,1.79
9507.00,1.80
9506.00,1.81
9505.00,1.82
9504.00,1.83
9503.00,1.84
9502.00,1.85
9501.00,1.86
9500.00,1.87
9499.00,1.88
9498.00,1.88
9497.00,1.89
9496.00,1.90
9495.00,1.91
9494.00,1.91
9493.00,1.92
9492.00,1.92
9491.00,1.92
9490.00,1.92
9489.00,1.92
9488.00,1.92
9487.00,1.92
9486.00,1.91
9485.00,1.90
9484.00,1.90
9483.00,1.89
9482.00,1.88
9481.00,1.87
9480.00,1.86
9479.00,1.85
9478.00,1.84
9477.00,1.83
9476.00,1.81
9475.00,1.80
9474.00,1.79
9473.00,1.78
9472.00,1.77
9471.00,1.76
9470.00,1.74
9469.00,1.73
9468.00,1.72
9467.00,1.72
9466.00,1.71
9465.00,1.70
9464.00,1.70
9463.00,1.69
9462.00,1.69
9461.00,1.69
9460.00,1.69
9459.00,1.69
9458.00,1.69
9457.00,1.70
9456.00,1.70
9455.00,1.71
9454.00,1.71
9453.00,1.71
9452.00,1.72
9451.00,1.72
9450.00,1.73
9449.00,1.73
9448.00,1.74
9447.00,1.74
9446.00,1.75
9445.00,1.75
9444.00,1.76
9443.00,1.76
9442.00,1.77
9441.00,1.77
9440.00,1.78
9439.00,1.78
9438.00,1.79
9437.00,1.79
9436.00,1.79
9435.00,1.79
9434.00,1.79
9433.00,1.79
9432.00,1.79
9431.00,1.79
9430.00,1.78
9429.00,1.78
9428.00,1.78
9427.00,1.78
9426.00,1.79
9425.00,1.79
9424.00,1.79
9423.00,1.79
9422.00,1.79
9421.00,1.79
9420.00,1.79
9419.00,1.79
9418.00,1.79
9417.00,1.79
9416.00,1.79
9415.00,1.79
9414.00,1.79
9413.00,1.79
9412.00,1.79
9411.00,1.79
9410.00,1.79
9409.00,1.79
9408.00,1.79
9407.00,1.79
9406.00,1.79
9405.00,1.79
9404.00,1.79
9403.00,1.79
9402.00,1.78
9401.00,1.78
9400.00,1.78
9399.00,1.78
9398.00,1.77
9397.00,1.77
9396.00,1.77
9395.00,1.77
9394.00,1.77
9393.00,1.76
9392.00,1.76
9391.00,1.76
9390.00,1.76
9389.00,1.76
9388.00,1.75
9387.00,1.75
9386.00,1.75
9385.00,1.75
9384.00,1.74
9383.00,1.74
9382.00,1.74
9381.00,1.74
9380.00,1.74
9379.00,1.74
9378.00,1.74
9377.00,1.74
9376.00,1.74
9375.00,1.74
9374.00,1.75
9373.00,1.75
9372.00,1.74
9371.00,1.74
9370.00,1.74
9369.00,1.74
9368.00,1.73
9367.00,1.73
9366.00,1.72
9365.00,1.72
9364.00,1.71
9363.00,1.71
9362.00,1.70
9361.00,1.70
9360.00,1.69
9359.00,1.69
9358.00,1.69
9357.00,1.68
9356.00,1.68
9355.00,1.67
9354.00,1.67
9353.00,1.66
9352.00,1.66
9351.00,1.65
9350.00,1.65
9349.00,1.64
9348.00,1.64
9347.00,1.63
9346.00,1.63
9345.00,1.63
9344.00,1.62
9343.00,1.62
9342.00,1.62
9341.00,1.63
9340.00,1.63
9339.00,1.63
9338.00,1.63
9337.00,1.64
9336.00,1.64
9335.00,1.64
9334.00,1.65
9333.00,1.65
9332.00,1.66
9331.00,1.66
9330.00,1.67
9329.00,1.67
9328.00,1.68
9327.00,1.68
9326.00,1.69
9325.00,1.70
9324.00,1.70
9323.00,1.71
9322.00,1.72
9321.00,1.73
9320.00,1.73
9319.00,1.74
9318.00,1.75
9317.00,1.75
9316.00,1.76
9315.00,1.76
9314.00,1.76
9313.00,1.77
9312.00,1.77
9311.00,1.77
9310.00,1.77
9309.00,1.78
9308.00,1.78
9307.00,1.78
9306.00,1.78
9305.00,1.78
9304.00,1.79
9303.00,1.79
9302.00,1.79
9301.00,1.79
9300.00,1.79
9299.00,1.79
9298.00,1.79
9297.00,1.80
9296.00,1.80
9295.00,1.80
9294.00,1.80
9293.00,1.80
9292.00,1.80
9291.00,1.80
9290.00,1.80
9289.00,1.80
9288.00,1.80
9287.00,1.80
9286.00,1.80
9285.00,1.80
9284.00,1.80
9283.00,1.80
9282.00,1.80
9281.00,1.80
9280.00,1.80
9279.00,1.79
9278.00,1.79
9277.00,1.79
9276.00,1.79
9275.00,1.79
9274.00,1.78
9273.00,1.78
9272.00,1.78
9271.00,1.77
9270.00,1.77
9269.00,1.77
9268.00,1.77
9267.00,1.76
9266.00,1.76
9265.00,1.76
9264.00,1.76
9263.00,1.76
9262.00,1.75
9261.00,1.75
9260.00,1.75
9259.00,1.75
9258.00,1.74
9257.00,1.74
9256.00,1.74
9255.00,1.74
9254.00,1.73
9253.00,1.73
9252.00,1.73
9251.00,1.73
9250.00,1.73
9249.00,1.73
9248.00,1.73
9247.00,1.73
9246.00,1.73
9245.00,1.73
9244.00,1.73
9243.00,1.73
9242.00,1.73
9241.00,1.74
9240.00,1.74
9239.00,1.74
9238.00,1.74
9237.00,1.74
9236.00,1.75
9235.00,1.75
9234.00,1.76
9233.00,1.76
9232.00,1.77
9231.00,1.77
9230.00,1.78
9229.00,1.78
9228.00,1.79
9227.00,1.79
9226.00,1.79
9225.00,1.80
9224.00,1.80
9223.00,1.80
9222.00,1.80
9221.00,1.80
9220.00,1.80
9219.00,1.80
9218.00,1.80
9217.00,1.80
9216.00,1.80
9215.00,1.79
9214.00,1.79
9213.00,1.79
9212.00,1.79
9211.00,1.79
9210.00,1.78
9209.00,1.78
9208.00,1.78
9207.00,1.78
9206.00,1.78
9205.00,1.78
9204.00,1.78
9203.00,1.77
9202.00,1.77
9201.00,1.77
9200.00,1.77
9199.00,1.77
9198.00,1.77
9197.00,1.78
9196.00,1.78
9195.00,1.78
9194.00,1.79
9193.00,1.79
9192.00,1.80
9191.00,1.81
9190.00,1.81
9189.00,1.82
9188.00,1.83
9187.00,1.83
9186.00,1.84
9185.00,1.85
9184.00,1.85
9183.00,1.85
9182.00,1.86
9181.00,1.86
9180.00,1.86
9179.00,1.86
9178.00,1.86
9177.00,1.86
9176.00,1.86
9175.00,1.86
9174.00,1.86
9173.00,1.86
9172.00,1.86
9171.00,1.85
9170.00,1.85
9169.00,1.85
9168.00,1.85
9167.00,1.84
9166.00,1.84
9165.00,1.83
9164.00,1.83
9163.00,1.82
9162.00,1.81
9161.00,1.81
9160.00,1.80
9159.00,1.79
9158.00,1.79
9157.00,1.78
9156.00,1.78
9155.00,1.77
9154.00,1.77
9153.00,1.77
9152.00,1.76
9151.00,1.76
9150.00,1.76
9149.00,1.76
9148.00,1.76
9147.00,1.75
9146.00,1.75
9145.00,1.75
9144.00,1.75
9143.00,1.75
9142.00,1.74
9141.00,1.74
9140.00,1.74
9139.00,1.74
9138.00,1.74
9137.00,1.74
9136.00,1.74
9135.00,1.74
9134.00,1.75
9133.00,1.75
9132.00,1.75
9131.00,1.75
9130.00,1.76
9129.00,1.76
9128.00,1.76
9127.00,1.76
9126.00,1.77
9125.00,1.77
9124.00,1.77
9123.00,1.77
9122.00,1.77
9121.00,1.77
9120.00,1.77
9119.00,1.77
9118.00,1.77
9117.00,1.77
9116.00,1.77
9115.00,1.77
9114.00,1.77
9113.00,1.76
9112.00,1.76
9111.00,1.76
9110.00,1.76
9109.00,1.75
9108.00,1.75
9107.00,1.74
9106.00,1.73
9105.00,1.73
9104.00,1.72
9103.00,1.71
9102.00,1.71
9101.00,1.70
9100.00,1.70
9099.00,1.69
9098.00,1.69
9097.00,1.69
9096.00,1.68
9095.00,1.68
9094.00,1.68
9093.00,1.68
9092.00,1.68
9091.00,1.68
9090.00,1.68
9089.00,1.69
9088.00,1.69
9087.00,1.69
9086.00,1.69
9085.00,1.70
9084.00,1.70
9083.00,1.71
9082.00,1.71
9081.00,1.72
9080.00,1.73
9079.00,1.73
9078.00,1.74
9077.00,1.75
9076.00,1.75
9075.00,1.76
9074.00,1.77
9073.00,1.77
9072.00,1.78
9071.00,1.78
9070.00,1.78
9069.00,1.79
9068.00,1.79
9067.00,1.79
9066.00,1.79
9065.00,1.79
9064.00,1.79
9063.00,1.79
9062.00,1.79
9061.00,1.79
9060.00,1.79
9059.00,1.79
9058.00,1.78
9057.00,1.78
9056.00,1.77
9055.00,1.77
9054.00,1.76
9053.00,1.76
9052.00,1.75
9051.00,1.75
9050.00,1.74
9049.00,1.73
9048.00,1.73
9047.00,1.72
9046.00,1.72
9045.00,1.71
9044.00,1.71
9043.00,1.70
9042.00,1.70
9041.00,1.69
9040.00,1.69
9039.00,1.69
9038.00,1.69
9037.00,1.68
9036.00,1.68
9035.00,1.68
9034.00,1.68
9033.00,1.67
9032.00,1.67
9031.00,1.67
9030.00,1.67
9029.00,1.67
9028.00,1.67
9027.00,1.68
9026.00,1.68
9025.00,1.68
9024.00,1.69
9023.00,1.69
9022.00,1.70
9021.00,1.70
9020.00,1.71
9019.00,1.71
9018.00,1.72
9017.00,1.72
9016.00,1.73
9015.00,1.73
9014.00,1.73
9013.00,1.74
9012.00,1.74
9011.00,1.74
9010.00,1.74
9009.00,1.75
9008.00,1.75
9007.00,1.75
9006.00,1.76
9005.00,1.76
9004.00,1.77
9003.00,1.77
9002.00,1.77
9001.00,1.77
9000.00,1.77
8999.00,1.78
8998.00,1.78
8997.00,1.78
8996.00,1.78
8995.00,1.78
8994.00,1.78
8993.00,1.78
8992.00,1.78
8991.00,1.78
8990.00,1.79
8989.00,1.79
8988.00,1.79
8987.00,1.79
8986.00,1.80
8985.00,1.80
8984.00,1.80
8983.00,1.81
8982.00,1.81
8981.00,1.81
8980.00,1.81
8979.00,1.81
8978.00,1.81
8977.00,1.82
8976.00,1.82
8975.00,1.82
8974.00,1.82
8973.00,1.82
8972.00,1.82
8971.00,1.83
8970.00,1.83
8969.00,1.83
8968.00,1.83
8967.00,1.83
8966.00,1.83
8965.00,1.83
8964.00,1.83
8963.00,1.83
8962.00,1.82
8961.00,1.82
8960.00,1.82
8959.00,1.81
8958.00,1.81
8957.00,1.80
8956.00,1.80
8955.00,1.80
8954.00,1.79
8953.00,1.79
8952.00,1.79
8951.00,1.79
8950.00,1.78
8949.00,1.78
8948.00,1.78
8947.00,1.78
8946.00,1.77
8945.00,1.77
8944.00,1.77
8943.00,1.77
8942.00,1.76
8941.00,1.76
8940.00,1.76
8939.00,1.75
8938.00,1.75
8937.00,1.75
8936.00,1.75
8935.00,1.75
8934.00,1.75
8933.00,1.75
8932.00,1.75
8931.00,1.76
8930.00,1.76
8929.00,1.76
8928.00,1.77
8927.00,1.77
8926.00,1.77
8925.00,1.78
8924.00,1.78
8923.00,1.78
8922.00,1.79
8921.00,1.79
8920.00,1.80
8919.00,1.80
8918.00,1.81
8917.00,1.82
8916.00,1.82
8915.00,1.83
8914.00,1.84
8913.00,1.84
8912.00,1.85
8911.00,1.86
8910.00,1.86
8909.00,1.87
8908.00,1.88
8907.00,1.88
8906.00,1.89
8905.00,1.89
8904.00,1.90
8903.00,1.90
8902.00,1.91
8901.00,1.91
8900.00,1.91
8899.00,1.92
8898.00,1.92
8897.00,1.92
8896.00,1.92
8895.00,1.92
8894.00,1.93
8893.00,1.92
8892.00,1.92
8891.00,1.92
8890.00,1.92
8889.00,1.92
8888.00,1.91
8887.00,1.91
8886.00,1.91
8885.00,1.91
8884.00,1.90
8883.00,1.90
8882.00,1.89
8881.00,1.89
8880.00,1.88
8879.00,1.88
8878.00,1.88
8877.00,1.87
8876.00,1.87
8875.00,1.86
8874.00,1.86
8873.00,1.85
8872.00,1.85
8871.00,1.85
8870.00,1.84
8869.00,1.84
8868.00,1.84
8867.00,1.84
8866.00,1.84
8865.00,1.84
8864.00,1.84
8863.00,1.84
8862.00,1.83
8861.00,1.83
8860.00,1.83
8859.00,1.83
8858.00,1.83
8857.00,1.83
8856.00,1.84
8855.00,1.84
8854.00,1.84
8853.00,1.84
8852.00,1.84
8851.00,1.84
8850.00,1.84
8849.00,1.84
8848.00,1.84
8847.00,1.84
8846.00,1.84
8845.00,1.84
8844.00,1.83
8843.00,1.83
8842.00,1.83
8841.00,1.83
8840.00,1.83
8839.00,1.83
8838.00,1.82
8837.00,1.82
8836.00,1.82
8835.00,1.82
8834.00,1.82
8833.00,1.82
8832.00,1.81
8831.00,1.81
8830.00,1.81
8829.00,1.81
8828.00,1.81
8827.00,1.81
8826.00,1.80
8825.00,1.80
8824.00,1.80
8823.00,1.80
8822.00,1.79
8821.00,1.79
8820.00,1.79
8819.00,1.79
8818.00,1.79
8817.00,1.79
8816.00,1.78
8815.00,1.78
8814.00,1.78
8813.00,1.78
8812.00,1.77
8811.00,1.77
8810.00,1.77
8809.00,1.77
8808.00,1.76
8807.00,1.76
8806.00,1.76
8805.00,1.76
8804.00,1.75
8803.00,1.75
8802.00,1.75
8801.00,1.75
8800.00,1.75
8799.00,1.75
8798.00,1.75
8797.00,1.75
8796.00,1.75
8795.00,1.75
8794.00,1.75
8793.00,1.75
8792.00,1.75
8791.00,1.75
8790.00,1.75
8789.00,1.75
8788.00,1.75
8787.00,1.75
8786.00,1.75
8785.00,1.75
8784.00,1.76
8783.00,1.76
8782.00,1.76
8781.00,1.76
8780.00,1.76
8779.00,1.76
8778.00,1.76
8777.00,1.76
8776.00,1.76
8775.00,1.76
8774.00,1.76
8773.00,1.76
8772.00,1.75
8771.00,1.75
8770.00,1.75
8769.00,1.75
8768.00,1.75
8767.00,1.74
8766.00,1.74
8765.00,1.74
8764.00,1.74
8763.00,1.74
8762.00,1.74
8761.00,1.73
8760.00,1.73
8759.00,1.73
8758.00,1.72
8757.00,1.72
8756.00,1.72
8755.00,1.71
8754.00,1.71
8753.00,1.71
8752.00,1.70
8751.00,1.70
8750.00,1.70
8749.00,1.70
8748.00,1.70
8747.00,1.69
8746.00,1.69
8745.00,1.69
8744.00,1.69
8743.00,1.69
8742.00,1.69
8741.00,1.69
8740.00,1.69
8739.00,1.69
8738.00,1.69
8737.00,1.69
8736.00,1.70
8735.00,1.70
8734.00,1.70
8733.00,1.70
8732.00,1.71
8731.00,1.71
8730.00,1.72
8729.00,1.72
8728.00,1.73
8727.00,1.73
8726.00,1.74
8725.00,1.74
8724.00,1.75
8723.00,1.76
8722.00,1.76
8721.00,1.77
8720.00,1.77
8719.00,1.77
8718.00,1.78
8717.00,1.78
8716.00,1.79
8715.00,1.80
8714.00,1.80
8713.00,1.81
8712.00,1.81
8711.00,1.82
8710.00,1.82
8709.00,1.83
8708.00,1.83
8707.00,1.83
8706.00,1.84
8705.00,1.84
8704.00,1.84
8703.00,1.84
8702.00,1.84
8701.00,1.84
8700.00,1.84
8699.00,1.84
8698.00,1.84
8697.00,1.84
8696.00,1.84
8695.00,1.84
8694.00,1.84
8693.00,1.84
8692.00,1.85
8691.00,1.85
8690.00,1.85
8689.00,1.85
8688.00,1.85
8687.00,1.84
8686.00,1.84
8685.00,1.84
8684.00,1.84
8683.00,1.84
8682.00,1.84
8681.00,1.84
8680.00,1.83
8679.00,1.83
8678.00,1.83
8677.00,1.83
8676.00,1.82
8675.00,1.82
8674.00,1.82
8673.00,1.81
8672.00,1.81
8671.00,1.80
8670.00,1.80
8669.00,1.79
8668.00,1.79
8667.00,1.78
8666.00,1.78
8665.00,1.77
8664.00,1.76
8663.00,1.75
8662.00,1.75
8661.00,1.74
8660.00,1.73
8659.00,1.73
8658.00,1.72
8657.00,1.71
8656.00,1.71
8655.00,1.70
8654.00,1.70
8653.00,1.69
8652.00,1.69
8651.00,1.69
8650.00,1.69
8649.00,1.69
8648.00,1.69
8647.00,1.69
8646.00,1.69
8645.00,1.69
8644.00,1.69
8643.00,1.70
8642.00,1.70
8641.00,1.70
8640.00,1.71
8639.00,1.71
8638.00,1.72
8637.00,1.72
8636.00,1.73
8635.00,1.73
8634.00,1.74
8633.00,1.74
8632.00,1.75
8631.00,1.76
8630.00,1.76
8629.00,1.77
8628.00,1.77
8627.00,1.78
8626.00,1.78
8625.00,1.78
8624.00,1.79
8623.00,1.79
8622.00,1.79
8621.00,1.80
8620.00,1.80
8619.00,1.80
8618.00,1.81
8617.00,1.81
8616.00,1.81
8615.00,1.81
8614.00,1.81
8613.00,1.81
8612.00,1.82
8611.00,1.82
8610.00,1.82
8609.00,1.82
8608.00,1.82
8607.00,1.82
8606.00,1.82
8605.00,1.82
8604.00,1.82
8603.00,1.82
8602.00,1.81
8601.00,1.81
8600.00,1.81
8599.00,1.81
8598.00,1.80
8597.00,1.80
8596.00,1.80
8595.00,1.79
8594.00,1.79
8593.00,1.78
8592.00,1.78
8591.00,1.77
8590.00,1.77
8589.00,1.76
8588.00,1.75
8587.00,1.75
8586.00,1.74
8585.00,1.73
8584.00,1.73
8583.00,1.72
8582.00,1.71
8581.00,1.71
8580.00,1.70
8579.00,1.70
8578.00,1.69
8577.00,1.69
8576.00,1.68
8575.00,1.68
8574.00,1.68
8573.00,1.68
8572.00,1.67
8571.00,1.67
8570.00,1.67
8569.00,1.67
8568.00,1.67
8567.00,1.67
8566.00,1.67
8565.00,1.68
8564.00,1.68
8563.00,1.68
8562.00,1.68
8561.00,1.69
8560.00,1.69
8559.00,1.70
8558.00,1.70
8557.00,1.71
8556.00,1.72
8555.00,1.72
8554.00,1.73
8553.00,1.73
8552.00,1.74
8551.00,1.74
8550.00,1.75
8549.00,1.75
8548.00,1.75
8547.00,1.75
8546.00,1.76
8545.00,1.76
8544.00,1.76
8543.00,1.76
8542.00,1.76
8541.00,1.76
8540.00,1.77
8539.00,1.77
8538.00,1.77
8537.00,1.77
8536.00,1.77
8535.00,1.77
8534.00,1.77
8533.00,1.77
8532.00,1.77
8531.00,1.77
8530.00,1.76
8529.00,1.76
8528.00,1.76
8527.00,1.76
8526.00,1.76
8525.00,1.76
8524.00,1.76
8523.00,1.76
8522.00,1.76
8521.00,1.75
8520.00,1.75
8519.00,1.75
8518.00,1.75
8517.00,1.75
8516.00,1.75
8515.00,1.75
8514.00,1.75
8513.00,1.75
8512.00,1.75
8511.00,1.75
8510.00,1.74
8509.00,1.74
8508.00,1.74
8507.00,1.74
8506.00,1.73
8505.00,1.73
8504.00,1.73
8503.00,1.73
8502.00,1.73
8501.00,1.73
8500.00,1.73
8499.00,1.73
8498.00,1.73
8497.00,1.73
8496.00,1.73
8495.00,1.73
8494.00,1.73
8493.00,1.73
8492.00,1.73
8491.00,1.73
8490.00,1.73
8489.00,1.72
8488.00,1.72
8487.00,1.72
8486.00,1.72
8485.00,1.72
8484.00,1.72
8483.00,1.72
8482.00,1.72
8481.00,1.72
8480.00,1.72
8479.00,1.72
8478.00,1.71
8477.00,1.71
8476.00,1.71
8475.00,1.71
8474.00,1.71
8473.00,1.71
8472.00,1.70
8471.00,1.70
8470.00,1.70
8469.00,1.69
8468.00,1.69
8467.00,1.69
8466.00,1.68
8465.00,1.68
8464.00,1.68
8463.00,1.67
8462.00,1.67
8461.00,1.67
8460.00,1.67
8459.00,1.66
8458.00,1.66
8457.00,1.66
8456.00,1.65
8455.00,1.65
8454.00,1.65
8453.00,1.64
8452.00,1.64
8451.00,1.63
8450.00,1.63
8449.00,1.62
8448.00,1.62
8447.00,1.61
8446.00,1.61
8445.00,1.61
8444.00,1.60
8443.00,1.60
8442.00,1.60
8441.00,1.59
8440.00,1.59
8439.00,1.59
8438.00,1.59
8437.00,1.59
8436.00,1.59
8435.00,1.58
8434.00,1.58
8433.00,1.58
8432.00,1.58
8431.00,1.58
8430.00,1.58
8429.00,1.59
8428.00,1.59
8427.00,1.59
8426.00,1.59
8425.00,1.59
8424.00,1.59
8423.00,1.59
8422.00,1.59
8421.00,1.59
8420.00,1.60
8419.00,1.60
8418.00,1.60
8417.00,1.60
8416.00,1.60
8415.00,1.61
8414.00,1.61
8413.00,1.61
8412.00,1.61
8411.00,1.61
8410.00,1.61
8409.00,1.62
8408.00,1.62
8407.00,1.62
8406.00,1.62
8405.00,1.63
8404.00,1.63
8403.00,1.63
8402.00,1.63
8401.00,1.64
8400.00,1.64
8399.00,1.65
8398.00,1.65
8397.00,1.66
8396.00,1.66
8395.00,1.67
8394.00,1.68
8393.00,1.68
8392.00,1.69
8391.00,1.70
8390.00,1.70
8389.00,1.71
8388.00,1.72
8387.00,1.72
8386.00,1.73
8385.00,1.74
8384.00,1.75
8383.00,1.75
8382.00,1.76
8381.00,1.76
8380.00,1.77
8379.00,1.77
8378.00,1.78
8377.00,1.78
8376.00,1.79
8375.00,1.79
8374.00,1.80
8373.00,1.80
8372.00,1.80
8371.00,1.81
8370.00,1.81
8369.00,1.81
8368.00,1.81
8367.00,1.82
8366.00,1.82
8365.00,1.82
8364.00,1.82
8363.00,1.82
8362.00,1.82
8361.00,1.82
8360.00,1.82
8359.00,1.82
8358.00,1.82
8357.00,1.81
8356.00,1.81
8355.00,1.81
8354.00,1.81
8353.00,1.81
8352.00,1.81
8351.00,1.80
8350.00,1.80
8349.00,1.80
8348.00,1.80
8347.00,1.80
8346.00,1.80
8345.00,1.79
8344.00,1.79
8343.00,1.79
8342.00,1.79
8341.00,1.79
8340.00,1.79
8339.00,1.79
8338.00,1.78
8337.00,1.78
8336.00,1.78
8335.00,1.79
8334.00,1.79
8333.00,1.79
8332.00,1.79
8331.00,1.79
8330.00,1.79
8329.00,1.80
8328.00,1.80
8327.00,1.80
8326.00,1.80
8325.00,1.81
8324.00,1.81
8323.00,1.81
8322.00,1.81
8321.00,1.82
8320.00,1.82
8319.00,1.83
8318.00,1.83
8317.00,1.83
8316.00,1.84
8315.00,1.84
8314.00,1.84
8313.00,1.85
8312.00,1.85
8311.00,1.85
8310.00,1.86
8309.00,1.86
8308.00,1.86
8307.00,1.86
8306.00,1.86
8305.00,1.86
8304.00,1.86
8303.00,1.86
8302.00,1.86
8301.00,1.86
8300.00,1.86
8299.00,1.86
8298.00,1.86
8297.00,1.86
8296.00,1.85
8295.00,1.85
8294.00,1.85
8293.00,1.85
8292.00,1.84
8291.00,1.84
8290.00,1.83
8289.00,1.83
8288.00,1.82
8287.00,1.82
8286.00,1.81
8285.00,1.80
8284.00,1.80
8283.00,1.79
8282.00,1.79
8281.00,1.78
8280.00,1.78
8279.00,1.77
8278.00,1.77
8277.00,1.77
8276.00,1.77
8275.00,1.76
8274.00,1.76
8273.00,1.76
8272.00,1.75
8271.00,1.75
8270.00,1.75
8269.00,1.74
8268.00,1.74
8267.00,1.74
8266.00,1.74
8265.00,1.73
8264.00,1.73
8263.00,1.73
8262.00,1.73
8261.00,1.73
8260.00,1.73
8259.00,1.73
8258.00,1.73
8257.00,1.73
8256.00,1.73
8255.00,1.73
8254.00,1.73
8253.00,1.73
8252.00,1.73
8251.00,1.73
8250.00,1.73
8249.00,1.73
8248.00,1.73
8247.00,1.73
8246.00,1.73
8245.00,1.73
8244.00,1.73
8243.00,1.73
8242.00,1.73
8241.00,1.73
8240.00,1.74
8239.00,1.74
8238.00,1.74
8237.00,1.75
8236.00,1.75
8235.00,1.76
8234.00,1.76
8233.00,1.77
8232.00,1.77
8231.00,1.78
8230.00,1.79
8229.00,1.79
8228.00,1.80
8227.00,1.80
8226.00,1.81
8225.00,1.81
8224.00,1.82
8223.00,1.83
8222.00,1.83
8221.00,1.84
8220.00,1.85
8219.00,1.85
8218.00,1.86
8217.00,1.86
8216.00,1.87
8215.00,1.87
8214.00,1.87
8213.00,1.87
8212.00,1.87
8211.00,1.87
8210.00,1.87
8209.00,1.87
8208.00,1.87
8207.00,1.87
8206.00,1.86
8205.00,1.86
8204.00,1.86
8203.00,1.85
8202.00,1.85
8201.00,1.85
8200.00,1.84
8199.00,1.84
8198.00,1.83
8197.00,1.83
8196.00,1.83
8195.00,1.82
8194.00,1.82
8193.00,1.81
8192.00,1.81
8191.00,1.80
8190.00,1.80
8189.00,1.80
8188.00,1.80
8187.00,1.79
8186.00,1.79
8185.00,1.79
8184.00,1.79
8183.00,1.79
8182.00,1.79
8181.00,1.79
8180.00,1.79
8179.00,1.79
8178.00,1.79
8177.00,1.80
8176.00,1.80
8175.00,1.80
8174.00,1.80
8173.00,1.81
8172.00,1.81
8171.00,1.81
8170.00,1.82
8169.00,1.82
8168.00,1.83
8167.00,1.83
8166.00,1.83
8165.00,1.84
8164.00,1.84
8163.00,1.84
8162.00,1.85
8161.00,1.85
8160.00,1.85
8159.00,1.86
8158.00,1.86
8157.00,1.86
8156.00,1.87
8155.00,1.87
8154.00,1.87
8153.00,1.88
8152.00,1.88
8151.00,1.88
8150.00,1.88
8149.00,1.89
8148.00,1.89
8147.00,1.89
8146.00,1.89
8145.00,1.89
8144.00,1.89
8143.00,1.89
8142.00,1.89
8141.00,1.89
8140.00,1.89
8139.00,1.89
8138.00,1.89
8137.00,1.89
8136.00,1.89
8135.00,1.89
8134.00,1.88
8133.00,1.88
8132.00,1.88
8131.00,1.88
8130.00,1.88
8129.00,1.87
8128.00,1.87
8127.00,1.86
8126.00,1.86
8125.00,1.86
8124.00,1.85
8123.00,1.85
8122.00,1.85
8121.00,1.85
8120.00,1.84
8119.00,1.84
8118.00,1.84
8117.00,1.84
8116.00,1.84
8115.00,1.84
8114.00,1.84
8113.00,1.84
8112.00,1.84
8111.00,1.85
8110.00,1.85
8109.00,1.85
8108.00,1.86
8107.00,1.86
8106.00,1.87
8105.00,1.87
8104.00,1.88
8103.00,1.88
8102.00,1.89
8101.00,1.89
8100.00,1.90
8099.00,1.91
8098.00,1.91
8097.00,1.92
8096.00,1.93
8095.00,1.93
8094.00,1.94
8093.00,1.94
8092.00,1.95
8091.00,1.95
8090.00,1.96
8089.00,1.96
8088.00,1.96
8087.00,1.97
8086.00,1.97
8085.00,1.97
8084.00,1.96
8083.00,1.96
8082.00,1.96
8081.00,1.95
8080.00,1.95
8079.00,1.95
8078.00,1.94
8077.00,1.94
8076.00,1.93
8075.00,1.93
8074.00,1.92
8073.00,1.91
8072.00,1.91
8071.00,1.90
8070.00,1.89
8069.00,1.89
8068.00,1.88
8067.00,1.87
8066.00,1.87
8065.00,1.86
8064.00,1.85
8063.00,1.85
8062.00,1.84
8061.00,1.84
8060.00,1.83
8059.00,1.83
8058.00,1.83
8057.00,1.82
8056.00,1.82
8055.00,1.82
8054.00,1.82
8053.00,1.82
8052.00,1.82
8051.00,1.82
8050.00,1.82
8049.00,1.82
8048.00,1.83
8047.00,1.83
8046.00,1.83
8045.00,1.83
8044.00,1.84
8043.00,1.84
8042.00,1.85
8041.00,1.85
8040.00,1.86
8039.00,1.86
8038.00,1.87
8037.00,1.87
8036.00,1.88
8035.00,1.88
8034.00,1.89
8033.00,1.89
8032.00,1.90
8031.00,1.90
8030.00,1.90
8029.00,1.91
8028.00,1.91
8027.00,1.92
8026.00,1.92
8025.00,1.92
8024.00,1.93
8023.00,1.93
8022.00,1.93
8021.00,1.94
8020.00,1.94
8019.00,1.94
8018.00,1.94
8017.00,1.94
8016.00,1.94
8015.00,1.94
8014.00,1.95
8013.00,1.95
8012.00,1.95
8011.00,1.95
8010.00,1.95
8009.00,1.95
8008.00,1.95
8007.00,1.95
8006.00,1.95
8005.00,1.95
8004.00,1.95
8003.00,1.95
8002.00,1.95
8001.00,1.95
8000.00,1.95
7999.00,1.95
7998.00,1.94
7997.00,1.94
7996.00,1.94
7995.00,1.94
7994.00,1.94
7993.00,1.94
7992.00,1.94
7991.00,1.94
7990.00,1.94
7989.00,1.93
7988.00,1.93
7987.00,1.93
7986.00,1.93
7985.00,1.93
7984.00,1.93
7983.00,1.93
7982.00,1.93
7981.00,1.92
7980.00,1.92
7979.00,1.92
7978.00,1.92
7977.00,1.91
7976.00,1.91
7975.00,1.91
7974.00,1.91
7973.00,1.90
7972.00,1.90
7971.00,1.90
7970.00,1.90
7969.00,1.90
7968.00,1.89
7967.00,1.89
7966.00,1.89
7965.00,1.89
7964.00,1.89
7963.00,1.89
7962.00,1.88
7961.00,1.88
7960.00,1.88
7959.00,1.88
7958.00,1.88
7957.00,1.88
7956.00,1.87
7955.00,1.87
7954.00,1.87
7953.00,1.87
7952.00,1.87
7951.00,1.87
7950.00,1.88
7949.00,1.88
7948.00,1.88
7947.00,1.88
7946.00,1.89
7945.00,1.89
7944.00,1.89
7943.00,1.89
7942.00,1.89
7941.00,1.90
7940.00,1.90
7939.00,1.90
7938.00,1.90
7937.00,1.90
7936.00,1.90
7935.00,1.91
7934.00,1.91
7933.00,1.91
7932.00,1.91
7931.00,1.91
7930.00,1.91
7929.00,1.92
7928.00,1.92
7927.00,1.92
7926.00,1.92
7925.00,1.92
7924.00,1.92
7923.00,1.92
7922.00,1.91
7921.00,1.91
7920.00,1.91
7919.00,1.91
7918.00,1.91
7917.00,1.90
7916.00,1.90
7915.00,1.90
7914.00,1.90
7913.00,1.90
7912.00,1.90
7911.00,1.90
7910.00,1.90
7909.00,1.91
7908.00,1.91
7907.00,1.91
7906.00,1.91
7905.00,1.92
7904.00,1.92
7903.00,1.92
7902.00,1.92
7901.00,1.93
7900.00,1.93
7899.00,1.94
7898.00,1.94
7897.00,1.95
7896.00,1.95
7895.00,1.96
7894.00,1.96
7893.00,1.97
7892.00,1.97
7891.00,1.97
7890.00,1.98
7889.00,1.98
7888.00,1.99
7887.00,1.99
7886.00,1.99
7885.00,1.99
7884.00,1.99
7883.00,2.00
7882.00,2.00
7881.00,2.00
7880.00,2.00
7879.00,2.00
7878.00,2.00
7877.00,2.00
7876.00,2.00
7875.00,2.00
7874.00,2.00
7873.00,1.99
7872.00,1.99
7871.00,1.99
7870.00,1.99
7869.00,1.99
7868.00,1.98
7867.00,1.98
7866.00,1.98
7865.00,1.98
7864.00,1.97
7863.00,1.97
7862.00,1.97
7861.00,1.96
7860.00,1.96
7859.00,1.96
7858.00,1.95
7857.00,1.95
7856.00,1.95
7855.00,1.95
7854.00,1.94
7853.00,1.94
7852.00,1.94
7851.00,1.93
7850.00,1.93
7849.00,1.93
7848.00,1.93
7847.00,1.92
7846.00,1.92
7845.00,1.92
7844.00,1.92
7843.00,1.92
7842.00,1.91
7841.00,1.91
7840.00,1.91
7839.00,1.91
7838.00,1.91
7837.00,1.92
7836.00,1.92
7835.00,1.92
7834.00,1.92
7833.00,1.93
7832.00,1.93
7831.00,1.93
7830.00,1.94
7829.00,1.94
7828.00,1.94
7827.00,1.95
7826.00,1.95
7825.00,1.96
7824.00,1.96
7823.00,1.97
7822.00,1.97
7821.00,1.98
7820.00,1.98
7819.00,1.99
7818.00,1.99
7817.00,2.00
7816.00,2.00
7815.00,2.01
7814.00,2.01
7813.00,2.02
7812.00,2.02
7811.00,2.02
7810.00,2.03
7809.00,2.03
7808.00,2.03
7807.00,2.03
7806.00,2.03
7805.00,2.04
7804.00,2.04
7803.00,2.04
7802.00,2.04
7801.00,2.04
7800.00,2.04
7799.00,2.04
7798.00,2.04
7797.00,2.04
7796.00,2.04
7795.00,2.04
7794.00,2.04
7793.00,2.04
7792.00,2.04
7791.00,2.04
7790.00,2.03
7789.00,2.03
7788.00,2.03
7787.00,2.03
7786.00,2.03
7785.00,2.02
7784.00,2.02
7783.00,2.02
7782.00,2.02
7781.00,2.02
7780.00,2.02
7779.00,2.02
7778.00,2.01
7777.00,2.01
7776.00,2.01
7775.00,2.01
7774.00,2.01
7773.00,2.00
7772.00,2.00
7771.00,2.00
7770.00,2.00
7769.00,2.00
7768.00,2.00
7767.00,2.00
7766.00,2.00
7765.00,2.00
7764.00,2.00
7763.00,2.00
7762.00,2.00
7761.00,2.00
7760.00,2.00
7759.00,2.00
7758.00,2.00
7757.00,2.00
7756.00,2.00
7755.00,2.00
7754.00,2.00
7753.00,2.00
7752.00,2.00
7751.00,2.00
7750.00,2.00
7749.00,2.00
7748.00,2.00
7747.00,2.00
7746.00,2.00
7745.00,2.00
7744.00,2.00
7743.00,2.00
7742.00,2.00
7741.00,2.00
7740.00,2.00
7739.00,2.00
7738.00,2.00
7737.00,2.00
7736.00,2.00
7735.00,2.00
7734.00,2.00
7733.00,2.00
7732.00,2.01
7731.00,2.01
7730.00,2.01
7729.00,2.01
7728.00,2.01
7727.00,2.01
7726.00,2.01
7725.00,2.01
7724.00,2.01
7723.00,2.01
7722.00,2.01
7721.00,2.01
7720.00,2.01
7719.00,2.02
7718.00,2.02
7717.00,2.02
7716.00,2.02
7715.00,2.02
7714.00,2.02
7713.00,2.02
7712.00,2.02
7711.00,2.02
7710.00,2.02
7709.00,2.02
7708.00,2.02
7707.00,2.02
7706.00,2.02
7705.00,2.02
7704.00,2.02
7703.00,2.02
7702.00,2.02
7701.00,2.02
7700.00,2.02
7699.00,2.02
7698.00,2.02
7697.00,2.02
7696.00,2.02
7695.00,2.02
7694.00,2.02
7693.00,2.02
7692.00,2.02
7691.00,2.01
7690.00,2.01
7689.00,2.01
7688.00,2.01
7687.00,2.01
7686.00,2.01
7685.00,2.01
7684.00,2.01
7683.00,2.01
7682.00,2.00
7681.00,2.00
7680.00,2.00
7679.00,2.01
7678.00,2.01
7677.00,2.01
7676.00,2.01
7675.00,2.01
7674.00,2.02
7673.00,2.02
7672.00,2.02
7671.00,2.02
7670.00,2.03
7669.00,2.03
7668.00,2.03
7667.00,2.03
7666.00,2.04
7665.00,2.04
7664.00,2.04
7663.00,2.04
7662.00,2.05
7661.00,2.05
7660.00,2.05
7659.00,2.05
7658.00,2.06
7657.00,2.06
7656.00,2.06
7655.00,2.06
7654.00,2.06
7653.00,2.06
7652.00,2.06
7651.00,2.06
7650.00,2.05
7649.00,2.05
7648.00,2.05
7647.00,2.05
7646.00,2.04
7645.00,2.04
7644.00,2.04
7643.00,2.03
7642.00,2.03
7641.00,2.03
7640.00,2.02
7639.00,2.02
7638.00,2.02
7637.00,2.01
7636.00,2.01
7635.00,2.01
7634.00,2.01
7633.00,2.01
7632.00,2.00
7631.00,2.00
7630.00,2.00
7629.00,2.00
7628.00,2.00
7627.00,2.00
7626.00,2.00
7625.00,2.00
7624.00,2.00
7623.00,2.00
7622.00,2.00
7621.00,2.00
7620.00,2.00
7619.00,2.00
7618.00,2.01
7617.00,2.01
7616.00,2.01
7615.00,2.02
7614.00,2.02
7613.00,2.02
7612.00,2.02
7611.00,2.03
7610.00,2.03
7609.00,2.03
7608.00,2.03
7607.00,2.04
7606.00,2.04
7605.00,2.04
7604.00,2.04
7603.00,2.04
7602.00,2.04
7601.00,2.05
7600.00,2.05
7599.00,2.05
7598.00,2.05
7597.00,2.05
7596.00,2.05
7595.00,2.04
7594.00,2.04
7593.00,2.04
7592.00,2.04
7591.00,2.04
7590.00,2.03
7589.00,2.03
7588.00,2.03
7587.00,2.02
7586.00,2.02
7585.00,2.01
7584.00,2.01
7583.00,2.01
7582.00,2.01
7581.00,2.00
7580.00,2.00
7579.00,2.00
7578.00,2.00
7577.00,2.00
7576.00,2.00
7575.00,2.00
7574.00,1.99
7573.00,1.99
7572.00,1.99
7571.00,1.99
7570.00,1.99
7569.00,2.00
7568.00,2.00
7567.00,2.00
7566.00,2.00
7565.00,2.00
7564.00,2.00
7563.00,2.00
7562.00,2.01
7561.00,2.01
7560.00,2.01
7559.00,2.01
7558.00,2.01
7557.00,2.01
7556.00,2.02
7555.00,2.02
7554.00,2.02
7553.00,2.02
7552.00,2.02
7551.00,2.02
7550.00,2.02
7549.00,2.02
7548.00,2.02
7547.00,2.02
7546.00,2.02
7545.00,2.02
7544.00,2.02
7543.00,2.02
7542.00,2.02
7541.00,2.02
7540.00,2.01
7539.00,2.01
7538.00,2.01
7537.00,2.01
7536.00,2.01
7535.00,2.01
7534.00,2.01
7533.00,2.00
7532.00,2.00
7531.00,2.00
7530.00,2.00
7529.00,2.00
7528.00,1.99
7527.00,1.99
7526.00,1.99
7525.00,1.99
7524.00,1.99
7523.00,1.99
7522.00,1.99
7521.00,1.98
7520.00,1.98
7519.00,1.98
7518.00,1.98
7517.00,1.98
7516.00,1.98
7515.00,1.98
7514.00,1.98
7513.00,1.98
7512.00,1.98
7511.00,1.98
7510.00,1.98
7509.00,1.98
7508.00,1.98
7507.00,1.99
7506.00,1.99
7505.00,1.99
7504.00,1.99
7503.00,2.00
7502.00,2.00
7501.00,2.00
7500.00,2.01
7499.00,2.01
7498.00,2.01
7497.00,2.02
7496.00,2.02
7495.00,2.02
7494.00,2.03
7493.00,2.03
7492.00,2.03
7491.00,2.04
7490.00,2.04
7489.00,2.04
7488.00,2.04
7487.00,2.04
7486.00,2.04
7485.00,2.05
7484.00,2.05
7483.00,2.05
7482.00,2.05
7481.00,2.04
7480.00,2.04
7479.00,2.04
7478.00,2.04
7477.00,2.04
7476.00,2.04
7475.00,2.03
7474.00,2.03
7473.00,2.03
7472.00,2.03
7471.00,2.03
7470.00,2.02
7469.00,2.02
7468.00,2.02
7467.00,2.02
7466.00,2.01
7465.00,2.01
7464.00,2.01
7463.00,2.00
7462.00,2.00
7461.00,2.00
7460.00,2.00
7459.00,2.00
7458.00,1.99
7457.00,1.99
7456.00,1.99
7455.00,1.99
7454.00,1.99
7453.00,1.99
7452.00,1.99
7451.00,1.99
7450.00,1.99
7449.00,1.99
7448.00,1.99
7447.00,1.99
7446.00,1.99
7445.00,1.98
7444.00,1.98
7443.00,1.98
7442.00,1.98
7441.00,1.98
7440.00,1.98
7439.00,1.98
7438.00,1.98
7437.00,1.97
7436.00,1.97
7435.00,1.97
7434.00,1.97
7433.00,1.97
7432.00,1.97
7431.00,1.96
7430.00,1.96
7429.00,1.96
7428.00,1.95
7427.00,1.95
7426.00,1.95
7425.00,1.94
7424.00,1.94
7423.00,1.94
7422.00,1.93
7421.00,1.93
7420.00,1.93
7419.00,1.93
7418.00,1.93
7417.00,1.93
7416.00,1.92
7415.00,1.92
7414.00,1.92
7413.00,1.92
7412.00,1.91
7411.00,1.91
7410.00,1.91
7409.00,1.91
7408.00,1.90
7407.00,1.90
7406.00,1.90
7405.00,1.90
7404.00,1.89
7403.00,1.89
7402.00,1.89
7401.00,1.88
7400.00,1.88
7399.00,1.88
7398.00,1.87
7397.00,1.87
7396.00,1.86
7395.00,1.86
7394.00,1.86
7393.00,1.85
7392.00,1.85
7391.00,1.84
7390.00,1.84
7389.00,1.84
7388.00,1.84
7387.00,1.83
7386.00,1.83
7385.00,1.83
7384.00,1.83
7383.00,1.83
7382.00,1.83
7381.00,1.82
7380.00,1.82
7379.00,1.82
7378.00,1.82
7377.00,1.82
7376.00,1.83
7375.00,1.83
7374.00,1.83
7373.00,1.83
7372.00,1.84
7371.00,1.84
7370.00,1.84
7369.00,1.85
7368.00,1.85
7367.00,1.85
7366.00,1.85
7365.00,1.86
7364.00,1.86
7363.00,1.86
7362.00,1.86
7361.00,1.86
7360.00,1.86
7359.00,1.86
7358.00,1.86
7357.00,1.86
7356.00,1.86
7355.00,1.86
7354.00,1.86
7353.00,1.85
7352.00,1.85
7351.00,1.85
7350.00,1.85
7349.00,1.85
7348.00,1.85
7347.00,1.85
7346.00,1.85
7345.00,1.84
7344.00,1.84
7343.00,1.84
7342.00,1.84
7341.00,1.84
7340.00,1.83
7339.00,1.83
7338.00,1.83
7337.00,1.83
7336.00,1.83
7335.00,1.83
7334.00,1.83
7333.00,1.82
7332.00,1.82
7331.00,1.83
7330.00,1.83
7329.00,1.83
7328.00,1.83
7327.00,1.83
7326.00,1.83
7325.00,1.83
7324.00,1.83
7323.00,1.83
7322.00,1.84
7321.00,1.84
7320.00,1.84
7319.00,1.84
7318.00,1.84
7317.00,1.84
7316.00,1.84
7315.00,1.84
7314.00,1.85
7313.00,1.85
7312.00,1.85
7311.00,1.85
7310.00,1.85
7309.00,1.86
7308.00,1.86
7307.00,1.86
7306.00,1.86
7305.00,1.86
7304.00,1.86
7303.00,1.86
7302.00,1.85
7301.00,1.85
7300.00,1.85
7299.00,1.85
7298.00,1.85
7297.00,1.84
7296.00,1.84
7295.00,1.84
7294.00,1.83
7293.00,1.83
7292.00,1.83
7291.00,1.83
7290.00,1.82
7289.00,1.82
7288.00,1.82
7287.00,1.82
7286.00,1.82
7285.00,1.81
7284.00,1.81
7283.00,1.81
7282.00,1.81
7281.00,1.81
7280.00,1.80
7279.00,1.80
7278.00,1.80
7277.00,1.80
7276.00,1.80
7275.00,1.80
7274.00,1.80
7273.00,1.80
7272.00,1.80
7271.00,1.80
7270.00,1.80
7269.00,1.80
7268.00,1.81
7267.00,1.81
7266.00,1.81
7265.00,1.81
7264.00,1.81
7263.00,1.81
7262.00,1.81
7261.00,1.81
7260.00,1.81
7259.00,1.80
7258.00,1.80
7257.00,1.80
7256.00,1.80
7255.00,1.80
7254.00,1.80
7253.00,1.80
7252.00,1.80
7251.00,1.80
7250.00,1.80
7249.00,1.80
7248.00,1.79
7247.00,1.79
7246.00,1.79
7245.00,1.79
7244.00,1.78
7243.00,1.78
7242.00,1.78
7241.00,1.77
7240.00,1.77
7239.00,1.77
7238.00,1.76
7237.00,1.76
7236.00,1.75
7235.00,1.75
7234.00,1.75
7233.00,1.74
7232.00,1.74
7231.00,1.73
7230.00,1.73
7229.00,1.72
7228.00,1.72
7227.00,1.71
7226.00,1.71
7225.00,1.70
7224.00,1.70
7223.00,1.69
7222.00,1.68
7221.00,1.68
7220.00,1.67
7219.00,1.67
7218.00,1.66
7217.00,1.66
7216.00,1.65
7215.00,1.64
7214.00,1.64
7213.00,1.63
7212.00,1.63
7211.00,1.62
7210.00,1.61
7209.00,1.61
7208.00,1.60
7207.00,1.59
7206.00,1.59
7205.00,1.58
7204.00,1.57
7203.00,1.56
7202.00,1.56
7201.00,1.55
7200.00,1.54
7199.00,1.54
7198.00,1.53
7197.00,1.52
7196.00,1.52
7195.00,1.51
7194.00,1.51
7193.00,1.50
7192.00,1.49
7191.00,1.49
7190.00,1.48
7189.00,1.48
7188.00,1.47
7187.00,1.47
7186.00,1.46
7185.00,1.46
7184.00,1.45
7183.00,1.45
7182.00,1.45
7181.00,1.44
7180.00,1.44
7179.00,1.44
7178.00,1.43
7177.00,1.43
7176.00,1.43
7175.00,1.43
7174.00,1.43
7173.00,1.42
7172.00,1.42
7171.00,1.42
7170.00,1.42
7169.00,1.42
7168.00,1.41
7167.00,1.41
7166.00,1.41
7165.00,1.41
7164.00,1.41
7163.00,1.40
7162.00,1.40
7161.00,1.40
7160.00,1.39
7159.00,1.39
7158.00,1.39
7157.00,1.38
7156.00,1.38
7155.00,1.38
7154.00,1.37
7153.00,1.37
7152.00,1.37
7151.00,1.36
7150.00,1.36
7149.00,1.36
7148.00,1.35
7147.00,1.35
7146.00,1.35
7145.00,1.34
7144.00,1.34
7143.00,1.34
7142.00,1.33
7141.00,1.33
7140.00,1.32
7139.00,1.32
7138.00,1.31
7137.00,1.31
7136.00,1.31
7135.00,1.30
7134.00,1.30
7133.00,1.29
7132.00,1.29
7131.00,1.29
7130.00,1.28
7129.00,1.28
7128.00,1.27
7127.00,1.27
7126.00,1.26
7125.00,1.26
7124.00,1.25
7123.00,1.25
7122.00,1.24
7121.00,1.24
7120.00,1.23
7119.00,1.23
7118.00,1.22
7117.00,1.21
7116.00,1.21
7115.00,1.20
7114.00,1.20
7113.00,1.19
7112.00,1.19
7111.00,1.18
7110.00,1.18
7109.00,1.17
7108.00,1.17
7107.00,1.16
7106.00,1.16
7105.00,1.15
7104.00,1.15
7103.00,1.14
7102.00,1.14
7101.00,1.14
7100.00,1.13
7099.00,1.13
7098.00,1.13
7097.00,1.12
7096.00,1.12
7095.00,1.12
7094.00,1.11
7093.00,1.11
7092.00,1.11
7091.00,1.10
7090.00,1.10
7089.00,1.10
7088.00,1.09
7087.00,1.09
7086.00,1.09
7085.00,1.08
7084.00,1.08
7083.00,1.08
7082.00,1.07
7081.00,1.07
7080.00,1.06
7079.00,1.06
7078.00,1.06
7077.00,1.05
7076.00,1.05
7075.00,1.04
7074.00,1.04
7073.00,1.03
7072.00,1.03
7071.00,1.02
7070.00,1.02
7069.00,1.01
7068.00,1.01
7067.00,1.00
7066.00,1.00
7065.00,0.99
7064.00,0.99
7063.00,0.98
7062.00,0.98
7061.00,0.98
7060.00,0.97
7059.00,0.97
7058.00,0.97
7057.00,0.96
7056.00,0.96
7055.00,0.96
7054.00,0.96
7053.00,0.96
7052.00,0.96
7051.00,0.96
7050.00,0.95
7049.00,0.95
7048.00,0.95
7047.00,0.95
7046.00,0.95
7045.00,0.95
7044.00,0.95
7043.00,0.95
7042.00,0.95
7041.00,0.95
7040.00,0.95
7039.00,0.95
7038.00,0.95
7037.00,0.95
7036.00,0.95
7035.00,0.95
7034.00,0.94
7033.00,0.94
7032.00,0.94
7031.00,0.94
7030.00,0.94
7029.00,0.94
7028.00,0.93
7027.00,0.93
7026.00,0.93
7025.00,0.93
7024.00,0.93
7023.00,0.93
7022.00,0.93
7021.00,0.92
7020.00,0.92
7019.00,0.92
7018.00,0.92
7017.00,0.92
7016.00,0.92
7015.00,0.92
7014.00,0.92
7013.00,0.92
7012.00,0.92
7011.00,0.92
7010.00,0.92
7009.00,0.92
7008.00,0.92
7007.00,0.92
7006.00,0.92
7005.00,0.92
7004.00,0.92
7003.00,0.92
7002.00,0.93
7001.00,0.93
7000.00,0.93
6999.00,0.93
6998.00,0.93
6997.00,0.93
6996.00,0.93
6995.00,0.93
6994.00,0.94
6993.00,0.94
6992.00,0.94
6991.00,0.94
6990.00,0.94
6989.00,0.94
6988.00,0.94
6987.00,0.94
6986.00,0.94
6985.00,0.94
6984.00,0.94
6983.00,0.95
6982.00,0.95
6981.00,0.95
6980.00,0.95
6979.00,0.95
6978.00,0.94
6977.00,0.94
6976.00,0.94
6975.00,0.94
6974.00,0.93
6973.00,0.93
6972.00,0.92
6971.00,0.92
6970.00,0.92
6969.00,0.92
6968.00,0.91
6967.00,0.91
6966.00,0.91
6965.00,0.91
6964.00,0.91
6963.00,0.90
6962.00,0.90
6961.00,0.90
6960.00,0.90
6959.00,0.89
6958.00,0.89
6957.00,0.89
6956.00,0.89
6955.00,0.89
6954.00,0.88
6953.00,0.88
6952.00,0.88
6951.00,0.88
6950.00,0.88
6949.00,0.88
6948.00,0.88
6947.00,0.88
6946.00,0.88
6945.00,0.88
6944.00,0.88
6943.00,0.88
6942.00,0.88
6941.00,0.88
6940.00,0.88
6939.00,0.88
6938.00,0.88
6937.00,0.87
6936.00,0.87
6935.00,0.87
6934.00,0.87
6933.00,0.86
6932.00,0.86
6931.00,0.86
6930.00,0.86
6929.00,0.85
6928.00,0.85
6927.00,0.85
6926.00,0.85
6925.00,0.84
6924.00,0.84
6923.00,0.84
6922.00,0.84
6921.00,0.84
6920.00,0.84
6919.00,0.84
6918.00,0.83
6917.00,0.83
6916.00,0.83
6915.00,0.83
6914.00,0.83
6913.00,0.83
6912.00,0.83
6911.00,0.83
6910.00,0.83
6909.00,0.83
6908.00,0.83
6907.00,0.83
6906.00,0.83
6905.00,0.83
6904.00,0.84
6903.00,0.84
6902.00,0.84
6901.00,0.84
6900.00,0.84
6899.00,0.84
6898.00,0.84
6897.00,0.84
6896.00,0.84
6895.00,0.84
6894.00,0.84
6893.00,0.84
6892.00,0.84
6891.00,0.84
6890.00,0.84
6889.00,0.83
6888.00,0.83
6887.00,0.83
6886.00,0.83
6885.00,0.83
6884.00,0.83
6883.00,0.83
6882.00,0.83
6881.00,0.83
6880.00,0.83
6879.00,0.83
6878.00,0.83
6877.00,0.83
6876.00,0.83
6875.00,0.83
6874.00,0.83
6873.00,0.83
6872.00,0.83
6871.00,0.83
6870.00,0.84
6869.00,0.84
6868.00,0.84
6867.00,0.84
6866.00,0.84
6865.00,0.85
6864.00,0.85
6863.00,0.85
6862.00,0.86
6861.00,0.86
6860.00,0.86
6859.00,0.87
6858.00,0.87
6857.00,0.88
6856.00,0.88
6855.00,0.88
6854.00,0.89
6853.00,0.89
6852.00,0.89
6851.00,0.90
6850.00,0.90
6849.00,0.90
6848.00,0.90
6847.00,0.91
6846.00,0.91
6845.00,0.91
6844.00,0.91
6843.00,0.92
6842.00,0.92
6841.00,0.92
6840.00,0.92
6839.00,0.92
6838.00,0.92
6837.00,0.92
6836.00,0.92
6835.00,0.92
6834.00,0.92
6833.00,0.92
6832.00,0.91
6831.00,0.91
6830.00,0.91
6829.00,0.91
6828.00,0.91
6827.00,0.91
6826.00,0.90
6825.00,0.90
6824.00,0.90
6823.00,0.90
6822.00,0.90
6821.00,0.90
6820.00,0.90
6819.00,0.90
6818.00,0.90
6817.00,0.90
6816.00,0.90
6815.00,0.89
6814.00,0.89
6813.00,0.89
6812.00,0.89
6811.00,0.89
6810.00,0.89
6809.00,0.89
6808.00,0.89
6807.00,0.89
6806.00,0.89
6805.00,0.89
6804.00,0.89
6803.00,0.90
6802.00,0.90
6801.00,0.90
6800.00,0.90
6799.00,0.90
6798.00,0.90
6797.00,0.90
6796.00,0.89
6795.00,0.89
6794.00,0.89
6793.00,0.89
6792.00,0.89
6791.00,0.89
6790.00,0.89
6789.00,0.89
6788.00,0.88
6787.00,0.88
6786.00,0.88
6785.00,0.88
6784.00,0.88
6783.00,0.88
6782.00,0.88
6781.00,0.88
6780.00,0.87
6779.00,0.87
6778.00,0.87
6777.00,0.87
6776.00,0.87
6775.00,0.87
6774.00,0.87
6773.00,0.87
6772.00,0.87
6771.00,0.87
6770.00,0.88
6769.00,0.88
6768.00,0.88
6767.00,0.88
6766.00,0.88
6765.00,0.88
6764.00,0.88
6763.00,0.89
6762.00,0.89
6761.00,0.89
6760.00,0.89
6759.00,0.90
6758.00,0.90
6757.00,0.90
6756.00,0.90
6755.00,0.91
6754.00,0.91
6753.00,0.91
6752.00,0.91
6751.00,0.91
6750.00,0.92
6749.00,0.92
6748.00,0.92
6747.00,0.92
6746.00,0.92
6745.00,0.92
6744.00,0.92
6743.00,0.92
6742.00,0.92
6741.00,0.92
6740.00,0.92
6739.00,0.92
6738.00,0.92
6737.00,0.92
6736.00,0.92
6735.00,0.92
6734.00,0.92
6733.00,0.92
6732.00,0.92
6731.00,0.92
6730.00,0.92
6729.00,0.92
6728.00,0.92
6727.00,0.92
6726.00,0.92
6725.00,0.92
6724.00,0.92
6723.00,0.92
6722.00,0.92
6721.00,0.92
6720.00,0.92
6719.00,0.92
6718.00,0.92
6717.00,0.92
6716.00,0.92
6715.00,0.92
6714.00,0.93
6713.00,0.93
6712.00,0.93
6711.00,0.93
6710.00,0.93
6709.00,0.94
6708.00,0.94
6707.00,0.94
6706.00,0.95
6705.00,0.95
6704.00,0.95
6703.00,0.95
6702.00,0.96
6701.00,0.96
6700.00,0.96
6699.00,0.97
6698.00,0.97
6697.00,0.97
6696.00,0.97
6695.00,0.98
6694.00,0.98
6693.00,0.98
6692.00,0.98
6691.00,0.99
6690.00,0.99
6689.00,0.99
6688.00,0.99
6687.00,1.00
6686.00,1.00
6685.00,1.00
6684.00,1.00
6683.00,1.00
6682.00,1.00
6681.00,1.00
6680.00,1.00
6679.00,1.00
6678.00,1.01
6677.00,1.01
6676.00,1.01
6675.00,1.01
6674.00,1.01
6673.00,1.01
6672.00,1.01
6671.00,1.01
6670.00,1.02
6669.00,1.02
6668.00,1.02
6667.00,1.02
6666.00,1.02
6665.00,1.02
6664.00,1.02
6663.00,1.03
6662.00,1.03
6661.00,1.03
6660.00,1.03
6659.00,1.03
6658.00,1.03
6657.00,1.04
6656.00,1.04
6655.00,1.04
6654.00,1.04
6653.00,1.04
6652.00,1.04
6651.00,1.04
6650.00,1.04
6649.00,1.04
6648.00,1.05
6647.00,1.05
6646.00,1.05
6645.00,1.05
6644.00,1.05
6643.00,1.05
6642.00,1.05
6641.00,1.05
6640.00,1.05
6639.00,1.06
6638.00,1.06
6637.00,1.06
6636.00,1.06
6635.00,1.06
6634.00,1.07
6633.00,1.07
6632.00,1.07
6631.00,1.07
6630.00,1.08
6629.00,1.08
6628.00,1.08
6627.00,1.09
6626.00,1.09
6625.00,1.09
6624.00,1.10
6623.00,1.10
6622.00,1.11
6621.00,1.11
6620.00,1.11
6619.00,1.12
6618.00,1.12
6617.00,1.13
6616.00,1.13
6615.00,1.13
6614.00,1.14
6613.00,1.14
6612.00,1.15
6611.00,1.15
6610.00,1.15
6609.00,1.16
6608.00,1.16
6607.00,1.16
6606.00,1.16
6605.00,1.17
6604.00,1.17
6603.00,1.17
6602.00,1.17
6601.00,1.17
6600.00,1.17
6599.00,1.17
6598.00,1.18
6597.00,1.18
6596.00,1.18
6595.00,1.18
6594.00,1.18
6593.00,1.18
6592.00,1.18
6591.00,1.18
6590.00,1.18
6589.00,1.18
6588.00,1.18
6587.00,1.18
6586.00,1.18
6585.00,1.18
6584.00,1.18
6583.00,1.18
6582.00,1.18
6581.00,1.18
6580.00,1.18
6579.00,1.18
6578.00,1.18
6577.00,1.18
6576.00,1.18
6575.00,1.18
6574.00,1.18
6573.00,1.18
6572.00,1.18
6571.00,1.18
6570.00,1.18
6569.00,1.18
6568.00,1.18
6567.00,1.18
6566.00,1.18
6565.00,1.18
6564.00,1.18
6563.00,1.18
6562.00,1.18
6561.00,1.18
6560.00,1.18
6559.00,1.18
6558.00,1.18
6557.00,1.19
6556.00,1.19
6555.00,1.19
6554.00,1.19
6553.00,1.19
6552.00,1.20
6551.00,1.20
6550.00,1.20
6549.00,1.21
6548.00,1.21
6547.00,1.21
6546.00,1.21
6545.00,1.22
6544.00,1.22
6543.00,1.22
6542.00,1.22
6541.00,1.22
6540.00,1.22
6539.00,1.23
6538.00,1.23
6537.00,1.23
6536.00,1.23
6535.00,1.23
6534.00,1.23
6533.00,1.23
6532.00,1.23
6531.00,1.23
6530.00,1.23
6529.00,1.23
6528.00,1.23
6527.00,1.22
6526.00,1.22
6525.00,1.22
6524.00,1.22
6523.00,1.22
6522.00,1.22
6521.00,1.21
6520.00,1.21
6519.00,1.21
6518.00,1.21
6517.00,1.21
6516.00,1.21
6515.00,1.21
6514.00,1.21
6513.00,1.20
6512.00,1.20
6511.00,1.20
6510.00,1.20
6509.00,1.20
6508.00,1.20
6507.00,1.20
6506.00,1.20
6505.00,1.20
6504.00,1.20
6503.00,1.21
6502.00,1.21
6501.00,1.21
6500.00,1.21
6499.00,1.21
6498.00,1.21
6497.00,1.21
6496.00,1.22
6495.00,1.22
6494.00,1.22
6493.00,1.22
6492.00,1.22
6491.00,1.23
6490.00,1.23
6489.00,1.23
6488.00,1.24
6487.00,1.24
6486.00,1.24
6485.00,1.24
6484.00,1.25
6483.00,1.25
6482.00,1.25
6481.00,1.25
6480.00,1.25
6479.00,1.26
6478.00,1.26
6477.00,1.26
6476.00,1.26
6475.00,1.26
6474.00,1.26
6473.00,1.27
6472.00,1.27
6471.00,1.27
6470.00,1.27
6469.00,1.27
6468.00,1.27
6467.00,1.28
6466.00,1.28
6465.00,1.28
6464.00,1.28
6463.00,1.28
6462.00,1.28
6461.00,1.28
6460.00,1.28
6459.00,1.28
6458.00,1.28
6457.00,1.29
6456.00,1.29
6455.00,1.29
6454.00,1.29
6453.00,1.29
6452.00,1.29
6451.00,1.30
6450.00,1.30
6449.00,1.30
6448.00,1.30
6447.00,1.31
6446.00,1.31
6445.00,1.31
6444.00,1.31
6443.00,1.31
6442.00,1.32
6441.00,1.32
6440.00,1.32
6439.00,1.32
6438.00,1.33
6437.00,1.33
6436.00,1.33
6435.00,1.33
6434.00,1.33
6433.00,1.34
6432.00,1.34
6431.00,1.34
6430.00,1.34
6429.00,1.34
6428.00,1.35
6427.00,1.35
6426.00,1.35
6425.00,1.35
6424.00,1.35
6423.00,1.35
6422.00,1.35
6421.00,1.35
6420.00,1.35
6419.00,1.35
6418.00,1.35
6417.00,1.35
6416.00,1.35
6415.00,1.35
6414.00,1.35
6413.00,1.35
6412.00,1.35
6411.00,1.35
6410.00,1.35
6409.00,1.35
6408.00,1.34
6407.00,1.34
6406.00,1.34
6405.00,1.34
6404.00,1.34
6403.00,1.33
6402.00,1.33
6401.00,1.33
6400.00,1.33
6399.00,1.33
6398.00,1.33
6397.00,1.33
6396.00,1.32
6395.00,1.32
6394.00,1.32
6393.00,1.32
6392.00,1.32
6391.00,1.32
6390.00,1.32
6389.00,1.33
6388.00,1.33
6387.00,1.33
6386.00,1.33
6385.00,1.33
6384.00,1.33
6383.00,1.33
6382.00,1.33
6381.00,1.33
6380.00,1.34
6379.00,1.34
6378.00,1.34
6377.00,1.35
6376.00,1.35
6375.00,1.35
6374.00,1.35
6373.00,1.35
6372.00,1.36
6371.00,1.36
6370.00,1.36
6369.00,1.36
6368.00,1.36
6367.00,1.36
6366.00,1.36
6365.00,1.36
6364.00,1.36
6363.00,1.36
6362.00,1.36
6361.00,1.36
6360.00,1.36
6359.00,1.36
6358.00,1.36
6357.00,1.36
6356.00,1.36
6355.00,1.36
6354.00,1.36
6353.00,1.36
6352.00,1.36
6351.00,1.36
6350.00,1.36
6349.00,1.36
6348.00,1.36
6347.00,1.36
6346.00,1.36
6345.00,1.36
6344.00,1.36
6343.00,1.36
6342.00,1.36
6341.00,1.37
6340.00,1.37
6339.00,1.37
6338.00,1.37
6337.00,1.37
6336.00,1.37
6335.00,1.38
6334.00,1.38
6333.00,1.38
6332.00,1.38
6331.00,1.38
6330.00,1.38
6329.00,1.39
6328.00,1.39
6327.00,1.39
6326.00,1.39
6325.00,1.39
6324.00,1.40
6323.00,1.40
6322.00,1.40
6321.00,1.40
6320.00,1.41
6319.00,1.41
6318.00,1.41
6317.00,1.42
6316.00,1.42
6315.00,1.42
6314.00,1.43
6313.00,1.43
6312.00,1.43
6311.00,1.43
6310.00,1.43
6309.00,1.44
6308.00,1.44
6307.00,1.44
6306.00,1.44
6305.00,1.44
6304.00,1.44
6303.00,1.44
6302.00,1.45
6301.00,1.45
6300.00,1.45
6299.00,1.45
6298.00,1.45
6297.00,1.46
6296.00,1.46
6295.00,1.46
6294.00,1.46
6293.00,1.46
6292.00,1.46
6291.00,1.46
6290.00,1.46
6289.00,1.46
6288.00,1.46
6287.00,1.46
6286.00,1.47
6285.00,1.47
6284.00,1.47
6283.00,1.47
6282.00,1.47
6281.00,1.47
6280.00,1.48
6279.00,1.48
6278.00,1.48
6277.00,1.48
6276.00,1.48
6275.00,1.48
6274.00,1.49
6273.00,1.49
6272.00,1.49
6271.00,1.49
6270.00,1.49
6269.00,1.50
6268.00,1.50
6267.00,1.50
6266.00,1.50
6265.00,1.50
6264.00,1.51
6263.00,1.51
6262.00,1.51
6261.00,1.51
6260.00,1.51
6259.00,1.51
6258.00,1.51
6257.00,1.51
6256.00,1.51
6255.00,1.52
6254.00,1.52
6253.00,1.52
6252.00,1.52
6251.00,1.52
6250.00,1.52
6249.00,1.52
6248.00,1.52
6247.00,1.52
6246.00,1.52
6245.00,1.52
6244.00,1.52
6243.00,1.52
6242.00,1.52
6241.00,1.52
6240.00,1.52
6239.00,1.52
6238.00,1.53
6237.00,1.53
6236.00,1.53
6235.00,1.53
6234.00,1.53
6233.00,1.54
6232.00,1.54
6231.00,1.54
6230.00,1.54
6229.00,1.55
6228.00,1.55
6227.00,1.55
6226.00,1.55
6225.00,1.56
6224.00,1.56
6223.00,1.56
6222.00,1.57
6221.00,1.57
6220.00,1.58
6219.00,1.58
6218.00,1.59
6217.00,1.59
6216.00,1.59
6215.00,1.60
6214.00,1.60
6213.00,1.60
6212.00,1.61
6211.00,1.61
6210.00,1.61
6209.00,1.62
6208.00,1.62
6207.00,1.63
6206.00,1.63
6205.00,1.63
6204.00,1.64
6203.00,1.64
6202.00,1.64
6201.00,1.65
6200.00,1.65
6199.00,1.65
6198.00,1.66
6197.00,1.66
6196.00,1.66
6195.00,1.66
6194.00,1.67
6193.00,1.67
6192.00,1.67
6191.00,1.67
6190.00,1.67
6189.00,1.68
6188.00,1.68
6187.00,1.68
6186.00,1.68
6185.00,1.68
6184.00,1.69
6183.00,1.69
6182.00,1.69
6181.00,1.69
6180.00,1.69
6179.00,1.69
6178.00,1.69
6177.00,1.69
6176.00,1.69
6175.00,1.69
6174.00,1.70
6173.00,1.70
6172.00,1.70
6171.00,1.70
6170.00,1.70
6169.00,1.70
6168.00,1.70
6167.00,1.70
6166.00,1.70
6165.00,1.70
6164.00,1.70
6163.00,1.70
6162.00,1.70
6161.00,1.70
6160.00,1.70
6159.00,1.70
6158.00,1.70
6157.00,1.70
6156.00,1.70
6155.00,1.70
6154.00,1.70
6153.00,1.70
6152.00,1.71
6151.00,1.71
6150.00,1.71
6149.00,1.71
6148.00,1.71
6147.00,1.71
6146.00,1.71
6145.00,1.72
6144.00,1.72
6143.00,1.72
6142.00,1.72
6141.00,1.73
6140.00,1.73
6139.00,1.73
6138.00,1.74
6137.00,1.74
6136.00,1.74
6135.00,1.75
6134.00,1.75
6133.00,1.75
6132.00,1.76
6131.00,1.76
6130.00,1.77
6129.00,1.77
6128.00,1.78
6127.00,1.78
6126.00,1.78
6125.00,1.79
6124.00,1.79
6123.00,1.80
6122.00,1.80
6121.00,1.80
6120.00,1.81
6119.00,1.81
6118.00,1.81
6117.00,1.81
6116.00,1.82
6115.00,1.82
6114.00,1.82
6113.00,1.82
6112.00,1.82
6111.00,1.82
6110.00,1.82
6109.00,1.83
6108.00,1.83
6107.00,1.83
6106.00,1.83
6105.00,1.83
6104.00,1.83
6103.00,1.83
6102.00,1.83
6101.00,1.83
6100.00,1.83
6099.00,1.83
6098.00,1.83
6097.00,1.83
6096.00,1.83
6095.00,1.83
6094.00,1.83
6093.00,1.83
6092.00,1.83
6091.00,1.83
6090.00,1.83
6089.00,1.83
6088.00,1.83
6087.00,1.83
6086.00,1.83
6085.00,1.84
6084.00,1.84
6083.00,1.84
6082.00,1.84
6081.00,1.84
6080.00,1.84
6079.00,1.84
6078.00,1.84
6077.00,1.85
6076.00,1.85
6075.00,1.85
6074.00,1.85
6073.00,1.85
6072.00,1.85
6071.00,1.85
6070.00,1.85
6069.00,1.85
6068.00,1.85
6067.00,1.86
6066.00,1.86
6065.00,1.86
6064.00,1.86
6063.00,1.86
6062.00,1.86
6061.00,1.86
6060.00,1.86
6059.00,1.86
6058.00,1.87
6057.00,1.87
6056.00,1.87
6055.00,1.87
6054.00,1.87
6053.00,1.87
6052.00,1.87
6051.00,1.87
6050.00,1.88
6049.00,1.88
6048.00,1.88
6047.00,1.88
6046.00,1.88
6045.00,1.88
6044.00,1.88
6043.00,1.88
6042.00,1.88
6041.00,1.88
6040.00,1.88
6039.00,1.88
6038.00,1.88
6037.00,1.88
6036.00,1.88
6035.00,1.88
6034.00,1.88
6033.00,1.88
6032.00,1.88
6031.00,1.88
6030.00,1.88
6029.00,1.88
6028.00,1.88
6027.00,1.88
6026.00,1.88
6025.00,1.88
6024.00,1.88
6023.00,1.88
6022.00,1.88
6021.00,1.88
6020.00,1.88
6019.00,1.88
6018.00,1.88
6017.00,1.88
6016.00,1.88
6015.00,1.88
6014.00,1.88
6013.00,1.88
6012.00,1.88
6011.00,1.88
6010.00,1.88
6009.00,1.88
6008.00,1.88
6007.00,1.88
6006.00,1.88
6005.00,1.88
6004.00,1.88
6003.00,1.88
6002.00,1.88
6001.00,1.88
6000.00,1.88
5999.00,1.87
5998.00,1.87
5997.00,1.87
5996.00,1.87
5995.00,1.87
5994.00,1.87
5993.00,1.86
5992.00,1.86
5991.00,1.86
5990.00,1.86
5989.00,1.85
5988.00,1.85
5987.00,1.85
5986.00,1.84
5985.00,1.84
5984.00,1.83
5983.00,1.83
5982.00,1.83
5981.00,1.82
5980.00,1.82
5979.00,1.81
5978.00,1.80
5977.00,1.80
5976.00,1.79
5975.00,1.79
5974.00,1.78
5973.00,1.77
5972.00,1.76
5971.00,1.76
5970.00,1.75
5969.00,1.74
5968.00,1.74
5967.00,1.73
5966.00,1.72
5965.00,1.71
5964.00,1.71
5963.00,1.70
5962.00,1.69
5961.00,1.68
5960.00,1.68
5959.00,1.67
5958.00,1.66
5957.00,1.66
5956.00,1.65
5955.00,1.64
5954.00,1.63
5953.00,1.63
5952.00,1.62
5951.00,1.62
5950.00,1.61
5949.00,1.60
5948.00,1.60
5947.00,1.59
5946.00,1.59
5945.00,1.58
5944.00,1.58
5943.00,1.57
5942.00,1.57
5941.00,1.56
5940.00,1.56
5939.00,1.56
5938.00,1.55
5937.00,1.55
5936.00,1.55
5935.00,1.54
5934.00,1.54
5933.00,1.54
5932.00,1.53
5931.00,1.53
5930.00,1.53
5929.00,1.53
5928.00,1.52
5927.00,1.52
5926.00,1.52
5925.00,1.52
5924.00,1.51
5923.00,1.51
5922.00,1.51
5921.00,1.50
5920.00,1.50
5919.00,1.50
5918.00,1.50
5917.00,1.49
5916.00,1.49
5915.00,1.49
5914.00,1.49
5913.00,1.49
5912.00,1.49
5911.00,1.48
5910.00,1.48
5909.00,1.48
5908.00,1.48
5907.00,1.48
5906.00,1.48
5905.00,1.48
5904.00,1.48
5903.00,1.48
5902.00,1.48
5901.00,1.48
5900.00,1.48
5899.00,1.48
5898.00,1.48
5897.00,1.49
5896.00,1.49
5895.00,1.49
5894.00,1.50
5893.00,1.50
5892.00,1.50
5891.00,1.51
5890.00,1.51
5889.00,1.51
5888.00,1.52
5887.00,1.52
5886.00,1.53
5885.00,1.53
5884.00,1.53
5883.00,1.54
5882.00,1.54
5881.00,1.55
5880.00,1.55
5879.00,1.56
5878.00,1.56
5877.00,1.57
5876.00,1.57
5875.00,1.58
5874.00,1.58
5873.00,1.59
5872.00,1.59
5871.00,1.59
5870.00,1.59
5869.00,1.60
5868.00,1.60
5867.00,1.60
5866.00,1.60
5865.00,1.61
5864.00,1.61
5863.00,1.61
5862.00,1.61
5861.00,1.61
5860.00,1.61
5859.00,1.62
5858.00,1.62
5857.00,1.62
5856.00,1.62
5855.00,1.62
5854.00,1.62
5853.00,1.61
5852.00,1.61
5851.00,1.61
5850.00,1.61
5849.00,1.61
5848.00,1.61
5847.00,1.61
5846.00,1.60
5845.00,1.60
5844.00,1.60
5843.00,1.60
5842.00,1.60
5841.00,1.60
5840.00,1.60
5839.00,1.60
5838.00,1.60
5837.00,1.60
5836.00,1.60
5835.00,1.60
5834.00,1.60
5833.00,1.60
5832.00,1.60
5831.00,1.60
5830.00,1.60
5829.00,1.60
5828.00,1.60
5827.00,1.60
5826.00,1.60
5825.00,1.60
5824.00,1.60
5823.00,1.61
5822.00,1.61
5821.00,1.61
5820.00,1.61
5819.00,1.61
5818.00,1.61
5817.00,1.61
5816.00,1.61
5815.00,1.61
5814.00,1.61
5813.00,1.61
5812.00,1.61
5811.00,1.60
5810.00,1.60
5809.00,1.60
5808.00,1.60
5807.00,1.60
5806.00,1.60
5805.00,1.59
5804.00,1.59
5803.00,1.59
5802.00,1.59
5801.00,1.59
5800.00,1.58
5799.00,1.58
5798.00,1.58
5797.00,1.58
5796.00,1.57
5795.00,1.57
5794.00,1.57
5793.00,1.56
5792.00,1.56
5791.00,1.56
5790.00,1.56
5789.00,1.55
5788.00,1.55
5787.00,1.55
5786.00,1.55
5785.00,1.54
5784.00,1.54
5783.00,1.54
5782.00,1.54
5781.00,1.54
5780.00,1.53
5779.00,1.53
5778.00,1.53
5777.00,1.53
5776.00,1.53
5775.00,1.53
5774.00,1.53
5773.00,1.53
5772.00,1.53
5771.00,1.54
5770.00,1.54
5769.00,1.54
5768.00,1.54
5767.00,1.54
5766.00,1.55
5765.00,1.55
5764.00,1.55
5763.00,1.56
5762.00,1.56
5761.00,1.57
5760.00,1.57
5759.00,1.58
5758.00,1.58
5757.00,1.59
5756.00,1.59
5755.00,1.60
5754.00,1.60
5753.00,1.61
5752.00,1.61
5751.00,1.62
5750.00,1.63
5749.00,1.63
5748.00,1.63
5747.00,1.64
5746.00,1.64
5745.00,1.65
5744.00,1.65
5743.00,1.66
5742.00,1.66
5741.00,1.66
5740.00,1.67
5739.00,1.67
5738.00,1.67
5737.00,1.67
5736.00,1.68
5735.00,1.68
5734.00,1.68
5733.00,1.68
5732.00,1.68
5731.00,1.68
5730.00,1.68
5729.00,1.68
5728.00,1.68
5727.00,1.68
5726.00,1.68
5725.00,1.68
5724.00,1.68
5723.00,1.68
5722.00,1.68
5721.00,1.68
5720.00,1.68
5719.00,1.68
5718.00,1.67
5717.00,1.67
5716.00,1.67
5715.00,1.67
5714.00,1.67
5713.00,1.67
5712.00,1.66
5711.00,1.66
5710.00,1.66
5709.00,1.66
5708.00,1.66
5707.00,1.66
5706.00,1.66
5705.00,1.66
5704.00,1.66
5703.00,1.66
5702.00,1.66
5701.00,1.66
5700.00,1.66
5699.00,1.65
5698.00,1.65
5697.00,1.65
5696.00,1.65
5695.00,1.65
5694.00,1.65
5693.00,1.64
5692.00,1.64
5691.00,1.64
5690.00,1.64
5689.00,1.64
5688.00,1.64
5687.00,1.64
5686.00,1.63
5685.00,1.63
5684.00,1.63
5683.00,1.63
5682.00,1.63
5681.00,1.63
5680.00,1.62
5679.00,1.62
5678.00,1.62
5677.00,1.62
5676.00,1.62
5675.00,1.62
5674.00,1.62
5673.00,1.62
5672.00,1.62
5671.00,1.62
5670.00,1.62
5669.00,1.62
5668.00,1.62
5667.00,1.62
5666.00,1.62
5665.00,1.63
5664.00,1.63
5663.00,1.63
5662.00,1.63
5661.00,1.64
5660.00,1.64
5659.00,1.64
5658.00,1.64
5657.00,1.64
5656.00,1.65
5655.00,1.65
5654.00,1.65
5653.00,1.65
5652.00,1.65
5651.00,1.66
5650.00,1.66
5649.00,1.66
5648.00,1.66
5647.00,1.66
5646.00,1.66
5645.00,1.66
5644.00,1.67
5643.00,1.67
5642.00,1.67
5641.00,1.67
5640.00,1.67
5639.00,1.67
5638.00,1.67
5637.00,1.67
5636.00,1.67
5635.00,1.68
5634.00,1.68
5633.00,1.68
5632.00,1.68
5631.00,1.68
5630.00,1.68
5629.00,1.69
5628.00,1.69
5627.00,1.69
5626.00,1.69
5625.00,1.70
5624.00,1.70
5623.00,1.70
5622.00,1.70
5621.00,1.71
5620.00,1.71
5619.00,1.71
5618.00,1.72
5617.00,1.72
5616.00,1.73
5615.00,1.73
5614.00,1.74
5613.00,1.74
5612.00,1.74
5611.00,1.75
5610.00,1.75
5609.00,1.76
5608.00,1.76
5607.00,1.76
5606.00,1.77
5605.00,1.77
5604.00,1.77
5603.00,1.78
5602.00,1.78
5601.00,1.79
5600.00,1.79
5599.00,1.79
5598.00,1.80
5597.00,1.80
5596.00,1.81
5595.00,1.81
5594.00,1.81
5593.00,1.82
5592.00,1.82
5591.00,1.82
5590.00,1.83
5589.00,1.83
5588.00,1.83
5587.00,1.83
5586.00,1.84
5585.00,1.84
5584.00,1.84
5583.00,1.84
5582.00,1.84
5581.00,1.85
5580.00,1.85
5579.00,1.85
5578.00,1.85
5577.00,1.85
5576.00,1.86
5575.00,1.86
5574.00,1.86
5573.00,1.86
5572.00,1.86
5571.00,1.87
5570.00,1.87
5569.00,1.87
5568.00,1.87
5567.00,1.87
5566.00,1.87
5565.00,1.87
5564.00,1.87
5563.00,1.87
5562.00,1.87
5561.00,1.87
5560.00,1.88
5559.00,1.88
5558.00,1.88
5557.00,1.88
5556.00,1.88
5555.00,1.88
5554.00,1.89
5553.00,1.89
5552.00,1.89
5551.00,1.89
5550.00,1.89
5549.00,1.89
5548.00,1.90
5547.00,1.90
5546.00,1.90
5545.00,1.90
5544.00,1.90
5543.00,1.90
5542.00,1.90
5541.00,1.91
5540.00,1.91
5539.00,1.91
5538.00,1.91
5537.00,1.91
5536.00,1.92
5535.00,1.92
5534.00,1.92
5533.00,1.92
5532.00,1.92
5531.00,1.92
5530.00,1.92
5529.00,1.92
5528.00,1.92
5527.00,1.92
5526.00,1.92
5525.00,1.92
5524.00,1.92
5523.00,1.92
5522.00,1.92
5521.00,1.92
5520.00,1.92
5519.00,1.92
5518.00,1.91
5517.00,1.91
5516.00,1.91
5515.00,1.91
5514.00,1.91
5513.00,1.91
5512.00,1.91
5511.00,1.91
5510.00,1.91
5509.00,1.91
5508.00,1.91
5507.00,1.91
5506.00,1.91
5505.00,1.91
5504.00,1.91
5503.00,1.91
5502.00,1.91
5501.00,1.91
5500.00,1.91
5499.00,1.91
5498.00,1.92
5497.00,1.92
5496.00,1.92
5495.00,1.92
5494.00,1.92
5493.00,1.92
5492.00,1.92
5491.00,1.92
5490.00,1.92
5489.00,1.92
5488.00,1.93
5487.00,1.93
5486.00,1.93
5485.00,1.93
5484.00,1.93
5483.00,1.93
5482.00,1.93
5481.00,1.93
5480.00,1.93
5479.00,1.93
5478.00,1.93
5477.00,1.93
5476.00,1.93
5475.00,1.93
5474.00,1.93
5473.00,1.93
5472.00,1.93
5471.00,1.93
5470.00,1.94
5469.00,1.94
5468.00,1.94
5467.00,1.94
5466.00,1.94
5465.00,1.94
5464.00,1.94
5463.00,1.95
5462.00,1.95
5461.00,1.95
5460.00,1.95
5459.00,1.95
5458.00,1.95
5457.00,1.95
5456.00,1.95
5455.00,1.96
5454.00,1.96
5453.00,1.96
5452.00,1.96
5451.00,1.96
5450.00,1.97
5449.00,1.97
5448.00,1.97
5447.00,1.97
5446.00,1.98
5445.00,1.98
5444.00,1.98
5443.00,1.98
5442.00,1.98
5441.00,1.99
5440.00,1.99
5439.00,1.99
5438.00,2.00
5437.00,2.00
5436.00,2.00
5435.00,2.01
5434.00,2.01
5433.00,2.02
5432.00,2.02
5431.00,2.02
5430.00,2.03
5429.00,2.03
5428.00,2.04
5427.00,2.04
5426.00,2.04
5425.00,2.05
5424.00,2.05
5423.00,2.06
5422.00,2.06
5421.00,2.06
5420.00,2.07
5419.00,2.07
5418.00,2.07
5417.00,2.08
5416.00,2.08
5415.00,2.08
5414.00,2.08
5413.00,2.09
5412.00,2.09
5411.00,2.09
5410.00,2.09
5409.00,2.09
5408.00,2.08
5407.00,2.08
5406.00,2.08
5405.00,2.08
5404.00,2.07
5403.00,2.07
5402.00,2.07
5401.00,2.06
5400.00,2.06
5399.00,2.05
5398.00,2.05
5397.00,2.04
5396.00,2.04
5395.00,2.03
5394.00,2.02
5393.00,2.02
5392.00,2.01
5391.00,2.01
5390.00,2.00
5389.00,1.99
5388.00,1.99
5387.00,1.98
5386.00,1.97
5385.00,1.97
5384.00,1.96
5383.00,1.95
5382.00,1.94
5381.00,1.94
5380.00,1.93
5379.00,1.93
5378.00,1.92
5377.00,1.91
5376.00,1.91
5375.00,1.90
5374.00,1.89
5373.00,1.89
5372.00,1.88
5371.00,1.88
5370.00,1.87
5369.00,1.86
5368.00,1.85
5367.00,1.85
5366.00,1.84
5365.00,1.83
5364.00,1.82
5363.00,1.81
5362.00,1.80
5361.00,1.79
5360.00,1.79
5359.00,1.78
5358.00,1.77
5357.00,1.76
5356.00,1.75
5355.00,1.74
5354.00,1.73
5353.00,1.72
5352.00,1.70
5351.00,1.69
5350.00,1.68
5349.00,1.67
5348.00,1.66
5347.00,1.64
5346.00,1.63
5345.00,1.62
5344.00,1.61
5343.00,1.59
5342.00,1.58
5341.00,1.57
5340.00,1.56
5339.00,1.54
5338.00,1.53
5337.00,1.52
5336.00,1.50
5335.00,1.49
5334.00,1.48
5333.00,1.46
5332.00,1.45
5331.00,1.44
5330.00,1.42
5329.00,1.41
5328.00,1.39
5327.00,1.38
5326.00,1.36
5325.00,1.35
5324.00,1.34
5323.00,1.32
5322.00,1.31
5321.00,1.29
5320.00,1.28
5319.00,1.26
5318.00,1.25
5317.00,1.24
5316.00,1.22
5315.00,1.21
5314.00,1.19
5313.00,1.18
5312.00,1.16
5311.00,1.15
5310.00,1.14
5309.00,1.12
5308.00,1.11
5307.00,1.10
5306.00,1.08
5305.00,1.07
5304.00,1.06
5303.00,1.05
5302.00,1.04
5301.00,1.02
5300.00,1.01
5299.00,1.00
5298.00,0.99
5297.00,0.98
5296.00,0.98
5295.00,0.97
5294.00,0.96
5293.00,0.95
5292.00,0.94
5291.00,0.94
5290.00,0.93
5289.00,0.92
5288.00,0.92
5287.00,0.91
5286.00,0.90
5285.00,0.90
5284.00,0.89
5283.00,0.89
5282.00,0.88
5281.00,0.88
5280.00,0.87
5279.00,0.87
5278.00,0.86
5277.00,0.86
5276.00,0.86
5275.00,0.85
5274.00,0.85
5273.00,0.84
5272.00,0.84
5271.00,0.84
5270.00,0.83
5269.00,0.83
5268.00,0.83
5267.00,0.82
5266.00,0.82
5265.00,0.82
5264.00,0.81
5263.00,0.81
5262.00,0.81
5261.00,0.81
5260.00,0.81
5259.00,0.81
5258.00,0.81
5257.00,0.81
5256.00,0.81
5255.00,0.81
5254.00,0.81
5253.00,0.81
5252.00,0.81
5251.00,0.81
5250.00,0.81
5249.00,0.81
5248.00,0.81
5247.00,0.81
5246.00,0.81
5245.00,0.82
5244.00,0.82
5243.00,0.82
5242.00,0.82
5241.00,0.82
5240.00,0.82
5239.00,0.83
5238.00,0.83
5237.00,0.83
5236.00,0.83
5235.00,0.83
5234.00,0.83
5233.00,0.83
5232.00,0.83
5231.00,0.84
5230.00,0.84
5229.00,0.84
5228.00,0.84
5227.00,0.84
5226.00,0.84
5225.00,0.84
5224.00,0.84
5223.00,0.84
5222.00,0.84
5221.00,0.84
5220.00,0.84
5219.00,0.84
5218.00,0.84
5217.00,0.84
5216.00,0.84
5215.00,0.84
5214.00,0.84
5213.00,0.84
5212.00,0.84
5211.00,0.84
5210.00,0.84
5209.00,0.84
5208.00,0.84
5207.00,0.84
5206.00,0.84
5205.00,0.84
5204.00,0.84
5203.00,0.84
5202.00,0.84
5201.00,0.84
5200.00,0.84
5199.00,0.84
5198.00,0.84
5197.00,0.84
5196.00,0.85
5195.00,0.85
5194.00,0.85
5193.00,0.85
5192.00,0.85
5191.00,0.85
5190.00,0.85
5189.00,0.85
5188.00,0.85
5187.00,0.85
5186.00,0.85
5185.00,0.85
5184.00,0.85
5183.00,0.84
5182.00,0.84
5181.00,0.84
5180.00,0.84
5179.00,0.84
5178.00,0.84
5177.00,0.84
5176.00,0.84
5175.00,0.83
5174.00,0.83
5173.00,0.83
5172.00,0.83
5171.00,0.83
5170.00,0.83
5169.00,0.83
5168.00,0.83
5167.00,0.83
5166.00,0.83
5165.00,0.83
5164.00,0.83
5163.00,0.83
5162.00,0.84
5161.00,0.84
5160.00,0.84
5159.00,0.84
5158.00,0.84
5157.00,0.85
5156.00,0.85
5155.00,0.85
5154.00,0.86
5153.00,0.86
5152.00,0.86
5151.00,0.87
5150.00,0.87
5149.00,0.87
5148.00,0.87
5147.00,0.88
5146.00,0.88
5145.00,0.88
5144.00,0.88
5143.00,0.88
5142.00,0.89
5141.00,0.89
5140.00,0.89
5139.00,0.89
5138.00,0.89
5137.00,0.89
5136.00,0.89
5135.00,0.89
5134.00,0.89
5133.00,0.89
5132.00,0.89
5131.00,0.89
5130.00,0.89
5129.00,0.89
5128.00,0.89
5127.00,0.89
5126.00,0.89
5125.00,0.89
5124.00,0.89
5123.00,0.89
5122.00,0.89
5121.00,0.90
5120.00,0.90
5119.00,0.90
5118.00,0.90
5117.00,0.90
5116.00,0.91
5115.00,0.91
5114.00,0.91
5113.00,0.92
5112.00,0.92
5111.00,0.92
5110.00,0.92
5109.00,0.93
5108.00,0.93
5107.00,0.93
5106.00,0.93
5105.00,0.93
5104.00,0.94
5103.00,0.94
5102.00,0.94
5101.00,0.94
5100.00,0.94
5099.00,0.94
5098.00,0.94
5097.00,0.94
5096.00,0.95
5095.00,0.95
5094.00,0.95
5093.00,0.94
5092.00,0.94
5091.00,0.94
5090.00,0.94
5089.00,0.94
5088.00,0.94
5087.00,0.94
5086.00,0.94
5085.00,0.94
5084.00,0.94
5083.00,0.94
5082.00,0.94
5081.00,0.94
5080.00,0.94
5079.00,0.93
5078.00,0.93
5077.00,0.93
5076.00,0.93
5075.00,0.93
5074.00,0.93
5073.00,0.93
5072.00,0.93
5071.00,0.93
5070.00,0.93
5069.00,0.93
5068.00,0.93
5067.00,0.93
5066.00,0.93
5065.00,0.93
5064.00,0.93
5063.00,0.94
5062.00,0.94
5061.00,0.94
5060.00,0.94
5059.00,0.94
5058.00,0.94
5057.00,0.94
5056.00,0.94
5055.00,0.95
5054.00,0.95
5053.00,0.95
5052.00,0.95
5051.00,0.95
5050.00,0.95
5049.00,0.96
5048.00,0.96
5047.00,0.96
5046.00,0.96
5045.00,0.96
5044.00,0.96
5043.00,0.96
5042.00,0.96
5041.00,0.97
5040.00,0.97
5039.00,0.97
5038.00,0.97
5037.00,0.97
5036.00,0.97
5035.00,0.97
5034.00,0.97
5033.00,0.97
5032.00,0.97
5031.00,0.98
5030.00,0.98
5029.00,0.98
5028.00,0.98
5027.00,0.98
5026.00,0.98
5025.00,0.98
5024.00,0.98
5023.00,0.98
5022.00,0.98
5021.00,0.99
5020.00,0.99
5019.00,0.99
5018.00,0.99
5017.00,0.99
5016.00,0.99
5015.00,0.99
5014.00,0.99
5013.00,0.99
5012.00,1.00
5011.00,1.00
5010.00,1.00
5009.00,1.00
5008.00,1.00
5007.00,1.00
5006.00,1.01
5005.00,1.01
5004.00,1.01
5003.00,1.01
5002.00,1.01
5001.00,1.01
5000.00,1.02
4999.00,1.02
4998.00,1.02
4997.00,1.02
4996.00,1.02
4995.00,1.02
4994.00,1.03
4993.00,1.03
4992.00,1.03
4991.00,1.03
4990.00,1.03
4989.00,1.03
4988.00,1.03
4987.00,1.03
4986.00,1.03
4985.00,1.04
4984.00,1.04
4983.00,1.04
4982.00,1.04
4981.00,1.04
4980.00,1.04
4979.00,1.04
4978.00,1.04
4977.00,1.04
4976.00,1.05
4975.00,1.05
4974.00,1.05
4973.00,1.05
4972.00,1.05
4971.00,1.05
4970.00,1.06
4969.00,1.06
4968.00,1.06
4967.00,1.06
4966.00,1.07
4965.00,1.07
4964.00,1.07
4963.00,1.07
4962.00,1.08
4961.00,1.08
4960.00,1.09
4959.00,1.09
4958.00,1.09
4957.00,1.10
4956.00,1.10
4955.00,1.10
4954.00,1.11
4953.00,1.11
4952.00,1.11
4951.00,1.11
4950.00,1.12
4949.00,1.12
4948.00,1.12
4947.00,1.12
4946.00,1.12
4945.00,1.12
4944.00,1.12
4943.00,1.12
4942.00,1.13
4941.00,1.13
4940.00,1.13
4939.00,1.13
4938.00,1.13
4937.00,1.12
4936.00,1.12
4935.00,1.12
4934.00,1.12
4933.00,1.12
4932.00,1.12
4931.00,1.12
4930.00,1.12
4929.00,1.11
4928.00,1.11
4927.00,1.11
4926.00,1.11
4925.00,1.11
4924.00,1.12
4923.00,1.12
4922.00,1.12
4921.00,1.12
4920.00,1.12
4919.00,1.12
4918.00,1.12
4917.00,1.13
4916.00,1.13
4915.00,1.13
4914.00,1.14
4913.00,1.14
4912.00,1.14
4911.00,1.15
4910.00,1.15
4909.00,1.16
4908.00,1.16
4907.00,1.16
4906.00,1.17
4905.00,1.17
4904.00,1.17
4903.00,1.18
4902.00,1.18
4901.00,1.18
4900.00,1.18
4899.00,1.19
4898.00,1.19
4897.00,1.19
4896.00,1.19
4895.00,1.19
4894.00,1.19
4893.00,1.19
4892.00,1.20
4891.00,1.20
4890.00,1.20
4889.00,1.20
4888.00,1.20
4887.00,1.20
4886.00,1.20
4885.00,1.20
4884.00,1.20
4883.00,1.20
4882.00,1.20
4881.00,1.20
4880.00,1.20
4879.00,1.20
4878.00,1.20
4877.00,1.20
4876.00,1.20
4875.00,1.20
4874.00,1.20
4873.00,1.20
4872.00,1.21
4871.00,1.21
4870.00,1.21
4869.00,1.21
4868.00,1.21
4867.00,1.21
4866.00,1.21
4865.00,1.21
4864.00,1.21
4863.00,1.21
4862.00,1.21
4861.00,1.21
4860.00,1.22
4859.00,1.22
4858.00,1.22
4857.00,1.22
4856.00,1.22
4855.00,1.22
4854.00,1.22
4853.00,1.22
4852.00,1.22
4851.00,1.22
4850.00,1.22
4849.00,1.22
4848.00,1.22
4847.00,1.22
4846.00,1.23
4845.00,1.23
4844.00,1.23
4843.00,1.23
4842.00,1.23
4841.00,1.23
4840.00,1.23
4839.00,1.24
4838.00,1.24
4837.00,1.24
4836.00,1.24
4835.00,1.24
4834.00,1.24
4833.00,1.24
4832.00,1.24
4831.00,1.24
4830.00,1.24
4829.00,1.24
4828.00,1.24
4827.00,1.24
4826.00,1.24
4825.00,1.25
4824.00,1.25
4823.00,1.25
4822.00,1.25
4821.00,1.25
4820.00,1.25
4819.00,1.25
4818.00,1.25
4817.00,1.25
4816.00,1.26
4815.00,1.26
4814.00,1.26
4813.00,1.26
4812.00,1.27
4811.00,1.27
4810.00,1.27
4809.00,1.27
4808.00,1.28
4807.00,1.28
4806.00,1.28
4805.00,1.28
4804.00,1.29
4803.00,1.29
4802.00,1.29
4801.00,1.30
4800.00,1.30
4799.00,1.30
4798.00,1.31
4797.00,1.31
4796.00,1.31
4795.00,1.32
4794.00,1.32
4793.00,1.32
4792.00,1.32
4791.00,1.32
4790.00,1.32
4789.00,1.33
4788.00,1.33
4787.00,1.33
4786.00,1.33
4785.00,1.33
4784.00,1.33
4783.00,1.34
4782.00,1.34
4781.00,1.34
4780.00,1.34
4779.00,1.35
4778.00,1.35
4777.00,1.35
4776.00,1.35
4775.00,1.36
4774.00,1.36
4773.00,1.36
4772.00,1.36
4771.00,1.36
4770.00,1.36
4769.00,1.36
4768.00,1.37
4767.00,1.37
4766.00,1.37
4765.00,1.37
4764.00,1.38
4763.00,1.38
4762.00,1.38
4761.00,1.38
4760.00,1.39
4759.00,1.39
4758.00,1.39
4757.00,1.39
4756.00,1.40
4755.00,1.40
4754.00,1.40
4753.00,1.41
4752.00,1.41
4751.00,1.41
4750.00,1.42
4749.00,1.42
4748.00,1.42
4747.00,1.43
4746.00,1.43
4745.00,1.44
4744.00,1.44
4743.00,1.44
4742.00,1.45
4741.00,1.45
4740.00,1.46
4739.00,1.46
4738.00,1.47
4737.00,1.47
4736.00,1.48
4735.00,1.48
4734.00,1.48
4733.00,1.49
4732.00,1.49
4731.00,1.49
4730.00,1.50
4729.00,1.50
4728.00,1.50
4727.00,1.50
4726.00,1.50
4725.00,1.50
4724.00,1.50
4723.00,1.51
4722.00,1.51
4721.00,1.51
4720.00,1.51
4719.00,1.52
4718.00,1.52
4717.00,1.52
4716.00,1.53
4715.00,1.53
4714.00,1.53
4713.00,1.53
4712.00,1.54
4711.00,1.54
4710.00,1.54
4709.00,1.54
4708.00,1.55
4707.00,1.55
4706.00,1.56
4705.00,1.56
4704.00,1.57
4703.00,1.58
4702.00,1.59
4701.00,1.59
4700.00,1.60
4699.00,1.61
4698.00,1.62
4697.00,1.63
4696.00,1.63
4695.00,1.64
4694.00,1.65
4693.00,1.66
4692.00,1.66
4691.00,1.67
4690.00,1.68
4689.00,1.68
4688.00,1.69
4687.00,1.70
4686.00,1.70
4685.00,1.71
4684.00,1.72
4683.00,1.72
4682.00,1.73
4681.00,1.73
4680.00,1.74
4679.00,1.75
4678.00,1.75
4677.00,1.76
4676.00,1.76
4675.00,1.76
4674.00,1.76
4673.00,1.77
4672.00,1.77
4671.00,1.77
4670.00,1.77
4669.00,1.77
4668.00,1.77
4667.00,1.78
4666.00,1.78
4665.00,1.78
4664.00,1.78
4663.00,1.79
4662.00,1.79
4661.00,1.79
4660.00,1.79
4659.00,1.80
4658.00,1.80
4657.00,1.80
4656.00,1.80
4655.00,1.80
4654.00,1.80
4653.00,1.80
4652.00,1.80
4651.00,1.80
4650.00,1.80
4649.00,1.80
4648.00,1.80
4647.00,1.81
4646.00,1.81
4645.00,1.81
4644.00,1.81
4643.00,1.81
4642.00,1.81
4641.00,1.81
4640.00,1.81
4639.00,1.81
4638.00,1.81
4637.00,1.81
4636.00,1.81
4635.00,1.81
4634.00,1.80
4633.00,1.80
4632.00,1.80
4631.00,1.80
4630.00,1.80
4629.00,1.80
4628.00,1.80
4627.00,1.80
4626.00,1.80
4625.00,1.80
4624.00,1.80
4623.00,1.80
4622.00,1.80
4621.00,1.80
4620.00,1.80
4619.00,1.80
4618.00,1.80
4617.00,1.80
4616.00,1.80
4615.00,1.80
4614.00,1.80
4613.00,1.80
4612.00,1.80
4611.00,1.80
4610.00,1.80
4609.00,1.81
4608.00,1.81
4607.00,1.81
4606.00,1.82
4605.00,1.82
4604.00,1.82
4603.00,1.82
4602.00,1.82
4601.00,1.82
4600.00,1.83
4599.00,1.83
4598.00,1.83
4597.00,1.83
4596.00,1.83
4595.00,1.83
4594.00,1.84
4593.00,1.84
4592.00,1.84
4591.00,1.84
4590.00,1.84
4589.00,1.85
4588.00,1.85
4587.00,1.85
4586.00,1.85
4585.00,1.85
4584.00,1.86
4583.00,1.86
4582.00,1.86
4581.00,1.86
4580.00,1.86
4579.00,1.86
4578.00,1.86
4577.00,1.87
4576.00,1.87
4575.00,1.87
4574.00,1.88
4573.00,1.88
4572.00,1.88
4571.00,1.88
4570.00,1.89
4569.00,1.89
4568.00,1.89
4567.00,1.89
4566.00,1.89
4565.00,1.89
4564.00,1.90
4563.00,1.90
4562.00,1.90
4561.00,1.90
4560.00,1.90
4559.00,1.90
4558.00,1.91
4557.00,1.91
4556.00,1.91
4555.00,1.91
4554.00,1.91
4553.00,1.92
4552.00,1.92
4551.00,1.92
4550.00,1.92
4549.00,1.92
4548.00,1.92
4547.00,1.92
4546.00,1.92
4545.00,1.92
4544.00,1.92
4543.00,1.93
4542.00,1.93
4541.00,1.93
4540.00,1.93
4539.00,1.94
4538.00,1.94
4537.00,1.94
4536.00,1.94
4535.00,1.95
4534.00,1.95
4533.00,1.95
4532.00,1.96
4531.00,1.96
4530.00,1.96
4529.00,1.96
4528.00,1.96
4527.00,1.97
4526.00,1.97
4525.00,1.97
4524.00,1.98
4523.00,1.98
4522.00,1.98
4521.00,1.99
4520.00,1.99
4519.00,1.99
4518.00,1.99
4517.00,2.00
4516.00,2.00
4515.00,2.00
4514.00,2.00
4513.00,2.01
4512.00,2.01
4511.00,2.01
4510.00,2.01
4509.00,2.02
4508.00,2.02
4507.00,2.02
4506.00,2.02
4505.00,2.02
4504.00,2.03
4503.00,2.03
4502.00,2.03
4501.00,2.03
4500.00,2.03
4499.00,2.03
4498.00,2.03
4497.00,2.03
4496.00,2.02
4495.00,2.02
4494.00,2.02
4493.00,2.02
4492.00,2.01
4491.00,2.01
4490.00,2.00
4489.00,2.00
4488.00,1.99
4487.00,1.99
4486.00,1.98
4485.00,1.97
4484.00,1.97
4483.00,1.96
4482.00,1.95
4481.00,1.94
4480.00,1.93
4479.00,1.92
4478.00,1.91
4477.00,1.90
4476.00,1.89
4475.00,1.88
4474.00,1.87
4473.00,1.86
4472.00,1.85
4471.00,1.84
4470.00,1.83
4469.00,1.82
4468.00,1.82
4467.00,1.81
4466.00,1.80
4465.00,1.79
4464.00,1.78
4463.00,1.77
4462.00,1.76
4461.00,1.76
4460.00,1.75
4459.00,1.74
4458.00,1.74
4457.00,1.73
4456.00,1.72
4455.00,1.72
4454.00,1.71
4453.00,1.71
4452.00,1.70
4451.00,1.70
4450.00,1.69
4449.00,1.69
4448.00,1.68
4447.00,1.67
4446.00,1.67
4445.00,1.66
4444.00,1.65
4443.00,1.64
4442.00,1.64
4441.00,1.63
4440.00,1.62
4439.00,1.62
4438.00,1.61
4437.00,1.60
4436.00,1.59
4435.00,1.59
4434.00,1.58
4433.00,1.57
4432.00,1.56
4431.00,1.56
4430.00,1.55
4429.00,1.54
4428.00,1.54
4427.00,1.53
4426.00,1.52
4425.00,1.52
4424.00,1.51
4423.00,1.51
4422.00,1.50
4421.00,1.49
4420.00,1.49
4419.00,1.49
4418.00,1.48
4417.00,1.48
4416.00,1.48
4415.00,1.48
4414.00,1.48
4413.00,1.48
4412.00,1.48
4411.00,1.48
4410.00,1.49
4409.00,1.49
4408.00,1.49
4407.00,1.49
4406.00,1.50
4405.00,1.50
4404.00,1.50
4403.00,1.51
4402.00,1.51
4401.00,1.52
4400.00,1.52
4399.00,1.53
4398.00,1.53
4397.00,1.54
4396.00,1.54
4395.00,1.54
4394.00,1.55
4393.00,1.55
4392.00,1.56
4391.00,1.56
4390.00,1.56
4389.00,1.56
4388.00,1.57
4387.00,1.57
4386.00,1.57
4385.00,1.57
4384.00,1.57
4383.00,1.57
4382.00,1.57
4381.00,1.57
4380.00,1.57
4379.00,1.57
4378.00,1.57
4377.00,1.57
4376.00,1.57
4375.00,1.56
4374.00,1.56
4373.00,1.56
4372.00,1.56
4371.00,1.55
4370.00,1.55
4369.00,1.55
4368.00,1.54
4367.00,1.54
4366.00,1.53
4365.00,1.53
4364.00,1.52
4363.00,1.52
4362.00,1.51
4361.00,1.51
4360.00,1.51
4359.00,1.50
4358.00,1.50
4357.00,1.49
4356.00,1.49
4355.00,1.49
4354.00,1.48
4353.00,1.48
4352.00,1.48
4351.00,1.47
4350.00,1.47
4349.00,1.47
4348.00,1.47
4347.00,1.47
4346.00,1.47
4345.00,1.47
4344.00,1.47
4343.00,1.47
4342.00,1.47
4341.00,1.47
4340.00,1.48
4339.00,1.48
4338.00,1.49
4337.00,1.50
4336.00,1.50
4335.00,1.51
4334.00,1.52
4333.00,1.52
4332.00,1.53
4331.00,1.54
4330.00,1.54
4329.00,1.55
4328.00,1.56
4327.00,1.57
4326.00,1.57
4325.00,1.58
4324.00,1.59
4323.00,1.60
4322.00,1.60
4321.00,1.61
4320.00,1.62
4319.00,1.63
4318.00,1.64
4317.00,1.65
4316.00,1.65
4315.00,1.66
4314.00,1.67
4313.00,1.67
4312.00,1.68
4311.00,1.69
4310.00,1.69
4309.00,1.70
4308.00,1.70
4307.00,1.71
4306.00,1.72
4305.00,1.73
4304.00,1.73
4303.00,1.74
4302.00,1.75
4301.00,1.76
4300.00,1.76
4299.00,1.77
4298.00,1.77
4297.00,1.78
4296.00,1.79
4295.00,1.79
4294.00,1.80
4293.00,1.80
4292.00,1.80
4291.00,1.81
4290.00,1.81
4289.00,1.81
4288.00,1.81
4287.00,1.81
4286.00,1.81
4285.00,1.81
4284.00,1.81
4283.00,1.80
4282.00,1.80
4281.00,1.80
4280.00,1.79
4279.00,1.79
4278.00,1.78
4277.00,1.78
4276.00,1.77
4275.00,1.76
4274.00,1.76
4273.00,1.75
4272.00,1.75
4271.00,1.74
4270.00,1.73
4269.00,1.73
4268.00,1.72
4267.00,1.71
4266.00,1.70
4265.00,1.70
4264.00,1.69
4263.00,1.69
4262.00,1.68
4261.00,1.68
4260.00,1.67
4259.00,1.67
4258.00,1.67
4257.00,1.66
4256.00,1.66
4255.00,1.66
4254.00,1.66
4253.00,1.65
4252.00,1.65
4251.00,1.65
4250.00,1.65
4249.00,1.65
4248.00,1.65
4247.00,1.64
4246.00,1.64
4245.00,1.64
4244.00,1.65
4243.00,1.65
4242.00,1.65
4241.00,1.65
4240.00,1.66
4239.00,1.66
4238.00,1.67
4237.00,1.67
4236.00,1.68
4235.00,1.68
4234.00,1.69
4233.00,1.69
4232.00,1.69
4231.00,1.70
4230.00,1.71
4229.00,1.71
4228.00,1.72
4227.00,1.72
4226.00,1.73
4225.00,1.73
4224.00,1.74
4223.00,1.74
4222.00,1.75
4221.00,1.75
4220.00,1.76
4219.00,1.76
4218.00,1.77
4217.00,1.77
4216.00,1.78
4215.00,1.78
4214.00,1.78
4213.00,1.79
4212.00,1.79
4211.00,1.79
4210.00,1.79
4209.00,1.80
4208.00,1.80
4207.00,1.80
4206.00,1.80
4205.00,1.81
4204.00,1.81
4203.00,1.81
4202.00,1.81
4201.00,1.81
4200.00,1.81
4199.00,1.82
4198.00,1.82
4197.00,1.82
4196.00,1.82
4195.00,1.83
4194.00,1.83
4193.00,1.83
4192.00,1.84
4191.00,1.84
4190.00,1.84
4189.00,1.84
4188.00,1.84
4187.00,1.84
4186.00,1.84
4185.00,1.84
4184.00,1.84
4183.00,1.84
4182.00,1.84
4181.00,1.84
4180.00,1.84
4179.00,1.85
4178.00,1.85
4177.00,1.85
4176.00,1.85
4175.00,1.85
4174.00,1.85
4173.00,1.85
4172.00,1.85
4171.00,1.85
4170.00,1.85
4169.00,1.85
4168.00,1.85
4167.00,1.85
4166.00,1.85
4165.00,1.84
4164.00,1.84
4163.00,1.84
4162.00,1.84
4161.00,1.84
4160.00,1.84
4159.00,1.83
4158.00,1.83
4157.00,1.83
4156.00,1.83
4155.00,1.83
4154.00,1.82
4153.00,1.82
4152.00,1.81
4151.00,1.80
4150.00,1.80
4149.00,1.79
4148.00,1.78
4147.00,1.78
4146.00,1.77
4145.00,1.77
4144.00,1.76
4143.00,1.76
4142.00,1.75
4141.00,1.75
4140.00,1.75
4139.00,1.74
4138.00,1.74
4137.00,1.74
4136.00,1.75
4135.00,1.75
4134.00,1.75
4133.00,1.75
4132.00,1.75
4131.00,1.75
4130.00,1.75
4129.00,1.75
4128.00,1.76
4127.00,1.76
4126.00,1.77
4125.00,1.77
4124.00,1.78
4123.00,1.78
4122.00,1.79
4121.00,1.80
4120.00,1.80
4119.00,1.81
4118.00,1.81
4117.00,1.81
4116.00,1.81
4115.00,1.82
4114.00,1.82
4113.00,1.82
4112.00,1.82
4111.00,1.82
4110.00,1.82
4109.00,1.82
4108.00,1.82
4107.00,1.82
4106.00,1.82
4105.00,1.82
4104.00,1.82
4103.00,1.82
4102.00,1.81
4101.00,1.81
4100.00,1.81
4099.00,1.81
4098.00,1.81
4097.00,1.81
4096.00,1.81
4095.00,1.81
4094.00,1.81
4093.00,1.81
4092.00,1.81
4091.00,1.81
4090.00,1.81
4089.00,1.81
4088.00,1.81
4087.00,1.82
4086.00,1.82
4085.00,1.82
4084.00,1.82
4083.00,1.82
4082.00,1.83
4081.00,1.83
4080.00,1.83
4079.00,1.83
4078.00,1.84
4077.00,1.84
4076.00,1.84
4075.00,1.85
4074.00,1.85
4073.00,1.86
4072.00,1.86
4071.00,1.86
4070.00,1.87
4069.00,1.87
4068.00,1.88
4067.00,1.89
4066.00,1.89
4065.00,1.90
4064.00,1.91
4063.00,1.91
4062.00,1.92
4061.00,1.93
4060.00,1.93
4059.00,1.94
4058.00,1.94
4057.00,1.95
4056.00,1.95
4055.00,1.96
4054.00,1.96
4053.00,1.97
4052.00,1.98
4051.00,1.98
4050.00,1.99
4049.00,1.99
4048.00,1.99
4047.00,2.00
4046.00,2.00
4045.00,2.01
4044.00,2.01
4043.00,2.01
4042.00,2.01
4041.00,2.02
4040.00,2.02
4039.00,2.02
4038.00,2.02
4037.00,2.02
4036.00,2.02
4035.00,2.02
4034.00,2.02
4033.00,2.02
4032.00,2.02
4031.00,2.02
4030.00,2.02
4029.00,2.02
4028.00,2.02
4027.00,2.01
4026.00,2.01
4025.00,2.01
4024.00,2.01
4023.00,2.01
4022.00,2.01
4021.00,2.02
4020.00,2.02
4019.00,2.02
4018.00,2.02
4017.00,2.03
4016.00,2.03
4015.00,2.04
4014.00,2.04
4013.00,2.05
4012.00,2.06
4011.00,2.07
4010.00,2.09
4009.00,2.10
4008.00,2.12
4007.00,2.13
4006.00,2.15
4005.00,2.16
4004.00,2.18
4003.00,2.19
4002.00,2.21
4001.00,2.23
4000.00,2.25
