创建为新数据集,样品 959 用户 Administrator 日期 星期二, 七月 30 2019
cm-1,%T
10000.00,2.35
9999.00,2.31
9998.00,2.26
9997.00,2.22
9996.00,2.17
9995.00,2.13
9994.00,2.08
9993.00,2.04
9992.00,2.00
9991.00,1.95
9990.00,1.91
9989.00,1.88
9988.00,1.84
9987.00,1.80
9986.00,1.77
9985.00,1.74
9984.00,1.70
9983.00,1.68
9982.00,1.65
9981.00,1.62
9980.00,1.60
9979.00,1.57
9978.00,1.55
9977.00,1.53
9976.00,1.51
9975.00,1.50
9974.00,1.48
9973.00,1.47
9972.00,1.45
9971.00,1.44
9970.00,1.43
9969.00,1.42
9968.00,1.42
9967.00,1.41
9966.00,1.40
9965.00,1.39
9964.00,1.39
9963.00,1.38
9962.00,1.38
9961.00,1.37
9960.00,1.37
9959.00,1.36
9958.00,1.36
9957.00,1.35
9956.00,1.35
9955.00,1.35
9954.00,1.34
9953.00,1.34
9952.00,1.34
9951.00,1.34
9950.00,1.34
9949.00,1.34
9948.00,1.34
9947.00,1.34
9946.00,1.33
9945.00,1.33
9944.00,1.33
9943.00,1.33
9942.00,1.33
9941.00,1.33
9940.00,1.33
9939.00,1.33
9938.00,1.33
9937.00,1.34
9936.00,1.34
9935.00,1.35
9934.00,1.35
9933.00,1.36
9932.00,1.36
9931.00,1.36
9930.00,1.37
9929.00,1.37
9928.00,1.37
9927.00,1.37
9926.00,1.37
9925.00,1.37
9924.00,1.37
9923.00,1.37
9922.00,1.37
9921.00,1.37
9920.00,1.37
9919.00,1.37
9918.00,1.37
9917.00,1.36
9916.00,1.36
9915.00,1.36
9914.00,1.36
9913.00,1.36
9912.00,1.35
9911.00,1.35
9910.00,1.34
9909.00,1.34
9908.00,1.33
9907.00,1.33
9906.00,1.32
9905.00,1.32
9904.00,1.32
9903.00,1.32
9902.00,1.31
9901.00,1.31
9900.00,1.32
9899.00,1.32
9898.00,1.32
9897.00,1.32
9896.00,1.32
9895.00,1.33
9894.00,1.33
9893.00,1.33
9892.00,1.34
9891.00,1.34
9890.00,1.34
9889.00,1.35
9888.00,1.35
9887.00,1.35
9886.00,1.36
9885.00,1.36
9884.00,1.36
9883.00,1.37
9882.00,1.37
9881.00,1.37
9880.00,1.37
9879.00,1.38
9878.00,1.38
9877.00,1.38
9876.00,1.38
9875.00,1.38
9874.00,1.38
9873.00,1.38
9872.00,1.37
9871.00,1.37
9870.00,1.37
9869.00,1.38
9868.00,1.38
9867.00,1.38
9866.00,1.38
9865.00,1.38
9864.00,1.39
9863.00,1.39
9862.00,1.39
9861.00,1.39
9860.00,1.40
9859.00,1.40
9858.00,1.40
9857.00,1.40
9856.00,1.40
9855.00,1.40
9854.00,1.40
9853.00,1.40
9852.00,1.41
9851.00,1.41
9850.00,1.41
9849.00,1.41
9848.00,1.42
9847.00,1.42
9846.00,1.42
9845.00,1.43
9844.00,1.43
9843.00,1.43
9842.00,1.43
9841.00,1.43
9840.00,1.43
9839.00,1.43
9838.00,1.43
9837.00,1.43
9836.00,1.42
9835.00,1.42
9834.00,1.42
9833.00,1.42
9832.00,1.42
9831.00,1.42
9830.00,1.42
9829.00,1.42
9828.00,1.42
9827.00,1.42
9826.00,1.42
9825.00,1.42
9824.00,1.42
9823.00,1.42
9822.00,1.41
9821.00,1.41
9820.00,1.41
9819.00,1.41
9818.00,1.40
9817.00,1.40
9816.00,1.40
9815.00,1.40
9814.00,1.40
9813.00,1.40
9812.00,1.40
9811.00,1.40
9810.00,1.40
9809.00,1.40
9808.00,1.40
9807.00,1.40
9806.00,1.40
9805.00,1.40
9804.00,1.40
9803.00,1.41
9802.00,1.41
9801.00,1.41
9800.00,1.41
9799.00,1.42
9798.00,1.42
9797.00,1.42
9796.00,1.43
9795.00,1.43
9794.00,1.43
9793.00,1.44
9792.00,1.44
9791.00,1.45
9790.00,1.45
9789.00,1.46
9788.00,1.46
9787.00,1.47
9786.00,1.47
9785.00,1.48
9784.00,1.48
9783.00,1.48
9782.00,1.49
9781.00,1.49
9780.00,1.50
9779.00,1.50
9778.00,1.50
9777.00,1.51
9776.00,1.51
9775.00,1.51
9774.00,1.51
9773.00,1.51
9772.00,1.51
9771.00,1.51
9770.00,1.52
9769.00,1.52
9768.00,1.52
9767.00,1.52
9766.00,1.52
9765.00,1.52
9764.00,1.52
9763.00,1.52
9762.00,1.52
9761.00,1.52
9760.00,1.52
9759.00,1.51
9758.00,1.51
9757.00,1.51
9756.00,1.50
9755.00,1.50
9754.00,1.50
9753.00,1.49
9752.00,1.49
9751.00,1.48
9750.00,1.48
9749.00,1.47
9748.00,1.47
9747.00,1.47
9746.00,1.46
9745.00,1.45
9744.00,1.45
9743.00,1.44
9742.00,1.44
9741.00,1.43
9740.00,1.42
9739.00,1.42
9738.00,1.41
9737.00,1.40
9736.00,1.40
9735.00,1.39
9734.00,1.39
9733.00,1.38
9732.00,1.38
9731.00,1.37
9730.00,1.37
9729.00,1.36
9728.00,1.36
9727.00,1.35
9726.00,1.35
9725.00,1.35
9724.00,1.34
9723.00,1.34
9722.00,1.33
9721.00,1.33
9720.00,1.33
9719.00,1.32
9718.00,1.32
9717.00,1.32
9716.00,1.32
9715.00,1.32
9714.00,1.32
9713.00,1.32
9712.00,1.32
9711.00,1.32
9710.00,1.32
9709.00,1.32
9708.00,1.33
9707.00,1.33
9706.00,1.34
9705.00,1.34
9704.00,1.35
9703.00,1.35
9702.00,1.36
9701.00,1.36
9700.00,1.37
9699.00,1.38
9698.00,1.39
9697.00,1.40
9696.00,1.41
9695.00,1.42
9694.00,1.43
9693.00,1.45
9692.00,1.46
9691.00,1.47
9690.00,1.49
9689.00,1.50
9688.00,1.52
9687.00,1.53
9686.00,1.54
9685.00,1.55
9684.00,1.56
9683.00,1.57
9682.00,1.57
9681.00,1.58
9680.00,1.58
9679.00,1.59
9678.00,1.59
9677.00,1.60
9676.00,1.60
9675.00,1.60
9674.00,1.60
9673.00,1.60
9672.00,1.60
9671.00,1.60
9670.00,1.59
9669.00,1.58
9668.00,1.57
9667.00,1.56
9666.00,1.55
9665.00,1.53
9664.00,1.52
9663.00,1.50
9662.00,1.48
9661.00,1.47
9660.00,1.46
9659.00,1.44
9658.00,1.43
9657.00,1.42
9656.00,1.41
9655.00,1.39
9654.00,1.38
9653.00,1.37
9652.00,1.36
9651.00,1.35
9650.00,1.34
9649.00,1.33
9648.00,1.33
9647.00,1.32
9646.00,1.32
9645.00,1.31
9644.00,1.31
9643.00,1.31
9642.00,1.31
9641.00,1.32
9640.00,1.32
9639.00,1.33
9638.00,1.33
9637.00,1.34
9636.00,1.35
9635.00,1.35
9634.00,1.36
9633.00,1.36
9632.00,1.37
9631.00,1.37
9630.00,1.37
9629.00,1.38
9628.00,1.38
9627.00,1.38
9626.00,1.39
9625.00,1.39
9624.00,1.40
9623.00,1.40
9622.00,1.41
9621.00,1.41
9620.00,1.41
9619.00,1.41
9618.00,1.41
9617.00,1.41
9616.00,1.41
9615.00,1.41
9614.00,1.41
9613.00,1.41
9612.00,1.40
9611.00,1.40
9610.00,1.40
9609.00,1.40
9608.00,1.40
9607.00,1.39
9606.00,1.39
9605.00,1.39
9604.00,1.39
9603.00,1.39
9602.00,1.39
9601.00,1.39
9600.00,1.39
9599.00,1.39
9598.00,1.39
9597.00,1.38
9596.00,1.38
9595.00,1.38
9594.00,1.37
9593.00,1.37
9592.00,1.36
9591.00,1.36
9590.00,1.35
9589.00,1.35
9588.00,1.35
9587.00,1.34
9586.00,1.34
9585.00,1.34
9584.00,1.33
9583.00,1.33
9582.00,1.32
9581.00,1.32
9580.00,1.32
9579.00,1.31
9578.00,1.31
9577.00,1.30
9576.00,1.30
9575.00,1.29
9574.00,1.29
9573.00,1.29
9572.00,1.29
9571.00,1.29
9570.00,1.29
9569.00,1.29
9568.00,1.29
9567.00,1.29
9566.00,1.30
9565.00,1.30
9564.00,1.31
9563.00,1.31
9562.00,1.32
9561.00,1.32
9560.00,1.33
9559.00,1.34
9558.00,1.34
9557.00,1.35
9556.00,1.36
9555.00,1.36
9554.00,1.37
9553.00,1.38
9552.00,1.38
9551.00,1.38
9550.00,1.39
9549.00,1.39
9548.00,1.39
9547.00,1.39
9546.00,1.39
9545.00,1.39
9544.00,1.39
9543.00,1.39
9542.00,1.39
9541.00,1.39
9540.00,1.38
9539.00,1.38
9538.00,1.38
9537.00,1.37
9536.00,1.37
9535.00,1.37
9534.00,1.36
9533.00,1.36
9532.00,1.35
9531.00,1.35
9530.00,1.34
9529.00,1.34
9528.00,1.34
9527.00,1.34
9526.00,1.34
9525.00,1.34
9524.00,1.34
9523.00,1.34
9522.00,1.35
9521.00,1.35
9520.00,1.36
9519.00,1.36
9518.00,1.37
9517.00,1.38
9516.00,1.38
9515.00,1.39
9514.00,1.39
9513.00,1.40
9512.00,1.40
9511.00,1.41
9510.00,1.41
9509.00,1.41
9508.00,1.42
9507.00,1.42
9506.00,1.42
9505.00,1.43
9504.00,1.43
9503.00,1.43
9502.00,1.43
9501.00,1.43
9500.00,1.43
9499.00,1.43
9498.00,1.42
9497.00,1.42
9496.00,1.42
9495.00,1.41
9494.00,1.41
9493.00,1.40
9492.00,1.40
9491.00,1.40
9490.00,1.39
9489.00,1.39
9488.00,1.38
9487.00,1.38
9486.00,1.38
9485.00,1.37
9484.00,1.37
9483.00,1.37
9482.00,1.37
9481.00,1.37
9480.00,1.37
9479.00,1.36
9478.00,1.36
9477.00,1.36
9476.00,1.36
9475.00,1.36
9474.00,1.35
9473.00,1.35
9472.00,1.35
9471.00,1.35
9470.00,1.35
9469.00,1.35
9468.00,1.35
9467.00,1.35
9466.00,1.35
9465.00,1.34
9464.00,1.34
9463.00,1.34
9462.00,1.34
9461.00,1.34
9460.00,1.33
9459.00,1.33
9458.00,1.33
9457.00,1.32
9456.00,1.32
9455.00,1.32
9454.00,1.32
9453.00,1.31
9452.00,1.31
9451.00,1.31
9450.00,1.30
9449.00,1.30
9448.00,1.30
9447.00,1.30
9446.00,1.29
9445.00,1.29
9444.00,1.29
9443.00,1.28
9442.00,1.28
9441.00,1.28
9440.00,1.27
9439.00,1.27
9438.00,1.27
9437.00,1.26
9436.00,1.26
9435.00,1.26
9434.00,1.25
9433.00,1.25
9432.00,1.25
9431.00,1.25
9430.00,1.25
9429.00,1.25
9428.00,1.25
9427.00,1.25
9426.00,1.25
9425.00,1.25
9424.00,1.25
9423.00,1.25
9422.00,1.25
9421.00,1.25
9420.00,1.25
9419.00,1.25
9418.00,1.25
9417.00,1.26
9416.00,1.26
9415.00,1.26
9414.00,1.27
9413.00,1.27
9412.00,1.27
9411.00,1.28
9410.00,1.29
9409.00,1.29
9408.00,1.30
9407.00,1.30
9406.00,1.31
9405.00,1.31
9404.00,1.31
9403.00,1.32
9402.00,1.32
9401.00,1.32
9400.00,1.33
9399.00,1.33
9398.00,1.33
9397.00,1.34
9396.00,1.34
9395.00,1.35
9394.00,1.35
9393.00,1.36
9392.00,1.36
9391.00,1.37
9390.00,1.38
9389.00,1.38
9388.00,1.39
9387.00,1.39
9386.00,1.39
9385.00,1.40
9384.00,1.40
9383.00,1.40
9382.00,1.40
9381.00,1.41
9380.00,1.41
9379.00,1.41
9378.00,1.41
9377.00,1.41
9376.00,1.41
9375.00,1.42
9374.00,1.42
9373.00,1.42
9372.00,1.42
9371.00,1.42
9370.00,1.42
9369.00,1.42
9368.00,1.42
9367.00,1.42
9366.00,1.42
9365.00,1.42
9364.00,1.41
9363.00,1.41
9362.00,1.41
9361.00,1.41
9360.00,1.41
9359.00,1.41
9358.00,1.41
9357.00,1.40
9356.00,1.40
9355.00,1.40
9354.00,1.40
9353.00,1.40
9352.00,1.40
9351.00,1.41
9350.00,1.41
9349.00,1.41
9348.00,1.41
9347.00,1.41
9346.00,1.41
9345.00,1.41
9344.00,1.41
9343.00,1.41
9342.00,1.41
9341.00,1.41
9340.00,1.41
9339.00,1.41
9338.00,1.41
9337.00,1.41
9336.00,1.41
9335.00,1.41
9334.00,1.41
9333.00,1.42
9332.00,1.42
9331.00,1.42
9330.00,1.43
9329.00,1.43
9328.00,1.43
9327.00,1.44
9326.00,1.44
9325.00,1.44
9324.00,1.44
9323.00,1.45
9322.00,1.45
9321.00,1.45
9320.00,1.45
9319.00,1.45
9318.00,1.46
9317.00,1.46
9316.00,1.46
9315.00,1.47
9314.00,1.47
9313.00,1.47
9312.00,1.47
9311.00,1.48
9310.00,1.48
9309.00,1.48
9308.00,1.48
9307.00,1.48
9306.00,1.48
9305.00,1.48
9304.00,1.48
9303.00,1.48
9302.00,1.47
9301.00,1.47
9300.00,1.47
9299.00,1.46
9298.00,1.46
9297.00,1.46
9296.00,1.45
9295.00,1.45
9294.00,1.45
9293.00,1.44
9292.00,1.44
9291.00,1.44
9290.00,1.44
9289.00,1.43
9288.00,1.43
9287.00,1.43
9286.00,1.42
9285.00,1.42
9284.00,1.42
9283.00,1.41
9282.00,1.41
9281.00,1.40
9280.00,1.40
9279.00,1.40
9278.00,1.39
9277.00,1.39
9276.00,1.39
9275.00,1.39
9274.00,1.38
9273.00,1.38
9272.00,1.38
9271.00,1.38
9270.00,1.38
9269.00,1.38
9268.00,1.38
9267.00,1.38
9266.00,1.38
9265.00,1.38
9264.00,1.38
9263.00,1.38
9262.00,1.38
9261.00,1.39
9260.00,1.39
9259.00,1.39
9258.00,1.39
9257.00,1.39
9256.00,1.39
9255.00,1.39
9254.00,1.40
9253.00,1.40
9252.00,1.40
9251.00,1.41
9250.00,1.41
9249.00,1.41
9248.00,1.42
9247.00,1.42
9246.00,1.42
9245.00,1.43
9244.00,1.43
9243.00,1.43
9242.00,1.43
9241.00,1.43
9240.00,1.44
9239.00,1.44
9238.00,1.44
9237.00,1.44
9236.00,1.44
9235.00,1.44
9234.00,1.43
9233.00,1.43
9232.00,1.43
9231.00,1.43
9230.00,1.43
9229.00,1.43
9228.00,1.43
9227.00,1.42
9226.00,1.42
9225.00,1.42
9224.00,1.41
9223.00,1.41
9222.00,1.41
9221.00,1.40
9220.00,1.40
9219.00,1.39
9218.00,1.39
9217.00,1.38
9216.00,1.38
9215.00,1.37
9214.00,1.37
9213.00,1.37
9212.00,1.37
9211.00,1.37
9210.00,1.37
9209.00,1.37
9208.00,1.37
9207.00,1.37
9206.00,1.37
9205.00,1.37
9204.00,1.37
9203.00,1.38
9202.00,1.38
9201.00,1.39
9200.00,1.39
9199.00,1.40
9198.00,1.40
9197.00,1.41
9196.00,1.41
9195.00,1.42
9194.00,1.43
9193.00,1.43
9192.00,1.44
9191.00,1.44
9190.00,1.45
9189.00,1.45
9188.00,1.45
9187.00,1.46
9186.00,1.46
9185.00,1.46
9184.00,1.46
9183.00,1.46
9182.00,1.46
9181.00,1.46
9180.00,1.46
9179.00,1.46
9178.00,1.46
9177.00,1.45
9176.00,1.45
9175.00,1.44
9174.00,1.43
9173.00,1.43
9172.00,1.42
9171.00,1.41
9170.00,1.41
9169.00,1.41
9168.00,1.40
9167.00,1.40
9166.00,1.40
9165.00,1.40
9164.00,1.40
9163.00,1.40
9162.00,1.40
9161.00,1.40
9160.00,1.40
9159.00,1.40
9158.00,1.40
9157.00,1.40
9156.00,1.40
9155.00,1.41
9154.00,1.41
9153.00,1.42
9152.00,1.42
9151.00,1.43
9150.00,1.43
9149.00,1.44
9148.00,1.44
9147.00,1.45
9146.00,1.46
9145.00,1.46
9144.00,1.46
9143.00,1.46
9142.00,1.47
9141.00,1.47
9140.00,1.46
9139.00,1.46
9138.00,1.46
9137.00,1.46
9136.00,1.45
9135.00,1.45
9134.00,1.45
9133.00,1.44
9132.00,1.44
9131.00,1.43
9130.00,1.43
9129.00,1.43
9128.00,1.42
9127.00,1.42
9126.00,1.41
9125.00,1.41
9124.00,1.41
9123.00,1.40
9122.00,1.40
9121.00,1.39
9120.00,1.39
9119.00,1.39
9118.00,1.38
9117.00,1.38
9116.00,1.38
9115.00,1.38
9114.00,1.38
9113.00,1.38
9112.00,1.37
9111.00,1.37
9110.00,1.37
9109.00,1.37
9108.00,1.37
9107.00,1.37
9106.00,1.37
9105.00,1.37
9104.00,1.37
9103.00,1.37
9102.00,1.37
9101.00,1.37
9100.00,1.37
9099.00,1.37
9098.00,1.37
9097.00,1.37
9096.00,1.36
9095.00,1.36
9094.00,1.36
9093.00,1.36
9092.00,1.36
9091.00,1.36
9090.00,1.36
9089.00,1.36
9088.00,1.36
9087.00,1.36
9086.00,1.37
9085.00,1.37
9084.00,1.37
9083.00,1.37
9082.00,1.38
9081.00,1.38
9080.00,1.38
9079.00,1.38
9078.00,1.38
9077.00,1.38
9076.00,1.38
9075.00,1.38
9074.00,1.38
9073.00,1.38
9072.00,1.38
9071.00,1.39
9070.00,1.39
9069.00,1.39
9068.00,1.39
9067.00,1.39
9066.00,1.39
9065.00,1.40
9064.00,1.40
9063.00,1.40
9062.00,1.40
9061.00,1.40
9060.00,1.40
9059.00,1.40
9058.00,1.40
9057.00,1.40
9056.00,1.40
9055.00,1.40
9054.00,1.40
9053.00,1.40
9052.00,1.40
9051.00,1.40
9050.00,1.40
9049.00,1.40
9048.00,1.41
9047.00,1.41
9046.00,1.41
9045.00,1.41
9044.00,1.41
9043.00,1.41
9042.00,1.40
9041.00,1.40
9040.00,1.40
9039.00,1.40
9038.00,1.40
9037.00,1.39
9036.00,1.39
9035.00,1.39
9034.00,1.39
9033.00,1.38
9032.00,1.38
9031.00,1.38
9030.00,1.37
9029.00,1.37
9028.00,1.37
9027.00,1.37
9026.00,1.37
9025.00,1.36
9024.00,1.36
9023.00,1.36
9022.00,1.36
9021.00,1.36
9020.00,1.36
9019.00,1.35
9018.00,1.35
9017.00,1.35
9016.00,1.35
9015.00,1.35
9014.00,1.34
9013.00,1.34
9012.00,1.34
9011.00,1.34
9010.00,1.34
9009.00,1.34
9008.00,1.34
9007.00,1.34
9006.00,1.34
9005.00,1.34
9004.00,1.34
9003.00,1.34
9002.00,1.34
9001.00,1.34
9000.00,1.34
8999.00,1.34
8998.00,1.34
8997.00,1.34
8996.00,1.34
8995.00,1.34
8994.00,1.34
8993.00,1.34
8992.00,1.34
8991.00,1.34
8990.00,1.34
8989.00,1.34
8988.00,1.34
8987.00,1.34
8986.00,1.34
8985.00,1.33
8984.00,1.33
8983.00,1.33
8982.00,1.33
8981.00,1.32
8980.00,1.32
8979.00,1.32
8978.00,1.31
8977.00,1.31
8976.00,1.31
8975.00,1.31
8974.00,1.30
8973.00,1.30
8972.00,1.30
8971.00,1.30
8970.00,1.30
8969.00,1.30
8968.00,1.30
8967.00,1.29
8966.00,1.29
8965.00,1.29
8964.00,1.29
8963.00,1.29
8962.00,1.29
8961.00,1.29
8960.00,1.29
8959.00,1.29
8958.00,1.29
8957.00,1.29
8956.00,1.30
8955.00,1.30
8954.00,1.31
8953.00,1.31
8952.00,1.32
8951.00,1.32
8950.00,1.33
8949.00,1.33
8948.00,1.34
8947.00,1.34
8946.00,1.34
8945.00,1.34
8944.00,1.35
8943.00,1.35
8942.00,1.35
8941.00,1.36
8940.00,1.36
8939.00,1.36
8938.00,1.37
8937.00,1.37
8936.00,1.38
8935.00,1.38
8934.00,1.38
8933.00,1.39
8932.00,1.39
8931.00,1.39
8930.00,1.40
8929.00,1.40
8928.00,1.40
8927.00,1.40
8926.00,1.41
8925.00,1.41
8924.00,1.41
8923.00,1.41
8922.00,1.42
8921.00,1.42
8920.00,1.43
8919.00,1.43
8918.00,1.44
8917.00,1.44
8916.00,1.45
8915.00,1.46
8914.00,1.46
8913.00,1.46
8912.00,1.47
8911.00,1.47
8910.00,1.47
8909.00,1.48
8908.00,1.48
8907.00,1.48
8906.00,1.48
8905.00,1.49
8904.00,1.49
8903.00,1.49
8902.00,1.49
8901.00,1.49
8900.00,1.49
8899.00,1.49
8898.00,1.49
8897.00,1.48
8896.00,1.48
8895.00,1.48
8894.00,1.47
8893.00,1.47
8892.00,1.46
8891.00,1.46
8890.00,1.45
8889.00,1.45
8888.00,1.44
8887.00,1.43
8886.00,1.43
8885.00,1.42
8884.00,1.41
8883.00,1.41
8882.00,1.40
8881.00,1.40
8880.00,1.39
8879.00,1.39
8878.00,1.38
8877.00,1.38
8876.00,1.37
8875.00,1.37
8874.00,1.37
8873.00,1.37
8872.00,1.36
8871.00,1.36
8870.00,1.36
8869.00,1.36
8868.00,1.36
8867.00,1.36
8866.00,1.36
8865.00,1.36
8864.00,1.36
8863.00,1.36
8862.00,1.37
8861.00,1.37
8860.00,1.37
8859.00,1.38
8858.00,1.38
8857.00,1.38
8856.00,1.38
8855.00,1.39
8854.00,1.39
8853.00,1.39
8852.00,1.39
8851.00,1.39
8850.00,1.39
8849.00,1.39
8848.00,1.39
8847.00,1.39
8846.00,1.38
8845.00,1.38
8844.00,1.38
8843.00,1.38
8842.00,1.38
8841.00,1.38
8840.00,1.37
8839.00,1.37
8838.00,1.37
8837.00,1.36
8836.00,1.36
8835.00,1.36
8834.00,1.35
8833.00,1.35
8832.00,1.34
8831.00,1.34
8830.00,1.34
8829.00,1.33
8828.00,1.33
8827.00,1.33
8826.00,1.33
8825.00,1.33
8824.00,1.33
8823.00,1.33
8822.00,1.33
8821.00,1.33
8820.00,1.34
8819.00,1.34
8818.00,1.34
8817.00,1.34
8816.00,1.35
8815.00,1.35
8814.00,1.35
8813.00,1.36
8812.00,1.36
8811.00,1.36
8810.00,1.37
8809.00,1.37
8808.00,1.38
8807.00,1.38
8806.00,1.39
8805.00,1.39
8804.00,1.39
8803.00,1.40
8802.00,1.40
8801.00,1.40
8800.00,1.40
8799.00,1.41
8798.00,1.41
8797.00,1.41
8796.00,1.41
8795.00,1.40
8794.00,1.40
8793.00,1.40
8792.00,1.40
8791.00,1.40
8790.00,1.40
8789.00,1.40
8788.00,1.40
8787.00,1.40
8786.00,1.39
8785.00,1.39
8784.00,1.39
8783.00,1.38
8782.00,1.38
8781.00,1.37
8780.00,1.37
8779.00,1.37
8778.00,1.36
8777.00,1.36
8776.00,1.35
8775.00,1.35
8774.00,1.35
8773.00,1.35
8772.00,1.35
8771.00,1.35
8770.00,1.35
8769.00,1.35
8768.00,1.35
8767.00,1.35
8766.00,1.35
8765.00,1.35
8764.00,1.35
8763.00,1.35
8762.00,1.35
8761.00,1.35
8760.00,1.35
8759.00,1.35
8758.00,1.35
8757.00,1.35
8756.00,1.35
8755.00,1.35
8754.00,1.35
8753.00,1.35
8752.00,1.35
8751.00,1.35
8750.00,1.35
8749.00,1.35
8748.00,1.35
8747.00,1.35
8746.00,1.35
8745.00,1.34
8744.00,1.34
8743.00,1.34
8742.00,1.33
8741.00,1.33
8740.00,1.33
8739.00,1.33
8738.00,1.32
8737.00,1.32
8736.00,1.32
8735.00,1.32
8734.00,1.32
8733.00,1.32
8732.00,1.32
8731.00,1.32
8730.00,1.32
8729.00,1.32
8728.00,1.32
8727.00,1.33
8726.00,1.33
8725.00,1.33
8724.00,1.33
8723.00,1.33
8722.00,1.33
8721.00,1.33
8720.00,1.33
8719.00,1.34
8718.00,1.34
8717.00,1.34
8716.00,1.34
8715.00,1.34
8714.00,1.34
8713.00,1.34
8712.00,1.34
8711.00,1.34
8710.00,1.34
8709.00,1.34
8708.00,1.34
8707.00,1.34
8706.00,1.34
8705.00,1.34
8704.00,1.34
8703.00,1.33
8702.00,1.33
8701.00,1.33
8700.00,1.33
8699.00,1.33
8698.00,1.33
8697.00,1.32
8696.00,1.32
8695.00,1.32
8694.00,1.32
8693.00,1.32
8692.00,1.32
8691.00,1.32
8690.00,1.32
8689.00,1.32
8688.00,1.32
8687.00,1.32
8686.00,1.32
8685.00,1.32
8684.00,1.32
8683.00,1.32
8682.00,1.31
8681.00,1.31
8680.00,1.31
8679.00,1.31
8678.00,1.31
8677.00,1.30
8676.00,1.30
8675.00,1.30
8674.00,1.30
8673.00,1.30
8672.00,1.30
8671.00,1.29
8670.00,1.29
8669.00,1.29
8668.00,1.29
8667.00,1.29
8666.00,1.29
8665.00,1.29
8664.00,1.29
8663.00,1.29
8662.00,1.28
8661.00,1.28
8660.00,1.28
8659.00,1.28
8658.00,1.28
8657.00,1.28
8656.00,1.28
8655.00,1.28
8654.00,1.28
8653.00,1.29
8652.00,1.29
8651.00,1.29
8650.00,1.29
8649.00,1.29
8648.00,1.30
8647.00,1.30
8646.00,1.30
8645.00,1.30
8644.00,1.30
8643.00,1.31
8642.00,1.31
8641.00,1.31
8640.00,1.31
8639.00,1.32
8638.00,1.32
8637.00,1.32
8636.00,1.33
8635.00,1.33
8634.00,1.33
8633.00,1.34
8632.00,1.34
8631.00,1.34
8630.00,1.34
8629.00,1.34
8628.00,1.35
8627.00,1.35
8626.00,1.35
8625.00,1.35
8624.00,1.35
8623.00,1.35
8622.00,1.35
8621.00,1.35
8620.00,1.35
8619.00,1.34
8618.00,1.34
8617.00,1.34
8616.00,1.34
8615.00,1.34
8614.00,1.34
8613.00,1.34
8612.00,1.34
8611.00,1.34
8610.00,1.33
8609.00,1.33
8608.00,1.33
8607.00,1.33
8606.00,1.33
8605.00,1.33
8604.00,1.33
8603.00,1.32
8602.00,1.32
8601.00,1.32
8600.00,1.32
8599.00,1.32
8598.00,1.32
8597.00,1.32
8596.00,1.32
8595.00,1.32
8594.00,1.32
8593.00,1.32
8592.00,1.33
8591.00,1.33
8590.00,1.33
8589.00,1.33
8588.00,1.32
8587.00,1.32
8586.00,1.32
8585.00,1.32
8584.00,1.32
8583.00,1.32
8582.00,1.32
8581.00,1.32
8580.00,1.32
8579.00,1.32
8578.00,1.32
8577.00,1.32
8576.00,1.33
8575.00,1.33
8574.00,1.33
8573.00,1.33
8572.00,1.33
8571.00,1.33
8570.00,1.34
8569.00,1.34
8568.00,1.34
8567.00,1.34
8566.00,1.34
8565.00,1.34
8564.00,1.34
8563.00,1.34
8562.00,1.34
8561.00,1.34
8560.00,1.35
8559.00,1.35
8558.00,1.35
8557.00,1.35
8556.00,1.35
8555.00,1.35
8554.00,1.35
8553.00,1.35
8552.00,1.34
8551.00,1.34
8550.00,1.34
8549.00,1.34
8548.00,1.33
8547.00,1.33
8546.00,1.33
8545.00,1.32
8544.00,1.32
8543.00,1.32
8542.00,1.31
8541.00,1.31
8540.00,1.31
8539.00,1.31
8538.00,1.31
8537.00,1.31
8536.00,1.31
8535.00,1.31
8534.00,1.31
8533.00,1.31
8532.00,1.31
8531.00,1.31
8530.00,1.31
8529.00,1.31
8528.00,1.31
8527.00,1.31
8526.00,1.31
8525.00,1.31
8524.00,1.31
8523.00,1.31
8522.00,1.31
8521.00,1.31
8520.00,1.31
8519.00,1.31
8518.00,1.31
8517.00,1.30
8516.00,1.30
8515.00,1.30
8514.00,1.30
8513.00,1.30
8512.00,1.29
8511.00,1.29
8510.00,1.29
8509.00,1.28
8508.00,1.28
8507.00,1.27
8506.00,1.27
8505.00,1.27
8504.00,1.26
8503.00,1.26
8502.00,1.26
8501.00,1.26
8500.00,1.26
8499.00,1.26
8498.00,1.26
8497.00,1.26
8496.00,1.26
8495.00,1.27
8494.00,1.27
8493.00,1.27
8492.00,1.28
8491.00,1.28
8490.00,1.29
8489.00,1.30
8488.00,1.30
8487.00,1.31
8486.00,1.32
8485.00,1.33
8484.00,1.33
8483.00,1.34
8482.00,1.35
8481.00,1.35
8480.00,1.36
8479.00,1.36
8478.00,1.36
8477.00,1.36
8476.00,1.37
8475.00,1.37
8474.00,1.37
8473.00,1.37
8472.00,1.36
8471.00,1.36
8470.00,1.36
8469.00,1.36
8468.00,1.35
8467.00,1.35
8466.00,1.34
8465.00,1.34
8464.00,1.33
8463.00,1.33
8462.00,1.32
8461.00,1.31
8460.00,1.30
8459.00,1.30
8458.00,1.29
8457.00,1.28
8456.00,1.28
8455.00,1.27
8454.00,1.27
8453.00,1.26
8452.00,1.26
8451.00,1.26
8450.00,1.26
8449.00,1.25
8448.00,1.25
8447.00,1.25
8446.00,1.25
8445.00,1.25
8444.00,1.25
8443.00,1.25
8442.00,1.25
8441.00,1.25
8440.00,1.25
8439.00,1.25
8438.00,1.25
8437.00,1.24
8436.00,1.24
8435.00,1.24
8434.00,1.24
8433.00,1.24
8432.00,1.24
8431.00,1.24
8430.00,1.23
8429.00,1.23
8428.00,1.23
8427.00,1.23
8426.00,1.23
8425.00,1.23
8424.00,1.22
8423.00,1.22
8422.00,1.22
8421.00,1.22
8420.00,1.21
8419.00,1.21
8418.00,1.21
8417.00,1.21
8416.00,1.21
8415.00,1.21
8414.00,1.21
8413.00,1.21
8412.00,1.21
8411.00,1.21
8410.00,1.21
8409.00,1.21
8408.00,1.21
8407.00,1.22
8406.00,1.22
8405.00,1.22
8404.00,1.22
8403.00,1.23
8402.00,1.23
8401.00,1.23
8400.00,1.24
8399.00,1.24
8398.00,1.24
8397.00,1.25
8396.00,1.25
8395.00,1.25
8394.00,1.26
8393.00,1.26
8392.00,1.26
8391.00,1.26
8390.00,1.27
8389.00,1.27
8388.00,1.27
8387.00,1.28
8386.00,1.28
8385.00,1.28
8384.00,1.29
8383.00,1.29
8382.00,1.29
8381.00,1.29
8380.00,1.30
8379.00,1.30
8378.00,1.30
8377.00,1.30
8376.00,1.30
8375.00,1.30
8374.00,1.30
8373.00,1.30
8372.00,1.30
8371.00,1.30
8370.00,1.30
8369.00,1.31
8368.00,1.31
8367.00,1.31
8366.00,1.31
8365.00,1.31
8364.00,1.31
8363.00,1.31
8362.00,1.31
8361.00,1.31
8360.00,1.31
8359.00,1.31
8358.00,1.32
8357.00,1.32
8356.00,1.32
8355.00,1.32
8354.00,1.32
8353.00,1.32
8352.00,1.32
8351.00,1.32
8350.00,1.32
8349.00,1.32
8348.00,1.33
8347.00,1.33
8346.00,1.33
8345.00,1.33
8344.00,1.33
8343.00,1.33
8342.00,1.33
8341.00,1.33
8340.00,1.33
8339.00,1.33
8338.00,1.33
8337.00,1.33
8336.00,1.33
8335.00,1.32
8334.00,1.32
8333.00,1.32
8332.00,1.32
8331.00,1.32
8330.00,1.32
8329.00,1.32
8328.00,1.32
8327.00,1.32
8326.00,1.32
8325.00,1.33
8324.00,1.33
8323.00,1.33
8322.00,1.33
8321.00,1.33
8320.00,1.33
8319.00,1.33
8318.00,1.34
8317.00,1.34
8316.00,1.34
8315.00,1.35
8314.00,1.35
8313.00,1.35
8312.00,1.36
8311.00,1.36
8310.00,1.37
8309.00,1.37
8308.00,1.38
8307.00,1.38
8306.00,1.38
8305.00,1.39
8304.00,1.39
8303.00,1.40
8302.00,1.40
8301.00,1.40
8300.00,1.41
8299.00,1.41
8298.00,1.41
8297.00,1.41
8296.00,1.41
8295.00,1.41
8294.00,1.41
8293.00,1.41
8292.00,1.41
8291.00,1.41
8290.00,1.40
8289.00,1.40
8288.00,1.40
8287.00,1.40
8286.00,1.40
8285.00,1.40
8284.00,1.40
8283.00,1.40
8282.00,1.39
8281.00,1.39
8280.00,1.39
8279.00,1.39
8278.00,1.38
8277.00,1.38
8276.00,1.38
8275.00,1.38
8274.00,1.38
8273.00,1.38
8272.00,1.38
8271.00,1.38
8270.00,1.38
8269.00,1.38
8268.00,1.38
8267.00,1.38
8266.00,1.38
8265.00,1.39
8264.00,1.39
8263.00,1.39
8262.00,1.39
8261.00,1.39
8260.00,1.39
8259.00,1.39
8258.00,1.39
8257.00,1.39
8256.00,1.39
8255.00,1.39
8254.00,1.39
8253.00,1.38
8252.00,1.38
8251.00,1.38
8250.00,1.38
8249.00,1.38
8248.00,1.38
8247.00,1.38
8246.00,1.38
8245.00,1.38
8244.00,1.38
8243.00,1.37
8242.00,1.37
8241.00,1.37
8240.00,1.37
8239.00,1.37
8238.00,1.37
8237.00,1.37
8236.00,1.37
8235.00,1.37
8234.00,1.37
8233.00,1.37
8232.00,1.38
8231.00,1.38
8230.00,1.38
8229.00,1.38
8228.00,1.39
8227.00,1.39
8226.00,1.39
8225.00,1.40
8224.00,1.40
8223.00,1.40
8222.00,1.41
8221.00,1.41
8220.00,1.41
8219.00,1.41
8218.00,1.42
8217.00,1.42
8216.00,1.42
8215.00,1.42
8214.00,1.42
8213.00,1.42
8212.00,1.42
8211.00,1.42
8210.00,1.42
8209.00,1.42
8208.00,1.42
8207.00,1.41
8206.00,1.41
8205.00,1.41
8204.00,1.40
8203.00,1.40
8202.00,1.39
8201.00,1.39
8200.00,1.38
8199.00,1.38
8198.00,1.37
8197.00,1.37
8196.00,1.37
8195.00,1.36
8194.00,1.36
8193.00,1.36
8192.00,1.36
8191.00,1.35
8190.00,1.35
8189.00,1.35
8188.00,1.35
8187.00,1.35
8186.00,1.35
8185.00,1.35
8184.00,1.35
8183.00,1.35
8182.00,1.35
8181.00,1.36
8180.00,1.36
8179.00,1.36
8178.00,1.37
8177.00,1.37
8176.00,1.38
8175.00,1.38
8174.00,1.39
8173.00,1.39
8172.00,1.40
8171.00,1.40
8170.00,1.40
8169.00,1.41
8168.00,1.41
8167.00,1.41
8166.00,1.41
8165.00,1.41
8164.00,1.41
8163.00,1.41
8162.00,1.41
8161.00,1.41
8160.00,1.41
8159.00,1.41
8158.00,1.41
8157.00,1.41
8156.00,1.41
8155.00,1.40
8154.00,1.40
8153.00,1.40
8152.00,1.39
8151.00,1.39
8150.00,1.39
8149.00,1.38
8148.00,1.38
8147.00,1.38
8146.00,1.37
8145.00,1.37
8144.00,1.37
8143.00,1.37
8142.00,1.36
8141.00,1.36
8140.00,1.36
8139.00,1.36
8138.00,1.36
8137.00,1.36
8136.00,1.36
8135.00,1.36
8134.00,1.36
8133.00,1.37
8132.00,1.37
8131.00,1.37
8130.00,1.37
8129.00,1.37
8128.00,1.37
8127.00,1.38
8126.00,1.38
8125.00,1.38
8124.00,1.38
8123.00,1.38
8122.00,1.38
8121.00,1.38
8120.00,1.38
8119.00,1.38
8118.00,1.38
8117.00,1.38
8116.00,1.38
8115.00,1.38
8114.00,1.38
8113.00,1.38
8112.00,1.38
8111.00,1.37
8110.00,1.37
8109.00,1.37
8108.00,1.37
8107.00,1.37
8106.00,1.36
8105.00,1.36
8104.00,1.36
8103.00,1.36
8102.00,1.36
8101.00,1.36
8100.00,1.36
8099.00,1.36
8098.00,1.35
8097.00,1.35
8096.00,1.35
8095.00,1.35
8094.00,1.35
8093.00,1.35
8092.00,1.35
8091.00,1.35
8090.00,1.35
8089.00,1.36
8088.00,1.36
8087.00,1.36
8086.00,1.36
8085.00,1.36
8084.00,1.36
8083.00,1.36
8082.00,1.36
8081.00,1.36
8080.00,1.36
8079.00,1.36
8078.00,1.37
8077.00,1.37
8076.00,1.37
8075.00,1.37
8074.00,1.37
8073.00,1.37
8072.00,1.37
8071.00,1.37
8070.00,1.37
8069.00,1.37
8068.00,1.37
8067.00,1.37
8066.00,1.37
8065.00,1.37
8064.00,1.37
8063.00,1.37
8062.00,1.37
8061.00,1.37
8060.00,1.37
8059.00,1.37
8058.00,1.37
8057.00,1.37
8056.00,1.38
8055.00,1.38
8054.00,1.38
8053.00,1.38
8052.00,1.38
8051.00,1.38
8050.00,1.38
8049.00,1.38
8048.00,1.38
8047.00,1.38
8046.00,1.38
8045.00,1.38
8044.00,1.38
8043.00,1.38
8042.00,1.39
8041.00,1.39
8040.00,1.39
8039.00,1.39
8038.00,1.39
8037.00,1.39
8036.00,1.39
8035.00,1.39
8034.00,1.39
8033.00,1.39
8032.00,1.39
8031.00,1.39
8030.00,1.39
8029.00,1.39
8028.00,1.39
8027.00,1.39
8026.00,1.39
8025.00,1.39
8024.00,1.39
8023.00,1.39
8022.00,1.39
8021.00,1.39
8020.00,1.39
8019.00,1.39
8018.00,1.39
8017.00,1.39
8016.00,1.39
8015.00,1.39
8014.00,1.40
8013.00,1.40
8012.00,1.40
8011.00,1.40
8010.00,1.40
8009.00,1.40
8008.00,1.41
8007.00,1.41
8006.00,1.42
8005.00,1.42
8004.00,1.43
8003.00,1.43
8002.00,1.44
8001.00,1.44
8000.00,1.44
7999.00,1.45
7998.00,1.45
7997.00,1.46
7996.00,1.46
7995.00,1.46
7994.00,1.47
7993.00,1.47
7992.00,1.47
7991.00,1.47
7990.00,1.48
7989.00,1.48
7988.00,1.48
7987.00,1.48
7986.00,1.48
7985.00,1.48
7984.00,1.48
7983.00,1.48
7982.00,1.48
7981.00,1.48
7980.00,1.48
7979.00,1.48
7978.00,1.48
7977.00,1.48
7976.00,1.48
7975.00,1.47
7974.00,1.47
7973.00,1.47
7972.00,1.47
7971.00,1.47
7970.00,1.47
7969.00,1.47
7968.00,1.47
7967.00,1.47
7966.00,1.48
7965.00,1.48
7964.00,1.48
7963.00,1.48
7962.00,1.48
7961.00,1.49
7960.00,1.49
7959.00,1.49
7958.00,1.50
7957.00,1.50
7956.00,1.50
7955.00,1.50
7954.00,1.51
7953.00,1.51
7952.00,1.51
7951.00,1.52
7950.00,1.52
7949.00,1.52
7948.00,1.53
7947.00,1.53
7946.00,1.53
7945.00,1.53
7944.00,1.53
7943.00,1.54
7942.00,1.53
7941.00,1.53
7940.00,1.53
7939.00,1.53
7938.00,1.53
7937.00,1.53
7936.00,1.52
7935.00,1.52
7934.00,1.52
7933.00,1.52
7932.00,1.51
7931.00,1.51
7930.00,1.51
7929.00,1.50
7928.00,1.50
7927.00,1.50
7926.00,1.49
7925.00,1.49
7924.00,1.49
7923.00,1.48
7922.00,1.48
7921.00,1.47
7920.00,1.47
7919.00,1.46
7918.00,1.46
7917.00,1.46
7916.00,1.45
7915.00,1.45
7914.00,1.45
7913.00,1.45
7912.00,1.44
7911.00,1.44
7910.00,1.44
7909.00,1.44
7908.00,1.44
7907.00,1.43
7906.00,1.43
7905.00,1.43
7904.00,1.43
7903.00,1.43
7902.00,1.43
7901.00,1.43
7900.00,1.43
7899.00,1.43
7898.00,1.43
7897.00,1.43
7896.00,1.43
7895.00,1.43
7894.00,1.43
7893.00,1.43
7892.00,1.43
7891.00,1.43
7890.00,1.43
7889.00,1.43
7888.00,1.44
7887.00,1.44
7886.00,1.44
7885.00,1.44
7884.00,1.44
7883.00,1.44
7882.00,1.44
7881.00,1.44
7880.00,1.45
7879.00,1.45
7878.00,1.45
7877.00,1.45
7876.00,1.45
7875.00,1.45
7874.00,1.46
7873.00,1.46
7872.00,1.46
7871.00,1.46
7870.00,1.46
7869.00,1.46
7868.00,1.46
7867.00,1.46
7866.00,1.46
7865.00,1.46
7864.00,1.46
7863.00,1.46
7862.00,1.46
7861.00,1.46
7860.00,1.46
7859.00,1.46
7858.00,1.47
7857.00,1.47
7856.00,1.47
7855.00,1.47
7854.00,1.47
7853.00,1.47
7852.00,1.47
7851.00,1.47
7850.00,1.47
7849.00,1.47
7848.00,1.47
7847.00,1.47
7846.00,1.48
7845.00,1.48
7844.00,1.48
7843.00,1.48
7842.00,1.48
7841.00,1.48
7840.00,1.49
7839.00,1.49
7838.00,1.49
7837.00,1.49
7836.00,1.48
7835.00,1.48
7834.00,1.48
7833.00,1.48
7832.00,1.48
7831.00,1.47
7830.00,1.47
7829.00,1.47
7828.00,1.47
7827.00,1.46
7826.00,1.46
7825.00,1.46
7824.00,1.45
7823.00,1.45
7822.00,1.45
7821.00,1.44
7820.00,1.44
7819.00,1.43
7818.00,1.43
7817.00,1.43
7816.00,1.42
7815.00,1.42
7814.00,1.42
7813.00,1.42
7812.00,1.42
7811.00,1.42
7810.00,1.42
7809.00,1.42
7808.00,1.42
7807.00,1.42
7806.00,1.42
7805.00,1.42
7804.00,1.43
7803.00,1.43
7802.00,1.44
7801.00,1.44
7800.00,1.45
7799.00,1.45
7798.00,1.46
7797.00,1.47
7796.00,1.47
7795.00,1.48
7794.00,1.48
7793.00,1.49
7792.00,1.49
7791.00,1.50
7790.00,1.50
7789.00,1.51
7788.00,1.51
7787.00,1.52
7786.00,1.52
7785.00,1.53
7784.00,1.53
7783.00,1.53
7782.00,1.53
7781.00,1.53
7780.00,1.54
7779.00,1.54
7778.00,1.54
7777.00,1.54
7776.00,1.54
7775.00,1.53
7774.00,1.53
7773.00,1.53
7772.00,1.53
7771.00,1.53
7770.00,1.52
7769.00,1.52
7768.00,1.52
7767.00,1.52
7766.00,1.52
7765.00,1.51
7764.00,1.51
7763.00,1.51
7762.00,1.51
7761.00,1.51
7760.00,1.51
7759.00,1.50
7758.00,1.50
7757.00,1.50
7756.00,1.50
7755.00,1.50
7754.00,1.50
7753.00,1.50
7752.00,1.50
7751.00,1.50
7750.00,1.50
7749.00,1.50
7748.00,1.50
7747.00,1.50
7746.00,1.50
7745.00,1.50
7744.00,1.50
7743.00,1.50
7742.00,1.50
7741.00,1.50
7740.00,1.50
7739.00,1.50
7738.00,1.51
7737.00,1.51
7736.00,1.51
7735.00,1.51
7734.00,1.51
7733.00,1.51
7732.00,1.51
7731.00,1.52
7730.00,1.52
7729.00,1.52
7728.00,1.52
7727.00,1.52
7726.00,1.52
7725.00,1.52
7724.00,1.52
7723.00,1.52
7722.00,1.52
7721.00,1.52
7720.00,1.52
7719.00,1.52
7718.00,1.52
7717.00,1.52
7716.00,1.52
7715.00,1.53
7714.00,1.53
7713.00,1.53
7712.00,1.53
7711.00,1.53
7710.00,1.53
7709.00,1.53
7708.00,1.53
7707.00,1.53
7706.00,1.53
7705.00,1.53
7704.00,1.52
7703.00,1.52
7702.00,1.52
7701.00,1.52
7700.00,1.52
7699.00,1.52
7698.00,1.52
7697.00,1.52
7696.00,1.52
7695.00,1.52
7694.00,1.52
7693.00,1.52
7692.00,1.52
7691.00,1.52
7690.00,1.51
7689.00,1.51
7688.00,1.51
7687.00,1.51
7686.00,1.51
7685.00,1.51
7684.00,1.50
7683.00,1.50
7682.00,1.50
7681.00,1.50
7680.00,1.50
7679.00,1.50
7678.00,1.50
7677.00,1.50
7676.00,1.49
7675.00,1.49
7674.00,1.49
7673.00,1.49
7672.00,1.49
7671.00,1.49
7670.00,1.49
7669.00,1.49
7668.00,1.49
7667.00,1.49
7666.00,1.49
7665.00,1.49
7664.00,1.49
7663.00,1.49
7662.00,1.49
7661.00,1.49
7660.00,1.49
7659.00,1.49
7658.00,1.49
7657.00,1.49
7656.00,1.49
7655.00,1.50
7654.00,1.50
7653.00,1.50
7652.00,1.50
7651.00,1.50
7650.00,1.50
7649.00,1.50
7648.00,1.51
7647.00,1.51
7646.00,1.51
7645.00,1.51
7644.00,1.51
7643.00,1.51
7642.00,1.52
7641.00,1.52
7640.00,1.52
7639.00,1.52
7638.00,1.53
7637.00,1.53
7636.00,1.53
7635.00,1.53
7634.00,1.54
7633.00,1.54
7632.00,1.54
7631.00,1.54
7630.00,1.55
7629.00,1.55
7628.00,1.55
7627.00,1.55
7626.00,1.55
7625.00,1.55
7624.00,1.56
7623.00,1.56
7622.00,1.56
7621.00,1.56
7620.00,1.56
7619.00,1.56
7618.00,1.56
7617.00,1.57
7616.00,1.57
7615.00,1.56
7614.00,1.56
7613.00,1.56
7612.00,1.56
7611.00,1.56
7610.00,1.56
7609.00,1.56
7608.00,1.55
7607.00,1.55
7606.00,1.55
7605.00,1.55
7604.00,1.55
7603.00,1.54
7602.00,1.54
7601.00,1.54
7600.00,1.54
7599.00,1.53
7598.00,1.53
7597.00,1.53
7596.00,1.52
7595.00,1.52
7594.00,1.52
7593.00,1.51
7592.00,1.51
7591.00,1.51
7590.00,1.50
7589.00,1.50
7588.00,1.50
7587.00,1.49
7586.00,1.49
7585.00,1.49
7584.00,1.49
7583.00,1.48
7582.00,1.48
7581.00,1.48
7580.00,1.48
7579.00,1.47
7578.00,1.47
7577.00,1.47
7576.00,1.46
7575.00,1.46
7574.00,1.46
7573.00,1.46
7572.00,1.45
7571.00,1.45
7570.00,1.45
7569.00,1.45
7568.00,1.45
7567.00,1.45
7566.00,1.45
7565.00,1.46
7564.00,1.46
7563.00,1.46
7562.00,1.46
7561.00,1.46
7560.00,1.46
7559.00,1.47
7558.00,1.47
7557.00,1.47
7556.00,1.47
7555.00,1.48
7554.00,1.48
7553.00,1.49
7552.00,1.49
7551.00,1.50
7550.00,1.50
7549.00,1.51
7548.00,1.51
7547.00,1.52
7546.00,1.52
7545.00,1.52
7544.00,1.53
7543.00,1.53
7542.00,1.53
7541.00,1.54
7540.00,1.54
7539.00,1.54
7538.00,1.54
7537.00,1.54
7536.00,1.54
7535.00,1.55
7534.00,1.55
7533.00,1.54
7532.00,1.54
7531.00,1.54
7530.00,1.54
7529.00,1.54
7528.00,1.54
7527.00,1.53
7526.00,1.53
7525.00,1.53
7524.00,1.53
7523.00,1.53
7522.00,1.52
7521.00,1.52
7520.00,1.52
7519.00,1.52
7518.00,1.51
7517.00,1.51
7516.00,1.51
7515.00,1.51
7514.00,1.51
7513.00,1.51
7512.00,1.50
7511.00,1.50
7510.00,1.50
7509.00,1.50
7508.00,1.50
7507.00,1.50
7506.00,1.51
7505.00,1.51
7504.00,1.51
7503.00,1.51
7502.00,1.51
7501.00,1.52
7500.00,1.52
7499.00,1.52
7498.00,1.52
7497.00,1.52
7496.00,1.53
7495.00,1.53
7494.00,1.53
7493.00,1.53
7492.00,1.53
7491.00,1.53
7490.00,1.54
7489.00,1.54
7488.00,1.54
7487.00,1.54
7486.00,1.54
7485.00,1.53
7484.00,1.53
7483.00,1.53
7482.00,1.53
7481.00,1.53
7480.00,1.53
7479.00,1.52
7478.00,1.52
7477.00,1.52
7476.00,1.51
7475.00,1.51
7474.00,1.51
7473.00,1.50
7472.00,1.50
7471.00,1.49
7470.00,1.49
7469.00,1.48
7468.00,1.48
7467.00,1.48
7466.00,1.47
7465.00,1.47
7464.00,1.46
7463.00,1.46
7462.00,1.45
7461.00,1.45
7460.00,1.44
7459.00,1.44
7458.00,1.44
7457.00,1.44
7456.00,1.43
7455.00,1.43
7454.00,1.43
7453.00,1.43
7452.00,1.43
7451.00,1.42
7450.00,1.42
7449.00,1.42
7448.00,1.42
7447.00,1.41
7446.00,1.41
7445.00,1.41
7444.00,1.41
7443.00,1.41
7442.00,1.41
7441.00,1.41
7440.00,1.41
7439.00,1.41
7438.00,1.41
7437.00,1.41
7436.00,1.41
7435.00,1.41
7434.00,1.41
7433.00,1.41
7432.00,1.41
7431.00,1.41
7430.00,1.41
7429.00,1.41
7428.00,1.41
7427.00,1.41
7426.00,1.41
7425.00,1.41
7424.00,1.41
7423.00,1.42
7422.00,1.42
7421.00,1.42
7420.00,1.42
7419.00,1.42
7418.00,1.42
7417.00,1.42
7416.00,1.42
7415.00,1.42
7414.00,1.42
7413.00,1.42
7412.00,1.42
7411.00,1.42
7410.00,1.42
7409.00,1.42
7408.00,1.43
7407.00,1.43
7406.00,1.43
7405.00,1.43
7404.00,1.43
7403.00,1.43
7402.00,1.43
7401.00,1.43
7400.00,1.43
7399.00,1.43
7398.00,1.43
7397.00,1.43
7396.00,1.43
7395.00,1.43
7394.00,1.43
7393.00,1.43
7392.00,1.43
7391.00,1.44
7390.00,1.44
7389.00,1.44
7388.00,1.44
7387.00,1.45
7386.00,1.45
7385.00,1.45
7384.00,1.46
7383.00,1.46
7382.00,1.46
7381.00,1.47
7380.00,1.47
7379.00,1.47
7378.00,1.47
7377.00,1.47
7376.00,1.48
7375.00,1.48
7374.00,1.48
7373.00,1.48
7372.00,1.48
7371.00,1.48
7370.00,1.49
7369.00,1.48
7368.00,1.48
7367.00,1.48
7366.00,1.48
7365.00,1.48
7364.00,1.48
7363.00,1.48
7362.00,1.47
7361.00,1.47
7360.00,1.47
7359.00,1.46
7358.00,1.46
7357.00,1.46
7356.00,1.46
7355.00,1.45
7354.00,1.45
7353.00,1.45
7352.00,1.45
7351.00,1.44
7350.00,1.44
7349.00,1.44
7348.00,1.43
7347.00,1.43
7346.00,1.43
7345.00,1.43
7344.00,1.43
7343.00,1.43
7342.00,1.43
7341.00,1.43
7340.00,1.43
7339.00,1.43
7338.00,1.43
7337.00,1.43
7336.00,1.43
7335.00,1.43
7334.00,1.42
7333.00,1.42
7332.00,1.42
7331.00,1.42
7330.00,1.42
7329.00,1.42
7328.00,1.41
7327.00,1.41
7326.00,1.41
7325.00,1.40
7324.00,1.40
7323.00,1.40
7322.00,1.40
7321.00,1.39
7320.00,1.39
7319.00,1.39
7318.00,1.38
7317.00,1.38
7316.00,1.38
7315.00,1.37
7314.00,1.37
7313.00,1.36
7312.00,1.36
7311.00,1.35
7310.00,1.35
7309.00,1.35
7308.00,1.34
7307.00,1.34
7306.00,1.34
7305.00,1.34
7304.00,1.33
7303.00,1.33
7302.00,1.33
7301.00,1.33
7300.00,1.33
7299.00,1.33
7298.00,1.33
7297.00,1.33
7296.00,1.33
7295.00,1.32
7294.00,1.32
7293.00,1.32
7292.00,1.32
7291.00,1.32
7290.00,1.32
7289.00,1.32
7288.00,1.32
7287.00,1.32
7286.00,1.32
7285.00,1.32
7284.00,1.32
7283.00,1.32
7282.00,1.32
7281.00,1.32
7280.00,1.31
7279.00,1.31
7278.00,1.31
7277.00,1.31
7276.00,1.30
7275.00,1.30
7274.00,1.30
7273.00,1.30
7272.00,1.30
7271.00,1.29
7270.00,1.29
7269.00,1.29
7268.00,1.29
7267.00,1.29
7266.00,1.28
7265.00,1.28
7264.00,1.28
7263.00,1.28
7262.00,1.27
7261.00,1.27
7260.00,1.27
7259.00,1.27
7258.00,1.26
7257.00,1.26
7256.00,1.26
7255.00,1.25
7254.00,1.25
7253.00,1.25
7252.00,1.25
7251.00,1.25
7250.00,1.25
7249.00,1.25
7248.00,1.25
7247.00,1.24
7246.00,1.24
7245.00,1.24
7244.00,1.24
7243.00,1.24
7242.00,1.24
7241.00,1.24
7240.00,1.24
7239.00,1.24
7238.00,1.23
7237.00,1.23
7236.00,1.23
7235.00,1.23
7234.00,1.23
7233.00,1.23
7232.00,1.23
7231.00,1.23
7230.00,1.23
7229.00,1.23
7228.00,1.23
7227.00,1.23
7226.00,1.22
7225.00,1.22
7224.00,1.22
7223.00,1.22
7222.00,1.21
7221.00,1.21
7220.00,1.21
7219.00,1.20
7218.00,1.20
7217.00,1.20
7216.00,1.19
7215.00,1.19
7214.00,1.18
7213.00,1.18
7212.00,1.17
7211.00,1.17
7210.00,1.16
7209.00,1.15
7208.00,1.15
7207.00,1.14
7206.00,1.13
7205.00,1.13
7204.00,1.12
7203.00,1.11
7202.00,1.10
7201.00,1.10
7200.00,1.09
7199.00,1.08
7198.00,1.08
7197.00,1.07
7196.00,1.07
7195.00,1.06
7194.00,1.05
7193.00,1.05
7192.00,1.04
7191.00,1.03
7190.00,1.03
7189.00,1.02
7188.00,1.02
7187.00,1.01
7186.00,1.01
7185.00,1.00
7184.00,1.00
7183.00,1.00
7182.00,0.99
7181.00,0.99
7180.00,0.99
7179.00,0.99
7178.00,0.98
7177.00,0.98
7176.00,0.98
7175.00,0.98
7174.00,0.98
7173.00,0.98
7172.00,0.97
7171.00,0.97
7170.00,0.97
7169.00,0.97
7168.00,0.97
7167.00,0.96
7166.00,0.96
7165.00,0.96
7164.00,0.95
7163.00,0.95
7162.00,0.95
7161.00,0.94
7160.00,0.94
7159.00,0.94
7158.00,0.93
7157.00,0.93
7156.00,0.92
7155.00,0.92
7154.00,0.91
7153.00,0.91
7152.00,0.90
7151.00,0.90
7150.00,0.89
7149.00,0.88
7148.00,0.88
7147.00,0.87
7146.00,0.86
7145.00,0.86
7144.00,0.85
7143.00,0.84
7142.00,0.84
7141.00,0.83
7140.00,0.83
7139.00,0.82
7138.00,0.82
7137.00,0.81
7136.00,0.81
7135.00,0.81
7134.00,0.81
7133.00,0.80
7132.00,0.80
7131.00,0.80
7130.00,0.80
7129.00,0.80
7128.00,0.80
7127.00,0.79
7126.00,0.79
7125.00,0.79
7124.00,0.79
7123.00,0.79
7122.00,0.79
7121.00,0.79
7120.00,0.79
7119.00,0.79
7118.00,0.79
7117.00,0.79
7116.00,0.79
7115.00,0.79
7114.00,0.79
7113.00,0.79
7112.00,0.79
7111.00,0.79
7110.00,0.78
7109.00,0.78
7108.00,0.78
7107.00,0.77
7106.00,0.77
7105.00,0.76
7104.00,0.76
7103.00,0.76
7102.00,0.75
7101.00,0.75
7100.00,0.75
7099.00,0.74
7098.00,0.74
7097.00,0.73
7096.00,0.73
7095.00,0.73
7094.00,0.72
7093.00,0.72
7092.00,0.71
7091.00,0.71
7090.00,0.71
7089.00,0.70
7088.00,0.70
7087.00,0.69
7086.00,0.69
7085.00,0.69
7084.00,0.69
7083.00,0.68
7082.00,0.68
7081.00,0.68
7080.00,0.68
7079.00,0.68
7078.00,0.68
7077.00,0.67
7076.00,0.67
7075.00,0.67
7074.00,0.67
7073.00,0.67
7072.00,0.67
7071.00,0.66
7070.00,0.66
7069.00,0.66
7068.00,0.66
7067.00,0.66
7066.00,0.66
7065.00,0.66
7064.00,0.66
7063.00,0.66
7062.00,0.66
7061.00,0.66
7060.00,0.66
7059.00,0.66
7058.00,0.66
7057.00,0.66
7056.00,0.66
7055.00,0.67
7054.00,0.67
7053.00,0.67
7052.00,0.67
7051.00,0.67
7050.00,0.67
7049.00,0.67
7048.00,0.67
7047.00,0.67
7046.00,0.67
7045.00,0.67
7044.00,0.67
7043.00,0.67
7042.00,0.67
7041.00,0.67
7040.00,0.67
7039.00,0.67
7038.00,0.66
7037.00,0.66
7036.00,0.66
7035.00,0.66
7034.00,0.66
7033.00,0.65
7032.00,0.65
7031.00,0.65
7030.00,0.65
7029.00,0.65
7028.00,0.64
7027.00,0.64
7026.00,0.64
7025.00,0.64
7024.00,0.64
7023.00,0.64
7022.00,0.63
7021.00,0.63
7020.00,0.63
7019.00,0.63
7018.00,0.63
7017.00,0.63
7016.00,0.63
7015.00,0.63
7014.00,0.63
7013.00,0.63
7012.00,0.63
7011.00,0.63
7010.00,0.63
7009.00,0.63
7008.00,0.63
7007.00,0.63
7006.00,0.63
7005.00,0.63
7004.00,0.63
7003.00,0.63
7002.00,0.63
7001.00,0.63
7000.00,0.62
6999.00,0.62
6998.00,0.62
6997.00,0.62
6996.00,0.62
6995.00,0.62
6994.00,0.62
6993.00,0.62
6992.00,0.62
6991.00,0.62
6990.00,0.62
6989.00,0.61
6988.00,0.61
6987.00,0.61
6986.00,0.61
6985.00,0.60
6984.00,0.60
6983.00,0.60
6982.00,0.59
6981.00,0.59
6980.00,0.59
6979.00,0.58
6978.00,0.58
6977.00,0.58
6976.00,0.57
6975.00,0.57
6974.00,0.56
6973.00,0.56
6972.00,0.56
6971.00,0.55
6970.00,0.55
6969.00,0.55
6968.00,0.54
6967.00,0.54
6966.00,0.54
6965.00,0.54
6964.00,0.53
6963.00,0.53
6962.00,0.53
6961.00,0.53
6960.00,0.53
6959.00,0.53
6958.00,0.54
6957.00,0.54
6956.00,0.54
6955.00,0.54
6954.00,0.54
6953.00,0.54
6952.00,0.54
6951.00,0.55
6950.00,0.55
6949.00,0.55
6948.00,0.55
6947.00,0.56
6946.00,0.56
6945.00,0.56
6944.00,0.56
6943.00,0.56
6942.00,0.56
6941.00,0.56
6940.00,0.57
6939.00,0.57
6938.00,0.57
6937.00,0.57
6936.00,0.57
6935.00,0.57
6934.00,0.57
6933.00,0.57
6932.00,0.57
6931.00,0.57
6930.00,0.57
6929.00,0.57
6928.00,0.57
6927.00,0.57
6926.00,0.57
6925.00,0.57
6924.00,0.57
6923.00,0.57
6922.00,0.56
6921.00,0.56
6920.00,0.56
6919.00,0.56
6918.00,0.56
6917.00,0.56
6916.00,0.56
6915.00,0.56
6914.00,0.56
6913.00,0.56
6912.00,0.56
6911.00,0.56
6910.00,0.56
6909.00,0.56
6908.00,0.56
6907.00,0.56
6906.00,0.56
6905.00,0.56
6904.00,0.56
6903.00,0.56
6902.00,0.56
6901.00,0.56
6900.00,0.56
6899.00,0.56
6898.00,0.56
6897.00,0.56
6896.00,0.56
6895.00,0.56
6894.00,0.56
6893.00,0.57
6892.00,0.57
6891.00,0.57
6890.00,0.57
6889.00,0.57
6888.00,0.57
6887.00,0.57
6886.00,0.57
6885.00,0.57
6884.00,0.57
6883.00,0.57
6882.00,0.57
6881.00,0.58
6880.00,0.58
6879.00,0.58
6878.00,0.58
6877.00,0.58
6876.00,0.58
6875.00,0.58
6874.00,0.58
6873.00,0.58
6872.00,0.58
6871.00,0.59
6870.00,0.59
6869.00,0.58
6868.00,0.58
6867.00,0.58
6866.00,0.58
6865.00,0.58
6864.00,0.58
6863.00,0.58
6862.00,0.58
6861.00,0.58
6860.00,0.58
6859.00,0.58
6858.00,0.58
6857.00,0.58
6856.00,0.58
6855.00,0.58
6854.00,0.58
6853.00,0.57
6852.00,0.57
6851.00,0.57
6850.00,0.57
6849.00,0.57
6848.00,0.57
6847.00,0.57
6846.00,0.57
6845.00,0.57
6844.00,0.57
6843.00,0.57
6842.00,0.57
6841.00,0.58
6840.00,0.58
6839.00,0.58
6838.00,0.58
6837.00,0.58
6836.00,0.58
6835.00,0.58
6834.00,0.58
6833.00,0.58
6832.00,0.59
6831.00,0.59
6830.00,0.59
6829.00,0.59
6828.00,0.59
6827.00,0.59
6826.00,0.59
6825.00,0.59
6824.00,0.59
6823.00,0.59
6822.00,0.59
6821.00,0.59
6820.00,0.59
6819.00,0.59
6818.00,0.59
6817.00,0.59
6816.00,0.59
6815.00,0.59
6814.00,0.59
6813.00,0.59
6812.00,0.59
6811.00,0.59
6810.00,0.59
6809.00,0.59
6808.00,0.59
6807.00,0.59
6806.00,0.59
6805.00,0.59
6804.00,0.59
6803.00,0.59
6802.00,0.59
6801.00,0.59
6800.00,0.59
6799.00,0.59
6798.00,0.59
6797.00,0.60
6796.00,0.60
6795.00,0.60
6794.00,0.60
6793.00,0.61
6792.00,0.61
6791.00,0.61
6790.00,0.61
6789.00,0.61
6788.00,0.62
6787.00,0.62
6786.00,0.62
6785.00,0.62
6784.00,0.62
6783.00,0.62
6782.00,0.62
6781.00,0.62
6780.00,0.63
6779.00,0.63
6778.00,0.63
6777.00,0.63
6776.00,0.63
6775.00,0.63
6774.00,0.63
6773.00,0.63
6772.00,0.62
6771.00,0.62
6770.00,0.62
6769.00,0.62
6768.00,0.61
6767.00,0.61
6766.00,0.61
6765.00,0.61
6764.00,0.60
6763.00,0.60
6762.00,0.60
6761.00,0.60
6760.00,0.59
6759.00,0.59
6758.00,0.59
6757.00,0.59
6756.00,0.58
6755.00,0.58
6754.00,0.58
6753.00,0.57
6752.00,0.57
6751.00,0.57
6750.00,0.57
6749.00,0.56
6748.00,0.56
6747.00,0.56
6746.00,0.56
6745.00,0.56
6744.00,0.56
6743.00,0.56
6742.00,0.55
6741.00,0.55
6740.00,0.55
6739.00,0.55
6738.00,0.55
6737.00,0.55
6736.00,0.56
6735.00,0.56
6734.00,0.56
6733.00,0.56
6732.00,0.56
6731.00,0.57
6730.00,0.57
6729.00,0.57
6728.00,0.58
6727.00,0.58
6726.00,0.59
6725.00,0.59
6724.00,0.60
6723.00,0.60
6722.00,0.61
6721.00,0.61
6720.00,0.62
6719.00,0.62
6718.00,0.63
6717.00,0.63
6716.00,0.64
6715.00,0.64
6714.00,0.65
6713.00,0.65
6712.00,0.66
6711.00,0.66
6710.00,0.67
6709.00,0.67
6708.00,0.68
6707.00,0.68
6706.00,0.68
6705.00,0.68
6704.00,0.69
6703.00,0.69
6702.00,0.69
6701.00,0.70
6700.00,0.70
6699.00,0.70
6698.00,0.70
6697.00,0.70
6696.00,0.70
6695.00,0.70
6694.00,0.70
6693.00,0.70
6692.00,0.70
6691.00,0.70
6690.00,0.70
6689.00,0.70
6688.00,0.70
6687.00,0.70
6686.00,0.70
6685.00,0.70
6684.00,0.70
6683.00,0.70
6682.00,0.70
6681.00,0.70
6680.00,0.70
6679.00,0.70
6678.00,0.70
6677.00,0.70
6676.00,0.70
6675.00,0.70
6674.00,0.70
6673.00,0.70
6672.00,0.70
6671.00,0.70
6670.00,0.70
6669.00,0.70
6668.00,0.70
6667.00,0.70
6666.00,0.70
6665.00,0.71
6664.00,0.71
6663.00,0.71
6662.00,0.71
6661.00,0.71
6660.00,0.71
6659.00,0.71
6658.00,0.72
6657.00,0.72
6656.00,0.72
6655.00,0.72
6654.00,0.72
6653.00,0.72
6652.00,0.72
6651.00,0.72
6650.00,0.72
6649.00,0.71
6648.00,0.71
6647.00,0.71
6646.00,0.71
6645.00,0.71
6644.00,0.71
6643.00,0.71
6642.00,0.71
6641.00,0.71
6640.00,0.71
6639.00,0.71
6638.00,0.71
6637.00,0.71
6636.00,0.70
6635.00,0.70
6634.00,0.70
6633.00,0.70
6632.00,0.70
6631.00,0.70
6630.00,0.70
6629.00,0.70
6628.00,0.70
6627.00,0.70
6626.00,0.70
6625.00,0.71
6624.00,0.71
6623.00,0.71
6622.00,0.71
6621.00,0.71
6620.00,0.71
6619.00,0.71
6618.00,0.71
6617.00,0.71
6616.00,0.71
6615.00,0.71
6614.00,0.71
6613.00,0.71
6612.00,0.72
6611.00,0.72
6610.00,0.72
6609.00,0.72
6608.00,0.72
6607.00,0.73
6606.00,0.73
6605.00,0.73
6604.00,0.73
6603.00,0.73
6602.00,0.73
6601.00,0.73
6600.00,0.73
6599.00,0.73
6598.00,0.74
6597.00,0.74
6596.00,0.74
6595.00,0.74
6594.00,0.75
6593.00,0.75
6592.00,0.75
6591.00,0.76
6590.00,0.76
6589.00,0.76
6588.00,0.77
6587.00,0.77
6586.00,0.77
6585.00,0.77
6584.00,0.77
6583.00,0.77
6582.00,0.78
6581.00,0.78
6580.00,0.78
6579.00,0.78
6578.00,0.78
6577.00,0.78
6576.00,0.79
6575.00,0.79
6574.00,0.79
6573.00,0.79
6572.00,0.79
6571.00,0.79
6570.00,0.79
6569.00,0.79
6568.00,0.79
6567.00,0.79
6566.00,0.79
6565.00,0.79
6564.00,0.79
6563.00,0.79
6562.00,0.79
6561.00,0.79
6560.00,0.78
6559.00,0.78
6558.00,0.78
6557.00,0.78
6556.00,0.78
6555.00,0.78
6554.00,0.78
6553.00,0.78
6552.00,0.78
6551.00,0.78
6550.00,0.78
6549.00,0.78
6548.00,0.78
6547.00,0.78
6546.00,0.78
6545.00,0.78
6544.00,0.78
6543.00,0.79
6542.00,0.79
6541.00,0.79
6540.00,0.79
6539.00,0.79
6538.00,0.79
6537.00,0.80
6536.00,0.80
6535.00,0.80
6534.00,0.81
6533.00,0.81
6532.00,0.81
6531.00,0.81
6530.00,0.82
6529.00,0.82
6528.00,0.82
6527.00,0.82
6526.00,0.82
6525.00,0.83
6524.00,0.83
6523.00,0.83
6522.00,0.84
6521.00,0.84
6520.00,0.84
6519.00,0.84
6518.00,0.85
6517.00,0.85
6516.00,0.85
6515.00,0.85
6514.00,0.85
6513.00,0.85
6512.00,0.86
6511.00,0.86
6510.00,0.86
6509.00,0.86
6508.00,0.86
6507.00,0.86
6506.00,0.86
6505.00,0.86
6504.00,0.86
6503.00,0.86
6502.00,0.86
6501.00,0.85
6500.00,0.85
6499.00,0.85
6498.00,0.85
6497.00,0.85
6496.00,0.85
6495.00,0.85
6494.00,0.85
6493.00,0.85
6492.00,0.85
6491.00,0.85
6490.00,0.85
6489.00,0.85
6488.00,0.85
6487.00,0.85
6486.00,0.86
6485.00,0.86
6484.00,0.86
6483.00,0.86
6482.00,0.86
6481.00,0.87
6480.00,0.87
6479.00,0.87
6478.00,0.87
6477.00,0.88
6476.00,0.88
6475.00,0.88
6474.00,0.89
6473.00,0.89
6472.00,0.90
6471.00,0.90
6470.00,0.90
6469.00,0.91
6468.00,0.91
6467.00,0.91
6466.00,0.91
6465.00,0.91
6464.00,0.92
6463.00,0.92
6462.00,0.92
6461.00,0.92
6460.00,0.92
6459.00,0.92
6458.00,0.93
6457.00,0.93
6456.00,0.93
6455.00,0.93
6454.00,0.93
6453.00,0.94
6452.00,0.94
6451.00,0.94
6450.00,0.94
6449.00,0.94
6448.00,0.94
6447.00,0.94
6446.00,0.94
6445.00,0.94
6444.00,0.94
6443.00,0.94
6442.00,0.94
6441.00,0.94
6440.00,0.94
6439.00,0.95
6438.00,0.95
6437.00,0.95
6436.00,0.95
6435.00,0.95
6434.00,0.95
6433.00,0.96
6432.00,0.96
6431.00,0.96
6430.00,0.96
6429.00,0.96
6428.00,0.96
6427.00,0.96
6426.00,0.96
6425.00,0.96
6424.00,0.96
6423.00,0.96
6422.00,0.96
6421.00,0.97
6420.00,0.97
6419.00,0.97
6418.00,0.97
6417.00,0.97
6416.00,0.97
6415.00,0.97
6414.00,0.97
6413.00,0.97
6412.00,0.97
6411.00,0.97
6410.00,0.97
6409.00,0.97
6408.00,0.97
6407.00,0.96
6406.00,0.97
6405.00,0.97
6404.00,0.97
6403.00,0.97
6402.00,0.97
6401.00,0.97
6400.00,0.97
6399.00,0.97
6398.00,0.97
6397.00,0.97
6396.00,0.97
6395.00,0.97
6394.00,0.97
6393.00,0.97
6392.00,0.97
6391.00,0.97
6390.00,0.97
6389.00,0.97
6388.00,0.97
6387.00,0.97
6386.00,0.97
6385.00,0.97
6384.00,0.97
6383.00,0.97
6382.00,0.97
6381.00,0.97
6380.00,0.97
6379.00,0.97
6378.00,0.97
6377.00,0.97
6376.00,0.97
6375.00,0.97
6374.00,0.97
6373.00,0.97
6372.00,0.97
6371.00,0.97
6370.00,0.97
6369.00,0.97
6368.00,0.97
6367.00,0.97
6366.00,0.98
6365.00,0.98
6364.00,0.98
6363.00,0.98
6362.00,0.98
6361.00,0.98
6360.00,0.98
6359.00,0.99
6358.00,0.99
6357.00,0.99
6356.00,0.99
6355.00,0.99
6354.00,0.99
6353.00,1.00
6352.00,1.00
6351.00,1.00
6350.00,1.00
6349.00,1.00
6348.00,1.01
6347.00,1.01
6346.00,1.01
6345.00,1.01
6344.00,1.01
6343.00,1.01
6342.00,1.02
6341.00,1.02
6340.00,1.02
6339.00,1.02
6338.00,1.01
6337.00,1.01
6336.00,1.01
6335.00,1.01
6334.00,1.01
6333.00,1.01
6332.00,1.01
6331.00,1.01
6330.00,1.01
6329.00,1.01
6328.00,1.01
6327.00,1.01
6326.00,1.00
6325.00,1.00
6324.00,1.00
6323.00,1.00
6322.00,1.00
6321.00,1.00
6320.00,1.00
6319.00,1.00
6318.00,0.99
6317.00,0.99
6316.00,0.99
6315.00,0.99
6314.00,0.99
6313.00,0.99
6312.00,0.99
6311.00,0.99
6310.00,0.99
6309.00,0.99
6308.00,1.00
6307.00,1.00
6306.00,1.00
6305.00,1.00
6304.00,1.00
6303.00,1.00
6302.00,1.00
6301.00,1.01
6300.00,1.01
6299.00,1.01
6298.00,1.01
6297.00,1.01
6296.00,1.02
6295.00,1.02
6294.00,1.02
6293.00,1.03
6292.00,1.03
6291.00,1.03
6290.00,1.04
6289.00,1.04
6288.00,1.04
6287.00,1.05
6286.00,1.05
6285.00,1.06
6284.00,1.06
6283.00,1.07
6282.00,1.07
6281.00,1.08
6280.00,1.08
6279.00,1.09
6278.00,1.09
6277.00,1.10
6276.00,1.10
6275.00,1.11
6274.00,1.11
6273.00,1.12
6272.00,1.12
6271.00,1.13
6270.00,1.13
6269.00,1.13
6268.00,1.14
6267.00,1.14
6266.00,1.14
6265.00,1.14
6264.00,1.15
6263.00,1.15
6262.00,1.15
6261.00,1.15
6260.00,1.15
6259.00,1.15
6258.00,1.15
6257.00,1.15
6256.00,1.15
6255.00,1.15
6254.00,1.15
6253.00,1.15
6252.00,1.15
6251.00,1.15
6250.00,1.15
6249.00,1.15
6248.00,1.15
6247.00,1.15
6246.00,1.15
6245.00,1.15
6244.00,1.14
6243.00,1.14
6242.00,1.14
6241.00,1.14
6240.00,1.14
6239.00,1.14
6238.00,1.14
6237.00,1.14
6236.00,1.14
6235.00,1.14
6234.00,1.14
6233.00,1.14
6232.00,1.14
6231.00,1.14
6230.00,1.14
6229.00,1.14
6228.00,1.14
6227.00,1.14
6226.00,1.14
6225.00,1.14
6224.00,1.14
6223.00,1.14
6222.00,1.14
6221.00,1.14
6220.00,1.14
6219.00,1.14
6218.00,1.14
6217.00,1.14
6216.00,1.14
6215.00,1.14
6214.00,1.14
6213.00,1.14
6212.00,1.14
6211.00,1.14
6210.00,1.14
6209.00,1.15
6208.00,1.15
6207.00,1.15
6206.00,1.15
6205.00,1.15
6204.00,1.16
6203.00,1.16
6202.00,1.16
6201.00,1.16
6200.00,1.17
6199.00,1.17
6198.00,1.17
6197.00,1.17
6196.00,1.18
6195.00,1.18
6194.00,1.18
6193.00,1.19
6192.00,1.19
6191.00,1.19
6190.00,1.20
6189.00,1.20
6188.00,1.21
6187.00,1.21
6186.00,1.21
6185.00,1.22
6184.00,1.22
6183.00,1.22
6182.00,1.23
6181.00,1.23
6180.00,1.23
6179.00,1.23
6178.00,1.23
6177.00,1.23
6176.00,1.24
6175.00,1.24
6174.00,1.24
6173.00,1.24
6172.00,1.24
6171.00,1.24
6170.00,1.24
6169.00,1.24
6168.00,1.25
6167.00,1.25
6166.00,1.25
6165.00,1.25
6164.00,1.25
6163.00,1.25
6162.00,1.25
6161.00,1.25
6160.00,1.25
6159.00,1.25
6158.00,1.25
6157.00,1.25
6156.00,1.25
6155.00,1.25
6154.00,1.25
6153.00,1.26
6152.00,1.26
6151.00,1.26
6150.00,1.27
6149.00,1.27
6148.00,1.27
6147.00,1.28
6146.00,1.28
6145.00,1.28
6144.00,1.29
6143.00,1.29
6142.00,1.29
6141.00,1.29
6140.00,1.29
6139.00,1.30
6138.00,1.30
6137.00,1.30
6136.00,1.30
6135.00,1.31
6134.00,1.31
6133.00,1.31
6132.00,1.31
6131.00,1.32
6130.00,1.32
6129.00,1.32
6128.00,1.32
6127.00,1.32
6126.00,1.32
6125.00,1.32
6124.00,1.32
6123.00,1.33
6122.00,1.33
6121.00,1.33
6120.00,1.33
6119.00,1.33
6118.00,1.33
6117.00,1.33
6116.00,1.33
6115.00,1.33
6114.00,1.33
6113.00,1.33
6112.00,1.33
6111.00,1.33
6110.00,1.33
6109.00,1.33
6108.00,1.33
6107.00,1.34
6106.00,1.34
6105.00,1.34
6104.00,1.34
6103.00,1.34
6102.00,1.34
6101.00,1.34
6100.00,1.34
6099.00,1.34
6098.00,1.35
6097.00,1.35
6096.00,1.35
6095.00,1.35
6094.00,1.35
6093.00,1.35
6092.00,1.35
6091.00,1.35
6090.00,1.35
6089.00,1.35
6088.00,1.35
6087.00,1.35
6086.00,1.36
6085.00,1.36
6084.00,1.36
6083.00,1.36
6082.00,1.36
6081.00,1.36
6080.00,1.36
6079.00,1.36
6078.00,1.36
6077.00,1.36
6076.00,1.36
6075.00,1.36
6074.00,1.36
6073.00,1.36
6072.00,1.36
6071.00,1.36
6070.00,1.37
6069.00,1.37
6068.00,1.37
6067.00,1.37
6066.00,1.37
6065.00,1.38
6064.00,1.38
6063.00,1.38
6062.00,1.38
6061.00,1.38
6060.00,1.38
6059.00,1.39
6058.00,1.39
6057.00,1.39
6056.00,1.39
6055.00,1.39
6054.00,1.40
6053.00,1.40
6052.00,1.40
6051.00,1.40
6050.00,1.40
6049.00,1.41
6048.00,1.41
6047.00,1.41
6046.00,1.41
6045.00,1.41
6044.00,1.41
6043.00,1.41
6042.00,1.41
6041.00,1.41
6040.00,1.41
6039.00,1.41
6038.00,1.41
6037.00,1.41
6036.00,1.41
6035.00,1.41
6034.00,1.42
6033.00,1.42
6032.00,1.42
6031.00,1.42
6030.00,1.42
6029.00,1.42
6028.00,1.42
6027.00,1.42
6026.00,1.42
6025.00,1.42
6024.00,1.42
6023.00,1.42
6022.00,1.42
6021.00,1.42
6020.00,1.42
6019.00,1.42
6018.00,1.42
6017.00,1.42
6016.00,1.42
6015.00,1.42
6014.00,1.42
6013.00,1.42
6012.00,1.42
6011.00,1.42
6010.00,1.42
6009.00,1.42
6008.00,1.42
6007.00,1.42
6006.00,1.41
6005.00,1.41
6004.00,1.41
6003.00,1.41
6002.00,1.41
6001.00,1.41
6000.00,1.41
5999.00,1.41
5998.00,1.41
5997.00,1.41
5996.00,1.41
5995.00,1.41
5994.00,1.40
5993.00,1.40
5992.00,1.40
5991.00,1.40
5990.00,1.40
5989.00,1.40
5988.00,1.40
5987.00,1.40
5986.00,1.39
5985.00,1.39
5984.00,1.39
5983.00,1.39
5982.00,1.39
5981.00,1.39
5980.00,1.39
5979.00,1.39
5978.00,1.39
5977.00,1.39
5976.00,1.38
5975.00,1.38
5974.00,1.38
5973.00,1.38
5972.00,1.37
5971.00,1.37
5970.00,1.37
5969.00,1.36
5968.00,1.36
5967.00,1.35
5966.00,1.35
5965.00,1.34
5964.00,1.34
5963.00,1.34
5962.00,1.33
5961.00,1.33
5960.00,1.32
5959.00,1.32
5958.00,1.32
5957.00,1.31
5956.00,1.31
5955.00,1.30
5954.00,1.30
5953.00,1.29
5952.00,1.29
5951.00,1.28
5950.00,1.28
5949.00,1.27
5948.00,1.27
5947.00,1.27
5946.00,1.26
5945.00,1.26
5944.00,1.26
5943.00,1.26
5942.00,1.26
5941.00,1.25
5940.00,1.25
5939.00,1.25
5938.00,1.25
5937.00,1.25
5936.00,1.25
5935.00,1.24
5934.00,1.24
5933.00,1.24
5932.00,1.24
5931.00,1.24
5930.00,1.24
5929.00,1.24
5928.00,1.23
5927.00,1.23
5926.00,1.23
5925.00,1.23
5924.00,1.22
5923.00,1.22
5922.00,1.22
5921.00,1.22
5920.00,1.21
5919.00,1.21
5918.00,1.21
5917.00,1.20
5916.00,1.20
5915.00,1.20
5914.00,1.19
5913.00,1.19
5912.00,1.19
5911.00,1.18
5910.00,1.18
5909.00,1.18
5908.00,1.18
5907.00,1.17
5906.00,1.17
5905.00,1.17
5904.00,1.17
5903.00,1.16
5902.00,1.16
5901.00,1.16
5900.00,1.16
5899.00,1.16
5898.00,1.16
5897.00,1.16
5896.00,1.16
5895.00,1.16
5894.00,1.16
5893.00,1.16
5892.00,1.16
5891.00,1.17
5890.00,1.17
5889.00,1.17
5888.00,1.17
5887.00,1.17
5886.00,1.18
5885.00,1.18
5884.00,1.18
5883.00,1.19
5882.00,1.19
5881.00,1.19
5880.00,1.20
5879.00,1.20
5878.00,1.21
5877.00,1.21
5876.00,1.21
5875.00,1.22
5874.00,1.22
5873.00,1.22
5872.00,1.23
5871.00,1.23
5870.00,1.24
5869.00,1.24
5868.00,1.24
5867.00,1.25
5866.00,1.25
5865.00,1.25
5864.00,1.26
5863.00,1.26
5862.00,1.26
5861.00,1.26
5860.00,1.27
5859.00,1.27
5858.00,1.27
5857.00,1.27
5856.00,1.27
5855.00,1.27
5854.00,1.27
5853.00,1.27
5852.00,1.28
5851.00,1.28
5850.00,1.28
5849.00,1.28
5848.00,1.28
5847.00,1.28
5846.00,1.28
5845.00,1.28
5844.00,1.28
5843.00,1.28
5842.00,1.28
5841.00,1.28
5840.00,1.29
5839.00,1.29
5838.00,1.29
5837.00,1.29
5836.00,1.29
5835.00,1.29
5834.00,1.29
5833.00,1.29
5832.00,1.29
5831.00,1.29
5830.00,1.29
5829.00,1.29
5828.00,1.29
5827.00,1.29
5826.00,1.28
5825.00,1.28
5824.00,1.28
5823.00,1.28
5822.00,1.27
5821.00,1.27
5820.00,1.27
5819.00,1.26
5818.00,1.26
5817.00,1.26
5816.00,1.25
5815.00,1.25
5814.00,1.25
5813.00,1.24
5812.00,1.24
5811.00,1.24
5810.00,1.23
5809.00,1.23
5808.00,1.23
5807.00,1.23
5806.00,1.23
5805.00,1.22
5804.00,1.22
5803.00,1.22
5802.00,1.22
5801.00,1.22
5800.00,1.22
5799.00,1.22
5798.00,1.22
5797.00,1.23
5796.00,1.23
5795.00,1.23
5794.00,1.23
5793.00,1.23
5792.00,1.23
5791.00,1.23
5790.00,1.23
5789.00,1.24
5788.00,1.24
5787.00,1.24
5786.00,1.24
5785.00,1.24
5784.00,1.24
5783.00,1.24
5782.00,1.24
5781.00,1.24
5780.00,1.25
5779.00,1.25
5778.00,1.25
5777.00,1.25
5776.00,1.24
5775.00,1.24
5774.00,1.24
5773.00,1.24
5772.00,1.24
5771.00,1.25
5770.00,1.25
5769.00,1.25
5768.00,1.25
5767.00,1.25
5766.00,1.25
5765.00,1.25
5764.00,1.25
5763.00,1.25
5762.00,1.25
5761.00,1.26
5760.00,1.26
5759.00,1.26
5758.00,1.26
5757.00,1.26
5756.00,1.26
5755.00,1.27
5754.00,1.27
5753.00,1.27
5752.00,1.27
5751.00,1.28
5750.00,1.28
5749.00,1.28
5748.00,1.29
5747.00,1.29
5746.00,1.29
5745.00,1.29
5744.00,1.29
5743.00,1.29
5742.00,1.29
5741.00,1.29
5740.00,1.29
5739.00,1.29
5738.00,1.29
5737.00,1.29
5736.00,1.29
5735.00,1.29
5734.00,1.29
5733.00,1.29
5732.00,1.29
5731.00,1.29
5730.00,1.29
5729.00,1.29
5728.00,1.28
5727.00,1.28
5726.00,1.28
5725.00,1.28
5724.00,1.28
5723.00,1.27
5722.00,1.27
5721.00,1.27
5720.00,1.27
5719.00,1.27
5718.00,1.27
5717.00,1.27
5716.00,1.27
5715.00,1.27
5714.00,1.27
5713.00,1.27
5712.00,1.27
5711.00,1.27
5710.00,1.27
5709.00,1.27
5708.00,1.27
5707.00,1.27
5706.00,1.27
5705.00,1.27
5704.00,1.27
5703.00,1.27
5702.00,1.27
5701.00,1.27
5700.00,1.27
5699.00,1.27
5698.00,1.27
5697.00,1.27
5696.00,1.27
5695.00,1.27
5694.00,1.27
5693.00,1.27
5692.00,1.27
5691.00,1.27
5690.00,1.27
5689.00,1.27
5688.00,1.27
5687.00,1.27
5686.00,1.27
5685.00,1.27
5684.00,1.27
5683.00,1.27
5682.00,1.27
5681.00,1.27
5680.00,1.27
5679.00,1.27
5678.00,1.27
5677.00,1.27
5676.00,1.27
5675.00,1.27
5674.00,1.27
5673.00,1.28
5672.00,1.28
5671.00,1.28
5670.00,1.28
5669.00,1.28
5668.00,1.28
5667.00,1.28
5666.00,1.28
5665.00,1.28
5664.00,1.28
5663.00,1.28
5662.00,1.28
5661.00,1.28
5660.00,1.29
5659.00,1.29
5658.00,1.29
5657.00,1.29
5656.00,1.29
5655.00,1.29
5654.00,1.29
5653.00,1.29
5652.00,1.29
5651.00,1.29
5650.00,1.29
5649.00,1.29
5648.00,1.29
5647.00,1.29
5646.00,1.29
5645.00,1.29
5644.00,1.29
5643.00,1.29
5642.00,1.29
5641.00,1.29
5640.00,1.29
5639.00,1.29
5638.00,1.29
5637.00,1.29
5636.00,1.29
5635.00,1.29
5634.00,1.29
5633.00,1.29
5632.00,1.30
5631.00,1.30
5630.00,1.30
5629.00,1.30
5628.00,1.30
5627.00,1.30
5626.00,1.30
5625.00,1.30
5624.00,1.31
5623.00,1.31
5622.00,1.31
5621.00,1.31
5620.00,1.31
5619.00,1.31
5618.00,1.32
5617.00,1.32
5616.00,1.32
5615.00,1.32
5614.00,1.32
5613.00,1.32
5612.00,1.32
5611.00,1.33
5610.00,1.33
5609.00,1.33
5608.00,1.33
5607.00,1.33
5606.00,1.33
5605.00,1.33
5604.00,1.33
5603.00,1.34
5602.00,1.34
5601.00,1.34
5600.00,1.34
5599.00,1.34
5598.00,1.34
5597.00,1.35
5596.00,1.35
5595.00,1.35
5594.00,1.35
5593.00,1.35
5592.00,1.35
5591.00,1.35
5590.00,1.35
5589.00,1.35
5588.00,1.35
5587.00,1.35
5586.00,1.35
5585.00,1.35
5584.00,1.35
5583.00,1.35
5582.00,1.35
5581.00,1.35
5580.00,1.36
5579.00,1.36
5578.00,1.36
5577.00,1.36
5576.00,1.36
5575.00,1.36
5574.00,1.36
5573.00,1.36
5572.00,1.37
5571.00,1.37
5570.00,1.37
5569.00,1.37
5568.00,1.37
5567.00,1.38
5566.00,1.38
5565.00,1.39
5564.00,1.39
5563.00,1.39
5562.00,1.40
5561.00,1.40
5560.00,1.40
5559.00,1.41
5558.00,1.41
5557.00,1.41
5556.00,1.41
5555.00,1.42
5554.00,1.42
5553.00,1.42
5552.00,1.42
5551.00,1.42
5550.00,1.43
5549.00,1.43
5548.00,1.43
5547.00,1.43
5546.00,1.43
5545.00,1.43
5544.00,1.43
5543.00,1.43
5542.00,1.43
5541.00,1.43
5540.00,1.43
5539.00,1.43
5538.00,1.43
5537.00,1.43
5536.00,1.43
5535.00,1.43
5534.00,1.43
5533.00,1.43
5532.00,1.43
5531.00,1.43
5530.00,1.43
5529.00,1.43
5528.00,1.43
5527.00,1.43
5526.00,1.43
5525.00,1.43
5524.00,1.43
5523.00,1.44
5522.00,1.44
5521.00,1.44
5520.00,1.44
5519.00,1.44
5518.00,1.44
5517.00,1.44
5516.00,1.44
5515.00,1.45
5514.00,1.45
5513.00,1.45
5512.00,1.45
5511.00,1.45
5510.00,1.46
5509.00,1.46
5508.00,1.46
5507.00,1.46
5506.00,1.46
5505.00,1.46
5504.00,1.47
5503.00,1.47
5502.00,1.47
5501.00,1.47
5500.00,1.47
5499.00,1.47
5498.00,1.48
5497.00,1.48
5496.00,1.48
5495.00,1.48
5494.00,1.49
5493.00,1.49
5492.00,1.49
5491.00,1.50
5490.00,1.50
5489.00,1.50
5488.00,1.50
5487.00,1.51
5486.00,1.51
5485.00,1.51
5484.00,1.52
5483.00,1.52
5482.00,1.52
5481.00,1.52
5480.00,1.53
5479.00,1.53
5478.00,1.53
5477.00,1.54
5476.00,1.54
5475.00,1.54
5474.00,1.55
5473.00,1.55
5472.00,1.55
5471.00,1.56
5470.00,1.56
5469.00,1.56
5468.00,1.56
5467.00,1.56
5466.00,1.57
5465.00,1.57
5464.00,1.57
5463.00,1.57
5462.00,1.57
5461.00,1.57
5460.00,1.57
5459.00,1.58
5458.00,1.58
5457.00,1.58
5456.00,1.58
5455.00,1.58
5454.00,1.58
5453.00,1.58
5452.00,1.58
5451.00,1.58
5450.00,1.58
5449.00,1.58
5448.00,1.58
5447.00,1.58
5446.00,1.58
5445.00,1.58
5444.00,1.58
5443.00,1.58
5442.00,1.58
5441.00,1.58
5440.00,1.58
5439.00,1.57
5438.00,1.57
5437.00,1.57
5436.00,1.57
5435.00,1.57
5434.00,1.57
5433.00,1.57
5432.00,1.56
5431.00,1.56
5430.00,1.56
5429.00,1.56
5428.00,1.56
5427.00,1.55
5426.00,1.55
5425.00,1.55
5424.00,1.55
5423.00,1.55
5422.00,1.55
5421.00,1.55
5420.00,1.54
5419.00,1.54
5418.00,1.54
5417.00,1.54
5416.00,1.54
5415.00,1.54
5414.00,1.53
5413.00,1.53
5412.00,1.53
5411.00,1.53
5410.00,1.53
5409.00,1.53
5408.00,1.52
5407.00,1.52
5406.00,1.52
5405.00,1.52
5404.00,1.52
5403.00,1.52
5402.00,1.51
5401.00,1.51
5400.00,1.51
5399.00,1.51
5398.00,1.50
5397.00,1.50
5396.00,1.50
5395.00,1.49
5394.00,1.49
5393.00,1.49
5392.00,1.48
5391.00,1.48
5390.00,1.47
5389.00,1.47
5388.00,1.46
5387.00,1.46
5386.00,1.46
5385.00,1.45
5384.00,1.45
5383.00,1.44
5382.00,1.44
5381.00,1.43
5380.00,1.43
5379.00,1.42
5378.00,1.42
5377.00,1.41
5376.00,1.41
5375.00,1.40
5374.00,1.39
5373.00,1.39
5372.00,1.38
5371.00,1.38
5370.00,1.37
5369.00,1.37
5368.00,1.36
5367.00,1.35
5366.00,1.35
5365.00,1.34
5364.00,1.33
5363.00,1.33
5362.00,1.32
5361.00,1.31
5360.00,1.30
5359.00,1.30
5358.00,1.29
5357.00,1.28
5356.00,1.28
5355.00,1.27
5354.00,1.26
5353.00,1.25
5352.00,1.25
5351.00,1.24
5350.00,1.23
5349.00,1.22
5348.00,1.21
5347.00,1.20
5346.00,1.19
5345.00,1.18
5344.00,1.17
5343.00,1.16
5342.00,1.15
5341.00,1.14
5340.00,1.13
5339.00,1.12
5338.00,1.11
5337.00,1.10
5336.00,1.09
5335.00,1.08
5334.00,1.07
5333.00,1.06
5332.00,1.05
5331.00,1.04
5330.00,1.03
5329.00,1.02
5328.00,1.00
5327.00,0.99
5326.00,0.98
5325.00,0.97
5324.00,0.96
5323.00,0.95
5322.00,0.94
5321.00,0.93
5320.00,0.92
5319.00,0.91
5318.00,0.91
5317.00,0.90
5316.00,0.89
5315.00,0.88
5314.00,0.87
5313.00,0.87
5312.00,0.86
5311.00,0.85
5310.00,0.84
5309.00,0.84
5308.00,0.83
5307.00,0.82
5306.00,0.82
5305.00,0.81
5304.00,0.80
5303.00,0.80
5302.00,0.79
5301.00,0.79
5300.00,0.78
5299.00,0.78
5298.00,0.78
5297.00,0.77
5296.00,0.77
5295.00,0.76
5294.00,0.76
5293.00,0.76
5292.00,0.75
5291.00,0.75
5290.00,0.75
5289.00,0.75
5288.00,0.74
5287.00,0.74
5286.00,0.74
5285.00,0.74
5284.00,0.74
5283.00,0.74
5282.00,0.74
5281.00,0.74
5280.00,0.74
5279.00,0.74
5278.00,0.74
5277.00,0.74
5276.00,0.75
5275.00,0.75
5274.00,0.75
5273.00,0.75
5272.00,0.76
5271.00,0.76
5270.00,0.76
5269.00,0.76
5268.00,0.77
5267.00,0.77
5266.00,0.77
5265.00,0.78
5264.00,0.78
5263.00,0.78
5262.00,0.78
5261.00,0.79
5260.00,0.79
5259.00,0.79
5258.00,0.79
5257.00,0.79
5256.00,0.79
5255.00,0.80
5254.00,0.80
5253.00,0.80
5252.00,0.80
5251.00,0.80
5250.00,0.80
5249.00,0.80
5248.00,0.80
5247.00,0.80
5246.00,0.79
5245.00,0.79
5244.00,0.79
5243.00,0.79
5242.00,0.79
5241.00,0.79
5240.00,0.79
5239.00,0.78
5238.00,0.78
5237.00,0.78
5236.00,0.78
5235.00,0.78
5234.00,0.78
5233.00,0.78
5232.00,0.78
5231.00,0.78
5230.00,0.78
5229.00,0.77
5228.00,0.77
5227.00,0.77
5226.00,0.77
5225.00,0.77
5224.00,0.78
5223.00,0.78
5222.00,0.78
5221.00,0.78
5220.00,0.78
5219.00,0.78
5218.00,0.78
5217.00,0.78
5216.00,0.78
5215.00,0.79
5214.00,0.79
5213.00,0.79
5212.00,0.79
5211.00,0.79
5210.00,0.79
5209.00,0.79
5208.00,0.80
5207.00,0.80
5206.00,0.80
5205.00,0.80
5204.00,0.80
5203.00,0.80
5202.00,0.81
5201.00,0.81
5200.00,0.81
5199.00,0.81
5198.00,0.81
5197.00,0.81
5196.00,0.81
5195.00,0.81
5194.00,0.81
5193.00,0.81
5192.00,0.80
5191.00,0.80
5190.00,0.80
5189.00,0.80
5188.00,0.80
5187.00,0.80
5186.00,0.80
5185.00,0.80
5184.00,0.80
5183.00,0.80
5182.00,0.80
5181.00,0.79
5180.00,0.79
5179.00,0.79
5178.00,0.79
5177.00,0.79
5176.00,0.79
5175.00,0.79
5174.00,0.79
5173.00,0.79
5172.00,0.79
5171.00,0.79
5170.00,0.79
5169.00,0.79
5168.00,0.79
5167.00,0.79
5166.00,0.79
5165.00,0.79
5164.00,0.79
5163.00,0.79
5162.00,0.79
5161.00,0.79
5160.00,0.79
5159.00,0.79
5158.00,0.79
5157.00,0.79
5156.00,0.79
5155.00,0.79
5154.00,0.79
5153.00,0.79
5152.00,0.79
5151.00,0.79
5150.00,0.79
5149.00,0.79
5148.00,0.79
5147.00,0.79
5146.00,0.78
5145.00,0.78
5144.00,0.78
5143.00,0.78
5142.00,0.78
5141.00,0.78
5140.00,0.78
5139.00,0.78
5138.00,0.78
5137.00,0.78
5136.00,0.78
5135.00,0.78
5134.00,0.78
5133.00,0.78
5132.00,0.78
5131.00,0.78
5130.00,0.78
5129.00,0.78
5128.00,0.78
5127.00,0.78
5126.00,0.78
5125.00,0.78
5124.00,0.78
5123.00,0.78
5122.00,0.79
5121.00,0.79
5120.00,0.79
5119.00,0.79
5118.00,0.79
5117.00,0.79
5116.00,0.79
5115.00,0.79
5114.00,0.80
5113.00,0.80
5112.00,0.80
5111.00,0.80
5110.00,0.80
5109.00,0.80
5108.00,0.80
5107.00,0.80
5106.00,0.80
5105.00,0.80
5104.00,0.81
5103.00,0.81
5102.00,0.81
5101.00,0.81
5100.00,0.81
5099.00,0.82
5098.00,0.82
5097.00,0.82
5096.00,0.82
5095.00,0.82
5094.00,0.82
5093.00,0.82
5092.00,0.82
5091.00,0.82
5090.00,0.82
5089.00,0.83
5088.00,0.83
5087.00,0.83
5086.00,0.83
5085.00,0.83
5084.00,0.83
5083.00,0.83
5082.00,0.84
5081.00,0.84
5080.00,0.84
5079.00,0.84
5078.00,0.84
5077.00,0.85
5076.00,0.85
5075.00,0.85
5074.00,0.85
5073.00,0.85
5072.00,0.85
5071.00,0.85
5070.00,0.85
5069.00,0.86
5068.00,0.86
5067.00,0.86
5066.00,0.86
5065.00,0.86
5064.00,0.86
5063.00,0.87
5062.00,0.87
5061.00,0.87
5060.00,0.87
5059.00,0.87
5058.00,0.87
5057.00,0.87
5056.00,0.87
5055.00,0.87
5054.00,0.87
5053.00,0.87
5052.00,0.87
5051.00,0.87
5050.00,0.87
5049.00,0.87
5048.00,0.87
5047.00,0.88
5046.00,0.88
5045.00,0.88
5044.00,0.88
5043.00,0.88
5042.00,0.88
5041.00,0.88
5040.00,0.88
5039.00,0.88
5038.00,0.88
5037.00,0.88
5036.00,0.88
5035.00,0.88
5034.00,0.88
5033.00,0.88
5032.00,0.88
5031.00,0.88
5030.00,0.88
5029.00,0.89
5028.00,0.89
5027.00,0.89
5026.00,0.89
5025.00,0.89
5024.00,0.88
5023.00,0.88
5022.00,0.88
5021.00,0.88
5020.00,0.88
5019.00,0.88
5018.00,0.88
5017.00,0.88
5016.00,0.87
5015.00,0.87
5014.00,0.87
5013.00,0.87
5012.00,0.87
5011.00,0.86
5010.00,0.86
5009.00,0.86
5008.00,0.86
5007.00,0.86
5006.00,0.86
5005.00,0.85
5004.00,0.85
5003.00,0.85
5002.00,0.85
5001.00,0.85
5000.00,0.85
4999.00,0.85
4998.00,0.85
4997.00,0.85
4996.00,0.85
4995.00,0.85
4994.00,0.85
4993.00,0.85
4992.00,0.85
4991.00,0.85
4990.00,0.85
4989.00,0.86
4988.00,0.86
4987.00,0.86
4986.00,0.86
4985.00,0.86
4984.00,0.87
4983.00,0.87
4982.00,0.87
4981.00,0.87
4980.00,0.88
4979.00,0.88
4978.00,0.88
4977.00,0.88
4976.00,0.89
4975.00,0.89
4974.00,0.89
4973.00,0.89
4972.00,0.90
4971.00,0.90
4970.00,0.90
4969.00,0.90
4968.00,0.90
4967.00,0.90
4966.00,0.90
4965.00,0.90
4964.00,0.90
4963.00,0.90
4962.00,0.90
4961.00,0.90
4960.00,0.90
4959.00,0.90
4958.00,0.90
4957.00,0.90
4956.00,0.90
4955.00,0.90
4954.00,0.90
4953.00,0.90
4952.00,0.90
4951.00,0.90
4950.00,0.90
4949.00,0.90
4948.00,0.90
4947.00,0.90
4946.00,0.89
4945.00,0.89
4944.00,0.89
4943.00,0.89
4942.00,0.90
4941.00,0.90
4940.00,0.90
4939.00,0.90
4938.00,0.90
4937.00,0.90
4936.00,0.90
4935.00,0.90
4934.00,0.90
4933.00,0.90
4932.00,0.90
4931.00,0.90
4930.00,0.90
4929.00,0.90
4928.00,0.90
4927.00,0.90
4926.00,0.90
4925.00,0.91
4924.00,0.91
4923.00,0.91
4922.00,0.91
4921.00,0.91
4920.00,0.91
4919.00,0.91
4918.00,0.91
4917.00,0.91
4916.00,0.91
4915.00,0.91
4914.00,0.91
4913.00,0.91
4912.00,0.91
4911.00,0.91
4910.00,0.91
4909.00,0.92
4908.00,0.92
4907.00,0.92
4906.00,0.92
4905.00,0.92
4904.00,0.92
4903.00,0.92
4902.00,0.92
4901.00,0.92
4900.00,0.92
4899.00,0.93
4898.00,0.93
4897.00,0.93
4896.00,0.93
4895.00,0.93
4894.00,0.93
4893.00,0.93
4892.00,0.93
4891.00,0.94
4890.00,0.94
4889.00,0.94
4888.00,0.94
4887.00,0.94
4886.00,0.94
4885.00,0.94
4884.00,0.94
4883.00,0.95
4882.00,0.95
4881.00,0.95
4880.00,0.95
4879.00,0.95
4878.00,0.94
4877.00,0.94
4876.00,0.94
4875.00,0.94
4874.00,0.94
4873.00,0.94
4872.00,0.94
4871.00,0.94
4870.00,0.94
4869.00,0.93
4868.00,0.93
4867.00,0.93
4866.00,0.93
4865.00,0.93
4864.00,0.93
4863.00,0.93
4862.00,0.93
4861.00,0.93
4860.00,0.93
4859.00,0.92
4858.00,0.92
4857.00,0.92
4856.00,0.92
4855.00,0.92
4854.00,0.92
4853.00,0.92
4852.00,0.92
4851.00,0.93
4850.00,0.93
4849.00,0.93
4848.00,0.93
4847.00,0.93
4846.00,0.93
4845.00,0.94
4844.00,0.94
4843.00,0.94
4842.00,0.94
4841.00,0.95
4840.00,0.95
4839.00,0.95
4838.00,0.95
4837.00,0.95
4836.00,0.96
4835.00,0.96
4834.00,0.96
4833.00,0.96
4832.00,0.97
4831.00,0.97
4830.00,0.97
4829.00,0.97
4828.00,0.97
4827.00,0.98
4826.00,0.98
4825.00,0.98
4824.00,0.98
4823.00,0.98
4822.00,0.99
4821.00,0.99
4820.00,0.99
4819.00,0.99
4818.00,0.99
4817.00,0.99
4816.00,0.99
4815.00,0.99
4814.00,0.99
4813.00,0.99
4812.00,0.99
4811.00,1.00
4810.00,1.00
4809.00,1.00
4808.00,1.00
4807.00,1.00
4806.00,1.00
4805.00,1.01
4804.00,1.01
4803.00,1.01
4802.00,1.01
4801.00,1.02
4800.00,1.02
4799.00,1.02
4798.00,1.02
4797.00,1.03
4796.00,1.03
4795.00,1.03
4794.00,1.03
4793.00,1.03
4792.00,1.03
4791.00,1.04
4790.00,1.04
4789.00,1.04
4788.00,1.04
4787.00,1.04
4786.00,1.04
4785.00,1.04
4784.00,1.04
4783.00,1.04
4782.00,1.04
4781.00,1.04
4780.00,1.04
4779.00,1.04
4778.00,1.04
4777.00,1.04
4776.00,1.04
4775.00,1.04
4774.00,1.04
4773.00,1.04
4772.00,1.04
4771.00,1.04
4770.00,1.03
4769.00,1.03
4768.00,1.03
4767.00,1.03
4766.00,1.03
4765.00,1.03
4764.00,1.03
4763.00,1.02
4762.00,1.02
4761.00,1.02
4760.00,1.02
4759.00,1.02
4758.00,1.02
4757.00,1.02
4756.00,1.02
4755.00,1.02
4754.00,1.02
4753.00,1.02
4752.00,1.02
4751.00,1.02
4750.00,1.02
4749.00,1.02
4748.00,1.02
4747.00,1.02
4746.00,1.02
4745.00,1.02
4744.00,1.03
4743.00,1.03
4742.00,1.03
4741.00,1.04
4740.00,1.04
4739.00,1.04
4738.00,1.05
4737.00,1.05
4736.00,1.05
4735.00,1.06
4734.00,1.06
4733.00,1.06
4732.00,1.07
4731.00,1.07
4730.00,1.08
4729.00,1.08
4728.00,1.08
4727.00,1.09
4726.00,1.09
4725.00,1.10
4724.00,1.10
4723.00,1.10
4722.00,1.11
4721.00,1.11
4720.00,1.11
4719.00,1.12
4718.00,1.12
4717.00,1.12
4716.00,1.13
4715.00,1.13
4714.00,1.13
4713.00,1.13
4712.00,1.14
4711.00,1.14
4710.00,1.14
4709.00,1.14
4708.00,1.15
4707.00,1.15
4706.00,1.15
4705.00,1.15
4704.00,1.15
4703.00,1.16
4702.00,1.16
4701.00,1.16
4700.00,1.16
4699.00,1.17
4698.00,1.17
4697.00,1.17
4696.00,1.18
4695.00,1.18
4694.00,1.18
4693.00,1.18
4692.00,1.19
4691.00,1.19
4690.00,1.19
4689.00,1.19
4688.00,1.19
4687.00,1.19
4686.00,1.19
4685.00,1.20
4684.00,1.20
4683.00,1.20
4682.00,1.20
4681.00,1.20
4680.00,1.20
4679.00,1.20
4678.00,1.20
4677.00,1.20
4676.00,1.20
4675.00,1.20
4674.00,1.20
4673.00,1.20
4672.00,1.19
4671.00,1.19
4670.00,1.19
4669.00,1.19
4668.00,1.19
4667.00,1.19
4666.00,1.18
4665.00,1.18
4664.00,1.18
4663.00,1.18
4662.00,1.18
4661.00,1.18
4660.00,1.18
4659.00,1.18
4658.00,1.18
4657.00,1.18
4656.00,1.19
4655.00,1.19
4654.00,1.19
4653.00,1.19
4652.00,1.19
4651.00,1.20
4650.00,1.20
4649.00,1.20
4648.00,1.20
4647.00,1.20
4646.00,1.21
4645.00,1.21
4644.00,1.21
4643.00,1.22
4642.00,1.22
4641.00,1.23
4640.00,1.23
4639.00,1.24
4638.00,1.24
4637.00,1.25
4636.00,1.25
4635.00,1.25
4634.00,1.26
4633.00,1.26
4632.00,1.26
4631.00,1.26
4630.00,1.26
4629.00,1.26
4628.00,1.26
4627.00,1.26
4626.00,1.26
4625.00,1.26
4624.00,1.26
4623.00,1.26
4622.00,1.27
4621.00,1.27
4620.00,1.26
4619.00,1.26
4618.00,1.26
4617.00,1.26
4616.00,1.26
4615.00,1.26
4614.00,1.26
4613.00,1.26
4612.00,1.26
4611.00,1.26
4610.00,1.25
4609.00,1.26
4608.00,1.26
4607.00,1.26
4606.00,1.26
4605.00,1.26
4604.00,1.26
4603.00,1.26
4602.00,1.26
4601.00,1.27
4600.00,1.27
4599.00,1.27
4598.00,1.27
4597.00,1.26
4596.00,1.26
4595.00,1.26
4594.00,1.26
4593.00,1.26
4592.00,1.26
4591.00,1.26
4590.00,1.26
4589.00,1.26
4588.00,1.26
4587.00,1.25
4586.00,1.25
4585.00,1.25
4584.00,1.25
4583.00,1.25
4582.00,1.25
4581.00,1.25
4580.00,1.25
4579.00,1.24
4578.00,1.24
4577.00,1.24
4576.00,1.24
4575.00,1.24
4574.00,1.24
4573.00,1.24
4572.00,1.25
4571.00,1.25
4570.00,1.25
4569.00,1.25
4568.00,1.26
4567.00,1.26
4566.00,1.26
4565.00,1.26
4564.00,1.27
4563.00,1.27
4562.00,1.27
4561.00,1.27
4560.00,1.27
4559.00,1.27
4558.00,1.28
4557.00,1.28
4556.00,1.28
4555.00,1.28
4554.00,1.28
4553.00,1.29
4552.00,1.29
4551.00,1.29
4550.00,1.29
4549.00,1.29
4548.00,1.29
4547.00,1.29
4546.00,1.29
4545.00,1.29
4544.00,1.29
4543.00,1.29
4542.00,1.29
4541.00,1.29
4540.00,1.29
4539.00,1.29
4538.00,1.29
4537.00,1.30
4536.00,1.30
4535.00,1.30
4534.00,1.30
4533.00,1.30
4532.00,1.31
4531.00,1.31
4530.00,1.31
4529.00,1.31
4528.00,1.32
4527.00,1.32
4526.00,1.32
4525.00,1.32
4524.00,1.32
4523.00,1.32
4522.00,1.33
4521.00,1.33
4520.00,1.33
4519.00,1.33
4518.00,1.33
4517.00,1.33
4516.00,1.33
4515.00,1.34
4514.00,1.34
4513.00,1.34
4512.00,1.34
4511.00,1.34
4510.00,1.34
4509.00,1.34
4508.00,1.34
4507.00,1.34
4506.00,1.33
4505.00,1.33
4504.00,1.33
4503.00,1.33
4502.00,1.33
4501.00,1.33
4500.00,1.33
4499.00,1.32
4498.00,1.32
4497.00,1.32
4496.00,1.32
4495.00,1.32
4494.00,1.31
4493.00,1.31
4492.00,1.31
4491.00,1.31
4490.00,1.30
4489.00,1.30
4488.00,1.30
4487.00,1.30
4486.00,1.29
4485.00,1.29
4484.00,1.29
4483.00,1.29
4482.00,1.28
4481.00,1.28
4480.00,1.28
4479.00,1.28
4478.00,1.27
4477.00,1.27
4476.00,1.27
4475.00,1.26
4474.00,1.26
4473.00,1.26
4472.00,1.25
4471.00,1.25
4470.00,1.25
4469.00,1.24
4468.00,1.24
4467.00,1.24
4466.00,1.24
4465.00,1.23
4464.00,1.23
4463.00,1.23
4462.00,1.23
4461.00,1.23
4460.00,1.23
4459.00,1.23
4458.00,1.22
4457.00,1.22
4456.00,1.22
4455.00,1.22
4454.00,1.22
4453.00,1.21
4452.00,1.21
4451.00,1.21
4450.00,1.21
4449.00,1.21
4448.00,1.21
4447.00,1.21
4446.00,1.20
4445.00,1.20
4444.00,1.20
4443.00,1.20
4442.00,1.20
4441.00,1.20
4440.00,1.20
4439.00,1.20
4438.00,1.19
4437.00,1.19
4436.00,1.19
4435.00,1.19
4434.00,1.18
4433.00,1.18
4432.00,1.18
4431.00,1.17
4430.00,1.17
4429.00,1.17
4428.00,1.17
4427.00,1.16
4426.00,1.16
4425.00,1.16
4424.00,1.16
4423.00,1.15
4422.00,1.15
4421.00,1.15
4420.00,1.15
4419.00,1.15
4418.00,1.14
4417.00,1.14
4416.00,1.14
4415.00,1.14
4414.00,1.14
4413.00,1.14
4412.00,1.14
4411.00,1.14
4410.00,1.14
4409.00,1.14
4408.00,1.14
4407.00,1.14
4406.00,1.14
4405.00,1.15
4404.00,1.15
4403.00,1.15
4402.00,1.15
4401.00,1.16
4400.00,1.16
4399.00,1.16
4398.00,1.16
4397.00,1.17
4396.00,1.17
4395.00,1.17
4394.00,1.18
4393.00,1.18
4392.00,1.18
4391.00,1.19
4390.00,1.19
4389.00,1.20
4388.00,1.20
4387.00,1.20
4386.00,1.21
4385.00,1.21
4384.00,1.21
4383.00,1.22
4382.00,1.22
4381.00,1.23
4380.00,1.23
4379.00,1.23
4378.00,1.23
4377.00,1.24
4376.00,1.24
4375.00,1.24
4374.00,1.24
4373.00,1.24
4372.00,1.24
4371.00,1.24
4370.00,1.24
4369.00,1.24
4368.00,1.24
4367.00,1.24
4366.00,1.24
4365.00,1.24
4364.00,1.23
4363.00,1.23
4362.00,1.23
4361.00,1.23
4360.00,1.23
4359.00,1.23
4358.00,1.23
4357.00,1.22
4356.00,1.22
4355.00,1.22
4354.00,1.22
4353.00,1.21
4352.00,1.21
4351.00,1.21
4350.00,1.20
4349.00,1.20
4348.00,1.20
4347.00,1.20
4346.00,1.20
4345.00,1.20
4344.00,1.19
4343.00,1.19
4342.00,1.19
4341.00,1.19
4340.00,1.19
4339.00,1.20
4338.00,1.20
4337.00,1.20
4336.00,1.20
4335.00,1.20
4334.00,1.20
4333.00,1.20
4332.00,1.20
4331.00,1.20
4330.00,1.21
4329.00,1.21
4328.00,1.21
4327.00,1.21
4326.00,1.21
4325.00,1.22
4324.00,1.22
4323.00,1.22
4322.00,1.23
4321.00,1.23
4320.00,1.24
4319.00,1.24
4318.00,1.24
4317.00,1.25
4316.00,1.25
4315.00,1.26
4314.00,1.26
4313.00,1.26
4312.00,1.26
4311.00,1.26
4310.00,1.27
4309.00,1.27
4308.00,1.27
4307.00,1.27
4306.00,1.27
4305.00,1.27
4304.00,1.27
4303.00,1.27
4302.00,1.27
4301.00,1.27
4300.00,1.27
4299.00,1.27
4298.00,1.27
4297.00,1.27
4296.00,1.27
4295.00,1.27
4294.00,1.27
4293.00,1.27
4292.00,1.27
4291.00,1.27
4290.00,1.27
4289.00,1.27
4288.00,1.26
4287.00,1.26
4286.00,1.26
4285.00,1.26
4284.00,1.26
4283.00,1.26
4282.00,1.27
4281.00,1.27
4280.00,1.27
4279.00,1.28
4278.00,1.28
4277.00,1.28
4276.00,1.29
4275.00,1.29
4274.00,1.29
4273.00,1.29
4272.00,1.29
4271.00,1.30
4270.00,1.30
4269.00,1.30
4268.00,1.30
4267.00,1.30
4266.00,1.31
4265.00,1.31
4264.00,1.31
4263.00,1.32
4262.00,1.32
4261.00,1.32
4260.00,1.32
4259.00,1.33
4258.00,1.33
4257.00,1.33
4256.00,1.33
4255.00,1.33
4254.00,1.33
4253.00,1.33
4252.00,1.33
4251.00,1.33
4250.00,1.33
4249.00,1.33
4248.00,1.33
4247.00,1.33
4246.00,1.33
4245.00,1.33
4244.00,1.33
4243.00,1.33
4242.00,1.33
4241.00,1.33
4240.00,1.33
4239.00,1.33
4238.00,1.33
4237.00,1.33
4236.00,1.33
4235.00,1.32
4234.00,1.32
4233.00,1.32
4232.00,1.31
4231.00,1.31
4230.00,1.31
4229.00,1.30
4228.00,1.30
4227.00,1.30
4226.00,1.30
4225.00,1.29
4224.00,1.29
4223.00,1.29
4222.00,1.28
4221.00,1.28
4220.00,1.28
4219.00,1.27
4218.00,1.27
4217.00,1.27
4216.00,1.26
4215.00,1.26
4214.00,1.25
4213.00,1.25
4212.00,1.25
4211.00,1.25
4210.00,1.24
4209.00,1.24
4208.00,1.24
4207.00,1.24
4206.00,1.24
4205.00,1.24
4204.00,1.24
4203.00,1.24
4202.00,1.24
4201.00,1.25
4200.00,1.25
4199.00,1.25
4198.00,1.25
4197.00,1.25
4196.00,1.26
4195.00,1.26
4194.00,1.26
4193.00,1.27
4192.00,1.27
4191.00,1.27
4190.00,1.28
4189.00,1.28
4188.00,1.28
4187.00,1.29
4186.00,1.29
4185.00,1.29
4184.00,1.29
4183.00,1.30
4182.00,1.30
4181.00,1.30
4180.00,1.30
4179.00,1.30
4178.00,1.31
4177.00,1.31
4176.00,1.31
4175.00,1.31
4174.00,1.31
4173.00,1.31
4172.00,1.31
4171.00,1.32
4170.00,1.32
4169.00,1.32
4168.00,1.32
4167.00,1.32
4166.00,1.32
4165.00,1.32
4164.00,1.33
4163.00,1.33
4162.00,1.33
4161.00,1.33
4160.00,1.33
4159.00,1.33
4158.00,1.34
4157.00,1.34
4156.00,1.34
4155.00,1.34
4154.00,1.34
4153.00,1.35
4152.00,1.35
4151.00,1.35
4150.00,1.35
4149.00,1.36
4148.00,1.36
4147.00,1.36
4146.00,1.37
4145.00,1.37
4144.00,1.37
4143.00,1.37
4142.00,1.37
4141.00,1.37
4140.00,1.37
4139.00,1.37
4138.00,1.37
4137.00,1.37
4136.00,1.38
4135.00,1.38
4134.00,1.38
4133.00,1.38
4132.00,1.38
4131.00,1.38
4130.00,1.38
4129.00,1.38
4128.00,1.38
4127.00,1.38
4126.00,1.38
4125.00,1.38
4124.00,1.38
4123.00,1.38
4122.00,1.38
4121.00,1.37
4120.00,1.37
4119.00,1.37
4118.00,1.36
4117.00,1.36
4116.00,1.36
4115.00,1.36
4114.00,1.36
4113.00,1.36
4112.00,1.36
4111.00,1.36
4110.00,1.36
4109.00,1.36
4108.00,1.36
4107.00,1.36
4106.00,1.36
4105.00,1.36
4104.00,1.36
4103.00,1.36
4102.00,1.36
4101.00,1.35
4100.00,1.35
4099.00,1.35
4098.00,1.35
4097.00,1.35
4096.00,1.35
4095.00,1.35
4094.00,1.35
4093.00,1.36
4092.00,1.36
4091.00,1.36
4090.00,1.36
4089.00,1.36
4088.00,1.36
4087.00,1.36
4086.00,1.36
4085.00,1.36
4084.00,1.36
4083.00,1.36
4082.00,1.36
4081.00,1.36
4080.00,1.36
4079.00,1.36
4078.00,1.36
4077.00,1.36
4076.00,1.36
4075.00,1.36
4074.00,1.37
4073.00,1.37
4072.00,1.37
4071.00,1.38
4070.00,1.38
4069.00,1.38
4068.00,1.38
4067.00,1.38
4066.00,1.38
4065.00,1.38
4064.00,1.38
4063.00,1.38
4062.00,1.38
4061.00,1.38
4060.00,1.38
4059.00,1.39
4058.00,1.39
4057.00,1.39
4056.00,1.39
4055.00,1.39
4054.00,1.40
4053.00,1.40
4052.00,1.40
4051.00,1.40
4050.00,1.41
4049.00,1.41
4048.00,1.41
4047.00,1.41
4046.00,1.41
4045.00,1.41
4044.00,1.41
4043.00,1.41
4042.00,1.41
4041.00,1.41
4040.00,1.41
4039.00,1.41
4038.00,1.41
4037.00,1.41
4036.00,1.41
4035.00,1.42
4034.00,1.42
4033.00,1.42
4032.00,1.43
4031.00,1.43
4030.00,1.43
4029.00,1.43
4028.00,1.44
4027.00,1.44
4026.00,1.44
4025.00,1.44
4024.00,1.45
4023.00,1.45
4022.00,1.45
4021.00,1.45
4020.00,1.46
4019.00,1.46
4018.00,1.46
4017.00,1.47
4016.00,1.47
4015.00,1.48
4014.00,1.49
4013.00,1.49
4012.00,1.49
4011.00,1.50
4010.00,1.50
4009.00,1.50
4008.00,1.50
4007.00,1.51
4006.00,1.51
4005.00,1.52
4004.00,1.52
4003.00,1.52
4002.00,1.53
4001.00,1.53
4000.00,1.53
