创建为新数据集,样品 1171 用户 Administrator 日期 星期二, 七月 30 2019
cm-1,%T
10000.00,2.42
9999.00,2.38
9998.00,2.34
9997.00,2.30
9996.00,2.26
9995.00,2.23
9994.00,2.19
9993.00,2.16
9992.00,2.12
9991.00,2.09
9990.00,2.07
9989.00,2.04
9988.00,2.02
9987.00,2.00
9986.00,1.99
9985.00,1.98
9984.00,1.97
9983.00,1.96
9982.00,1.96
9981.00,1.95
9980.00,1.95
9979.00,1.94
9978.00,1.94
9977.00,1.94
9976.00,1.93
9975.00,1.93
9974.00,1.92
9973.00,1.92
9972.00,1.91
9971.00,1.91
9970.00,1.90
9969.00,1.89
9968.00,1.89
9967.00,1.88
9966.00,1.87
9965.00,1.85
9964.00,1.84
9963.00,1.82
9962.00,1.80
9961.00,1.78
9960.00,1.76
9959.00,1.74
9958.00,1.71
9957.00,1.69
9956.00,1.67
9955.00,1.66
9954.00,1.65
9953.00,1.64
9952.00,1.63
9951.00,1.63
9950.00,1.63
9949.00,1.63
9948.00,1.64
9947.00,1.65
9946.00,1.66
9945.00,1.67
9944.00,1.69
9943.00,1.70
9942.00,1.72
9941.00,1.74
9940.00,1.76
9939.00,1.78
9938.00,1.80
9937.00,1.83
9936.00,1.85
9935.00,1.88
9934.00,1.91
9933.00,1.93
9932.00,1.96
9931.00,1.99
9930.00,2.01
9929.00,2.03
9928.00,2.05
9927.00,2.06
9926.00,2.07
9925.00,2.08
9924.00,2.08
9923.00,2.08
9922.00,2.08
9921.00,2.07
9920.00,2.06
9919.00,2.05
9918.00,2.04
9917.00,2.02
9916.00,2.01
9915.00,1.99
9914.00,1.97
9913.00,1.96
9912.00,1.94
9911.00,1.92
9910.00,1.90
9909.00,1.88
9908.00,1.86
9907.00,1.84
9906.00,1.82
9905.00,1.80
9904.00,1.77
9903.00,1.75
9902.00,1.73
9901.00,1.71
9900.00,1.69
9899.00,1.67
9898.00,1.65
9897.00,1.63
9896.00,1.61
9895.00,1.60
9894.00,1.59
9893.00,1.58
9892.00,1.57
9891.00,1.56
9890.00,1.56
9889.00,1.56
9888.00,1.56
9887.00,1.56
9886.00,1.57
9885.00,1.58
9884.00,1.59
9883.00,1.60
9882.00,1.62
9881.00,1.63
9880.00,1.65
9879.00,1.67
9878.00,1.69
9877.00,1.71
9876.00,1.74
9875.00,1.76
9874.00,1.79
9873.00,1.82
9872.00,1.85
9871.00,1.88
9870.00,1.91
9869.00,1.95
9868.00,1.97
9867.00,2.00
9866.00,2.03
9865.00,2.05
9864.00,2.06
9863.00,2.07
9862.00,2.08
9861.00,2.08
9860.00,2.08
9859.00,2.08
9858.00,2.08
9857.00,2.08
9856.00,2.07
9855.00,2.07
9854.00,2.06
9853.00,2.06
9852.00,2.05
9851.00,2.04
9850.00,2.04
9849.00,2.03
9848.00,2.01
9847.00,2.00
9846.00,1.98
9845.00,1.96
9844.00,1.94
9843.00,1.92
9842.00,1.90
9841.00,1.88
9840.00,1.86
9839.00,1.84
9838.00,1.83
9837.00,1.82
9836.00,1.82
9835.00,1.81
9834.00,1.81
9833.00,1.81
9832.00,1.80
9831.00,1.80
9830.00,1.80
9829.00,1.79
9828.00,1.79
9827.00,1.78
9826.00,1.78
9825.00,1.77
9824.00,1.77
9823.00,1.76
9822.00,1.76
9821.00,1.76
9820.00,1.76
9819.00,1.77
9818.00,1.77
9817.00,1.77
9816.00,1.78
9815.00,1.78
9814.00,1.78
9813.00,1.77
9812.00,1.77
9811.00,1.76
9810.00,1.76
9809.00,1.75
9808.00,1.74
9807.00,1.73
9806.00,1.72
9805.00,1.71
9804.00,1.71
9803.00,1.70
9802.00,1.70
9801.00,1.69
9800.00,1.69
9799.00,1.68
9798.00,1.67
9797.00,1.66
9796.00,1.65
9795.00,1.64
9794.00,1.62
9793.00,1.61
9792.00,1.59
9791.00,1.58
9790.00,1.56
9789.00,1.55
9788.00,1.54
9787.00,1.53
9786.00,1.53
9785.00,1.53
9784.00,1.53
9783.00,1.53
9782.00,1.52
9781.00,1.52
9780.00,1.51
9779.00,1.51
9778.00,1.49
9777.00,1.48
9776.00,1.47
9775.00,1.45
9774.00,1.43
9773.00,1.42
9772.00,1.40
9771.00,1.39
9770.00,1.38
9769.00,1.37
9768.00,1.37
9767.00,1.36
9766.00,1.36
9765.00,1.36
9764.00,1.35
9763.00,1.35
9762.00,1.35
9761.00,1.34
9760.00,1.34
9759.00,1.33
9758.00,1.32
9757.00,1.32
9756.00,1.31
9755.00,1.31
9754.00,1.31
9753.00,1.32
9752.00,1.33
9751.00,1.34
9750.00,1.35
9749.00,1.37
9748.00,1.39
9747.00,1.41
9746.00,1.43
9745.00,1.44
9744.00,1.46
9743.00,1.48
9742.00,1.50
9741.00,1.52
9740.00,1.54
9739.00,1.55
9738.00,1.57
9737.00,1.59
9736.00,1.61
9735.00,1.63
9734.00,1.65
9733.00,1.67
9732.00,1.69
9731.00,1.71
9730.00,1.73
9729.00,1.75
9728.00,1.77
9727.00,1.78
9726.00,1.80
9725.00,1.82
9724.00,1.83
9723.00,1.84
9722.00,1.85
9721.00,1.87
9720.00,1.88
9719.00,1.89
9718.00,1.89
9717.00,1.90
9716.00,1.91
9715.00,1.92
9714.00,1.92
9713.00,1.93
9712.00,1.94
9711.00,1.94
9710.00,1.95
9709.00,1.95
9708.00,1.96
9707.00,1.96
9706.00,1.97
9705.00,1.98
9704.00,1.99
9703.00,1.99
9702.00,2.00
9701.00,2.01
9700.00,2.01
9699.00,2.02
9698.00,2.03
9697.00,2.03
9696.00,2.04
9695.00,2.04
9694.00,2.04
9693.00,2.04
9692.00,2.04
9691.00,2.04
9690.00,2.03
9689.00,2.03
9688.00,2.02
9687.00,2.01
9686.00,2.00
9685.00,1.99
9684.00,1.97
9683.00,1.95
9682.00,1.93
9681.00,1.91
9680.00,1.88
9679.00,1.85
9678.00,1.82
9677.00,1.79
9676.00,1.75
9675.00,1.72
9674.00,1.69
9673.00,1.65
9672.00,1.62
9671.00,1.58
9670.00,1.55
9669.00,1.51
9668.00,1.48
9667.00,1.45
9666.00,1.42
9665.00,1.39
9664.00,1.36
9663.00,1.33
9662.00,1.30
9661.00,1.28
9660.00,1.26
9659.00,1.24
9658.00,1.23
9657.00,1.21
9656.00,1.20
9655.00,1.19
9654.00,1.18
9653.00,1.17
9652.00,1.17
9651.00,1.17
9650.00,1.16
9649.00,1.16
9648.00,1.16
9647.00,1.16
9646.00,1.15
9645.00,1.15
9644.00,1.16
9643.00,1.16
9642.00,1.16
9641.00,1.16
9640.00,1.16
9639.00,1.16
9638.00,1.16
9637.00,1.16
9636.00,1.17
9635.00,1.17
9634.00,1.17
9633.00,1.17
9632.00,1.17
9631.00,1.17
9630.00,1.17
9629.00,1.17
9628.00,1.17
9627.00,1.17
9626.00,1.17
9625.00,1.17
9624.00,1.16
9623.00,1.16
9622.00,1.16
9621.00,1.15
9620.00,1.15
9619.00,1.14
9618.00,1.14
9617.00,1.13
9616.00,1.13
9615.00,1.13
9614.00,1.13
9613.00,1.13
9612.00,1.12
9611.00,1.13
9610.00,1.13
9609.00,1.13
9608.00,1.14
9607.00,1.14
9606.00,1.15
9605.00,1.16
9604.00,1.18
9603.00,1.19
9602.00,1.21
9601.00,1.24
9600.00,1.26
9599.00,1.29
9598.00,1.33
9597.00,1.36
9596.00,1.40
9595.00,1.44
9594.00,1.48
9593.00,1.52
9592.00,1.57
9591.00,1.61
9590.00,1.65
9589.00,1.69
9588.00,1.74
9587.00,1.78
9586.00,1.82
9585.00,1.86
9584.00,1.90
9583.00,1.93
9582.00,1.97
9581.00,2.00
9580.00,2.03
9579.00,2.05
9578.00,2.08
9577.00,2.09
9576.00,2.11
9575.00,2.11
9574.00,2.12
9573.00,2.12
9572.00,2.12
9571.00,2.11
9570.00,2.10
9569.00,2.08
9568.00,2.07
9567.00,2.05
9566.00,2.03
9565.00,2.02
9564.00,2.00
9563.00,1.98
9562.00,1.96
9561.00,1.94
9560.00,1.92
9559.00,1.89
9558.00,1.87
9557.00,1.85
9556.00,1.83
9555.00,1.81
9554.00,1.79
9553.00,1.77
9552.00,1.76
9551.00,1.74
9550.00,1.73
9549.00,1.72
9548.00,1.70
9547.00,1.69
9546.00,1.68
9545.00,1.68
9544.00,1.67
9543.00,1.67
9542.00,1.67
9541.00,1.67
9540.00,1.67
9539.00,1.68
9538.00,1.68
9537.00,1.69
9536.00,1.70
9535.00,1.71
9534.00,1.72
9533.00,1.73
9532.00,1.75
9531.00,1.76
9530.00,1.77
9529.00,1.77
9528.00,1.78
9527.00,1.79
9526.00,1.80
9525.00,1.81
9524.00,1.83
9523.00,1.84
9522.00,1.85
9521.00,1.87
9520.00,1.88
9519.00,1.89
9518.00,1.91
9517.00,1.92
9516.00,1.92
9515.00,1.92
9514.00,1.92
9513.00,1.92
9512.00,1.91
9511.00,1.90
9510.00,1.89
9509.00,1.88
9508.00,1.87
9507.00,1.85
9506.00,1.84
9505.00,1.83
9504.00,1.81
9503.00,1.80
9502.00,1.79
9501.00,1.78
9500.00,1.77
9499.00,1.75
9498.00,1.74
9497.00,1.73
9496.00,1.72
9495.00,1.71
9494.00,1.70
9493.00,1.69
9492.00,1.68
9491.00,1.67
9490.00,1.67
9489.00,1.66
9488.00,1.66
9487.00,1.65
9486.00,1.65
9485.00,1.65
9484.00,1.66
9483.00,1.66
9482.00,1.66
9481.00,1.66
9480.00,1.67
9479.00,1.67
9478.00,1.68
9477.00,1.68
9476.00,1.69
9475.00,1.69
9474.00,1.69
9473.00,1.70
9472.00,1.70
9471.00,1.70
9470.00,1.69
9469.00,1.69
9468.00,1.68
9467.00,1.67
9466.00,1.66
9465.00,1.65
9464.00,1.63
9463.00,1.62
9462.00,1.60
9461.00,1.59
9460.00,1.57
9459.00,1.56
9458.00,1.54
9457.00,1.53
9456.00,1.51
9455.00,1.49
9454.00,1.48
9453.00,1.46
9452.00,1.44
9451.00,1.42
9450.00,1.41
9449.00,1.39
9448.00,1.37
9447.00,1.35
9446.00,1.34
9445.00,1.33
9444.00,1.32
9443.00,1.31
9442.00,1.30
9441.00,1.30
9440.00,1.30
9439.00,1.30
9438.00,1.31
9437.00,1.32
9436.00,1.33
9435.00,1.34
9434.00,1.35
9433.00,1.37
9432.00,1.38
9431.00,1.40
9430.00,1.42
9429.00,1.44
9428.00,1.46
9427.00,1.48
9426.00,1.49
9425.00,1.51
9424.00,1.53
9423.00,1.55
9422.00,1.56
9421.00,1.58
9420.00,1.59
9419.00,1.60
9418.00,1.61
9417.00,1.62
9416.00,1.63
9415.00,1.63
9414.00,1.63
9413.00,1.63
9412.00,1.62
9411.00,1.62
9410.00,1.61
9409.00,1.60
9408.00,1.59
9407.00,1.57
9406.00,1.56
9405.00,1.54
9404.00,1.52
9403.00,1.50
9402.00,1.48
9401.00,1.46
9400.00,1.44
9399.00,1.42
9398.00,1.40
9397.00,1.39
9396.00,1.37
9395.00,1.36
9394.00,1.35
9393.00,1.34
9392.00,1.33
9391.00,1.33
9390.00,1.32
9389.00,1.32
9388.00,1.32
9387.00,1.32
9386.00,1.32
9385.00,1.33
9384.00,1.33
9383.00,1.34
9382.00,1.35
9381.00,1.36
9380.00,1.38
9379.00,1.39
9378.00,1.40
9377.00,1.41
9376.00,1.43
9375.00,1.44
9374.00,1.45
9373.00,1.46
9372.00,1.46
9371.00,1.47
9370.00,1.48
9369.00,1.49
9368.00,1.49
9367.00,1.49
9366.00,1.50
9365.00,1.50
9364.00,1.50
9363.00,1.51
9362.00,1.51
9361.00,1.51
9360.00,1.51
9359.00,1.51
9358.00,1.51
9357.00,1.50
9356.00,1.50
9355.00,1.50
9354.00,1.50
9353.00,1.50
9352.00,1.50
9351.00,1.51
9350.00,1.52
9349.00,1.53
9348.00,1.54
9347.00,1.56
9346.00,1.57
9345.00,1.59
9344.00,1.60
9343.00,1.62
9342.00,1.63
9341.00,1.65
9340.00,1.66
9339.00,1.67
9338.00,1.68
9337.00,1.68
9336.00,1.69
9335.00,1.69
9334.00,1.70
9333.00,1.70
9332.00,1.71
9331.00,1.71
9330.00,1.71
9329.00,1.71
9328.00,1.71
9327.00,1.71
9326.00,1.71
9325.00,1.71
9324.00,1.70
9323.00,1.69
9322.00,1.69
9321.00,1.68
9320.00,1.66
9319.00,1.65
9318.00,1.64
9317.00,1.63
9316.00,1.62
9315.00,1.61
9314.00,1.60
9313.00,1.60
9312.00,1.60
9311.00,1.59
9310.00,1.60
9309.00,1.60
9308.00,1.60
9307.00,1.61
9306.00,1.62
9305.00,1.62
9304.00,1.63
9303.00,1.64
9302.00,1.65
9301.00,1.65
9300.00,1.66
9299.00,1.66
9298.00,1.66
9297.00,1.67
9296.00,1.67
9295.00,1.67
9294.00,1.67
9293.00,1.68
9292.00,1.68
9291.00,1.69
9290.00,1.69
9289.00,1.70
9288.00,1.71
9287.00,1.71
9286.00,1.72
9285.00,1.73
9284.00,1.73
9283.00,1.73
9282.00,1.73
9281.00,1.73
9280.00,1.73
9279.00,1.73
9278.00,1.72
9277.00,1.72
9276.00,1.72
9275.00,1.71
9274.00,1.71
9273.00,1.71
9272.00,1.70
9271.00,1.70
9270.00,1.70
9269.00,1.70
9268.00,1.69
9267.00,1.69
9266.00,1.68
9265.00,1.67
9264.00,1.66
9263.00,1.65
9262.00,1.63
9261.00,1.62
9260.00,1.61
9259.00,1.59
9258.00,1.58
9257.00,1.57
9256.00,1.56
9255.00,1.55
9254.00,1.54
9253.00,1.54
9252.00,1.53
9251.00,1.53
9250.00,1.53
9249.00,1.52
9248.00,1.52
9247.00,1.51
9246.00,1.51
9245.00,1.51
9244.00,1.50
9243.00,1.50
9242.00,1.50
9241.00,1.50
9240.00,1.50
9239.00,1.51
9238.00,1.51
9237.00,1.52
9236.00,1.53
9235.00,1.54
9234.00,1.54
9233.00,1.55
9232.00,1.56
9231.00,1.56
9230.00,1.56
9229.00,1.56
9228.00,1.56
9227.00,1.56
9226.00,1.56
9225.00,1.56
9224.00,1.56
9223.00,1.57
9222.00,1.57
9221.00,1.57
9220.00,1.57
9219.00,1.57
9218.00,1.58
9217.00,1.58
9216.00,1.58
9215.00,1.58
9214.00,1.58
9213.00,1.58
9212.00,1.58
9211.00,1.58
9210.00,1.58
9209.00,1.58
9208.00,1.58
9207.00,1.59
9206.00,1.59
9205.00,1.60
9204.00,1.60
9203.00,1.61
9202.00,1.62
9201.00,1.64
9200.00,1.65
9199.00,1.66
9198.00,1.68
9197.00,1.69
9196.00,1.71
9195.00,1.72
9194.00,1.73
9193.00,1.75
9192.00,1.77
9191.00,1.78
9190.00,1.80
9189.00,1.82
9188.00,1.83
9187.00,1.85
9186.00,1.87
9185.00,1.89
9184.00,1.91
9183.00,1.93
9182.00,1.95
9181.00,1.96
9180.00,1.98
9179.00,2.00
9178.00,2.01
9177.00,2.03
9176.00,2.04
9175.00,2.05
9174.00,2.06
9173.00,2.07
9172.00,2.07
9171.00,2.08
9170.00,2.08
9169.00,2.08
9168.00,2.09
9167.00,2.09
9166.00,2.09
9165.00,2.09
9164.00,2.09
9163.00,2.09
9162.00,2.09
9161.00,2.09
9160.00,2.08
9159.00,2.08
9158.00,2.07
9157.00,2.06
9156.00,2.04
9155.00,2.03
9154.00,2.02
9153.00,2.00
9152.00,1.99
9151.00,1.97
9150.00,1.96
9149.00,1.94
9148.00,1.93
9147.00,1.91
9146.00,1.90
9145.00,1.89
9144.00,1.88
9143.00,1.87
9142.00,1.86
9141.00,1.85
9140.00,1.84
9139.00,1.83
9138.00,1.81
9137.00,1.80
9136.00,1.79
9135.00,1.79
9134.00,1.78
9133.00,1.77
9132.00,1.77
9131.00,1.77
9130.00,1.77
9129.00,1.77
9128.00,1.77
9127.00,1.77
9126.00,1.77
9125.00,1.77
9124.00,1.77
9123.00,1.78
9122.00,1.78
9121.00,1.78
9120.00,1.78
9119.00,1.77
9118.00,1.77
9117.00,1.77
9116.00,1.76
9115.00,1.76
9114.00,1.75
9113.00,1.75
9112.00,1.74
9111.00,1.74
9110.00,1.74
9109.00,1.73
9108.00,1.73
9107.00,1.72
9106.00,1.71
9105.00,1.71
9104.00,1.70
9103.00,1.69
9102.00,1.68
9101.00,1.68
9100.00,1.67
9099.00,1.66
9098.00,1.65
9097.00,1.64
9096.00,1.64
9095.00,1.63
9094.00,1.63
9093.00,1.63
9092.00,1.63
9091.00,1.63
9090.00,1.64
9089.00,1.64
9088.00,1.64
9087.00,1.65
9086.00,1.65
9085.00,1.66
9084.00,1.66
9083.00,1.66
9082.00,1.66
9081.00,1.67
9080.00,1.67
9079.00,1.66
9078.00,1.66
9077.00,1.66
9076.00,1.66
9075.00,1.66
9074.00,1.65
9073.00,1.65
9072.00,1.65
9071.00,1.64
9070.00,1.64
9069.00,1.63
9068.00,1.62
9067.00,1.61
9066.00,1.61
9065.00,1.60
9064.00,1.60
9063.00,1.59
9062.00,1.58
9061.00,1.58
9060.00,1.58
9059.00,1.57
9058.00,1.57
9057.00,1.57
9056.00,1.57
9055.00,1.57
9054.00,1.57
9053.00,1.57
9052.00,1.58
9051.00,1.58
9050.00,1.59
9049.00,1.60
9048.00,1.60
9047.00,1.61
9046.00,1.63
9045.00,1.64
9044.00,1.66
9043.00,1.67
9042.00,1.69
9041.00,1.71
9040.00,1.73
9039.00,1.74
9038.00,1.76
9037.00,1.77
9036.00,1.78
9035.00,1.79
9034.00,1.80
9033.00,1.80
9032.00,1.80
9031.00,1.81
9030.00,1.80
9029.00,1.80
9028.00,1.80
9027.00,1.79
9026.00,1.79
9025.00,1.78
9024.00,1.77
9023.00,1.77
9022.00,1.76
9021.00,1.76
9020.00,1.75
9019.00,1.74
9018.00,1.72
9017.00,1.71
9016.00,1.69
9015.00,1.67
9014.00,1.65
9013.00,1.63
9012.00,1.60
9011.00,1.58
9010.00,1.56
9009.00,1.54
9008.00,1.52
9007.00,1.50
9006.00,1.49
9005.00,1.47
9004.00,1.46
9003.00,1.45
9002.00,1.45
9001.00,1.44
9000.00,1.43
8999.00,1.42
8998.00,1.41
8997.00,1.40
8996.00,1.39
8995.00,1.38
8994.00,1.36
8993.00,1.35
8992.00,1.35
8991.00,1.34
8990.00,1.34
8989.00,1.33
8988.00,1.34
8987.00,1.34
8986.00,1.35
8985.00,1.36
8984.00,1.36
8983.00,1.37
8982.00,1.38
8981.00,1.39
8980.00,1.40
8979.00,1.41
8978.00,1.42
8977.00,1.42
8976.00,1.43
8975.00,1.45
8974.00,1.46
8973.00,1.47
8972.00,1.49
8971.00,1.50
8970.00,1.52
8969.00,1.54
8968.00,1.56
8967.00,1.58
8966.00,1.60
8965.00,1.61
8964.00,1.63
8963.00,1.64
8962.00,1.65
8961.00,1.66
8960.00,1.67
8959.00,1.68
8958.00,1.68
8957.00,1.69
8956.00,1.69
8955.00,1.69
8954.00,1.69
8953.00,1.69
8952.00,1.69
8951.00,1.68
8950.00,1.68
8949.00,1.67
8948.00,1.66
8947.00,1.65
8946.00,1.63
8945.00,1.62
8944.00,1.60
8943.00,1.58
8942.00,1.57
8941.00,1.55
8940.00,1.53
8939.00,1.52
8938.00,1.50
8937.00,1.48
8936.00,1.46
8935.00,1.45
8934.00,1.43
8933.00,1.42
8932.00,1.40
8931.00,1.39
8930.00,1.38
8929.00,1.37
8928.00,1.36
8927.00,1.35
8926.00,1.35
8925.00,1.35
8924.00,1.35
8923.00,1.35
8922.00,1.35
8921.00,1.36
8920.00,1.36
8919.00,1.37
8918.00,1.38
8917.00,1.39
8916.00,1.40
8915.00,1.41
8914.00,1.42
8913.00,1.42
8912.00,1.43
8911.00,1.44
8910.00,1.45
8909.00,1.46
8908.00,1.47
8907.00,1.48
8906.00,1.49
8905.00,1.50
8904.00,1.51
8903.00,1.52
8902.00,1.52
8901.00,1.53
8900.00,1.53
8899.00,1.54
8898.00,1.54
8897.00,1.54
8896.00,1.54
8895.00,1.55
8894.00,1.55
8893.00,1.55
8892.00,1.55
8891.00,1.56
8890.00,1.56
8889.00,1.57
8888.00,1.57
8887.00,1.58
8886.00,1.59
8885.00,1.59
8884.00,1.60
8883.00,1.61
8882.00,1.62
8881.00,1.63
8880.00,1.64
8879.00,1.65
8878.00,1.66
8877.00,1.67
8876.00,1.68
8875.00,1.69
8874.00,1.70
8873.00,1.71
8872.00,1.72
8871.00,1.72
8870.00,1.73
8869.00,1.73
8868.00,1.74
8867.00,1.74
8866.00,1.73
8865.00,1.73
8864.00,1.73
8863.00,1.72
8862.00,1.72
8861.00,1.71
8860.00,1.71
8859.00,1.70
8858.00,1.69
8857.00,1.68
8856.00,1.67
8855.00,1.66
8854.00,1.65
8853.00,1.64
8852.00,1.62
8851.00,1.61
8850.00,1.59
8849.00,1.58
8848.00,1.57
8847.00,1.55
8846.00,1.54
8845.00,1.53
8844.00,1.52
8843.00,1.51
8842.00,1.50
8841.00,1.49
8840.00,1.49
8839.00,1.48
8838.00,1.48
8837.00,1.47
8836.00,1.47
8835.00,1.47
8834.00,1.47
8833.00,1.47
8832.00,1.47
8831.00,1.47
8830.00,1.47
8829.00,1.47
8828.00,1.47
8827.00,1.48
8826.00,1.48
8825.00,1.49
8824.00,1.49
8823.00,1.50
8822.00,1.51
8821.00,1.52
8820.00,1.53
8819.00,1.54
8818.00,1.55
8817.00,1.56
8816.00,1.58
8815.00,1.59
8814.00,1.60
8813.00,1.62
8812.00,1.63
8811.00,1.65
8810.00,1.66
8809.00,1.67
8808.00,1.68
8807.00,1.69
8806.00,1.70
8805.00,1.71
8804.00,1.72
8803.00,1.73
8802.00,1.74
8801.00,1.75
8800.00,1.76
8799.00,1.77
8798.00,1.78
8797.00,1.78
8796.00,1.79
8795.00,1.80
8794.00,1.80
8793.00,1.81
8792.00,1.81
8791.00,1.81
8790.00,1.82
8789.00,1.82
8788.00,1.82
8787.00,1.82
8786.00,1.82
8785.00,1.82
8784.00,1.82
8783.00,1.82
8782.00,1.82
8781.00,1.81
8780.00,1.81
8779.00,1.81
8778.00,1.80
8777.00,1.80
8776.00,1.79
8775.00,1.79
8774.00,1.79
8773.00,1.78
8772.00,1.78
8771.00,1.77
8770.00,1.77
8769.00,1.76
8768.00,1.75
8767.00,1.75
8766.00,1.73
8765.00,1.72
8764.00,1.71
8763.00,1.70
8762.00,1.69
8761.00,1.68
8760.00,1.66
8759.00,1.66
8758.00,1.65
8757.00,1.64
8756.00,1.64
8755.00,1.64
8754.00,1.64
8753.00,1.64
8752.00,1.64
8751.00,1.64
8750.00,1.65
8749.00,1.65
8748.00,1.65
8747.00,1.65
8746.00,1.66
8745.00,1.66
8744.00,1.66
8743.00,1.66
8742.00,1.66
8741.00,1.67
8740.00,1.67
8739.00,1.67
8738.00,1.68
8737.00,1.69
8736.00,1.69
8735.00,1.70
8734.00,1.70
8733.00,1.71
8732.00,1.71
8731.00,1.71
8730.00,1.71
8729.00,1.71
8728.00,1.71
8727.00,1.71
8726.00,1.71
8725.00,1.71
8724.00,1.70
8723.00,1.70
8722.00,1.70
8721.00,1.69
8720.00,1.69
8719.00,1.69
8718.00,1.68
8717.00,1.68
8716.00,1.68
8715.00,1.69
8714.00,1.69
8713.00,1.69
8712.00,1.69
8711.00,1.69
8710.00,1.70
8709.00,1.70
8708.00,1.70
8707.00,1.70
8706.00,1.70
8705.00,1.70
8704.00,1.71
8703.00,1.71
8702.00,1.71
8701.00,1.72
8700.00,1.72
8699.00,1.72
8698.00,1.73
8697.00,1.74
8696.00,1.75
8695.00,1.75
8694.00,1.76
8693.00,1.77
8692.00,1.78
8691.00,1.78
8690.00,1.79
8689.00,1.80
8688.00,1.80
8687.00,1.81
8686.00,1.81
8685.00,1.81
8684.00,1.82
8683.00,1.82
8682.00,1.82
8681.00,1.81
8680.00,1.81
8679.00,1.81
8678.00,1.80
8677.00,1.80
8676.00,1.79
8675.00,1.78
8674.00,1.77
8673.00,1.76
8672.00,1.75
8671.00,1.73
8670.00,1.72
8669.00,1.70
8668.00,1.68
8667.00,1.65
8666.00,1.63
8665.00,1.61
8664.00,1.58
8663.00,1.56
8662.00,1.54
8661.00,1.51
8660.00,1.49
8659.00,1.47
8658.00,1.45
8657.00,1.43
8656.00,1.42
8655.00,1.40
8654.00,1.39
8653.00,1.38
8652.00,1.37
8651.00,1.37
8650.00,1.36
8649.00,1.35
8648.00,1.35
8647.00,1.35
8646.00,1.35
8645.00,1.36
8644.00,1.36
8643.00,1.37
8642.00,1.38
8641.00,1.39
8640.00,1.41
8639.00,1.42
8638.00,1.44
8637.00,1.45
8636.00,1.47
8635.00,1.48
8634.00,1.49
8633.00,1.50
8632.00,1.52
8631.00,1.53
8630.00,1.53
8629.00,1.54
8628.00,1.55
8627.00,1.55
8626.00,1.56
8625.00,1.56
8624.00,1.57
8623.00,1.57
8622.00,1.57
8621.00,1.57
8620.00,1.57
8619.00,1.57
8618.00,1.57
8617.00,1.56
8616.00,1.56
8615.00,1.55
8614.00,1.55
8613.00,1.54
8612.00,1.53
8611.00,1.53
8610.00,1.52
8609.00,1.52
8608.00,1.52
8607.00,1.52
8606.00,1.52
8605.00,1.52
8604.00,1.53
8603.00,1.53
8602.00,1.54
8601.00,1.54
8600.00,1.55
8599.00,1.56
8598.00,1.57
8597.00,1.58
8596.00,1.59
8595.00,1.61
8594.00,1.62
8593.00,1.64
8592.00,1.66
8591.00,1.68
8590.00,1.70
8589.00,1.72
8588.00,1.74
8587.00,1.76
8586.00,1.78
8585.00,1.80
8584.00,1.82
8583.00,1.84
8582.00,1.86
8581.00,1.88
8580.00,1.89
8579.00,1.90
8578.00,1.92
8577.00,1.93
8576.00,1.93
8575.00,1.94
8574.00,1.95
8573.00,1.96
8572.00,1.96
8571.00,1.97
8570.00,1.97
8569.00,1.97
8568.00,1.97
8567.00,1.97
8566.00,1.97
8565.00,1.96
8564.00,1.96
8563.00,1.95
8562.00,1.94
8561.00,1.93
8560.00,1.92
8559.00,1.91
8558.00,1.90
8557.00,1.89
8556.00,1.88
8555.00,1.87
8554.00,1.86
8553.00,1.85
8552.00,1.84
8551.00,1.83
8550.00,1.82
8549.00,1.81
8548.00,1.80
8547.00,1.79
8546.00,1.78
8545.00,1.77
8544.00,1.76
8543.00,1.75
8542.00,1.73
8541.00,1.72
8540.00,1.70
8539.00,1.69
8538.00,1.68
8537.00,1.66
8536.00,1.65
8535.00,1.64
8534.00,1.63
8533.00,1.63
8532.00,1.62
8531.00,1.61
8530.00,1.61
8529.00,1.60
8528.00,1.60
8527.00,1.59
8526.00,1.59
8525.00,1.59
8524.00,1.58
8523.00,1.57
8522.00,1.57
8521.00,1.56
8520.00,1.55
8519.00,1.55
8518.00,1.54
8517.00,1.54
8516.00,1.54
8515.00,1.54
8514.00,1.54
8513.00,1.55
8512.00,1.55
8511.00,1.56
8510.00,1.56
8509.00,1.57
8508.00,1.57
8507.00,1.57
8506.00,1.57
8505.00,1.57
8504.00,1.57
8503.00,1.57
8502.00,1.57
8501.00,1.57
8500.00,1.56
8499.00,1.56
8498.00,1.56
8497.00,1.57
8496.00,1.57
8495.00,1.58
8494.00,1.58
8493.00,1.59
8492.00,1.60
8491.00,1.60
8490.00,1.61
8489.00,1.61
8488.00,1.61
8487.00,1.61
8486.00,1.61
8485.00,1.60
8484.00,1.60
8483.00,1.60
8482.00,1.59
8481.00,1.59
8480.00,1.59
8479.00,1.59
8478.00,1.60
8477.00,1.60
8476.00,1.61
8475.00,1.62
8474.00,1.62
8473.00,1.63
8472.00,1.64
8471.00,1.65
8470.00,1.65
8469.00,1.66
8468.00,1.66
8467.00,1.67
8466.00,1.67
8465.00,1.68
8464.00,1.68
8463.00,1.69
8462.00,1.69
8461.00,1.70
8460.00,1.71
8459.00,1.72
8458.00,1.73
8457.00,1.74
8456.00,1.75
8455.00,1.75
8454.00,1.75
8453.00,1.75
8452.00,1.75
8451.00,1.74
8450.00,1.73
8449.00,1.72
8448.00,1.71
8447.00,1.69
8446.00,1.68
8445.00,1.66
8444.00,1.65
8443.00,1.63
8442.00,1.61
8441.00,1.60
8440.00,1.58
8439.00,1.57
8438.00,1.55
8437.00,1.54
8436.00,1.53
8435.00,1.51
8434.00,1.50
8433.00,1.49
8432.00,1.49
8431.00,1.48
8430.00,1.48
8429.00,1.48
8428.00,1.48
8427.00,1.48
8426.00,1.49
8425.00,1.50
8424.00,1.52
8423.00,1.53
8422.00,1.55
8421.00,1.56
8420.00,1.58
8419.00,1.59
8418.00,1.61
8417.00,1.62
8416.00,1.64
8415.00,1.65
8414.00,1.67
8413.00,1.68
8412.00,1.70
8411.00,1.71
8410.00,1.72
8409.00,1.73
8408.00,1.73
8407.00,1.73
8406.00,1.74
8405.00,1.73
8404.00,1.73
8403.00,1.72
8402.00,1.71
8401.00,1.70
8400.00,1.69
8399.00,1.68
8398.00,1.66
8397.00,1.65
8396.00,1.64
8395.00,1.62
8394.00,1.61
8393.00,1.60
8392.00,1.59
8391.00,1.58
8390.00,1.57
8389.00,1.56
8388.00,1.55
8387.00,1.54
8386.00,1.53
8385.00,1.52
8384.00,1.51
8383.00,1.50
8382.00,1.50
8381.00,1.49
8380.00,1.49
8379.00,1.49
8378.00,1.49
8377.00,1.50
8376.00,1.50
8375.00,1.50
8374.00,1.51
8373.00,1.51
8372.00,1.52
8371.00,1.52
8370.00,1.53
8369.00,1.53
8368.00,1.53
8367.00,1.54
8366.00,1.54
8365.00,1.55
8364.00,1.55
8363.00,1.55
8362.00,1.55
8361.00,1.55
8360.00,1.55
8359.00,1.55
8358.00,1.55
8357.00,1.55
8356.00,1.55
8355.00,1.55
8354.00,1.54
8353.00,1.54
8352.00,1.54
8351.00,1.53
8350.00,1.53
8349.00,1.52
8348.00,1.51
8347.00,1.50
8346.00,1.49
8345.00,1.48
8344.00,1.47
8343.00,1.46
8342.00,1.44
8341.00,1.43
8340.00,1.42
8339.00,1.40
8338.00,1.39
8337.00,1.38
8336.00,1.37
8335.00,1.36
8334.00,1.34
8333.00,1.33
8332.00,1.32
8331.00,1.31
8330.00,1.30
8329.00,1.29
8328.00,1.28
8327.00,1.27
8326.00,1.27
8325.00,1.26
8324.00,1.25
8323.00,1.25
8322.00,1.24
8321.00,1.24
8320.00,1.24
8319.00,1.24
8318.00,1.24
8317.00,1.25
8316.00,1.25
8315.00,1.26
8314.00,1.26
8313.00,1.27
8312.00,1.27
8311.00,1.27
8310.00,1.28
8309.00,1.28
8308.00,1.29
8307.00,1.30
8306.00,1.31
8305.00,1.32
8304.00,1.33
8303.00,1.34
8302.00,1.36
8301.00,1.37
8300.00,1.39
8299.00,1.41
8298.00,1.42
8297.00,1.44
8296.00,1.46
8295.00,1.48
8294.00,1.50
8293.00,1.51
8292.00,1.53
8291.00,1.55
8290.00,1.56
8289.00,1.58
8288.00,1.59
8287.00,1.61
8286.00,1.63
8285.00,1.65
8284.00,1.66
8283.00,1.68
8282.00,1.69
8281.00,1.71
8280.00,1.72
8279.00,1.73
8278.00,1.73
8277.00,1.74
8276.00,1.74
8275.00,1.74
8274.00,1.75
8273.00,1.75
8272.00,1.74
8271.00,1.74
8270.00,1.74
8269.00,1.73
8268.00,1.73
8267.00,1.73
8266.00,1.72
8265.00,1.71
8264.00,1.71
8263.00,1.70
8262.00,1.69
8261.00,1.69
8260.00,1.68
8259.00,1.67
8258.00,1.66
8257.00,1.66
8256.00,1.65
8255.00,1.65
8254.00,1.65
8253.00,1.65
8252.00,1.64
8251.00,1.64
8250.00,1.64
8249.00,1.64
8248.00,1.64
8247.00,1.64
8246.00,1.63
8245.00,1.63
8244.00,1.63
8243.00,1.62
8242.00,1.62
8241.00,1.62
8240.00,1.62
8239.00,1.62
8238.00,1.62
8237.00,1.62
8236.00,1.61
8235.00,1.61
8234.00,1.61
8233.00,1.61
8232.00,1.60
8231.00,1.60
8230.00,1.59
8229.00,1.59
8228.00,1.58
8227.00,1.58
8226.00,1.57
8225.00,1.57
8224.00,1.56
8223.00,1.56
8222.00,1.56
8221.00,1.56
8220.00,1.57
8219.00,1.57
8218.00,1.58
8217.00,1.58
8216.00,1.59
8215.00,1.60
8214.00,1.60
8213.00,1.61
8212.00,1.62
8211.00,1.63
8210.00,1.64
8209.00,1.65
8208.00,1.66
8207.00,1.67
8206.00,1.69
8205.00,1.70
8204.00,1.72
8203.00,1.73
8202.00,1.75
8201.00,1.76
8200.00,1.78
8199.00,1.79
8198.00,1.80
8197.00,1.81
8196.00,1.82
8195.00,1.82
8194.00,1.83
8193.00,1.83
8192.00,1.83
8191.00,1.83
8190.00,1.83
8189.00,1.83
8188.00,1.83
8187.00,1.82
8186.00,1.82
8185.00,1.82
8184.00,1.81
8183.00,1.80
8182.00,1.80
8181.00,1.79
8180.00,1.78
8179.00,1.78
8178.00,1.77
8177.00,1.76
8176.00,1.75
8175.00,1.75
8174.00,1.74
8173.00,1.73
8172.00,1.72
8171.00,1.71
8170.00,1.70
8169.00,1.70
8168.00,1.69
8167.00,1.68
8166.00,1.68
8165.00,1.67
8164.00,1.67
8163.00,1.66
8162.00,1.66
8161.00,1.65
8160.00,1.65
8159.00,1.64
8158.00,1.64
8157.00,1.63
8156.00,1.62
8155.00,1.62
8154.00,1.61
8153.00,1.60
8152.00,1.60
8151.00,1.59
8150.00,1.59
8149.00,1.58
8148.00,1.58
8147.00,1.58
8146.00,1.58
8145.00,1.58
8144.00,1.58
8143.00,1.58
8142.00,1.59
8141.00,1.59
8140.00,1.60
8139.00,1.60
8138.00,1.61
8137.00,1.61
8136.00,1.62
8135.00,1.62
8134.00,1.63
8133.00,1.64
8132.00,1.65
8131.00,1.65
8130.00,1.66
8129.00,1.67
8128.00,1.67
8127.00,1.68
8126.00,1.69
8125.00,1.69
8124.00,1.69
8123.00,1.70
8122.00,1.70
8121.00,1.70
8120.00,1.70
8119.00,1.69
8118.00,1.69
8117.00,1.69
8116.00,1.68
8115.00,1.67
8114.00,1.67
8113.00,1.66
8112.00,1.65
8111.00,1.64
8110.00,1.63
8109.00,1.61
8108.00,1.60
8107.00,1.59
8106.00,1.58
8105.00,1.57
8104.00,1.56
8103.00,1.55
8102.00,1.55
8101.00,1.54
8100.00,1.53
8099.00,1.52
8098.00,1.51
8097.00,1.50
8096.00,1.49
8095.00,1.48
8094.00,1.48
8093.00,1.47
8092.00,1.47
8091.00,1.46
8090.00,1.46
8089.00,1.46
8088.00,1.46
8087.00,1.46
8086.00,1.47
8085.00,1.47
8084.00,1.48
8083.00,1.48
8082.00,1.49
8081.00,1.50
8080.00,1.50
8079.00,1.51
8078.00,1.52
8077.00,1.53
8076.00,1.53
8075.00,1.54
8074.00,1.55
8073.00,1.56
8072.00,1.57
8071.00,1.58
8070.00,1.59
8069.00,1.59
8068.00,1.60
8067.00,1.61
8066.00,1.61
8065.00,1.62
8064.00,1.62
8063.00,1.62
8062.00,1.62
8061.00,1.61
8060.00,1.61
8059.00,1.60
8058.00,1.59
8057.00,1.59
8056.00,1.58
8055.00,1.57
8054.00,1.56
8053.00,1.56
8052.00,1.55
8051.00,1.54
8050.00,1.54
8049.00,1.53
8048.00,1.52
8047.00,1.52
8046.00,1.51
8045.00,1.51
8044.00,1.50
8043.00,1.50
8042.00,1.50
8041.00,1.49
8040.00,1.49
8039.00,1.49
8038.00,1.50
8037.00,1.50
8036.00,1.50
8035.00,1.51
8034.00,1.52
8033.00,1.52
8032.00,1.53
8031.00,1.54
8030.00,1.55
8029.00,1.55
8028.00,1.56
8027.00,1.57
8026.00,1.58
8025.00,1.59
8024.00,1.60
8023.00,1.61
8022.00,1.62
8021.00,1.63
8020.00,1.64
8019.00,1.65
8018.00,1.66
8017.00,1.67
8016.00,1.68
8015.00,1.69
8014.00,1.70
8013.00,1.71
8012.00,1.72
8011.00,1.73
8010.00,1.74
8009.00,1.75
8008.00,1.77
8007.00,1.78
8006.00,1.79
8005.00,1.80
8004.00,1.81
8003.00,1.82
8002.00,1.82
8001.00,1.83
8000.00,1.84
7999.00,1.84
7998.00,1.85
7997.00,1.86
7996.00,1.86
7995.00,1.87
7994.00,1.87
7993.00,1.88
7992.00,1.89
7991.00,1.90
7990.00,1.91
7989.00,1.92
7988.00,1.93
7987.00,1.94
7986.00,1.94
7985.00,1.95
7984.00,1.96
7983.00,1.96
7982.00,1.97
7981.00,1.97
7980.00,1.98
7979.00,1.98
7978.00,1.99
7977.00,1.99
7976.00,1.99
7975.00,2.00
7974.00,2.00
7973.00,2.00
7972.00,2.01
7971.00,2.01
7970.00,2.01
7969.00,2.01
7968.00,2.01
7967.00,2.01
7966.00,2.01
7965.00,2.00
7964.00,2.00
7963.00,1.99
7962.00,1.98
7961.00,1.97
7960.00,1.96
7959.00,1.95
7958.00,1.95
7957.00,1.94
7956.00,1.93
7955.00,1.92
7954.00,1.91
7953.00,1.90
7952.00,1.89
7951.00,1.88
7950.00,1.88
7949.00,1.87
7948.00,1.86
7947.00,1.85
7946.00,1.85
7945.00,1.84
7944.00,1.83
7943.00,1.83
7942.00,1.82
7941.00,1.82
7940.00,1.82
7939.00,1.81
7938.00,1.81
7937.00,1.81
7936.00,1.80
7935.00,1.80
7934.00,1.80
7933.00,1.80
7932.00,1.80
7931.00,1.80
7930.00,1.80
7929.00,1.80
7928.00,1.80
7927.00,1.81
7926.00,1.81
7925.00,1.82
7924.00,1.82
7923.00,1.83
7922.00,1.84
7921.00,1.84
7920.00,1.85
7919.00,1.86
7918.00,1.86
7917.00,1.87
7916.00,1.87
7915.00,1.87
7914.00,1.87
7913.00,1.88
7912.00,1.88
7911.00,1.88
7910.00,1.88
7909.00,1.88
7908.00,1.88
7907.00,1.88
7906.00,1.88
7905.00,1.88
7904.00,1.87
7903.00,1.87
7902.00,1.86
7901.00,1.85
7900.00,1.84
7899.00,1.83
7898.00,1.82
7897.00,1.81
7896.00,1.80
7895.00,1.79
7894.00,1.78
7893.00,1.77
7892.00,1.76
7891.00,1.75
7890.00,1.74
7889.00,1.73
7888.00,1.73
7887.00,1.72
7886.00,1.72
7885.00,1.71
7884.00,1.71
7883.00,1.71
7882.00,1.71
7881.00,1.71
7880.00,1.71
7879.00,1.71
7878.00,1.72
7877.00,1.72
7876.00,1.73
7875.00,1.73
7874.00,1.74
7873.00,1.74
7872.00,1.75
7871.00,1.76
7870.00,1.76
7869.00,1.77
7868.00,1.77
7867.00,1.78
7866.00,1.79
7865.00,1.79
7864.00,1.80
7863.00,1.80
7862.00,1.81
7861.00,1.81
7860.00,1.82
7859.00,1.82
7858.00,1.83
7857.00,1.83
7856.00,1.83
7855.00,1.83
7854.00,1.83
7853.00,1.83
7852.00,1.83
7851.00,1.82
7850.00,1.82
7849.00,1.82
7848.00,1.81
7847.00,1.81
7846.00,1.81
7845.00,1.81
7844.00,1.80
7843.00,1.80
7842.00,1.80
7841.00,1.79
7840.00,1.79
7839.00,1.79
7838.00,1.78
7837.00,1.78
7836.00,1.77
7835.00,1.77
7834.00,1.76
7833.00,1.76
7832.00,1.76
7831.00,1.75
7830.00,1.75
7829.00,1.75
7828.00,1.75
7827.00,1.75
7826.00,1.75
7825.00,1.76
7824.00,1.76
7823.00,1.76
7822.00,1.77
7821.00,1.77
7820.00,1.77
7819.00,1.77
7818.00,1.77
7817.00,1.77
7816.00,1.77
7815.00,1.77
7814.00,1.77
7813.00,1.77
7812.00,1.77
7811.00,1.77
7810.00,1.77
7809.00,1.77
7808.00,1.77
7807.00,1.77
7806.00,1.77
7805.00,1.77
7804.00,1.77
7803.00,1.76
7802.00,1.76
7801.00,1.76
7800.00,1.75
7799.00,1.75
7798.00,1.74
7797.00,1.74
7796.00,1.73
7795.00,1.73
7794.00,1.73
7793.00,1.73
7792.00,1.73
7791.00,1.74
7790.00,1.74
7789.00,1.75
7788.00,1.76
7787.00,1.77
7786.00,1.78
7785.00,1.79
7784.00,1.80
7783.00,1.81
7782.00,1.82
7781.00,1.83
7780.00,1.84
7779.00,1.85
7778.00,1.86
7777.00,1.88
7776.00,1.89
7775.00,1.90
7774.00,1.91
7773.00,1.92
7772.00,1.94
7771.00,1.95
7770.00,1.96
7769.00,1.97
7768.00,1.98
7767.00,1.99
7766.00,1.99
7765.00,2.00
7764.00,2.00
7763.00,2.00
7762.00,2.00
7761.00,1.99
7760.00,1.99
7759.00,1.99
7758.00,1.98
7757.00,1.97
7756.00,1.97
7755.00,1.96
7754.00,1.96
7753.00,1.95
7752.00,1.95
7751.00,1.94
7750.00,1.94
7749.00,1.93
7748.00,1.93
7747.00,1.92
7746.00,1.92
7745.00,1.91
7744.00,1.90
7743.00,1.90
7742.00,1.90
7741.00,1.89
7740.00,1.89
7739.00,1.89
7738.00,1.89
7737.00,1.89
7736.00,1.89
7735.00,1.89
7734.00,1.89
7733.00,1.89
7732.00,1.90
7731.00,1.90
7730.00,1.90
7729.00,1.90
7728.00,1.90
7727.00,1.90
7726.00,1.90
7725.00,1.90
7724.00,1.90
7723.00,1.90
7722.00,1.91
7721.00,1.91
7720.00,1.91
7719.00,1.91
7718.00,1.91
7717.00,1.90
7716.00,1.90
7715.00,1.90
7714.00,1.90
7713.00,1.90
7712.00,1.91
7711.00,1.91
7710.00,1.91
7709.00,1.91
7708.00,1.92
7707.00,1.92
7706.00,1.92
7705.00,1.93
7704.00,1.94
7703.00,1.94
7702.00,1.95
7701.00,1.95
7700.00,1.96
7699.00,1.97
7698.00,1.98
7697.00,1.99
7696.00,1.99
7695.00,2.00
7694.00,2.01
7693.00,2.03
7692.00,2.04
7691.00,2.05
7690.00,2.06
7689.00,2.07
7688.00,2.08
7687.00,2.09
7686.00,2.09
7685.00,2.10
7684.00,2.10
7683.00,2.10
7682.00,2.10
7681.00,2.09
7680.00,2.09
7679.00,2.08
7678.00,2.08
7677.00,2.07
7676.00,2.06
7675.00,2.06
7674.00,2.05
7673.00,2.04
7672.00,2.03
7671.00,2.02
7670.00,2.01
7669.00,2.00
7668.00,1.99
7667.00,1.97
7666.00,1.96
7665.00,1.94
7664.00,1.93
7663.00,1.91
7662.00,1.90
7661.00,1.88
7660.00,1.87
7659.00,1.86
7658.00,1.85
7657.00,1.85
7656.00,1.85
7655.00,1.84
7654.00,1.84
7653.00,1.84
7652.00,1.84
7651.00,1.84
7650.00,1.84
7649.00,1.84
7648.00,1.84
7647.00,1.84
7646.00,1.84
7645.00,1.84
7644.00,1.85
7643.00,1.85
7642.00,1.85
7641.00,1.86
7640.00,1.86
7639.00,1.87
7638.00,1.88
7637.00,1.88
7636.00,1.89
7635.00,1.90
7634.00,1.90
7633.00,1.90
7632.00,1.91
7631.00,1.91
7630.00,1.91
7629.00,1.91
7628.00,1.91
7627.00,1.91
7626.00,1.91
7625.00,1.90
7624.00,1.90
7623.00,1.90
7622.00,1.90
7621.00,1.90
7620.00,1.90
7619.00,1.90
7618.00,1.90
7617.00,1.90
7616.00,1.90
7615.00,1.89
7614.00,1.89
7613.00,1.88
7612.00,1.88
7611.00,1.87
7610.00,1.87
7609.00,1.86
7608.00,1.86
7607.00,1.85
7606.00,1.85
7605.00,1.84
7604.00,1.84
7603.00,1.83
7602.00,1.83
7601.00,1.83
7600.00,1.82
7599.00,1.82
7598.00,1.82
7597.00,1.81
7596.00,1.81
7595.00,1.80
7594.00,1.79
7593.00,1.79
7592.00,1.78
7591.00,1.78
7590.00,1.77
7589.00,1.77
7588.00,1.76
7587.00,1.76
7586.00,1.75
7585.00,1.75
7584.00,1.75
7583.00,1.75
7582.00,1.75
7581.00,1.75
7580.00,1.75
7579.00,1.75
7578.00,1.74
7577.00,1.74
7576.00,1.74
7575.00,1.74
7574.00,1.74
7573.00,1.74
7572.00,1.74
7571.00,1.74
7570.00,1.75
7569.00,1.75
7568.00,1.76
7567.00,1.76
7566.00,1.77
7565.00,1.78
7564.00,1.79
7563.00,1.80
7562.00,1.80
7561.00,1.81
7560.00,1.83
7559.00,1.84
7558.00,1.85
7557.00,1.86
7556.00,1.87
7555.00,1.87
7554.00,1.88
7553.00,1.89
7552.00,1.90
7551.00,1.90
7550.00,1.91
7549.00,1.91
7548.00,1.92
7547.00,1.92
7546.00,1.93
7545.00,1.93
7544.00,1.93
7543.00,1.92
7542.00,1.92
7541.00,1.92
7540.00,1.91
7539.00,1.90
7538.00,1.90
7537.00,1.89
7536.00,1.88
7535.00,1.87
7534.00,1.86
7533.00,1.84
7532.00,1.83
7531.00,1.82
7530.00,1.80
7529.00,1.79
7528.00,1.78
7527.00,1.76
7526.00,1.75
7525.00,1.74
7524.00,1.73
7523.00,1.72
7522.00,1.72
7521.00,1.71
7520.00,1.71
7519.00,1.70
7518.00,1.70
7517.00,1.70
7516.00,1.70
7515.00,1.70
7514.00,1.70
7513.00,1.70
7512.00,1.70
7511.00,1.71
7510.00,1.71
7509.00,1.71
7508.00,1.71
7507.00,1.71
7506.00,1.72
7505.00,1.72
7504.00,1.73
7503.00,1.73
7502.00,1.74
7501.00,1.75
7500.00,1.75
7499.00,1.76
7498.00,1.77
7497.00,1.77
7496.00,1.78
7495.00,1.78
7494.00,1.78
7493.00,1.79
7492.00,1.79
7491.00,1.79
7490.00,1.79
7489.00,1.79
7488.00,1.80
7487.00,1.80
7486.00,1.80
7485.00,1.80
7484.00,1.81
7483.00,1.81
7482.00,1.82
7481.00,1.82
7480.00,1.82
7479.00,1.82
7478.00,1.83
7477.00,1.83
7476.00,1.83
7475.00,1.83
7474.00,1.83
7473.00,1.83
7472.00,1.83
7471.00,1.83
7470.00,1.83
7469.00,1.82
7468.00,1.82
7467.00,1.82
7466.00,1.82
7465.00,1.81
7464.00,1.81
7463.00,1.81
7462.00,1.80
7461.00,1.80
7460.00,1.79
7459.00,1.79
7458.00,1.78
7457.00,1.78
7456.00,1.77
7455.00,1.77
7454.00,1.77
7453.00,1.76
7452.00,1.76
7451.00,1.75
7450.00,1.75
7449.00,1.75
7448.00,1.74
7447.00,1.74
7446.00,1.74
7445.00,1.73
7444.00,1.73
7443.00,1.73
7442.00,1.74
7441.00,1.74
7440.00,1.74
7439.00,1.75
7438.00,1.75
7437.00,1.76
7436.00,1.76
7435.00,1.77
7434.00,1.77
7433.00,1.78
7432.00,1.78
7431.00,1.79
7430.00,1.79
7429.00,1.80
7428.00,1.80
7427.00,1.80
7426.00,1.81
7425.00,1.81
7424.00,1.81
7423.00,1.82
7422.00,1.82
7421.00,1.82
7420.00,1.82
7419.00,1.82
7418.00,1.82
7417.00,1.82
7416.00,1.82
7415.00,1.81
7414.00,1.81
7413.00,1.81
7412.00,1.80
7411.00,1.80
7410.00,1.79
7409.00,1.78
7408.00,1.78
7407.00,1.77
7406.00,1.77
7405.00,1.76
7404.00,1.76
7403.00,1.75
7402.00,1.75
7401.00,1.75
7400.00,1.75
7399.00,1.75
7398.00,1.75
7397.00,1.75
7396.00,1.75
7395.00,1.75
7394.00,1.75
7393.00,1.76
7392.00,1.76
7391.00,1.77
7390.00,1.77
7389.00,1.78
7388.00,1.79
7387.00,1.80
7386.00,1.81
7385.00,1.82
7384.00,1.83
7383.00,1.84
7382.00,1.85
7381.00,1.86
7380.00,1.87
7379.00,1.88
7378.00,1.89
7377.00,1.90
7376.00,1.91
7375.00,1.92
7374.00,1.93
7373.00,1.93
7372.00,1.94
7371.00,1.94
7370.00,1.94
7369.00,1.95
7368.00,1.95
7367.00,1.95
7366.00,1.95
7365.00,1.95
7364.00,1.95
7363.00,1.94
7362.00,1.94
7361.00,1.94
7360.00,1.93
7359.00,1.93
7358.00,1.92
7357.00,1.92
7356.00,1.91
7355.00,1.90
7354.00,1.90
7353.00,1.89
7352.00,1.88
7351.00,1.87
7350.00,1.86
7349.00,1.85
7348.00,1.84
7347.00,1.83
7346.00,1.82
7345.00,1.81
7344.00,1.80
7343.00,1.80
7342.00,1.79
7341.00,1.78
7340.00,1.77
7339.00,1.76
7338.00,1.76
7337.00,1.75
7336.00,1.74
7335.00,1.73
7334.00,1.72
7333.00,1.72
7332.00,1.71
7331.00,1.70
7330.00,1.70
7329.00,1.69
7328.00,1.68
7327.00,1.68
7326.00,1.67
7325.00,1.66
7324.00,1.66
7323.00,1.66
7322.00,1.65
7321.00,1.65
7320.00,1.65
7319.00,1.65
7318.00,1.65
7317.00,1.65
7316.00,1.64
7315.00,1.64
7314.00,1.65
7313.00,1.65
7312.00,1.65
7311.00,1.65
7310.00,1.65
7309.00,1.65
7308.00,1.66
7307.00,1.66
7306.00,1.66
7305.00,1.67
7304.00,1.67
7303.00,1.67
7302.00,1.68
7301.00,1.68
7300.00,1.68
7299.00,1.68
7298.00,1.68
7297.00,1.69
7296.00,1.69
7295.00,1.69
7294.00,1.69
7293.00,1.69
7292.00,1.69
7291.00,1.69
7290.00,1.69
7289.00,1.69
7288.00,1.69
7287.00,1.69
7286.00,1.69
7285.00,1.69
7284.00,1.69
7283.00,1.69
7282.00,1.68
7281.00,1.68
7280.00,1.68
7279.00,1.67
7278.00,1.67
7277.00,1.67
7276.00,1.66
7275.00,1.66
7274.00,1.66
7273.00,1.65
7272.00,1.65
7271.00,1.65
7270.00,1.64
7269.00,1.64
7268.00,1.64
7267.00,1.63
7266.00,1.63
7265.00,1.63
7264.00,1.62
7263.00,1.61
7262.00,1.61
7261.00,1.60
7260.00,1.59
7259.00,1.58
7258.00,1.58
7257.00,1.57
7256.00,1.56
7255.00,1.56
7254.00,1.55
7253.00,1.55
7252.00,1.55
7251.00,1.55
7250.00,1.55
7249.00,1.55
7248.00,1.54
7247.00,1.54
7246.00,1.54
7245.00,1.54
7244.00,1.54
7243.00,1.54
7242.00,1.53
7241.00,1.53
7240.00,1.52
7239.00,1.52
7238.00,1.51
7237.00,1.51
7236.00,1.51
7235.00,1.50
7234.00,1.50
7233.00,1.49
7232.00,1.49
7231.00,1.49
7230.00,1.48
7229.00,1.48
7228.00,1.47
7227.00,1.46
7226.00,1.46
7225.00,1.45
7224.00,1.44
7223.00,1.43
7222.00,1.42
7221.00,1.41
7220.00,1.40
7219.00,1.39
7218.00,1.39
7217.00,1.38
7216.00,1.37
7215.00,1.36
7214.00,1.36
7213.00,1.35
7212.00,1.35
7211.00,1.34
7210.00,1.34
7209.00,1.33
7208.00,1.33
7207.00,1.32
7206.00,1.31
7205.00,1.31
7204.00,1.30
7203.00,1.30
7202.00,1.29
7201.00,1.29
7200.00,1.28
7199.00,1.28
7198.00,1.27
7197.00,1.27
7196.00,1.26
7195.00,1.26
7194.00,1.26
7193.00,1.25
7192.00,1.25
7191.00,1.25
7190.00,1.25
7189.00,1.24
7188.00,1.24
7187.00,1.24
7186.00,1.24
7185.00,1.24
7184.00,1.24
7183.00,1.24
7182.00,1.24
7181.00,1.24
7180.00,1.24
7179.00,1.24
7178.00,1.24
7177.00,1.24
7176.00,1.24
7175.00,1.24
7174.00,1.25
7173.00,1.25
7172.00,1.25
7171.00,1.25
7170.00,1.25
7169.00,1.25
7168.00,1.25
7167.00,1.25
7166.00,1.25
7165.00,1.25
7164.00,1.25
7163.00,1.24
7162.00,1.24
7161.00,1.24
7160.00,1.24
7159.00,1.24
7158.00,1.23
7157.00,1.23
7156.00,1.23
7155.00,1.23
7154.00,1.22
7153.00,1.22
7152.00,1.21
7151.00,1.20
7150.00,1.20
7149.00,1.19
7148.00,1.18
7147.00,1.17
7146.00,1.16
7145.00,1.15
7144.00,1.14
7143.00,1.13
7142.00,1.12
7141.00,1.11
7140.00,1.10
7139.00,1.09
7138.00,1.08
7137.00,1.07
7136.00,1.06
7135.00,1.04
7134.00,1.03
7133.00,1.02
7132.00,1.00
7131.00,0.99
7130.00,0.98
7129.00,0.97
7128.00,0.96
7127.00,0.95
7126.00,0.94
7125.00,0.93
7124.00,0.92
7123.00,0.92
7122.00,0.91
7121.00,0.91
7120.00,0.91
7119.00,0.91
7118.00,0.90
7117.00,0.90
7116.00,0.90
7115.00,0.90
7114.00,0.90
7113.00,0.90
7112.00,0.90
7111.00,0.90
7110.00,0.90
7109.00,0.91
7108.00,0.91
7107.00,0.92
7106.00,0.93
7105.00,0.93
7104.00,0.93
7103.00,0.94
7102.00,0.94
7101.00,0.94
7100.00,0.95
7099.00,0.95
7098.00,0.95
7097.00,0.95
7096.00,0.95
7095.00,0.95
7094.00,0.95
7093.00,0.95
7092.00,0.96
7091.00,0.96
7090.00,0.96
7089.00,0.96
7088.00,0.96
7087.00,0.96
7086.00,0.96
7085.00,0.96
7084.00,0.96
7083.00,0.96
7082.00,0.95
7081.00,0.95
7080.00,0.95
7079.00,0.95
7078.00,0.94
7077.00,0.94
7076.00,0.94
7075.00,0.94
7074.00,0.94
7073.00,0.94
7072.00,0.94
7071.00,0.94
7070.00,0.94
7069.00,0.94
7068.00,0.94
7067.00,0.94
7066.00,0.93
7065.00,0.93
7064.00,0.93
7063.00,0.92
7062.00,0.92
7061.00,0.92
7060.00,0.91
7059.00,0.91
7058.00,0.91
7057.00,0.90
7056.00,0.90
7055.00,0.89
7054.00,0.89
7053.00,0.88
7052.00,0.88
7051.00,0.87
7050.00,0.86
7049.00,0.85
7048.00,0.84
7047.00,0.84
7046.00,0.83
7045.00,0.82
7044.00,0.81
7043.00,0.80
7042.00,0.79
7041.00,0.78
7040.00,0.77
7039.00,0.77
7038.00,0.76
7037.00,0.75
7036.00,0.74
7035.00,0.73
7034.00,0.72
7033.00,0.72
7032.00,0.71
7031.00,0.71
7030.00,0.70
7029.00,0.70
7028.00,0.70
7027.00,0.69
7026.00,0.69
7025.00,0.69
7024.00,0.69
7023.00,0.68
7022.00,0.68
7021.00,0.68
7020.00,0.69
7019.00,0.69
7018.00,0.69
7017.00,0.70
7016.00,0.70
7015.00,0.71
7014.00,0.71
7013.00,0.72
7012.00,0.73
7011.00,0.73
7010.00,0.74
7009.00,0.75
7008.00,0.76
7007.00,0.76
7006.00,0.77
7005.00,0.77
7004.00,0.78
7003.00,0.78
7002.00,0.79
7001.00,0.79
7000.00,0.80
6999.00,0.80
6998.00,0.81
6997.00,0.81
6996.00,0.82
6995.00,0.82
6994.00,0.82
6993.00,0.83
6992.00,0.83
6991.00,0.83
6990.00,0.82
6989.00,0.82
6988.00,0.82
6987.00,0.82
6986.00,0.81
6985.00,0.81
6984.00,0.81
6983.00,0.80
6982.00,0.80
6981.00,0.80
6980.00,0.80
6979.00,0.80
6978.00,0.80
6977.00,0.80
6976.00,0.80
6975.00,0.80
6974.00,0.79
6973.00,0.79
6972.00,0.78
6971.00,0.78
6970.00,0.77
6969.00,0.77
6968.00,0.76
6967.00,0.76
6966.00,0.75
6965.00,0.75
6964.00,0.74
6963.00,0.74
6962.00,0.74
6961.00,0.73
6960.00,0.73
6959.00,0.72
6958.00,0.72
6957.00,0.72
6956.00,0.71
6955.00,0.70
6954.00,0.70
6953.00,0.69
6952.00,0.68
6951.00,0.68
6950.00,0.67
6949.00,0.67
6948.00,0.67
6947.00,0.66
6946.00,0.66
6945.00,0.66
6944.00,0.66
6943.00,0.66
6942.00,0.67
6941.00,0.67
6940.00,0.67
6939.00,0.67
6938.00,0.68
6937.00,0.68
6936.00,0.68
6935.00,0.69
6934.00,0.69
6933.00,0.69
6932.00,0.70
6931.00,0.70
6930.00,0.70
6929.00,0.71
6928.00,0.71
6927.00,0.71
6926.00,0.72
6925.00,0.72
6924.00,0.72
6923.00,0.72
6922.00,0.73
6921.00,0.73
6920.00,0.73
6919.00,0.73
6918.00,0.72
6917.00,0.72
6916.00,0.72
6915.00,0.72
6914.00,0.72
6913.00,0.72
6912.00,0.72
6911.00,0.71
6910.00,0.71
6909.00,0.71
6908.00,0.71
6907.00,0.71
6906.00,0.71
6905.00,0.70
6904.00,0.70
6903.00,0.70
6902.00,0.70
6901.00,0.70
6900.00,0.70
6899.00,0.70
6898.00,0.70
6897.00,0.70
6896.00,0.70
6895.00,0.70
6894.00,0.70
6893.00,0.71
6892.00,0.71
6891.00,0.71
6890.00,0.72
6889.00,0.72
6888.00,0.72
6887.00,0.73
6886.00,0.73
6885.00,0.74
6884.00,0.74
6883.00,0.74
6882.00,0.75
6881.00,0.76
6880.00,0.76
6879.00,0.77
6878.00,0.78
6877.00,0.78
6876.00,0.79
6875.00,0.80
6874.00,0.80
6873.00,0.81
6872.00,0.81
6871.00,0.81
6870.00,0.82
6869.00,0.82
6868.00,0.82
6867.00,0.82
6866.00,0.83
6865.00,0.83
6864.00,0.83
6863.00,0.83
6862.00,0.83
6861.00,0.83
6860.00,0.83
6859.00,0.83
6858.00,0.83
6857.00,0.82
6856.00,0.82
6855.00,0.82
6854.00,0.81
6853.00,0.80
6852.00,0.80
6851.00,0.79
6850.00,0.78
6849.00,0.77
6848.00,0.77
6847.00,0.76
6846.00,0.75
6845.00,0.75
6844.00,0.74
6843.00,0.74
6842.00,0.73
6841.00,0.73
6840.00,0.72
6839.00,0.72
6838.00,0.71
6837.00,0.71
6836.00,0.71
6835.00,0.70
6834.00,0.70
6833.00,0.70
6832.00,0.70
6831.00,0.69
6830.00,0.69
6829.00,0.70
6828.00,0.70
6827.00,0.70
6826.00,0.70
6825.00,0.71
6824.00,0.71
6823.00,0.72
6822.00,0.72
6821.00,0.73
6820.00,0.73
6819.00,0.74
6818.00,0.75
6817.00,0.75
6816.00,0.76
6815.00,0.76
6814.00,0.77
6813.00,0.77
6812.00,0.78
6811.00,0.79
6810.00,0.80
6809.00,0.80
6808.00,0.81
6807.00,0.82
6806.00,0.82
6805.00,0.83
6804.00,0.84
6803.00,0.84
6802.00,0.85
6801.00,0.85
6800.00,0.86
6799.00,0.86
6798.00,0.87
6797.00,0.87
6796.00,0.88
6795.00,0.88
6794.00,0.89
6793.00,0.89
6792.00,0.90
6791.00,0.91
6790.00,0.91
6789.00,0.92
6788.00,0.92
6787.00,0.93
6786.00,0.93
6785.00,0.94
6784.00,0.94
6783.00,0.95
6782.00,0.95
6781.00,0.95
6780.00,0.96
6779.00,0.96
6778.00,0.96
6777.00,0.96
6776.00,0.97
6775.00,0.97
6774.00,0.97
6773.00,0.97
6772.00,0.98
6771.00,0.98
6770.00,0.98
6769.00,0.98
6768.00,0.98
6767.00,0.98
6766.00,0.97
6765.00,0.97
6764.00,0.97
6763.00,0.96
6762.00,0.96
6761.00,0.96
6760.00,0.95
6759.00,0.95
6758.00,0.94
6757.00,0.94
6756.00,0.94
6755.00,0.94
6754.00,0.94
6753.00,0.94
6752.00,0.94
6751.00,0.94
6750.00,0.94
6749.00,0.94
6748.00,0.94
6747.00,0.94
6746.00,0.94
6745.00,0.94
6744.00,0.94
6743.00,0.95
6742.00,0.95
6741.00,0.95
6740.00,0.95
6739.00,0.96
6738.00,0.96
6737.00,0.97
6736.00,0.97
6735.00,0.98
6734.00,0.99
6733.00,0.99
6732.00,1.00
6731.00,1.00
6730.00,1.00
6729.00,1.00
6728.00,1.00
6727.00,1.00
6726.00,1.00
6725.00,0.99
6724.00,0.99
6723.00,0.98
6722.00,0.98
6721.00,0.98
6720.00,0.97
6719.00,0.97
6718.00,0.97
6717.00,0.96
6716.00,0.96
6715.00,0.95
6714.00,0.95
6713.00,0.94
6712.00,0.94
6711.00,0.93
6710.00,0.93
6709.00,0.92
6708.00,0.92
6707.00,0.91
6706.00,0.91
6705.00,0.90
6704.00,0.90
6703.00,0.90
6702.00,0.89
6701.00,0.89
6700.00,0.89
6699.00,0.89
6698.00,0.88
6697.00,0.88
6696.00,0.88
6695.00,0.88
6694.00,0.87
6693.00,0.87
6692.00,0.87
6691.00,0.87
6690.00,0.87
6689.00,0.87
6688.00,0.87
6687.00,0.87
6686.00,0.87
6685.00,0.87
6684.00,0.87
6683.00,0.86
6682.00,0.86
6681.00,0.86
6680.00,0.86
6679.00,0.86
6678.00,0.85
6677.00,0.85
6676.00,0.85
6675.00,0.85
6674.00,0.85
6673.00,0.86
6672.00,0.86
6671.00,0.86
6670.00,0.86
6669.00,0.87
6668.00,0.87
6667.00,0.87
6666.00,0.88
6665.00,0.88
6664.00,0.88
6663.00,0.88
6662.00,0.88
6661.00,0.88
6660.00,0.88
6659.00,0.89
6658.00,0.89
6657.00,0.89
6656.00,0.89
6655.00,0.89
6654.00,0.90
6653.00,0.90
6652.00,0.91
6651.00,0.91
6650.00,0.91
6649.00,0.91
6648.00,0.92
6647.00,0.92
6646.00,0.92
6645.00,0.92
6644.00,0.92
6643.00,0.92
6642.00,0.93
6641.00,0.93
6640.00,0.93
6639.00,0.93
6638.00,0.93
6637.00,0.94
6636.00,0.94
6635.00,0.95
6634.00,0.95
6633.00,0.96
6632.00,0.97
6631.00,0.97
6630.00,0.98
6629.00,0.98
6628.00,0.99
6627.00,0.99
6626.00,1.00
6625.00,1.00
6624.00,1.01
6623.00,1.01
6622.00,1.02
6621.00,1.02
6620.00,1.03
6619.00,1.03
6618.00,1.04
6617.00,1.04
6616.00,1.04
6615.00,1.05
6614.00,1.05
6613.00,1.05
6612.00,1.06
6611.00,1.06
6610.00,1.06
6609.00,1.05
6608.00,1.05
6607.00,1.05
6606.00,1.05
6605.00,1.05
6604.00,1.05
6603.00,1.05
6602.00,1.05
6601.00,1.05
6600.00,1.04
6599.00,1.04
6598.00,1.04
6597.00,1.04
6596.00,1.04
6595.00,1.03
6594.00,1.03
6593.00,1.03
6592.00,1.03
6591.00,1.03
6590.00,1.03
6589.00,1.03
6588.00,1.03
6587.00,1.03
6586.00,1.04
6585.00,1.04
6584.00,1.04
6583.00,1.04
6582.00,1.04
6581.00,1.04
6580.00,1.04
6579.00,1.04
6578.00,1.04
6577.00,1.04
6576.00,1.04
6575.00,1.04
6574.00,1.04
6573.00,1.04
6572.00,1.04
6571.00,1.05
6570.00,1.05
6569.00,1.05
6568.00,1.05
6567.00,1.05
6566.00,1.06
6565.00,1.06
6564.00,1.06
6563.00,1.06
6562.00,1.05
6561.00,1.05
6560.00,1.05
6559.00,1.05
6558.00,1.05
6557.00,1.06
6556.00,1.06
6555.00,1.06
6554.00,1.06
6553.00,1.07
6552.00,1.07
6551.00,1.07
6550.00,1.08
6549.00,1.08
6548.00,1.09
6547.00,1.09
6546.00,1.09
6545.00,1.10
6544.00,1.10
6543.00,1.11
6542.00,1.11
6541.00,1.11
6540.00,1.11
6539.00,1.11
6538.00,1.12
6537.00,1.12
6536.00,1.12
6535.00,1.12
6534.00,1.13
6533.00,1.13
6532.00,1.13
6531.00,1.13
6530.00,1.14
6529.00,1.14
6528.00,1.14
6527.00,1.14
6526.00,1.14
6525.00,1.14
6524.00,1.14
6523.00,1.14
6522.00,1.14
6521.00,1.14
6520.00,1.14
6519.00,1.14
6518.00,1.14
6517.00,1.14
6516.00,1.14
6515.00,1.14
6514.00,1.14
6513.00,1.14
6512.00,1.15
6511.00,1.15
6510.00,1.15
6509.00,1.16
6508.00,1.16
6507.00,1.16
6506.00,1.17
6505.00,1.17
6504.00,1.18
6503.00,1.18
6502.00,1.18
6501.00,1.19
6500.00,1.19
6499.00,1.19
6498.00,1.20
6497.00,1.20
6496.00,1.21
6495.00,1.21
6494.00,1.22
6493.00,1.22
6492.00,1.22
6491.00,1.23
6490.00,1.23
6489.00,1.23
6488.00,1.24
6487.00,1.24
6486.00,1.24
6485.00,1.25
6484.00,1.25
6483.00,1.25
6482.00,1.25
6481.00,1.25
6480.00,1.25
6479.00,1.25
6478.00,1.25
6477.00,1.25
6476.00,1.25
6475.00,1.26
6474.00,1.26
6473.00,1.26
6472.00,1.26
6471.00,1.26
6470.00,1.26
6469.00,1.26
6468.00,1.26
6467.00,1.26
6466.00,1.26
6465.00,1.26
6464.00,1.27
6463.00,1.27
6462.00,1.27
6461.00,1.26
6460.00,1.26
6459.00,1.26
6458.00,1.26
6457.00,1.26
6456.00,1.26
6455.00,1.26
6454.00,1.26
6453.00,1.26
6452.00,1.26
6451.00,1.26
6450.00,1.25
6449.00,1.25
6448.00,1.25
6447.00,1.25
6446.00,1.24
6445.00,1.24
6444.00,1.23
6443.00,1.23
6442.00,1.23
6441.00,1.22
6440.00,1.22
6439.00,1.21
6438.00,1.21
6437.00,1.21
6436.00,1.21
6435.00,1.21
6434.00,1.20
6433.00,1.20
6432.00,1.20
6431.00,1.20
6430.00,1.20
6429.00,1.20
6428.00,1.20
6427.00,1.20
6426.00,1.20
6425.00,1.21
6424.00,1.21
6423.00,1.21
6422.00,1.22
6421.00,1.22
6420.00,1.23
6419.00,1.24
6418.00,1.25
6417.00,1.26
6416.00,1.27
6415.00,1.28
6414.00,1.28
6413.00,1.29
6412.00,1.30
6411.00,1.31
6410.00,1.32
6409.00,1.33
6408.00,1.34
6407.00,1.35
6406.00,1.35
6405.00,1.36
6404.00,1.37
6403.00,1.37
6402.00,1.38
6401.00,1.38
6400.00,1.39
6399.00,1.39
6398.00,1.39
6397.00,1.39
6396.00,1.39
6395.00,1.39
6394.00,1.39
6393.00,1.39
6392.00,1.39
6391.00,1.38
6390.00,1.38
6389.00,1.38
6388.00,1.37
6387.00,1.37
6386.00,1.37
6385.00,1.36
6384.00,1.36
6383.00,1.36
6382.00,1.35
6381.00,1.35
6380.00,1.35
6379.00,1.35
6378.00,1.34
6377.00,1.34
6376.00,1.34
6375.00,1.34
6374.00,1.34
6373.00,1.34
6372.00,1.35
6371.00,1.35
6370.00,1.35
6369.00,1.36
6368.00,1.36
6367.00,1.37
6366.00,1.37
6365.00,1.37
6364.00,1.38
6363.00,1.38
6362.00,1.39
6361.00,1.39
6360.00,1.39
6359.00,1.40
6358.00,1.40
6357.00,1.40
6356.00,1.40
6355.00,1.40
6354.00,1.40
6353.00,1.40
6352.00,1.40
6351.00,1.40
6350.00,1.40
6349.00,1.40
6348.00,1.40
6347.00,1.40
6346.00,1.40
6345.00,1.40
6344.00,1.40
6343.00,1.40
6342.00,1.40
6341.00,1.40
6340.00,1.40
6339.00,1.40
6338.00,1.41
6337.00,1.41
6336.00,1.41
6335.00,1.41
6334.00,1.41
6333.00,1.41
6332.00,1.41
6331.00,1.42
6330.00,1.42
6329.00,1.43
6328.00,1.43
6327.00,1.44
6326.00,1.45
6325.00,1.46
6324.00,1.47
6323.00,1.47
6322.00,1.48
6321.00,1.49
6320.00,1.49
6319.00,1.50
6318.00,1.51
6317.00,1.51
6316.00,1.52
6315.00,1.52
6314.00,1.53
6313.00,1.53
6312.00,1.54
6311.00,1.55
6310.00,1.55
6309.00,1.56
6308.00,1.56
6307.00,1.57
6306.00,1.58
6305.00,1.58
6304.00,1.58
6303.00,1.59
6302.00,1.59
6301.00,1.60
6300.00,1.60
6299.00,1.61
6298.00,1.61
6297.00,1.61
6296.00,1.62
6295.00,1.62
6294.00,1.62
6293.00,1.63
6292.00,1.63
6291.00,1.63
6290.00,1.64
6289.00,1.64
6288.00,1.65
6287.00,1.65
6286.00,1.65
6285.00,1.66
6284.00,1.66
6283.00,1.66
6282.00,1.67
6281.00,1.67
6280.00,1.67
6279.00,1.67
6278.00,1.67
6277.00,1.68
6276.00,1.68
6275.00,1.68
6274.00,1.68
6273.00,1.68
6272.00,1.68
6271.00,1.68
6270.00,1.68
6269.00,1.68
6268.00,1.68
6267.00,1.68
6266.00,1.68
6265.00,1.68
6264.00,1.69
6263.00,1.69
6262.00,1.69
6261.00,1.69
6260.00,1.69
6259.00,1.69
6258.00,1.69
6257.00,1.69
6256.00,1.69
6255.00,1.70
6254.00,1.70
6253.00,1.71
6252.00,1.71
6251.00,1.71
6250.00,1.72
6249.00,1.72
6248.00,1.73
6247.00,1.73
6246.00,1.74
6245.00,1.74
6244.00,1.75
6243.00,1.75
6242.00,1.75
6241.00,1.76
6240.00,1.76
6239.00,1.77
6238.00,1.77
6237.00,1.78
6236.00,1.78
6235.00,1.79
6234.00,1.80
6233.00,1.80
6232.00,1.81
6231.00,1.81
6230.00,1.82
6229.00,1.82
6228.00,1.83
6227.00,1.83
6226.00,1.83
6225.00,1.83
6224.00,1.84
6223.00,1.84
6222.00,1.84
6221.00,1.84
6220.00,1.85
6219.00,1.85
6218.00,1.85
6217.00,1.85
6216.00,1.86
6215.00,1.86
6214.00,1.86
6213.00,1.86
6212.00,1.86
6211.00,1.87
6210.00,1.87
6209.00,1.87
6208.00,1.87
6207.00,1.87
6206.00,1.87
6205.00,1.87
6204.00,1.87
6203.00,1.87
6202.00,1.87
6201.00,1.86
6200.00,1.86
6199.00,1.86
6198.00,1.86
6197.00,1.86
6196.00,1.86
6195.00,1.85
6194.00,1.85
6193.00,1.85
6192.00,1.85
6191.00,1.85
6190.00,1.84
6189.00,1.84
6188.00,1.84
6187.00,1.84
6186.00,1.83
6185.00,1.83
6184.00,1.83
6183.00,1.83
6182.00,1.83
6181.00,1.82
6180.00,1.82
6179.00,1.82
6178.00,1.82
6177.00,1.83
6176.00,1.83
6175.00,1.83
6174.00,1.83
6173.00,1.84
6172.00,1.84
6171.00,1.85
6170.00,1.85
6169.00,1.85
6168.00,1.86
6167.00,1.86
6166.00,1.86
6165.00,1.87
6164.00,1.87
6163.00,1.88
6162.00,1.88
6161.00,1.89
6160.00,1.89
6159.00,1.90
6158.00,1.90
6157.00,1.91
6156.00,1.91
6155.00,1.92
6154.00,1.92
6153.00,1.93
6152.00,1.93
6151.00,1.93
6150.00,1.93
6149.00,1.94
6148.00,1.94
6147.00,1.94
6146.00,1.94
6145.00,1.94
6144.00,1.94
6143.00,1.94
6142.00,1.94
6141.00,1.95
6140.00,1.95
6139.00,1.95
6138.00,1.95
6137.00,1.95
6136.00,1.96
6135.00,1.96
6134.00,1.96
6133.00,1.96
6132.00,1.97
6131.00,1.97
6130.00,1.97
6129.00,1.98
6128.00,1.98
6127.00,1.99
6126.00,1.99
6125.00,2.00
6124.00,2.00
6123.00,2.01
6122.00,2.02
6121.00,2.03
6120.00,2.04
6119.00,2.05
6118.00,2.05
6117.00,2.06
6116.00,2.07
6115.00,2.08
6114.00,2.08
6113.00,2.09
6112.00,2.10
6111.00,2.10
6110.00,2.11
6109.00,2.11
6108.00,2.12
6107.00,2.12
6106.00,2.13
6105.00,2.13
6104.00,2.13
6103.00,2.14
6102.00,2.14
6101.00,2.14
6100.00,2.14
6099.00,2.14
6098.00,2.14
6097.00,2.14
6096.00,2.13
6095.00,2.13
6094.00,2.13
6093.00,2.12
6092.00,2.12
6091.00,2.12
6090.00,2.11
6089.00,2.11
6088.00,2.10
6087.00,2.10
6086.00,2.09
6085.00,2.09
6084.00,2.08
6083.00,2.08
6082.00,2.07
6081.00,2.07
6080.00,2.06
6079.00,2.05
6078.00,2.05
6077.00,2.04
6076.00,2.04
6075.00,2.04
6074.00,2.03
6073.00,2.03
6072.00,2.03
6071.00,2.03
6070.00,2.02
6069.00,2.02
6068.00,2.02
6067.00,2.02
6066.00,2.02
6065.00,2.02
6064.00,2.02
6063.00,2.02
6062.00,2.02
6061.00,2.02
6060.00,2.02
6059.00,2.02
6058.00,2.03
6057.00,2.03
6056.00,2.04
6055.00,2.04
6054.00,2.05
6053.00,2.05
6052.00,2.06
6051.00,2.06
6050.00,2.07
6049.00,2.07
6048.00,2.08
6047.00,2.08
6046.00,2.09
6045.00,2.09
6044.00,2.10
6043.00,2.11
6042.00,2.11
6041.00,2.12
6040.00,2.13
6039.00,2.13
6038.00,2.14
6037.00,2.14
6036.00,2.15
6035.00,2.15
6034.00,2.16
6033.00,2.16
6032.00,2.17
6031.00,2.17
6030.00,2.17
6029.00,2.17
6028.00,2.18
6027.00,2.18
6026.00,2.18
6025.00,2.18
6024.00,2.18
6023.00,2.18
6022.00,2.18
6021.00,2.18
6020.00,2.17
6019.00,2.17
6018.00,2.17
6017.00,2.17
6016.00,2.17
6015.00,2.16
6014.00,2.16
6013.00,2.16
6012.00,2.15
6011.00,2.15
6010.00,2.15
6009.00,2.15
6008.00,2.14
6007.00,2.14
6006.00,2.14
6005.00,2.14
6004.00,2.14
6003.00,2.14
6002.00,2.14
6001.00,2.14
6000.00,2.15
5999.00,2.15
5998.00,2.15
5997.00,2.16
5996.00,2.16
5995.00,2.16
5994.00,2.17
5993.00,2.17
5992.00,2.18
5991.00,2.18
5990.00,2.18
5989.00,2.19
5988.00,2.19
5987.00,2.19
5986.00,2.19
5985.00,2.20
5984.00,2.20
5983.00,2.20
5982.00,2.20
5981.00,2.21
5980.00,2.21
5979.00,2.21
5978.00,2.20
5977.00,2.20
5976.00,2.20
5975.00,2.19
5974.00,2.19
5973.00,2.18
5972.00,2.17
5971.00,2.16
5970.00,2.16
5969.00,2.15
5968.00,2.14
5967.00,2.13
5966.00,2.12
5965.00,2.12
5964.00,2.11
5963.00,2.10
5962.00,2.09
5961.00,2.08
5960.00,2.07
5959.00,2.06
5958.00,2.05
5957.00,2.04
5956.00,2.04
5955.00,2.03
5954.00,2.02
5953.00,2.01
5952.00,2.00
5951.00,2.00
5950.00,1.99
5949.00,1.99
5948.00,1.98
5947.00,1.98
5946.00,1.98
5945.00,1.98
5944.00,1.98
5943.00,1.98
5942.00,1.97
5941.00,1.97
5940.00,1.97
5939.00,1.97
5938.00,1.97
5937.00,1.97
5936.00,1.97
5935.00,1.97
5934.00,1.97
5933.00,1.97
5932.00,1.98
5931.00,1.98
5930.00,1.98
5929.00,1.98
5928.00,1.99
5927.00,1.99
5926.00,1.99
5925.00,1.99
5924.00,1.99
5923.00,1.99
5922.00,1.99
5921.00,1.99
5920.00,1.99
5919.00,1.98
5918.00,1.98
5917.00,1.98
5916.00,1.98
5915.00,1.98
5914.00,1.97
5913.00,1.97
5912.00,1.97
5911.00,1.97
5910.00,1.97
5909.00,1.96
5908.00,1.96
5907.00,1.96
5906.00,1.95
5905.00,1.95
5904.00,1.95
5903.00,1.94
5902.00,1.94
5901.00,1.94
5900.00,1.93
5899.00,1.93
5898.00,1.93
5897.00,1.93
5896.00,1.92
5895.00,1.92
5894.00,1.92
5893.00,1.92
5892.00,1.92
5891.00,1.92
5890.00,1.92
5889.00,1.92
5888.00,1.92
5887.00,1.92
5886.00,1.92
5885.00,1.92
5884.00,1.92
5883.00,1.92
5882.00,1.92
5881.00,1.92
5880.00,1.92
5879.00,1.92
5878.00,1.93
5877.00,1.93
5876.00,1.93
5875.00,1.93
5874.00,1.93
5873.00,1.93
5872.00,1.93
5871.00,1.93
5870.00,1.93
5869.00,1.93
5868.00,1.93
5867.00,1.93
5866.00,1.93
5865.00,1.93
5864.00,1.94
5863.00,1.94
5862.00,1.94
5861.00,1.94
5860.00,1.94
5859.00,1.94
5858.00,1.95
5857.00,1.95
5856.00,1.95
5855.00,1.95
5854.00,1.96
5853.00,1.96
5852.00,1.96
5851.00,1.96
5850.00,1.96
5849.00,1.97
5848.00,1.97
5847.00,1.97
5846.00,1.97
5845.00,1.97
5844.00,1.98
5843.00,1.98
5842.00,1.98
5841.00,1.98
5840.00,1.98
5839.00,1.99
5838.00,1.99
5837.00,1.99
5836.00,1.99
5835.00,1.99
5834.00,1.99
5833.00,1.99
5832.00,1.99
5831.00,1.99
5830.00,1.99
5829.00,1.99
5828.00,1.98
5827.00,1.98
5826.00,1.98
5825.00,1.98
5824.00,1.98
5823.00,1.98
5822.00,1.98
5821.00,1.98
5820.00,1.98
5819.00,1.98
5818.00,1.98
5817.00,1.98
5816.00,1.98
5815.00,1.98
5814.00,1.98
5813.00,1.98
5812.00,1.98
5811.00,1.98
5810.00,1.98
5809.00,1.98
5808.00,1.98
5807.00,1.98
5806.00,1.98
5805.00,1.98
5804.00,1.98
5803.00,1.98
5802.00,1.98
5801.00,1.98
5800.00,1.98
5799.00,1.97
5798.00,1.97
5797.00,1.97
5796.00,1.97
5795.00,1.97
5794.00,1.97
5793.00,1.96
5792.00,1.96
5791.00,1.96
5790.00,1.96
5789.00,1.95
5788.00,1.95
5787.00,1.95
5786.00,1.95
5785.00,1.95
5784.00,1.95
5783.00,1.95
5782.00,1.95
5781.00,1.95
5780.00,1.95
5779.00,1.95
5778.00,1.95
5777.00,1.94
5776.00,1.94
5775.00,1.94
5774.00,1.94
5773.00,1.94
5772.00,1.93
5771.00,1.93
5770.00,1.93
5769.00,1.93
5768.00,1.93
5767.00,1.93
5766.00,1.93
5765.00,1.93
5764.00,1.93
5763.00,1.93
5762.00,1.93
5761.00,1.93
5760.00,1.93
5759.00,1.93
5758.00,1.93
5757.00,1.93
5756.00,1.94
5755.00,1.94
5754.00,1.95
5753.00,1.95
5752.00,1.96
5751.00,1.96
5750.00,1.97
5749.00,1.98
5748.00,1.98
5747.00,1.99
5746.00,1.99
5745.00,2.00
5744.00,2.01
5743.00,2.02
5742.00,2.02
5741.00,2.03
5740.00,2.04
5739.00,2.05
5738.00,2.06
5737.00,2.06
5736.00,2.07
5735.00,2.08
5734.00,2.08
5733.00,2.09
5732.00,2.09
5731.00,2.09
5730.00,2.09
5729.00,2.10
5728.00,2.10
5727.00,2.09
5726.00,2.09
5725.00,2.09
5724.00,2.09
5723.00,2.09
5722.00,2.09
5721.00,2.09
5720.00,2.08
5719.00,2.08
5718.00,2.08
5717.00,2.08
5716.00,2.07
5715.00,2.07
5714.00,2.06
5713.00,2.06
5712.00,2.05
5711.00,2.05
5710.00,2.04
5709.00,2.04
5708.00,2.03
5707.00,2.03
5706.00,2.02
5705.00,2.02
5704.00,2.01
5703.00,2.01
5702.00,2.01
5701.00,2.00
5700.00,2.00
5699.00,2.00
5698.00,2.00
5697.00,2.00
5696.00,2.00
5695.00,2.00
5694.00,2.00
5693.00,2.00
5692.00,2.00
5691.00,2.00
5690.00,2.00
5689.00,2.00
5688.00,2.00
5687.00,2.00
5686.00,2.00
5685.00,2.00
5684.00,2.00
5683.00,2.00
5682.00,2.00
5681.00,2.00
5680.00,2.00
5679.00,2.01
5678.00,2.01
5677.00,2.01
5676.00,2.01
5675.00,2.01
5674.00,2.01
5673.00,2.01
5672.00,2.01
5671.00,2.01
5670.00,2.01
5669.00,2.01
5668.00,2.01
5667.00,2.01
5666.00,2.00
5665.00,2.00
5664.00,2.00
5663.00,2.00
5662.00,2.00
5661.00,2.00
5660.00,1.99
5659.00,1.99
5658.00,1.99
5657.00,1.99
5656.00,1.99
5655.00,1.99
5654.00,1.99
5653.00,1.99
5652.00,1.99
5651.00,1.99
5650.00,1.99
5649.00,1.99
5648.00,1.99
5647.00,1.99
5646.00,2.00
5645.00,2.00
5644.00,2.00
5643.00,2.00
5642.00,2.00
5641.00,2.00
5640.00,2.00
5639.00,2.00
5638.00,2.01
5637.00,2.01
5636.00,2.01
5635.00,2.01
5634.00,2.01
5633.00,2.02
5632.00,2.02
5631.00,2.02
5630.00,2.03
5629.00,2.03
5628.00,2.03
5627.00,2.03
5626.00,2.03
5625.00,2.03
5624.00,2.03
5623.00,2.04
5622.00,2.04
5621.00,2.04
5620.00,2.04
5619.00,2.04
5618.00,2.04
5617.00,2.04
5616.00,2.04
5615.00,2.04
5614.00,2.04
5613.00,2.04
5612.00,2.04
5611.00,2.04
5610.00,2.04
5609.00,2.04
5608.00,2.04
5607.00,2.04
5606.00,2.04
5605.00,2.04
5604.00,2.04
5603.00,2.04
5602.00,2.04
5601.00,2.04
5600.00,2.04
5599.00,2.04
5598.00,2.04
5597.00,2.04
5596.00,2.04
5595.00,2.04
5594.00,2.04
5593.00,2.04
5592.00,2.04
5591.00,2.04
5590.00,2.04
5589.00,2.04
5588.00,2.04
5587.00,2.04
5586.00,2.04
5585.00,2.05
5584.00,2.05
5583.00,2.05
5582.00,2.05
5581.00,2.05
5580.00,2.06
5579.00,2.06
5578.00,2.06
5577.00,2.06
5576.00,2.07
5575.00,2.07
5574.00,2.07
5573.00,2.08
5572.00,2.08
5571.00,2.08
5570.00,2.09
5569.00,2.09
5568.00,2.10
5567.00,2.10
5566.00,2.11
5565.00,2.11
5564.00,2.12
5563.00,2.13
5562.00,2.13
5561.00,2.14
5560.00,2.15
5559.00,2.15
5558.00,2.16
5557.00,2.16
5556.00,2.17
5555.00,2.17
5554.00,2.18
5553.00,2.18
5552.00,2.19
5551.00,2.19
5550.00,2.20
5549.00,2.20
5548.00,2.20
5547.00,2.21
5546.00,2.21
5545.00,2.22
5544.00,2.22
5543.00,2.22
5542.00,2.23
5541.00,2.23
5540.00,2.24
5539.00,2.24
5538.00,2.24
5537.00,2.24
5536.00,2.24
5535.00,2.24
5534.00,2.24
5533.00,2.25
5532.00,2.25
5531.00,2.25
5530.00,2.25
5529.00,2.25
5528.00,2.25
5527.00,2.26
5526.00,2.26
5525.00,2.26
5524.00,2.26
5523.00,2.26
5522.00,2.26
5521.00,2.27
5520.00,2.26
5519.00,2.26
5518.00,2.26
5517.00,2.26
5516.00,2.26
5515.00,2.26
5514.00,2.26
5513.00,2.26
5512.00,2.26
5511.00,2.25
5510.00,2.25
5509.00,2.25
5508.00,2.25
5507.00,2.25
5506.00,2.25
5505.00,2.25
5504.00,2.25
5503.00,2.25
5502.00,2.25
5501.00,2.25
5500.00,2.25
5499.00,2.25
5498.00,2.25
5497.00,2.25
5496.00,2.25
5495.00,2.25
5494.00,2.25
5493.00,2.26
5492.00,2.26
5491.00,2.26
5490.00,2.26
5489.00,2.26
5488.00,2.26
5487.00,2.27
5486.00,2.27
5485.00,2.26
5484.00,2.26
5483.00,2.26
5482.00,2.26
5481.00,2.26
5480.00,2.26
5479.00,2.26
5478.00,2.26
5477.00,2.26
5476.00,2.26
5475.00,2.26
5474.00,2.26
5473.00,2.26
5472.00,2.26
5471.00,2.25
5470.00,2.25
5469.00,2.25
5468.00,2.25
5467.00,2.25
5466.00,2.25
5465.00,2.25
5464.00,2.25
5463.00,2.25
5462.00,2.25
5461.00,2.25
5460.00,2.26
5459.00,2.26
5458.00,2.26
5457.00,2.26
5456.00,2.26
5455.00,2.27
5454.00,2.27
5453.00,2.27
5452.00,2.27
5451.00,2.27
5450.00,2.26
5449.00,2.26
5448.00,2.26
5447.00,2.26
5446.00,2.26
5445.00,2.26
5444.00,2.25
5443.00,2.25
5442.00,2.25
5441.00,2.25
5440.00,2.24
5439.00,2.24
5438.00,2.23
5437.00,2.23
5436.00,2.23
5435.00,2.22
5434.00,2.22
5433.00,2.22
5432.00,2.22
5431.00,2.21
5430.00,2.21
5429.00,2.21
5428.00,2.21
5427.00,2.21
5426.00,2.21
5425.00,2.21
5424.00,2.21
5423.00,2.21
5422.00,2.22
5421.00,2.22
5420.00,2.22
5419.00,2.22
5418.00,2.22
5417.00,2.23
5416.00,2.23
5415.00,2.23
5414.00,2.23
5413.00,2.24
5412.00,2.24
5411.00,2.24
5410.00,2.24
5409.00,2.24
5408.00,2.24
5407.00,2.24
5406.00,2.24
5405.00,2.23
5404.00,2.23
5403.00,2.22
5402.00,2.21
5401.00,2.21
5400.00,2.20
5399.00,2.19
5398.00,2.18
5397.00,2.17
5396.00,2.16
5395.00,2.15
5394.00,2.14
5393.00,2.13
5392.00,2.12
5391.00,2.11
5390.00,2.10
5389.00,2.09
5388.00,2.08
5387.00,2.07
5386.00,2.06
5385.00,2.05
5384.00,2.04
5383.00,2.03
5382.00,2.01
5381.00,2.00
5380.00,1.99
5379.00,1.98
5378.00,1.97
5377.00,1.96
5376.00,1.95
5375.00,1.94
5374.00,1.94
5373.00,1.93
5372.00,1.92
5371.00,1.91
5370.00,1.90
5369.00,1.89
5368.00,1.88
5367.00,1.87
5366.00,1.86
5365.00,1.85
5364.00,1.84
5363.00,1.83
5362.00,1.82
5361.00,1.81
5360.00,1.80
5359.00,1.78
5358.00,1.77
5357.00,1.76
5356.00,1.75
5355.00,1.74
5354.00,1.72
5353.00,1.71
5352.00,1.70
5351.00,1.69
5350.00,1.68
5349.00,1.66
5348.00,1.65
5347.00,1.64
5346.00,1.63
5345.00,1.61
5344.00,1.60
5343.00,1.59
5342.00,1.57
5341.00,1.56
5340.00,1.55
5339.00,1.54
5338.00,1.53
5337.00,1.52
5336.00,1.51
5335.00,1.50
5334.00,1.49
5333.00,1.48
5332.00,1.47
5331.00,1.46
5330.00,1.45
5329.00,1.44
5328.00,1.43
5327.00,1.42
5326.00,1.41
5325.00,1.40
5324.00,1.39
5323.00,1.38
5322.00,1.38
5321.00,1.37
5320.00,1.36
5319.00,1.35
5318.00,1.35
5317.00,1.34
5316.00,1.33
5315.00,1.33
5314.00,1.32
5313.00,1.31
5312.00,1.31
5311.00,1.30
5310.00,1.30
5309.00,1.29
5308.00,1.28
5307.00,1.28
5306.00,1.27
5305.00,1.27
5304.00,1.26
5303.00,1.26
5302.00,1.26
5301.00,1.26
5300.00,1.25
5299.00,1.25
5298.00,1.25
5297.00,1.25
5296.00,1.24
5295.00,1.24
5294.00,1.24
5293.00,1.23
5292.00,1.23
5291.00,1.22
5290.00,1.22
5289.00,1.21
5288.00,1.21
5287.00,1.20
5286.00,1.20
5285.00,1.19
5284.00,1.19
5283.00,1.19
5282.00,1.18
5281.00,1.18
5280.00,1.17
5279.00,1.17
5278.00,1.16
5277.00,1.16
5276.00,1.15
5275.00,1.15
5274.00,1.14
5273.00,1.13
5272.00,1.13
5271.00,1.12
5270.00,1.12
5269.00,1.12
5268.00,1.11
5267.00,1.11
5266.00,1.11
5265.00,1.11
5264.00,1.11
5263.00,1.11
5262.00,1.11
5261.00,1.11
5260.00,1.11
5259.00,1.11
5258.00,1.11
5257.00,1.11
5256.00,1.11
5255.00,1.12
5254.00,1.12
5253.00,1.12
5252.00,1.12
5251.00,1.12
5250.00,1.13
5249.00,1.13
5248.00,1.13
5247.00,1.13
5246.00,1.13
5245.00,1.13
5244.00,1.14
5243.00,1.14
5242.00,1.14
5241.00,1.14
5240.00,1.14
5239.00,1.14
5238.00,1.13
5237.00,1.13
5236.00,1.13
5235.00,1.13
5234.00,1.13
5233.00,1.13
5232.00,1.12
5231.00,1.12
5230.00,1.12
5229.00,1.12
5228.00,1.12
5227.00,1.12
5226.00,1.12
5225.00,1.11
5224.00,1.11
5223.00,1.11
5222.00,1.11
5221.00,1.11
5220.00,1.11
5219.00,1.11
5218.00,1.11
5217.00,1.11
5216.00,1.11
5215.00,1.11
5214.00,1.11
5213.00,1.11
5212.00,1.11
5211.00,1.12
5210.00,1.12
5209.00,1.13
5208.00,1.13
5207.00,1.13
5206.00,1.14
5205.00,1.14
5204.00,1.14
5203.00,1.15
5202.00,1.15
5201.00,1.15
5200.00,1.15
5199.00,1.16
5198.00,1.16
5197.00,1.16
5196.00,1.17
5195.00,1.17
5194.00,1.18
5193.00,1.18
5192.00,1.18
5191.00,1.19
5190.00,1.19
5189.00,1.19
5188.00,1.19
5187.00,1.19
5186.00,1.19
5185.00,1.19
5184.00,1.19
5183.00,1.18
5182.00,1.18
5181.00,1.18
5180.00,1.18
5179.00,1.17
5178.00,1.17
5177.00,1.17
5176.00,1.17
5175.00,1.17
5174.00,1.17
5173.00,1.17
5172.00,1.17
5171.00,1.16
5170.00,1.16
5169.00,1.16
5168.00,1.16
5167.00,1.16
5166.00,1.16
5165.00,1.16
5164.00,1.16
5163.00,1.16
5162.00,1.16
5161.00,1.16
5160.00,1.16
5159.00,1.17
5158.00,1.17
5157.00,1.17
5156.00,1.17
5155.00,1.18
5154.00,1.18
5153.00,1.18
5152.00,1.18
5151.00,1.19
5150.00,1.19
5149.00,1.19
5148.00,1.19
5147.00,1.20
5146.00,1.20
5145.00,1.20
5144.00,1.20
5143.00,1.20
5142.00,1.21
5141.00,1.21
5140.00,1.21
5139.00,1.21
5138.00,1.21
5137.00,1.21
5136.00,1.21
5135.00,1.21
5134.00,1.22
5133.00,1.22
5132.00,1.22
5131.00,1.22
5130.00,1.22
5129.00,1.22
5128.00,1.22
5127.00,1.22
5126.00,1.22
5125.00,1.23
5124.00,1.23
5123.00,1.23
5122.00,1.23
5121.00,1.23
5120.00,1.24
5119.00,1.24
5118.00,1.24
5117.00,1.24
5116.00,1.24
5115.00,1.24
5114.00,1.25
5113.00,1.25
5112.00,1.25
5111.00,1.25
5110.00,1.25
5109.00,1.25
5108.00,1.25
5107.00,1.25
5106.00,1.25
5105.00,1.25
5104.00,1.24
5103.00,1.24
5102.00,1.24
5101.00,1.24
5100.00,1.24
5099.00,1.23
5098.00,1.23
5097.00,1.23
5096.00,1.22
5095.00,1.22
5094.00,1.21
5093.00,1.20
5092.00,1.20
5091.00,1.19
5090.00,1.19
5089.00,1.18
5088.00,1.18
5087.00,1.17
5086.00,1.17
5085.00,1.16
5084.00,1.16
5083.00,1.16
5082.00,1.16
5081.00,1.16
5080.00,1.16
5079.00,1.16
5078.00,1.16
5077.00,1.16
5076.00,1.16
5075.00,1.16
5074.00,1.17
5073.00,1.17
5072.00,1.17
5071.00,1.17
5070.00,1.18
5069.00,1.18
5068.00,1.18
5067.00,1.19
5066.00,1.19
5065.00,1.20
5064.00,1.20
5063.00,1.21
5062.00,1.21
5061.00,1.21
5060.00,1.22
5059.00,1.22
5058.00,1.22
5057.00,1.23
5056.00,1.23
5055.00,1.23
5054.00,1.24
5053.00,1.24
5052.00,1.24
5051.00,1.25
5050.00,1.25
5049.00,1.25
5048.00,1.26
5047.00,1.26
5046.00,1.27
5045.00,1.27
5044.00,1.27
5043.00,1.28
5042.00,1.28
5041.00,1.29
5040.00,1.29
5039.00,1.30
5038.00,1.30
5037.00,1.31
5036.00,1.31
5035.00,1.32
5034.00,1.32
5033.00,1.32
5032.00,1.33
5031.00,1.33
5030.00,1.33
5029.00,1.34
5028.00,1.34
5027.00,1.34
5026.00,1.34
5025.00,1.35
5024.00,1.35
5023.00,1.35
5022.00,1.35
5021.00,1.35
5020.00,1.35
5019.00,1.35
5018.00,1.35
5017.00,1.34
5016.00,1.34
5015.00,1.34
5014.00,1.34
5013.00,1.33
5012.00,1.33
5011.00,1.33
5010.00,1.33
5009.00,1.33
5008.00,1.33
5007.00,1.32
5006.00,1.32
5005.00,1.32
5004.00,1.32
5003.00,1.32
5002.00,1.32
5001.00,1.31
5000.00,1.31
4999.00,1.31
4998.00,1.31
4997.00,1.31
4996.00,1.31
4995.00,1.31
4994.00,1.31
4993.00,1.31
4992.00,1.31
4991.00,1.31
4990.00,1.32
4989.00,1.32
4988.00,1.32
4987.00,1.32
4986.00,1.33
4985.00,1.33
4984.00,1.33
4983.00,1.33
4982.00,1.34
4981.00,1.34
4980.00,1.34
4979.00,1.35
4978.00,1.35
4977.00,1.35
4976.00,1.36
4975.00,1.36
4974.00,1.36
4973.00,1.36
4972.00,1.37
4971.00,1.37
4970.00,1.37
4969.00,1.37
4968.00,1.37
4967.00,1.37
4966.00,1.37
4965.00,1.37
4964.00,1.37
4963.00,1.37
4962.00,1.37
4961.00,1.37
4960.00,1.37
4959.00,1.37
4958.00,1.37
4957.00,1.36
4956.00,1.36
4955.00,1.36
4954.00,1.36
4953.00,1.36
4952.00,1.36
4951.00,1.36
4950.00,1.35
4949.00,1.35
4948.00,1.35
4947.00,1.35
4946.00,1.35
4945.00,1.35
4944.00,1.35
4943.00,1.35
4942.00,1.35
4941.00,1.34
4940.00,1.34
4939.00,1.34
4938.00,1.34
4937.00,1.34
4936.00,1.34
4935.00,1.34
4934.00,1.34
4933.00,1.34
4932.00,1.34
4931.00,1.34
4930.00,1.34
4929.00,1.34
4928.00,1.34
4927.00,1.34
4926.00,1.34
4925.00,1.35
4924.00,1.35
4923.00,1.35
4922.00,1.35
4921.00,1.36
4920.00,1.36
4919.00,1.36
4918.00,1.37
4917.00,1.37
4916.00,1.38
4915.00,1.38
4914.00,1.39
4913.00,1.39
4912.00,1.40
4911.00,1.40
4910.00,1.41
4909.00,1.41
4908.00,1.42
4907.00,1.42
4906.00,1.43
4905.00,1.43
4904.00,1.43
4903.00,1.44
4902.00,1.44
4901.00,1.44
4900.00,1.45
4899.00,1.45
4898.00,1.45
4897.00,1.45
4896.00,1.46
4895.00,1.46
4894.00,1.46
4893.00,1.46
4892.00,1.46
4891.00,1.46
4890.00,1.46
4889.00,1.46
4888.00,1.46
4887.00,1.46
4886.00,1.46
4885.00,1.46
4884.00,1.46
4883.00,1.46
4882.00,1.46
4881.00,1.46
4880.00,1.46
4879.00,1.47
4878.00,1.47
4877.00,1.47
4876.00,1.47
4875.00,1.47
4874.00,1.47
4873.00,1.47
4872.00,1.47
4871.00,1.47
4870.00,1.47
4869.00,1.47
4868.00,1.47
4867.00,1.47
4866.00,1.47
4865.00,1.47
4864.00,1.47
4863.00,1.47
4862.00,1.46
4861.00,1.46
4860.00,1.46
4859.00,1.46
4858.00,1.46
4857.00,1.46
4856.00,1.46
4855.00,1.45
4854.00,1.45
4853.00,1.45
4852.00,1.44
4851.00,1.44
4850.00,1.43
4849.00,1.43
4848.00,1.43
4847.00,1.43
4846.00,1.43
4845.00,1.43
4844.00,1.43
4843.00,1.43
4842.00,1.43
4841.00,1.43
4840.00,1.43
4839.00,1.43
4838.00,1.43
4837.00,1.44
4836.00,1.44
4835.00,1.44
4834.00,1.44
4833.00,1.45
4832.00,1.45
4831.00,1.45
4830.00,1.45
4829.00,1.46
4828.00,1.46
4827.00,1.46
4826.00,1.47
4825.00,1.47
4824.00,1.48
4823.00,1.49
4822.00,1.49
4821.00,1.50
4820.00,1.50
4819.00,1.50
4818.00,1.51
4817.00,1.51
4816.00,1.51
4815.00,1.51
4814.00,1.52
4813.00,1.52
4812.00,1.52
4811.00,1.53
4810.00,1.53
4809.00,1.53
4808.00,1.53
4807.00,1.53
4806.00,1.54
4805.00,1.54
4804.00,1.54
4803.00,1.55
4802.00,1.55
4801.00,1.56
4800.00,1.56
4799.00,1.56
4798.00,1.56
4797.00,1.57
4796.00,1.57
4795.00,1.57
4794.00,1.58
4793.00,1.58
4792.00,1.58
4791.00,1.59
4790.00,1.59
4789.00,1.60
4788.00,1.60
4787.00,1.60
4786.00,1.60
4785.00,1.60
4784.00,1.60
4783.00,1.61
4782.00,1.61
4781.00,1.61
4780.00,1.61
4779.00,1.61
4778.00,1.61
4777.00,1.61
4776.00,1.61
4775.00,1.61
4774.00,1.60
4773.00,1.60
4772.00,1.60
4771.00,1.60
4770.00,1.59
4769.00,1.59
4768.00,1.59
4767.00,1.58
4766.00,1.58
4765.00,1.57
4764.00,1.57
4763.00,1.57
4762.00,1.57
4761.00,1.57
4760.00,1.57
4759.00,1.57
4758.00,1.57
4757.00,1.57
4756.00,1.57
4755.00,1.57
4754.00,1.57
4753.00,1.57
4752.00,1.57
4751.00,1.57
4750.00,1.57
4749.00,1.57
4748.00,1.57
4747.00,1.57
4746.00,1.57
4745.00,1.57
4744.00,1.57
4743.00,1.57
4742.00,1.56
4741.00,1.56
4740.00,1.56
4739.00,1.56
4738.00,1.56
4737.00,1.56
4736.00,1.56
4735.00,1.55
4734.00,1.55
4733.00,1.54
4732.00,1.54
4731.00,1.53
4730.00,1.53
4729.00,1.53
4728.00,1.53
4727.00,1.53
4726.00,1.53
4725.00,1.53
4724.00,1.54
4723.00,1.54
4722.00,1.54
4721.00,1.54
4720.00,1.55
4719.00,1.56
4718.00,1.56
4717.00,1.57
4716.00,1.58
4715.00,1.58
4714.00,1.59
4713.00,1.60
4712.00,1.61
4711.00,1.62
4710.00,1.63
4709.00,1.64
4708.00,1.65
4707.00,1.66
4706.00,1.67
4705.00,1.68
4704.00,1.69
4703.00,1.70
4702.00,1.71
4701.00,1.72
4700.00,1.73
4699.00,1.73
4698.00,1.74
4697.00,1.75
4696.00,1.75
4695.00,1.76
4694.00,1.76
4693.00,1.76
4692.00,1.77
4691.00,1.77
4690.00,1.77
4689.00,1.77
4688.00,1.78
4687.00,1.78
4686.00,1.78
4685.00,1.78
4684.00,1.78
4683.00,1.78
4682.00,1.78
4681.00,1.78
4680.00,1.78
4679.00,1.78
4678.00,1.78
4677.00,1.79
4676.00,1.79
4675.00,1.79
4674.00,1.79
4673.00,1.79
4672.00,1.79
4671.00,1.79
4670.00,1.79
4669.00,1.80
4668.00,1.80
4667.00,1.80
4666.00,1.81
4665.00,1.81
4664.00,1.82
4663.00,1.82
4662.00,1.83
4661.00,1.83
4660.00,1.84
4659.00,1.84
4658.00,1.84
4657.00,1.85
4656.00,1.85
4655.00,1.85
4654.00,1.86
4653.00,1.86
4652.00,1.86
4651.00,1.87
4650.00,1.87
4649.00,1.87
4648.00,1.87
4647.00,1.87
4646.00,1.87
4645.00,1.87
4644.00,1.87
4643.00,1.87
4642.00,1.87
4641.00,1.87
4640.00,1.87
4639.00,1.86
4638.00,1.86
4637.00,1.86
4636.00,1.86
4635.00,1.85
4634.00,1.85
4633.00,1.85
4632.00,1.85
4631.00,1.85
4630.00,1.85
4629.00,1.85
4628.00,1.85
4627.00,1.86
4626.00,1.86
4625.00,1.86
4624.00,1.87
4623.00,1.87
4622.00,1.87
4621.00,1.88
4620.00,1.88
4619.00,1.89
4618.00,1.89
4617.00,1.90
4616.00,1.90
4615.00,1.91
4614.00,1.91
4613.00,1.91
4612.00,1.92
4611.00,1.92
4610.00,1.92
4609.00,1.93
4608.00,1.93
4607.00,1.93
4606.00,1.93
4605.00,1.93
4604.00,1.93
4603.00,1.93
4602.00,1.93
4601.00,1.93
4600.00,1.93
4599.00,1.93
4598.00,1.93
4597.00,1.92
4596.00,1.92
4595.00,1.92
4594.00,1.91
4593.00,1.91
4592.00,1.91
4591.00,1.91
4590.00,1.91
4589.00,1.91
4588.00,1.91
4587.00,1.91
4586.00,1.91
4585.00,1.92
4584.00,1.92
4583.00,1.92
4582.00,1.92
4581.00,1.93
4580.00,1.93
4579.00,1.93
4578.00,1.94
4577.00,1.94
4576.00,1.94
4575.00,1.94
4574.00,1.95
4573.00,1.95
4572.00,1.95
4571.00,1.96
4570.00,1.96
4569.00,1.96
4568.00,1.96
4567.00,1.96
4566.00,1.96
4565.00,1.97
4564.00,1.97
4563.00,1.97
4562.00,1.97
4561.00,1.97
4560.00,1.96
4559.00,1.96
4558.00,1.96
4557.00,1.96
4556.00,1.96
4555.00,1.96
4554.00,1.95
4553.00,1.95
4552.00,1.95
4551.00,1.95
4550.00,1.95
4549.00,1.94
4548.00,1.94
4547.00,1.94
4546.00,1.94
4545.00,1.94
4544.00,1.93
4543.00,1.93
4542.00,1.93
4541.00,1.93
4540.00,1.93
4539.00,1.93
4538.00,1.93
4537.00,1.92
4536.00,1.92
4535.00,1.92
4534.00,1.92
4533.00,1.92
4532.00,1.91
4531.00,1.91
4530.00,1.91
4529.00,1.91
4528.00,1.91
4527.00,1.91
4526.00,1.91
4525.00,1.91
4524.00,1.92
4523.00,1.92
4522.00,1.92
4521.00,1.92
4520.00,1.93
4519.00,1.93
4518.00,1.93
4517.00,1.94
4516.00,1.94
4515.00,1.94
4514.00,1.94
4513.00,1.95
4512.00,1.95
4511.00,1.96
4510.00,1.96
4509.00,1.96
4508.00,1.97
4507.00,1.97
4506.00,1.98
4505.00,1.98
4504.00,1.98
4503.00,1.98
4502.00,1.99
4501.00,1.99
4500.00,1.99
4499.00,1.99
4498.00,1.99
4497.00,1.99
4496.00,1.99
4495.00,1.99
4494.00,1.98
4493.00,1.98
4492.00,1.98
4491.00,1.98
4490.00,1.97
4489.00,1.97
4488.00,1.97
4487.00,1.97
4486.00,1.97
4485.00,1.97
4484.00,1.96
4483.00,1.96
4482.00,1.96
4481.00,1.96
4480.00,1.96
4479.00,1.96
4478.00,1.96
4477.00,1.95
4476.00,1.95
4475.00,1.95
4474.00,1.95
4473.00,1.95
4472.00,1.95
4471.00,1.94
4470.00,1.94
4469.00,1.94
4468.00,1.94
4467.00,1.94
4466.00,1.94
4465.00,1.93
4464.00,1.93
4463.00,1.93
4462.00,1.93
4461.00,1.92
4460.00,1.92
4459.00,1.92
4458.00,1.91
4457.00,1.91
4456.00,1.90
4455.00,1.90
4454.00,1.89
4453.00,1.89
4452.00,1.88
4451.00,1.88
4450.00,1.87
4449.00,1.87
4448.00,1.86
4447.00,1.86
4446.00,1.85
4445.00,1.85
4444.00,1.85
4443.00,1.84
4442.00,1.84
4441.00,1.84
4440.00,1.84
4439.00,1.83
4438.00,1.83
4437.00,1.83
4436.00,1.83
4435.00,1.82
4434.00,1.82
4433.00,1.82
4432.00,1.81
4431.00,1.81
4430.00,1.81
4429.00,1.81
4428.00,1.80
4427.00,1.80
4426.00,1.80
4425.00,1.79
4424.00,1.79
4423.00,1.78
4422.00,1.78
4421.00,1.77
4420.00,1.77
4419.00,1.77
4418.00,1.76
4417.00,1.76
4416.00,1.75
4415.00,1.75
4414.00,1.75
4413.00,1.74
4412.00,1.74
4411.00,1.74
4410.00,1.74
4409.00,1.74
4408.00,1.73
4407.00,1.73
4406.00,1.73
4405.00,1.73
4404.00,1.73
4403.00,1.73
4402.00,1.73
4401.00,1.73
4400.00,1.73
4399.00,1.74
4398.00,1.74
4397.00,1.75
4396.00,1.75
4395.00,1.76
4394.00,1.76
4393.00,1.77
4392.00,1.77
4391.00,1.78
4390.00,1.78
4389.00,1.78
4388.00,1.78
4387.00,1.79
4386.00,1.79
4385.00,1.79
4384.00,1.80
4383.00,1.80
4382.00,1.81
4381.00,1.81
4380.00,1.81
4379.00,1.82
4378.00,1.82
4377.00,1.83
4376.00,1.83
4375.00,1.84
4374.00,1.84
4373.00,1.84
4372.00,1.84
4371.00,1.84
4370.00,1.84
4369.00,1.84
4368.00,1.84
4367.00,1.84
4366.00,1.84
4365.00,1.84
4364.00,1.83
4363.00,1.83
4362.00,1.83
4361.00,1.83
4360.00,1.83
4359.00,1.83
4358.00,1.83
4357.00,1.82
4356.00,1.82
4355.00,1.82
4354.00,1.82
4353.00,1.82
4352.00,1.82
4351.00,1.81
4350.00,1.81
4349.00,1.81
4348.00,1.81
4347.00,1.82
4346.00,1.82
4345.00,1.82
4344.00,1.82
4343.00,1.82
4342.00,1.83
4341.00,1.83
4340.00,1.83
4339.00,1.83
4338.00,1.83
4337.00,1.83
4336.00,1.84
4335.00,1.84
4334.00,1.84
4333.00,1.84
4332.00,1.84
4331.00,1.84
4330.00,1.84
4329.00,1.84
4328.00,1.83
4327.00,1.83
4326.00,1.83
4325.00,1.82
4324.00,1.82
4323.00,1.81
4322.00,1.81
4321.00,1.80
4320.00,1.80
4319.00,1.79
4318.00,1.78
4317.00,1.78
4316.00,1.77
4315.00,1.77
4314.00,1.76
4313.00,1.76
4312.00,1.75
4311.00,1.75
4310.00,1.74
4309.00,1.74
4308.00,1.74
4307.00,1.73
4306.00,1.73
4305.00,1.73
4304.00,1.73
4303.00,1.73
4302.00,1.74
4301.00,1.74
4300.00,1.75
4299.00,1.75
4298.00,1.76
4297.00,1.77
4296.00,1.77
4295.00,1.78
4294.00,1.79
4293.00,1.79
4292.00,1.80
4291.00,1.81
4290.00,1.82
4289.00,1.83
4288.00,1.83
4287.00,1.84
4286.00,1.84
4285.00,1.85
4284.00,1.86
4283.00,1.86
4282.00,1.86
4281.00,1.87
4280.00,1.87
4279.00,1.87
4278.00,1.87
4277.00,1.87
4276.00,1.87
4275.00,1.87
4274.00,1.87
4273.00,1.87
4272.00,1.87
4271.00,1.86
4270.00,1.86
4269.00,1.85
4268.00,1.84
4267.00,1.84
4266.00,1.83
4265.00,1.82
4264.00,1.81
4263.00,1.80
4262.00,1.79
4261.00,1.78
4260.00,1.77
4259.00,1.77
4258.00,1.76
4257.00,1.76
4256.00,1.75
4255.00,1.75
4254.00,1.75
4253.00,1.75
4252.00,1.75
4251.00,1.75
4250.00,1.75
4249.00,1.75
4248.00,1.75
4247.00,1.75
4246.00,1.75
4245.00,1.75
4244.00,1.75
4243.00,1.76
4242.00,1.77
4241.00,1.77
4240.00,1.78
4239.00,1.79
4238.00,1.80
4237.00,1.81
4236.00,1.82
4235.00,1.83
4234.00,1.84
4233.00,1.85
4232.00,1.86
4231.00,1.87
4230.00,1.88
4229.00,1.88
4228.00,1.89
4227.00,1.89
4226.00,1.90
4225.00,1.90
4224.00,1.90
4223.00,1.90
4222.00,1.90
4221.00,1.91
4220.00,1.91
4219.00,1.91
4218.00,1.92
4217.00,1.92
4216.00,1.92
4215.00,1.92
4214.00,1.92
4213.00,1.92
4212.00,1.91
4211.00,1.91
4210.00,1.91
4209.00,1.90
4208.00,1.90
4207.00,1.90
4206.00,1.89
4205.00,1.89
4204.00,1.89
4203.00,1.88
4202.00,1.88
4201.00,1.88
4200.00,1.88
4199.00,1.88
4198.00,1.88
4197.00,1.88
4196.00,1.88
4195.00,1.88
4194.00,1.88
4193.00,1.88
4192.00,1.87
4191.00,1.87
4190.00,1.87
4189.00,1.87
4188.00,1.87
4187.00,1.87
4186.00,1.87
4185.00,1.87
4184.00,1.87
4183.00,1.87
4182.00,1.87
4181.00,1.87
4180.00,1.87
4179.00,1.87
4178.00,1.87
4177.00,1.87
4176.00,1.87
4175.00,1.87
4174.00,1.86
4173.00,1.86
4172.00,1.85
4171.00,1.85
4170.00,1.84
4169.00,1.84
4168.00,1.83
4167.00,1.83
4166.00,1.83
4165.00,1.82
4164.00,1.82
4163.00,1.82
4162.00,1.82
4161.00,1.83
4160.00,1.83
4159.00,1.83
4158.00,1.83
4157.00,1.84
4156.00,1.84
4155.00,1.84
4154.00,1.85
4153.00,1.85
4152.00,1.85
4151.00,1.86
4150.00,1.87
4149.00,1.87
4148.00,1.88
4147.00,1.89
4146.00,1.90
4145.00,1.91
4144.00,1.92
4143.00,1.93
4142.00,1.94
4141.00,1.95
4140.00,1.96
4139.00,1.97
4138.00,1.97
4137.00,1.98
4136.00,1.98
4135.00,1.98
4134.00,1.98
4133.00,1.98
4132.00,1.98
4131.00,1.98
4130.00,1.98
4129.00,1.98
4128.00,1.98
4127.00,1.98
4126.00,1.98
4125.00,1.98
4124.00,1.98
4123.00,1.98
4122.00,1.98
4121.00,1.98
4120.00,1.97
4119.00,1.97
4118.00,1.97
4117.00,1.97
4116.00,1.97
4115.00,1.97
4114.00,1.97
4113.00,1.98
4112.00,1.98
4111.00,1.98
4110.00,1.99
4109.00,1.99
4108.00,2.00
4107.00,2.01
4106.00,2.01
4105.00,2.02
4104.00,2.03
4103.00,2.03
4102.00,2.04
4101.00,2.05
4100.00,2.05
4099.00,2.06
4098.00,2.07
4097.00,2.07
4096.00,2.08
4095.00,2.09
4094.00,2.10
4093.00,2.10
4092.00,2.11
4091.00,2.11
4090.00,2.11
4089.00,2.11
4088.00,2.11
4087.00,2.11
4086.00,2.11
4085.00,2.11
4084.00,2.11
4083.00,2.11
4082.00,2.10
4081.00,2.10
4080.00,2.09
4079.00,2.09
4078.00,2.08
4077.00,2.08
4076.00,2.07
4075.00,2.06
4074.00,2.06
4073.00,2.05
4072.00,2.04
4071.00,2.03
4070.00,2.03
4069.00,2.02
4068.00,2.01
4067.00,2.00
4066.00,2.00
4065.00,1.99
4064.00,1.99
4063.00,1.98
4062.00,1.98
4061.00,1.98
4060.00,1.98
4059.00,1.98
4058.00,1.98
4057.00,1.98
4056.00,1.98
4055.00,1.99
4054.00,1.99
4053.00,1.99
4052.00,1.99
4051.00,2.00
4050.00,2.00
4049.00,2.00
4048.00,2.00
4047.00,2.01
4046.00,2.01
4045.00,2.01
4044.00,2.01
4043.00,2.01
4042.00,2.01
4041.00,2.01
4040.00,2.02
4039.00,2.02
4038.00,2.02
4037.00,2.03
4036.00,2.03
4035.00,2.04
4034.00,2.04
4033.00,2.04
4032.00,2.04
4031.00,2.03
4030.00,2.03
4029.00,2.03
4028.00,2.03
4027.00,2.03
4026.00,2.03
4025.00,2.03
4024.00,2.04
4023.00,2.05
4022.00,2.06
4021.00,2.07
4020.00,2.09
4019.00,2.10
4018.00,2.12
4017.00,2.15
4016.00,2.17
4015.00,2.19
4014.00,2.22
4013.00,2.24
4012.00,2.26
4011.00,2.28
4010.00,2.30
4009.00,2.33
4008.00,2.35
4007.00,2.38
4006.00,2.41
4005.00,2.44
4004.00,2.48
4003.00,2.52
4002.00,2.56
4001.00,2.60
4000.00,2.64
