创建为新数据集,样品 1211 用户 Administrator 日期 星期二, 七月 30 2019
cm-1,%T
10000.00,3.11
9999.00,3.02
9998.00,2.94
9997.00,2.85
9996.00,2.76
9995.00,2.68
9994.00,2.61
9993.00,2.53
9992.00,2.47
9991.00,2.41
9990.00,2.35
9989.00,2.30
9988.00,2.26
9987.00,2.23
9986.00,2.20
9985.00,2.19
9984.00,2.19
9983.00,2.19
9982.00,2.20
9981.00,2.21
9980.00,2.23
9979.00,2.25
9978.00,2.27
9977.00,2.30
9976.00,2.33
9975.00,2.36
9974.00,2.40
9973.00,2.43
9972.00,2.47
9971.00,2.51
9970.00,2.55
9969.00,2.59
9968.00,2.63
9967.00,2.67
9966.00,2.71
9965.00,2.75
9964.00,2.78
9963.00,2.81
9962.00,2.84
9961.00,2.87
9960.00,2.89
9959.00,2.91
9958.00,2.92
9957.00,2.93
9956.00,2.93
9955.00,2.93
9954.00,2.93
9953.00,2.92
9952.00,2.91
9951.00,2.90
9950.00,2.89
9949.00,2.87
9948.00,2.86
9947.00,2.84
9946.00,2.82
9945.00,2.80
9944.00,2.77
9943.00,2.74
9942.00,2.71
9941.00,2.68
9940.00,2.64
9939.00,2.60
9938.00,2.55
9937.00,2.51
9936.00,2.46
9935.00,2.42
9934.00,2.38
9933.00,2.34
9932.00,2.30
9931.00,2.27
9930.00,2.24
9929.00,2.21
9928.00,2.20
9927.00,2.19
9926.00,2.18
9925.00,2.17
9924.00,2.17
9923.00,2.17
9922.00,2.16
9921.00,2.16
9920.00,2.16
9919.00,2.16
9918.00,2.17
9917.00,2.17
9916.00,2.17
9915.00,2.18
9914.00,2.18
9913.00,2.19
9912.00,2.21
9911.00,2.22
9910.00,2.24
9909.00,2.26
9908.00,2.28
9907.00,2.29
9906.00,2.31
9905.00,2.32
9904.00,2.33
9903.00,2.33
9902.00,2.33
9901.00,2.32
9900.00,2.31
9899.00,2.30
9898.00,2.28
9897.00,2.26
9896.00,2.24
9895.00,2.23
9894.00,2.21
9893.00,2.19
9892.00,2.18
9891.00,2.16
9890.00,2.15
9889.00,2.13
9888.00,2.12
9887.00,2.10
9886.00,2.09
9885.00,2.07
9884.00,2.05
9883.00,2.03
9882.00,2.01
9881.00,2.00
9880.00,1.98
9879.00,1.96
9878.00,1.94
9877.00,1.92
9876.00,1.91
9875.00,1.89
9874.00,1.88
9873.00,1.86
9872.00,1.85
9871.00,1.83
9870.00,1.82
9869.00,1.80
9868.00,1.79
9867.00,1.77
9866.00,1.76
9865.00,1.74
9864.00,1.73
9863.00,1.72
9862.00,1.70
9861.00,1.69
9860.00,1.68
9859.00,1.67
9858.00,1.66
9857.00,1.65
9856.00,1.65
9855.00,1.64
9854.00,1.63
9853.00,1.63
9852.00,1.62
9851.00,1.62
9850.00,1.61
9849.00,1.61
9848.00,1.61
9847.00,1.61
9846.00,1.61
9845.00,1.61
9844.00,1.62
9843.00,1.62
9842.00,1.62
9841.00,1.62
9840.00,1.62
9839.00,1.62
9838.00,1.62
9837.00,1.62
9836.00,1.61
9835.00,1.61
9834.00,1.60
9833.00,1.59
9832.00,1.59
9831.00,1.58
9830.00,1.57
9829.00,1.56
9828.00,1.55
9827.00,1.54
9826.00,1.54
9825.00,1.53
9824.00,1.52
9823.00,1.52
9822.00,1.52
9821.00,1.51
9820.00,1.51
9819.00,1.51
9818.00,1.50
9817.00,1.50
9816.00,1.50
9815.00,1.49
9814.00,1.49
9813.00,1.49
9812.00,1.48
9811.00,1.48
9810.00,1.48
9809.00,1.48
9808.00,1.48
9807.00,1.47
9806.00,1.47
9805.00,1.47
9804.00,1.47
9803.00,1.47
9802.00,1.46
9801.00,1.46
9800.00,1.45
9799.00,1.44
9798.00,1.44
9797.00,1.43
9796.00,1.42
9795.00,1.41
9794.00,1.40
9793.00,1.39
9792.00,1.38
9791.00,1.38
9790.00,1.37
9789.00,1.37
9788.00,1.37
9787.00,1.38
9786.00,1.39
9785.00,1.40
9784.00,1.41
9783.00,1.43
9782.00,1.44
9781.00,1.46
9780.00,1.48
9779.00,1.50
9778.00,1.52
9777.00,1.55
9776.00,1.57
9775.00,1.60
9774.00,1.64
9773.00,1.67
9772.00,1.71
9771.00,1.76
9770.00,1.80
9769.00,1.84
9768.00,1.89
9767.00,1.93
9766.00,1.98
9765.00,2.02
9764.00,2.06
9763.00,2.10
9762.00,2.13
9761.00,2.16
9760.00,2.19
9759.00,2.22
9758.00,2.24
9757.00,2.26
9756.00,2.28
9755.00,2.29
9754.00,2.31
9753.00,2.32
9752.00,2.34
9751.00,2.35
9750.00,2.35
9749.00,2.36
9748.00,2.36
9747.00,2.35
9746.00,2.35
9745.00,2.33
9744.00,2.32
9743.00,2.30
9742.00,2.29
9741.00,2.27
9740.00,2.25
9739.00,2.23
9738.00,2.21
9737.00,2.19
9736.00,2.18
9735.00,2.17
9734.00,2.16
9733.00,2.16
9732.00,2.15
9731.00,2.15
9730.00,2.15
9729.00,2.14
9728.00,2.14
9727.00,2.14
9726.00,2.13
9725.00,2.12
9724.00,2.11
9723.00,2.10
9722.00,2.09
9721.00,2.08
9720.00,2.07
9719.00,2.07
9718.00,2.06
9717.00,2.05
9716.00,2.04
9715.00,2.04
9714.00,2.03
9713.00,2.02
9712.00,2.02
9711.00,2.01
9710.00,2.00
9709.00,1.98
9708.00,1.97
9707.00,1.95
9706.00,1.94
9705.00,1.92
9704.00,1.90
9703.00,1.88
9702.00,1.86
9701.00,1.84
9700.00,1.82
9699.00,1.80
9698.00,1.78
9697.00,1.76
9696.00,1.75
9695.00,1.73
9694.00,1.72
9693.00,1.70
9692.00,1.69
9691.00,1.68
9690.00,1.67
9689.00,1.66
9688.00,1.66
9687.00,1.65
9686.00,1.64
9685.00,1.63
9684.00,1.62
9683.00,1.61
9682.00,1.59
9681.00,1.58
9680.00,1.56
9679.00,1.55
9678.00,1.54
9677.00,1.52
9676.00,1.51
9675.00,1.50
9674.00,1.49
9673.00,1.49
9672.00,1.48
9671.00,1.48
9670.00,1.48
9669.00,1.48
9668.00,1.48
9667.00,1.48
9666.00,1.48
9665.00,1.47
9664.00,1.47
9663.00,1.46
9662.00,1.46
9661.00,1.45
9660.00,1.44
9659.00,1.43
9658.00,1.42
9657.00,1.41
9656.00,1.40
9655.00,1.39
9654.00,1.38
9653.00,1.38
9652.00,1.38
9651.00,1.37
9650.00,1.37
9649.00,1.37
9648.00,1.37
9647.00,1.37
9646.00,1.37
9645.00,1.37
9644.00,1.37
9643.00,1.36
9642.00,1.36
9641.00,1.36
9640.00,1.36
9639.00,1.37
9638.00,1.37
9637.00,1.38
9636.00,1.39
9635.00,1.41
9634.00,1.43
9633.00,1.45
9632.00,1.47
9631.00,1.49
9630.00,1.51
9629.00,1.54
9628.00,1.56
9627.00,1.58
9626.00,1.60
9625.00,1.61
9624.00,1.63
9623.00,1.64
9622.00,1.65
9621.00,1.66
9620.00,1.67
9619.00,1.68
9618.00,1.68
9617.00,1.69
9616.00,1.69
9615.00,1.69
9614.00,1.69
9613.00,1.69
9612.00,1.69
9611.00,1.68
9610.00,1.68
9609.00,1.67
9608.00,1.66
9607.00,1.65
9606.00,1.64
9605.00,1.63
9604.00,1.63
9603.00,1.62
9602.00,1.61
9601.00,1.61
9600.00,1.61
9599.00,1.61
9598.00,1.61
9597.00,1.61
9596.00,1.61
9595.00,1.61
9594.00,1.62
9593.00,1.62
9592.00,1.63
9591.00,1.64
9590.00,1.65
9589.00,1.66
9588.00,1.67
9587.00,1.68
9586.00,1.70
9585.00,1.71
9584.00,1.72
9583.00,1.73
9582.00,1.73
9581.00,1.73
9580.00,1.74
9579.00,1.74
9578.00,1.73
9577.00,1.73
9576.00,1.73
9575.00,1.73
9574.00,1.73
9573.00,1.74
9572.00,1.74
9571.00,1.75
9570.00,1.76
9569.00,1.78
9568.00,1.79
9567.00,1.81
9566.00,1.82
9565.00,1.84
9564.00,1.85
9563.00,1.87
9562.00,1.88
9561.00,1.90
9560.00,1.91
9559.00,1.93
9558.00,1.95
9557.00,1.97
9556.00,2.00
9555.00,2.03
9554.00,2.06
9553.00,2.09
9552.00,2.13
9551.00,2.16
9550.00,2.19
9549.00,2.22
9548.00,2.25
9547.00,2.27
9546.00,2.28
9545.00,2.29
9544.00,2.29
9543.00,2.30
9542.00,2.29
9541.00,2.29
9540.00,2.29
9539.00,2.28
9538.00,2.28
9537.00,2.28
9536.00,2.28
9535.00,2.28
9534.00,2.27
9533.00,2.27
9532.00,2.26
9531.00,2.24
9530.00,2.23
9529.00,2.20
9528.00,2.18
9527.00,2.15
9526.00,2.12
9525.00,2.09
9524.00,2.06
9523.00,2.04
9522.00,2.01
9521.00,2.00
9520.00,1.98
9519.00,1.97
9518.00,1.97
9517.00,1.96
9516.00,1.96
9515.00,1.95
9514.00,1.95
9513.00,1.94
9512.00,1.92
9511.00,1.91
9510.00,1.89
9509.00,1.87
9508.00,1.84
9507.00,1.82
9506.00,1.80
9505.00,1.78
9504.00,1.77
9503.00,1.75
9502.00,1.74
9501.00,1.73
9500.00,1.72
9499.00,1.72
9498.00,1.71
9497.00,1.70
9496.00,1.69
9495.00,1.68
9494.00,1.66
9493.00,1.65
9492.00,1.64
9491.00,1.63
9490.00,1.62
9489.00,1.61
9488.00,1.61
9487.00,1.62
9486.00,1.63
9485.00,1.64
9484.00,1.66
9483.00,1.68
9482.00,1.70
9481.00,1.72
9480.00,1.75
9479.00,1.77
9478.00,1.79
9477.00,1.82
9476.00,1.84
9475.00,1.86
9474.00,1.87
9473.00,1.89
9472.00,1.91
9471.00,1.92
9470.00,1.94
9469.00,1.95
9468.00,1.96
9467.00,1.97
9466.00,1.98
9465.00,1.98
9464.00,1.98
9463.00,1.98
9462.00,1.97
9461.00,1.96
9460.00,1.94
9459.00,1.93
9458.00,1.91
9457.00,1.89
9456.00,1.87
9455.00,1.86
9454.00,1.85
9453.00,1.84
9452.00,1.83
9451.00,1.83
9450.00,1.83
9449.00,1.83
9448.00,1.83
9447.00,1.84
9446.00,1.85
9445.00,1.87
9444.00,1.88
9443.00,1.90
9442.00,1.91
9441.00,1.93
9440.00,1.95
9439.00,1.97
9438.00,1.99
9437.00,2.01
9436.00,2.03
9435.00,2.05
9434.00,2.07
9433.00,2.08
9432.00,2.10
9431.00,2.11
9430.00,2.12
9429.00,2.12
9428.00,2.13
9427.00,2.12
9426.00,2.11
9425.00,2.10
9424.00,2.09
9423.00,2.07
9422.00,2.05
9421.00,2.03
9420.00,2.01
9419.00,1.99
9418.00,1.97
9417.00,1.94
9416.00,1.92
9415.00,1.90
9414.00,1.89
9413.00,1.87
9412.00,1.86
9411.00,1.85
9410.00,1.84
9409.00,1.83
9408.00,1.83
9407.00,1.82
9406.00,1.82
9405.00,1.82
9404.00,1.82
9403.00,1.83
9402.00,1.83
9401.00,1.84
9400.00,1.85
9399.00,1.87
9398.00,1.88
9397.00,1.90
9396.00,1.92
9395.00,1.93
9394.00,1.95
9393.00,1.96
9392.00,1.97
9391.00,1.97
9390.00,1.98
9389.00,1.98
9388.00,1.97
9387.00,1.97
9386.00,1.96
9385.00,1.95
9384.00,1.95
9383.00,1.94
9382.00,1.93
9381.00,1.93
9380.00,1.92
9379.00,1.92
9378.00,1.91
9377.00,1.91
9376.00,1.90
9375.00,1.89
9374.00,1.88
9373.00,1.87
9372.00,1.86
9371.00,1.84
9370.00,1.83
9369.00,1.81
9368.00,1.80
9367.00,1.78
9366.00,1.77
9365.00,1.77
9364.00,1.76
9363.00,1.76
9362.00,1.76
9361.00,1.75
9360.00,1.75
9359.00,1.75
9358.00,1.75
9357.00,1.75
9356.00,1.74
9355.00,1.74
9354.00,1.74
9353.00,1.73
9352.00,1.72
9351.00,1.72
9350.00,1.72
9349.00,1.73
9348.00,1.73
9347.00,1.74
9346.00,1.75
9345.00,1.77
9344.00,1.78
9343.00,1.80
9342.00,1.81
9341.00,1.83
9340.00,1.84
9339.00,1.86
9338.00,1.87
9337.00,1.88
9336.00,1.89
9335.00,1.91
9334.00,1.92
9333.00,1.94
9332.00,1.95
9331.00,1.96
9330.00,1.97
9329.00,1.99
9328.00,2.00
9327.00,2.01
9326.00,2.02
9325.00,2.02
9324.00,2.03
9323.00,2.02
9322.00,2.02
9321.00,2.01
9320.00,2.00
9319.00,1.99
9318.00,1.98
9317.00,1.96
9316.00,1.95
9315.00,1.93
9314.00,1.92
9313.00,1.90
9312.00,1.89
9311.00,1.88
9310.00,1.87
9309.00,1.85
9308.00,1.84
9307.00,1.82
9306.00,1.81
9305.00,1.79
9304.00,1.77
9303.00,1.76
9302.00,1.74
9301.00,1.72
9300.00,1.71
9299.00,1.69
9298.00,1.68
9297.00,1.67
9296.00,1.66
9295.00,1.65
9294.00,1.64
9293.00,1.63
9292.00,1.62
9291.00,1.61
9290.00,1.60
9289.00,1.60
9288.00,1.59
9287.00,1.58
9286.00,1.57
9285.00,1.56
9284.00,1.55
9283.00,1.55
9282.00,1.54
9281.00,1.54
9280.00,1.54
9279.00,1.55
9278.00,1.55
9277.00,1.56
9276.00,1.56
9275.00,1.57
9274.00,1.59
9273.00,1.60
9272.00,1.61
9271.00,1.63
9270.00,1.64
9269.00,1.66
9268.00,1.68
9267.00,1.70
9266.00,1.71
9265.00,1.73
9264.00,1.75
9263.00,1.77
9262.00,1.78
9261.00,1.80
9260.00,1.81
9259.00,1.83
9258.00,1.84
9257.00,1.85
9256.00,1.86
9255.00,1.87
9254.00,1.88
9253.00,1.88
9252.00,1.88
9251.00,1.88
9250.00,1.87
9249.00,1.87
9248.00,1.86
9247.00,1.85
9246.00,1.84
9245.00,1.82
9244.00,1.81
9243.00,1.79
9242.00,1.77
9241.00,1.75
9240.00,1.73
9239.00,1.71
9238.00,1.69
9237.00,1.67
9236.00,1.64
9235.00,1.62
9234.00,1.60
9233.00,1.58
9232.00,1.56
9231.00,1.54
9230.00,1.53
9229.00,1.51
9228.00,1.50
9227.00,1.49
9226.00,1.48
9225.00,1.48
9224.00,1.47
9223.00,1.47
9222.00,1.47
9221.00,1.47
9220.00,1.47
9219.00,1.47
9218.00,1.47
9217.00,1.48
9216.00,1.49
9215.00,1.50
9214.00,1.51
9213.00,1.53
9212.00,1.54
9211.00,1.56
9210.00,1.58
9209.00,1.60
9208.00,1.62
9207.00,1.64
9206.00,1.66
9205.00,1.68
9204.00,1.70
9203.00,1.71
9202.00,1.73
9201.00,1.75
9200.00,1.76
9199.00,1.78
9198.00,1.79
9197.00,1.80
9196.00,1.82
9195.00,1.84
9194.00,1.85
9193.00,1.87
9192.00,1.89
9191.00,1.90
9190.00,1.92
9189.00,1.93
9188.00,1.95
9187.00,1.96
9186.00,1.98
9185.00,2.00
9184.00,2.01
9183.00,2.03
9182.00,2.05
9181.00,2.07
9180.00,2.09
9179.00,2.11
9178.00,2.13
9177.00,2.15
9176.00,2.17
9175.00,2.18
9174.00,2.20
9173.00,2.22
9172.00,2.23
9171.00,2.25
9170.00,2.26
9169.00,2.27
9168.00,2.27
9167.00,2.27
9166.00,2.27
9165.00,2.27
9164.00,2.27
9163.00,2.26
9162.00,2.26
9161.00,2.25
9160.00,2.25
9159.00,2.24
9158.00,2.23
9157.00,2.22
9156.00,2.21
9155.00,2.20
9154.00,2.18
9153.00,2.16
9152.00,2.14
9151.00,2.12
9150.00,2.10
9149.00,2.07
9148.00,2.05
9147.00,2.03
9146.00,2.00
9145.00,1.98
9144.00,1.96
9143.00,1.94
9142.00,1.93
9141.00,1.91
9140.00,1.90
9139.00,1.89
9138.00,1.88
9137.00,1.87
9136.00,1.86
9135.00,1.85
9134.00,1.83
9133.00,1.81
9132.00,1.79
9131.00,1.77
9130.00,1.75
9129.00,1.73
9128.00,1.71
9127.00,1.69
9126.00,1.68
9125.00,1.67
9124.00,1.66
9123.00,1.65
9122.00,1.64
9121.00,1.64
9120.00,1.64
9119.00,1.64
9118.00,1.64
9117.00,1.64
9116.00,1.64
9115.00,1.64
9114.00,1.64
9113.00,1.64
9112.00,1.64
9111.00,1.64
9110.00,1.64
9109.00,1.65
9108.00,1.66
9107.00,1.67
9106.00,1.69
9105.00,1.71
9104.00,1.73
9103.00,1.75
9102.00,1.77
9101.00,1.79
9100.00,1.81
9099.00,1.83
9098.00,1.84
9097.00,1.86
9096.00,1.87
9095.00,1.87
9094.00,1.88
9093.00,1.88
9092.00,1.88
9091.00,1.88
9090.00,1.87
9089.00,1.87
9088.00,1.86
9087.00,1.86
9086.00,1.85
9085.00,1.85
9084.00,1.84
9083.00,1.83
9082.00,1.83
9081.00,1.82
9080.00,1.81
9079.00,1.79
9078.00,1.78
9077.00,1.77
9076.00,1.75
9075.00,1.73
9074.00,1.72
9073.00,1.70
9072.00,1.69
9071.00,1.68
9070.00,1.67
9069.00,1.66
9068.00,1.65
9067.00,1.65
9066.00,1.64
9065.00,1.64
9064.00,1.64
9063.00,1.65
9062.00,1.65
9061.00,1.65
9060.00,1.66
9059.00,1.66
9058.00,1.66
9057.00,1.67
9056.00,1.67
9055.00,1.67
9054.00,1.67
9053.00,1.68
9052.00,1.68
9051.00,1.69
9050.00,1.70
9049.00,1.70
9048.00,1.72
9047.00,1.73
9046.00,1.74
9045.00,1.76
9044.00,1.77
9043.00,1.79
9042.00,1.81
9041.00,1.82
9040.00,1.84
9039.00,1.85
9038.00,1.86
9037.00,1.88
9036.00,1.89
9035.00,1.90
9034.00,1.91
9033.00,1.92
9032.00,1.93
9031.00,1.94
9030.00,1.94
9029.00,1.95
9028.00,1.96
9027.00,1.97
9026.00,1.97
9025.00,1.97
9024.00,1.97
9023.00,1.97
9022.00,1.97
9021.00,1.96
9020.00,1.95
9019.00,1.93
9018.00,1.92
9017.00,1.90
9016.00,1.88
9015.00,1.86
9014.00,1.84
9013.00,1.82
9012.00,1.81
9011.00,1.79
9010.00,1.77
9009.00,1.76
9008.00,1.74
9007.00,1.73
9006.00,1.72
9005.00,1.71
9004.00,1.70
9003.00,1.69
9002.00,1.68
9001.00,1.68
9000.00,1.68
8999.00,1.67
8998.00,1.67
8997.00,1.68
8996.00,1.68
8995.00,1.69
8994.00,1.69
8993.00,1.70
8992.00,1.71
8991.00,1.73
8990.00,1.74
8989.00,1.75
8988.00,1.76
8987.00,1.77
8986.00,1.78
8985.00,1.79
8984.00,1.80
8983.00,1.81
8982.00,1.82
8981.00,1.82
8980.00,1.83
8979.00,1.84
8978.00,1.84
8977.00,1.85
8976.00,1.85
8975.00,1.86
8974.00,1.86
8973.00,1.86
8972.00,1.86
8971.00,1.86
8970.00,1.86
8969.00,1.86
8968.00,1.85
8967.00,1.85
8966.00,1.84
8965.00,1.83
8964.00,1.82
8963.00,1.81
8962.00,1.80
8961.00,1.79
8960.00,1.78
8959.00,1.77
8958.00,1.75
8957.00,1.74
8956.00,1.73
8955.00,1.71
8954.00,1.70
8953.00,1.68
8952.00,1.66
8951.00,1.65
8950.00,1.63
8949.00,1.61
8948.00,1.59
8947.00,1.57
8946.00,1.56
8945.00,1.54
8944.00,1.52
8943.00,1.51
8942.00,1.49
8941.00,1.48
8940.00,1.46
8939.00,1.45
8938.00,1.44
8937.00,1.44
8936.00,1.44
8935.00,1.43
8934.00,1.44
8933.00,1.44
8932.00,1.45
8931.00,1.46
8930.00,1.47
8929.00,1.48
8928.00,1.49
8927.00,1.50
8926.00,1.52
8925.00,1.53
8924.00,1.54
8923.00,1.55
8922.00,1.57
8921.00,1.58
8920.00,1.59
8919.00,1.60
8918.00,1.61
8917.00,1.62
8916.00,1.63
8915.00,1.65
8914.00,1.66
8913.00,1.67
8912.00,1.68
8911.00,1.69
8910.00,1.69
8909.00,1.70
8908.00,1.70
8907.00,1.70
8906.00,1.70
8905.00,1.70
8904.00,1.70
8903.00,1.70
8902.00,1.70
8901.00,1.69
8900.00,1.69
8899.00,1.69
8898.00,1.69
8897.00,1.69
8896.00,1.69
8895.00,1.69
8894.00,1.69
8893.00,1.70
8892.00,1.70
8891.00,1.71
8890.00,1.72
8889.00,1.73
8888.00,1.75
8887.00,1.76
8886.00,1.78
8885.00,1.80
8884.00,1.82
8883.00,1.84
8882.00,1.86
8881.00,1.88
8880.00,1.89
8879.00,1.91
8878.00,1.93
8877.00,1.94
8876.00,1.96
8875.00,1.98
8874.00,1.99
8873.00,2.01
8872.00,2.02
8871.00,2.03
8870.00,2.05
8869.00,2.06
8868.00,2.07
8867.00,2.07
8866.00,2.07
8865.00,2.07
8864.00,2.07
8863.00,2.06
8862.00,2.05
8861.00,2.03
8860.00,2.01
8859.00,1.98
8858.00,1.96
8857.00,1.93
8856.00,1.90
8855.00,1.87
8854.00,1.84
8853.00,1.82
8852.00,1.79
8851.00,1.75
8850.00,1.72
8849.00,1.69
8848.00,1.66
8847.00,1.63
8846.00,1.61
8845.00,1.58
8844.00,1.55
8843.00,1.53
8842.00,1.50
8841.00,1.48
8840.00,1.46
8839.00,1.44
8838.00,1.42
8837.00,1.41
8836.00,1.40
8835.00,1.39
8834.00,1.38
8833.00,1.38
8832.00,1.38
8831.00,1.39
8830.00,1.39
8829.00,1.40
8828.00,1.41
8827.00,1.42
8826.00,1.43
8825.00,1.45
8824.00,1.46
8823.00,1.48
8822.00,1.50
8821.00,1.51
8820.00,1.53
8819.00,1.55
8818.00,1.56
8817.00,1.58
8816.00,1.60
8815.00,1.62
8814.00,1.63
8813.00,1.65
8812.00,1.67
8811.00,1.69
8810.00,1.70
8809.00,1.72
8808.00,1.73
8807.00,1.75
8806.00,1.76
8805.00,1.77
8804.00,1.78
8803.00,1.78
8802.00,1.79
8801.00,1.80
8800.00,1.80
8799.00,1.81
8798.00,1.81
8797.00,1.82
8796.00,1.82
8795.00,1.83
8794.00,1.84
8793.00,1.84
8792.00,1.85
8791.00,1.86
8790.00,1.87
8789.00,1.88
8788.00,1.89
8787.00,1.90
8786.00,1.91
8785.00,1.92
8784.00,1.93
8783.00,1.94
8782.00,1.95
8781.00,1.96
8780.00,1.97
8779.00,1.98
8778.00,1.99
8777.00,2.00
8776.00,2.01
8775.00,2.02
8774.00,2.03
8773.00,2.03
8772.00,2.04
8771.00,2.04
8770.00,2.04
8769.00,2.04
8768.00,2.04
8767.00,2.03
8766.00,2.03
8765.00,2.02
8764.00,2.01
8763.00,2.01
8762.00,2.00
8761.00,1.99
8760.00,1.99
8759.00,1.98
8758.00,1.98
8757.00,1.97
8756.00,1.97
8755.00,1.97
8754.00,1.97
8753.00,1.97
8752.00,1.97
8751.00,1.97
8750.00,1.98
8749.00,1.99
8748.00,2.00
8747.00,2.01
8746.00,2.02
8745.00,2.03
8744.00,2.05
8743.00,2.06
8742.00,2.08
8741.00,2.10
8740.00,2.12
8739.00,2.14
8738.00,2.16
8737.00,2.17
8736.00,2.19
8735.00,2.20
8734.00,2.21
8733.00,2.22
8732.00,2.23
8731.00,2.23
8730.00,2.23
8729.00,2.23
8728.00,2.23
8727.00,2.22
8726.00,2.22
8725.00,2.21
8724.00,2.21
8723.00,2.20
8722.00,2.20
8721.00,2.19
8720.00,2.18
8719.00,2.17
8718.00,2.17
8717.00,2.16
8716.00,2.14
8715.00,2.13
8714.00,2.12
8713.00,2.11
8712.00,2.09
8711.00,2.08
8710.00,2.07
8709.00,2.05
8708.00,2.04
8707.00,2.03
8706.00,2.03
8705.00,2.02
8704.00,2.02
8703.00,2.01
8702.00,2.01
8701.00,2.00
8700.00,2.00
8699.00,1.99
8698.00,1.98
8697.00,1.98
8696.00,1.97
8695.00,1.96
8694.00,1.95
8693.00,1.95
8692.00,1.94
8691.00,1.93
8690.00,1.93
8689.00,1.92
8688.00,1.92
8687.00,1.91
8686.00,1.91
8685.00,1.90
8684.00,1.90
8683.00,1.90
8682.00,1.89
8681.00,1.89
8680.00,1.89
8679.00,1.89
8678.00,1.90
8677.00,1.90
8676.00,1.90
8675.00,1.91
8674.00,1.92
8673.00,1.93
8672.00,1.94
8671.00,1.95
8670.00,1.96
8669.00,1.97
8668.00,1.98
8667.00,1.99
8666.00,2.00
8665.00,2.01
8664.00,2.01
8663.00,2.02
8662.00,2.03
8661.00,2.04
8660.00,2.06
8659.00,2.07
8658.00,2.09
8657.00,2.11
8656.00,2.13
8655.00,2.15
8654.00,2.16
8653.00,2.18
8652.00,2.20
8651.00,2.22
8650.00,2.23
8649.00,2.25
8648.00,2.26
8647.00,2.27
8646.00,2.28
8645.00,2.28
8644.00,2.29
8643.00,2.29
8642.00,2.30
8641.00,2.30
8640.00,2.30
8639.00,2.30
8638.00,2.30
8637.00,2.29
8636.00,2.29
8635.00,2.28
8634.00,2.27
8633.00,2.25
8632.00,2.24
8631.00,2.22
8630.00,2.19
8629.00,2.17
8628.00,2.14
8627.00,2.11
8626.00,2.08
8625.00,2.05
8624.00,2.02
8623.00,1.99
8622.00,1.96
8621.00,1.92
8620.00,1.89
8619.00,1.86
8618.00,1.83
8617.00,1.80
8616.00,1.78
8615.00,1.76
8614.00,1.74
8613.00,1.72
8612.00,1.71
8611.00,1.70
8610.00,1.69
8609.00,1.69
8608.00,1.68
8607.00,1.68
8606.00,1.68
8605.00,1.68
8604.00,1.69
8603.00,1.69
8602.00,1.70
8601.00,1.71
8600.00,1.72
8599.00,1.73
8598.00,1.75
8597.00,1.76
8596.00,1.78
8595.00,1.80
8594.00,1.82
8593.00,1.84
8592.00,1.86
8591.00,1.88
8590.00,1.90
8589.00,1.91
8588.00,1.93
8587.00,1.94
8586.00,1.95
8585.00,1.96
8584.00,1.96
8583.00,1.96
8582.00,1.96
8581.00,1.96
8580.00,1.96
8579.00,1.96
8578.00,1.95
8577.00,1.95
8576.00,1.94
8575.00,1.94
8574.00,1.93
8573.00,1.93
8572.00,1.92
8571.00,1.91
8570.00,1.91
8569.00,1.90
8568.00,1.88
8567.00,1.87
8566.00,1.86
8565.00,1.84
8564.00,1.83
8563.00,1.81
8562.00,1.79
8561.00,1.78
8560.00,1.76
8559.00,1.74
8558.00,1.72
8557.00,1.71
8556.00,1.70
8555.00,1.69
8554.00,1.68
8553.00,1.67
8552.00,1.66
8551.00,1.66
8550.00,1.65
8549.00,1.65
8548.00,1.65
8547.00,1.64
8546.00,1.64
8545.00,1.64
8544.00,1.63
8543.00,1.63
8542.00,1.63
8541.00,1.62
8540.00,1.62
8539.00,1.62
8538.00,1.62
8537.00,1.63
8536.00,1.63
8535.00,1.64
8534.00,1.64
8533.00,1.65
8532.00,1.66
8531.00,1.67
8530.00,1.67
8529.00,1.68
8528.00,1.68
8527.00,1.68
8526.00,1.69
8525.00,1.68
8524.00,1.68
8523.00,1.68
8522.00,1.68
8521.00,1.68
8520.00,1.67
8519.00,1.67
8518.00,1.67
8517.00,1.67
8516.00,1.68
8515.00,1.68
8514.00,1.68
8513.00,1.68
8512.00,1.69
8511.00,1.69
8510.00,1.69
8509.00,1.69
8508.00,1.70
8507.00,1.70
8506.00,1.71
8505.00,1.72
8504.00,1.73
8503.00,1.75
8502.00,1.76
8501.00,1.78
8500.00,1.81
8499.00,1.83
8498.00,1.85
8497.00,1.88
8496.00,1.90
8495.00,1.93
8494.00,1.96
8493.00,1.99
8492.00,2.01
8491.00,2.04
8490.00,2.07
8489.00,2.10
8488.00,2.13
8487.00,2.16
8486.00,2.20
8485.00,2.23
8484.00,2.26
8483.00,2.29
8482.00,2.32
8481.00,2.35
8480.00,2.38
8479.00,2.40
8478.00,2.42
8477.00,2.44
8476.00,2.45
8475.00,2.46
8474.00,2.47
8473.00,2.47
8472.00,2.47
8471.00,2.47
8470.00,2.47
8469.00,2.47
8468.00,2.47
8467.00,2.46
8466.00,2.46
8465.00,2.45
8464.00,2.44
8463.00,2.43
8462.00,2.42
8461.00,2.40
8460.00,2.38
8459.00,2.36
8458.00,2.34
8457.00,2.32
8456.00,2.30
8455.00,2.28
8454.00,2.26
8453.00,2.25
8452.00,2.24
8451.00,2.23
8450.00,2.22
8449.00,2.21
8448.00,2.21
8447.00,2.21
8446.00,2.21
8445.00,2.20
8444.00,2.20
8443.00,2.20
8442.00,2.19
8441.00,2.19
8440.00,2.19
8439.00,2.19
8438.00,2.18
8437.00,2.18
8436.00,2.19
8435.00,2.19
8434.00,2.19
8433.00,2.20
8432.00,2.20
8431.00,2.21
8430.00,2.21
8429.00,2.22
8428.00,2.22
8427.00,2.22
8426.00,2.22
8425.00,2.21
8424.00,2.21
8423.00,2.20
8422.00,2.19
8421.00,2.18
8420.00,2.18
8419.00,2.17
8418.00,2.16
8417.00,2.15
8416.00,2.15
8415.00,2.14
8414.00,2.13
8413.00,2.13
8412.00,2.12
8411.00,2.12
8410.00,2.11
8409.00,2.11
8408.00,2.10
8407.00,2.09
8406.00,2.08
8405.00,2.07
8404.00,2.06
8403.00,2.06
8402.00,2.05
8401.00,2.04
8400.00,2.03
8399.00,2.03
8398.00,2.02
8397.00,2.02
8396.00,2.01
8395.00,2.01
8394.00,2.01
8393.00,2.00
8392.00,2.00
8391.00,2.00
8390.00,2.00
8389.00,1.99
8388.00,1.99
8387.00,1.98
8386.00,1.98
8385.00,1.97
8384.00,1.97
8383.00,1.96
8382.00,1.96
8381.00,1.95
8380.00,1.95
8379.00,1.94
8378.00,1.94
8377.00,1.94
8376.00,1.94
8375.00,1.93
8374.00,1.93
8373.00,1.93
8372.00,1.93
8371.00,1.93
8370.00,1.93
8369.00,1.93
8368.00,1.93
8367.00,1.93
8366.00,1.93
8365.00,1.93
8364.00,1.93
8363.00,1.93
8362.00,1.93
8361.00,1.93
8360.00,1.94
8359.00,1.94
8358.00,1.94
8357.00,1.95
8356.00,1.95
8355.00,1.96
8354.00,1.96
8353.00,1.97
8352.00,1.97
8351.00,1.97
8350.00,1.98
8349.00,1.98
8348.00,1.99
8347.00,1.99
8346.00,2.00
8345.00,2.00
8344.00,2.00
8343.00,2.00
8342.00,2.00
8341.00,2.00
8340.00,2.00
8339.00,2.00
8338.00,2.00
8337.00,2.00
8336.00,1.99
8335.00,1.99
8334.00,1.99
8333.00,1.99
8332.00,1.99
8331.00,1.99
8330.00,2.00
8329.00,2.00
8328.00,2.01
8327.00,2.01
8326.00,2.02
8325.00,2.02
8324.00,2.03
8323.00,2.04
8322.00,2.04
8321.00,2.05
8320.00,2.05
8319.00,2.06
8318.00,2.06
8317.00,2.07
8316.00,2.07
8315.00,2.08
8314.00,2.08
8313.00,2.09
8312.00,2.09
8311.00,2.10
8310.00,2.10
8309.00,2.11
8308.00,2.11
8307.00,2.11
8306.00,2.11
8305.00,2.11
8304.00,2.11
8303.00,2.10
8302.00,2.09
8301.00,2.08
8300.00,2.07
8299.00,2.06
8298.00,2.05
8297.00,2.03
8296.00,2.02
8295.00,2.01
8294.00,2.00
8293.00,2.00
8292.00,1.99
8291.00,1.99
8290.00,1.99
8289.00,1.99
8288.00,1.99
8287.00,1.99
8286.00,2.00
8285.00,2.00
8284.00,2.01
8283.00,2.01
8282.00,2.02
8281.00,2.02
8280.00,2.03
8279.00,2.04
8278.00,2.05
8277.00,2.05
8276.00,2.06
8275.00,2.07
8274.00,2.08
8273.00,2.09
8272.00,2.10
8271.00,2.11
8270.00,2.12
8269.00,2.13
8268.00,2.13
8267.00,2.14
8266.00,2.14
8265.00,2.14
8264.00,2.14
8263.00,2.14
8262.00,2.14
8261.00,2.13
8260.00,2.12
8259.00,2.12
8258.00,2.11
8257.00,2.10
8256.00,2.08
8255.00,2.07
8254.00,2.06
8253.00,2.05
8252.00,2.04
8251.00,2.03
8250.00,2.02
8249.00,2.01
8248.00,2.00
8247.00,1.99
8246.00,1.98
8245.00,1.97
8244.00,1.96
8243.00,1.96
8242.00,1.95
8241.00,1.94
8240.00,1.93
8239.00,1.93
8238.00,1.92
8237.00,1.92
8236.00,1.91
8235.00,1.91
8234.00,1.91
8233.00,1.90
8232.00,1.90
8231.00,1.90
8230.00,1.90
8229.00,1.90
8228.00,1.90
8227.00,1.91
8226.00,1.91
8225.00,1.91
8224.00,1.92
8223.00,1.92
8222.00,1.92
8221.00,1.93
8220.00,1.93
8219.00,1.94
8218.00,1.94
8217.00,1.95
8216.00,1.95
8215.00,1.96
8214.00,1.96
8213.00,1.97
8212.00,1.97
8211.00,1.97
8210.00,1.97
8209.00,1.97
8208.00,1.97
8207.00,1.97
8206.00,1.97
8205.00,1.96
8204.00,1.96
8203.00,1.96
8202.00,1.96
8201.00,1.96
8200.00,1.96
8199.00,1.96
8198.00,1.96
8197.00,1.96
8196.00,1.96
8195.00,1.95
8194.00,1.95
8193.00,1.95
8192.00,1.94
8191.00,1.94
8190.00,1.93
8189.00,1.93
8188.00,1.92
8187.00,1.92
8186.00,1.91
8185.00,1.91
8184.00,1.90
8183.00,1.90
8182.00,1.90
8181.00,1.90
8180.00,1.89
8179.00,1.89
8178.00,1.89
8177.00,1.89
8176.00,1.88
8175.00,1.88
8174.00,1.87
8173.00,1.86
8172.00,1.85
8171.00,1.85
8170.00,1.84
8169.00,1.83
8168.00,1.83
8167.00,1.82
8166.00,1.82
8165.00,1.82
8164.00,1.82
8163.00,1.82
8162.00,1.83
8161.00,1.83
8160.00,1.84
8159.00,1.84
8158.00,1.85
8157.00,1.86
8156.00,1.87
8155.00,1.88
8154.00,1.88
8153.00,1.89
8152.00,1.90
8151.00,1.91
8150.00,1.92
8149.00,1.93
8148.00,1.94
8147.00,1.96
8146.00,1.97
8145.00,1.98
8144.00,2.00
8143.00,2.01
8142.00,2.02
8141.00,2.03
8140.00,2.04
8139.00,2.04
8138.00,2.05
8137.00,2.05
8136.00,2.05
8135.00,2.04
8134.00,2.04
8133.00,2.03
8132.00,2.02
8131.00,2.01
8130.00,2.00
8129.00,1.99
8128.00,1.98
8127.00,1.97
8126.00,1.96
8125.00,1.95
8124.00,1.94
8123.00,1.93
8122.00,1.93
8121.00,1.92
8120.00,1.91
8119.00,1.90
8118.00,1.89
8117.00,1.88
8116.00,1.87
8115.00,1.86
8114.00,1.85
8113.00,1.85
8112.00,1.85
8111.00,1.85
8110.00,1.86
8109.00,1.86
8108.00,1.87
8107.00,1.88
8106.00,1.90
8105.00,1.91
8104.00,1.92
8103.00,1.94
8102.00,1.95
8101.00,1.96
8100.00,1.98
8099.00,1.99
8098.00,2.00
8097.00,2.02
8096.00,2.03
8095.00,2.04
8094.00,2.05
8093.00,2.06
8092.00,2.08
8091.00,2.09
8090.00,2.10
8089.00,2.12
8088.00,2.13
8087.00,2.15
8086.00,2.16
8085.00,2.17
8084.00,2.18
8083.00,2.19
8082.00,2.20
8081.00,2.21
8080.00,2.22
8079.00,2.23
8078.00,2.23
8077.00,2.24
8076.00,2.24
8075.00,2.24
8074.00,2.25
8073.00,2.25
8072.00,2.25
8071.00,2.26
8070.00,2.26
8069.00,2.26
8068.00,2.26
8067.00,2.26
8066.00,2.26
8065.00,2.26
8064.00,2.25
8063.00,2.25
8062.00,2.25
8061.00,2.24
8060.00,2.23
8059.00,2.23
8058.00,2.22
8057.00,2.21
8056.00,2.21
8055.00,2.20
8054.00,2.20
8053.00,2.19
8052.00,2.19
8051.00,2.19
8050.00,2.18
8049.00,2.18
8048.00,2.18
8047.00,2.18
8046.00,2.18
8045.00,2.18
8044.00,2.19
8043.00,2.19
8042.00,2.19
8041.00,2.20
8040.00,2.20
8039.00,2.21
8038.00,2.21
8037.00,2.22
8036.00,2.22
8035.00,2.23
8034.00,2.23
8033.00,2.23
8032.00,2.23
8031.00,2.23
8030.00,2.23
8029.00,2.23
8028.00,2.23
8027.00,2.23
8026.00,2.22
8025.00,2.22
8024.00,2.22
8023.00,2.21
8022.00,2.21
8021.00,2.20
8020.00,2.20
8019.00,2.19
8018.00,2.19
8017.00,2.18
8016.00,2.18
8015.00,2.17
8014.00,2.17
8013.00,2.16
8012.00,2.16
8011.00,2.16
8010.00,2.15
8009.00,2.15
8008.00,2.15
8007.00,2.15
8006.00,2.15
8005.00,2.16
8004.00,2.16
8003.00,2.17
8002.00,2.18
8001.00,2.19
8000.00,2.20
7999.00,2.20
7998.00,2.21
7997.00,2.22
7996.00,2.22
7995.00,2.23
7994.00,2.23
7993.00,2.24
7992.00,2.24
7991.00,2.24
7990.00,2.24
7989.00,2.24
7988.00,2.24
7987.00,2.24
7986.00,2.24
7985.00,2.24
7984.00,2.24
7983.00,2.24
7982.00,2.24
7981.00,2.25
7980.00,2.25
7979.00,2.25
7978.00,2.24
7977.00,2.24
7976.00,2.23
7975.00,2.23
7974.00,2.22
7973.00,2.21
7972.00,2.21
7971.00,2.20
7970.00,2.20
7969.00,2.19
7968.00,2.19
7967.00,2.19
7966.00,2.19
7965.00,2.20
7964.00,2.20
7963.00,2.20
7962.00,2.20
7961.00,2.21
7960.00,2.21
7959.00,2.21
7958.00,2.21
7957.00,2.21
7956.00,2.20
7955.00,2.20
7954.00,2.19
7953.00,2.18
7952.00,2.18
7951.00,2.17
7950.00,2.17
7949.00,2.17
7948.00,2.16
7947.00,2.16
7946.00,2.15
7945.00,2.15
7944.00,2.14
7943.00,2.13
7942.00,2.12
7941.00,2.11
7940.00,2.10
7939.00,2.09
7938.00,2.08
7937.00,2.06
7936.00,2.05
7935.00,2.04
7934.00,2.04
7933.00,2.03
7932.00,2.02
7931.00,2.01
7930.00,2.01
7929.00,2.01
7928.00,2.00
7927.00,2.00
7926.00,2.00
7925.00,2.00
7924.00,2.01
7923.00,2.01
7922.00,2.02
7921.00,2.02
7920.00,2.03
7919.00,2.04
7918.00,2.05
7917.00,2.06
7916.00,2.07
7915.00,2.08
7914.00,2.09
7913.00,2.10
7912.00,2.12
7911.00,2.13
7910.00,2.13
7909.00,2.14
7908.00,2.15
7907.00,2.15
7906.00,2.16
7905.00,2.16
7904.00,2.16
7903.00,2.17
7902.00,2.17
7901.00,2.17
7900.00,2.17
7899.00,2.17
7898.00,2.16
7897.00,2.16
7896.00,2.15
7895.00,2.14
7894.00,2.13
7893.00,2.12
7892.00,2.11
7891.00,2.09
7890.00,2.08
7889.00,2.06
7888.00,2.05
7887.00,2.04
7886.00,2.03
7885.00,2.02
7884.00,2.02
7883.00,2.01
7882.00,2.01
7881.00,2.00
7880.00,2.00
7879.00,2.00
7878.00,2.00
7877.00,2.00
7876.00,2.00
7875.00,2.00
7874.00,2.00
7873.00,2.00
7872.00,2.00
7871.00,2.01
7870.00,2.01
7869.00,2.02
7868.00,2.02
7867.00,2.03
7866.00,2.05
7865.00,2.06
7864.00,2.07
7863.00,2.09
7862.00,2.11
7861.00,2.12
7860.00,2.14
7859.00,2.16
7858.00,2.17
7857.00,2.18
7856.00,2.19
7855.00,2.20
7854.00,2.21
7853.00,2.22
7852.00,2.23
7851.00,2.24
7850.00,2.24
7849.00,2.25
7848.00,2.26
7847.00,2.27
7846.00,2.29
7845.00,2.30
7844.00,2.31
7843.00,2.33
7842.00,2.34
7841.00,2.35
7840.00,2.36
7839.00,2.37
7838.00,2.37
7837.00,2.38
7836.00,2.38
7835.00,2.38
7834.00,2.38
7833.00,2.38
7832.00,2.38
7831.00,2.38
7830.00,2.38
7829.00,2.38
7828.00,2.38
7827.00,2.38
7826.00,2.38
7825.00,2.38
7824.00,2.38
7823.00,2.38
7822.00,2.38
7821.00,2.37
7820.00,2.37
7819.00,2.36
7818.00,2.35
7817.00,2.34
7816.00,2.33
7815.00,2.32
7814.00,2.31
7813.00,2.30
7812.00,2.29
7811.00,2.28
7810.00,2.27
7809.00,2.26
7808.00,2.25
7807.00,2.24
7806.00,2.23
7805.00,2.22
7804.00,2.21
7803.00,2.20
7802.00,2.19
7801.00,2.18
7800.00,2.17
7799.00,2.16
7798.00,2.15
7797.00,2.14
7796.00,2.13
7795.00,2.13
7794.00,2.12
7793.00,2.12
7792.00,2.11
7791.00,2.11
7790.00,2.11
7789.00,2.11
7788.00,2.10
7787.00,2.10
7786.00,2.10
7785.00,2.10
7784.00,2.10
7783.00,2.10
7782.00,2.10
7781.00,2.10
7780.00,2.11
7779.00,2.11
7778.00,2.12
7777.00,2.12
7776.00,2.13
7775.00,2.13
7774.00,2.14
7773.00,2.14
7772.00,2.15
7771.00,2.15
7770.00,2.16
7769.00,2.17
7768.00,2.17
7767.00,2.17
7766.00,2.18
7765.00,2.18
7764.00,2.18
7763.00,2.18
7762.00,2.18
7761.00,2.18
7760.00,2.18
7759.00,2.18
7758.00,2.18
7757.00,2.18
7756.00,2.18
7755.00,2.18
7754.00,2.18
7753.00,2.18
7752.00,2.18
7751.00,2.18
7750.00,2.18
7749.00,2.18
7748.00,2.18
7747.00,2.18
7746.00,2.18
7745.00,2.18
7744.00,2.18
7743.00,2.19
7742.00,2.19
7741.00,2.19
7740.00,2.19
7739.00,2.19
7738.00,2.20
7737.00,2.20
7736.00,2.20
7735.00,2.21
7734.00,2.21
7733.00,2.21
7732.00,2.21
7731.00,2.21
7730.00,2.22
7729.00,2.22
7728.00,2.22
7727.00,2.21
7726.00,2.21
7725.00,2.21
7724.00,2.21
7723.00,2.21
7722.00,2.21
7721.00,2.21
7720.00,2.21
7719.00,2.21
7718.00,2.21
7717.00,2.21
7716.00,2.21
7715.00,2.21
7714.00,2.21
7713.00,2.21
7712.00,2.22
7711.00,2.22
7710.00,2.23
7709.00,2.24
7708.00,2.25
7707.00,2.26
7706.00,2.27
7705.00,2.28
7704.00,2.29
7703.00,2.30
7702.00,2.31
7701.00,2.33
7700.00,2.34
7699.00,2.35
7698.00,2.36
7697.00,2.37
7696.00,2.38
7695.00,2.39
7694.00,2.40
7693.00,2.40
7692.00,2.41
7691.00,2.41
7690.00,2.42
7689.00,2.42
7688.00,2.42
7687.00,2.42
7686.00,2.42
7685.00,2.42
7684.00,2.42
7683.00,2.41
7682.00,2.41
7681.00,2.40
7680.00,2.39
7679.00,2.38
7678.00,2.38
7677.00,2.37
7676.00,2.36
7675.00,2.35
7674.00,2.35
7673.00,2.34
7672.00,2.34
7671.00,2.34
7670.00,2.34
7669.00,2.34
7668.00,2.34
7667.00,2.34
7666.00,2.35
7665.00,2.35
7664.00,2.36
7663.00,2.36
7662.00,2.37
7661.00,2.38
7660.00,2.38
7659.00,2.39
7658.00,2.40
7657.00,2.41
7656.00,2.42
7655.00,2.43
7654.00,2.44
7653.00,2.45
7652.00,2.46
7651.00,2.47
7650.00,2.48
7649.00,2.49
7648.00,2.50
7647.00,2.50
7646.00,2.50
7645.00,2.51
7644.00,2.51
7643.00,2.51
7642.00,2.51
7641.00,2.50
7640.00,2.50
7639.00,2.49
7638.00,2.48
7637.00,2.48
7636.00,2.47
7635.00,2.46
7634.00,2.45
7633.00,2.44
7632.00,2.43
7631.00,2.42
7630.00,2.41
7629.00,2.40
7628.00,2.39
7627.00,2.38
7626.00,2.37
7625.00,2.36
7624.00,2.35
7623.00,2.34
7622.00,2.33
7621.00,2.32
7620.00,2.31
7619.00,2.30
7618.00,2.29
7617.00,2.29
7616.00,2.28
7615.00,2.27
7614.00,2.27
7613.00,2.27
7612.00,2.26
7611.00,2.26
7610.00,2.25
7609.00,2.25
7608.00,2.25
7607.00,2.24
7606.00,2.24
7605.00,2.24
7604.00,2.23
7603.00,2.23
7602.00,2.22
7601.00,2.22
7600.00,2.21
7599.00,2.21
7598.00,2.21
7597.00,2.20
7596.00,2.20
7595.00,2.19
7594.00,2.19
7593.00,2.18
7592.00,2.18
7591.00,2.18
7590.00,2.17
7589.00,2.17
7588.00,2.17
7587.00,2.17
7586.00,2.17
7585.00,2.17
7584.00,2.18
7583.00,2.18
7582.00,2.19
7581.00,2.19
7580.00,2.20
7579.00,2.21
7578.00,2.21
7577.00,2.22
7576.00,2.23
7575.00,2.23
7574.00,2.24
7573.00,2.25
7572.00,2.26
7571.00,2.27
7570.00,2.28
7569.00,2.29
7568.00,2.30
7567.00,2.31
7566.00,2.32
7565.00,2.33
7564.00,2.35
7563.00,2.36
7562.00,2.37
7561.00,2.38
7560.00,2.38
7559.00,2.39
7558.00,2.40
7557.00,2.40
7556.00,2.41
7555.00,2.41
7554.00,2.42
7553.00,2.43
7552.00,2.44
7551.00,2.45
7550.00,2.46
7549.00,2.47
7548.00,2.48
7547.00,2.49
7546.00,2.51
7545.00,2.52
7544.00,2.53
7543.00,2.54
7542.00,2.55
7541.00,2.57
7540.00,2.58
7539.00,2.59
7538.00,2.60
7537.00,2.61
7536.00,2.62
7535.00,2.63
7534.00,2.64
7533.00,2.64
7532.00,2.65
7531.00,2.66
7530.00,2.66
7529.00,2.66
7528.00,2.66
7527.00,2.65
7526.00,2.65
7525.00,2.64
7524.00,2.63
7523.00,2.62
7522.00,2.61
7521.00,2.60
7520.00,2.59
7519.00,2.57
7518.00,2.56
7517.00,2.55
7516.00,2.53
7515.00,2.52
7514.00,2.50
7513.00,2.48
7512.00,2.47
7511.00,2.45
7510.00,2.43
7509.00,2.41
7508.00,2.39
7507.00,2.38
7506.00,2.36
7505.00,2.35
7504.00,2.34
7503.00,2.33
7502.00,2.33
7501.00,2.32
7500.00,2.32
7499.00,2.31
7498.00,2.31
7497.00,2.30
7496.00,2.30
7495.00,2.30
7494.00,2.30
7493.00,2.29
7492.00,2.29
7491.00,2.29
7490.00,2.29
7489.00,2.29
7488.00,2.29
7487.00,2.29
7486.00,2.29
7485.00,2.30
7484.00,2.30
7483.00,2.30
7482.00,2.31
7481.00,2.31
7480.00,2.32
7479.00,2.32
7478.00,2.32
7477.00,2.32
7476.00,2.32
7475.00,2.32
7474.00,2.32
7473.00,2.32
7472.00,2.32
7471.00,2.32
7470.00,2.32
7469.00,2.32
7468.00,2.32
7467.00,2.32
7466.00,2.31
7465.00,2.31
7464.00,2.31
7463.00,2.30
7462.00,2.29
7461.00,2.28
7460.00,2.28
7459.00,2.27
7458.00,2.26
7457.00,2.25
7456.00,2.24
7455.00,2.22
7454.00,2.21
7453.00,2.20
7452.00,2.19
7451.00,2.18
7450.00,2.17
7449.00,2.16
7448.00,2.15
7447.00,2.14
7446.00,2.13
7445.00,2.11
7444.00,2.10
7443.00,2.09
7442.00,2.08
7441.00,2.07
7440.00,2.06
7439.00,2.05
7438.00,2.05
7437.00,2.04
7436.00,2.03
7435.00,2.03
7434.00,2.02
7433.00,2.02
7432.00,2.02
7431.00,2.02
7430.00,2.02
7429.00,2.02
7428.00,2.02
7427.00,2.02
7426.00,2.03
7425.00,2.03
7424.00,2.03
7423.00,2.04
7422.00,2.04
7421.00,2.04
7420.00,2.05
7419.00,2.05
7418.00,2.05
7417.00,2.06
7416.00,2.07
7415.00,2.07
7414.00,2.08
7413.00,2.09
7412.00,2.09
7411.00,2.10
7410.00,2.11
7409.00,2.11
7408.00,2.12
7407.00,2.12
7406.00,2.13
7405.00,2.13
7404.00,2.14
7403.00,2.14
7402.00,2.15
7401.00,2.15
7400.00,2.15
7399.00,2.15
7398.00,2.15
7397.00,2.15
7396.00,2.16
7395.00,2.16
7394.00,2.16
7393.00,2.16
7392.00,2.16
7391.00,2.17
7390.00,2.17
7389.00,2.17
7388.00,2.18
7387.00,2.18
7386.00,2.18
7385.00,2.18
7384.00,2.19
7383.00,2.19
7382.00,2.19
7381.00,2.20
7380.00,2.20
7379.00,2.20
7378.00,2.20
7377.00,2.21
7376.00,2.21
7375.00,2.21
7374.00,2.21
7373.00,2.22
7372.00,2.22
7371.00,2.22
7370.00,2.23
7369.00,2.23
7368.00,2.24
7367.00,2.24
7366.00,2.25
7365.00,2.25
7364.00,2.26
7363.00,2.26
7362.00,2.26
7361.00,2.27
7360.00,2.27
7359.00,2.27
7358.00,2.28
7357.00,2.28
7356.00,2.28
7355.00,2.28
7354.00,2.29
7353.00,2.29
7352.00,2.29
7351.00,2.30
7350.00,2.30
7349.00,2.31
7348.00,2.31
7347.00,2.32
7346.00,2.32
7345.00,2.33
7344.00,2.33
7343.00,2.34
7342.00,2.34
7341.00,2.35
7340.00,2.35
7339.00,2.35
7338.00,2.35
7337.00,2.36
7336.00,2.36
7335.00,2.36
7334.00,2.35
7333.00,2.35
7332.00,2.35
7331.00,2.35
7330.00,2.35
7329.00,2.35
7328.00,2.35
7327.00,2.34
7326.00,2.34
7325.00,2.34
7324.00,2.34
7323.00,2.34
7322.00,2.33
7321.00,2.33
7320.00,2.33
7319.00,2.33
7318.00,2.32
7317.00,2.32
7316.00,2.32
7315.00,2.31
7314.00,2.31
7313.00,2.30
7312.00,2.30
7311.00,2.30
7310.00,2.29
7309.00,2.29
7308.00,2.29
7307.00,2.29
7306.00,2.28
7305.00,2.28
7304.00,2.28
7303.00,2.29
7302.00,2.29
7301.00,2.29
7300.00,2.29
7299.00,2.29
7298.00,2.29
7297.00,2.28
7296.00,2.28
7295.00,2.28
7294.00,2.27
7293.00,2.27
7292.00,2.27
7291.00,2.26
7290.00,2.26
7289.00,2.26
7288.00,2.25
7287.00,2.25
7286.00,2.25
7285.00,2.24
7284.00,2.24
7283.00,2.24
7282.00,2.23
7281.00,2.23
7280.00,2.23
7279.00,2.22
7278.00,2.22
7277.00,2.21
7276.00,2.21
7275.00,2.20
7274.00,2.20
7273.00,2.19
7272.00,2.19
7271.00,2.18
7270.00,2.18
7269.00,2.18
7268.00,2.18
7267.00,2.18
7266.00,2.18
7265.00,2.18
7264.00,2.18
7263.00,2.18
7262.00,2.18
7261.00,2.18
7260.00,2.18
7259.00,2.18
7258.00,2.18
7257.00,2.19
7256.00,2.19
7255.00,2.19
7254.00,2.19
7253.00,2.20
7252.00,2.20
7251.00,2.20
7250.00,2.20
7249.00,2.20
7248.00,2.21
7247.00,2.21
7246.00,2.21
7245.00,2.21
7244.00,2.21
7243.00,2.21
7242.00,2.21
7241.00,2.20
7240.00,2.20
7239.00,2.20
7238.00,2.19
7237.00,2.19
7236.00,2.19
7235.00,2.18
7234.00,2.18
7233.00,2.18
7232.00,2.17
7231.00,2.17
7230.00,2.17
7229.00,2.17
7228.00,2.17
7227.00,2.17
7226.00,2.18
7225.00,2.18
7224.00,2.18
7223.00,2.19
7222.00,2.19
7221.00,2.19
7220.00,2.19
7219.00,2.19
7218.00,2.20
7217.00,2.20
7216.00,2.20
7215.00,2.20
7214.00,2.20
7213.00,2.21
7212.00,2.21
7211.00,2.21
7210.00,2.21
7209.00,2.21
7208.00,2.21
7207.00,2.20
7206.00,2.19
7205.00,2.18
7204.00,2.17
7203.00,2.15
7202.00,2.14
7201.00,2.12
7200.00,2.10
7199.00,2.07
7198.00,2.05
7197.00,2.03
7196.00,2.00
7195.00,1.98
7194.00,1.96
7193.00,1.94
7192.00,1.92
7191.00,1.90
7190.00,1.88
7189.00,1.85
7188.00,1.83
7187.00,1.81
7186.00,1.79
7185.00,1.77
7184.00,1.75
7183.00,1.73
7182.00,1.72
7181.00,1.70
7180.00,1.69
7179.00,1.67
7178.00,1.66
7177.00,1.66
7176.00,1.65
7175.00,1.65
7174.00,1.64
7173.00,1.64
7172.00,1.64
7171.00,1.64
7170.00,1.64
7169.00,1.64
7168.00,1.65
7167.00,1.65
7166.00,1.65
7165.00,1.65
7164.00,1.65
7163.00,1.65
7162.00,1.65
7161.00,1.65
7160.00,1.65
7159.00,1.66
7158.00,1.66
7157.00,1.66
7156.00,1.66
7155.00,1.67
7154.00,1.67
7153.00,1.67
7152.00,1.67
7151.00,1.67
7150.00,1.67
7149.00,1.66
7148.00,1.66
7147.00,1.66
7146.00,1.65
7145.00,1.64
7144.00,1.64
7143.00,1.63
7142.00,1.62
7141.00,1.61
7140.00,1.60
7139.00,1.59
7138.00,1.58
7137.00,1.57
7136.00,1.56
7135.00,1.55
7134.00,1.54
7133.00,1.53
7132.00,1.52
7131.00,1.51
7130.00,1.50
7129.00,1.49
7128.00,1.47
7127.00,1.46
7126.00,1.46
7125.00,1.45
7124.00,1.44
7123.00,1.43
7122.00,1.43
7121.00,1.42
7120.00,1.42
7119.00,1.42
7118.00,1.41
7117.00,1.42
7116.00,1.42
7115.00,1.42
7114.00,1.42
7113.00,1.43
7112.00,1.43
7111.00,1.44
7110.00,1.44
7109.00,1.45
7108.00,1.45
7107.00,1.46
7106.00,1.46
7105.00,1.47
7104.00,1.47
7103.00,1.48
7102.00,1.48
7101.00,1.48
7100.00,1.48
7099.00,1.48
7098.00,1.48
7097.00,1.48
7096.00,1.47
7095.00,1.47
7094.00,1.46
7093.00,1.46
7092.00,1.45
7091.00,1.44
7090.00,1.43
7089.00,1.43
7088.00,1.42
7087.00,1.41
7086.00,1.40
7085.00,1.39
7084.00,1.38
7083.00,1.37
7082.00,1.36
7081.00,1.35
7080.00,1.35
7079.00,1.34
7078.00,1.33
7077.00,1.33
7076.00,1.32
7075.00,1.32
7074.00,1.32
7073.00,1.32
7072.00,1.32
7071.00,1.33
7070.00,1.33
7069.00,1.34
7068.00,1.34
7067.00,1.35
7066.00,1.35
7065.00,1.35
7064.00,1.35
7063.00,1.36
7062.00,1.36
7061.00,1.36
7060.00,1.36
7059.00,1.36
7058.00,1.36
7057.00,1.35
7056.00,1.35
7055.00,1.35
7054.00,1.35
7053.00,1.35
7052.00,1.34
7051.00,1.34
7050.00,1.33
7049.00,1.32
7048.00,1.31
7047.00,1.30
7046.00,1.29
7045.00,1.28
7044.00,1.27
7043.00,1.26
7042.00,1.25
7041.00,1.24
7040.00,1.23
7039.00,1.22
7038.00,1.21
7037.00,1.20
7036.00,1.20
7035.00,1.19
7034.00,1.19
7033.00,1.18
7032.00,1.18
7031.00,1.17
7030.00,1.17
7029.00,1.17
7028.00,1.17
7027.00,1.17
7026.00,1.17
7025.00,1.17
7024.00,1.17
7023.00,1.17
7022.00,1.18
7021.00,1.18
7020.00,1.19
7019.00,1.19
7018.00,1.20
7017.00,1.20
7016.00,1.21
7015.00,1.22
7014.00,1.22
7013.00,1.23
7012.00,1.24
7011.00,1.24
7010.00,1.25
7009.00,1.26
7008.00,1.26
7007.00,1.27
7006.00,1.27
7005.00,1.28
7004.00,1.28
7003.00,1.29
7002.00,1.29
7001.00,1.30
7000.00,1.30
6999.00,1.31
6998.00,1.31
6997.00,1.31
6996.00,1.31
6995.00,1.32
6994.00,1.32
6993.00,1.32
6992.00,1.32
6991.00,1.33
6990.00,1.33
6989.00,1.33
6988.00,1.33
6987.00,1.33
6986.00,1.34
6985.00,1.34
6984.00,1.34
6983.00,1.34
6982.00,1.34
6981.00,1.34
6980.00,1.34
6979.00,1.35
6978.00,1.35
6977.00,1.35
6976.00,1.35
6975.00,1.35
6974.00,1.35
6973.00,1.35
6972.00,1.35
6971.00,1.35
6970.00,1.35
6969.00,1.34
6968.00,1.34
6967.00,1.34
6966.00,1.33
6965.00,1.33
6964.00,1.32
6963.00,1.32
6962.00,1.31
6961.00,1.30
6960.00,1.29
6959.00,1.29
6958.00,1.28
6957.00,1.27
6956.00,1.26
6955.00,1.25
6954.00,1.25
6953.00,1.24
6952.00,1.23
6951.00,1.22
6950.00,1.21
6949.00,1.21
6948.00,1.20
6947.00,1.19
6946.00,1.19
6945.00,1.18
6944.00,1.18
6943.00,1.17
6942.00,1.17
6941.00,1.16
6940.00,1.16
6939.00,1.16
6938.00,1.15
6937.00,1.15
6936.00,1.15
6935.00,1.15
6934.00,1.16
6933.00,1.16
6932.00,1.16
6931.00,1.16
6930.00,1.17
6929.00,1.17
6928.00,1.17
6927.00,1.17
6926.00,1.17
6925.00,1.18
6924.00,1.18
6923.00,1.18
6922.00,1.18
6921.00,1.19
6920.00,1.19
6919.00,1.20
6918.00,1.20
6917.00,1.20
6916.00,1.21
6915.00,1.21
6914.00,1.22
6913.00,1.22
6912.00,1.23
6911.00,1.23
6910.00,1.23
6909.00,1.23
6908.00,1.24
6907.00,1.24
6906.00,1.24
6905.00,1.24
6904.00,1.25
6903.00,1.25
6902.00,1.25
6901.00,1.25
6900.00,1.25
6899.00,1.26
6898.00,1.26
6897.00,1.26
6896.00,1.26
6895.00,1.25
6894.00,1.25
6893.00,1.25
6892.00,1.24
6891.00,1.24
6890.00,1.24
6889.00,1.23
6888.00,1.23
6887.00,1.23
6886.00,1.22
6885.00,1.22
6884.00,1.22
6883.00,1.21
6882.00,1.21
6881.00,1.20
6880.00,1.19
6879.00,1.19
6878.00,1.18
6877.00,1.18
6876.00,1.17
6875.00,1.16
6874.00,1.16
6873.00,1.16
6872.00,1.16
6871.00,1.15
6870.00,1.15
6869.00,1.16
6868.00,1.16
6867.00,1.16
6866.00,1.17
6865.00,1.17
6864.00,1.18
6863.00,1.18
6862.00,1.19
6861.00,1.20
6860.00,1.20
6859.00,1.21
6858.00,1.22
6857.00,1.23
6856.00,1.23
6855.00,1.24
6854.00,1.25
6853.00,1.26
6852.00,1.27
6851.00,1.27
6850.00,1.28
6849.00,1.29
6848.00,1.29
6847.00,1.29
6846.00,1.29
6845.00,1.29
6844.00,1.29
6843.00,1.29
6842.00,1.28
6841.00,1.27
6840.00,1.27
6839.00,1.26
6838.00,1.25
6837.00,1.24
6836.00,1.23
6835.00,1.23
6834.00,1.22
6833.00,1.21
6832.00,1.20
6831.00,1.19
6830.00,1.18
6829.00,1.17
6828.00,1.16
6827.00,1.15
6826.00,1.15
6825.00,1.14
6824.00,1.14
6823.00,1.14
6822.00,1.14
6821.00,1.14
6820.00,1.14
6819.00,1.14
6818.00,1.15
6817.00,1.15
6816.00,1.16
6815.00,1.17
6814.00,1.18
6813.00,1.19
6812.00,1.19
6811.00,1.20
6810.00,1.21
6809.00,1.21
6808.00,1.22
6807.00,1.23
6806.00,1.23
6805.00,1.24
6804.00,1.24
6803.00,1.25
6802.00,1.25
6801.00,1.26
6800.00,1.26
6799.00,1.26
6798.00,1.26
6797.00,1.26
6796.00,1.26
6795.00,1.26
6794.00,1.26
6793.00,1.25
6792.00,1.25
6791.00,1.25
6790.00,1.24
6789.00,1.23
6788.00,1.23
6787.00,1.22
6786.00,1.22
6785.00,1.21
6784.00,1.21
6783.00,1.21
6782.00,1.20
6781.00,1.20
6780.00,1.20
6779.00,1.19
6778.00,1.19
6777.00,1.19
6776.00,1.19
6775.00,1.19
6774.00,1.18
6773.00,1.18
6772.00,1.18
6771.00,1.18
6770.00,1.18
6769.00,1.18
6768.00,1.18
6767.00,1.18
6766.00,1.18
6765.00,1.18
6764.00,1.18
6763.00,1.19
6762.00,1.19
6761.00,1.20
6760.00,1.20
6759.00,1.21
6758.00,1.22
6757.00,1.22
6756.00,1.23
6755.00,1.24
6754.00,1.24
6753.00,1.25
6752.00,1.26
6751.00,1.27
6750.00,1.27
6749.00,1.28
6748.00,1.29
6747.00,1.30
6746.00,1.31
6745.00,1.31
6744.00,1.32
6743.00,1.33
6742.00,1.34
6741.00,1.35
6740.00,1.35
6739.00,1.36
6738.00,1.37
6737.00,1.38
6736.00,1.38
6735.00,1.39
6734.00,1.40
6733.00,1.40
6732.00,1.41
6731.00,1.41
6730.00,1.41
6729.00,1.42
6728.00,1.42
6727.00,1.43
6726.00,1.43
6725.00,1.44
6724.00,1.44
6723.00,1.44
6722.00,1.45
6721.00,1.46
6720.00,1.46
6719.00,1.47
6718.00,1.48
6717.00,1.48
6716.00,1.49
6715.00,1.50
6714.00,1.51
6713.00,1.51
6712.00,1.52
6711.00,1.52
6710.00,1.53
6709.00,1.53
6708.00,1.53
6707.00,1.53
6706.00,1.53
6705.00,1.54
6704.00,1.54
6703.00,1.54
6702.00,1.54
6701.00,1.54
6700.00,1.54
6699.00,1.54
6698.00,1.54
6697.00,1.54
6696.00,1.54
6695.00,1.53
6694.00,1.53
6693.00,1.53
6692.00,1.52
6691.00,1.52
6690.00,1.51
6689.00,1.50
6688.00,1.50
6687.00,1.50
6686.00,1.49
6685.00,1.49
6684.00,1.49
6683.00,1.49
6682.00,1.48
6681.00,1.48
6680.00,1.48
6679.00,1.48
6678.00,1.48
6677.00,1.48
6676.00,1.48
6675.00,1.48
6674.00,1.48
6673.00,1.48
6672.00,1.48
6671.00,1.48
6670.00,1.48
6669.00,1.48
6668.00,1.48
6667.00,1.48
6666.00,1.48
6665.00,1.48
6664.00,1.48
6663.00,1.48
6662.00,1.48
6661.00,1.48
6660.00,1.48
6659.00,1.48
6658.00,1.48
6657.00,1.48
6656.00,1.48
6655.00,1.48
6654.00,1.48
6653.00,1.48
6652.00,1.47
6651.00,1.48
6650.00,1.48
6649.00,1.48
6648.00,1.48
6647.00,1.48
6646.00,1.48
6645.00,1.48
6644.00,1.49
6643.00,1.49
6642.00,1.50
6641.00,1.50
6640.00,1.51
6639.00,1.52
6638.00,1.52
6637.00,1.53
6636.00,1.54
6635.00,1.55
6634.00,1.56
6633.00,1.56
6632.00,1.57
6631.00,1.58
6630.00,1.59
6629.00,1.59
6628.00,1.60
6627.00,1.61
6626.00,1.62
6625.00,1.62
6624.00,1.63
6623.00,1.63
6622.00,1.64
6621.00,1.64
6620.00,1.65
6619.00,1.65
6618.00,1.65
6617.00,1.66
6616.00,1.66
6615.00,1.66
6614.00,1.66
6613.00,1.66
6612.00,1.66
6611.00,1.66
6610.00,1.66
6609.00,1.66
6608.00,1.66
6607.00,1.66
6606.00,1.66
6605.00,1.66
6604.00,1.66
6603.00,1.66
6602.00,1.66
6601.00,1.66
6600.00,1.67
6599.00,1.67
6598.00,1.67
6597.00,1.67
6596.00,1.68
6595.00,1.68
6594.00,1.68
6593.00,1.69
6592.00,1.69
6591.00,1.70
6590.00,1.70
6589.00,1.70
6588.00,1.71
6587.00,1.71
6586.00,1.72
6585.00,1.72
6584.00,1.72
6583.00,1.73
6582.00,1.73
6581.00,1.73
6580.00,1.73
6579.00,1.74
6578.00,1.74
6577.00,1.74
6576.00,1.74
6575.00,1.73
6574.00,1.73
6573.00,1.73
6572.00,1.73
6571.00,1.73
6570.00,1.73
6569.00,1.73
6568.00,1.73
6567.00,1.73
6566.00,1.73
6565.00,1.73
6564.00,1.73
6563.00,1.73
6562.00,1.73
6561.00,1.73
6560.00,1.73
6559.00,1.73
6558.00,1.73
6557.00,1.73
6556.00,1.73
6555.00,1.74
6554.00,1.74
6553.00,1.74
6552.00,1.75
6551.00,1.75
6550.00,1.75
6549.00,1.76
6548.00,1.76
6547.00,1.77
6546.00,1.77
6545.00,1.77
6544.00,1.77
6543.00,1.78
6542.00,1.78
6541.00,1.78
6540.00,1.78
6539.00,1.79
6538.00,1.79
6537.00,1.79
6536.00,1.79
6535.00,1.79
6534.00,1.80
6533.00,1.80
6532.00,1.80
6531.00,1.80
6530.00,1.80
6529.00,1.80
6528.00,1.80
6527.00,1.80
6526.00,1.80
6525.00,1.80
6524.00,1.80
6523.00,1.80
6522.00,1.80
6521.00,1.80
6520.00,1.81
6519.00,1.81
6518.00,1.81
6517.00,1.81
6516.00,1.81
6515.00,1.81
6514.00,1.81
6513.00,1.81
6512.00,1.81
6511.00,1.80
6510.00,1.80
6509.00,1.80
6508.00,1.80
6507.00,1.80
6506.00,1.80
6505.00,1.79
6504.00,1.79
6503.00,1.79
6502.00,1.79
6501.00,1.79
6500.00,1.78
6499.00,1.78
6498.00,1.78
6497.00,1.78
6496.00,1.78
6495.00,1.78
6494.00,1.78
6493.00,1.77
6492.00,1.77
6491.00,1.77
6490.00,1.77
6489.00,1.77
6488.00,1.78
6487.00,1.78
6486.00,1.78
6485.00,1.78
6484.00,1.79
6483.00,1.79
6482.00,1.79
6481.00,1.80
6480.00,1.80
6479.00,1.81
6478.00,1.81
6477.00,1.82
6476.00,1.82
6475.00,1.82
6474.00,1.83
6473.00,1.83
6472.00,1.84
6471.00,1.84
6470.00,1.84
6469.00,1.85
6468.00,1.85
6467.00,1.86
6466.00,1.86
6465.00,1.86
6464.00,1.87
6463.00,1.87
6462.00,1.87
6461.00,1.88
6460.00,1.88
6459.00,1.88
6458.00,1.89
6457.00,1.89
6456.00,1.89
6455.00,1.89
6454.00,1.90
6453.00,1.90
6452.00,1.90
6451.00,1.90
6450.00,1.90
6449.00,1.90
6448.00,1.90
6447.00,1.90
6446.00,1.90
6445.00,1.91
6444.00,1.91
6443.00,1.91
6442.00,1.91
6441.00,1.91
6440.00,1.91
6439.00,1.91
6438.00,1.91
6437.00,1.91
6436.00,1.91
6435.00,1.90
6434.00,1.90
6433.00,1.90
6432.00,1.90
6431.00,1.90
6430.00,1.90
6429.00,1.91
6428.00,1.91
6427.00,1.91
6426.00,1.92
6425.00,1.92
6424.00,1.93
6423.00,1.93
6422.00,1.94
6421.00,1.94
6420.00,1.95
6419.00,1.95
6418.00,1.96
6417.00,1.97
6416.00,1.97
6415.00,1.98
6414.00,1.98
6413.00,1.99
6412.00,2.00
6411.00,2.00
6410.00,2.01
6409.00,2.01
6408.00,2.02
6407.00,2.03
6406.00,2.03
6405.00,2.04
6404.00,2.04
6403.00,2.05
6402.00,2.05
6401.00,2.05
6400.00,2.06
6399.00,2.06
6398.00,2.06
6397.00,2.06
6396.00,2.07
6395.00,2.07
6394.00,2.07
6393.00,2.07
6392.00,2.07
6391.00,2.08
6390.00,2.08
6389.00,2.08
6388.00,2.08
6387.00,2.09
6386.00,2.09
6385.00,2.09
6384.00,2.10
6383.00,2.10
6382.00,2.11
6381.00,2.11
6380.00,2.11
6379.00,2.12
6378.00,2.12
6377.00,2.13
6376.00,2.13
6375.00,2.13
6374.00,2.14
6373.00,2.14
6372.00,2.14
6371.00,2.14
6370.00,2.14
6369.00,2.14
6368.00,2.14
6367.00,2.14
6366.00,2.14
6365.00,2.14
6364.00,2.14
6363.00,2.14
6362.00,2.14
6361.00,2.14
6360.00,2.13
6359.00,2.13
6358.00,2.13
6357.00,2.12
6356.00,2.12
6355.00,2.11
6354.00,2.11
6353.00,2.10
6352.00,2.10
6351.00,2.09
6350.00,2.09
6349.00,2.08
6348.00,2.08
6347.00,2.08
6346.00,2.08
6345.00,2.08
6344.00,2.08
6343.00,2.08
6342.00,2.08
6341.00,2.09
6340.00,2.09
6339.00,2.10
6338.00,2.10
6337.00,2.11
6336.00,2.11
6335.00,2.12
6334.00,2.13
6333.00,2.14
6332.00,2.14
6331.00,2.15
6330.00,2.16
6329.00,2.17
6328.00,2.18
6327.00,2.19
6326.00,2.20
6325.00,2.21
6324.00,2.22
6323.00,2.22
6322.00,2.23
6321.00,2.24
6320.00,2.25
6319.00,2.25
6318.00,2.26
6317.00,2.26
6316.00,2.27
6315.00,2.27
6314.00,2.27
6313.00,2.27
6312.00,2.27
6311.00,2.27
6310.00,2.27
6309.00,2.27
6308.00,2.27
6307.00,2.27
6306.00,2.27
6305.00,2.27
6304.00,2.27
6303.00,2.28
6302.00,2.27
6301.00,2.27
6300.00,2.27
6299.00,2.27
6298.00,2.27
6297.00,2.27
6296.00,2.26
6295.00,2.26
6294.00,2.26
6293.00,2.26
6292.00,2.26
6291.00,2.26
6290.00,2.26
6289.00,2.26
6288.00,2.26
6287.00,2.26
6286.00,2.25
6285.00,2.25
6284.00,2.25
6283.00,2.25
6282.00,2.25
6281.00,2.25
6280.00,2.25
6279.00,2.25
6278.00,2.25
6277.00,2.26
6276.00,2.26
6275.00,2.26
6274.00,2.26
6273.00,2.26
6272.00,2.27
6271.00,2.27
6270.00,2.27
6269.00,2.28
6268.00,2.28
6267.00,2.28
6266.00,2.29
6265.00,2.29
6264.00,2.29
6263.00,2.30
6262.00,2.30
6261.00,2.31
6260.00,2.31
6259.00,2.31
6258.00,2.32
6257.00,2.32
6256.00,2.33
6255.00,2.33
6254.00,2.33
6253.00,2.34
6252.00,2.34
6251.00,2.34
6250.00,2.35
6249.00,2.35
6248.00,2.35
6247.00,2.36
6246.00,2.36
6245.00,2.36
6244.00,2.37
6243.00,2.37
6242.00,2.37
6241.00,2.37
6240.00,2.38
6239.00,2.38
6238.00,2.38
6237.00,2.38
6236.00,2.39
6235.00,2.39
6234.00,2.39
6233.00,2.39
6232.00,2.39
6231.00,2.39
6230.00,2.39
6229.00,2.39
6228.00,2.40
6227.00,2.40
6226.00,2.40
6225.00,2.40
6224.00,2.40
6223.00,2.40
6222.00,2.40
6221.00,2.40
6220.00,2.40
6219.00,2.39
6218.00,2.39
6217.00,2.39
6216.00,2.39
6215.00,2.39
6214.00,2.39
6213.00,2.39
6212.00,2.39
6211.00,2.40
6210.00,2.40
6209.00,2.40
6208.00,2.40
6207.00,2.41
6206.00,2.41
6205.00,2.41
6204.00,2.42
6203.00,2.42
6202.00,2.42
6201.00,2.43
6200.00,2.43
6199.00,2.44
6198.00,2.44
6197.00,2.44
6196.00,2.45
6195.00,2.45
6194.00,2.45
6193.00,2.46
6192.00,2.46
6191.00,2.46
6190.00,2.46
6189.00,2.46
6188.00,2.47
6187.00,2.47
6186.00,2.46
6185.00,2.46
6184.00,2.46
6183.00,2.46
6182.00,2.46
6181.00,2.45
6180.00,2.45
6179.00,2.45
6178.00,2.44
6177.00,2.44
6176.00,2.44
6175.00,2.44
6174.00,2.43
6173.00,2.43
6172.00,2.43
6171.00,2.43
6170.00,2.43
6169.00,2.42
6168.00,2.42
6167.00,2.42
6166.00,2.42
6165.00,2.42
6164.00,2.41
6163.00,2.41
6162.00,2.41
6161.00,2.41
6160.00,2.41
6159.00,2.41
6158.00,2.40
6157.00,2.41
6156.00,2.41
6155.00,2.41
6154.00,2.41
6153.00,2.42
6152.00,2.42
6151.00,2.42
6150.00,2.43
6149.00,2.43
6148.00,2.43
6147.00,2.43
6146.00,2.44
6145.00,2.44
6144.00,2.44
6143.00,2.45
6142.00,2.45
6141.00,2.46
6140.00,2.46
6139.00,2.47
6138.00,2.48
6137.00,2.48
6136.00,2.49
6135.00,2.50
6134.00,2.51
6133.00,2.52
6132.00,2.53
6131.00,2.53
6130.00,2.54
6129.00,2.55
6128.00,2.55
6127.00,2.55
6126.00,2.56
6125.00,2.56
6124.00,2.56
6123.00,2.57
6122.00,2.57
6121.00,2.57
6120.00,2.57
6119.00,2.57
6118.00,2.57
6117.00,2.57
6116.00,2.57
6115.00,2.56
6114.00,2.56
6113.00,2.55
6112.00,2.55
6111.00,2.54
6110.00,2.54
6109.00,2.53
6108.00,2.52
6107.00,2.51
6106.00,2.51
6105.00,2.50
6104.00,2.49
6103.00,2.49
6102.00,2.48
6101.00,2.48
6100.00,2.47
6099.00,2.47
6098.00,2.46
6097.00,2.46
6096.00,2.46
6095.00,2.46
6094.00,2.46
6093.00,2.46
6092.00,2.46
6091.00,2.46
6090.00,2.46
6089.00,2.47
6088.00,2.47
6087.00,2.47
6086.00,2.48
6085.00,2.48
6084.00,2.48
6083.00,2.49
6082.00,2.49
6081.00,2.49
6080.00,2.50
6079.00,2.50
6078.00,2.50
6077.00,2.51
6076.00,2.51
6075.00,2.51
6074.00,2.52
6073.00,2.52
6072.00,2.53
6071.00,2.53
6070.00,2.53
6069.00,2.53
6068.00,2.54
6067.00,2.54
6066.00,2.54
6065.00,2.54
6064.00,2.54
6063.00,2.54
6062.00,2.54
6061.00,2.54
6060.00,2.55
6059.00,2.55
6058.00,2.55
6057.00,2.56
6056.00,2.56
6055.00,2.56
6054.00,2.57
6053.00,2.57
6052.00,2.57
6051.00,2.58
6050.00,2.58
6049.00,2.58
6048.00,2.59
6047.00,2.59
6046.00,2.59
6045.00,2.59
6044.00,2.59
6043.00,2.59
6042.00,2.59
6041.00,2.59
6040.00,2.59
6039.00,2.59
6038.00,2.59
6037.00,2.59
6036.00,2.59
6035.00,2.59
6034.00,2.59
6033.00,2.59
6032.00,2.59
6031.00,2.58
6030.00,2.58
6029.00,2.58
6028.00,2.58
6027.00,2.58
6026.00,2.58
6025.00,2.58
6024.00,2.58
6023.00,2.59
6022.00,2.59
6021.00,2.59
6020.00,2.59
6019.00,2.60
6018.00,2.60
6017.00,2.60
6016.00,2.61
6015.00,2.61
6014.00,2.61
6013.00,2.62
6012.00,2.62
6011.00,2.63
6010.00,2.63
6009.00,2.63
6008.00,2.64
6007.00,2.64
6006.00,2.64
6005.00,2.64
6004.00,2.65
6003.00,2.65
6002.00,2.65
6001.00,2.65
6000.00,2.65
5999.00,2.65
5998.00,2.65
5997.00,2.65
5996.00,2.65
5995.00,2.65
5994.00,2.65
5993.00,2.65
5992.00,2.65
5991.00,2.65
5990.00,2.65
5989.00,2.65
5988.00,2.65
5987.00,2.65
5986.00,2.64
5985.00,2.64
5984.00,2.64
5983.00,2.63
5982.00,2.63
5981.00,2.63
5980.00,2.63
5979.00,2.63
5978.00,2.63
5977.00,2.63
5976.00,2.63
5975.00,2.62
5974.00,2.62
5973.00,2.62
5972.00,2.62
5971.00,2.61
5970.00,2.61
5969.00,2.61
5968.00,2.60
5967.00,2.60
5966.00,2.60
5965.00,2.60
5964.00,2.59
5963.00,2.59
5962.00,2.59
5961.00,2.59
5960.00,2.59
5959.00,2.59
5958.00,2.58
5957.00,2.58
5956.00,2.58
5955.00,2.58
5954.00,2.58
5953.00,2.58
5952.00,2.57
5951.00,2.57
5950.00,2.57
5949.00,2.56
5948.00,2.56
5947.00,2.56
5946.00,2.56
5945.00,2.55
5944.00,2.55
5943.00,2.55
5942.00,2.55
5941.00,2.54
5940.00,2.54
5939.00,2.54
5938.00,2.53
5937.00,2.53
5936.00,2.53
5935.00,2.52
5934.00,2.52
5933.00,2.52
5932.00,2.51
5931.00,2.51
5930.00,2.50
5929.00,2.50
5928.00,2.49
5927.00,2.49
5926.00,2.48
5925.00,2.48
5924.00,2.47
5923.00,2.47
5922.00,2.47
5921.00,2.46
5920.00,2.46
5919.00,2.46
5918.00,2.45
5917.00,2.45
5916.00,2.45
5915.00,2.45
5914.00,2.45
5913.00,2.44
5912.00,2.44
5911.00,2.44
5910.00,2.44
5909.00,2.44
5908.00,2.43
5907.00,2.43
5906.00,2.43
5905.00,2.43
5904.00,2.43
5903.00,2.43
5902.00,2.43
5901.00,2.43
5900.00,2.44
5899.00,2.44
5898.00,2.45
5897.00,2.45
5896.00,2.45
5895.00,2.46
5894.00,2.46
5893.00,2.47
5892.00,2.47
5891.00,2.47
5890.00,2.47
5889.00,2.48
5888.00,2.48
5887.00,2.48
5886.00,2.49
5885.00,2.49
5884.00,2.50
5883.00,2.50
5882.00,2.51
5881.00,2.52
5880.00,2.52
5879.00,2.53
5878.00,2.53
5877.00,2.54
5876.00,2.54
5875.00,2.55
5874.00,2.55
5873.00,2.56
5872.00,2.56
5871.00,2.57
5870.00,2.57
5869.00,2.57
5868.00,2.58
5867.00,2.58
5866.00,2.59
5865.00,2.59
5864.00,2.60
5863.00,2.60
5862.00,2.61
5861.00,2.61
5860.00,2.61
5859.00,2.62
5858.00,2.62
5857.00,2.62
5856.00,2.62
5855.00,2.62
5854.00,2.62
5853.00,2.63
5852.00,2.63
5851.00,2.63
5850.00,2.62
5849.00,2.62
5848.00,2.62
5847.00,2.62
5846.00,2.62
5845.00,2.62
5844.00,2.61
5843.00,2.61
5842.00,2.61
5841.00,2.61
5840.00,2.61
5839.00,2.60
5838.00,2.60
5837.00,2.60
5836.00,2.60
5835.00,2.60
5834.00,2.60
5833.00,2.60
5832.00,2.60
5831.00,2.60
5830.00,2.60
5829.00,2.60
5828.00,2.60
5827.00,2.60
5826.00,2.60
5825.00,2.61
5824.00,2.61
5823.00,2.61
5822.00,2.62
5821.00,2.62
5820.00,2.63
5819.00,2.63
5818.00,2.63
5817.00,2.64
5816.00,2.64
5815.00,2.64
5814.00,2.65
5813.00,2.65
5812.00,2.65
5811.00,2.66
5810.00,2.66
5809.00,2.66
5808.00,2.66
5807.00,2.66
5806.00,2.66
5805.00,2.66
5804.00,2.66
5803.00,2.66
5802.00,2.65
5801.00,2.65
5800.00,2.65
5799.00,2.65
5798.00,2.64
5797.00,2.64
5796.00,2.63
5795.00,2.63
5794.00,2.62
5793.00,2.62
5792.00,2.61
5791.00,2.61
5790.00,2.61
5789.00,2.60
5788.00,2.60
5787.00,2.59
5786.00,2.59
5785.00,2.59
5784.00,2.59
5783.00,2.58
5782.00,2.58
5781.00,2.58
5780.00,2.58
5779.00,2.58
5778.00,2.58
5777.00,2.58
5776.00,2.58
5775.00,2.58
5774.00,2.59
5773.00,2.59
5772.00,2.59
5771.00,2.59
5770.00,2.60
5769.00,2.60
5768.00,2.60
5767.00,2.61
5766.00,2.61
5765.00,2.61
5764.00,2.62
5763.00,2.62
5762.00,2.62
5761.00,2.63
5760.00,2.63
5759.00,2.63
5758.00,2.63
5757.00,2.64
5756.00,2.64
5755.00,2.63
5754.00,2.63
5753.00,2.63
5752.00,2.63
5751.00,2.63
5750.00,2.63
5749.00,2.62
5748.00,2.62
5747.00,2.62
5746.00,2.62
5745.00,2.61
5744.00,2.61
5743.00,2.61
5742.00,2.61
5741.00,2.60
5740.00,2.60
5739.00,2.60
5738.00,2.59
5737.00,2.59
5736.00,2.58
5735.00,2.58
5734.00,2.57
5733.00,2.57
5732.00,2.56
5731.00,2.56
5730.00,2.55
5729.00,2.55
5728.00,2.55
5727.00,2.55
5726.00,2.54
5725.00,2.54
5724.00,2.54
5723.00,2.54
5722.00,2.54
5721.00,2.54
5720.00,2.54
5719.00,2.54
5718.00,2.53
5717.00,2.53
5716.00,2.53
5715.00,2.53
5714.00,2.52
5713.00,2.52
5712.00,2.52
5711.00,2.52
5710.00,2.52
5709.00,2.52
5708.00,2.52
5707.00,2.51
5706.00,2.51
5705.00,2.51
5704.00,2.51
5703.00,2.51
5702.00,2.51
5701.00,2.52
5700.00,2.52
5699.00,2.52
5698.00,2.52
5697.00,2.52
5696.00,2.52
5695.00,2.52
5694.00,2.52
5693.00,2.52
5692.00,2.53
5691.00,2.53
5690.00,2.53
5689.00,2.53
5688.00,2.54
5687.00,2.54
5686.00,2.55
5685.00,2.55
5684.00,2.55
5683.00,2.56
5682.00,2.56
5681.00,2.57
5680.00,2.57
5679.00,2.58
5678.00,2.58
5677.00,2.58
5676.00,2.58
5675.00,2.59
5674.00,2.59
5673.00,2.59
5672.00,2.59
5671.00,2.59
5670.00,2.60
5669.00,2.60
5668.00,2.60
5667.00,2.60
5666.00,2.60
5665.00,2.59
5664.00,2.59
5663.00,2.59
5662.00,2.59
5661.00,2.59
5660.00,2.59
5659.00,2.59
5658.00,2.58
5657.00,2.58
5656.00,2.58
5655.00,2.57
5654.00,2.57
5653.00,2.57
5652.00,2.57
5651.00,2.57
5650.00,2.56
5649.00,2.56
5648.00,2.56
5647.00,2.56
5646.00,2.55
5645.00,2.55
5644.00,2.55
5643.00,2.55
5642.00,2.55
5641.00,2.55
5640.00,2.54
5639.00,2.54
5638.00,2.54
5637.00,2.54
5636.00,2.54
5635.00,2.54
5634.00,2.54
5633.00,2.54
5632.00,2.54
5631.00,2.54
5630.00,2.54
5629.00,2.54
5628.00,2.54
5627.00,2.54
5626.00,2.54
5625.00,2.54
5624.00,2.54
5623.00,2.54
5622.00,2.54
5621.00,2.54
5620.00,2.54
5619.00,2.54
5618.00,2.54
5617.00,2.54
5616.00,2.54
5615.00,2.54
5614.00,2.54
5613.00,2.54
5612.00,2.54
5611.00,2.54
5610.00,2.55
5609.00,2.55
5608.00,2.55
5607.00,2.55
5606.00,2.55
5605.00,2.55
5604.00,2.55
5603.00,2.55
5602.00,2.56
5601.00,2.56
5600.00,2.56
5599.00,2.56
5598.00,2.56
5597.00,2.56
5596.00,2.56
5595.00,2.56
5594.00,2.57
5593.00,2.57
5592.00,2.57
5591.00,2.57
5590.00,2.57
5589.00,2.57
5588.00,2.58
5587.00,2.58
5586.00,2.58
5585.00,2.58
5584.00,2.58
5583.00,2.59
5582.00,2.59
5581.00,2.59
5580.00,2.59
5579.00,2.60
5578.00,2.60
5577.00,2.60
5576.00,2.61
5575.00,2.61
5574.00,2.62
5573.00,2.62
5572.00,2.62
5571.00,2.63
5570.00,2.63
5569.00,2.64
5568.00,2.64
5567.00,2.64
5566.00,2.65
5565.00,2.65
5564.00,2.65
5563.00,2.65
5562.00,2.66
5561.00,2.66
5560.00,2.66
5559.00,2.66
5558.00,2.66
5557.00,2.67
5556.00,2.67
5555.00,2.67
5554.00,2.67
5553.00,2.67
5552.00,2.67
5551.00,2.67
5550.00,2.67
5549.00,2.68
5548.00,2.68
5547.00,2.68
5546.00,2.68
5545.00,2.68
5544.00,2.68
5543.00,2.69
5542.00,2.69
5541.00,2.69
5540.00,2.69
5539.00,2.69
5538.00,2.69
5537.00,2.69
5536.00,2.70
5535.00,2.70
5534.00,2.70
5533.00,2.70
5532.00,2.70
5531.00,2.70
5530.00,2.70
5529.00,2.70
5528.00,2.70
5527.00,2.69
5526.00,2.69
5525.00,2.69
5524.00,2.69
5523.00,2.68
5522.00,2.68
5521.00,2.68
5520.00,2.67
5519.00,2.67
5518.00,2.66
5517.00,2.66
5516.00,2.65
5515.00,2.65
5514.00,2.64
5513.00,2.64
5512.00,2.63
5511.00,2.63
5510.00,2.62
5509.00,2.62
5508.00,2.61
5507.00,2.61
5506.00,2.60
5505.00,2.60
5504.00,2.60
5503.00,2.60
5502.00,2.59
5501.00,2.59
5500.00,2.59
5499.00,2.59
5498.00,2.59
5497.00,2.59
5496.00,2.59
5495.00,2.59
5494.00,2.59
5493.00,2.59
5492.00,2.59
5491.00,2.59
5490.00,2.59
5489.00,2.59
5488.00,2.59
5487.00,2.59
5486.00,2.59
5485.00,2.59
5484.00,2.59
5483.00,2.59
5482.00,2.60
5481.00,2.60
5480.00,2.60
5479.00,2.60
5478.00,2.60
5477.00,2.60
5476.00,2.60
5475.00,2.60
5474.00,2.60
5473.00,2.60
5472.00,2.60
5471.00,2.60
5470.00,2.60
5469.00,2.60
5468.00,2.60
5467.00,2.60
5466.00,2.60
5465.00,2.60
5464.00,2.60
5463.00,2.60
5462.00,2.61
5461.00,2.61
5460.00,2.61
5459.00,2.62
5458.00,2.62
5457.00,2.63
5456.00,2.64
5455.00,2.64
5454.00,2.65
5453.00,2.65
5452.00,2.66
5451.00,2.66
5450.00,2.67
5449.00,2.67
5448.00,2.68
5447.00,2.68
5446.00,2.69
5445.00,2.70
5444.00,2.70
5443.00,2.71
5442.00,2.71
5441.00,2.72
5440.00,2.72
5439.00,2.72
5438.00,2.73
5437.00,2.73
5436.00,2.73
5435.00,2.73
5434.00,2.73
5433.00,2.73
5432.00,2.73
5431.00,2.73
5430.00,2.73
5429.00,2.72
5428.00,2.72
5427.00,2.71
5426.00,2.71
5425.00,2.71
5424.00,2.70
5423.00,2.70
5422.00,2.70
5421.00,2.69
5420.00,2.69
5419.00,2.69
5418.00,2.69
5417.00,2.68
5416.00,2.68
5415.00,2.68
5414.00,2.68
5413.00,2.67
5412.00,2.67
5411.00,2.67
5410.00,2.66
5409.00,2.66
5408.00,2.66
5407.00,2.65
5406.00,2.65
5405.00,2.64
5404.00,2.64
5403.00,2.64
5402.00,2.64
5401.00,2.64
5400.00,2.63
5399.00,2.63
5398.00,2.63
5397.00,2.63
5396.00,2.62
5395.00,2.62
5394.00,2.61
5393.00,2.61
5392.00,2.60
5391.00,2.60
5390.00,2.59
5389.00,2.58
5388.00,2.58
5387.00,2.57
5386.00,2.56
5385.00,2.55
5384.00,2.55
5383.00,2.54
5382.00,2.53
5381.00,2.52
5380.00,2.52
5379.00,2.51
5378.00,2.50
5377.00,2.49
5376.00,2.48
5375.00,2.47
5374.00,2.46
5373.00,2.46
5372.00,2.45
5371.00,2.44
5370.00,2.43
5369.00,2.42
5368.00,2.41
5367.00,2.40
5366.00,2.40
5365.00,2.39
5364.00,2.38
5363.00,2.37
5362.00,2.37
5361.00,2.36
5360.00,2.35
5359.00,2.34
5358.00,2.33
5357.00,2.33
5356.00,2.32
5355.00,2.31
5354.00,2.30
5353.00,2.29
5352.00,2.29
5351.00,2.28
5350.00,2.27
5349.00,2.26
5348.00,2.25
5347.00,2.24
5346.00,2.23
5345.00,2.22
5344.00,2.20
5343.00,2.19
5342.00,2.17
5341.00,2.16
5340.00,2.14
5339.00,2.13
5338.00,2.11
5337.00,2.09
5336.00,2.08
5335.00,2.06
5334.00,2.04
5333.00,2.03
5332.00,2.01
5331.00,1.99
5330.00,1.97
5329.00,1.95
5328.00,1.93
5327.00,1.91
5326.00,1.89
5325.00,1.87
5324.00,1.85
5323.00,1.83
5322.00,1.81
5321.00,1.79
5320.00,1.77
5319.00,1.76
5318.00,1.74
5317.00,1.72
5316.00,1.71
5315.00,1.69
5314.00,1.68
5313.00,1.66
5312.00,1.65
5311.00,1.63
5310.00,1.62
5309.00,1.60
5308.00,1.59
5307.00,1.58
5306.00,1.56
5305.00,1.55
5304.00,1.54
5303.00,1.53
5302.00,1.52
5301.00,1.51
5300.00,1.50
5299.00,1.49
5298.00,1.48
5297.00,1.47
5296.00,1.46
5295.00,1.45
5294.00,1.44
5293.00,1.43
5292.00,1.42
5291.00,1.41
5290.00,1.40
5289.00,1.39
5288.00,1.38
5287.00,1.37
5286.00,1.36
5285.00,1.35
5284.00,1.34
5283.00,1.33
5282.00,1.32
5281.00,1.31
5280.00,1.30
5279.00,1.29
5278.00,1.28
5277.00,1.28
5276.00,1.27
5275.00,1.26
5274.00,1.25
5273.00,1.25
5272.00,1.24
5271.00,1.24
5270.00,1.23
5269.00,1.23
5268.00,1.22
5267.00,1.22
5266.00,1.22
5265.00,1.21
5264.00,1.21
5263.00,1.21
5262.00,1.21
5261.00,1.20
5260.00,1.20
5259.00,1.20
5258.00,1.20
5257.00,1.20
5256.00,1.20
5255.00,1.20
5254.00,1.21
5253.00,1.21
5252.00,1.21
5251.00,1.21
5250.00,1.20
5249.00,1.20
5248.00,1.20
5247.00,1.20
5246.00,1.20
5245.00,1.19
5244.00,1.19
5243.00,1.19
5242.00,1.18
5241.00,1.18
5240.00,1.18
5239.00,1.18
5238.00,1.17
5237.00,1.17
5236.00,1.17
5235.00,1.16
5234.00,1.16
5233.00,1.16
5232.00,1.15
5231.00,1.15
5230.00,1.15
5229.00,1.14
5228.00,1.14
5227.00,1.14
5226.00,1.14
5225.00,1.14
5224.00,1.14
5223.00,1.14
5222.00,1.14
5221.00,1.14
5220.00,1.14
5219.00,1.15
5218.00,1.15
5217.00,1.15
5216.00,1.15
5215.00,1.15
5214.00,1.15
5213.00,1.16
5212.00,1.16
5211.00,1.16
5210.00,1.16
5209.00,1.16
5208.00,1.17
5207.00,1.17
5206.00,1.18
5205.00,1.18
5204.00,1.18
5203.00,1.19
5202.00,1.19
5201.00,1.19
5200.00,1.20
5199.00,1.20
5198.00,1.20
5197.00,1.20
5196.00,1.20
5195.00,1.20
5194.00,1.20
5193.00,1.20
5192.00,1.20
5191.00,1.20
5190.00,1.20
5189.00,1.20
5188.00,1.20
5187.00,1.20
5186.00,1.20
5185.00,1.20
5184.00,1.20
5183.00,1.19
5182.00,1.19
5181.00,1.19
5180.00,1.19
5179.00,1.18
5178.00,1.18
5177.00,1.17
5176.00,1.17
5175.00,1.17
5174.00,1.16
5173.00,1.16
5172.00,1.16
5171.00,1.16
5170.00,1.16
5169.00,1.16
5168.00,1.16
5167.00,1.16
5166.00,1.16
5165.00,1.16
5164.00,1.16
5163.00,1.16
5162.00,1.16
5161.00,1.16
5160.00,1.16
5159.00,1.16
5158.00,1.16
5157.00,1.16
5156.00,1.16
5155.00,1.16
5154.00,1.17
5153.00,1.17
5152.00,1.18
5151.00,1.18
5150.00,1.19
5149.00,1.19
5148.00,1.20
5147.00,1.20
5146.00,1.21
5145.00,1.21
5144.00,1.21
5143.00,1.22
5142.00,1.22
5141.00,1.22
5140.00,1.22
5139.00,1.22
5138.00,1.23
5137.00,1.23
5136.00,1.23
5135.00,1.24
5134.00,1.24
5133.00,1.24
5132.00,1.25
5131.00,1.25
5130.00,1.25
5129.00,1.25
5128.00,1.25
5127.00,1.25
5126.00,1.25
5125.00,1.25
5124.00,1.25
5123.00,1.25
5122.00,1.26
5121.00,1.26
5120.00,1.26
5119.00,1.26
5118.00,1.26
5117.00,1.27
5116.00,1.27
5115.00,1.27
5114.00,1.27
5113.00,1.27
5112.00,1.28
5111.00,1.28
5110.00,1.28
5109.00,1.28
5108.00,1.28
5107.00,1.28
5106.00,1.28
5105.00,1.28
5104.00,1.29
5103.00,1.29
5102.00,1.29
5101.00,1.29
5100.00,1.29
5099.00,1.29
5098.00,1.29
5097.00,1.29
5096.00,1.29
5095.00,1.29
5094.00,1.29
5093.00,1.28
5092.00,1.28
5091.00,1.28
5090.00,1.28
5089.00,1.28
5088.00,1.27
5087.00,1.27
5086.00,1.27
5085.00,1.27
5084.00,1.27
5083.00,1.27
5082.00,1.27
5081.00,1.27
5080.00,1.27
5079.00,1.27
5078.00,1.27
5077.00,1.27
5076.00,1.27
5075.00,1.27
5074.00,1.27
5073.00,1.27
5072.00,1.27
5071.00,1.28
5070.00,1.28
5069.00,1.29
5068.00,1.29
5067.00,1.29
5066.00,1.30
5065.00,1.30
5064.00,1.31
5063.00,1.31
5062.00,1.31
5061.00,1.32
5060.00,1.32
5059.00,1.32
5058.00,1.33
5057.00,1.33
5056.00,1.33
5055.00,1.34
5054.00,1.34
5053.00,1.35
5052.00,1.35
5051.00,1.35
5050.00,1.36
5049.00,1.36
5048.00,1.36
5047.00,1.36
5046.00,1.37
5045.00,1.37
5044.00,1.37
5043.00,1.37
5042.00,1.38
5041.00,1.38
5040.00,1.39
5039.00,1.39
5038.00,1.39
5037.00,1.40
5036.00,1.40
5035.00,1.41
5034.00,1.41
5033.00,1.42
5032.00,1.43
5031.00,1.43
5030.00,1.44
5029.00,1.44
5028.00,1.45
5027.00,1.45
5026.00,1.46
5025.00,1.46
5024.00,1.47
5023.00,1.47
5022.00,1.48
5021.00,1.48
5020.00,1.48
5019.00,1.49
5018.00,1.49
5017.00,1.49
5016.00,1.49
5015.00,1.49
5014.00,1.49
5013.00,1.49
5012.00,1.49
5011.00,1.49
5010.00,1.49
5009.00,1.49
5008.00,1.48
5007.00,1.48
5006.00,1.47
5005.00,1.47
5004.00,1.46
5003.00,1.46
5002.00,1.45
5001.00,1.45
5000.00,1.44
4999.00,1.44
4998.00,1.43
4997.00,1.43
4996.00,1.42
4995.00,1.42
4994.00,1.42
4993.00,1.41
4992.00,1.41
4991.00,1.41
4990.00,1.40
4989.00,1.40
4988.00,1.40
4987.00,1.40
4986.00,1.39
4985.00,1.39
4984.00,1.39
4983.00,1.40
4982.00,1.40
4981.00,1.40
4980.00,1.40
4979.00,1.40
4978.00,1.41
4977.00,1.41
4976.00,1.42
4975.00,1.42
4974.00,1.42
4973.00,1.43
4972.00,1.43
4971.00,1.44
4970.00,1.44
4969.00,1.44
4968.00,1.45
4967.00,1.45
4966.00,1.46
4965.00,1.46
4964.00,1.47
4963.00,1.47
4962.00,1.48
4961.00,1.48
4960.00,1.49
4959.00,1.49
4958.00,1.49
4957.00,1.49
4956.00,1.50
4955.00,1.50
4954.00,1.50
4953.00,1.50
4952.00,1.50
4951.00,1.50
4950.00,1.51
4949.00,1.51
4948.00,1.51
4947.00,1.51
4946.00,1.51
4945.00,1.51
4944.00,1.51
4943.00,1.51
4942.00,1.51
4941.00,1.51
4940.00,1.52
4939.00,1.52
4938.00,1.52
4937.00,1.52
4936.00,1.52
4935.00,1.53
4934.00,1.53
4933.00,1.53
4932.00,1.53
4931.00,1.54
4930.00,1.54
4929.00,1.55
4928.00,1.55
4927.00,1.56
4926.00,1.56
4925.00,1.57
4924.00,1.57
4923.00,1.58
4922.00,1.59
4921.00,1.60
4920.00,1.60
4919.00,1.61
4918.00,1.62
4917.00,1.62
4916.00,1.63
4915.00,1.63
4914.00,1.63
4913.00,1.64
4912.00,1.64
4911.00,1.64
4910.00,1.64
4909.00,1.64
4908.00,1.64
4907.00,1.65
4906.00,1.65
4905.00,1.65
4904.00,1.65
4903.00,1.65
4902.00,1.65
4901.00,1.65
4900.00,1.65
4899.00,1.65
4898.00,1.65
4897.00,1.64
4896.00,1.64
4895.00,1.64
4894.00,1.63
4893.00,1.63
4892.00,1.63
4891.00,1.63
4890.00,1.63
4889.00,1.63
4888.00,1.63
4887.00,1.63
4886.00,1.63
4885.00,1.64
4884.00,1.64
4883.00,1.64
4882.00,1.65
4881.00,1.65
4880.00,1.65
4879.00,1.66
4878.00,1.66
4877.00,1.67
4876.00,1.67
4875.00,1.67
4874.00,1.68
4873.00,1.68
4872.00,1.68
4871.00,1.69
4870.00,1.69
4869.00,1.70
4868.00,1.71
4867.00,1.71
4866.00,1.72
4865.00,1.73
4864.00,1.73
4863.00,1.74
4862.00,1.74
4861.00,1.74
4860.00,1.75
4859.00,1.75
4858.00,1.75
4857.00,1.75
4856.00,1.76
4855.00,1.76
4854.00,1.76
4853.00,1.76
4852.00,1.77
4851.00,1.77
4850.00,1.77
4849.00,1.78
4848.00,1.78
4847.00,1.78
4846.00,1.79
4845.00,1.79
4844.00,1.79
4843.00,1.80
4842.00,1.80
4841.00,1.80
4840.00,1.81
4839.00,1.81
4838.00,1.81
4837.00,1.82
4836.00,1.82
4835.00,1.82
4834.00,1.83
4833.00,1.83
4832.00,1.84
4831.00,1.84
4830.00,1.85
4829.00,1.85
4828.00,1.86
4827.00,1.86
4826.00,1.87
4825.00,1.87
4824.00,1.88
4823.00,1.88
4822.00,1.88
4821.00,1.89
4820.00,1.89
4819.00,1.89
4818.00,1.89
4817.00,1.90
4816.00,1.90
4815.00,1.90
4814.00,1.90
4813.00,1.91
4812.00,1.91
4811.00,1.92
4810.00,1.92
4809.00,1.92
4808.00,1.92
4807.00,1.93
4806.00,1.93
4805.00,1.93
4804.00,1.93
4803.00,1.94
4802.00,1.94
4801.00,1.94
4800.00,1.95
4799.00,1.95
4798.00,1.96
4797.00,1.96
4796.00,1.96
4795.00,1.96
4794.00,1.97
4793.00,1.97
4792.00,1.98
4791.00,1.98
4790.00,1.99
4789.00,1.99
4788.00,2.00
4787.00,2.00
4786.00,2.00
4785.00,2.01
4784.00,2.01
4783.00,2.02
4782.00,2.02
4781.00,2.03
4780.00,2.03
4779.00,2.04
4778.00,2.04
4777.00,2.05
4776.00,2.06
4775.00,2.06
4774.00,2.07
4773.00,2.08
4772.00,2.08
4771.00,2.09
4770.00,2.10
4769.00,2.11
4768.00,2.12
4767.00,2.12
4766.00,2.13
4765.00,2.13
4764.00,2.14
4763.00,2.14
4762.00,2.14
4761.00,2.15
4760.00,2.15
4759.00,2.15
4758.00,2.15
4757.00,2.16
4756.00,2.16
4755.00,2.16
4754.00,2.16
4753.00,2.16
4752.00,2.16
4751.00,2.15
4750.00,2.15
4749.00,2.15
4748.00,2.14
4747.00,2.14
4746.00,2.13
4745.00,2.13
4744.00,2.12
4743.00,2.12
4742.00,2.11
4741.00,2.11
4740.00,2.11
4739.00,2.11
4738.00,2.11
4737.00,2.11
4736.00,2.11
4735.00,2.11
4734.00,2.11
4733.00,2.11
4732.00,2.12
4731.00,2.12
4730.00,2.12
4729.00,2.12
4728.00,2.13
4727.00,2.13
4726.00,2.13
4725.00,2.14
4724.00,2.15
4723.00,2.15
4722.00,2.16
4721.00,2.17
4720.00,2.18
4719.00,2.19
4718.00,2.19
4717.00,2.20
4716.00,2.21
4715.00,2.22
4714.00,2.22
4713.00,2.23
4712.00,2.24
4711.00,2.24
4710.00,2.25
4709.00,2.25
4708.00,2.26
4707.00,2.26
4706.00,2.27
4705.00,2.28
4704.00,2.28
4703.00,2.29
4702.00,2.30
4701.00,2.31
4700.00,2.32
4699.00,2.33
4698.00,2.33
4697.00,2.34
4696.00,2.35
4695.00,2.36
4694.00,2.36
4693.00,2.37
4692.00,2.38
4691.00,2.38
4690.00,2.39
4689.00,2.39
4688.00,2.40
4687.00,2.41
4686.00,2.42
4685.00,2.42
4684.00,2.43
4683.00,2.44
4682.00,2.45
4681.00,2.45
4680.00,2.46
4679.00,2.46
4678.00,2.46
4677.00,2.46
4676.00,2.46
4675.00,2.46
4674.00,2.46
4673.00,2.46
4672.00,2.46
4671.00,2.46
4670.00,2.46
4669.00,2.46
4668.00,2.46
4667.00,2.47
4666.00,2.47
4665.00,2.47
4664.00,2.47
4663.00,2.47
4662.00,2.47
4661.00,2.47
4660.00,2.47
4659.00,2.47
4658.00,2.47
4657.00,2.47
4656.00,2.47
4655.00,2.47
4654.00,2.47
4653.00,2.48
4652.00,2.48
4651.00,2.49
4650.00,2.49
4649.00,2.50
4648.00,2.50
4647.00,2.51
4646.00,2.51
4645.00,2.52
4644.00,2.52
4643.00,2.52
4642.00,2.52
4641.00,2.53
4640.00,2.53
4639.00,2.53
4638.00,2.53
4637.00,2.54
4636.00,2.54
4635.00,2.54
4634.00,2.54
4633.00,2.54
4632.00,2.54
4631.00,2.54
4630.00,2.54
4629.00,2.55
4628.00,2.55
4627.00,2.54
4626.00,2.54
4625.00,2.54
4624.00,2.54
4623.00,2.53
4622.00,2.53
4621.00,2.52
4620.00,2.52
4619.00,2.52
4618.00,2.52
4617.00,2.52
4616.00,2.51
4615.00,2.51
4614.00,2.51
4613.00,2.51
4612.00,2.51
4611.00,2.51
4610.00,2.50
4609.00,2.50
4608.00,2.50
4607.00,2.50
4606.00,2.50
4605.00,2.50
4604.00,2.50
4603.00,2.50
4602.00,2.50
4601.00,2.50
4600.00,2.51
4599.00,2.51
4598.00,2.52
4597.00,2.53
4596.00,2.53
4595.00,2.54
4594.00,2.55
4593.00,2.55
4592.00,2.56
4591.00,2.57
4590.00,2.57
4589.00,2.58
4588.00,2.59
4587.00,2.59
4586.00,2.60
4585.00,2.61
4584.00,2.62
4583.00,2.63
4582.00,2.64
4581.00,2.65
4580.00,2.66
4579.00,2.67
4578.00,2.67
4577.00,2.68
4576.00,2.69
4575.00,2.69
4574.00,2.69
4573.00,2.70
4572.00,2.70
4571.00,2.70
4570.00,2.70
4569.00,2.71
4568.00,2.71
4567.00,2.71
4566.00,2.71
4565.00,2.72
4564.00,2.72
4563.00,2.72
4562.00,2.72
4561.00,2.72
4560.00,2.72
4559.00,2.72
4558.00,2.72
4557.00,2.72
4556.00,2.72
4555.00,2.72
4554.00,2.72
4553.00,2.72
4552.00,2.72
4551.00,2.72
4550.00,2.72
4549.00,2.72
4548.00,2.72
4547.00,2.72
4546.00,2.72
4545.00,2.72
4544.00,2.72
4543.00,2.72
4542.00,2.71
4541.00,2.71
4540.00,2.71
4539.00,2.71
4538.00,2.71
4537.00,2.70
4536.00,2.70
4535.00,2.70
4534.00,2.70
4533.00,2.70
4532.00,2.69
4531.00,2.69
4530.00,2.69
4529.00,2.68
4528.00,2.68
4527.00,2.68
4526.00,2.67
4525.00,2.67
4524.00,2.66
4523.00,2.66
4522.00,2.65
4521.00,2.65
4520.00,2.65
4519.00,2.64
4518.00,2.64
4517.00,2.64
4516.00,2.64
4515.00,2.64
4514.00,2.64
4513.00,2.64
4512.00,2.64
4511.00,2.64
4510.00,2.64
4509.00,2.64
4508.00,2.65
4507.00,2.65
4506.00,2.65
4505.00,2.65
4504.00,2.65
4503.00,2.66
4502.00,2.66
4501.00,2.66
4500.00,2.67
4499.00,2.67
4498.00,2.67
4497.00,2.68
4496.00,2.68
4495.00,2.69
4494.00,2.69
4493.00,2.70
4492.00,2.70
4491.00,2.70
4490.00,2.71
4489.00,2.71
4488.00,2.72
4487.00,2.72
4486.00,2.72
4485.00,2.73
4484.00,2.73
4483.00,2.73
4482.00,2.73
4481.00,2.74
4480.00,2.74
4479.00,2.74
4478.00,2.75
4477.00,2.75
4476.00,2.76
4475.00,2.76
4474.00,2.77
4473.00,2.77
4472.00,2.78
4471.00,2.78
4470.00,2.78
4469.00,2.78
4468.00,2.78
4467.00,2.78
4466.00,2.78
4465.00,2.78
4464.00,2.77
4463.00,2.77
4462.00,2.76
4461.00,2.76
4460.00,2.75
4459.00,2.75
4458.00,2.74
4457.00,2.74
4456.00,2.73
4455.00,2.72
4454.00,2.71
4453.00,2.70
4452.00,2.69
4451.00,2.68
4450.00,2.66
4449.00,2.65
4448.00,2.63
4447.00,2.62
4446.00,2.60
4445.00,2.58
4444.00,2.57
4443.00,2.55
4442.00,2.54
4441.00,2.53
4440.00,2.51
4439.00,2.50
4438.00,2.48
4437.00,2.47
4436.00,2.46
4435.00,2.45
4434.00,2.44
4433.00,2.43
4432.00,2.42
4431.00,2.41
4430.00,2.39
4429.00,2.38
4428.00,2.37
4427.00,2.36
4426.00,2.35
4425.00,2.34
4424.00,2.33
4423.00,2.32
4422.00,2.31
4421.00,2.30
4420.00,2.29
4419.00,2.29
4418.00,2.28
4417.00,2.27
4416.00,2.27
4415.00,2.26
4414.00,2.25
4413.00,2.25
4412.00,2.24
4411.00,2.24
4410.00,2.23
4409.00,2.23
4408.00,2.23
4407.00,2.22
4406.00,2.22
4405.00,2.22
4404.00,2.22
4403.00,2.22
4402.00,2.22
4401.00,2.23
4400.00,2.23
4399.00,2.23
4398.00,2.24
4397.00,2.24
4396.00,2.25
4395.00,2.25
4394.00,2.26
4393.00,2.27
4392.00,2.27
4391.00,2.28
4390.00,2.29
4389.00,2.29
4388.00,2.30
4387.00,2.31
4386.00,2.31
4385.00,2.32
4384.00,2.32
4383.00,2.32
4382.00,2.33
4381.00,2.33
4380.00,2.33
4379.00,2.33
4378.00,2.33
4377.00,2.33
4376.00,2.33
4375.00,2.33
4374.00,2.33
4373.00,2.32
4372.00,2.32
4371.00,2.32
4370.00,2.31
4369.00,2.31
4368.00,2.30
4367.00,2.30
4366.00,2.29
4365.00,2.29
4364.00,2.28
4363.00,2.28
4362.00,2.27
4361.00,2.26
4360.00,2.26
4359.00,2.25
4358.00,2.25
4357.00,2.24
4356.00,2.24
4355.00,2.23
4354.00,2.23
4353.00,2.23
4352.00,2.23
4351.00,2.23
4350.00,2.23
4349.00,2.23
4348.00,2.23
4347.00,2.23
4346.00,2.23
4345.00,2.23
4344.00,2.24
4343.00,2.24
4342.00,2.25
4341.00,2.25
4340.00,2.26
4339.00,2.27
4338.00,2.27
4337.00,2.28
4336.00,2.29
4335.00,2.30
4334.00,2.31
4333.00,2.32
4332.00,2.33
4331.00,2.34
4330.00,2.34
4329.00,2.35
4328.00,2.36
4327.00,2.36
4326.00,2.37
4325.00,2.38
4324.00,2.38
4323.00,2.39
4322.00,2.40
4321.00,2.41
4320.00,2.41
4319.00,2.42
4318.00,2.43
4317.00,2.43
4316.00,2.43
4315.00,2.44
4314.00,2.44
4313.00,2.44
4312.00,2.44
4311.00,2.44
4310.00,2.45
4309.00,2.45
4308.00,2.45
4307.00,2.45
4306.00,2.45
4305.00,2.45
4304.00,2.45
4303.00,2.46
4302.00,2.46
4301.00,2.47
4300.00,2.47
4299.00,2.48
4298.00,2.48
4297.00,2.48
4296.00,2.49
4295.00,2.49
4294.00,2.49
4293.00,2.49
4292.00,2.49
4291.00,2.50
4290.00,2.50
4289.00,2.50
4288.00,2.50
4287.00,2.50
4286.00,2.50
4285.00,2.50
4284.00,2.49
4283.00,2.49
4282.00,2.49
4281.00,2.49
4280.00,2.49
4279.00,2.48
4278.00,2.48
4277.00,2.47
4276.00,2.47
4275.00,2.47
4274.00,2.46
4273.00,2.46
4272.00,2.45
4271.00,2.45
4270.00,2.45
4269.00,2.44
4268.00,2.44
4267.00,2.44
4266.00,2.44
4265.00,2.43
4264.00,2.43
4263.00,2.43
4262.00,2.43
4261.00,2.43
4260.00,2.43
4259.00,2.43
4258.00,2.43
4257.00,2.43
4256.00,2.43
4255.00,2.44
4254.00,2.44
4253.00,2.45
4252.00,2.45
4251.00,2.46
4250.00,2.46
4249.00,2.47
4248.00,2.47
4247.00,2.48
4246.00,2.48
4245.00,2.49
4244.00,2.49
4243.00,2.49
4242.00,2.49
4241.00,2.50
4240.00,2.50
4239.00,2.50
4238.00,2.51
4237.00,2.51
4236.00,2.51
4235.00,2.52
4234.00,2.52
4233.00,2.53
4232.00,2.53
4231.00,2.54
4230.00,2.54
4229.00,2.55
4228.00,2.55
4227.00,2.55
4226.00,2.55
4225.00,2.55
4224.00,2.55
4223.00,2.54
4222.00,2.54
4221.00,2.54
4220.00,2.53
4219.00,2.53
4218.00,2.52
4217.00,2.52
4216.00,2.51
4215.00,2.51
4214.00,2.50
4213.00,2.50
4212.00,2.49
4211.00,2.49
4210.00,2.48
4209.00,2.47
4208.00,2.46
4207.00,2.45
4206.00,2.44
4205.00,2.43
4204.00,2.41
4203.00,2.40
4202.00,2.39
4201.00,2.38
4200.00,2.37
4199.00,2.36
4198.00,2.35
4197.00,2.35
4196.00,2.34
4195.00,2.34
4194.00,2.33
4193.00,2.33
4192.00,2.33
4191.00,2.32
4190.00,2.32
4189.00,2.32
4188.00,2.32
4187.00,2.31
4186.00,2.31
4185.00,2.31
4184.00,2.31
4183.00,2.31
4182.00,2.31
4181.00,2.32
4180.00,2.32
4179.00,2.33
4178.00,2.33
4177.00,2.34
4176.00,2.35
4175.00,2.35
4174.00,2.36
4173.00,2.37
4172.00,2.38
4171.00,2.38
4170.00,2.39
4169.00,2.39
4168.00,2.40
4167.00,2.40
4166.00,2.40
4165.00,2.41
4164.00,2.41
4163.00,2.42
4162.00,2.42
4161.00,2.42
4160.00,2.42
4159.00,2.43
4158.00,2.43
4157.00,2.43
4156.00,2.43
4155.00,2.43
4154.00,2.44
4153.00,2.44
4152.00,2.44
4151.00,2.44
4150.00,2.44
4149.00,2.44
4148.00,2.43
4147.00,2.43
4146.00,2.43
4145.00,2.42
4144.00,2.42
4143.00,2.42
4142.00,2.42
4141.00,2.42
4140.00,2.42
4139.00,2.42
4138.00,2.42
4137.00,2.42
4136.00,2.42
4135.00,2.42
4134.00,2.42
4133.00,2.43
4132.00,2.43
4131.00,2.43
4130.00,2.43
4129.00,2.43
4128.00,2.43
4127.00,2.43
4126.00,2.43
4125.00,2.42
4124.00,2.42
4123.00,2.42
4122.00,2.41
4121.00,2.41
4120.00,2.40
4119.00,2.40
4118.00,2.39
4117.00,2.39
4116.00,2.38
4115.00,2.38
4114.00,2.37
4113.00,2.36
4112.00,2.35
4111.00,2.35
4110.00,2.34
4109.00,2.34
4108.00,2.33
4107.00,2.33
4106.00,2.33
4105.00,2.33
4104.00,2.32
4103.00,2.32
4102.00,2.32
4101.00,2.32
4100.00,2.32
4099.00,2.32
4098.00,2.33
4097.00,2.33
4096.00,2.34
4095.00,2.35
4094.00,2.36
4093.00,2.36
4092.00,2.38
4091.00,2.39
4090.00,2.40
4089.00,2.41
4088.00,2.42
4087.00,2.43
4086.00,2.44
4085.00,2.44
4084.00,2.45
4083.00,2.45
4082.00,2.45
4081.00,2.46
4080.00,2.46
4079.00,2.46
4078.00,2.46
4077.00,2.45
4076.00,2.45
4075.00,2.45
4074.00,2.44
4073.00,2.43
4072.00,2.42
4071.00,2.41
4070.00,2.40
4069.00,2.39
4068.00,2.37
4067.00,2.36
4066.00,2.34
4065.00,2.33
4064.00,2.31
4063.00,2.30
4062.00,2.28
4061.00,2.27
4060.00,2.26
4059.00,2.24
4058.00,2.23
4057.00,2.22
4056.00,2.21
4055.00,2.21
4054.00,2.20
4053.00,2.19
4052.00,2.19
4051.00,2.18
4050.00,2.18
4049.00,2.17
4048.00,2.18
4047.00,2.18
4046.00,2.19
4045.00,2.20
4044.00,2.21
4043.00,2.22
4042.00,2.23
4041.00,2.25
4040.00,2.27
4039.00,2.28
4038.00,2.30
4037.00,2.33
4036.00,2.35
4035.00,2.37
4034.00,2.39
4033.00,2.41
4032.00,2.43
4031.00,2.44
4030.00,2.46
4029.00,2.47
4028.00,2.48
4027.00,2.49
4026.00,2.51
4025.00,2.52
4024.00,2.54
4023.00,2.56
4022.00,2.58
4021.00,2.60
4020.00,2.62
4019.00,2.64
4018.00,2.67
4017.00,2.69
4016.00,2.71
4015.00,2.73
4014.00,2.76
4013.00,2.78
4012.00,2.80
4011.00,2.82
4010.00,2.85
4009.00,2.87
4008.00,2.90
4007.00,2.93
4006.00,2.96
4005.00,2.99
4004.00,3.03
4003.00,3.07
4002.00,3.12
4001.00,3.17
4000.00,3.21
