创建为新数据集,样品 422 用户 Administrator 日期 星期日, 七月 15 2018
cm-1,%T
10000.00,1.22
9999.00,1.22
9998.00,1.22
9997.00,1.22
9996.00,1.22
9995.00,1.22
9994.00,1.22
9993.00,1.22
9992.00,1.22
9991.00,1.22
9990.00,1.22
9989.00,1.22
9988.00,1.22
9987.00,1.22
9986.00,1.22
9985.00,1.22
9984.00,1.22
9983.00,1.22
9982.00,1.22
9981.00,1.22
9980.00,1.22
9979.00,1.22
9978.00,1.22
9977.00,1.22
9976.00,1.22
9975.00,1.22
9974.00,1.22
9973.00,1.22
9972.00,1.22
9971.00,1.22
9970.00,1.22
9969.00,1.22
9968.00,1.22
9967.00,1.22
9966.00,1.22
9965.00,1.22
9964.00,1.22
9963.00,1.22
9962.00,1.22
9961.00,1.22
9960.00,1.22
9959.00,1.22
9958.00,1.22
9957.00,1.22
9956.00,1.22
9955.00,1.22
9954.00,1.22
9953.00,1.21
9952.00,1.21
9951.00,1.21
9950.00,1.21
9949.00,1.21
9948.00,1.21
9947.00,1.21
9946.00,1.21
9945.00,1.21
9944.00,1.21
9943.00,1.21
9942.00,1.21
9941.00,1.20
9940.00,1.20
9939.00,1.20
9938.00,1.20
9937.00,1.20
9936.00,1.20
9935.00,1.20
9934.00,1.20
9933.00,1.20
9932.00,1.20
9931.00,1.20
9930.00,1.20
9929.00,1.20
9928.00,1.20
9927.00,1.20
9926.00,1.20
9925.00,1.19
9924.00,1.19
9923.00,1.19
9922.00,1.19
9921.00,1.19
9920.00,1.19
9919.00,1.18
9918.00,1.18
9917.00,1.18
9916.00,1.18
9915.00,1.18
9914.00,1.18
9913.00,1.18
9912.00,1.17
9911.00,1.17
9910.00,1.17
9909.00,1.17
9908.00,1.17
9907.00,1.17
9906.00,1.18
9905.00,1.18
9904.00,1.18
9903.00,1.18
9902.00,1.18
9901.00,1.18
9900.00,1.18
9899.00,1.18
9898.00,1.19
9897.00,1.19
9896.00,1.19
9895.00,1.19
9894.00,1.19
9893.00,1.19
9892.00,1.20
9891.00,1.20
9890.00,1.20
9889.00,1.20
9888.00,1.20
9887.00,1.20
9886.00,1.21
9885.00,1.21
9884.00,1.21
9883.00,1.21
9882.00,1.21
9881.00,1.21
9880.00,1.21
9879.00,1.21
9878.00,1.21
9877.00,1.21
9876.00,1.21
9875.00,1.20
9874.00,1.20
9873.00,1.20
9872.00,1.20
9871.00,1.20
9870.00,1.20
9869.00,1.20
9868.00,1.20
9867.00,1.20
9866.00,1.20
9865.00,1.19
9864.00,1.19
9863.00,1.19
9862.00,1.19
9861.00,1.19
9860.00,1.19
9859.00,1.18
9858.00,1.18
9857.00,1.18
9856.00,1.18
9855.00,1.18
9854.00,1.17
9853.00,1.17
9852.00,1.17
9851.00,1.17
9850.00,1.17
9849.00,1.17
9848.00,1.17
9847.00,1.17
9846.00,1.17
9845.00,1.17
9844.00,1.17
9843.00,1.17
9842.00,1.17
9841.00,1.17
9840.00,1.17
9839.00,1.17
9838.00,1.17
9837.00,1.17
9836.00,1.17
9835.00,1.18
9834.00,1.18
9833.00,1.18
9832.00,1.18
9831.00,1.18
9830.00,1.18
9829.00,1.18
9828.00,1.18
9827.00,1.18
9826.00,1.18
9825.00,1.18
9824.00,1.19
9823.00,1.19
9822.00,1.19
9821.00,1.19
9820.00,1.19
9819.00,1.19
9818.00,1.19
9817.00,1.20
9816.00,1.20
9815.00,1.20
9814.00,1.20
9813.00,1.20
9812.00,1.20
9811.00,1.20
9810.00,1.21
9809.00,1.21
9808.00,1.21
9807.00,1.21
9806.00,1.21
9805.00,1.21
9804.00,1.21
9803.00,1.21
9802.00,1.21
9801.00,1.21
9800.00,1.21
9799.00,1.21
9798.00,1.21
9797.00,1.21
9796.00,1.21
9795.00,1.20
9794.00,1.20
9793.00,1.20
9792.00,1.20
9791.00,1.20
9790.00,1.20
9789.00,1.20
9788.00,1.20
9787.00,1.19
9786.00,1.19
9785.00,1.19
9784.00,1.19
9783.00,1.19
9782.00,1.19
9781.00,1.19
9780.00,1.19
9779.00,1.19
9778.00,1.19
9777.00,1.19
9776.00,1.19
9775.00,1.19
9774.00,1.20
9773.00,1.20
9772.00,1.20
9771.00,1.20
9770.00,1.20
9769.00,1.20
9768.00,1.20
9767.00,1.20
9766.00,1.20
9765.00,1.20
9764.00,1.20
9763.00,1.20
9762.00,1.20
9761.00,1.20
9760.00,1.20
9759.00,1.20
9758.00,1.20
9757.00,1.20
9756.00,1.20
9755.00,1.20
9754.00,1.20
9753.00,1.20
9752.00,1.20
9751.00,1.20
9750.00,1.20
9749.00,1.20
9748.00,1.20
9747.00,1.21
9746.00,1.21
9745.00,1.21
9744.00,1.21
9743.00,1.21
9742.00,1.21
9741.00,1.21
9740.00,1.21
9739.00,1.21
9738.00,1.21
9737.00,1.21
9736.00,1.21
9735.00,1.21
9734.00,1.21
9733.00,1.20
9732.00,1.20
9731.00,1.20
9730.00,1.20
9729.00,1.19
9728.00,1.19
9727.00,1.19
9726.00,1.19
9725.00,1.18
9724.00,1.18
9723.00,1.18
9722.00,1.18
9721.00,1.18
9720.00,1.18
9719.00,1.18
9718.00,1.18
9717.00,1.18
9716.00,1.18
9715.00,1.18
9714.00,1.18
9713.00,1.18
9712.00,1.18
9711.00,1.18
9710.00,1.18
9709.00,1.19
9708.00,1.19
9707.00,1.19
9706.00,1.19
9705.00,1.19
9704.00,1.19
9703.00,1.19
9702.00,1.20
9701.00,1.20
9700.00,1.20
9699.00,1.20
9698.00,1.20
9697.00,1.20
9696.00,1.20
9695.00,1.20
9694.00,1.20
9693.00,1.20
9692.00,1.21
9691.00,1.21
9690.00,1.21
9689.00,1.21
9688.00,1.21
9687.00,1.21
9686.00,1.20
9685.00,1.20
9684.00,1.20
9683.00,1.20
9682.00,1.20
9681.00,1.20
9680.00,1.20
9679.00,1.20
9678.00,1.20
9677.00,1.21
9676.00,1.21
9675.00,1.21
9674.00,1.21
9673.00,1.21
9672.00,1.21
9671.00,1.21
9670.00,1.21
9669.00,1.21
9668.00,1.22
9667.00,1.22
9666.00,1.22
9665.00,1.22
9664.00,1.22
9663.00,1.22
9662.00,1.22
9661.00,1.22
9660.00,1.22
9659.00,1.22
9658.00,1.22
9657.00,1.22
9656.00,1.21
9655.00,1.21
9654.00,1.21
9653.00,1.21
9652.00,1.21
9651.00,1.21
9650.00,1.21
9649.00,1.22
9648.00,1.22
9647.00,1.22
9646.00,1.22
9645.00,1.22
9644.00,1.22
9643.00,1.22
9642.00,1.22
9641.00,1.22
9640.00,1.22
9639.00,1.22
9638.00,1.22
9637.00,1.22
9636.00,1.22
9635.00,1.22
9634.00,1.22
9633.00,1.22
9632.00,1.22
9631.00,1.22
9630.00,1.22
9629.00,1.22
9628.00,1.22
9627.00,1.22
9626.00,1.22
9625.00,1.22
9624.00,1.22
9623.00,1.22
9622.00,1.22
9621.00,1.22
9620.00,1.22
9619.00,1.22
9618.00,1.22
9617.00,1.22
9616.00,1.21
9615.00,1.21
9614.00,1.21
9613.00,1.21
9612.00,1.21
9611.00,1.21
9610.00,1.21
9609.00,1.20
9608.00,1.20
9607.00,1.20
9606.00,1.20
9605.00,1.19
9604.00,1.19
9603.00,1.19
9602.00,1.18
9601.00,1.18
9600.00,1.18
9599.00,1.18
9598.00,1.18
9597.00,1.17
9596.00,1.17
9595.00,1.17
9594.00,1.17
9593.00,1.17
9592.00,1.18
9591.00,1.18
9590.00,1.18
9589.00,1.18
9588.00,1.18
9587.00,1.19
9586.00,1.19
9585.00,1.19
9584.00,1.19
9583.00,1.19
9582.00,1.20
9581.00,1.20
9580.00,1.20
9579.00,1.20
9578.00,1.20
9577.00,1.20
9576.00,1.20
9575.00,1.20
9574.00,1.20
9573.00,1.19
9572.00,1.19
9571.00,1.19
9570.00,1.19
9569.00,1.19
9568.00,1.19
9567.00,1.19
9566.00,1.19
9565.00,1.19
9564.00,1.19
9563.00,1.19
9562.00,1.19
9561.00,1.19
9560.00,1.19
9559.00,1.19
9558.00,1.19
9557.00,1.19
9556.00,1.19
9555.00,1.19
9554.00,1.19
9553.00,1.19
9552.00,1.19
9551.00,1.19
9550.00,1.19
9549.00,1.19
9548.00,1.19
9547.00,1.19
9546.00,1.19
9545.00,1.19
9544.00,1.19
9543.00,1.19
9542.00,1.19
9541.00,1.19
9540.00,1.19
9539.00,1.19
9538.00,1.19
9537.00,1.18
9536.00,1.18
9535.00,1.18
9534.00,1.18
9533.00,1.18
9532.00,1.18
9531.00,1.18
9530.00,1.18
9529.00,1.18
9528.00,1.18
9527.00,1.18
9526.00,1.18
9525.00,1.18
9524.00,1.18
9523.00,1.18
9522.00,1.18
9521.00,1.18
9520.00,1.18
9519.00,1.18
9518.00,1.18
9517.00,1.18
9516.00,1.18
9515.00,1.18
9514.00,1.18
9513.00,1.18
9512.00,1.18
9511.00,1.19
9510.00,1.19
9509.00,1.19
9508.00,1.19
9507.00,1.19
9506.00,1.19
9505.00,1.19
9504.00,1.19
9503.00,1.19
9502.00,1.19
9501.00,1.19
9500.00,1.19
9499.00,1.19
9498.00,1.20
9497.00,1.20
9496.00,1.20
9495.00,1.20
9494.00,1.19
9493.00,1.19
9492.00,1.19
9491.00,1.19
9490.00,1.19
9489.00,1.19
9488.00,1.19
9487.00,1.19
9486.00,1.19
9485.00,1.19
9484.00,1.18
9483.00,1.18
9482.00,1.18
9481.00,1.18
9480.00,1.18
9479.00,1.18
9478.00,1.17
9477.00,1.17
9476.00,1.17
9475.00,1.17
9474.00,1.17
9473.00,1.17
9472.00,1.17
9471.00,1.17
9470.00,1.17
9469.00,1.17
9468.00,1.17
9467.00,1.17
9466.00,1.17
9465.00,1.17
9464.00,1.17
9463.00,1.17
9462.00,1.17
9461.00,1.17
9460.00,1.17
9459.00,1.17
9458.00,1.17
9457.00,1.17
9456.00,1.18
9455.00,1.18
9454.00,1.18
9453.00,1.18
9452.00,1.18
9451.00,1.18
9450.00,1.18
9449.00,1.18
9448.00,1.18
9447.00,1.18
9446.00,1.19
9445.00,1.19
9444.00,1.19
9443.00,1.19
9442.00,1.19
9441.00,1.19
9440.00,1.19
9439.00,1.20
9438.00,1.20
9437.00,1.20
9436.00,1.20
9435.00,1.20
9434.00,1.20
9433.00,1.20
9432.00,1.20
9431.00,1.20
9430.00,1.20
9429.00,1.19
9428.00,1.19
9427.00,1.19
9426.00,1.19
9425.00,1.19
9424.00,1.19
9423.00,1.19
9422.00,1.19
9421.00,1.19
9420.00,1.19
9419.00,1.19
9418.00,1.18
9417.00,1.18
9416.00,1.19
9415.00,1.19
9414.00,1.19
9413.00,1.19
9412.00,1.19
9411.00,1.19
9410.00,1.19
9409.00,1.19
9408.00,1.19
9407.00,1.19
9406.00,1.19
9405.00,1.20
9404.00,1.20
9403.00,1.20
9402.00,1.20
9401.00,1.20
9400.00,1.20
9399.00,1.20
9398.00,1.20
9397.00,1.20
9396.00,1.20
9395.00,1.20
9394.00,1.20
9393.00,1.20
9392.00,1.20
9391.00,1.20
9390.00,1.20
9389.00,1.20
9388.00,1.20
9387.00,1.20
9386.00,1.20
9385.00,1.20
9384.00,1.19
9383.00,1.19
9382.00,1.19
9381.00,1.19
9380.00,1.19
9379.00,1.19
9378.00,1.18
9377.00,1.18
9376.00,1.18
9375.00,1.18
9374.00,1.18
9373.00,1.18
9372.00,1.18
9371.00,1.18
9370.00,1.18
9369.00,1.18
9368.00,1.18
9367.00,1.18
9366.00,1.18
9365.00,1.18
9364.00,1.18
9363.00,1.18
9362.00,1.19
9361.00,1.19
9360.00,1.19
9359.00,1.19
9358.00,1.19
9357.00,1.19
9356.00,1.19
9355.00,1.19
9354.00,1.20
9353.00,1.20
9352.00,1.20
9351.00,1.20
9350.00,1.20
9349.00,1.20
9348.00,1.20
9347.00,1.20
9346.00,1.20
9345.00,1.21
9344.00,1.21
9343.00,1.21
9342.00,1.21
9341.00,1.21
9340.00,1.21
9339.00,1.21
9338.00,1.21
9337.00,1.21
9336.00,1.21
9335.00,1.21
9334.00,1.21
9333.00,1.21
9332.00,1.21
9331.00,1.21
9330.00,1.21
9329.00,1.21
9328.00,1.22
9327.00,1.22
9326.00,1.22
9325.00,1.22
9324.00,1.22
9323.00,1.22
9322.00,1.22
9321.00,1.22
9320.00,1.22
9319.00,1.22
9318.00,1.22
9317.00,1.22
9316.00,1.22
9315.00,1.22
9314.00,1.22
9313.00,1.22
9312.00,1.22
9311.00,1.21
9310.00,1.21
9309.00,1.21
9308.00,1.20
9307.00,1.20
9306.00,1.20
9305.00,1.19
9304.00,1.19
9303.00,1.19
9302.00,1.19
9301.00,1.18
9300.00,1.18
9299.00,1.18
9298.00,1.18
9297.00,1.18
9296.00,1.18
9295.00,1.18
9294.00,1.18
9293.00,1.18
9292.00,1.18
9291.00,1.18
9290.00,1.18
9289.00,1.18
9288.00,1.18
9287.00,1.19
9286.00,1.19
9285.00,1.19
9284.00,1.19
9283.00,1.19
9282.00,1.19
9281.00,1.19
9280.00,1.19
9279.00,1.20
9278.00,1.20
9277.00,1.20
9276.00,1.20
9275.00,1.20
9274.00,1.20
9273.00,1.21
9272.00,1.21
9271.00,1.21
9270.00,1.21
9269.00,1.21
9268.00,1.22
9267.00,1.22
9266.00,1.22
9265.00,1.22
9264.00,1.22
9263.00,1.22
9262.00,1.22
9261.00,1.22
9260.00,1.22
9259.00,1.22
9258.00,1.22
9257.00,1.22
9256.00,1.22
9255.00,1.22
9254.00,1.22
9253.00,1.22
9252.00,1.21
9251.00,1.21
9250.00,1.21
9249.00,1.21
9248.00,1.21
9247.00,1.21
9246.00,1.21
9245.00,1.21
9244.00,1.21
9243.00,1.21
9242.00,1.21
9241.00,1.21
9240.00,1.21
9239.00,1.21
9238.00,1.21
9237.00,1.21
9236.00,1.21
9235.00,1.21
9234.00,1.21
9233.00,1.21
9232.00,1.21
9231.00,1.21
9230.00,1.21
9229.00,1.21
9228.00,1.21
9227.00,1.21
9226.00,1.20
9225.00,1.20
9224.00,1.20
9223.00,1.20
9222.00,1.19
9221.00,1.19
9220.00,1.19
9219.00,1.19
9218.00,1.18
9217.00,1.18
9216.00,1.18
9215.00,1.18
9214.00,1.18
9213.00,1.17
9212.00,1.17
9211.00,1.17
9210.00,1.17
9209.00,1.17
9208.00,1.17
9207.00,1.17
9206.00,1.18
9205.00,1.18
9204.00,1.18
9203.00,1.18
9202.00,1.18
9201.00,1.18
9200.00,1.18
9199.00,1.19
9198.00,1.19
9197.00,1.19
9196.00,1.19
9195.00,1.19
9194.00,1.19
9193.00,1.19
9192.00,1.19
9191.00,1.20
9190.00,1.20
9189.00,1.20
9188.00,1.20
9187.00,1.20
9186.00,1.20
9185.00,1.20
9184.00,1.20
9183.00,1.20
9182.00,1.20
9181.00,1.20
9180.00,1.20
9179.00,1.20
9178.00,1.20
9177.00,1.20
9176.00,1.20
9175.00,1.20
9174.00,1.20
9173.00,1.20
9172.00,1.20
9171.00,1.20
9170.00,1.20
9169.00,1.20
9168.00,1.20
9167.00,1.20
9166.00,1.20
9165.00,1.20
9164.00,1.20
9163.00,1.20
9162.00,1.20
9161.00,1.20
9160.00,1.20
9159.00,1.20
9158.00,1.20
9157.00,1.20
9156.00,1.20
9155.00,1.20
9154.00,1.20
9153.00,1.20
9152.00,1.20
9151.00,1.20
9150.00,1.20
9149.00,1.20
9148.00,1.20
9147.00,1.20
9146.00,1.20
9145.00,1.20
9144.00,1.19
9143.00,1.19
9142.00,1.19
9141.00,1.19
9140.00,1.19
9139.00,1.19
9138.00,1.19
9137.00,1.19
9136.00,1.19
9135.00,1.19
9134.00,1.19
9133.00,1.19
9132.00,1.19
9131.00,1.18
9130.00,1.18
9129.00,1.18
9128.00,1.18
9127.00,1.18
9126.00,1.18
9125.00,1.18
9124.00,1.18
9123.00,1.18
9122.00,1.18
9121.00,1.18
9120.00,1.18
9119.00,1.19
9118.00,1.19
9117.00,1.19
9116.00,1.19
9115.00,1.19
9114.00,1.19
9113.00,1.19
9112.00,1.20
9111.00,1.20
9110.00,1.20
9109.00,1.20
9108.00,1.20
9107.00,1.20
9106.00,1.21
9105.00,1.21
9104.00,1.21
9103.00,1.21
9102.00,1.21
9101.00,1.22
9100.00,1.22
9099.00,1.22
9098.00,1.22
9097.00,1.22
9096.00,1.22
9095.00,1.22
9094.00,1.22
9093.00,1.22
9092.00,1.22
9091.00,1.22
9090.00,1.22
9089.00,1.22
9088.00,1.22
9087.00,1.22
9086.00,1.22
9085.00,1.22
9084.00,1.22
9083.00,1.22
9082.00,1.22
9081.00,1.22
9080.00,1.22
9079.00,1.22
9078.00,1.22
9077.00,1.22
9076.00,1.22
9075.00,1.22
9074.00,1.22
9073.00,1.22
9072.00,1.21
9071.00,1.21
9070.00,1.21
9069.00,1.21
9068.00,1.21
9067.00,1.21
9066.00,1.21
9065.00,1.21
9064.00,1.21
9063.00,1.20
9062.00,1.20
9061.00,1.20
9060.00,1.20
9059.00,1.20
9058.00,1.20
9057.00,1.20
9056.00,1.20
9055.00,1.20
9054.00,1.20
9053.00,1.20
9052.00,1.20
9051.00,1.20
9050.00,1.20
9049.00,1.20
9048.00,1.20
9047.00,1.20
9046.00,1.20
9045.00,1.20
9044.00,1.20
9043.00,1.20
9042.00,1.20
9041.00,1.20
9040.00,1.20
9039.00,1.20
9038.00,1.20
9037.00,1.20
9036.00,1.20
9035.00,1.20
9034.00,1.20
9033.00,1.20
9032.00,1.20
9031.00,1.20
9030.00,1.20
9029.00,1.19
9028.00,1.19
9027.00,1.19
9026.00,1.19
9025.00,1.19
9024.00,1.19
9023.00,1.19
9022.00,1.19
9021.00,1.19
9020.00,1.19
9019.00,1.19
9018.00,1.19
9017.00,1.19
9016.00,1.19
9015.00,1.19
9014.00,1.19
9013.00,1.19
9012.00,1.19
9011.00,1.19
9010.00,1.19
9009.00,1.19
9008.00,1.19
9007.00,1.19
9006.00,1.19
9005.00,1.19
9004.00,1.19
9003.00,1.19
9002.00,1.19
9001.00,1.19
9000.00,1.19
8999.00,1.19
8998.00,1.19
8997.00,1.19
8996.00,1.19
8995.00,1.19
8994.00,1.19
8993.00,1.19
8992.00,1.19
8991.00,1.20
8990.00,1.20
8989.00,1.20
8988.00,1.20
8987.00,1.21
8986.00,1.21
8985.00,1.21
8984.00,1.21
8983.00,1.21
8982.00,1.21
8981.00,1.21
8980.00,1.21
8979.00,1.22
8978.00,1.22
8977.00,1.22
8976.00,1.22
8975.00,1.21
8974.00,1.21
8973.00,1.21
8972.00,1.21
8971.00,1.21
8970.00,1.21
8969.00,1.21
8968.00,1.21
8967.00,1.21
8966.00,1.21
8965.00,1.21
8964.00,1.21
8963.00,1.21
8962.00,1.20
8961.00,1.20
8960.00,1.20
8959.00,1.20
8958.00,1.20
8957.00,1.20
8956.00,1.20
8955.00,1.20
8954.00,1.20
8953.00,1.20
8952.00,1.19
8951.00,1.19
8950.00,1.19
8949.00,1.19
8948.00,1.19
8947.00,1.19
8946.00,1.19
8945.00,1.19
8944.00,1.19
8943.00,1.19
8942.00,1.19
8941.00,1.19
8940.00,1.19
8939.00,1.19
8938.00,1.19
8937.00,1.19
8936.00,1.19
8935.00,1.19
8934.00,1.19
8933.00,1.19
8932.00,1.19
8931.00,1.19
8930.00,1.19
8929.00,1.19
8928.00,1.19
8927.00,1.20
8926.00,1.20
8925.00,1.20
8924.00,1.20
8923.00,1.20
8922.00,1.20
8921.00,1.21
8920.00,1.21
8919.00,1.21
8918.00,1.21
8917.00,1.21
8916.00,1.21
8915.00,1.21
8914.00,1.22
8913.00,1.22
8912.00,1.22
8911.00,1.22
8910.00,1.22
8909.00,1.22
8908.00,1.22
8907.00,1.22
8906.00,1.22
8905.00,1.22
8904.00,1.22
8903.00,1.22
8902.00,1.21
8901.00,1.21
8900.00,1.21
8899.00,1.21
8898.00,1.21
8897.00,1.21
8896.00,1.21
8895.00,1.21
8894.00,1.21
8893.00,1.21
8892.00,1.21
8891.00,1.21
8890.00,1.21
8889.00,1.21
8888.00,1.21
8887.00,1.21
8886.00,1.21
8885.00,1.21
8884.00,1.21
8883.00,1.21
8882.00,1.21
8881.00,1.21
8880.00,1.21
8879.00,1.21
8878.00,1.21
8877.00,1.21
8876.00,1.21
8875.00,1.21
8874.00,1.21
8873.00,1.20
8872.00,1.20
8871.00,1.20
8870.00,1.20
8869.00,1.20
8868.00,1.20
8867.00,1.20
8866.00,1.20
8865.00,1.20
8864.00,1.20
8863.00,1.20
8862.00,1.20
8861.00,1.20
8860.00,1.20
8859.00,1.20
8858.00,1.21
8857.00,1.21
8856.00,1.21
8855.00,1.21
8854.00,1.21
8853.00,1.21
8852.00,1.21
8851.00,1.21
8850.00,1.21
8849.00,1.21
8848.00,1.21
8847.00,1.21
8846.00,1.21
8845.00,1.21
8844.00,1.21
8843.00,1.21
8842.00,1.21
8841.00,1.21
8840.00,1.21
8839.00,1.21
8838.00,1.21
8837.00,1.21
8836.00,1.21
8835.00,1.21
8834.00,1.21
8833.00,1.20
8832.00,1.20
8831.00,1.20
8830.00,1.20
8829.00,1.20
8828.00,1.20
8827.00,1.21
8826.00,1.21
8825.00,1.21
8824.00,1.21
8823.00,1.21
8822.00,1.21
8821.00,1.21
8820.00,1.21
8819.00,1.21
8818.00,1.21
8817.00,1.21
8816.00,1.21
8815.00,1.20
8814.00,1.20
8813.00,1.20
8812.00,1.20
8811.00,1.20
8810.00,1.19
8809.00,1.19
8808.00,1.19
8807.00,1.19
8806.00,1.18
8805.00,1.18
8804.00,1.18
8803.00,1.18
8802.00,1.17
8801.00,1.17
8800.00,1.17
8799.00,1.17
8798.00,1.17
8797.00,1.17
8796.00,1.17
8795.00,1.17
8794.00,1.17
8793.00,1.17
8792.00,1.17
8791.00,1.17
8790.00,1.17
8789.00,1.18
8788.00,1.18
8787.00,1.18
8786.00,1.18
8785.00,1.18
8784.00,1.18
8783.00,1.18
8782.00,1.19
8781.00,1.19
8780.00,1.19
8779.00,1.19
8778.00,1.19
8777.00,1.19
8776.00,1.19
8775.00,1.19
8774.00,1.19
8773.00,1.19
8772.00,1.19
8771.00,1.18
8770.00,1.18
8769.00,1.18
8768.00,1.18
8767.00,1.18
8766.00,1.18
8765.00,1.18
8764.00,1.18
8763.00,1.18
8762.00,1.18
8761.00,1.17
8760.00,1.17
8759.00,1.17
8758.00,1.17
8757.00,1.17
8756.00,1.17
8755.00,1.17
8754.00,1.17
8753.00,1.17
8752.00,1.17
8751.00,1.17
8750.00,1.17
8749.00,1.17
8748.00,1.17
8747.00,1.17
8746.00,1.16
8745.00,1.16
8744.00,1.16
8743.00,1.16
8742.00,1.16
8741.00,1.16
8740.00,1.16
8739.00,1.16
8738.00,1.16
8737.00,1.16
8736.00,1.16
8735.00,1.15
8734.00,1.15
8733.00,1.15
8732.00,1.15
8731.00,1.15
8730.00,1.15
8729.00,1.15
8728.00,1.15
8727.00,1.15
8726.00,1.15
8725.00,1.15
8724.00,1.15
8723.00,1.15
8722.00,1.15
8721.00,1.15
8720.00,1.15
8719.00,1.15
8718.00,1.15
8717.00,1.15
8716.00,1.15
8715.00,1.15
8714.00,1.15
8713.00,1.15
8712.00,1.15
8711.00,1.15
8710.00,1.15
8709.00,1.15
8708.00,1.15
8707.00,1.15
8706.00,1.15
8705.00,1.15
8704.00,1.15
8703.00,1.15
8702.00,1.15
8701.00,1.15
8700.00,1.15
8699.00,1.15
8698.00,1.15
8697.00,1.15
8696.00,1.15
8695.00,1.15
8694.00,1.15
8693.00,1.15
8692.00,1.15
8691.00,1.15
8690.00,1.15
8689.00,1.15
8688.00,1.15
8687.00,1.15
8686.00,1.15
8685.00,1.15
8684.00,1.15
8683.00,1.15
8682.00,1.15
8681.00,1.15
8680.00,1.15
8679.00,1.15
8678.00,1.15
8677.00,1.15
8676.00,1.15
8675.00,1.15
8674.00,1.14
8673.00,1.14
8672.00,1.14
8671.00,1.14
8670.00,1.14
8669.00,1.14
8668.00,1.14
8667.00,1.14
8666.00,1.14
8665.00,1.14
8664.00,1.14
8663.00,1.14
8662.00,1.14
8661.00,1.14
8660.00,1.14
8659.00,1.14
8658.00,1.14
8657.00,1.14
8656.00,1.14
8655.00,1.14
8654.00,1.14
8653.00,1.14
8652.00,1.14
8651.00,1.14
8650.00,1.14
8649.00,1.14
8648.00,1.14
8647.00,1.14
8646.00,1.14
8645.00,1.14
8644.00,1.14
8643.00,1.14
8642.00,1.14
8641.00,1.14
8640.00,1.13
8639.00,1.13
8638.00,1.13
8637.00,1.13
8636.00,1.13
8635.00,1.13
8634.00,1.13
8633.00,1.13
8632.00,1.13
8631.00,1.12
8630.00,1.12
8629.00,1.12
8628.00,1.12
8627.00,1.12
8626.00,1.12
8625.00,1.12
8624.00,1.12
8623.00,1.12
8622.00,1.12
8621.00,1.12
8620.00,1.12
8619.00,1.12
8618.00,1.12
8617.00,1.12
8616.00,1.12
8615.00,1.12
8614.00,1.12
8613.00,1.12
8612.00,1.12
8611.00,1.12
8610.00,1.12
8609.00,1.12
8608.00,1.12
8607.00,1.12
8606.00,1.13
8605.00,1.13
8604.00,1.13
8603.00,1.13
8602.00,1.13
8601.00,1.13
8600.00,1.13
8599.00,1.13
8598.00,1.13
8597.00,1.13
8596.00,1.13
8595.00,1.13
8594.00,1.13
8593.00,1.13
8592.00,1.13
8591.00,1.13
8590.00,1.12
8589.00,1.12
8588.00,1.12
8587.00,1.12
8586.00,1.12
8585.00,1.12
8584.00,1.12
8583.00,1.12
8582.00,1.11
8581.00,1.11
8580.00,1.11
8579.00,1.11
8578.00,1.11
8577.00,1.11
8576.00,1.11
8575.00,1.11
8574.00,1.10
8573.00,1.10
8572.00,1.10
8571.00,1.10
8570.00,1.10
8569.00,1.10
8568.00,1.10
8567.00,1.10
8566.00,1.10
8565.00,1.10
8564.00,1.10
8563.00,1.10
8562.00,1.10
8561.00,1.10
8560.00,1.10
8559.00,1.10
8558.00,1.10
8557.00,1.10
8556.00,1.10
8555.00,1.10
8554.00,1.10
8553.00,1.10
8552.00,1.10
8551.00,1.10
8550.00,1.11
8549.00,1.11
8548.00,1.11
8547.00,1.11
8546.00,1.11
8545.00,1.11
8544.00,1.11
8543.00,1.11
8542.00,1.11
8541.00,1.11
8540.00,1.10
8539.00,1.10
8538.00,1.10
8537.00,1.10
8536.00,1.10
8535.00,1.10
8534.00,1.10
8533.00,1.10
8532.00,1.09
8531.00,1.09
8530.00,1.09
8529.00,1.09
8528.00,1.09
8527.00,1.09
8526.00,1.09
8525.00,1.09
8524.00,1.09
8523.00,1.09
8522.00,1.09
8521.00,1.09
8520.00,1.09
8519.00,1.09
8518.00,1.09
8517.00,1.09
8516.00,1.09
8515.00,1.09
8514.00,1.09
8513.00,1.09
8512.00,1.09
8511.00,1.09
8510.00,1.09
8509.00,1.08
8508.00,1.08
8507.00,1.08
8506.00,1.09
8505.00,1.09
8504.00,1.09
8503.00,1.09
8502.00,1.09
8501.00,1.09
8500.00,1.09
8499.00,1.09
8498.00,1.09
8497.00,1.09
8496.00,1.09
8495.00,1.09
8494.00,1.09
8493.00,1.09
8492.00,1.09
8491.00,1.09
8490.00,1.09
8489.00,1.08
8488.00,1.08
8487.00,1.08
8486.00,1.08
8485.00,1.08
8484.00,1.08
8483.00,1.07
8482.00,1.07
8481.00,1.07
8480.00,1.07
8479.00,1.07
8478.00,1.06
8477.00,1.06
8476.00,1.06
8475.00,1.06
8474.00,1.06
8473.00,1.06
8472.00,1.06
8471.00,1.06
8470.00,1.06
8469.00,1.06
8468.00,1.06
8467.00,1.06
8466.00,1.06
8465.00,1.06
8464.00,1.06
8463.00,1.06
8462.00,1.06
8461.00,1.06
8460.00,1.06
8459.00,1.06
8458.00,1.06
8457.00,1.06
8456.00,1.06
8455.00,1.06
8454.00,1.06
8453.00,1.06
8452.00,1.06
8451.00,1.06
8450.00,1.06
8449.00,1.06
8448.00,1.06
8447.00,1.06
8446.00,1.06
8445.00,1.06
8444.00,1.06
8443.00,1.06
8442.00,1.06
8441.00,1.06
8440.00,1.07
8439.00,1.07
8438.00,1.07
8437.00,1.07
8436.00,1.07
8435.00,1.07
8434.00,1.07
8433.00,1.07
8432.00,1.07
8431.00,1.07
8430.00,1.07
8429.00,1.07
8428.00,1.07
8427.00,1.07
8426.00,1.07
8425.00,1.07
8424.00,1.07
8423.00,1.07
8422.00,1.07
8421.00,1.07
8420.00,1.07
8419.00,1.06
8418.00,1.06
8417.00,1.06
8416.00,1.06
8415.00,1.06
8414.00,1.06
8413.00,1.07
8412.00,1.07
8411.00,1.07
8410.00,1.07
8409.00,1.07
8408.00,1.07
8407.00,1.07
8406.00,1.07
8405.00,1.07
8404.00,1.07
8403.00,1.07
8402.00,1.07
8401.00,1.08
8400.00,1.08
8399.00,1.08
8398.00,1.08
8397.00,1.08
8396.00,1.08
8395.00,1.08
8394.00,1.08
8393.00,1.08
8392.00,1.08
8391.00,1.08
8390.00,1.08
8389.00,1.08
8388.00,1.08
8387.00,1.08
8386.00,1.08
8385.00,1.08
8384.00,1.08
8383.00,1.08
8382.00,1.08
8381.00,1.08
8380.00,1.08
8379.00,1.09
8378.00,1.09
8377.00,1.09
8376.00,1.09
8375.00,1.09
8374.00,1.09
8373.00,1.09
8372.00,1.09
8371.00,1.09
8370.00,1.09
8369.00,1.09
8368.00,1.09
8367.00,1.09
8366.00,1.09
8365.00,1.09
8364.00,1.09
8363.00,1.09
8362.00,1.10
8361.00,1.10
8360.00,1.10
8359.00,1.10
8358.00,1.10
8357.00,1.10
8356.00,1.10
8355.00,1.10
8354.00,1.10
8353.00,1.10
8352.00,1.10
8351.00,1.10
8350.00,1.10
8349.00,1.10
8348.00,1.10
8347.00,1.10
8346.00,1.10
8345.00,1.10
8344.00,1.10
8343.00,1.10
8342.00,1.10
8341.00,1.10
8340.00,1.10
8339.00,1.10
8338.00,1.10
8337.00,1.10
8336.00,1.10
8335.00,1.11
8334.00,1.11
8333.00,1.11
8332.00,1.11
8331.00,1.11
8330.00,1.11
8329.00,1.11
8328.00,1.11
8327.00,1.11
8326.00,1.11
8325.00,1.11
8324.00,1.11
8323.00,1.11
8322.00,1.11
8321.00,1.11
8320.00,1.11
8319.00,1.11
8318.00,1.11
8317.00,1.11
8316.00,1.11
8315.00,1.11
8314.00,1.11
8313.00,1.11
8312.00,1.11
8311.00,1.11
8310.00,1.11
8309.00,1.11
8308.00,1.11
8307.00,1.11
8306.00,1.11
8305.00,1.11
8304.00,1.11
8303.00,1.11
8302.00,1.11
8301.00,1.11
8300.00,1.11
8299.00,1.11
8298.00,1.11
8297.00,1.11
8296.00,1.11
8295.00,1.11
8294.00,1.11
8293.00,1.11
8292.00,1.11
8291.00,1.11
8290.00,1.11
8289.00,1.11
8288.00,1.11
8287.00,1.11
8286.00,1.11
8285.00,1.11
8284.00,1.11
8283.00,1.11
8282.00,1.11
8281.00,1.10
8280.00,1.10
8279.00,1.10
8278.00,1.10
8277.00,1.10
8276.00,1.10
8275.00,1.10
8274.00,1.10
8273.00,1.10
8272.00,1.10
8271.00,1.10
8270.00,1.10
8269.00,1.10
8268.00,1.10
8267.00,1.10
8266.00,1.10
8265.00,1.10
8264.00,1.10
8263.00,1.10
8262.00,1.10
8261.00,1.11
8260.00,1.11
8259.00,1.11
8258.00,1.11
8257.00,1.11
8256.00,1.11
8255.00,1.11
8254.00,1.12
8253.00,1.12
8252.00,1.12
8251.00,1.12
8250.00,1.12
8249.00,1.12
8248.00,1.12
8247.00,1.12
8246.00,1.12
8245.00,1.12
8244.00,1.12
8243.00,1.13
8242.00,1.13
8241.00,1.13
8240.00,1.13
8239.00,1.13
8238.00,1.13
8237.00,1.13
8236.00,1.13
8235.00,1.13
8234.00,1.13
8233.00,1.13
8232.00,1.13
8231.00,1.13
8230.00,1.13
8229.00,1.13
8228.00,1.13
8227.00,1.13
8226.00,1.13
8225.00,1.13
8224.00,1.13
8223.00,1.13
8222.00,1.13
8221.00,1.13
8220.00,1.13
8219.00,1.13
8218.00,1.13
8217.00,1.13
8216.00,1.13
8215.00,1.13
8214.00,1.13
8213.00,1.13
8212.00,1.13
8211.00,1.13
8210.00,1.13
8209.00,1.13
8208.00,1.13
8207.00,1.13
8206.00,1.13
8205.00,1.13
8204.00,1.13
8203.00,1.13
8202.00,1.13
8201.00,1.13
8200.00,1.13
8199.00,1.13
8198.00,1.13
8197.00,1.13
8196.00,1.13
8195.00,1.13
8194.00,1.13
8193.00,1.13
8192.00,1.13
8191.00,1.13
8190.00,1.13
8189.00,1.13
8188.00,1.14
8187.00,1.14
8186.00,1.14
8185.00,1.14
8184.00,1.14
8183.00,1.14
8182.00,1.14
8181.00,1.15
8180.00,1.15
8179.00,1.15
8178.00,1.15
8177.00,1.15
8176.00,1.15
8175.00,1.15
8174.00,1.15
8173.00,1.15
8172.00,1.15
8171.00,1.16
8170.00,1.16
8169.00,1.16
8168.00,1.16
8167.00,1.16
8166.00,1.16
8165.00,1.16
8164.00,1.16
8163.00,1.16
8162.00,1.16
8161.00,1.16
8160.00,1.16
8159.00,1.16
8158.00,1.16
8157.00,1.16
8156.00,1.16
8155.00,1.16
8154.00,1.16
8153.00,1.16
8152.00,1.16
8151.00,1.16
8150.00,1.16
8149.00,1.16
8148.00,1.16
8147.00,1.16
8146.00,1.16
8145.00,1.16
8144.00,1.16
8143.00,1.16
8142.00,1.16
8141.00,1.16
8140.00,1.16
8139.00,1.16
8138.00,1.16
8137.00,1.16
8136.00,1.16
8135.00,1.16
8134.00,1.16
8133.00,1.16
8132.00,1.16
8131.00,1.16
8130.00,1.16
8129.00,1.16
8128.00,1.16
8127.00,1.16
8126.00,1.16
8125.00,1.17
8124.00,1.17
8123.00,1.17
8122.00,1.17
8121.00,1.17
8120.00,1.17
8119.00,1.17
8118.00,1.17
8117.00,1.17
8116.00,1.17
8115.00,1.17
8114.00,1.17
8113.00,1.17
8112.00,1.17
8111.00,1.17
8110.00,1.17
8109.00,1.17
8108.00,1.16
8107.00,1.16
8106.00,1.16
8105.00,1.16
8104.00,1.16
8103.00,1.16
8102.00,1.16
8101.00,1.16
8100.00,1.16
8099.00,1.16
8098.00,1.16
8097.00,1.16
8096.00,1.16
8095.00,1.16
8094.00,1.16
8093.00,1.16
8092.00,1.16
8091.00,1.16
8090.00,1.16
8089.00,1.16
8088.00,1.16
8087.00,1.16
8086.00,1.17
8085.00,1.17
8084.00,1.17
8083.00,1.17
8082.00,1.17
8081.00,1.17
8080.00,1.17
8079.00,1.17
8078.00,1.17
8077.00,1.17
8076.00,1.17
8075.00,1.17
8074.00,1.17
8073.00,1.17
8072.00,1.17
8071.00,1.17
8070.00,1.17
8069.00,1.17
8068.00,1.17
8067.00,1.17
8066.00,1.17
8065.00,1.17
8064.00,1.17
8063.00,1.17
8062.00,1.17
8061.00,1.17
8060.00,1.17
8059.00,1.17
8058.00,1.17
8057.00,1.17
8056.00,1.17
8055.00,1.17
8054.00,1.18
8053.00,1.18
8052.00,1.18
8051.00,1.18
8050.00,1.18
8049.00,1.18
8048.00,1.18
8047.00,1.18
8046.00,1.18
8045.00,1.18
8044.00,1.19
8043.00,1.19
8042.00,1.19
8041.00,1.19
8040.00,1.19
8039.00,1.19
8038.00,1.19
8037.00,1.19
8036.00,1.19
8035.00,1.19
8034.00,1.19
8033.00,1.19
8032.00,1.19
8031.00,1.19
8030.00,1.19
8029.00,1.19
8028.00,1.19
8027.00,1.19
8026.00,1.19
8025.00,1.19
8024.00,1.19
8023.00,1.19
8022.00,1.19
8021.00,1.19
8020.00,1.19
8019.00,1.19
8018.00,1.19
8017.00,1.19
8016.00,1.19
8015.00,1.19
8014.00,1.19
8013.00,1.19
8012.00,1.19
8011.00,1.19
8010.00,1.19
8009.00,1.19
8008.00,1.19
8007.00,1.19
8006.00,1.19
8005.00,1.19
8004.00,1.19
8003.00,1.19
8002.00,1.19
8001.00,1.19
8000.00,1.19
7999.00,1.19
7998.00,1.19
7997.00,1.19
7996.00,1.19
7995.00,1.19
7994.00,1.19
7993.00,1.18
7992.00,1.18
7991.00,1.18
7990.00,1.18
7989.00,1.18
7988.00,1.18
7987.00,1.18
7986.00,1.18
7985.00,1.18
7984.00,1.18
7983.00,1.18
7982.00,1.18
7981.00,1.18
7980.00,1.18
7979.00,1.18
7978.00,1.18
7977.00,1.18
7976.00,1.18
7975.00,1.18
7974.00,1.18
7973.00,1.18
7972.00,1.18
7971.00,1.18
7970.00,1.19
7969.00,1.19
7968.00,1.19
7967.00,1.19
7966.00,1.19
7965.00,1.19
7964.00,1.19
7963.00,1.19
7962.00,1.19
7961.00,1.19
7960.00,1.19
7959.00,1.19
7958.00,1.19
7957.00,1.19
7956.00,1.19
7955.00,1.19
7954.00,1.19
7953.00,1.19
7952.00,1.19
7951.00,1.19
7950.00,1.19
7949.00,1.19
7948.00,1.19
7947.00,1.19
7946.00,1.19
7945.00,1.19
7944.00,1.19
7943.00,1.19
7942.00,1.20
7941.00,1.20
7940.00,1.20
7939.00,1.20
7938.00,1.20
7937.00,1.20
7936.00,1.20
7935.00,1.20
7934.00,1.20
7933.00,1.20
7932.00,1.20
7931.00,1.20
7930.00,1.20
7929.00,1.20
7928.00,1.20
7927.00,1.20
7926.00,1.20
7925.00,1.20
7924.00,1.20
7923.00,1.20
7922.00,1.20
7921.00,1.20
7920.00,1.20
7919.00,1.20
7918.00,1.20
7917.00,1.20
7916.00,1.20
7915.00,1.20
7914.00,1.20
7913.00,1.20
7912.00,1.20
7911.00,1.20
7910.00,1.20
7909.00,1.20
7908.00,1.20
7907.00,1.20
7906.00,1.20
7905.00,1.20
7904.00,1.20
7903.00,1.20
7902.00,1.21
7901.00,1.21
7900.00,1.21
7899.00,1.21
7898.00,1.21
7897.00,1.21
7896.00,1.21
7895.00,1.21
7894.00,1.21
7893.00,1.21
7892.00,1.21
7891.00,1.21
7890.00,1.21
7889.00,1.21
7888.00,1.21
7887.00,1.21
7886.00,1.21
7885.00,1.21
7884.00,1.21
7883.00,1.21
7882.00,1.21
7881.00,1.20
7880.00,1.20
7879.00,1.20
7878.00,1.20
7877.00,1.20
7876.00,1.20
7875.00,1.20
7874.00,1.20
7873.00,1.20
7872.00,1.20
7871.00,1.20
7870.00,1.21
7869.00,1.21
7868.00,1.21
7867.00,1.21
7866.00,1.21
7865.00,1.21
7864.00,1.21
7863.00,1.21
7862.00,1.21
7861.00,1.21
7860.00,1.21
7859.00,1.21
7858.00,1.21
7857.00,1.21
7856.00,1.21
7855.00,1.21
7854.00,1.21
7853.00,1.21
7852.00,1.21
7851.00,1.21
7850.00,1.21
7849.00,1.21
7848.00,1.21
7847.00,1.21
7846.00,1.21
7845.00,1.21
7844.00,1.21
7843.00,1.21
7842.00,1.21
7841.00,1.21
7840.00,1.21
7839.00,1.21
7838.00,1.21
7837.00,1.21
7836.00,1.21
7835.00,1.21
7834.00,1.21
7833.00,1.21
7832.00,1.21
7831.00,1.21
7830.00,1.21
7829.00,1.21
7828.00,1.21
7827.00,1.21
7826.00,1.21
7825.00,1.21
7824.00,1.21
7823.00,1.21
7822.00,1.21
7821.00,1.21
7820.00,1.21
7819.00,1.21
7818.00,1.21
7817.00,1.21
7816.00,1.21
7815.00,1.21
7814.00,1.21
7813.00,1.21
7812.00,1.21
7811.00,1.21
7810.00,1.21
7809.00,1.21
7808.00,1.21
7807.00,1.21
7806.00,1.21
7805.00,1.21
7804.00,1.21
7803.00,1.21
7802.00,1.21
7801.00,1.21
7800.00,1.21
7799.00,1.21
7798.00,1.21
7797.00,1.21
7796.00,1.21
7795.00,1.21
7794.00,1.21
7793.00,1.21
7792.00,1.21
7791.00,1.21
7790.00,1.21
7789.00,1.21
7788.00,1.21
7787.00,1.21
7786.00,1.21
7785.00,1.21
7784.00,1.21
7783.00,1.21
7782.00,1.21
7781.00,1.21
7780.00,1.21
7779.00,1.21
7778.00,1.21
7777.00,1.21
7776.00,1.21
7775.00,1.21
7774.00,1.21
7773.00,1.21
7772.00,1.21
7771.00,1.21
7770.00,1.21
7769.00,1.21
7768.00,1.21
7767.00,1.21
7766.00,1.21
7765.00,1.21
7764.00,1.21
7763.00,1.21
7762.00,1.21
7761.00,1.21
7760.00,1.21
7759.00,1.21
7758.00,1.21
7757.00,1.21
7756.00,1.21
7755.00,1.21
7754.00,1.21
7753.00,1.21
7752.00,1.21
7751.00,1.21
7750.00,1.21
7749.00,1.21
7748.00,1.21
7747.00,1.21
7746.00,1.21
7745.00,1.21
7744.00,1.21
7743.00,1.21
7742.00,1.21
7741.00,1.21
7740.00,1.21
7739.00,1.21
7738.00,1.21
7737.00,1.21
7736.00,1.21
7735.00,1.21
7734.00,1.21
7733.00,1.21
7732.00,1.21
7731.00,1.21
7730.00,1.21
7729.00,1.21
7728.00,1.21
7727.00,1.21
7726.00,1.21
7725.00,1.21
7724.00,1.21
7723.00,1.21
7722.00,1.21
7721.00,1.21
7720.00,1.21
7719.00,1.21
7718.00,1.21
7717.00,1.21
7716.00,1.21
7715.00,1.21
7714.00,1.21
7713.00,1.21
7712.00,1.21
7711.00,1.21
7710.00,1.21
7709.00,1.21
7708.00,1.21
7707.00,1.21
7706.00,1.21
7705.00,1.22
7704.00,1.22
7703.00,1.22
7702.00,1.22
7701.00,1.22
7700.00,1.22
7699.00,1.22
7698.00,1.22
7697.00,1.22
7696.00,1.22
7695.00,1.22
7694.00,1.22
7693.00,1.22
7692.00,1.22
7691.00,1.22
7690.00,1.22
7689.00,1.22
7688.00,1.22
7687.00,1.22
7686.00,1.22
7685.00,1.22
7684.00,1.22
7683.00,1.22
7682.00,1.22
7681.00,1.22
7680.00,1.22
7679.00,1.22
7678.00,1.22
7677.00,1.22
7676.00,1.22
7675.00,1.22
7674.00,1.22
7673.00,1.22
7672.00,1.22
7671.00,1.22
7670.00,1.22
7669.00,1.22
7668.00,1.22
7667.00,1.22
7666.00,1.22
7665.00,1.22
7664.00,1.22
7663.00,1.22
7662.00,1.22
7661.00,1.22
7660.00,1.22
7659.00,1.22
7658.00,1.22
7657.00,1.22
7656.00,1.22
7655.00,1.22
7654.00,1.22
7653.00,1.22
7652.00,1.22
7651.00,1.22
7650.00,1.22
7649.00,1.22
7648.00,1.22
7647.00,1.22
7646.00,1.22
7645.00,1.22
7644.00,1.22
7643.00,1.22
7642.00,1.22
7641.00,1.22
7640.00,1.22
7639.00,1.22
7638.00,1.22
7637.00,1.22
7636.00,1.22
7635.00,1.22
7634.00,1.22
7633.00,1.22
7632.00,1.22
7631.00,1.22
7630.00,1.22
7629.00,1.22
7628.00,1.22
7627.00,1.22
7626.00,1.22
7625.00,1.22
7624.00,1.22
7623.00,1.22
7622.00,1.22
7621.00,1.22
7620.00,1.22
7619.00,1.22
7618.00,1.22
7617.00,1.22
7616.00,1.22
7615.00,1.22
7614.00,1.22
7613.00,1.22
7612.00,1.22
7611.00,1.22
7610.00,1.22
7609.00,1.22
7608.00,1.22
7607.00,1.22
7606.00,1.22
7605.00,1.22
7604.00,1.22
7603.00,1.22
7602.00,1.22
7601.00,1.22
7600.00,1.22
7599.00,1.22
7598.00,1.22
7597.00,1.22
7596.00,1.21
7595.00,1.21
7594.00,1.21
7593.00,1.21
7592.00,1.21
7591.00,1.21
7590.00,1.21
7589.00,1.21
7588.00,1.21
7587.00,1.21
7586.00,1.21
7585.00,1.21
7584.00,1.21
7583.00,1.21
7582.00,1.21
7581.00,1.21
7580.00,1.21
7579.00,1.21
7578.00,1.21
7577.00,1.21
7576.00,1.21
7575.00,1.21
7574.00,1.21
7573.00,1.21
7572.00,1.21
7571.00,1.21
7570.00,1.21
7569.00,1.21
7568.00,1.21
7567.00,1.22
7566.00,1.22
7565.00,1.22
7564.00,1.22
7563.00,1.22
7562.00,1.22
7561.00,1.22
7560.00,1.22
7559.00,1.22
7558.00,1.22
7557.00,1.22
7556.00,1.22
7555.00,1.21
7554.00,1.21
7553.00,1.21
7552.00,1.21
7551.00,1.21
7550.00,1.21
7549.00,1.21
7548.00,1.21
7547.00,1.21
7546.00,1.21
7545.00,1.21
7544.00,1.20
7543.00,1.20
7542.00,1.20
7541.00,1.20
7540.00,1.20
7539.00,1.20
7538.00,1.20
7537.00,1.20
7536.00,1.20
7535.00,1.20
7534.00,1.20
7533.00,1.20
7532.00,1.20
7531.00,1.20
7530.00,1.20
7529.00,1.20
7528.00,1.20
7527.00,1.20
7526.00,1.20
7525.00,1.20
7524.00,1.20
7523.00,1.20
7522.00,1.20
7521.00,1.20
7520.00,1.20
7519.00,1.20
7518.00,1.20
7517.00,1.20
7516.00,1.20
7515.00,1.20
7514.00,1.20
7513.00,1.20
7512.00,1.20
7511.00,1.20
7510.00,1.20
7509.00,1.20
7508.00,1.20
7507.00,1.20
7506.00,1.20
7505.00,1.19
7504.00,1.19
7503.00,1.19
7502.00,1.19
7501.00,1.19
7500.00,1.19
7499.00,1.19
7498.00,1.19
7497.00,1.19
7496.00,1.19
7495.00,1.19
7494.00,1.19
7493.00,1.19
7492.00,1.19
7491.00,1.19
7490.00,1.19
7489.00,1.19
7488.00,1.19
7487.00,1.19
7486.00,1.18
7485.00,1.18
7484.00,1.18
7483.00,1.18
7482.00,1.18
7481.00,1.18
7480.00,1.18
7479.00,1.18
7478.00,1.18
7477.00,1.18
7476.00,1.18
7475.00,1.18
7474.00,1.18
7473.00,1.18
7472.00,1.18
7471.00,1.18
7470.00,1.18
7469.00,1.18
7468.00,1.18
7467.00,1.18
7466.00,1.18
7465.00,1.17
7464.00,1.17
7463.00,1.17
7462.00,1.17
7461.00,1.17
7460.00,1.17
7459.00,1.17
7458.00,1.17
7457.00,1.17
7456.00,1.17
7455.00,1.17
7454.00,1.17
7453.00,1.17
7452.00,1.17
7451.00,1.17
7450.00,1.17
7449.00,1.17
7448.00,1.17
7447.00,1.17
7446.00,1.17
7445.00,1.17
7444.00,1.17
7443.00,1.17
7442.00,1.17
7441.00,1.17
7440.00,1.17
7439.00,1.17
7438.00,1.17
7437.00,1.16
7436.00,1.16
7435.00,1.16
7434.00,1.16
7433.00,1.16
7432.00,1.16
7431.00,1.16
7430.00,1.16
7429.00,1.16
7428.00,1.16
7427.00,1.15
7426.00,1.15
7425.00,1.15
7424.00,1.15
7423.00,1.15
7422.00,1.15
7421.00,1.15
7420.00,1.14
7419.00,1.14
7418.00,1.14
7417.00,1.14
7416.00,1.14
7415.00,1.14
7414.00,1.14
7413.00,1.14
7412.00,1.13
7411.00,1.13
7410.00,1.13
7409.00,1.13
7408.00,1.13
7407.00,1.13
7406.00,1.13
7405.00,1.13
7404.00,1.13
7403.00,1.13
7402.00,1.13
7401.00,1.13
7400.00,1.13
7399.00,1.13
7398.00,1.13
7397.00,1.13
7396.00,1.13
7395.00,1.13
7394.00,1.13
7393.00,1.13
7392.00,1.12
7391.00,1.12
7390.00,1.12
7389.00,1.12
7388.00,1.12
7387.00,1.12
7386.00,1.12
7385.00,1.12
7384.00,1.12
7383.00,1.12
7382.00,1.12
7381.00,1.12
7380.00,1.12
7379.00,1.11
7378.00,1.11
7377.00,1.11
7376.00,1.11
7375.00,1.11
7374.00,1.11
7373.00,1.11
7372.00,1.11
7371.00,1.11
7370.00,1.11
7369.00,1.11
7368.00,1.11
7367.00,1.11
7366.00,1.11
7365.00,1.11
7364.00,1.11
7363.00,1.11
7362.00,1.11
7361.00,1.11
7360.00,1.11
7359.00,1.11
7358.00,1.11
7357.00,1.11
7356.00,1.11
7355.00,1.11
7354.00,1.11
7353.00,1.11
7352.00,1.11
7351.00,1.10
7350.00,1.10
7349.00,1.10
7348.00,1.10
7347.00,1.10
7346.00,1.10
7345.00,1.10
7344.00,1.10
7343.00,1.10
7342.00,1.10
7341.00,1.10
7340.00,1.10
7339.00,1.09
7338.00,1.09
7337.00,1.09
7336.00,1.09
7335.00,1.09
7334.00,1.09
7333.00,1.09
7332.00,1.09
7331.00,1.09
7330.00,1.09
7329.00,1.09
7328.00,1.09
7327.00,1.09
7326.00,1.09
7325.00,1.09
7324.00,1.09
7323.00,1.09
7322.00,1.09
7321.00,1.09
7320.00,1.09
7319.00,1.09
7318.00,1.09
7317.00,1.09
7316.00,1.09
7315.00,1.09
7314.00,1.09
7313.00,1.09
7312.00,1.08
7311.00,1.08
7310.00,1.08
7309.00,1.08
7308.00,1.08
7307.00,1.08
7306.00,1.07
7305.00,1.07
7304.00,1.07
7303.00,1.07
7302.00,1.07
7301.00,1.07
7300.00,1.07
7299.00,1.06
7298.00,1.06
7297.00,1.06
7296.00,1.06
7295.00,1.06
7294.00,1.06
7293.00,1.06
7292.00,1.06
7291.00,1.06
7290.00,1.06
7289.00,1.06
7288.00,1.06
7287.00,1.06
7286.00,1.06
7285.00,1.06
7284.00,1.06
7283.00,1.06
7282.00,1.06
7281.00,1.06
7280.00,1.06
7279.00,1.06
7278.00,1.06
7277.00,1.06
7276.00,1.06
7275.00,1.05
7274.00,1.05
7273.00,1.05
7272.00,1.05
7271.00,1.05
7270.00,1.05
7269.00,1.05
7268.00,1.05
7267.00,1.04
7266.00,1.04
7265.00,1.04
7264.00,1.04
7263.00,1.04
7262.00,1.04
7261.00,1.04
7260.00,1.03
7259.00,1.03
7258.00,1.03
7257.00,1.03
7256.00,1.03
7255.00,1.02
7254.00,1.02
7253.00,1.02
7252.00,1.02
7251.00,1.02
7250.00,1.01
7249.00,1.01
7248.00,1.01
7247.00,1.01
7246.00,1.00
7245.00,1.00
7244.00,1.00
7243.00,1.00
7242.00,0.99
7241.00,0.99
7240.00,0.99
7239.00,0.99
7238.00,0.98
7237.00,0.98
7236.00,0.98
7235.00,0.98
7234.00,0.97
7233.00,0.97
7232.00,0.97
7231.00,0.97
7230.00,0.96
7229.00,0.96
7228.00,0.96
7227.00,0.95
7226.00,0.95
7225.00,0.95
7224.00,0.94
7223.00,0.94
7222.00,0.94
7221.00,0.93
7220.00,0.93
7219.00,0.93
7218.00,0.92
7217.00,0.92
7216.00,0.92
7215.00,0.92
7214.00,0.91
7213.00,0.91
7212.00,0.91
7211.00,0.91
7210.00,0.90
7209.00,0.90
7208.00,0.90
7207.00,0.89
7206.00,0.89
7205.00,0.89
7204.00,0.88
7203.00,0.88
7202.00,0.88
7201.00,0.87
7200.00,0.87
7199.00,0.87
7198.00,0.86
7197.00,0.86
7196.00,0.85
7195.00,0.85
7194.00,0.85
7193.00,0.84
7192.00,0.84
7191.00,0.84
7190.00,0.83
7189.00,0.83
7188.00,0.83
7187.00,0.83
7186.00,0.82
7185.00,0.82
7184.00,0.82
7183.00,0.81
7182.00,0.81
7181.00,0.81
7180.00,0.81
7179.00,0.80
7178.00,0.80
7177.00,0.80
7176.00,0.80
7175.00,0.80
7174.00,0.79
7173.00,0.79
7172.00,0.79
7171.00,0.79
7170.00,0.78
7169.00,0.78
7168.00,0.78
7167.00,0.78
7166.00,0.78
7165.00,0.77
7164.00,0.77
7163.00,0.77
7162.00,0.77
7161.00,0.76
7160.00,0.76
7159.00,0.76
7158.00,0.76
7157.00,0.75
7156.00,0.75
7155.00,0.75
7154.00,0.74
7153.00,0.74
7152.00,0.74
7151.00,0.74
7150.00,0.73
7149.00,0.73
7148.00,0.73
7147.00,0.73
7146.00,0.72
7145.00,0.72
7144.00,0.72
7143.00,0.72
7142.00,0.71
7141.00,0.71
7140.00,0.71
7139.00,0.71
7138.00,0.71
7137.00,0.70
7136.00,0.70
7135.00,0.70
7134.00,0.70
7133.00,0.70
7132.00,0.70
7131.00,0.70
7130.00,0.70
7129.00,0.69
7128.00,0.69
7127.00,0.69
7126.00,0.69
7125.00,0.69
7124.00,0.69
7123.00,0.69
7122.00,0.69
7121.00,0.68
7120.00,0.68
7119.00,0.68
7118.00,0.68
7117.00,0.68
7116.00,0.68
7115.00,0.68
7114.00,0.67
7113.00,0.67
7112.00,0.67
7111.00,0.67
7110.00,0.67
7109.00,0.66
7108.00,0.66
7107.00,0.66
7106.00,0.66
7105.00,0.66
7104.00,0.66
7103.00,0.65
7102.00,0.65
7101.00,0.65
7100.00,0.65
7099.00,0.65
7098.00,0.64
7097.00,0.64
7096.00,0.64
7095.00,0.64
7094.00,0.64
7093.00,0.63
7092.00,0.63
7091.00,0.63
7090.00,0.63
7089.00,0.63
7088.00,0.63
7087.00,0.63
7086.00,0.63
7085.00,0.62
7084.00,0.62
7083.00,0.62
7082.00,0.62
7081.00,0.62
7080.00,0.62
7079.00,0.62
7078.00,0.62
7077.00,0.62
7076.00,0.61
7075.00,0.61
7074.00,0.61
7073.00,0.61
7072.00,0.61
7071.00,0.61
7070.00,0.61
7069.00,0.61
7068.00,0.61
7067.00,0.61
7066.00,0.60
7065.00,0.60
7064.00,0.60
7063.00,0.60
7062.00,0.60
7061.00,0.60
7060.00,0.60
7059.00,0.60
7058.00,0.60
7057.00,0.60
7056.00,0.60
7055.00,0.60
7054.00,0.60
7053.00,0.60
7052.00,0.60
7051.00,0.60
7050.00,0.60
7049.00,0.60
7048.00,0.60
7047.00,0.60
7046.00,0.60
7045.00,0.60
7044.00,0.59
7043.00,0.59
7042.00,0.59
7041.00,0.59
7040.00,0.59
7039.00,0.59
7038.00,0.59
7037.00,0.59
7036.00,0.59
7035.00,0.59
7034.00,0.59
7033.00,0.59
7032.00,0.59
7031.00,0.59
7030.00,0.59
7029.00,0.59
7028.00,0.59
7027.00,0.59
7026.00,0.59
7025.00,0.59
7024.00,0.59
7023.00,0.59
7022.00,0.59
7021.00,0.59
7020.00,0.58
7019.00,0.58
7018.00,0.58
7017.00,0.58
7016.00,0.58
7015.00,0.58
7014.00,0.58
7013.00,0.58
7012.00,0.58
7011.00,0.58
7010.00,0.58
7009.00,0.58
7008.00,0.58
7007.00,0.58
7006.00,0.58
7005.00,0.58
7004.00,0.57
7003.00,0.57
7002.00,0.57
7001.00,0.57
7000.00,0.57
6999.00,0.57
6998.00,0.57
6997.00,0.57
6996.00,0.57
6995.00,0.57
6994.00,0.57
6993.00,0.57
6992.00,0.57
6991.00,0.57
6990.00,0.57
6989.00,0.57
6988.00,0.57
6987.00,0.57
6986.00,0.57
6985.00,0.57
6984.00,0.57
6983.00,0.57
6982.00,0.57
6981.00,0.57
6980.00,0.57
6979.00,0.57
6978.00,0.57
6977.00,0.57
6976.00,0.57
6975.00,0.57
6974.00,0.57
6973.00,0.57
6972.00,0.57
6971.00,0.57
6970.00,0.57
6969.00,0.57
6968.00,0.57
6967.00,0.57
6966.00,0.57
6965.00,0.57
6964.00,0.57
6963.00,0.57
6962.00,0.57
6961.00,0.57
6960.00,0.57
6959.00,0.57
6958.00,0.57
6957.00,0.57
6956.00,0.57
6955.00,0.57
6954.00,0.57
6953.00,0.57
6952.00,0.57
6951.00,0.57
6950.00,0.57
6949.00,0.57
6948.00,0.56
6947.00,0.56
6946.00,0.56
6945.00,0.56
6944.00,0.56
6943.00,0.56
6942.00,0.56
6941.00,0.56
6940.00,0.56
6939.00,0.56
6938.00,0.56
6937.00,0.56
6936.00,0.56
6935.00,0.56
6934.00,0.56
6933.00,0.56
6932.00,0.56
6931.00,0.56
6930.00,0.56
6929.00,0.56
6928.00,0.56
6927.00,0.56
6926.00,0.56
6925.00,0.56
6924.00,0.56
6923.00,0.56
6922.00,0.56
6921.00,0.56
6920.00,0.56
6919.00,0.56
6918.00,0.56
6917.00,0.56
6916.00,0.56
6915.00,0.56
6914.00,0.56
6913.00,0.56
6912.00,0.56
6911.00,0.56
6910.00,0.56
6909.00,0.56
6908.00,0.56
6907.00,0.56
6906.00,0.56
6905.00,0.56
6904.00,0.56
6903.00,0.56
6902.00,0.56
6901.00,0.56
6900.00,0.56
6899.00,0.56
6898.00,0.56
6897.00,0.56
6896.00,0.56
6895.00,0.56
6894.00,0.56
6893.00,0.56
6892.00,0.56
6891.00,0.56
6890.00,0.56
6889.00,0.56
6888.00,0.56
6887.00,0.56
6886.00,0.56
6885.00,0.56
6884.00,0.56
6883.00,0.56
6882.00,0.56
6881.00,0.56
6880.00,0.56
6879.00,0.56
6878.00,0.56
6877.00,0.56
6876.00,0.56
6875.00,0.56
6874.00,0.56
6873.00,0.56
6872.00,0.56
6871.00,0.56
6870.00,0.56
6869.00,0.56
6868.00,0.56
6867.00,0.56
6866.00,0.56
6865.00,0.57
6864.00,0.57
6863.00,0.57
6862.00,0.57
6861.00,0.57
6860.00,0.57
6859.00,0.57
6858.00,0.57
6857.00,0.57
6856.00,0.57
6855.00,0.57
6854.00,0.57
6853.00,0.57
6852.00,0.57
6851.00,0.57
6850.00,0.57
6849.00,0.57
6848.00,0.57
6847.00,0.57
6846.00,0.57
6845.00,0.57
6844.00,0.56
6843.00,0.56
6842.00,0.56
6841.00,0.56
6840.00,0.56
6839.00,0.56
6838.00,0.57
6837.00,0.57
6836.00,0.57
6835.00,0.57
6834.00,0.57
6833.00,0.57
6832.00,0.57
6831.00,0.57
6830.00,0.57
6829.00,0.57
6828.00,0.57
6827.00,0.57
6826.00,0.57
6825.00,0.57
6824.00,0.57
6823.00,0.57
6822.00,0.57
6821.00,0.57
6820.00,0.57
6819.00,0.57
6818.00,0.57
6817.00,0.57
6816.00,0.57
6815.00,0.57
6814.00,0.57
6813.00,0.57
6812.00,0.57
6811.00,0.57
6810.00,0.57
6809.00,0.57
6808.00,0.57
6807.00,0.57
6806.00,0.57
6805.00,0.57
6804.00,0.58
6803.00,0.58
6802.00,0.58
6801.00,0.58
6800.00,0.58
6799.00,0.58
6798.00,0.58
6797.00,0.58
6796.00,0.58
6795.00,0.58
6794.00,0.58
6793.00,0.58
6792.00,0.58
6791.00,0.58
6790.00,0.58
6789.00,0.58
6788.00,0.58
6787.00,0.58
6786.00,0.58
6785.00,0.58
6784.00,0.58
6783.00,0.58
6782.00,0.58
6781.00,0.58
6780.00,0.58
6779.00,0.58
6778.00,0.58
6777.00,0.58
6776.00,0.58
6775.00,0.58
6774.00,0.58
6773.00,0.58
6772.00,0.58
6771.00,0.58
6770.00,0.58
6769.00,0.58
6768.00,0.58
6767.00,0.58
6766.00,0.58
6765.00,0.58
6764.00,0.58
6763.00,0.59
6762.00,0.59
6761.00,0.59
6760.00,0.59
6759.00,0.59
6758.00,0.59
6757.00,0.59
6756.00,0.59
6755.00,0.59
6754.00,0.59
6753.00,0.59
6752.00,0.59
6751.00,0.59
6750.00,0.59
6749.00,0.59
6748.00,0.59
6747.00,0.59
6746.00,0.59
6745.00,0.59
6744.00,0.59
6743.00,0.60
6742.00,0.60
6741.00,0.60
6740.00,0.60
6739.00,0.60
6738.00,0.60
6737.00,0.60
6736.00,0.60
6735.00,0.60
6734.00,0.60
6733.00,0.60
6732.00,0.61
6731.00,0.61
6730.00,0.61
6729.00,0.61
6728.00,0.61
6727.00,0.61
6726.00,0.61
6725.00,0.61
6724.00,0.61
6723.00,0.61
6722.00,0.61
6721.00,0.61
6720.00,0.61
6719.00,0.61
6718.00,0.61
6717.00,0.61
6716.00,0.61
6715.00,0.61
6714.00,0.61
6713.00,0.61
6712.00,0.61
6711.00,0.61
6710.00,0.61
6709.00,0.61
6708.00,0.61
6707.00,0.61
6706.00,0.61
6705.00,0.61
6704.00,0.61
6703.00,0.61
6702.00,0.61
6701.00,0.61
6700.00,0.61
6699.00,0.61
6698.00,0.61
6697.00,0.61
6696.00,0.61
6695.00,0.61
6694.00,0.61
6693.00,0.62
6692.00,0.62
6691.00,0.62
6690.00,0.62
6689.00,0.62
6688.00,0.62
6687.00,0.62
6686.00,0.62
6685.00,0.62
6684.00,0.62
6683.00,0.62
6682.00,0.62
6681.00,0.62
6680.00,0.62
6679.00,0.63
6678.00,0.63
6677.00,0.63
6676.00,0.63
6675.00,0.63
6674.00,0.63
6673.00,0.63
6672.00,0.63
6671.00,0.63
6670.00,0.63
6669.00,0.63
6668.00,0.63
6667.00,0.63
6666.00,0.63
6665.00,0.63
6664.00,0.64
6663.00,0.64
6662.00,0.64
6661.00,0.64
6660.00,0.64
6659.00,0.64
6658.00,0.64
6657.00,0.64
6656.00,0.64
6655.00,0.64
6654.00,0.64
6653.00,0.64
6652.00,0.64
6651.00,0.64
6650.00,0.65
6649.00,0.65
6648.00,0.65
6647.00,0.65
6646.00,0.65
6645.00,0.65
6644.00,0.65
6643.00,0.65
6642.00,0.66
6641.00,0.66
6640.00,0.66
6639.00,0.66
6638.00,0.66
6637.00,0.66
6636.00,0.66
6635.00,0.66
6634.00,0.66
6633.00,0.66
6632.00,0.66
6631.00,0.66
6630.00,0.66
6629.00,0.66
6628.00,0.66
6627.00,0.66
6626.00,0.66
6625.00,0.67
6624.00,0.67
6623.00,0.67
6622.00,0.67
6621.00,0.67
6620.00,0.67
6619.00,0.67
6618.00,0.67
6617.00,0.67
6616.00,0.67
6615.00,0.67
6614.00,0.67
6613.00,0.67
6612.00,0.67
6611.00,0.67
6610.00,0.67
6609.00,0.68
6608.00,0.68
6607.00,0.68
6606.00,0.68
6605.00,0.68
6604.00,0.68
6603.00,0.68
6602.00,0.68
6601.00,0.68
6600.00,0.68
6599.00,0.68
6598.00,0.68
6597.00,0.68
6596.00,0.68
6595.00,0.68
6594.00,0.68
6593.00,0.68
6592.00,0.68
6591.00,0.69
6590.00,0.69
6589.00,0.69
6588.00,0.69
6587.00,0.69
6586.00,0.69
6585.00,0.69
6584.00,0.69
6583.00,0.69
6582.00,0.69
6581.00,0.69
6580.00,0.69
6579.00,0.69
6578.00,0.69
6577.00,0.69
6576.00,0.69
6575.00,0.69
6574.00,0.69
6573.00,0.70
6572.00,0.70
6571.00,0.70
6570.00,0.70
6569.00,0.70
6568.00,0.70
6567.00,0.70
6566.00,0.70
6565.00,0.70
6564.00,0.70
6563.00,0.71
6562.00,0.71
6561.00,0.71
6560.00,0.71
6559.00,0.71
6558.00,0.71
6557.00,0.71
6556.00,0.71
6555.00,0.71
6554.00,0.71
6553.00,0.71
6552.00,0.72
6551.00,0.72
6550.00,0.72
6549.00,0.72
6548.00,0.72
6547.00,0.72
6546.00,0.72
6545.00,0.72
6544.00,0.72
6543.00,0.72
6542.00,0.72
6541.00,0.72
6540.00,0.72
6539.00,0.72
6538.00,0.73
6537.00,0.73
6536.00,0.73
6535.00,0.73
6534.00,0.73
6533.00,0.73
6532.00,0.73
6531.00,0.73
6530.00,0.73
6529.00,0.73
6528.00,0.73
6527.00,0.73
6526.00,0.73
6525.00,0.73
6524.00,0.74
6523.00,0.74
6522.00,0.74
6521.00,0.74
6520.00,0.74
6519.00,0.74
6518.00,0.74
6517.00,0.74
6516.00,0.74
6515.00,0.74
6514.00,0.74
6513.00,0.74
6512.00,0.74
6511.00,0.75
6510.00,0.75
6509.00,0.75
6508.00,0.75
6507.00,0.75
6506.00,0.75
6505.00,0.75
6504.00,0.75
6503.00,0.75
6502.00,0.75
6501.00,0.75
6500.00,0.75
6499.00,0.75
6498.00,0.75
6497.00,0.75
6496.00,0.75
6495.00,0.75
6494.00,0.75
6493.00,0.75
6492.00,0.75
6491.00,0.75
6490.00,0.75
6489.00,0.75
6488.00,0.75
6487.00,0.75
6486.00,0.75
6485.00,0.75
6484.00,0.76
6483.00,0.76
6482.00,0.76
6481.00,0.76
6480.00,0.76
6479.00,0.76
6478.00,0.76
6477.00,0.76
6476.00,0.76
6475.00,0.76
6474.00,0.76
6473.00,0.76
6472.00,0.76
6471.00,0.76
6470.00,0.76
6469.00,0.77
6468.00,0.77
6467.00,0.77
6466.00,0.77
6465.00,0.77
6464.00,0.77
6463.00,0.77
6462.00,0.77
6461.00,0.77
6460.00,0.77
6459.00,0.77
6458.00,0.77
6457.00,0.77
6456.00,0.77
6455.00,0.77
6454.00,0.77
6453.00,0.77
6452.00,0.77
6451.00,0.77
6450.00,0.77
6449.00,0.77
6448.00,0.77
6447.00,0.77
6446.00,0.77
6445.00,0.77
6444.00,0.78
6443.00,0.78
6442.00,0.78
6441.00,0.78
6440.00,0.78
6439.00,0.78
6438.00,0.78
6437.00,0.78
6436.00,0.78
6435.00,0.78
6434.00,0.78
6433.00,0.79
6432.00,0.79
6431.00,0.79
6430.00,0.79
6429.00,0.79
6428.00,0.79
6427.00,0.79
6426.00,0.79
6425.00,0.79
6424.00,0.79
6423.00,0.79
6422.00,0.79
6421.00,0.79
6420.00,0.79
6419.00,0.79
6418.00,0.79
6417.00,0.79
6416.00,0.79
6415.00,0.79
6414.00,0.79
6413.00,0.79
6412.00,0.79
6411.00,0.80
6410.00,0.80
6409.00,0.80
6408.00,0.80
6407.00,0.80
6406.00,0.80
6405.00,0.80
6404.00,0.80
6403.00,0.80
6402.00,0.80
6401.00,0.80
6400.00,0.81
6399.00,0.81
6398.00,0.81
6397.00,0.81
6396.00,0.81
6395.00,0.81
6394.00,0.81
6393.00,0.81
6392.00,0.81
6391.00,0.81
6390.00,0.82
6389.00,0.82
6388.00,0.82
6387.00,0.82
6386.00,0.82
6385.00,0.82
6384.00,0.82
6383.00,0.82
6382.00,0.82
6381.00,0.82
6380.00,0.82
6379.00,0.82
6378.00,0.83
6377.00,0.83
6376.00,0.83
6375.00,0.83
6374.00,0.83
6373.00,0.83
6372.00,0.83
6371.00,0.83
6370.00,0.83
6369.00,0.83
6368.00,0.83
6367.00,0.83
6366.00,0.83
6365.00,0.83
6364.00,0.83
6363.00,0.83
6362.00,0.83
6361.00,0.84
6360.00,0.84
6359.00,0.84
6358.00,0.84
6357.00,0.84
6356.00,0.84
6355.00,0.84
6354.00,0.84
6353.00,0.84
6352.00,0.84
6351.00,0.84
6350.00,0.85
6349.00,0.85
6348.00,0.85
6347.00,0.85
6346.00,0.85
6345.00,0.85
6344.00,0.85
6343.00,0.85
6342.00,0.85
6341.00,0.85
6340.00,0.85
6339.00,0.85
6338.00,0.85
6337.00,0.85
6336.00,0.85
6335.00,0.86
6334.00,0.86
6333.00,0.86
6332.00,0.86
6331.00,0.86
6330.00,0.86
6329.00,0.86
6328.00,0.86
6327.00,0.86
6326.00,0.86
6325.00,0.86
6324.00,0.86
6323.00,0.86
6322.00,0.87
6321.00,0.87
6320.00,0.87
6319.00,0.87
6318.00,0.87
6317.00,0.87
6316.00,0.87
6315.00,0.87
6314.00,0.87
6313.00,0.87
6312.00,0.88
6311.00,0.88
6310.00,0.88
6309.00,0.88
6308.00,0.88
6307.00,0.88
6306.00,0.88
6305.00,0.88
6304.00,0.89
6303.00,0.89
6302.00,0.89
6301.00,0.89
6300.00,0.89
6299.00,0.89
6298.00,0.89
6297.00,0.89
6296.00,0.89
6295.00,0.89
6294.00,0.89
6293.00,0.90
6292.00,0.90
6291.00,0.90
6290.00,0.90
6289.00,0.90
6288.00,0.90
6287.00,0.90
6286.00,0.90
6285.00,0.90
6284.00,0.90
6283.00,0.90
6282.00,0.90
6281.00,0.90
6280.00,0.91
6279.00,0.91
6278.00,0.91
6277.00,0.91
6276.00,0.91
6275.00,0.91
6274.00,0.91
6273.00,0.91
6272.00,0.91
6271.00,0.91
6270.00,0.92
6269.00,0.92
6268.00,0.92
6267.00,0.92
6266.00,0.92
6265.00,0.92
6264.00,0.92
6263.00,0.92
6262.00,0.92
6261.00,0.92
6260.00,0.93
6259.00,0.93
6258.00,0.93
6257.00,0.93
6256.00,0.93
6255.00,0.93
6254.00,0.93
6253.00,0.93
6252.00,0.94
6251.00,0.94
6250.00,0.94
6249.00,0.94
6248.00,0.94
6247.00,0.94
6246.00,0.94
6245.00,0.94
6244.00,0.94
6243.00,0.94
6242.00,0.94
6241.00,0.95
6240.00,0.95
6239.00,0.95
6238.00,0.95
6237.00,0.95
6236.00,0.95
6235.00,0.95
6234.00,0.95
6233.00,0.95
6232.00,0.95
6231.00,0.96
6230.00,0.96
6229.00,0.96
6228.00,0.96
6227.00,0.96
6226.00,0.96
6225.00,0.96
6224.00,0.96
6223.00,0.96
6222.00,0.96
6221.00,0.96
6220.00,0.97
6219.00,0.97
6218.00,0.97
6217.00,0.97
6216.00,0.97
6215.00,0.97
6214.00,0.97
6213.00,0.97
6212.00,0.97
6211.00,0.97
6210.00,0.98
6209.00,0.98
6208.00,0.98
6207.00,0.98
6206.00,0.98
6205.00,0.98
6204.00,0.98
6203.00,0.98
6202.00,0.98
6201.00,0.98
6200.00,0.99
6199.00,0.99
6198.00,0.99
6197.00,0.99
6196.00,0.99
6195.00,0.99
6194.00,0.99
6193.00,0.99
6192.00,0.99
6191.00,1.00
6190.00,1.00
6189.00,1.00
6188.00,1.00
6187.00,1.00
6186.00,1.00
6185.00,1.00
6184.00,1.00
6183.00,1.00
6182.00,1.01
6181.00,1.01
6180.00,1.01
6179.00,1.01
6178.00,1.01
6177.00,1.01
6176.00,1.01
6175.00,1.01
6174.00,1.01
6173.00,1.01
6172.00,1.02
6171.00,1.02
6170.00,1.02
6169.00,1.02
6168.00,1.02
6167.00,1.02
6166.00,1.02
6165.00,1.02
6164.00,1.03
6163.00,1.03
6162.00,1.03
6161.00,1.03
6160.00,1.03
6159.00,1.03
6158.00,1.03
6157.00,1.03
6156.00,1.03
6155.00,1.04
6154.00,1.04
6153.00,1.04
6152.00,1.04
6151.00,1.04
6150.00,1.04
6149.00,1.04
6148.00,1.04
6147.00,1.04
6146.00,1.05
6145.00,1.05
6144.00,1.05
6143.00,1.05
6142.00,1.05
6141.00,1.05
6140.00,1.05
6139.00,1.06
6138.00,1.06
6137.00,1.06
6136.00,1.06
6135.00,1.06
6134.00,1.06
6133.00,1.06
6132.00,1.06
6131.00,1.06
6130.00,1.07
6129.00,1.07
6128.00,1.07
6127.00,1.07
6126.00,1.07
6125.00,1.07
6124.00,1.07
6123.00,1.07
6122.00,1.08
6121.00,1.08
6120.00,1.08
6119.00,1.08
6118.00,1.08
6117.00,1.08
6116.00,1.08
6115.00,1.08
6114.00,1.08
6113.00,1.09
6112.00,1.09
6111.00,1.09
6110.00,1.09
6109.00,1.09
6108.00,1.09
6107.00,1.09
6106.00,1.09
6105.00,1.09
6104.00,1.09
6103.00,1.09
6102.00,1.09
6101.00,1.09
6100.00,1.09
6099.00,1.10
6098.00,1.10
6097.00,1.10
6096.00,1.10
6095.00,1.10
6094.00,1.10
6093.00,1.10
6092.00,1.10
6091.00,1.10
6090.00,1.11
6089.00,1.11
6088.00,1.11
6087.00,1.11
6086.00,1.11
6085.00,1.11
6084.00,1.11
6083.00,1.12
6082.00,1.12
6081.00,1.12
6080.00,1.12
6079.00,1.12
6078.00,1.12
6077.00,1.12
6076.00,1.12
6075.00,1.13
6074.00,1.13
6073.00,1.13
6072.00,1.13
6071.00,1.13
6070.00,1.13
6069.00,1.13
6068.00,1.13
6067.00,1.13
6066.00,1.13
6065.00,1.14
6064.00,1.14
6063.00,1.14
6062.00,1.14
6061.00,1.14
6060.00,1.14
6059.00,1.14
6058.00,1.14
6057.00,1.14
6056.00,1.14
6055.00,1.14
6054.00,1.14
6053.00,1.15
6052.00,1.15
6051.00,1.15
6050.00,1.15
6049.00,1.15
6048.00,1.15
6047.00,1.15
6046.00,1.15
6045.00,1.15
6044.00,1.15
6043.00,1.15
6042.00,1.15
6041.00,1.15
6040.00,1.15
6039.00,1.15
6038.00,1.15
6037.00,1.15
6036.00,1.15
6035.00,1.15
6034.00,1.15
6033.00,1.15
6032.00,1.16
6031.00,1.16
6030.00,1.16
6029.00,1.16
6028.00,1.16
6027.00,1.16
6026.00,1.16
6025.00,1.16
6024.00,1.16
6023.00,1.16
6022.00,1.16
6021.00,1.16
6020.00,1.16
6019.00,1.16
6018.00,1.16
6017.00,1.16
6016.00,1.16
6015.00,1.16
6014.00,1.16
6013.00,1.16
6012.00,1.16
6011.00,1.17
6010.00,1.17
6009.00,1.17
6008.00,1.17
6007.00,1.17
6006.00,1.17
6005.00,1.17
6004.00,1.17
6003.00,1.17
6002.00,1.17
6001.00,1.17
6000.00,1.16
5999.00,1.16
5998.00,1.16
5997.00,1.16
5996.00,1.16
5995.00,1.16
5994.00,1.16
5993.00,1.16
5992.00,1.16
5991.00,1.15
5990.00,1.15
5989.00,1.15
5988.00,1.15
5987.00,1.15
5986.00,1.15
5985.00,1.15
5984.00,1.14
5983.00,1.14
5982.00,1.14
5981.00,1.14
5980.00,1.13
5979.00,1.13
5978.00,1.13
5977.00,1.13
5976.00,1.12
5975.00,1.12
5974.00,1.12
5973.00,1.11
5972.00,1.11
5971.00,1.11
5970.00,1.10
5969.00,1.10
5968.00,1.09
5967.00,1.09
5966.00,1.08
5965.00,1.08
5964.00,1.08
5963.00,1.07
5962.00,1.07
5961.00,1.06
5960.00,1.06
5959.00,1.05
5958.00,1.05
5957.00,1.04
5956.00,1.04
5955.00,1.03
5954.00,1.03
5953.00,1.03
5952.00,1.02
5951.00,1.02
5950.00,1.01
5949.00,1.01
5948.00,1.01
5947.00,1.01
5946.00,1.00
5945.00,1.00
5944.00,1.00
5943.00,1.00
5942.00,1.00
5941.00,1.00
5940.00,1.00
5939.00,1.00
5938.00,1.00
5937.00,1.00
5936.00,1.00
5935.00,1.00
5934.00,1.00
5933.00,1.00
5932.00,1.00
5931.00,1.00
5930.00,1.00
5929.00,1.00
5928.00,0.99
5927.00,0.99
5926.00,0.99
5925.00,0.99
5924.00,0.99
5923.00,0.99
5922.00,0.99
5921.00,0.98
5920.00,0.98
5919.00,0.98
5918.00,0.98
5917.00,0.97
5916.00,0.97
5915.00,0.97
5914.00,0.97
5913.00,0.97
5912.00,0.96
5911.00,0.96
5910.00,0.96
5909.00,0.96
5908.00,0.96
5907.00,0.96
5906.00,0.96
5905.00,0.96
5904.00,0.96
5903.00,0.96
5902.00,0.96
5901.00,0.96
5900.00,0.96
5899.00,0.96
5898.00,0.96
5897.00,0.96
5896.00,0.96
5895.00,0.96
5894.00,0.97
5893.00,0.97
5892.00,0.97
5891.00,0.97
5890.00,0.97
5889.00,0.98
5888.00,0.98
5887.00,0.98
5886.00,0.98
5885.00,0.98
5884.00,0.99
5883.00,0.99
5882.00,0.99
5881.00,0.99
5880.00,0.99
5879.00,1.00
5878.00,1.00
5877.00,1.00
5876.00,1.00
5875.00,1.00
5874.00,1.00
5873.00,1.01
5872.00,1.01
5871.00,1.01
5870.00,1.01
5869.00,1.01
5868.00,1.02
5867.00,1.02
5866.00,1.02
5865.00,1.02
5864.00,1.02
5863.00,1.02
5862.00,1.02
5861.00,1.03
5860.00,1.03
5859.00,1.03
5858.00,1.03
5857.00,1.03
5856.00,1.03
5855.00,1.03
5854.00,1.03
5853.00,1.03
5852.00,1.03
5851.00,1.03
5850.00,1.03
5849.00,1.03
5848.00,1.03
5847.00,1.03
5846.00,1.03
5845.00,1.03
5844.00,1.03
5843.00,1.03
5842.00,1.03
5841.00,1.03
5840.00,1.03
5839.00,1.03
5838.00,1.03
5837.00,1.03
5836.00,1.03
5835.00,1.03
5834.00,1.03
5833.00,1.03
5832.00,1.03
5831.00,1.03
5830.00,1.03
5829.00,1.03
5828.00,1.03
5827.00,1.03
5826.00,1.03
5825.00,1.03
5824.00,1.03
5823.00,1.03
5822.00,1.03
5821.00,1.03
5820.00,1.03
5819.00,1.03
5818.00,1.03
5817.00,1.03
5816.00,1.03
5815.00,1.03
5814.00,1.03
5813.00,1.03
5812.00,1.03
5811.00,1.03
5810.00,1.03
5809.00,1.03
5808.00,1.03
5807.00,1.03
5806.00,1.03
5805.00,1.03
5804.00,1.03
5803.00,1.03
5802.00,1.03
5801.00,1.03
5800.00,1.03
5799.00,1.03
5798.00,1.02
5797.00,1.02
5796.00,1.02
5795.00,1.02
5794.00,1.02
5793.00,1.02
5792.00,1.01
5791.00,1.01
5790.00,1.01
5789.00,1.01
5788.00,1.01
5787.00,1.01
5786.00,1.00
5785.00,1.00
5784.00,1.00
5783.00,1.00
5782.00,1.00
5781.00,1.00
5780.00,1.00
5779.00,1.00
5778.00,1.00
5777.00,1.00
5776.00,1.00
5775.00,1.00
5774.00,1.00
5773.00,1.00
5772.00,1.00
5771.00,1.00
5770.00,1.00
5769.00,1.00
5768.00,1.00
5767.00,1.00
5766.00,1.00
5765.00,1.01
5764.00,1.01
5763.00,1.01
5762.00,1.01
5761.00,1.01
5760.00,1.01
5759.00,1.02
5758.00,1.02
5757.00,1.02
5756.00,1.02
5755.00,1.02
5754.00,1.02
5753.00,1.03
5752.00,1.03
5751.00,1.03
5750.00,1.03
5749.00,1.04
5748.00,1.04
5747.00,1.04
5746.00,1.04
5745.00,1.04
5744.00,1.05
5743.00,1.05
5742.00,1.05
5741.00,1.05
5740.00,1.05
5739.00,1.06
5738.00,1.06
5737.00,1.06
5736.00,1.06
5735.00,1.06
5734.00,1.06
5733.00,1.06
5732.00,1.06
5731.00,1.06
5730.00,1.06
5729.00,1.06
5728.00,1.06
5727.00,1.06
5726.00,1.06
5725.00,1.06
5724.00,1.06
5723.00,1.06
5722.00,1.06
5721.00,1.06
5720.00,1.06
5719.00,1.06
5718.00,1.06
5717.00,1.06
5716.00,1.06
5715.00,1.06
5714.00,1.06
5713.00,1.06
5712.00,1.06
5711.00,1.06
5710.00,1.06
5709.00,1.06
5708.00,1.06
5707.00,1.06
5706.00,1.06
5705.00,1.06
5704.00,1.06
5703.00,1.06
5702.00,1.06
5701.00,1.06
5700.00,1.06
5699.00,1.06
5698.00,1.06
5697.00,1.06
5696.00,1.05
5695.00,1.05
5694.00,1.05
5693.00,1.05
5692.00,1.05
5691.00,1.05
5690.00,1.05
5689.00,1.04
5688.00,1.04
5687.00,1.04
5686.00,1.04
5685.00,1.04
5684.00,1.04
5683.00,1.04
5682.00,1.03
5681.00,1.03
5680.00,1.03
5679.00,1.03
5678.00,1.03
5677.00,1.03
5676.00,1.03
5675.00,1.03
5674.00,1.03
5673.00,1.03
5672.00,1.03
5671.00,1.03
5670.00,1.03
5669.00,1.03
5668.00,1.03
5667.00,1.03
5666.00,1.03
5665.00,1.03
5664.00,1.03
5663.00,1.03
5662.00,1.03
5661.00,1.03
5660.00,1.04
5659.00,1.04
5658.00,1.04
5657.00,1.04
5656.00,1.04
5655.00,1.04
5654.00,1.04
5653.00,1.05
5652.00,1.05
5651.00,1.05
5650.00,1.05
5649.00,1.05
5648.00,1.05
5647.00,1.05
5646.00,1.05
5645.00,1.05
5644.00,1.06
5643.00,1.06
5642.00,1.06
5641.00,1.06
5640.00,1.06
5639.00,1.06
5638.00,1.06
5637.00,1.06
5636.00,1.07
5635.00,1.07
5634.00,1.07
5633.00,1.07
5632.00,1.07
5631.00,1.07
5630.00,1.07
5629.00,1.07
5628.00,1.07
5627.00,1.07
5626.00,1.08
5625.00,1.08
5624.00,1.08
5623.00,1.08
5622.00,1.08
5621.00,1.08
5620.00,1.08
5619.00,1.08
5618.00,1.08
5617.00,1.08
5616.00,1.08
5615.00,1.09
5614.00,1.09
5613.00,1.09
5612.00,1.09
5611.00,1.09
5610.00,1.09
5609.00,1.09
5608.00,1.09
5607.00,1.09
5606.00,1.09
5605.00,1.10
5604.00,1.10
5603.00,1.10
5602.00,1.10
5601.00,1.10
5600.00,1.10
5599.00,1.10
5598.00,1.10
5597.00,1.10
5596.00,1.11
5595.00,1.11
5594.00,1.11
5593.00,1.11
5592.00,1.11
5591.00,1.11
5590.00,1.11
5589.00,1.11
5588.00,1.11
5587.00,1.11
5586.00,1.12
5585.00,1.12
5584.00,1.12
5583.00,1.12
5582.00,1.12
5581.00,1.12
5580.00,1.12
5579.00,1.12
5578.00,1.12
5577.00,1.12
5576.00,1.13
5575.00,1.13
5574.00,1.13
5573.00,1.13
5572.00,1.13
5571.00,1.13
5570.00,1.13
5569.00,1.13
5568.00,1.14
5567.00,1.14
5566.00,1.14
5565.00,1.14
5564.00,1.14
5563.00,1.14
5562.00,1.14
5561.00,1.14
5560.00,1.15
5559.00,1.15
5558.00,1.15
5557.00,1.15
5556.00,1.15
5555.00,1.15
5554.00,1.15
5553.00,1.15
5552.00,1.15
5551.00,1.16
5550.00,1.16
5549.00,1.16
5548.00,1.16
5547.00,1.16
5546.00,1.16
5545.00,1.16
5544.00,1.16
5543.00,1.16
5542.00,1.16
5541.00,1.16
5540.00,1.16
5539.00,1.17
5538.00,1.17
5537.00,1.17
5536.00,1.17
5535.00,1.17
5534.00,1.17
5533.00,1.17
5532.00,1.17
5531.00,1.17
5530.00,1.17
5529.00,1.17
5528.00,1.17
5527.00,1.17
5526.00,1.17
5525.00,1.17
5524.00,1.17
5523.00,1.18
5522.00,1.18
5521.00,1.18
5520.00,1.18
5519.00,1.18
5518.00,1.18
5517.00,1.18
5516.00,1.18
5515.00,1.18
5514.00,1.18
5513.00,1.18
5512.00,1.18
5511.00,1.18
5510.00,1.18
5509.00,1.18
5508.00,1.18
5507.00,1.18
5506.00,1.19
5505.00,1.19
5504.00,1.19
5503.00,1.19
5502.00,1.19
5501.00,1.19
5500.00,1.19
5499.00,1.19
5498.00,1.19
5497.00,1.19
5496.00,1.19
5495.00,1.19
5494.00,1.19
5493.00,1.19
5492.00,1.19
5491.00,1.20
5490.00,1.20
5489.00,1.20
5488.00,1.20
5487.00,1.20
5486.00,1.20
5485.00,1.20
5484.00,1.20
5483.00,1.20
5482.00,1.20
5481.00,1.20
5480.00,1.20
5479.00,1.21
5478.00,1.21
5477.00,1.21
5476.00,1.21
5475.00,1.21
5474.00,1.21
5473.00,1.21
5472.00,1.21
5471.00,1.21
5470.00,1.21
5469.00,1.21
5468.00,1.21
5467.00,1.21
5466.00,1.21
5465.00,1.22
5464.00,1.22
5463.00,1.22
5462.00,1.22
5461.00,1.22
5460.00,1.22
5459.00,1.22
5458.00,1.22
5457.00,1.22
5456.00,1.22
5455.00,1.22
5454.00,1.22
5453.00,1.22
5452.00,1.22
5451.00,1.22
5450.00,1.22
5449.00,1.22
5448.00,1.22
5447.00,1.22
5446.00,1.22
5445.00,1.22
5444.00,1.22
5443.00,1.22
5442.00,1.22
5441.00,1.22
5440.00,1.22
5439.00,1.22
5438.00,1.22
5437.00,1.22
5436.00,1.22
5435.00,1.22
5434.00,1.22
5433.00,1.22
5432.00,1.22
5431.00,1.22
5430.00,1.22
5429.00,1.22
5428.00,1.22
5427.00,1.22
5426.00,1.22
5425.00,1.22
5424.00,1.22
5423.00,1.22
5422.00,1.22
5421.00,1.22
5420.00,1.22
5419.00,1.22
5418.00,1.22
5417.00,1.22
5416.00,1.22
5415.00,1.22
5414.00,1.22
5413.00,1.22
5412.00,1.22
5411.00,1.22
5410.00,1.22
5409.00,1.22
5408.00,1.22
5407.00,1.22
5406.00,1.22
5405.00,1.21
5404.00,1.21
5403.00,1.21
5402.00,1.21
5401.00,1.21
5400.00,1.21
5399.00,1.21
5398.00,1.20
5397.00,1.20
5396.00,1.20
5395.00,1.20
5394.00,1.20
5393.00,1.19
5392.00,1.19
5391.00,1.19
5390.00,1.19
5389.00,1.18
5388.00,1.18
5387.00,1.18
5386.00,1.18
5385.00,1.17
5384.00,1.17
5383.00,1.17
5382.00,1.17
5381.00,1.16
5380.00,1.16
5379.00,1.16
5378.00,1.15
5377.00,1.15
5376.00,1.15
5375.00,1.14
5374.00,1.14
5373.00,1.14
5372.00,1.13
5371.00,1.13
5370.00,1.13
5369.00,1.12
5368.00,1.12
5367.00,1.11
5366.00,1.11
5365.00,1.10
5364.00,1.10
5363.00,1.10
5362.00,1.09
5361.00,1.08
5360.00,1.08
5359.00,1.07
5358.00,1.07
5357.00,1.06
5356.00,1.06
5355.00,1.05
5354.00,1.04
5353.00,1.04
5352.00,1.03
5351.00,1.02
5350.00,1.02
5349.00,1.01
5348.00,1.00
5347.00,1.00
5346.00,0.99
5345.00,0.98
5344.00,0.98
5343.00,0.97
5342.00,0.96
5341.00,0.96
5340.00,0.95
5339.00,0.94
5338.00,0.94
5337.00,0.93
5336.00,0.92
5335.00,0.92
5334.00,0.91
5333.00,0.90
5332.00,0.90
5331.00,0.89
5330.00,0.88
5329.00,0.88
5328.00,0.87
5327.00,0.87
5326.00,0.86
5325.00,0.86
5324.00,0.85
5323.00,0.84
5322.00,0.84
5321.00,0.84
5320.00,0.83
5319.00,0.83
5318.00,0.82
5317.00,0.82
5316.00,0.81
5315.00,0.81
5314.00,0.80
5313.00,0.80
5312.00,0.80
5311.00,0.79
5310.00,0.79
5309.00,0.79
5308.00,0.78
5307.00,0.78
5306.00,0.78
5305.00,0.77
5304.00,0.77
5303.00,0.77
5302.00,0.77
5301.00,0.76
5300.00,0.76
5299.00,0.76
5298.00,0.76
5297.00,0.76
5296.00,0.76
5295.00,0.76
5294.00,0.75
5293.00,0.75
5292.00,0.75
5291.00,0.75
5290.00,0.75
5289.00,0.75
5288.00,0.75
5287.00,0.75
5286.00,0.75
5285.00,0.75
5284.00,0.75
5283.00,0.75
5282.00,0.75
5281.00,0.75
5280.00,0.75
5279.00,0.75
5278.00,0.75
5277.00,0.75
5276.00,0.75
5275.00,0.75
5274.00,0.75
5273.00,0.75
5272.00,0.75
5271.00,0.75
5270.00,0.75
5269.00,0.75
5268.00,0.75
5267.00,0.75
5266.00,0.75
5265.00,0.75
5264.00,0.75
5263.00,0.75
5262.00,0.75
5261.00,0.75
5260.00,0.75
5259.00,0.75
5258.00,0.75
5257.00,0.75
5256.00,0.75
5255.00,0.75
5254.00,0.75
5253.00,0.75
5252.00,0.75
5251.00,0.75
5250.00,0.75
5249.00,0.75
5248.00,0.75
5247.00,0.75
5246.00,0.75
5245.00,0.75
5244.00,0.75
5243.00,0.75
5242.00,0.75
5241.00,0.75
5240.00,0.75
5239.00,0.75
5238.00,0.75
5237.00,0.75
5236.00,0.75
5235.00,0.75
5234.00,0.75
5233.00,0.75
5232.00,0.75
5231.00,0.75
5230.00,0.75
5229.00,0.75
5228.00,0.75
5227.00,0.75
5226.00,0.75
5225.00,0.75
5224.00,0.75
5223.00,0.75
5222.00,0.75
5221.00,0.75
5220.00,0.75
5219.00,0.75
5218.00,0.75
5217.00,0.75
5216.00,0.76
5215.00,0.76
5214.00,0.76
5213.00,0.76
5212.00,0.76
5211.00,0.76
5210.00,0.76
5209.00,0.76
5208.00,0.76
5207.00,0.76
5206.00,0.76
5205.00,0.76
5204.00,0.76
5203.00,0.76
5202.00,0.76
5201.00,0.76
5200.00,0.76
5199.00,0.76
5198.00,0.76
5197.00,0.76
5196.00,0.76
5195.00,0.76
5194.00,0.76
5193.00,0.77
5192.00,0.77
5191.00,0.77
5190.00,0.77
5189.00,0.77
5188.00,0.77
5187.00,0.77
5186.00,0.77
5185.00,0.77
5184.00,0.77
5183.00,0.77
5182.00,0.77
5181.00,0.77
5180.00,0.77
5179.00,0.77
5178.00,0.77
5177.00,0.77
5176.00,0.77
5175.00,0.77
5174.00,0.77
5173.00,0.77
5172.00,0.77
5171.00,0.77
5170.00,0.77
5169.00,0.78
5168.00,0.78
5167.00,0.78
5166.00,0.78
5165.00,0.78
5164.00,0.78
5163.00,0.78
5162.00,0.78
5161.00,0.78
5160.00,0.78
5159.00,0.78
5158.00,0.78
5157.00,0.78
5156.00,0.78
5155.00,0.78
5154.00,0.78
5153.00,0.78
5152.00,0.78
5151.00,0.78
5150.00,0.78
5149.00,0.78
5148.00,0.78
5147.00,0.78
5146.00,0.78
5145.00,0.78
5144.00,0.78
5143.00,0.78
5142.00,0.78
5141.00,0.78
5140.00,0.78
5139.00,0.78
5138.00,0.78
5137.00,0.78
5136.00,0.78
5135.00,0.78
5134.00,0.78
5133.00,0.79
5132.00,0.79
5131.00,0.79
5130.00,0.79
5129.00,0.79
5128.00,0.79
5127.00,0.79
5126.00,0.79
5125.00,0.79
5124.00,0.79
5123.00,0.79
5122.00,0.79
5121.00,0.79
5120.00,0.79
5119.00,0.79
5118.00,0.79
5117.00,0.79
5116.00,0.79
5115.00,0.79
5114.00,0.79
5113.00,0.79
5112.00,0.79
5111.00,0.80
5110.00,0.80
5109.00,0.80
5108.00,0.80
5107.00,0.80
5106.00,0.80
5105.00,0.80
5104.00,0.80
5103.00,0.80
5102.00,0.80
5101.00,0.80
5100.00,0.80
5099.00,0.80
5098.00,0.80
5097.00,0.80
5096.00,0.80
5095.00,0.80
5094.00,0.80
5093.00,0.80
5092.00,0.80
5091.00,0.80
5090.00,0.80
5089.00,0.80
5088.00,0.80
5087.00,0.80
5086.00,0.80
5085.00,0.80
5084.00,0.80
5083.00,0.80
5082.00,0.80
5081.00,0.80
5080.00,0.80
5079.00,0.80
5078.00,0.80
5077.00,0.80
5076.00,0.80
5075.00,0.80
5074.00,0.80
5073.00,0.80
5072.00,0.80
5071.00,0.80
5070.00,0.80
5069.00,0.80
5068.00,0.80
5067.00,0.80
5066.00,0.80
5065.00,0.80
5064.00,0.80
5063.00,0.80
5062.00,0.80
5061.00,0.80
5060.00,0.80
5059.00,0.80
5058.00,0.81
5057.00,0.81
5056.00,0.81
5055.00,0.81
5054.00,0.81
5053.00,0.81
5052.00,0.81
5051.00,0.81
5050.00,0.81
5049.00,0.81
5048.00,0.81
5047.00,0.81
5046.00,0.81
5045.00,0.81
5044.00,0.81
5043.00,0.81
5042.00,0.82
5041.00,0.82
5040.00,0.82
5039.00,0.82
5038.00,0.82
5037.00,0.82
5036.00,0.82
5035.00,0.82
5034.00,0.82
5033.00,0.82
5032.00,0.82
5031.00,0.82
5030.00,0.82
5029.00,0.82
5028.00,0.82
5027.00,0.82
5026.00,0.82
5025.00,0.83
5024.00,0.83
5023.00,0.83
5022.00,0.83
5021.00,0.83
5020.00,0.83
5019.00,0.83
5018.00,0.83
5017.00,0.83
5016.00,0.83
5015.00,0.83
5014.00,0.83
5013.00,0.83
5012.00,0.83
5011.00,0.83
5010.00,0.83
5009.00,0.83
5008.00,0.83
5007.00,0.83
5006.00,0.83
5005.00,0.83
5004.00,0.83
5003.00,0.83
5002.00,0.83
5001.00,0.83
5000.00,0.83
4999.00,0.83
4998.00,0.83
4997.00,0.83
4996.00,0.83
4995.00,0.83
4994.00,0.83
4993.00,0.83
4992.00,0.84
4991.00,0.84
4990.00,0.84
4989.00,0.84
4988.00,0.84
4987.00,0.84
4986.00,0.84
4985.00,0.84
4984.00,0.84
4983.00,0.84
4982.00,0.84
4981.00,0.84
4980.00,0.84
4979.00,0.85
4978.00,0.85
4977.00,0.85
4976.00,0.85
4975.00,0.85
4974.00,0.85
4973.00,0.85
4972.00,0.85
4971.00,0.85
4970.00,0.85
4969.00,0.85
4968.00,0.85
4967.00,0.85
4966.00,0.85
4965.00,0.85
4964.00,0.85
4963.00,0.85
4962.00,0.85
4961.00,0.85
4960.00,0.85
4959.00,0.85
4958.00,0.85
4957.00,0.85
4956.00,0.85
4955.00,0.86
4954.00,0.86
4953.00,0.86
4952.00,0.86
4951.00,0.86
4950.00,0.86
4949.00,0.86
4948.00,0.86
4947.00,0.86
4946.00,0.86
4945.00,0.86
4944.00,0.86
4943.00,0.86
4942.00,0.86
4941.00,0.86
4940.00,0.86
4939.00,0.86
4938.00,0.87
4937.00,0.87
4936.00,0.87
4935.00,0.87
4934.00,0.87
4933.00,0.87
4932.00,0.87
4931.00,0.87
4930.00,0.87
4929.00,0.87
4928.00,0.87
4927.00,0.87
4926.00,0.87
4925.00,0.87
4924.00,0.87
4923.00,0.87
4922.00,0.87
4921.00,0.87
4920.00,0.87
4919.00,0.87
4918.00,0.87
4917.00,0.87
4916.00,0.88
4915.00,0.88
4914.00,0.88
4913.00,0.88
4912.00,0.88
4911.00,0.88
4910.00,0.88
4909.00,0.88
4908.00,0.88
4907.00,0.88
4906.00,0.88
4905.00,0.88
4904.00,0.88
4903.00,0.88
4902.00,0.88
4901.00,0.88
4900.00,0.88
4899.00,0.88
4898.00,0.88
4897.00,0.88
4896.00,0.88
4895.00,0.88
4894.00,0.88
4893.00,0.89
4892.00,0.89
4891.00,0.89
4890.00,0.89
4889.00,0.89
4888.00,0.89
4887.00,0.89
4886.00,0.89
4885.00,0.89
4884.00,0.89
4883.00,0.89
4882.00,0.89
4881.00,0.89
4880.00,0.89
4879.00,0.89
4878.00,0.89
4877.00,0.89
4876.00,0.89
4875.00,0.89
4874.00,0.89
4873.00,0.90
4872.00,0.90
4871.00,0.90
4870.00,0.90
4869.00,0.90
4868.00,0.90
4867.00,0.90
4866.00,0.90
4865.00,0.90
4864.00,0.90
4863.00,0.90
4862.00,0.90
4861.00,0.90
4860.00,0.90
4859.00,0.90
4858.00,0.90
4857.00,0.90
4856.00,0.90
4855.00,0.90
4854.00,0.90
4853.00,0.90
4852.00,0.90
4851.00,0.90
4850.00,0.90
4849.00,0.90
4848.00,0.90
4847.00,0.90
4846.00,0.90
4845.00,0.90
4844.00,0.90
4843.00,0.90
4842.00,0.90
4841.00,0.90
4840.00,0.90
4839.00,0.90
4838.00,0.90
4837.00,0.90
4836.00,0.90
4835.00,0.90
4834.00,0.91
4833.00,0.91
4832.00,0.91
4831.00,0.91
4830.00,0.91
4829.00,0.91
4828.00,0.91
4827.00,0.91
4826.00,0.91
4825.00,0.91
4824.00,0.91
4823.00,0.91
4822.00,0.92
4821.00,0.92
4820.00,0.92
4819.00,0.92
4818.00,0.92
4817.00,0.92
4816.00,0.92
4815.00,0.92
4814.00,0.92
4813.00,0.92
4812.00,0.92
4811.00,0.92
4810.00,0.92
4809.00,0.92
4808.00,0.92
4807.00,0.92
4806.00,0.93
4805.00,0.93
4804.00,0.93
4803.00,0.93
4802.00,0.93
4801.00,0.93
4800.00,0.93
4799.00,0.93
4798.00,0.93
4797.00,0.93
4796.00,0.93
4795.00,0.93
4794.00,0.93
4793.00,0.93
4792.00,0.93
4791.00,0.93
4790.00,0.93
4789.00,0.93
4788.00,0.93
4787.00,0.93
4786.00,0.93
4785.00,0.94
4784.00,0.94
4783.00,0.94
4782.00,0.94
4781.00,0.94
4780.00,0.94
4779.00,0.94
4778.00,0.94
4777.00,0.94
4776.00,0.94
4775.00,0.94
4774.00,0.94
4773.00,0.94
4772.00,0.94
4771.00,0.94
4770.00,0.94
4769.00,0.94
4768.00,0.94
4767.00,0.94
4766.00,0.94
4765.00,0.94
4764.00,0.94
4763.00,0.95
4762.00,0.95
4761.00,0.95
4760.00,0.95
4759.00,0.95
4758.00,0.95
4757.00,0.95
4756.00,0.95
4755.00,0.96
4754.00,0.96
4753.00,0.96
4752.00,0.96
4751.00,0.96
4750.00,0.96
4749.00,0.96
4748.00,0.96
4747.00,0.96
4746.00,0.96
4745.00,0.97
4744.00,0.97
4743.00,0.97
4742.00,0.97
4741.00,0.97
4740.00,0.97
4739.00,0.97
4738.00,0.97
4737.00,0.97
4736.00,0.97
4735.00,0.97
4734.00,0.97
4733.00,0.97
4732.00,0.97
4731.00,0.97
4730.00,0.98
4729.00,0.98
4728.00,0.98
4727.00,0.98
4726.00,0.98
4725.00,0.98
4724.00,0.98
4723.00,0.98
4722.00,0.98
4721.00,0.98
4720.00,0.98
4719.00,0.98
4718.00,0.98
4717.00,0.99
4716.00,0.99
4715.00,0.99
4714.00,0.99
4713.00,0.99
4712.00,0.99
4711.00,0.99
4710.00,0.99
4709.00,0.99
4708.00,0.99
4707.00,0.99
4706.00,0.99
4705.00,0.99
4704.00,0.99
4703.00,1.00
4702.00,1.00
4701.00,1.00
4700.00,1.00
4699.00,1.00
4698.00,1.00
4697.00,1.00
4696.00,1.00
4695.00,1.00
4694.00,1.00
4693.00,1.00
4692.00,1.01
4691.00,1.01
4690.00,1.01
4689.00,1.01
4688.00,1.01
4687.00,1.01
4686.00,1.01
4685.00,1.01
4684.00,1.01
4683.00,1.02
4682.00,1.02
4681.00,1.02
4680.00,1.02
4679.00,1.02
4678.00,1.02
4677.00,1.02
4676.00,1.02
4675.00,1.03
4674.00,1.03
4673.00,1.03
4672.00,1.03
4671.00,1.03
4670.00,1.03
4669.00,1.03
4668.00,1.03
4667.00,1.03
4666.00,1.03
4665.00,1.03
4664.00,1.03
4663.00,1.03
4662.00,1.03
4661.00,1.03
4660.00,1.03
4659.00,1.03
4658.00,1.03
4657.00,1.03
4656.00,1.03
4655.00,1.03
4654.00,1.03
4653.00,1.03
4652.00,1.03
4651.00,1.03
4650.00,1.03
4649.00,1.03
4648.00,1.03
4647.00,1.04
4646.00,1.04
4645.00,1.04
4644.00,1.04
4643.00,1.04
4642.00,1.04
4641.00,1.04
4640.00,1.04
4639.00,1.04
4638.00,1.04
4637.00,1.05
4636.00,1.05
4635.00,1.05
4634.00,1.05
4633.00,1.05
4632.00,1.05
4631.00,1.05
4630.00,1.05
4629.00,1.05
4628.00,1.05
4627.00,1.05
4626.00,1.05
4625.00,1.06
4624.00,1.06
4623.00,1.06
4622.00,1.06
4621.00,1.06
4620.00,1.06
4619.00,1.06
4618.00,1.06
4617.00,1.06
4616.00,1.06
4615.00,1.06
4614.00,1.06
4613.00,1.06
4612.00,1.06
4611.00,1.06
4610.00,1.06
4609.00,1.06
4608.00,1.06
4607.00,1.06
4606.00,1.07
4605.00,1.07
4604.00,1.07
4603.00,1.07
4602.00,1.07
4601.00,1.07
4600.00,1.07
4599.00,1.07
4598.00,1.07
4597.00,1.07
4596.00,1.07
4595.00,1.07
4594.00,1.07
4593.00,1.07
4592.00,1.07
4591.00,1.07
4590.00,1.07
4589.00,1.07
4588.00,1.07
4587.00,1.08
4586.00,1.08
4585.00,1.08
4584.00,1.08
4583.00,1.08
4582.00,1.08
4581.00,1.08
4580.00,1.08
4579.00,1.08
4578.00,1.08
4577.00,1.08
4576.00,1.08
4575.00,1.08
4574.00,1.08
4573.00,1.08
4572.00,1.08
4571.00,1.08
4570.00,1.08
4569.00,1.08
4568.00,1.08
4567.00,1.08
4566.00,1.08
4565.00,1.09
4564.00,1.09
4563.00,1.09
4562.00,1.09
4561.00,1.09
4560.00,1.09
4559.00,1.09
4558.00,1.09
4557.00,1.09
4556.00,1.09
4555.00,1.09
4554.00,1.09
4553.00,1.09
4552.00,1.09
4551.00,1.09
4550.00,1.09
4549.00,1.09
4548.00,1.09
4547.00,1.09
4546.00,1.09
4545.00,1.09
4544.00,1.09
4543.00,1.10
4542.00,1.10
4541.00,1.10
4540.00,1.10
4539.00,1.10
4538.00,1.10
4537.00,1.10
4536.00,1.10
4535.00,1.10
4534.00,1.10
4533.00,1.10
4532.00,1.10
4531.00,1.10
4530.00,1.10
4529.00,1.10
4528.00,1.10
4527.00,1.10
4526.00,1.11
4525.00,1.11
4524.00,1.11
4523.00,1.11
4522.00,1.11
4521.00,1.11
4520.00,1.11
4519.00,1.11
4518.00,1.11
4517.00,1.11
4516.00,1.11
4515.00,1.11
4514.00,1.11
4513.00,1.11
4512.00,1.11
4511.00,1.11
4510.00,1.11
4509.00,1.11
4508.00,1.11
4507.00,1.11
4506.00,1.11
4505.00,1.11
4504.00,1.11
4503.00,1.11
4502.00,1.11
4501.00,1.11
4500.00,1.11
4499.00,1.11
4498.00,1.11
4497.00,1.11
4496.00,1.11
4495.00,1.11
4494.00,1.11
4493.00,1.11
4492.00,1.11
4491.00,1.11
4490.00,1.11
4489.00,1.11
4488.00,1.11
4487.00,1.10
4486.00,1.10
4485.00,1.10
4484.00,1.10
4483.00,1.10
4482.00,1.10
4481.00,1.10
4480.00,1.10
4479.00,1.10
4478.00,1.10
4477.00,1.10
4476.00,1.10
4475.00,1.10
4474.00,1.10
4473.00,1.10
4472.00,1.10
4471.00,1.10
4470.00,1.09
4469.00,1.09
4468.00,1.09
4467.00,1.09
4466.00,1.09
4465.00,1.09
4464.00,1.09
4463.00,1.09
4462.00,1.09
4461.00,1.09
4460.00,1.09
4459.00,1.09
4458.00,1.09
4457.00,1.08
4456.00,1.08
4455.00,1.08
4454.00,1.08
4453.00,1.08
4452.00,1.08
4451.00,1.07
4450.00,1.07
4449.00,1.07
4448.00,1.07
4447.00,1.07
4446.00,1.06
4445.00,1.06
4444.00,1.06
4443.00,1.06
4442.00,1.06
4441.00,1.05
4440.00,1.05
4439.00,1.05
4438.00,1.05
4437.00,1.05
4436.00,1.05
4435.00,1.04
4434.00,1.04
4433.00,1.04
4432.00,1.04
4431.00,1.04
4430.00,1.04
4429.00,1.04
4428.00,1.04
4427.00,1.04
4426.00,1.04
4425.00,1.04
4424.00,1.04
4423.00,1.04
4422.00,1.04
4421.00,1.04
4420.00,1.04
4419.00,1.04
4418.00,1.04
4417.00,1.04
4416.00,1.04
4415.00,1.04
4414.00,1.04
4413.00,1.04
4412.00,1.04
4411.00,1.04
4410.00,1.04
4409.00,1.05
4408.00,1.05
4407.00,1.05
4406.00,1.05
4405.00,1.05
4404.00,1.05
4403.00,1.05
4402.00,1.05
4401.00,1.05
4400.00,1.05
4399.00,1.05
4398.00,1.05
4397.00,1.05
4396.00,1.06
4395.00,1.06
4394.00,1.06
4393.00,1.06
4392.00,1.06
4391.00,1.06
4390.00,1.06
4389.00,1.06
4388.00,1.07
4387.00,1.07
4386.00,1.07
4385.00,1.07
4384.00,1.07
4383.00,1.07
4382.00,1.07
4381.00,1.07
4380.00,1.07
4379.00,1.07
4378.00,1.07
4377.00,1.07
4376.00,1.07
4375.00,1.07
4374.00,1.07
4373.00,1.07
4372.00,1.07
4371.00,1.07
4370.00,1.07
4369.00,1.07
4368.00,1.07
4367.00,1.07
4366.00,1.07
4365.00,1.07
4364.00,1.07
4363.00,1.07
4362.00,1.07
4361.00,1.07
4360.00,1.07
4359.00,1.07
4358.00,1.07
4357.00,1.07
4356.00,1.07
4355.00,1.07
4354.00,1.07
4353.00,1.08
4352.00,1.08
4351.00,1.08
4350.00,1.08
4349.00,1.08
4348.00,1.08
4347.00,1.08
4346.00,1.08
4345.00,1.08
4344.00,1.08
4343.00,1.08
4342.00,1.08
4341.00,1.08
4340.00,1.08
4339.00,1.08
4338.00,1.08
4337.00,1.08
4336.00,1.08
4335.00,1.08
4334.00,1.08
4333.00,1.08
4332.00,1.08
4331.00,1.08
4330.00,1.08
4329.00,1.08
4328.00,1.08
4327.00,1.08
4326.00,1.08
4325.00,1.09
4324.00,1.09
4323.00,1.09
4322.00,1.09
4321.00,1.09
4320.00,1.09
4319.00,1.09
4318.00,1.09
4317.00,1.09
4316.00,1.09
4315.00,1.09
4314.00,1.09
4313.00,1.09
4312.00,1.09
4311.00,1.09
4310.00,1.09
4309.00,1.09
4308.00,1.09
4307.00,1.09
4306.00,1.09
4305.00,1.09
4304.00,1.09
4303.00,1.09
4302.00,1.09
4301.00,1.10
4300.00,1.10
4299.00,1.10
4298.00,1.10
4297.00,1.10
4296.00,1.10
4295.00,1.10
4294.00,1.10
4293.00,1.10
4292.00,1.11
4291.00,1.11
4290.00,1.11
4289.00,1.11
4288.00,1.11
4287.00,1.11
4286.00,1.11
4285.00,1.11
4284.00,1.11
4283.00,1.11
4282.00,1.11
4281.00,1.11
4280.00,1.12
4279.00,1.12
4278.00,1.12
4277.00,1.12
4276.00,1.12
4275.00,1.12
4274.00,1.12
4273.00,1.12
4272.00,1.12
4271.00,1.12
4270.00,1.12
4269.00,1.12
4268.00,1.12
4267.00,1.12
4266.00,1.11
4265.00,1.11
4264.00,1.11
4263.00,1.11
4262.00,1.11
4261.00,1.11
4260.00,1.11
4259.00,1.11
4258.00,1.11
4257.00,1.11
4256.00,1.11
4255.00,1.11
4254.00,1.11
4253.00,1.11
4252.00,1.11
4251.00,1.11
4250.00,1.11
4249.00,1.11
4248.00,1.11
4247.00,1.11
4246.00,1.12
4245.00,1.12
4244.00,1.12
4243.00,1.12
4242.00,1.12
4241.00,1.12
4240.00,1.12
4239.00,1.12
4238.00,1.12
4237.00,1.12
4236.00,1.12
4235.00,1.12
4234.00,1.13
4233.00,1.13
4232.00,1.13
4231.00,1.13
4230.00,1.13
4229.00,1.13
4228.00,1.13
4227.00,1.13
4226.00,1.14
4225.00,1.14
4224.00,1.14
4223.00,1.14
4222.00,1.14
4221.00,1.14
4220.00,1.14
4219.00,1.14
4218.00,1.14
4217.00,1.14
4216.00,1.15
4215.00,1.15
4214.00,1.15
4213.00,1.15
4212.00,1.15
4211.00,1.15
4210.00,1.15
4209.00,1.15
4208.00,1.15
4207.00,1.15
4206.00,1.15
4205.00,1.15
4204.00,1.15
4203.00,1.15
4202.00,1.15
4201.00,1.15
4200.00,1.15
4199.00,1.15
4198.00,1.15
4197.00,1.15
4196.00,1.15
4195.00,1.15
4194.00,1.15
4193.00,1.14
4192.00,1.14
4191.00,1.14
4190.00,1.14
4189.00,1.14
4188.00,1.14
4187.00,1.14
4186.00,1.14
4185.00,1.14
4184.00,1.14
4183.00,1.14
4182.00,1.14
4181.00,1.14
4180.00,1.14
4179.00,1.14
4178.00,1.14
4177.00,1.14
4176.00,1.14
4175.00,1.14
4174.00,1.14
4173.00,1.15
4172.00,1.15
4171.00,1.15
4170.00,1.15
4169.00,1.15
4168.00,1.15
4167.00,1.15
4166.00,1.16
4165.00,1.16
4164.00,1.16
4163.00,1.16
4162.00,1.16
4161.00,1.16
4160.00,1.16
4159.00,1.16
4158.00,1.16
4157.00,1.17
4156.00,1.17
4155.00,1.17
4154.00,1.17
4153.00,1.17
4152.00,1.17
4151.00,1.16
4150.00,1.16
4149.00,1.16
4148.00,1.16
4147.00,1.16
4146.00,1.16
4145.00,1.16
4144.00,1.16
4143.00,1.16
4142.00,1.16
4141.00,1.16
4140.00,1.16
4139.00,1.16
4138.00,1.16
4137.00,1.17
4136.00,1.17
4135.00,1.17
4134.00,1.17
4133.00,1.17
4132.00,1.17
4131.00,1.17
4130.00,1.17
4129.00,1.17
4128.00,1.17
4127.00,1.17
4126.00,1.17
4125.00,1.17
4124.00,1.17
4123.00,1.18
4122.00,1.18
4121.00,1.18
4120.00,1.18
4119.00,1.18
4118.00,1.18
4117.00,1.18
4116.00,1.18
4115.00,1.18
4114.00,1.18
4113.00,1.18
4112.00,1.18
4111.00,1.18
4110.00,1.18
4109.00,1.18
4108.00,1.18
4107.00,1.18
4106.00,1.18
4105.00,1.18
4104.00,1.18
4103.00,1.18
4102.00,1.18
4101.00,1.18
4100.00,1.18
4099.00,1.18
4098.00,1.18
4097.00,1.18
4096.00,1.18
4095.00,1.18
4094.00,1.18
4093.00,1.18
4092.00,1.18
4091.00,1.18
4090.00,1.18
4089.00,1.18
4088.00,1.18
4087.00,1.18
4086.00,1.18
4085.00,1.18
4084.00,1.18
4083.00,1.18
4082.00,1.18
4081.00,1.18
4080.00,1.18
4079.00,1.18
4078.00,1.18
4077.00,1.18
4076.00,1.18
4075.00,1.18
4074.00,1.18
4073.00,1.19
4072.00,1.19
4071.00,1.19
4070.00,1.19
4069.00,1.19
4068.00,1.19
4067.00,1.19
4066.00,1.19
4065.00,1.19
4064.00,1.19
4063.00,1.19
4062.00,1.19
4061.00,1.19
4060.00,1.19
4059.00,1.19
4058.00,1.19
4057.00,1.20
4056.00,1.20
4055.00,1.20
4054.00,1.20
4053.00,1.20
4052.00,1.20
4051.00,1.20
4050.00,1.20
4049.00,1.20
4048.00,1.20
4047.00,1.20
4046.00,1.20
4045.00,1.20
4044.00,1.20
4043.00,1.20
4042.00,1.20
4041.00,1.20
4040.00,1.20
4039.00,1.20
4038.00,1.20
4037.00,1.20
4036.00,1.20
4035.00,1.20
4034.00,1.20
4033.00,1.20
4032.00,1.20
4031.00,1.20
4030.00,1.21
4029.00,1.21
4028.00,1.21
4027.00,1.21
4026.00,1.21
4025.00,1.21
4024.00,1.21
4023.00,1.21
4022.00,1.22
4021.00,1.22
4020.00,1.22
4019.00,1.22
4018.00,1.22
4017.00,1.22
4016.00,1.22
4015.00,1.22
4014.00,1.22
4013.00,1.22
4012.00,1.22
4011.00,1.22
4010.00,1.22
4009.00,1.22
4008.00,1.22
4007.00,1.22
4006.00,1.22
4005.00,1.22
4004.00,1.22
4003.00,1.22
4002.00,1.22
4001.00,1.22
4000.00,1.22
