创建为新数据集,样品 428 用户 Administrator 日期 星期日, 七月 15 2018
cm-1,%T
10000.00,0.74
9999.00,0.74
9998.00,0.74
9997.00,0.75
9996.00,0.75
9995.00,0.75
9994.00,0.75
9993.00,0.75
9992.00,0.75
9991.00,0.75
9990.00,0.75
9989.00,0.75
9988.00,0.75
9987.00,0.75
9986.00,0.75
9985.00,0.75
9984.00,0.75
9983.00,0.74
9982.00,0.74
9981.00,0.74
9980.00,0.74
9979.00,0.74
9978.00,0.74
9977.00,0.74
9976.00,0.74
9975.00,0.73
9974.00,0.73
9973.00,0.73
9972.00,0.73
9971.00,0.72
9970.00,0.72
9969.00,0.72
9968.00,0.71
9967.00,0.71
9966.00,0.71
9965.00,0.70
9964.00,0.70
9963.00,0.70
9962.00,0.70
9961.00,0.69
9960.00,0.69
9959.00,0.69
9958.00,0.69
9957.00,0.69
9956.00,0.69
9955.00,0.69
9954.00,0.69
9953.00,0.69
9952.00,0.69
9951.00,0.69
9950.00,0.69
9949.00,0.70
9948.00,0.70
9947.00,0.70
9946.00,0.70
9945.00,0.70
9944.00,0.70
9943.00,0.70
9942.00,0.70
9941.00,0.70
9940.00,0.70
9939.00,0.69
9938.00,0.69
9937.00,0.69
9936.00,0.69
9935.00,0.69
9934.00,0.69
9933.00,0.69
9932.00,0.68
9931.00,0.68
9930.00,0.68
9929.00,0.68
9928.00,0.68
9927.00,0.67
9926.00,0.67
9925.00,0.67
9924.00,0.67
9923.00,0.67
9922.00,0.67
9921.00,0.67
9920.00,0.67
9919.00,0.68
9918.00,0.68
9917.00,0.68
9916.00,0.68
9915.00,0.68
9914.00,0.69
9913.00,0.69
9912.00,0.69
9911.00,0.69
9910.00,0.69
9909.00,0.69
9908.00,0.69
9907.00,0.70
9906.00,0.70
9905.00,0.70
9904.00,0.70
9903.00,0.70
9902.00,0.70
9901.00,0.70
9900.00,0.70
9899.00,0.70
9898.00,0.70
9897.00,0.70
9896.00,0.70
9895.00,0.70
9894.00,0.70
9893.00,0.71
9892.00,0.71
9891.00,0.71
9890.00,0.71
9889.00,0.71
9888.00,0.71
9887.00,0.71
9886.00,0.71
9885.00,0.71
9884.00,0.71
9883.00,0.71
9882.00,0.71
9881.00,0.72
9880.00,0.72
9879.00,0.72
9878.00,0.72
9877.00,0.72
9876.00,0.72
9875.00,0.72
9874.00,0.72
9873.00,0.72
9872.00,0.72
9871.00,0.72
9870.00,0.72
9869.00,0.72
9868.00,0.72
9867.00,0.72
9866.00,0.72
9865.00,0.72
9864.00,0.72
9863.00,0.72
9862.00,0.72
9861.00,0.72
9860.00,0.72
9859.00,0.72
9858.00,0.72
9857.00,0.71
9856.00,0.71
9855.00,0.71
9854.00,0.71
9853.00,0.71
9852.00,0.71
9851.00,0.71
9850.00,0.71
9849.00,0.71
9848.00,0.71
9847.00,0.71
9846.00,0.71
9845.00,0.71
9844.00,0.71
9843.00,0.71
9842.00,0.71
9841.00,0.71
9840.00,0.72
9839.00,0.72
9838.00,0.72
9837.00,0.72
9836.00,0.72
9835.00,0.72
9834.00,0.72
9833.00,0.71
9832.00,0.71
9831.00,0.71
9830.00,0.71
9829.00,0.71
9828.00,0.71
9827.00,0.71
9826.00,0.71
9825.00,0.71
9824.00,0.71
9823.00,0.71
9822.00,0.71
9821.00,0.71
9820.00,0.71
9819.00,0.71
9818.00,0.71
9817.00,0.71
9816.00,0.70
9815.00,0.70
9814.00,0.70
9813.00,0.70
9812.00,0.70
9811.00,0.70
9810.00,0.70
9809.00,0.70
9808.00,0.70
9807.00,0.70
9806.00,0.70
9805.00,0.70
9804.00,0.70
9803.00,0.70
9802.00,0.70
9801.00,0.70
9800.00,0.70
9799.00,0.71
9798.00,0.71
9797.00,0.71
9796.00,0.71
9795.00,0.71
9794.00,0.72
9793.00,0.72
9792.00,0.72
9791.00,0.72
9790.00,0.73
9789.00,0.73
9788.00,0.73
9787.00,0.73
9786.00,0.73
9785.00,0.73
9784.00,0.74
9783.00,0.74
9782.00,0.74
9781.00,0.74
9780.00,0.73
9779.00,0.73
9778.00,0.73
9777.00,0.73
9776.00,0.73
9775.00,0.73
9774.00,0.72
9773.00,0.72
9772.00,0.72
9771.00,0.72
9770.00,0.71
9769.00,0.71
9768.00,0.71
9767.00,0.71
9766.00,0.71
9765.00,0.71
9764.00,0.70
9763.00,0.70
9762.00,0.70
9761.00,0.70
9760.00,0.70
9759.00,0.70
9758.00,0.70
9757.00,0.70
9756.00,0.70
9755.00,0.70
9754.00,0.70
9753.00,0.70
9752.00,0.71
9751.00,0.71
9750.00,0.71
9749.00,0.71
9748.00,0.71
9747.00,0.71
9746.00,0.71
9745.00,0.72
9744.00,0.72
9743.00,0.72
9742.00,0.72
9741.00,0.72
9740.00,0.73
9739.00,0.73
9738.00,0.73
9737.00,0.73
9736.00,0.73
9735.00,0.73
9734.00,0.74
9733.00,0.74
9732.00,0.74
9731.00,0.74
9730.00,0.74
9729.00,0.74
9728.00,0.74
9727.00,0.74
9726.00,0.74
9725.00,0.74
9724.00,0.73
9723.00,0.73
9722.00,0.73
9721.00,0.73
9720.00,0.72
9719.00,0.72
9718.00,0.72
9717.00,0.72
9716.00,0.71
9715.00,0.71
9714.00,0.71
9713.00,0.71
9712.00,0.71
9711.00,0.71
9710.00,0.71
9709.00,0.71
9708.00,0.71
9707.00,0.71
9706.00,0.71
9705.00,0.71
9704.00,0.71
9703.00,0.71
9702.00,0.72
9701.00,0.72
9700.00,0.72
9699.00,0.72
9698.00,0.72
9697.00,0.72
9696.00,0.72
9695.00,0.72
9694.00,0.72
9693.00,0.72
9692.00,0.72
9691.00,0.72
9690.00,0.72
9689.00,0.72
9688.00,0.72
9687.00,0.71
9686.00,0.71
9685.00,0.71
9684.00,0.71
9683.00,0.71
9682.00,0.71
9681.00,0.71
9680.00,0.71
9679.00,0.71
9678.00,0.71
9677.00,0.71
9676.00,0.71
9675.00,0.71
9674.00,0.71
9673.00,0.71
9672.00,0.72
9671.00,0.72
9670.00,0.72
9669.00,0.72
9668.00,0.72
9667.00,0.72
9666.00,0.72
9665.00,0.72
9664.00,0.72
9663.00,0.72
9662.00,0.72
9661.00,0.72
9660.00,0.72
9659.00,0.72
9658.00,0.72
9657.00,0.72
9656.00,0.72
9655.00,0.72
9654.00,0.72
9653.00,0.72
9652.00,0.72
9651.00,0.72
9650.00,0.72
9649.00,0.72
9648.00,0.72
9647.00,0.72
9646.00,0.72
9645.00,0.72
9644.00,0.72
9643.00,0.72
9642.00,0.72
9641.00,0.72
9640.00,0.72
9639.00,0.72
9638.00,0.72
9637.00,0.71
9636.00,0.71
9635.00,0.71
9634.00,0.71
9633.00,0.71
9632.00,0.71
9631.00,0.71
9630.00,0.71
9629.00,0.71
9628.00,0.71
9627.00,0.71
9626.00,0.71
9625.00,0.72
9624.00,0.72
9623.00,0.72
9622.00,0.72
9621.00,0.72
9620.00,0.72
9619.00,0.72
9618.00,0.72
9617.00,0.72
9616.00,0.72
9615.00,0.72
9614.00,0.72
9613.00,0.72
9612.00,0.72
9611.00,0.72
9610.00,0.72
9609.00,0.72
9608.00,0.72
9607.00,0.72
9606.00,0.72
9605.00,0.72
9604.00,0.72
9603.00,0.72
9602.00,0.72
9601.00,0.72
9600.00,0.72
9599.00,0.72
9598.00,0.72
9597.00,0.72
9596.00,0.72
9595.00,0.72
9594.00,0.72
9593.00,0.72
9592.00,0.72
9591.00,0.72
9590.00,0.72
9589.00,0.71
9588.00,0.71
9587.00,0.71
9586.00,0.71
9585.00,0.71
9584.00,0.71
9583.00,0.71
9582.00,0.71
9581.00,0.71
9580.00,0.71
9579.00,0.71
9578.00,0.72
9577.00,0.72
9576.00,0.72
9575.00,0.72
9574.00,0.72
9573.00,0.72
9572.00,0.72
9571.00,0.72
9570.00,0.72
9569.00,0.72
9568.00,0.72
9567.00,0.72
9566.00,0.72
9565.00,0.72
9564.00,0.72
9563.00,0.72
9562.00,0.72
9561.00,0.72
9560.00,0.73
9559.00,0.73
9558.00,0.73
9557.00,0.73
9556.00,0.73
9555.00,0.73
9554.00,0.73
9553.00,0.73
9552.00,0.73
9551.00,0.73
9550.00,0.73
9549.00,0.73
9548.00,0.73
9547.00,0.73
9546.00,0.73
9545.00,0.73
9544.00,0.73
9543.00,0.73
9542.00,0.73
9541.00,0.73
9540.00,0.73
9539.00,0.73
9538.00,0.73
9537.00,0.72
9536.00,0.72
9535.00,0.72
9534.00,0.72
9533.00,0.72
9532.00,0.72
9531.00,0.72
9530.00,0.72
9529.00,0.72
9528.00,0.72
9527.00,0.72
9526.00,0.72
9525.00,0.72
9524.00,0.73
9523.00,0.73
9522.00,0.73
9521.00,0.73
9520.00,0.73
9519.00,0.73
9518.00,0.73
9517.00,0.73
9516.00,0.73
9515.00,0.73
9514.00,0.73
9513.00,0.73
9512.00,0.73
9511.00,0.73
9510.00,0.74
9509.00,0.74
9508.00,0.74
9507.00,0.74
9506.00,0.74
9505.00,0.74
9504.00,0.74
9503.00,0.74
9502.00,0.74
9501.00,0.74
9500.00,0.73
9499.00,0.73
9498.00,0.73
9497.00,0.73
9496.00,0.73
9495.00,0.73
9494.00,0.72
9493.00,0.72
9492.00,0.72
9491.00,0.72
9490.00,0.72
9489.00,0.72
9488.00,0.72
9487.00,0.72
9486.00,0.72
9485.00,0.72
9484.00,0.72
9483.00,0.72
9482.00,0.72
9481.00,0.72
9480.00,0.72
9479.00,0.72
9478.00,0.72
9477.00,0.72
9476.00,0.72
9475.00,0.73
9474.00,0.73
9473.00,0.73
9472.00,0.73
9471.00,0.73
9470.00,0.73
9469.00,0.73
9468.00,0.73
9467.00,0.73
9466.00,0.72
9465.00,0.72
9464.00,0.72
9463.00,0.72
9462.00,0.72
9461.00,0.72
9460.00,0.71
9459.00,0.71
9458.00,0.71
9457.00,0.71
9456.00,0.71
9455.00,0.71
9454.00,0.71
9453.00,0.71
9452.00,0.71
9451.00,0.71
9450.00,0.71
9449.00,0.71
9448.00,0.71
9447.00,0.71
9446.00,0.71
9445.00,0.71
9444.00,0.71
9443.00,0.71
9442.00,0.71
9441.00,0.71
9440.00,0.72
9439.00,0.72
9438.00,0.72
9437.00,0.72
9436.00,0.72
9435.00,0.72
9434.00,0.72
9433.00,0.72
9432.00,0.73
9431.00,0.73
9430.00,0.73
9429.00,0.73
9428.00,0.73
9427.00,0.73
9426.00,0.73
9425.00,0.74
9424.00,0.74
9423.00,0.74
9422.00,0.74
9421.00,0.74
9420.00,0.74
9419.00,0.74
9418.00,0.74
9417.00,0.74
9416.00,0.74
9415.00,0.74
9414.00,0.74
9413.00,0.74
9412.00,0.74
9411.00,0.73
9410.00,0.73
9409.00,0.73
9408.00,0.73
9407.00,0.73
9406.00,0.73
9405.00,0.72
9404.00,0.72
9403.00,0.72
9402.00,0.72
9401.00,0.72
9400.00,0.72
9399.00,0.72
9398.00,0.72
9397.00,0.72
9396.00,0.72
9395.00,0.72
9394.00,0.72
9393.00,0.72
9392.00,0.71
9391.00,0.71
9390.00,0.71
9389.00,0.71
9388.00,0.71
9387.00,0.71
9386.00,0.71
9385.00,0.71
9384.00,0.71
9383.00,0.71
9382.00,0.71
9381.00,0.71
9380.00,0.71
9379.00,0.71
9378.00,0.71
9377.00,0.71
9376.00,0.71
9375.00,0.71
9374.00,0.71
9373.00,0.72
9372.00,0.72
9371.00,0.72
9370.00,0.72
9369.00,0.72
9368.00,0.72
9367.00,0.73
9366.00,0.73
9365.00,0.73
9364.00,0.73
9363.00,0.73
9362.00,0.74
9361.00,0.74
9360.00,0.74
9359.00,0.74
9358.00,0.74
9357.00,0.74
9356.00,0.74
9355.00,0.74
9354.00,0.74
9353.00,0.74
9352.00,0.74
9351.00,0.73
9350.00,0.73
9349.00,0.73
9348.00,0.73
9347.00,0.73
9346.00,0.73
9345.00,0.73
9344.00,0.73
9343.00,0.73
9342.00,0.73
9341.00,0.73
9340.00,0.73
9339.00,0.73
9338.00,0.73
9337.00,0.73
9336.00,0.73
9335.00,0.73
9334.00,0.73
9333.00,0.73
9332.00,0.73
9331.00,0.73
9330.00,0.73
9329.00,0.73
9328.00,0.74
9327.00,0.74
9326.00,0.74
9325.00,0.74
9324.00,0.74
9323.00,0.73
9322.00,0.73
9321.00,0.73
9320.00,0.73
9319.00,0.73
9318.00,0.73
9317.00,0.72
9316.00,0.72
9315.00,0.72
9314.00,0.72
9313.00,0.72
9312.00,0.71
9311.00,0.71
9310.00,0.71
9309.00,0.71
9308.00,0.71
9307.00,0.71
9306.00,0.71
9305.00,0.71
9304.00,0.71
9303.00,0.71
9302.00,0.71
9301.00,0.71
9300.00,0.71
9299.00,0.71
9298.00,0.71
9297.00,0.71
9296.00,0.71
9295.00,0.71
9294.00,0.71
9293.00,0.71
9292.00,0.71
9291.00,0.71
9290.00,0.71
9289.00,0.71
9288.00,0.71
9287.00,0.71
9286.00,0.71
9285.00,0.71
9284.00,0.71
9283.00,0.71
9282.00,0.71
9281.00,0.72
9280.00,0.72
9279.00,0.72
9278.00,0.72
9277.00,0.72
9276.00,0.73
9275.00,0.73
9274.00,0.73
9273.00,0.73
9272.00,0.73
9271.00,0.73
9270.00,0.73
9269.00,0.73
9268.00,0.73
9267.00,0.73
9266.00,0.73
9265.00,0.72
9264.00,0.72
9263.00,0.72
9262.00,0.72
9261.00,0.72
9260.00,0.71
9259.00,0.71
9258.00,0.71
9257.00,0.71
9256.00,0.71
9255.00,0.71
9254.00,0.71
9253.00,0.71
9252.00,0.71
9251.00,0.71
9250.00,0.71
9249.00,0.71
9248.00,0.72
9247.00,0.72
9246.00,0.72
9245.00,0.72
9244.00,0.72
9243.00,0.72
9242.00,0.72
9241.00,0.73
9240.00,0.73
9239.00,0.73
9238.00,0.73
9237.00,0.73
9236.00,0.73
9235.00,0.73
9234.00,0.73
9233.00,0.73
9232.00,0.73
9231.00,0.73
9230.00,0.73
9229.00,0.73
9228.00,0.72
9227.00,0.72
9226.00,0.72
9225.00,0.72
9224.00,0.72
9223.00,0.72
9222.00,0.72
9221.00,0.72
9220.00,0.72
9219.00,0.72
9218.00,0.72
9217.00,0.72
9216.00,0.72
9215.00,0.72
9214.00,0.72
9213.00,0.72
9212.00,0.72
9211.00,0.73
9210.00,0.73
9209.00,0.73
9208.00,0.73
9207.00,0.73
9206.00,0.73
9205.00,0.72
9204.00,0.72
9203.00,0.72
9202.00,0.72
9201.00,0.72
9200.00,0.72
9199.00,0.72
9198.00,0.72
9197.00,0.72
9196.00,0.72
9195.00,0.71
9194.00,0.71
9193.00,0.71
9192.00,0.71
9191.00,0.71
9190.00,0.71
9189.00,0.71
9188.00,0.71
9187.00,0.71
9186.00,0.71
9185.00,0.71
9184.00,0.71
9183.00,0.71
9182.00,0.71
9181.00,0.71
9180.00,0.71
9179.00,0.71
9178.00,0.72
9177.00,0.72
9176.00,0.72
9175.00,0.72
9174.00,0.72
9173.00,0.72
9172.00,0.73
9171.00,0.73
9170.00,0.73
9169.00,0.73
9168.00,0.73
9167.00,0.74
9166.00,0.74
9165.00,0.74
9164.00,0.74
9163.00,0.74
9162.00,0.74
9161.00,0.74
9160.00,0.74
9159.00,0.74
9158.00,0.75
9157.00,0.74
9156.00,0.74
9155.00,0.74
9154.00,0.74
9153.00,0.74
9152.00,0.74
9151.00,0.74
9150.00,0.74
9149.00,0.74
9148.00,0.74
9147.00,0.74
9146.00,0.74
9145.00,0.74
9144.00,0.74
9143.00,0.73
9142.00,0.73
9141.00,0.73
9140.00,0.73
9139.00,0.73
9138.00,0.73
9137.00,0.73
9136.00,0.73
9135.00,0.73
9134.00,0.73
9133.00,0.73
9132.00,0.73
9131.00,0.72
9130.00,0.72
9129.00,0.72
9128.00,0.72
9127.00,0.72
9126.00,0.72
9125.00,0.72
9124.00,0.72
9123.00,0.72
9122.00,0.72
9121.00,0.72
9120.00,0.72
9119.00,0.72
9118.00,0.72
9117.00,0.72
9116.00,0.73
9115.00,0.73
9114.00,0.73
9113.00,0.73
9112.00,0.73
9111.00,0.73
9110.00,0.73
9109.00,0.73
9108.00,0.73
9107.00,0.73
9106.00,0.73
9105.00,0.73
9104.00,0.73
9103.00,0.73
9102.00,0.73
9101.00,0.73
9100.00,0.73
9099.00,0.73
9098.00,0.73
9097.00,0.73
9096.00,0.73
9095.00,0.73
9094.00,0.73
9093.00,0.73
9092.00,0.73
9091.00,0.73
9090.00,0.73
9089.00,0.73
9088.00,0.73
9087.00,0.73
9086.00,0.73
9085.00,0.73
9084.00,0.73
9083.00,0.73
9082.00,0.73
9081.00,0.73
9080.00,0.73
9079.00,0.73
9078.00,0.72
9077.00,0.72
9076.00,0.72
9075.00,0.73
9074.00,0.73
9073.00,0.73
9072.00,0.73
9071.00,0.73
9070.00,0.73
9069.00,0.73
9068.00,0.73
9067.00,0.73
9066.00,0.73
9065.00,0.73
9064.00,0.73
9063.00,0.73
9062.00,0.73
9061.00,0.73
9060.00,0.73
9059.00,0.73
9058.00,0.73
9057.00,0.72
9056.00,0.72
9055.00,0.72
9054.00,0.72
9053.00,0.72
9052.00,0.72
9051.00,0.73
9050.00,0.73
9049.00,0.73
9048.00,0.73
9047.00,0.73
9046.00,0.73
9045.00,0.73
9044.00,0.73
9043.00,0.73
9042.00,0.73
9041.00,0.73
9040.00,0.73
9039.00,0.74
9038.00,0.74
9037.00,0.74
9036.00,0.74
9035.00,0.74
9034.00,0.74
9033.00,0.74
9032.00,0.74
9031.00,0.74
9030.00,0.74
9029.00,0.74
9028.00,0.74
9027.00,0.74
9026.00,0.74
9025.00,0.74
9024.00,0.74
9023.00,0.74
9022.00,0.74
9021.00,0.74
9020.00,0.74
9019.00,0.74
9018.00,0.74
9017.00,0.74
9016.00,0.74
9015.00,0.74
9014.00,0.74
9013.00,0.74
9012.00,0.74
9011.00,0.74
9010.00,0.74
9009.00,0.74
9008.00,0.74
9007.00,0.74
9006.00,0.74
9005.00,0.74
9004.00,0.74
9003.00,0.74
9002.00,0.74
9001.00,0.74
9000.00,0.74
8999.00,0.74
8998.00,0.74
8997.00,0.74
8996.00,0.74
8995.00,0.74
8994.00,0.74
8993.00,0.74
8992.00,0.74
8991.00,0.74
8990.00,0.74
8989.00,0.74
8988.00,0.74
8987.00,0.74
8986.00,0.74
8985.00,0.74
8984.00,0.74
8983.00,0.74
8982.00,0.74
8981.00,0.74
8980.00,0.74
8979.00,0.74
8978.00,0.74
8977.00,0.75
8976.00,0.75
8975.00,0.75
8974.00,0.75
8973.00,0.74
8972.00,0.74
8971.00,0.74
8970.00,0.74
8969.00,0.74
8968.00,0.74
8967.00,0.74
8966.00,0.74
8965.00,0.74
8964.00,0.73
8963.00,0.73
8962.00,0.73
8961.00,0.73
8960.00,0.73
8959.00,0.73
8958.00,0.73
8957.00,0.73
8956.00,0.73
8955.00,0.73
8954.00,0.73
8953.00,0.73
8952.00,0.73
8951.00,0.73
8950.00,0.73
8949.00,0.73
8948.00,0.73
8947.00,0.73
8946.00,0.73
8945.00,0.73
8944.00,0.73
8943.00,0.73
8942.00,0.73
8941.00,0.73
8940.00,0.73
8939.00,0.73
8938.00,0.73
8937.00,0.73
8936.00,0.73
8935.00,0.73
8934.00,0.74
8933.00,0.74
8932.00,0.74
8931.00,0.74
8930.00,0.74
8929.00,0.74
8928.00,0.74
8927.00,0.74
8926.00,0.74
8925.00,0.74
8924.00,0.74
8923.00,0.74
8922.00,0.74
8921.00,0.73
8920.00,0.73
8919.00,0.73
8918.00,0.73
8917.00,0.73
8916.00,0.73
8915.00,0.73
8914.00,0.73
8913.00,0.73
8912.00,0.72
8911.00,0.72
8910.00,0.72
8909.00,0.72
8908.00,0.72
8907.00,0.72
8906.00,0.72
8905.00,0.72
8904.00,0.72
8903.00,0.72
8902.00,0.72
8901.00,0.72
8900.00,0.72
8899.00,0.72
8898.00,0.73
8897.00,0.73
8896.00,0.73
8895.00,0.73
8894.00,0.73
8893.00,0.73
8892.00,0.73
8891.00,0.73
8890.00,0.73
8889.00,0.73
8888.00,0.73
8887.00,0.73
8886.00,0.73
8885.00,0.73
8884.00,0.73
8883.00,0.73
8882.00,0.74
8881.00,0.74
8880.00,0.74
8879.00,0.74
8878.00,0.74
8877.00,0.74
8876.00,0.74
8875.00,0.74
8874.00,0.74
8873.00,0.74
8872.00,0.74
8871.00,0.74
8870.00,0.74
8869.00,0.74
8868.00,0.74
8867.00,0.74
8866.00,0.74
8865.00,0.74
8864.00,0.74
8863.00,0.74
8862.00,0.74
8861.00,0.74
8860.00,0.74
8859.00,0.74
8858.00,0.74
8857.00,0.74
8856.00,0.74
8855.00,0.74
8854.00,0.74
8853.00,0.74
8852.00,0.74
8851.00,0.74
8850.00,0.74
8849.00,0.74
8848.00,0.74
8847.00,0.73
8846.00,0.73
8845.00,0.73
8844.00,0.73
8843.00,0.73
8842.00,0.73
8841.00,0.73
8840.00,0.73
8839.00,0.74
8838.00,0.74
8837.00,0.74
8836.00,0.74
8835.00,0.74
8834.00,0.74
8833.00,0.74
8832.00,0.74
8831.00,0.74
8830.00,0.74
8829.00,0.74
8828.00,0.74
8827.00,0.74
8826.00,0.74
8825.00,0.74
8824.00,0.74
8823.00,0.74
8822.00,0.74
8821.00,0.74
8820.00,0.73
8819.00,0.73
8818.00,0.73
8817.00,0.73
8816.00,0.73
8815.00,0.73
8814.00,0.73
8813.00,0.73
8812.00,0.73
8811.00,0.73
8810.00,0.73
8809.00,0.73
8808.00,0.73
8807.00,0.73
8806.00,0.73
8805.00,0.73
8804.00,0.73
8803.00,0.73
8802.00,0.73
8801.00,0.73
8800.00,0.73
8799.00,0.73
8798.00,0.73
8797.00,0.73
8796.00,0.73
8795.00,0.73
8794.00,0.73
8793.00,0.73
8792.00,0.73
8791.00,0.73
8790.00,0.73
8789.00,0.73
8788.00,0.73
8787.00,0.73
8786.00,0.73
8785.00,0.73
8784.00,0.73
8783.00,0.73
8782.00,0.72
8781.00,0.72
8780.00,0.72
8779.00,0.72
8778.00,0.72
8777.00,0.72
8776.00,0.72
8775.00,0.72
8774.00,0.72
8773.00,0.72
8772.00,0.72
8771.00,0.71
8770.00,0.71
8769.00,0.71
8768.00,0.71
8767.00,0.71
8766.00,0.71
8765.00,0.71
8764.00,0.71
8763.00,0.71
8762.00,0.71
8761.00,0.71
8760.00,0.71
8759.00,0.71
8758.00,0.71
8757.00,0.72
8756.00,0.72
8755.00,0.72
8754.00,0.72
8753.00,0.72
8752.00,0.72
8751.00,0.72
8750.00,0.72
8749.00,0.72
8748.00,0.72
8747.00,0.72
8746.00,0.72
8745.00,0.71
8744.00,0.71
8743.00,0.71
8742.00,0.71
8741.00,0.71
8740.00,0.71
8739.00,0.71
8738.00,0.71
8737.00,0.71
8736.00,0.71
8735.00,0.71
8734.00,0.71
8733.00,0.70
8732.00,0.70
8731.00,0.70
8730.00,0.70
8729.00,0.70
8728.00,0.70
8727.00,0.70
8726.00,0.70
8725.00,0.70
8724.00,0.70
8723.00,0.70
8722.00,0.69
8721.00,0.69
8720.00,0.69
8719.00,0.69
8718.00,0.69
8717.00,0.69
8716.00,0.69
8715.00,0.69
8714.00,0.69
8713.00,0.69
8712.00,0.69
8711.00,0.69
8710.00,0.69
8709.00,0.69
8708.00,0.69
8707.00,0.69
8706.00,0.69
8705.00,0.69
8704.00,0.69
8703.00,0.69
8702.00,0.69
8701.00,0.70
8700.00,0.70
8699.00,0.70
8698.00,0.70
8697.00,0.70
8696.00,0.70
8695.00,0.70
8694.00,0.70
8693.00,0.69
8692.00,0.69
8691.00,0.69
8690.00,0.69
8689.00,0.69
8688.00,0.69
8687.00,0.69
8686.00,0.69
8685.00,0.69
8684.00,0.69
8683.00,0.69
8682.00,0.69
8681.00,0.69
8680.00,0.69
8679.00,0.69
8678.00,0.69
8677.00,0.69
8676.00,0.69
8675.00,0.69
8674.00,0.70
8673.00,0.70
8672.00,0.70
8671.00,0.70
8670.00,0.70
8669.00,0.70
8668.00,0.70
8667.00,0.70
8666.00,0.70
8665.00,0.71
8664.00,0.71
8663.00,0.71
8662.00,0.71
8661.00,0.70
8660.00,0.70
8659.00,0.70
8658.00,0.70
8657.00,0.70
8656.00,0.70
8655.00,0.70
8654.00,0.70
8653.00,0.70
8652.00,0.70
8651.00,0.69
8650.00,0.69
8649.00,0.69
8648.00,0.69
8647.00,0.69
8646.00,0.69
8645.00,0.69
8644.00,0.69
8643.00,0.69
8642.00,0.69
8641.00,0.69
8640.00,0.69
8639.00,0.69
8638.00,0.69
8637.00,0.69
8636.00,0.69
8635.00,0.70
8634.00,0.70
8633.00,0.70
8632.00,0.70
8631.00,0.70
8630.00,0.70
8629.00,0.70
8628.00,0.70
8627.00,0.70
8626.00,0.70
8625.00,0.70
8624.00,0.70
8623.00,0.70
8622.00,0.70
8621.00,0.70
8620.00,0.70
8619.00,0.70
8618.00,0.70
8617.00,0.70
8616.00,0.70
8615.00,0.70
8614.00,0.70
8613.00,0.69
8612.00,0.69
8611.00,0.69
8610.00,0.69
8609.00,0.69
8608.00,0.69
8607.00,0.69
8606.00,0.68
8605.00,0.68
8604.00,0.68
8603.00,0.68
8602.00,0.68
8601.00,0.68
8600.00,0.68
8599.00,0.68
8598.00,0.68
8597.00,0.68
8596.00,0.68
8595.00,0.68
8594.00,0.68
8593.00,0.68
8592.00,0.68
8591.00,0.68
8590.00,0.68
8589.00,0.68
8588.00,0.68
8587.00,0.68
8586.00,0.68
8585.00,0.68
8584.00,0.68
8583.00,0.68
8582.00,0.68
8581.00,0.68
8580.00,0.68
8579.00,0.67
8578.00,0.67
8577.00,0.67
8576.00,0.67
8575.00,0.67
8574.00,0.67
8573.00,0.67
8572.00,0.67
8571.00,0.67
8570.00,0.67
8569.00,0.67
8568.00,0.67
8567.00,0.67
8566.00,0.67
8565.00,0.67
8564.00,0.67
8563.00,0.67
8562.00,0.67
8561.00,0.67
8560.00,0.67
8559.00,0.67
8558.00,0.67
8557.00,0.67
8556.00,0.67
8555.00,0.67
8554.00,0.67
8553.00,0.67
8552.00,0.67
8551.00,0.67
8550.00,0.67
8549.00,0.67
8548.00,0.67
8547.00,0.67
8546.00,0.67
8545.00,0.67
8544.00,0.68
8543.00,0.68
8542.00,0.68
8541.00,0.68
8540.00,0.68
8539.00,0.68
8538.00,0.68
8537.00,0.68
8536.00,0.68
8535.00,0.68
8534.00,0.68
8533.00,0.68
8532.00,0.68
8531.00,0.68
8530.00,0.68
8529.00,0.68
8528.00,0.68
8527.00,0.69
8526.00,0.68
8525.00,0.68
8524.00,0.68
8523.00,0.68
8522.00,0.68
8521.00,0.68
8520.00,0.68
8519.00,0.68
8518.00,0.68
8517.00,0.68
8516.00,0.68
8515.00,0.68
8514.00,0.68
8513.00,0.68
8512.00,0.68
8511.00,0.68
8510.00,0.68
8509.00,0.68
8508.00,0.68
8507.00,0.68
8506.00,0.68
8505.00,0.68
8504.00,0.68
8503.00,0.68
8502.00,0.68
8501.00,0.67
8500.00,0.67
8499.00,0.67
8498.00,0.67
8497.00,0.67
8496.00,0.67
8495.00,0.67
8494.00,0.67
8493.00,0.66
8492.00,0.66
8491.00,0.66
8490.00,0.66
8489.00,0.66
8488.00,0.66
8487.00,0.66
8486.00,0.66
8485.00,0.66
8484.00,0.66
8483.00,0.66
8482.00,0.65
8481.00,0.65
8480.00,0.65
8479.00,0.65
8478.00,0.65
8477.00,0.65
8476.00,0.65
8475.00,0.65
8474.00,0.65
8473.00,0.65
8472.00,0.65
8471.00,0.65
8470.00,0.65
8469.00,0.65
8468.00,0.65
8467.00,0.64
8466.00,0.64
8465.00,0.64
8464.00,0.64
8463.00,0.64
8462.00,0.64
8461.00,0.64
8460.00,0.64
8459.00,0.64
8458.00,0.64
8457.00,0.64
8456.00,0.64
8455.00,0.64
8454.00,0.64
8453.00,0.64
8452.00,0.64
8451.00,0.64
8450.00,0.64
8449.00,0.64
8448.00,0.64
8447.00,0.64
8446.00,0.64
8445.00,0.64
8444.00,0.64
8443.00,0.64
8442.00,0.64
8441.00,0.65
8440.00,0.65
8439.00,0.65
8438.00,0.65
8437.00,0.65
8436.00,0.65
8435.00,0.65
8434.00,0.65
8433.00,0.65
8432.00,0.65
8431.00,0.65
8430.00,0.65
8429.00,0.65
8428.00,0.65
8427.00,0.65
8426.00,0.65
8425.00,0.65
8424.00,0.65
8423.00,0.65
8422.00,0.65
8421.00,0.65
8420.00,0.65
8419.00,0.65
8418.00,0.65
8417.00,0.65
8416.00,0.65
8415.00,0.65
8414.00,0.65
8413.00,0.65
8412.00,0.65
8411.00,0.65
8410.00,0.65
8409.00,0.65
8408.00,0.65
8407.00,0.65
8406.00,0.65
8405.00,0.65
8404.00,0.65
8403.00,0.65
8402.00,0.65
8401.00,0.65
8400.00,0.65
8399.00,0.65
8398.00,0.65
8397.00,0.65
8396.00,0.66
8395.00,0.66
8394.00,0.66
8393.00,0.66
8392.00,0.66
8391.00,0.66
8390.00,0.66
8389.00,0.66
8388.00,0.66
8387.00,0.66
8386.00,0.66
8385.00,0.66
8384.00,0.66
8383.00,0.66
8382.00,0.66
8381.00,0.66
8380.00,0.66
8379.00,0.66
8378.00,0.67
8377.00,0.67
8376.00,0.67
8375.00,0.67
8374.00,0.67
8373.00,0.67
8372.00,0.67
8371.00,0.67
8370.00,0.67
8369.00,0.67
8368.00,0.67
8367.00,0.67
8366.00,0.67
8365.00,0.67
8364.00,0.67
8363.00,0.67
8362.00,0.67
8361.00,0.67
8360.00,0.67
8359.00,0.67
8358.00,0.67
8357.00,0.67
8356.00,0.67
8355.00,0.67
8354.00,0.67
8353.00,0.67
8352.00,0.67
8351.00,0.67
8350.00,0.67
8349.00,0.67
8348.00,0.67
8347.00,0.67
8346.00,0.67
8345.00,0.67
8344.00,0.67
8343.00,0.67
8342.00,0.67
8341.00,0.67
8340.00,0.67
8339.00,0.67
8338.00,0.67
8337.00,0.67
8336.00,0.66
8335.00,0.66
8334.00,0.66
8333.00,0.66
8332.00,0.66
8331.00,0.66
8330.00,0.66
8329.00,0.66
8328.00,0.66
8327.00,0.66
8326.00,0.66
8325.00,0.66
8324.00,0.66
8323.00,0.66
8322.00,0.66
8321.00,0.66
8320.00,0.66
8319.00,0.66
8318.00,0.66
8317.00,0.66
8316.00,0.66
8315.00,0.66
8314.00,0.66
8313.00,0.66
8312.00,0.66
8311.00,0.66
8310.00,0.66
8309.00,0.66
8308.00,0.66
8307.00,0.66
8306.00,0.66
8305.00,0.66
8304.00,0.67
8303.00,0.67
8302.00,0.67
8301.00,0.67
8300.00,0.67
8299.00,0.67
8298.00,0.67
8297.00,0.67
8296.00,0.67
8295.00,0.67
8294.00,0.67
8293.00,0.67
8292.00,0.67
8291.00,0.67
8290.00,0.67
8289.00,0.67
8288.00,0.67
8287.00,0.67
8286.00,0.67
8285.00,0.67
8284.00,0.67
8283.00,0.67
8282.00,0.67
8281.00,0.67
8280.00,0.67
8279.00,0.67
8278.00,0.67
8277.00,0.67
8276.00,0.67
8275.00,0.67
8274.00,0.67
8273.00,0.67
8272.00,0.67
8271.00,0.67
8270.00,0.67
8269.00,0.67
8268.00,0.67
8267.00,0.67
8266.00,0.67
8265.00,0.67
8264.00,0.67
8263.00,0.67
8262.00,0.67
8261.00,0.67
8260.00,0.67
8259.00,0.67
8258.00,0.67
8257.00,0.67
8256.00,0.67
8255.00,0.67
8254.00,0.67
8253.00,0.67
8252.00,0.67
8251.00,0.67
8250.00,0.67
8249.00,0.67
8248.00,0.67
8247.00,0.67
8246.00,0.67
8245.00,0.67
8244.00,0.67
8243.00,0.67
8242.00,0.67
8241.00,0.67
8240.00,0.67
8239.00,0.67
8238.00,0.67
8237.00,0.67
8236.00,0.68
8235.00,0.68
8234.00,0.68
8233.00,0.68
8232.00,0.68
8231.00,0.68
8230.00,0.68
8229.00,0.68
8228.00,0.68
8227.00,0.68
8226.00,0.68
8225.00,0.68
8224.00,0.68
8223.00,0.68
8222.00,0.68
8221.00,0.68
8220.00,0.68
8219.00,0.68
8218.00,0.68
8217.00,0.68
8216.00,0.68
8215.00,0.68
8214.00,0.68
8213.00,0.68
8212.00,0.68
8211.00,0.68
8210.00,0.68
8209.00,0.68
8208.00,0.68
8207.00,0.69
8206.00,0.69
8205.00,0.69
8204.00,0.69
8203.00,0.69
8202.00,0.69
8201.00,0.69
8200.00,0.69
8199.00,0.69
8198.00,0.69
8197.00,0.69
8196.00,0.70
8195.00,0.70
8194.00,0.70
8193.00,0.70
8192.00,0.70
8191.00,0.70
8190.00,0.70
8189.00,0.70
8188.00,0.70
8187.00,0.70
8186.00,0.70
8185.00,0.70
8184.00,0.70
8183.00,0.70
8182.00,0.70
8181.00,0.70
8180.00,0.70
8179.00,0.70
8178.00,0.70
8177.00,0.70
8176.00,0.70
8175.00,0.70
8174.00,0.70
8173.00,0.70
8172.00,0.70
8171.00,0.70
8170.00,0.70
8169.00,0.70
8168.00,0.70
8167.00,0.70
8166.00,0.70
8165.00,0.70
8164.00,0.70
8163.00,0.70
8162.00,0.70
8161.00,0.70
8160.00,0.70
8159.00,0.70
8158.00,0.70
8157.00,0.70
8156.00,0.70
8155.00,0.70
8154.00,0.70
8153.00,0.70
8152.00,0.70
8151.00,0.70
8150.00,0.70
8149.00,0.70
8148.00,0.70
8147.00,0.70
8146.00,0.70
8145.00,0.70
8144.00,0.70
8143.00,0.70
8142.00,0.70
8141.00,0.70
8140.00,0.70
8139.00,0.70
8138.00,0.70
8137.00,0.70
8136.00,0.70
8135.00,0.70
8134.00,0.70
8133.00,0.70
8132.00,0.70
8131.00,0.70
8130.00,0.70
8129.00,0.70
8128.00,0.70
8127.00,0.70
8126.00,0.70
8125.00,0.70
8124.00,0.70
8123.00,0.70
8122.00,0.70
8121.00,0.70
8120.00,0.70
8119.00,0.70
8118.00,0.71
8117.00,0.71
8116.00,0.71
8115.00,0.71
8114.00,0.71
8113.00,0.71
8112.00,0.71
8111.00,0.71
8110.00,0.71
8109.00,0.71
8108.00,0.71
8107.00,0.71
8106.00,0.71
8105.00,0.71
8104.00,0.71
8103.00,0.71
8102.00,0.71
8101.00,0.71
8100.00,0.71
8099.00,0.71
8098.00,0.71
8097.00,0.71
8096.00,0.71
8095.00,0.70
8094.00,0.70
8093.00,0.70
8092.00,0.70
8091.00,0.70
8090.00,0.70
8089.00,0.70
8088.00,0.70
8087.00,0.70
8086.00,0.70
8085.00,0.70
8084.00,0.70
8083.00,0.70
8082.00,0.71
8081.00,0.71
8080.00,0.71
8079.00,0.71
8078.00,0.71
8077.00,0.71
8076.00,0.71
8075.00,0.71
8074.00,0.71
8073.00,0.71
8072.00,0.71
8071.00,0.71
8070.00,0.71
8069.00,0.71
8068.00,0.71
8067.00,0.71
8066.00,0.71
8065.00,0.71
8064.00,0.71
8063.00,0.71
8062.00,0.71
8061.00,0.71
8060.00,0.72
8059.00,0.72
8058.00,0.72
8057.00,0.72
8056.00,0.72
8055.00,0.72
8054.00,0.72
8053.00,0.72
8052.00,0.72
8051.00,0.72
8050.00,0.72
8049.00,0.72
8048.00,0.72
8047.00,0.71
8046.00,0.71
8045.00,0.71
8044.00,0.71
8043.00,0.71
8042.00,0.71
8041.00,0.71
8040.00,0.71
8039.00,0.71
8038.00,0.71
8037.00,0.71
8036.00,0.71
8035.00,0.71
8034.00,0.71
8033.00,0.71
8032.00,0.71
8031.00,0.72
8030.00,0.72
8029.00,0.72
8028.00,0.72
8027.00,0.72
8026.00,0.72
8025.00,0.72
8024.00,0.72
8023.00,0.72
8022.00,0.72
8021.00,0.72
8020.00,0.72
8019.00,0.72
8018.00,0.72
8017.00,0.72
8016.00,0.72
8015.00,0.72
8014.00,0.72
8013.00,0.72
8012.00,0.72
8011.00,0.72
8010.00,0.72
8009.00,0.72
8008.00,0.72
8007.00,0.72
8006.00,0.72
8005.00,0.72
8004.00,0.72
8003.00,0.72
8002.00,0.72
8001.00,0.72
8000.00,0.72
7999.00,0.72
7998.00,0.72
7997.00,0.72
7996.00,0.72
7995.00,0.72
7994.00,0.72
7993.00,0.72
7992.00,0.72
7991.00,0.72
7990.00,0.72
7989.00,0.72
7988.00,0.72
7987.00,0.72
7986.00,0.72
7985.00,0.72
7984.00,0.72
7983.00,0.72
7982.00,0.72
7981.00,0.72
7980.00,0.73
7979.00,0.73
7978.00,0.73
7977.00,0.73
7976.00,0.73
7975.00,0.73
7974.00,0.73
7973.00,0.73
7972.00,0.73
7971.00,0.73
7970.00,0.73
7969.00,0.73
7968.00,0.73
7967.00,0.73
7966.00,0.73
7965.00,0.73
7964.00,0.73
7963.00,0.73
7962.00,0.73
7961.00,0.73
7960.00,0.73
7959.00,0.73
7958.00,0.73
7957.00,0.73
7956.00,0.73
7955.00,0.73
7954.00,0.73
7953.00,0.73
7952.00,0.73
7951.00,0.73
7950.00,0.73
7949.00,0.73
7948.00,0.73
7947.00,0.73
7946.00,0.73
7945.00,0.73
7944.00,0.73
7943.00,0.73
7942.00,0.73
7941.00,0.73
7940.00,0.73
7939.00,0.73
7938.00,0.73
7937.00,0.73
7936.00,0.73
7935.00,0.73
7934.00,0.74
7933.00,0.74
7932.00,0.74
7931.00,0.74
7930.00,0.74
7929.00,0.74
7928.00,0.74
7927.00,0.74
7926.00,0.74
7925.00,0.74
7924.00,0.74
7923.00,0.74
7922.00,0.74
7921.00,0.74
7920.00,0.74
7919.00,0.74
7918.00,0.74
7917.00,0.74
7916.00,0.74
7915.00,0.74
7914.00,0.74
7913.00,0.74
7912.00,0.74
7911.00,0.74
7910.00,0.74
7909.00,0.74
7908.00,0.74
7907.00,0.74
7906.00,0.74
7905.00,0.74
7904.00,0.74
7903.00,0.74
7902.00,0.74
7901.00,0.74
7900.00,0.74
7899.00,0.74
7898.00,0.74
7897.00,0.74
7896.00,0.74
7895.00,0.74
7894.00,0.74
7893.00,0.74
7892.00,0.74
7891.00,0.74
7890.00,0.74
7889.00,0.74
7888.00,0.74
7887.00,0.74
7886.00,0.74
7885.00,0.74
7884.00,0.74
7883.00,0.74
7882.00,0.74
7881.00,0.74
7880.00,0.74
7879.00,0.74
7878.00,0.74
7877.00,0.74
7876.00,0.74
7875.00,0.74
7874.00,0.74
7873.00,0.74
7872.00,0.74
7871.00,0.74
7870.00,0.74
7869.00,0.74
7868.00,0.74
7867.00,0.74
7866.00,0.74
7865.00,0.74
7864.00,0.73
7863.00,0.73
7862.00,0.73
7861.00,0.73
7860.00,0.73
7859.00,0.73
7858.00,0.73
7857.00,0.73
7856.00,0.73
7855.00,0.73
7854.00,0.73
7853.00,0.73
7852.00,0.73
7851.00,0.73
7850.00,0.73
7849.00,0.74
7848.00,0.74
7847.00,0.74
7846.00,0.74
7845.00,0.74
7844.00,0.74
7843.00,0.74
7842.00,0.74
7841.00,0.74
7840.00,0.74
7839.00,0.74
7838.00,0.74
7837.00,0.74
7836.00,0.74
7835.00,0.74
7834.00,0.74
7833.00,0.74
7832.00,0.74
7831.00,0.74
7830.00,0.74
7829.00,0.74
7828.00,0.74
7827.00,0.74
7826.00,0.74
7825.00,0.74
7824.00,0.74
7823.00,0.74
7822.00,0.74
7821.00,0.74
7820.00,0.74
7819.00,0.74
7818.00,0.74
7817.00,0.74
7816.00,0.74
7815.00,0.74
7814.00,0.74
7813.00,0.74
7812.00,0.74
7811.00,0.74
7810.00,0.74
7809.00,0.74
7808.00,0.74
7807.00,0.73
7806.00,0.73
7805.00,0.73
7804.00,0.73
7803.00,0.73
7802.00,0.73
7801.00,0.73
7800.00,0.74
7799.00,0.74
7798.00,0.74
7797.00,0.74
7796.00,0.74
7795.00,0.74
7794.00,0.74
7793.00,0.74
7792.00,0.74
7791.00,0.74
7790.00,0.74
7789.00,0.74
7788.00,0.74
7787.00,0.74
7786.00,0.74
7785.00,0.74
7784.00,0.74
7783.00,0.74
7782.00,0.74
7781.00,0.74
7780.00,0.74
7779.00,0.74
7778.00,0.74
7777.00,0.74
7776.00,0.74
7775.00,0.74
7774.00,0.74
7773.00,0.74
7772.00,0.74
7771.00,0.74
7770.00,0.74
7769.00,0.74
7768.00,0.74
7767.00,0.74
7766.00,0.74
7765.00,0.74
7764.00,0.74
7763.00,0.74
7762.00,0.74
7761.00,0.74
7760.00,0.74
7759.00,0.74
7758.00,0.74
7757.00,0.74
7756.00,0.74
7755.00,0.74
7754.00,0.74
7753.00,0.74
7752.00,0.74
7751.00,0.74
7750.00,0.74
7749.00,0.74
7748.00,0.74
7747.00,0.74
7746.00,0.74
7745.00,0.74
7744.00,0.74
7743.00,0.74
7742.00,0.74
7741.00,0.74
7740.00,0.74
7739.00,0.74
7738.00,0.74
7737.00,0.74
7736.00,0.74
7735.00,0.74
7734.00,0.74
7733.00,0.74
7732.00,0.74
7731.00,0.74
7730.00,0.74
7729.00,0.74
7728.00,0.74
7727.00,0.74
7726.00,0.74
7725.00,0.74
7724.00,0.74
7723.00,0.74
7722.00,0.74
7721.00,0.74
7720.00,0.74
7719.00,0.74
7718.00,0.74
7717.00,0.74
7716.00,0.74
7715.00,0.74
7714.00,0.74
7713.00,0.74
7712.00,0.74
7711.00,0.74
7710.00,0.74
7709.00,0.74
7708.00,0.74
7707.00,0.74
7706.00,0.74
7705.00,0.75
7704.00,0.75
7703.00,0.75
7702.00,0.75
7701.00,0.75
7700.00,0.75
7699.00,0.75
7698.00,0.75
7697.00,0.74
7696.00,0.74
7695.00,0.74
7694.00,0.74
7693.00,0.74
7692.00,0.74
7691.00,0.74
7690.00,0.74
7689.00,0.74
7688.00,0.74
7687.00,0.74
7686.00,0.74
7685.00,0.74
7684.00,0.74
7683.00,0.74
7682.00,0.74
7681.00,0.74
7680.00,0.74
7679.00,0.74
7678.00,0.74
7677.00,0.74
7676.00,0.74
7675.00,0.74
7674.00,0.74
7673.00,0.74
7672.00,0.74
7671.00,0.74
7670.00,0.74
7669.00,0.74
7668.00,0.74
7667.00,0.74
7666.00,0.74
7665.00,0.74
7664.00,0.74
7663.00,0.74
7662.00,0.74
7661.00,0.74
7660.00,0.75
7659.00,0.75
7658.00,0.75
7657.00,0.75
7656.00,0.75
7655.00,0.75
7654.00,0.75
7653.00,0.75
7652.00,0.75
7651.00,0.75
7650.00,0.75
7649.00,0.75
7648.00,0.75
7647.00,0.75
7646.00,0.74
7645.00,0.74
7644.00,0.74
7643.00,0.74
7642.00,0.74
7641.00,0.74
7640.00,0.74
7639.00,0.74
7638.00,0.74
7637.00,0.74
7636.00,0.74
7635.00,0.74
7634.00,0.74
7633.00,0.74
7632.00,0.74
7631.00,0.74
7630.00,0.74
7629.00,0.74
7628.00,0.74
7627.00,0.74
7626.00,0.74
7625.00,0.74
7624.00,0.74
7623.00,0.74
7622.00,0.74
7621.00,0.74
7620.00,0.74
7619.00,0.73
7618.00,0.73
7617.00,0.73
7616.00,0.73
7615.00,0.73
7614.00,0.73
7613.00,0.73
7612.00,0.73
7611.00,0.73
7610.00,0.73
7609.00,0.73
7608.00,0.73
7607.00,0.73
7606.00,0.73
7605.00,0.73
7604.00,0.73
7603.00,0.73
7602.00,0.73
7601.00,0.74
7600.00,0.74
7599.00,0.74
7598.00,0.74
7597.00,0.74
7596.00,0.74
7595.00,0.74
7594.00,0.74
7593.00,0.74
7592.00,0.74
7591.00,0.74
7590.00,0.74
7589.00,0.74
7588.00,0.74
7587.00,0.74
7586.00,0.74
7585.00,0.74
7584.00,0.74
7583.00,0.74
7582.00,0.74
7581.00,0.74
7580.00,0.74
7579.00,0.74
7578.00,0.74
7577.00,0.74
7576.00,0.74
7575.00,0.74
7574.00,0.74
7573.00,0.74
7572.00,0.74
7571.00,0.74
7570.00,0.74
7569.00,0.74
7568.00,0.74
7567.00,0.74
7566.00,0.74
7565.00,0.74
7564.00,0.74
7563.00,0.73
7562.00,0.73
7561.00,0.73
7560.00,0.73
7559.00,0.73
7558.00,0.73
7557.00,0.73
7556.00,0.73
7555.00,0.73
7554.00,0.73
7553.00,0.72
7552.00,0.72
7551.00,0.72
7550.00,0.72
7549.00,0.72
7548.00,0.72
7547.00,0.72
7546.00,0.72
7545.00,0.72
7544.00,0.72
7543.00,0.72
7542.00,0.72
7541.00,0.72
7540.00,0.72
7539.00,0.72
7538.00,0.72
7537.00,0.72
7536.00,0.72
7535.00,0.72
7534.00,0.72
7533.00,0.72
7532.00,0.72
7531.00,0.72
7530.00,0.72
7529.00,0.72
7528.00,0.72
7527.00,0.72
7526.00,0.72
7525.00,0.72
7524.00,0.72
7523.00,0.72
7522.00,0.72
7521.00,0.72
7520.00,0.72
7519.00,0.72
7518.00,0.72
7517.00,0.72
7516.00,0.72
7515.00,0.72
7514.00,0.72
7513.00,0.72
7512.00,0.72
7511.00,0.72
7510.00,0.72
7509.00,0.72
7508.00,0.72
7507.00,0.72
7506.00,0.72
7505.00,0.72
7504.00,0.72
7503.00,0.72
7502.00,0.71
7501.00,0.71
7500.00,0.71
7499.00,0.71
7498.00,0.71
7497.00,0.71
7496.00,0.71
7495.00,0.71
7494.00,0.71
7493.00,0.71
7492.00,0.71
7491.00,0.71
7490.00,0.71
7489.00,0.71
7488.00,0.71
7487.00,0.71
7486.00,0.71
7485.00,0.71
7484.00,0.71
7483.00,0.71
7482.00,0.71
7481.00,0.71
7480.00,0.71
7479.00,0.72
7478.00,0.72
7477.00,0.72
7476.00,0.72
7475.00,0.72
7474.00,0.72
7473.00,0.71
7472.00,0.71
7471.00,0.71
7470.00,0.71
7469.00,0.71
7468.00,0.71
7467.00,0.71
7466.00,0.71
7465.00,0.71
7464.00,0.71
7463.00,0.71
7462.00,0.71
7461.00,0.71
7460.00,0.71
7459.00,0.71
7458.00,0.71
7457.00,0.71
7456.00,0.71
7455.00,0.71
7454.00,0.70
7453.00,0.70
7452.00,0.70
7451.00,0.70
7450.00,0.70
7449.00,0.70
7448.00,0.70
7447.00,0.70
7446.00,0.70
7445.00,0.70
7444.00,0.70
7443.00,0.70
7442.00,0.70
7441.00,0.70
7440.00,0.70
7439.00,0.70
7438.00,0.70
7437.00,0.70
7436.00,0.69
7435.00,0.69
7434.00,0.69
7433.00,0.69
7432.00,0.69
7431.00,0.69
7430.00,0.69
7429.00,0.69
7428.00,0.69
7427.00,0.69
7426.00,0.69
7425.00,0.69
7424.00,0.69
7423.00,0.69
7422.00,0.69
7421.00,0.69
7420.00,0.69
7419.00,0.69
7418.00,0.69
7417.00,0.69
7416.00,0.69
7415.00,0.68
7414.00,0.68
7413.00,0.68
7412.00,0.68
7411.00,0.68
7410.00,0.68
7409.00,0.68
7408.00,0.68
7407.00,0.68
7406.00,0.68
7405.00,0.68
7404.00,0.68
7403.00,0.68
7402.00,0.68
7401.00,0.68
7400.00,0.68
7399.00,0.68
7398.00,0.68
7397.00,0.68
7396.00,0.68
7395.00,0.68
7394.00,0.68
7393.00,0.68
7392.00,0.68
7391.00,0.68
7390.00,0.68
7389.00,0.68
7388.00,0.68
7387.00,0.68
7386.00,0.67
7385.00,0.67
7384.00,0.67
7383.00,0.67
7382.00,0.67
7381.00,0.67
7380.00,0.67
7379.00,0.67
7378.00,0.67
7377.00,0.67
7376.00,0.66
7375.00,0.66
7374.00,0.66
7373.00,0.66
7372.00,0.66
7371.00,0.66
7370.00,0.66
7369.00,0.66
7368.00,0.66
7367.00,0.66
7366.00,0.66
7365.00,0.66
7364.00,0.66
7363.00,0.66
7362.00,0.66
7361.00,0.66
7360.00,0.66
7359.00,0.67
7358.00,0.67
7357.00,0.67
7356.00,0.67
7355.00,0.67
7354.00,0.67
7353.00,0.67
7352.00,0.67
7351.00,0.67
7350.00,0.67
7349.00,0.67
7348.00,0.67
7347.00,0.67
7346.00,0.67
7345.00,0.67
7344.00,0.67
7343.00,0.67
7342.00,0.67
7341.00,0.67
7340.00,0.66
7339.00,0.66
7338.00,0.66
7337.00,0.66
7336.00,0.66
7335.00,0.66
7334.00,0.66
7333.00,0.66
7332.00,0.66
7331.00,0.66
7330.00,0.66
7329.00,0.66
7328.00,0.66
7327.00,0.66
7326.00,0.66
7325.00,0.66
7324.00,0.66
7323.00,0.66
7322.00,0.66
7321.00,0.66
7320.00,0.66
7319.00,0.66
7318.00,0.66
7317.00,0.66
7316.00,0.67
7315.00,0.67
7314.00,0.67
7313.00,0.67
7312.00,0.67
7311.00,0.67
7310.00,0.67
7309.00,0.67
7308.00,0.67
7307.00,0.67
7306.00,0.67
7305.00,0.66
7304.00,0.66
7303.00,0.66
7302.00,0.66
7301.00,0.66
7300.00,0.66
7299.00,0.66
7298.00,0.66
7297.00,0.66
7296.00,0.65
7295.00,0.65
7294.00,0.65
7293.00,0.65
7292.00,0.65
7291.00,0.65
7290.00,0.65
7289.00,0.64
7288.00,0.64
7287.00,0.64
7286.00,0.64
7285.00,0.64
7284.00,0.64
7283.00,0.64
7282.00,0.64
7281.00,0.64
7280.00,0.64
7279.00,0.64
7278.00,0.64
7277.00,0.64
7276.00,0.64
7275.00,0.63
7274.00,0.63
7273.00,0.63
7272.00,0.63
7271.00,0.63
7270.00,0.63
7269.00,0.63
7268.00,0.63
7267.00,0.63
7266.00,0.63
7265.00,0.63
7264.00,0.63
7263.00,0.63
7262.00,0.62
7261.00,0.62
7260.00,0.62
7259.00,0.62
7258.00,0.62
7257.00,0.62
7256.00,0.62
7255.00,0.61
7254.00,0.61
7253.00,0.61
7252.00,0.61
7251.00,0.61
7250.00,0.61
7249.00,0.61
7248.00,0.60
7247.00,0.60
7246.00,0.60
7245.00,0.60
7244.00,0.60
7243.00,0.60
7242.00,0.60
7241.00,0.59
7240.00,0.59
7239.00,0.59
7238.00,0.59
7237.00,0.59
7236.00,0.59
7235.00,0.59
7234.00,0.58
7233.00,0.58
7232.00,0.58
7231.00,0.58
7230.00,0.58
7229.00,0.58
7228.00,0.57
7227.00,0.57
7226.00,0.57
7225.00,0.57
7224.00,0.57
7223.00,0.56
7222.00,0.56
7221.00,0.56
7220.00,0.56
7219.00,0.56
7218.00,0.55
7217.00,0.55
7216.00,0.55
7215.00,0.55
7214.00,0.54
7213.00,0.54
7212.00,0.54
7211.00,0.54
7210.00,0.53
7209.00,0.53
7208.00,0.53
7207.00,0.53
7206.00,0.52
7205.00,0.52
7204.00,0.52
7203.00,0.52
7202.00,0.51
7201.00,0.51
7200.00,0.51
7199.00,0.51
7198.00,0.51
7197.00,0.50
7196.00,0.50
7195.00,0.50
7194.00,0.50
7193.00,0.50
7192.00,0.50
7191.00,0.50
7190.00,0.49
7189.00,0.49
7188.00,0.49
7187.00,0.49
7186.00,0.49
7185.00,0.49
7184.00,0.48
7183.00,0.48
7182.00,0.48
7181.00,0.48
7180.00,0.48
7179.00,0.48
7178.00,0.47
7177.00,0.47
7176.00,0.47
7175.00,0.47
7174.00,0.47
7173.00,0.47
7172.00,0.47
7171.00,0.47
7170.00,0.46
7169.00,0.46
7168.00,0.46
7167.00,0.46
7166.00,0.46
7165.00,0.46
7164.00,0.46
7163.00,0.46
7162.00,0.46
7161.00,0.45
7160.00,0.45
7159.00,0.45
7158.00,0.45
7157.00,0.45
7156.00,0.45
7155.00,0.44
7154.00,0.44
7153.00,0.44
7152.00,0.44
7151.00,0.44
7150.00,0.43
7149.00,0.43
7148.00,0.43
7147.00,0.43
7146.00,0.42
7145.00,0.42
7144.00,0.42
7143.00,0.42
7142.00,0.42
7141.00,0.41
7140.00,0.41
7139.00,0.41
7138.00,0.41
7137.00,0.41
7136.00,0.40
7135.00,0.40
7134.00,0.40
7133.00,0.40
7132.00,0.40
7131.00,0.40
7130.00,0.40
7129.00,0.39
7128.00,0.39
7127.00,0.39
7126.00,0.39
7125.00,0.39
7124.00,0.39
7123.00,0.39
7122.00,0.39
7121.00,0.39
7120.00,0.38
7119.00,0.38
7118.00,0.38
7117.00,0.38
7116.00,0.38
7115.00,0.38
7114.00,0.38
7113.00,0.37
7112.00,0.37
7111.00,0.37
7110.00,0.37
7109.00,0.37
7108.00,0.37
7107.00,0.37
7106.00,0.37
7105.00,0.36
7104.00,0.36
7103.00,0.36
7102.00,0.36
7101.00,0.36
7100.00,0.36
7099.00,0.36
7098.00,0.36
7097.00,0.36
7096.00,0.36
7095.00,0.35
7094.00,0.35
7093.00,0.35
7092.00,0.35
7091.00,0.35
7090.00,0.35
7089.00,0.35
7088.00,0.35
7087.00,0.35
7086.00,0.35
7085.00,0.35
7084.00,0.35
7083.00,0.35
7082.00,0.34
7081.00,0.34
7080.00,0.34
7079.00,0.34
7078.00,0.34
7077.00,0.34
7076.00,0.34
7075.00,0.34
7074.00,0.34
7073.00,0.34
7072.00,0.34
7071.00,0.34
7070.00,0.34
7069.00,0.34
7068.00,0.34
7067.00,0.34
7066.00,0.34
7065.00,0.34
7064.00,0.33
7063.00,0.33
7062.00,0.33
7061.00,0.33
7060.00,0.33
7059.00,0.33
7058.00,0.33
7057.00,0.33
7056.00,0.33
7055.00,0.33
7054.00,0.33
7053.00,0.33
7052.00,0.33
7051.00,0.33
7050.00,0.33
7049.00,0.33
7048.00,0.33
7047.00,0.33
7046.00,0.33
7045.00,0.33
7044.00,0.33
7043.00,0.33
7042.00,0.33
7041.00,0.33
7040.00,0.33
7039.00,0.33
7038.00,0.33
7037.00,0.33
7036.00,0.33
7035.00,0.33
7034.00,0.33
7033.00,0.33
7032.00,0.33
7031.00,0.33
7030.00,0.33
7029.00,0.33
7028.00,0.33
7027.00,0.33
7026.00,0.33
7025.00,0.33
7024.00,0.33
7023.00,0.33
7022.00,0.33
7021.00,0.33
7020.00,0.32
7019.00,0.32
7018.00,0.32
7017.00,0.32
7016.00,0.32
7015.00,0.32
7014.00,0.32
7013.00,0.32
7012.00,0.32
7011.00,0.32
7010.00,0.32
7009.00,0.32
7008.00,0.32
7007.00,0.32
7006.00,0.32
7005.00,0.32
7004.00,0.32
7003.00,0.32
7002.00,0.32
7001.00,0.32
7000.00,0.32
6999.00,0.32
6998.00,0.32
6997.00,0.32
6996.00,0.31
6995.00,0.31
6994.00,0.31
6993.00,0.31
6992.00,0.31
6991.00,0.31
6990.00,0.31
6989.00,0.31
6988.00,0.31
6987.00,0.31
6986.00,0.31
6985.00,0.31
6984.00,0.31
6983.00,0.31
6982.00,0.31
6981.00,0.31
6980.00,0.31
6979.00,0.31
6978.00,0.31
6977.00,0.31
6976.00,0.31
6975.00,0.31
6974.00,0.31
6973.00,0.31
6972.00,0.31
6971.00,0.31
6970.00,0.31
6969.00,0.31
6968.00,0.31
6967.00,0.31
6966.00,0.31
6965.00,0.31
6964.00,0.31
6963.00,0.31
6962.00,0.31
6961.00,0.31
6960.00,0.31
6959.00,0.31
6958.00,0.31
6957.00,0.31
6956.00,0.31
6955.00,0.31
6954.00,0.31
6953.00,0.31
6952.00,0.31
6951.00,0.31
6950.00,0.31
6949.00,0.31
6948.00,0.31
6947.00,0.31
6946.00,0.31
6945.00,0.31
6944.00,0.31
6943.00,0.31
6942.00,0.31
6941.00,0.31
6940.00,0.31
6939.00,0.31
6938.00,0.31
6937.00,0.31
6936.00,0.31
6935.00,0.31
6934.00,0.31
6933.00,0.31
6932.00,0.31
6931.00,0.31
6930.00,0.31
6929.00,0.31
6928.00,0.31
6927.00,0.31
6926.00,0.31
6925.00,0.31
6924.00,0.31
6923.00,0.31
6922.00,0.31
6921.00,0.31
6920.00,0.31
6919.00,0.31
6918.00,0.31
6917.00,0.31
6916.00,0.31
6915.00,0.31
6914.00,0.31
6913.00,0.31
6912.00,0.31
6911.00,0.31
6910.00,0.31
6909.00,0.31
6908.00,0.31
6907.00,0.31
6906.00,0.31
6905.00,0.31
6904.00,0.31
6903.00,0.31
6902.00,0.31
6901.00,0.31
6900.00,0.31
6899.00,0.31
6898.00,0.31
6897.00,0.31
6896.00,0.31
6895.00,0.31
6894.00,0.31
6893.00,0.31
6892.00,0.31
6891.00,0.31
6890.00,0.31
6889.00,0.31
6888.00,0.31
6887.00,0.31
6886.00,0.31
6885.00,0.31
6884.00,0.31
6883.00,0.31
6882.00,0.31
6881.00,0.31
6880.00,0.31
6879.00,0.31
6878.00,0.31
6877.00,0.31
6876.00,0.31
6875.00,0.31
6874.00,0.31
6873.00,0.31
6872.00,0.31
6871.00,0.31
6870.00,0.31
6869.00,0.31
6868.00,0.31
6867.00,0.31
6866.00,0.31
6865.00,0.31
6864.00,0.31
6863.00,0.31
6862.00,0.31
6861.00,0.31
6860.00,0.31
6859.00,0.31
6858.00,0.31
6857.00,0.31
6856.00,0.31
6855.00,0.31
6854.00,0.31
6853.00,0.31
6852.00,0.31
6851.00,0.31
6850.00,0.31
6849.00,0.31
6848.00,0.31
6847.00,0.31
6846.00,0.31
6845.00,0.31
6844.00,0.31
6843.00,0.31
6842.00,0.31
6841.00,0.31
6840.00,0.31
6839.00,0.31
6838.00,0.31
6837.00,0.32
6836.00,0.32
6835.00,0.32
6834.00,0.32
6833.00,0.32
6832.00,0.32
6831.00,0.32
6830.00,0.31
6829.00,0.31
6828.00,0.31
6827.00,0.31
6826.00,0.31
6825.00,0.31
6824.00,0.31
6823.00,0.31
6822.00,0.31
6821.00,0.31
6820.00,0.31
6819.00,0.31
6818.00,0.31
6817.00,0.31
6816.00,0.31
6815.00,0.31
6814.00,0.31
6813.00,0.31
6812.00,0.31
6811.00,0.31
6810.00,0.31
6809.00,0.31
6808.00,0.31
6807.00,0.31
6806.00,0.31
6805.00,0.31
6804.00,0.31
6803.00,0.31
6802.00,0.31
6801.00,0.32
6800.00,0.32
6799.00,0.32
6798.00,0.32
6797.00,0.32
6796.00,0.32
6795.00,0.32
6794.00,0.32
6793.00,0.32
6792.00,0.32
6791.00,0.32
6790.00,0.32
6789.00,0.32
6788.00,0.32
6787.00,0.32
6786.00,0.32
6785.00,0.32
6784.00,0.32
6783.00,0.32
6782.00,0.32
6781.00,0.32
6780.00,0.32
6779.00,0.32
6778.00,0.32
6777.00,0.32
6776.00,0.32
6775.00,0.32
6774.00,0.32
6773.00,0.32
6772.00,0.32
6771.00,0.32
6770.00,0.32
6769.00,0.32
6768.00,0.32
6767.00,0.32
6766.00,0.32
6765.00,0.32
6764.00,0.32
6763.00,0.32
6762.00,0.32
6761.00,0.33
6760.00,0.33
6759.00,0.33
6758.00,0.33
6757.00,0.33
6756.00,0.33
6755.00,0.33
6754.00,0.33
6753.00,0.33
6752.00,0.33
6751.00,0.33
6750.00,0.33
6749.00,0.33
6748.00,0.33
6747.00,0.33
6746.00,0.33
6745.00,0.33
6744.00,0.33
6743.00,0.33
6742.00,0.34
6741.00,0.34
6740.00,0.34
6739.00,0.34
6738.00,0.34
6737.00,0.34
6736.00,0.34
6735.00,0.34
6734.00,0.34
6733.00,0.34
6732.00,0.34
6731.00,0.34
6730.00,0.34
6729.00,0.34
6728.00,0.34
6727.00,0.34
6726.00,0.34
6725.00,0.34
6724.00,0.34
6723.00,0.34
6722.00,0.34
6721.00,0.34
6720.00,0.34
6719.00,0.34
6718.00,0.34
6717.00,0.34
6716.00,0.34
6715.00,0.34
6714.00,0.34
6713.00,0.34
6712.00,0.34
6711.00,0.34
6710.00,0.34
6709.00,0.34
6708.00,0.34
6707.00,0.34
6706.00,0.34
6705.00,0.34
6704.00,0.34
6703.00,0.34
6702.00,0.34
6701.00,0.34
6700.00,0.34
6699.00,0.34
6698.00,0.35
6697.00,0.35
6696.00,0.35
6695.00,0.35
6694.00,0.35
6693.00,0.35
6692.00,0.35
6691.00,0.35
6690.00,0.35
6689.00,0.35
6688.00,0.35
6687.00,0.35
6686.00,0.35
6685.00,0.35
6684.00,0.35
6683.00,0.35
6682.00,0.35
6681.00,0.35
6680.00,0.35
6679.00,0.35
6678.00,0.35
6677.00,0.35
6676.00,0.36
6675.00,0.36
6674.00,0.36
6673.00,0.36
6672.00,0.36
6671.00,0.36
6670.00,0.36
6669.00,0.36
6668.00,0.36
6667.00,0.36
6666.00,0.36
6665.00,0.36
6664.00,0.36
6663.00,0.36
6662.00,0.36
6661.00,0.36
6660.00,0.36
6659.00,0.36
6658.00,0.36
6657.00,0.36
6656.00,0.36
6655.00,0.36
6654.00,0.37
6653.00,0.37
6652.00,0.37
6651.00,0.37
6650.00,0.37
6649.00,0.37
6648.00,0.37
6647.00,0.37
6646.00,0.37
6645.00,0.37
6644.00,0.37
6643.00,0.37
6642.00,0.37
6641.00,0.37
6640.00,0.37
6639.00,0.37
6638.00,0.37
6637.00,0.37
6636.00,0.37
6635.00,0.37
6634.00,0.37
6633.00,0.37
6632.00,0.37
6631.00,0.37
6630.00,0.37
6629.00,0.37
6628.00,0.37
6627.00,0.37
6626.00,0.37
6625.00,0.37
6624.00,0.37
6623.00,0.37
6622.00,0.37
6621.00,0.37
6620.00,0.37
6619.00,0.37
6618.00,0.37
6617.00,0.38
6616.00,0.38
6615.00,0.38
6614.00,0.38
6613.00,0.38
6612.00,0.38
6611.00,0.38
6610.00,0.38
6609.00,0.38
6608.00,0.38
6607.00,0.38
6606.00,0.38
6605.00,0.38
6604.00,0.38
6603.00,0.38
6602.00,0.38
6601.00,0.38
6600.00,0.39
6599.00,0.39
6598.00,0.39
6597.00,0.39
6596.00,0.39
6595.00,0.39
6594.00,0.39
6593.00,0.39
6592.00,0.39
6591.00,0.39
6590.00,0.39
6589.00,0.39
6588.00,0.39
6587.00,0.39
6586.00,0.40
6585.00,0.40
6584.00,0.40
6583.00,0.40
6582.00,0.40
6581.00,0.40
6580.00,0.40
6579.00,0.40
6578.00,0.40
6577.00,0.40
6576.00,0.40
6575.00,0.40
6574.00,0.40
6573.00,0.40
6572.00,0.40
6571.00,0.40
6570.00,0.40
6569.00,0.40
6568.00,0.40
6567.00,0.40
6566.00,0.40
6565.00,0.40
6564.00,0.40
6563.00,0.40
6562.00,0.40
6561.00,0.40
6560.00,0.41
6559.00,0.41
6558.00,0.41
6557.00,0.41
6556.00,0.41
6555.00,0.41
6554.00,0.41
6553.00,0.41
6552.00,0.41
6551.00,0.41
6550.00,0.41
6549.00,0.41
6548.00,0.41
6547.00,0.41
6546.00,0.41
6545.00,0.41
6544.00,0.41
6543.00,0.41
6542.00,0.41
6541.00,0.41
6540.00,0.41
6539.00,0.41
6538.00,0.41
6537.00,0.42
6536.00,0.42
6535.00,0.42
6534.00,0.42
6533.00,0.42
6532.00,0.42
6531.00,0.42
6530.00,0.42
6529.00,0.42
6528.00,0.42
6527.00,0.42
6526.00,0.42
6525.00,0.42
6524.00,0.42
6523.00,0.42
6522.00,0.42
6521.00,0.42
6520.00,0.42
6519.00,0.42
6518.00,0.42
6517.00,0.42
6516.00,0.42
6515.00,0.42
6514.00,0.42
6513.00,0.42
6512.00,0.42
6511.00,0.42
6510.00,0.42
6509.00,0.42
6508.00,0.42
6507.00,0.42
6506.00,0.43
6505.00,0.43
6504.00,0.43
6503.00,0.43
6502.00,0.43
6501.00,0.43
6500.00,0.43
6499.00,0.43
6498.00,0.43
6497.00,0.43
6496.00,0.43
6495.00,0.43
6494.00,0.43
6493.00,0.43
6492.00,0.43
6491.00,0.44
6490.00,0.44
6489.00,0.44
6488.00,0.44
6487.00,0.44
6486.00,0.44
6485.00,0.44
6484.00,0.44
6483.00,0.44
6482.00,0.44
6481.00,0.44
6480.00,0.44
6479.00,0.44
6478.00,0.44
6477.00,0.44
6476.00,0.44
6475.00,0.45
6474.00,0.45
6473.00,0.45
6472.00,0.45
6471.00,0.45
6470.00,0.45
6469.00,0.45
6468.00,0.45
6467.00,0.45
6466.00,0.45
6465.00,0.45
6464.00,0.45
6463.00,0.45
6462.00,0.45
6461.00,0.45
6460.00,0.45
6459.00,0.45
6458.00,0.45
6457.00,0.45
6456.00,0.45
6455.00,0.46
6454.00,0.46
6453.00,0.46
6452.00,0.46
6451.00,0.46
6450.00,0.46
6449.00,0.46
6448.00,0.46
6447.00,0.46
6446.00,0.46
6445.00,0.46
6444.00,0.46
6443.00,0.46
6442.00,0.46
6441.00,0.46
6440.00,0.46
6439.00,0.46
6438.00,0.46
6437.00,0.46
6436.00,0.46
6435.00,0.46
6434.00,0.46
6433.00,0.46
6432.00,0.46
6431.00,0.46
6430.00,0.46
6429.00,0.46
6428.00,0.46
6427.00,0.46
6426.00,0.47
6425.00,0.47
6424.00,0.47
6423.00,0.47
6422.00,0.47
6421.00,0.47
6420.00,0.47
6419.00,0.47
6418.00,0.47
6417.00,0.47
6416.00,0.47
6415.00,0.47
6414.00,0.47
6413.00,0.47
6412.00,0.47
6411.00,0.47
6410.00,0.47
6409.00,0.47
6408.00,0.47
6407.00,0.47
6406.00,0.47
6405.00,0.47
6404.00,0.47
6403.00,0.47
6402.00,0.47
6401.00,0.47
6400.00,0.47
6399.00,0.47
6398.00,0.47
6397.00,0.47
6396.00,0.47
6395.00,0.47
6394.00,0.47
6393.00,0.47
6392.00,0.48
6391.00,0.48
6390.00,0.48
6389.00,0.48
6388.00,0.48
6387.00,0.48
6386.00,0.48
6385.00,0.48
6384.00,0.48
6383.00,0.48
6382.00,0.48
6381.00,0.48
6380.00,0.48
6379.00,0.48
6378.00,0.48
6377.00,0.48
6376.00,0.48
6375.00,0.48
6374.00,0.48
6373.00,0.48
6372.00,0.48
6371.00,0.48
6370.00,0.49
6369.00,0.49
6368.00,0.49
6367.00,0.49
6366.00,0.49
6365.00,0.49
6364.00,0.49
6363.00,0.49
6362.00,0.49
6361.00,0.49
6360.00,0.49
6359.00,0.50
6358.00,0.50
6357.00,0.50
6356.00,0.50
6355.00,0.50
6354.00,0.50
6353.00,0.50
6352.00,0.50
6351.00,0.50
6350.00,0.50
6349.00,0.50
6348.00,0.50
6347.00,0.50
6346.00,0.50
6345.00,0.50
6344.00,0.50
6343.00,0.50
6342.00,0.50
6341.00,0.50
6340.00,0.50
6339.00,0.50
6338.00,0.50
6337.00,0.50
6336.00,0.50
6335.00,0.50
6334.00,0.50
6333.00,0.50
6332.00,0.50
6331.00,0.50
6330.00,0.50
6329.00,0.50
6328.00,0.50
6327.00,0.50
6326.00,0.50
6325.00,0.50
6324.00,0.51
6323.00,0.51
6322.00,0.51
6321.00,0.51
6320.00,0.51
6319.00,0.51
6318.00,0.51
6317.00,0.51
6316.00,0.51
6315.00,0.51
6314.00,0.51
6313.00,0.51
6312.00,0.51
6311.00,0.51
6310.00,0.52
6309.00,0.52
6308.00,0.52
6307.00,0.52
6306.00,0.52
6305.00,0.52
6304.00,0.52
6303.00,0.52
6302.00,0.52
6301.00,0.52
6300.00,0.52
6299.00,0.52
6298.00,0.52
6297.00,0.52
6296.00,0.53
6295.00,0.53
6294.00,0.53
6293.00,0.53
6292.00,0.53
6291.00,0.53
6290.00,0.53
6289.00,0.53
6288.00,0.53
6287.00,0.53
6286.00,0.53
6285.00,0.53
6284.00,0.53
6283.00,0.53
6282.00,0.53
6281.00,0.53
6280.00,0.54
6279.00,0.54
6278.00,0.54
6277.00,0.54
6276.00,0.54
6275.00,0.54
6274.00,0.54
6273.00,0.54
6272.00,0.54
6271.00,0.54
6270.00,0.54
6269.00,0.54
6268.00,0.54
6267.00,0.54
6266.00,0.54
6265.00,0.54
6264.00,0.54
6263.00,0.54
6262.00,0.55
6261.00,0.55
6260.00,0.55
6259.00,0.55
6258.00,0.55
6257.00,0.55
6256.00,0.55
6255.00,0.55
6254.00,0.55
6253.00,0.55
6252.00,0.55
6251.00,0.55
6250.00,0.55
6249.00,0.55
6248.00,0.56
6247.00,0.56
6246.00,0.56
6245.00,0.56
6244.00,0.56
6243.00,0.56
6242.00,0.56
6241.00,0.56
6240.00,0.56
6239.00,0.56
6238.00,0.57
6237.00,0.57
6236.00,0.57
6235.00,0.57
6234.00,0.57
6233.00,0.57
6232.00,0.57
6231.00,0.57
6230.00,0.57
6229.00,0.57
6228.00,0.57
6227.00,0.57
6226.00,0.58
6225.00,0.58
6224.00,0.58
6223.00,0.58
6222.00,0.58
6221.00,0.58
6220.00,0.58
6219.00,0.58
6218.00,0.58
6217.00,0.58
6216.00,0.58
6215.00,0.58
6214.00,0.58
6213.00,0.58
6212.00,0.58
6211.00,0.58
6210.00,0.58
6209.00,0.58
6208.00,0.58
6207.00,0.58
6206.00,0.58
6205.00,0.59
6204.00,0.59
6203.00,0.59
6202.00,0.59
6201.00,0.59
6200.00,0.59
6199.00,0.59
6198.00,0.59
6197.00,0.59
6196.00,0.59
6195.00,0.59
6194.00,0.59
6193.00,0.59
6192.00,0.59
6191.00,0.59
6190.00,0.60
6189.00,0.60
6188.00,0.60
6187.00,0.60
6186.00,0.60
6185.00,0.60
6184.00,0.60
6183.00,0.60
6182.00,0.60
6181.00,0.60
6180.00,0.60
6179.00,0.60
6178.00,0.61
6177.00,0.61
6176.00,0.61
6175.00,0.61
6174.00,0.61
6173.00,0.61
6172.00,0.61
6171.00,0.61
6170.00,0.61
6169.00,0.61
6168.00,0.61
6167.00,0.61
6166.00,0.61
6165.00,0.61
6164.00,0.61
6163.00,0.61
6162.00,0.61
6161.00,0.61
6160.00,0.61
6159.00,0.62
6158.00,0.62
6157.00,0.62
6156.00,0.62
6155.00,0.62
6154.00,0.62
6153.00,0.62
6152.00,0.62
6151.00,0.62
6150.00,0.62
6149.00,0.62
6148.00,0.62
6147.00,0.62
6146.00,0.62
6145.00,0.63
6144.00,0.63
6143.00,0.63
6142.00,0.63
6141.00,0.63
6140.00,0.63
6139.00,0.63
6138.00,0.63
6137.00,0.63
6136.00,0.63
6135.00,0.64
6134.00,0.64
6133.00,0.64
6132.00,0.64
6131.00,0.64
6130.00,0.64
6129.00,0.64
6128.00,0.64
6127.00,0.64
6126.00,0.65
6125.00,0.65
6124.00,0.65
6123.00,0.65
6122.00,0.65
6121.00,0.65
6120.00,0.65
6119.00,0.65
6118.00,0.65
6117.00,0.65
6116.00,0.65
6115.00,0.65
6114.00,0.66
6113.00,0.66
6112.00,0.66
6111.00,0.66
6110.00,0.66
6109.00,0.66
6108.00,0.66
6107.00,0.66
6106.00,0.66
6105.00,0.66
6104.00,0.66
6103.00,0.66
6102.00,0.66
6101.00,0.66
6100.00,0.66
6099.00,0.67
6098.00,0.67
6097.00,0.67
6096.00,0.67
6095.00,0.67
6094.00,0.67
6093.00,0.67
6092.00,0.67
6091.00,0.67
6090.00,0.67
6089.00,0.67
6088.00,0.67
6087.00,0.67
6086.00,0.67
6085.00,0.67
6084.00,0.67
6083.00,0.67
6082.00,0.67
6081.00,0.67
6080.00,0.68
6079.00,0.68
6078.00,0.68
6077.00,0.68
6076.00,0.68
6075.00,0.68
6074.00,0.68
6073.00,0.68
6072.00,0.68
6071.00,0.68
6070.00,0.68
6069.00,0.68
6068.00,0.68
6067.00,0.68
6066.00,0.69
6065.00,0.69
6064.00,0.69
6063.00,0.69
6062.00,0.69
6061.00,0.69
6060.00,0.69
6059.00,0.69
6058.00,0.69
6057.00,0.69
6056.00,0.69
6055.00,0.69
6054.00,0.69
6053.00,0.69
6052.00,0.69
6051.00,0.69
6050.00,0.69
6049.00,0.70
6048.00,0.70
6047.00,0.70
6046.00,0.70
6045.00,0.70
6044.00,0.70
6043.00,0.70
6042.00,0.70
6041.00,0.70
6040.00,0.70
6039.00,0.70
6038.00,0.70
6037.00,0.70
6036.00,0.70
6035.00,0.70
6034.00,0.70
6033.00,0.70
6032.00,0.70
6031.00,0.70
6030.00,0.70
6029.00,0.70
6028.00,0.70
6027.00,0.70
6026.00,0.70
6025.00,0.70
6024.00,0.70
6023.00,0.70
6022.00,0.70
6021.00,0.70
6020.00,0.70
6019.00,0.70
6018.00,0.70
6017.00,0.70
6016.00,0.70
6015.00,0.70
6014.00,0.70
6013.00,0.70
6012.00,0.70
6011.00,0.70
6010.00,0.70
6009.00,0.70
6008.00,0.70
6007.00,0.70
6006.00,0.70
6005.00,0.70
6004.00,0.70
6003.00,0.70
6002.00,0.70
6001.00,0.70
6000.00,0.70
5999.00,0.70
5998.00,0.70
5997.00,0.70
5996.00,0.70
5995.00,0.70
5994.00,0.70
5993.00,0.70
5992.00,0.70
5991.00,0.70
5990.00,0.70
5989.00,0.70
5988.00,0.70
5987.00,0.69
5986.00,0.69
5985.00,0.69
5984.00,0.69
5983.00,0.69
5982.00,0.69
5981.00,0.69
5980.00,0.68
5979.00,0.68
5978.00,0.68
5977.00,0.68
5976.00,0.68
5975.00,0.67
5974.00,0.67
5973.00,0.67
5972.00,0.67
5971.00,0.66
5970.00,0.66
5969.00,0.66
5968.00,0.66
5967.00,0.65
5966.00,0.65
5965.00,0.65
5964.00,0.64
5963.00,0.64
5962.00,0.64
5961.00,0.63
5960.00,0.63
5959.00,0.63
5958.00,0.62
5957.00,0.62
5956.00,0.62
5955.00,0.62
5954.00,0.61
5953.00,0.61
5952.00,0.61
5951.00,0.61
5950.00,0.61
5949.00,0.60
5948.00,0.60
5947.00,0.60
5946.00,0.60
5945.00,0.60
5944.00,0.60
5943.00,0.60
5942.00,0.60
5941.00,0.60
5940.00,0.60
5939.00,0.60
5938.00,0.60
5937.00,0.60
5936.00,0.60
5935.00,0.60
5934.00,0.59
5933.00,0.59
5932.00,0.59
5931.00,0.59
5930.00,0.59
5929.00,0.59
5928.00,0.59
5927.00,0.59
5926.00,0.59
5925.00,0.59
5924.00,0.59
5923.00,0.58
5922.00,0.58
5921.00,0.58
5920.00,0.58
5919.00,0.58
5918.00,0.58
5917.00,0.58
5916.00,0.58
5915.00,0.57
5914.00,0.57
5913.00,0.57
5912.00,0.57
5911.00,0.57
5910.00,0.57
5909.00,0.57
5908.00,0.57
5907.00,0.57
5906.00,0.57
5905.00,0.57
5904.00,0.57
5903.00,0.57
5902.00,0.57
5901.00,0.57
5900.00,0.57
5899.00,0.57
5898.00,0.57
5897.00,0.57
5896.00,0.57
5895.00,0.58
5894.00,0.58
5893.00,0.58
5892.00,0.58
5891.00,0.58
5890.00,0.58
5889.00,0.58
5888.00,0.59
5887.00,0.59
5886.00,0.59
5885.00,0.59
5884.00,0.59
5883.00,0.59
5882.00,0.59
5881.00,0.60
5880.00,0.60
5879.00,0.60
5878.00,0.60
5877.00,0.60
5876.00,0.60
5875.00,0.60
5874.00,0.60
5873.00,0.60
5872.00,0.60
5871.00,0.61
5870.00,0.61
5869.00,0.61
5868.00,0.61
5867.00,0.61
5866.00,0.61
5865.00,0.61
5864.00,0.61
5863.00,0.61
5862.00,0.61
5861.00,0.61
5860.00,0.61
5859.00,0.61
5858.00,0.61
5857.00,0.61
5856.00,0.62
5855.00,0.62
5854.00,0.62
5853.00,0.62
5852.00,0.62
5851.00,0.62
5850.00,0.62
5849.00,0.62
5848.00,0.62
5847.00,0.62
5846.00,0.62
5845.00,0.62
5844.00,0.62
5843.00,0.62
5842.00,0.62
5841.00,0.62
5840.00,0.62
5839.00,0.62
5838.00,0.62
5837.00,0.62
5836.00,0.62
5835.00,0.62
5834.00,0.62
5833.00,0.62
5832.00,0.62
5831.00,0.62
5830.00,0.62
5829.00,0.62
5828.00,0.62
5827.00,0.62
5826.00,0.62
5825.00,0.62
5824.00,0.62
5823.00,0.62
5822.00,0.62
5821.00,0.62
5820.00,0.62
5819.00,0.62
5818.00,0.62
5817.00,0.62
5816.00,0.62
5815.00,0.62
5814.00,0.62
5813.00,0.62
5812.00,0.62
5811.00,0.62
5810.00,0.62
5809.00,0.62
5808.00,0.62
5807.00,0.62
5806.00,0.62
5805.00,0.62
5804.00,0.62
5803.00,0.62
5802.00,0.62
5801.00,0.62
5800.00,0.62
5799.00,0.62
5798.00,0.61
5797.00,0.61
5796.00,0.61
5795.00,0.61
5794.00,0.61
5793.00,0.61
5792.00,0.61
5791.00,0.61
5790.00,0.61
5789.00,0.60
5788.00,0.60
5787.00,0.60
5786.00,0.60
5785.00,0.60
5784.00,0.60
5783.00,0.60
5782.00,0.60
5781.00,0.60
5780.00,0.60
5779.00,0.60
5778.00,0.60
5777.00,0.60
5776.00,0.60
5775.00,0.60
5774.00,0.60
5773.00,0.60
5772.00,0.60
5771.00,0.60
5770.00,0.60
5769.00,0.60
5768.00,0.60
5767.00,0.60
5766.00,0.60
5765.00,0.60
5764.00,0.60
5763.00,0.61
5762.00,0.61
5761.00,0.61
5760.00,0.61
5759.00,0.61
5758.00,0.61
5757.00,0.61
5756.00,0.61
5755.00,0.62
5754.00,0.62
5753.00,0.62
5752.00,0.62
5751.00,0.62
5750.00,0.62
5749.00,0.62
5748.00,0.63
5747.00,0.63
5746.00,0.63
5745.00,0.63
5744.00,0.63
5743.00,0.63
5742.00,0.63
5741.00,0.63
5740.00,0.64
5739.00,0.64
5738.00,0.64
5737.00,0.64
5736.00,0.64
5735.00,0.64
5734.00,0.64
5733.00,0.64
5732.00,0.64
5731.00,0.64
5730.00,0.64
5729.00,0.64
5728.00,0.64
5727.00,0.64
5726.00,0.64
5725.00,0.64
5724.00,0.64
5723.00,0.64
5722.00,0.64
5721.00,0.64
5720.00,0.64
5719.00,0.64
5718.00,0.64
5717.00,0.64
5716.00,0.64
5715.00,0.64
5714.00,0.64
5713.00,0.64
5712.00,0.64
5711.00,0.64
5710.00,0.64
5709.00,0.64
5708.00,0.64
5707.00,0.64
5706.00,0.64
5705.00,0.64
5704.00,0.64
5703.00,0.64
5702.00,0.63
5701.00,0.63
5700.00,0.63
5699.00,0.63
5698.00,0.63
5697.00,0.63
5696.00,0.63
5695.00,0.63
5694.00,0.63
5693.00,0.63
5692.00,0.63
5691.00,0.63
5690.00,0.63
5689.00,0.62
5688.00,0.62
5687.00,0.62
5686.00,0.62
5685.00,0.62
5684.00,0.62
5683.00,0.62
5682.00,0.62
5681.00,0.62
5680.00,0.62
5679.00,0.62
5678.00,0.62
5677.00,0.62
5676.00,0.62
5675.00,0.62
5674.00,0.62
5673.00,0.62
5672.00,0.62
5671.00,0.62
5670.00,0.62
5669.00,0.62
5668.00,0.62
5667.00,0.62
5666.00,0.62
5665.00,0.62
5664.00,0.62
5663.00,0.62
5662.00,0.62
5661.00,0.62
5660.00,0.62
5659.00,0.62
5658.00,0.62
5657.00,0.63
5656.00,0.63
5655.00,0.63
5654.00,0.63
5653.00,0.63
5652.00,0.63
5651.00,0.63
5650.00,0.63
5649.00,0.63
5648.00,0.63
5647.00,0.63
5646.00,0.63
5645.00,0.64
5644.00,0.64
5643.00,0.64
5642.00,0.64
5641.00,0.64
5640.00,0.64
5639.00,0.64
5638.00,0.64
5637.00,0.64
5636.00,0.64
5635.00,0.64
5634.00,0.64
5633.00,0.64
5632.00,0.64
5631.00,0.64
5630.00,0.64
5629.00,0.64
5628.00,0.65
5627.00,0.65
5626.00,0.65
5625.00,0.65
5624.00,0.65
5623.00,0.65
5622.00,0.65
5621.00,0.65
5620.00,0.65
5619.00,0.65
5618.00,0.65
5617.00,0.65
5616.00,0.65
5615.00,0.65
5614.00,0.65
5613.00,0.65
5612.00,0.65
5611.00,0.65
5610.00,0.65
5609.00,0.65
5608.00,0.65
5607.00,0.66
5606.00,0.66
5605.00,0.66
5604.00,0.66
5603.00,0.66
5602.00,0.66
5601.00,0.66
5600.00,0.66
5599.00,0.66
5598.00,0.66
5597.00,0.66
5596.00,0.67
5595.00,0.67
5594.00,0.67
5593.00,0.67
5592.00,0.67
5591.00,0.67
5590.00,0.67
5589.00,0.67
5588.00,0.67
5587.00,0.67
5586.00,0.67
5585.00,0.67
5584.00,0.67
5583.00,0.68
5582.00,0.68
5581.00,0.68
5580.00,0.68
5579.00,0.68
5578.00,0.68
5577.00,0.68
5576.00,0.68
5575.00,0.68
5574.00,0.68
5573.00,0.68
5572.00,0.68
5571.00,0.68
5570.00,0.68
5569.00,0.68
5568.00,0.68
5567.00,0.69
5566.00,0.69
5565.00,0.69
5564.00,0.69
5563.00,0.69
5562.00,0.69
5561.00,0.69
5560.00,0.69
5559.00,0.69
5558.00,0.69
5557.00,0.69
5556.00,0.69
5555.00,0.70
5554.00,0.70
5553.00,0.70
5552.00,0.70
5551.00,0.70
5550.00,0.70
5549.00,0.70
5548.00,0.70
5547.00,0.70
5546.00,0.70
5545.00,0.70
5544.00,0.70
5543.00,0.70
5542.00,0.70
5541.00,0.70
5540.00,0.70
5539.00,0.70
5538.00,0.71
5537.00,0.71
5536.00,0.71
5535.00,0.71
5534.00,0.71
5533.00,0.71
5532.00,0.71
5531.00,0.71
5530.00,0.71
5529.00,0.71
5528.00,0.71
5527.00,0.71
5526.00,0.71
5525.00,0.71
5524.00,0.71
5523.00,0.71
5522.00,0.71
5521.00,0.71
5520.00,0.71
5519.00,0.71
5518.00,0.71
5517.00,0.71
5516.00,0.72
5515.00,0.72
5514.00,0.72
5513.00,0.72
5512.00,0.72
5511.00,0.72
5510.00,0.72
5509.00,0.72
5508.00,0.72
5507.00,0.72
5506.00,0.72
5505.00,0.72
5504.00,0.72
5503.00,0.72
5502.00,0.72
5501.00,0.72
5500.00,0.72
5499.00,0.72
5498.00,0.72
5497.00,0.72
5496.00,0.72
5495.00,0.72
5494.00,0.72
5493.00,0.73
5492.00,0.73
5491.00,0.73
5490.00,0.73
5489.00,0.73
5488.00,0.73
5487.00,0.73
5486.00,0.73
5485.00,0.73
5484.00,0.73
5483.00,0.73
5482.00,0.73
5481.00,0.73
5480.00,0.73
5479.00,0.74
5478.00,0.74
5477.00,0.74
5476.00,0.74
5475.00,0.74
5474.00,0.74
5473.00,0.74
5472.00,0.74
5471.00,0.74
5470.00,0.74
5469.00,0.74
5468.00,0.74
5467.00,0.74
5466.00,0.74
5465.00,0.74
5464.00,0.74
5463.00,0.74
5462.00,0.74
5461.00,0.74
5460.00,0.74
5459.00,0.74
5458.00,0.74
5457.00,0.74
5456.00,0.74
5455.00,0.74
5454.00,0.74
5453.00,0.74
5452.00,0.74
5451.00,0.74
5450.00,0.74
5449.00,0.74
5448.00,0.74
5447.00,0.74
5446.00,0.74
5445.00,0.74
5444.00,0.74
5443.00,0.75
5442.00,0.75
5441.00,0.75
5440.00,0.75
5439.00,0.75
5438.00,0.75
5437.00,0.75
5436.00,0.75
5435.00,0.75
5434.00,0.75
5433.00,0.74
5432.00,0.74
5431.00,0.74
5430.00,0.74
5429.00,0.74
5428.00,0.74
5427.00,0.74
5426.00,0.74
5425.00,0.74
5424.00,0.74
5423.00,0.74
5422.00,0.74
5421.00,0.74
5420.00,0.74
5419.00,0.74
5418.00,0.74
5417.00,0.74
5416.00,0.74
5415.00,0.74
5414.00,0.74
5413.00,0.74
5412.00,0.74
5411.00,0.74
5410.00,0.74
5409.00,0.74
5408.00,0.74
5407.00,0.74
5406.00,0.74
5405.00,0.74
5404.00,0.74
5403.00,0.74
5402.00,0.74
5401.00,0.74
5400.00,0.74
5399.00,0.74
5398.00,0.74
5397.00,0.73
5396.00,0.73
5395.00,0.73
5394.00,0.73
5393.00,0.73
5392.00,0.73
5391.00,0.73
5390.00,0.72
5389.00,0.72
5388.00,0.72
5387.00,0.72
5386.00,0.72
5385.00,0.71
5384.00,0.71
5383.00,0.71
5382.00,0.71
5381.00,0.71
5380.00,0.70
5379.00,0.70
5378.00,0.70
5377.00,0.70
5376.00,0.69
5375.00,0.69
5374.00,0.69
5373.00,0.69
5372.00,0.68
5371.00,0.68
5370.00,0.68
5369.00,0.68
5368.00,0.67
5367.00,0.67
5366.00,0.67
5365.00,0.66
5364.00,0.66
5363.00,0.66
5362.00,0.65
5361.00,0.65
5360.00,0.65
5359.00,0.64
5358.00,0.64
5357.00,0.63
5356.00,0.63
5355.00,0.63
5354.00,0.62
5353.00,0.62
5352.00,0.62
5351.00,0.61
5350.00,0.61
5349.00,0.60
5348.00,0.60
5347.00,0.59
5346.00,0.59
5345.00,0.59
5344.00,0.58
5343.00,0.58
5342.00,0.57
5341.00,0.57
5340.00,0.56
5339.00,0.56
5338.00,0.55
5337.00,0.55
5336.00,0.55
5335.00,0.54
5334.00,0.54
5333.00,0.53
5332.00,0.53
5331.00,0.53
5330.00,0.52
5329.00,0.52
5328.00,0.51
5327.00,0.51
5326.00,0.51
5325.00,0.50
5324.00,0.50
5323.00,0.50
5322.00,0.49
5321.00,0.49
5320.00,0.49
5319.00,0.49
5318.00,0.48
5317.00,0.48
5316.00,0.48
5315.00,0.47
5314.00,0.47
5313.00,0.47
5312.00,0.47
5311.00,0.47
5310.00,0.46
5309.00,0.46
5308.00,0.46
5307.00,0.46
5306.00,0.46
5305.00,0.46
5304.00,0.45
5303.00,0.45
5302.00,0.45
5301.00,0.45
5300.00,0.45
5299.00,0.45
5298.00,0.45
5297.00,0.45
5296.00,0.44
5295.00,0.44
5294.00,0.44
5293.00,0.44
5292.00,0.44
5291.00,0.44
5290.00,0.44
5289.00,0.44
5288.00,0.44
5287.00,0.44
5286.00,0.44
5285.00,0.44
5284.00,0.44
5283.00,0.44
5282.00,0.44
5281.00,0.44
5280.00,0.44
5279.00,0.44
5278.00,0.44
5277.00,0.44
5276.00,0.44
5275.00,0.44
5274.00,0.44
5273.00,0.44
5272.00,0.44
5271.00,0.44
5270.00,0.44
5269.00,0.44
5268.00,0.44
5267.00,0.44
5266.00,0.44
5265.00,0.44
5264.00,0.44
5263.00,0.44
5262.00,0.44
5261.00,0.44
5260.00,0.44
5259.00,0.44
5258.00,0.44
5257.00,0.44
5256.00,0.44
5255.00,0.44
5254.00,0.44
5253.00,0.44
5252.00,0.44
5251.00,0.44
5250.00,0.44
5249.00,0.44
5248.00,0.44
5247.00,0.44
5246.00,0.44
5245.00,0.44
5244.00,0.44
5243.00,0.44
5242.00,0.44
5241.00,0.44
5240.00,0.44
5239.00,0.44
5238.00,0.44
5237.00,0.44
5236.00,0.44
5235.00,0.44
5234.00,0.44
5233.00,0.44
5232.00,0.44
5231.00,0.44
5230.00,0.44
5229.00,0.44
5228.00,0.44
5227.00,0.44
5226.00,0.44
5225.00,0.44
5224.00,0.44
5223.00,0.44
5222.00,0.44
5221.00,0.45
5220.00,0.45
5219.00,0.45
5218.00,0.45
5217.00,0.45
5216.00,0.45
5215.00,0.45
5214.00,0.45
5213.00,0.45
5212.00,0.45
5211.00,0.45
5210.00,0.45
5209.00,0.45
5208.00,0.45
5207.00,0.45
5206.00,0.45
5205.00,0.45
5204.00,0.45
5203.00,0.45
5202.00,0.45
5201.00,0.45
5200.00,0.45
5199.00,0.45
5198.00,0.45
5197.00,0.45
5196.00,0.45
5195.00,0.45
5194.00,0.45
5193.00,0.45
5192.00,0.45
5191.00,0.45
5190.00,0.45
5189.00,0.45
5188.00,0.45
5187.00,0.45
5186.00,0.45
5185.00,0.45
5184.00,0.45
5183.00,0.45
5182.00,0.45
5181.00,0.45
5180.00,0.45
5179.00,0.45
5178.00,0.45
5177.00,0.45
5176.00,0.45
5175.00,0.45
5174.00,0.45
5173.00,0.45
5172.00,0.45
5171.00,0.46
5170.00,0.46
5169.00,0.46
5168.00,0.46
5167.00,0.46
5166.00,0.46
5165.00,0.46
5164.00,0.46
5163.00,0.46
5162.00,0.46
5161.00,0.46
5160.00,0.46
5159.00,0.46
5158.00,0.46
5157.00,0.46
5156.00,0.46
5155.00,0.46
5154.00,0.46
5153.00,0.46
5152.00,0.46
5151.00,0.46
5150.00,0.46
5149.00,0.46
5148.00,0.46
5147.00,0.46
5146.00,0.46
5145.00,0.46
5144.00,0.46
5143.00,0.46
5142.00,0.46
5141.00,0.46
5140.00,0.46
5139.00,0.46
5138.00,0.46
5137.00,0.46
5136.00,0.46
5135.00,0.46
5134.00,0.46
5133.00,0.46
5132.00,0.46
5131.00,0.46
5130.00,0.46
5129.00,0.46
5128.00,0.46
5127.00,0.47
5126.00,0.47
5125.00,0.47
5124.00,0.47
5123.00,0.47
5122.00,0.47
5121.00,0.47
5120.00,0.47
5119.00,0.47
5118.00,0.47
5117.00,0.47
5116.00,0.47
5115.00,0.47
5114.00,0.47
5113.00,0.47
5112.00,0.47
5111.00,0.47
5110.00,0.47
5109.00,0.47
5108.00,0.47
5107.00,0.47
5106.00,0.47
5105.00,0.47
5104.00,0.47
5103.00,0.47
5102.00,0.47
5101.00,0.47
5100.00,0.47
5099.00,0.47
5098.00,0.47
5097.00,0.47
5096.00,0.47
5095.00,0.47
5094.00,0.47
5093.00,0.47
5092.00,0.47
5091.00,0.47
5090.00,0.47
5089.00,0.47
5088.00,0.47
5087.00,0.47
5086.00,0.47
5085.00,0.47
5084.00,0.47
5083.00,0.47
5082.00,0.47
5081.00,0.47
5080.00,0.47
5079.00,0.47
5078.00,0.47
5077.00,0.48
5076.00,0.48
5075.00,0.48
5074.00,0.48
5073.00,0.48
5072.00,0.48
5071.00,0.48
5070.00,0.48
5069.00,0.48
5068.00,0.48
5067.00,0.48
5066.00,0.48
5065.00,0.48
5064.00,0.48
5063.00,0.48
5062.00,0.48
5061.00,0.48
5060.00,0.48
5059.00,0.48
5058.00,0.48
5057.00,0.48
5056.00,0.48
5055.00,0.48
5054.00,0.48
5053.00,0.48
5052.00,0.48
5051.00,0.48
5050.00,0.48
5049.00,0.48
5048.00,0.48
5047.00,0.48
5046.00,0.48
5045.00,0.48
5044.00,0.48
5043.00,0.48
5042.00,0.49
5041.00,0.49
5040.00,0.49
5039.00,0.49
5038.00,0.49
5037.00,0.49
5036.00,0.49
5035.00,0.49
5034.00,0.49
5033.00,0.49
5032.00,0.49
5031.00,0.49
5030.00,0.49
5029.00,0.49
5028.00,0.49
5027.00,0.49
5026.00,0.49
5025.00,0.49
5024.00,0.49
5023.00,0.48
5022.00,0.48
5021.00,0.49
5020.00,0.49
5019.00,0.49
5018.00,0.49
5017.00,0.49
5016.00,0.49
5015.00,0.49
5014.00,0.49
5013.00,0.49
5012.00,0.49
5011.00,0.49
5010.00,0.49
5009.00,0.49
5008.00,0.49
5007.00,0.49
5006.00,0.49
5005.00,0.49
5004.00,0.49
5003.00,0.49
5002.00,0.49
5001.00,0.49
5000.00,0.49
4999.00,0.49
4998.00,0.49
4997.00,0.49
4996.00,0.49
4995.00,0.49
4994.00,0.49
4993.00,0.50
4992.00,0.50
4991.00,0.50
4990.00,0.50
4989.00,0.50
4988.00,0.50
4987.00,0.50
4986.00,0.50
4985.00,0.50
4984.00,0.50
4983.00,0.50
4982.00,0.50
4981.00,0.50
4980.00,0.50
4979.00,0.50
4978.00,0.50
4977.00,0.50
4976.00,0.50
4975.00,0.50
4974.00,0.50
4973.00,0.50
4972.00,0.50
4971.00,0.50
4970.00,0.50
4969.00,0.50
4968.00,0.50
4967.00,0.50
4966.00,0.50
4965.00,0.50
4964.00,0.50
4963.00,0.50
4962.00,0.51
4961.00,0.51
4960.00,0.51
4959.00,0.51
4958.00,0.51
4957.00,0.51
4956.00,0.51
4955.00,0.51
4954.00,0.51
4953.00,0.51
4952.00,0.51
4951.00,0.51
4950.00,0.51
4949.00,0.51
4948.00,0.51
4947.00,0.51
4946.00,0.51
4945.00,0.51
4944.00,0.51
4943.00,0.51
4942.00,0.51
4941.00,0.51
4940.00,0.51
4939.00,0.51
4938.00,0.51
4937.00,0.51
4936.00,0.51
4935.00,0.51
4934.00,0.51
4933.00,0.51
4932.00,0.51
4931.00,0.51
4930.00,0.51
4929.00,0.51
4928.00,0.51
4927.00,0.51
4926.00,0.51
4925.00,0.51
4924.00,0.51
4923.00,0.51
4922.00,0.51
4921.00,0.51
4920.00,0.52
4919.00,0.52
4918.00,0.52
4917.00,0.52
4916.00,0.52
4915.00,0.52
4914.00,0.52
4913.00,0.52
4912.00,0.52
4911.00,0.52
4910.00,0.52
4909.00,0.52
4908.00,0.52
4907.00,0.52
4906.00,0.52
4905.00,0.52
4904.00,0.52
4903.00,0.52
4902.00,0.52
4901.00,0.52
4900.00,0.52
4899.00,0.52
4898.00,0.52
4897.00,0.52
4896.00,0.52
4895.00,0.52
4894.00,0.52
4893.00,0.52
4892.00,0.52
4891.00,0.52
4890.00,0.52
4889.00,0.52
4888.00,0.52
4887.00,0.53
4886.00,0.53
4885.00,0.53
4884.00,0.53
4883.00,0.53
4882.00,0.53
4881.00,0.53
4880.00,0.53
4879.00,0.53
4878.00,0.53
4877.00,0.53
4876.00,0.53
4875.00,0.53
4874.00,0.53
4873.00,0.53
4872.00,0.53
4871.00,0.53
4870.00,0.53
4869.00,0.53
4868.00,0.53
4867.00,0.53
4866.00,0.53
4865.00,0.53
4864.00,0.53
4863.00,0.53
4862.00,0.53
4861.00,0.53
4860.00,0.53
4859.00,0.53
4858.00,0.53
4857.00,0.53
4856.00,0.53
4855.00,0.53
4854.00,0.53
4853.00,0.53
4852.00,0.53
4851.00,0.53
4850.00,0.53
4849.00,0.53
4848.00,0.53
4847.00,0.53
4846.00,0.53
4845.00,0.53
4844.00,0.53
4843.00,0.53
4842.00,0.53
4841.00,0.54
4840.00,0.54
4839.00,0.54
4838.00,0.54
4837.00,0.54
4836.00,0.54
4835.00,0.54
4834.00,0.54
4833.00,0.54
4832.00,0.54
4831.00,0.54
4830.00,0.54
4829.00,0.54
4828.00,0.54
4827.00,0.54
4826.00,0.54
4825.00,0.54
4824.00,0.54
4823.00,0.54
4822.00,0.54
4821.00,0.54
4820.00,0.55
4819.00,0.55
4818.00,0.55
4817.00,0.55
4816.00,0.55
4815.00,0.55
4814.00,0.55
4813.00,0.55
4812.00,0.55
4811.00,0.55
4810.00,0.55
4809.00,0.55
4808.00,0.55
4807.00,0.55
4806.00,0.55
4805.00,0.55
4804.00,0.55
4803.00,0.55
4802.00,0.55
4801.00,0.55
4800.00,0.55
4799.00,0.55
4798.00,0.55
4797.00,0.55
4796.00,0.55
4795.00,0.55
4794.00,0.55
4793.00,0.55
4792.00,0.55
4791.00,0.55
4790.00,0.55
4789.00,0.56
4788.00,0.56
4787.00,0.56
4786.00,0.56
4785.00,0.56
4784.00,0.56
4783.00,0.56
4782.00,0.56
4781.00,0.56
4780.00,0.56
4779.00,0.56
4778.00,0.56
4777.00,0.56
4776.00,0.56
4775.00,0.56
4774.00,0.56
4773.00,0.56
4772.00,0.56
4771.00,0.56
4770.00,0.56
4769.00,0.56
4768.00,0.56
4767.00,0.56
4766.00,0.56
4765.00,0.57
4764.00,0.57
4763.00,0.57
4762.00,0.57
4761.00,0.57
4760.00,0.57
4759.00,0.57
4758.00,0.57
4757.00,0.57
4756.00,0.57
4755.00,0.57
4754.00,0.57
4753.00,0.57
4752.00,0.57
4751.00,0.57
4750.00,0.57
4749.00,0.58
4748.00,0.58
4747.00,0.58
4746.00,0.58
4745.00,0.58
4744.00,0.58
4743.00,0.58
4742.00,0.58
4741.00,0.58
4740.00,0.58
4739.00,0.58
4738.00,0.58
4737.00,0.58
4736.00,0.58
4735.00,0.58
4734.00,0.58
4733.00,0.58
4732.00,0.58
4731.00,0.58
4730.00,0.58
4729.00,0.58
4728.00,0.58
4727.00,0.58
4726.00,0.58
4725.00,0.58
4724.00,0.58
4723.00,0.58
4722.00,0.58
4721.00,0.58
4720.00,0.58
4719.00,0.58
4718.00,0.58
4717.00,0.58
4716.00,0.58
4715.00,0.58
4714.00,0.58
4713.00,0.58
4712.00,0.59
4711.00,0.59
4710.00,0.59
4709.00,0.59
4708.00,0.59
4707.00,0.59
4706.00,0.59
4705.00,0.59
4704.00,0.59
4703.00,0.59
4702.00,0.59
4701.00,0.59
4700.00,0.59
4699.00,0.59
4698.00,0.60
4697.00,0.60
4696.00,0.60
4695.00,0.60
4694.00,0.60
4693.00,0.60
4692.00,0.60
4691.00,0.60
4690.00,0.60
4689.00,0.60
4688.00,0.60
4687.00,0.60
4686.00,0.60
4685.00,0.61
4684.00,0.61
4683.00,0.61
4682.00,0.61
4681.00,0.61
4680.00,0.61
4679.00,0.61
4678.00,0.61
4677.00,0.61
4676.00,0.61
4675.00,0.61
4674.00,0.61
4673.00,0.61
4672.00,0.61
4671.00,0.61
4670.00,0.62
4669.00,0.62
4668.00,0.62
4667.00,0.62
4666.00,0.62
4665.00,0.62
4664.00,0.62
4663.00,0.62
4662.00,0.62
4661.00,0.62
4660.00,0.62
4659.00,0.62
4658.00,0.62
4657.00,0.62
4656.00,0.62
4655.00,0.62
4654.00,0.62
4653.00,0.62
4652.00,0.62
4651.00,0.62
4650.00,0.62
4649.00,0.62
4648.00,0.62
4647.00,0.62
4646.00,0.62
4645.00,0.63
4644.00,0.63
4643.00,0.63
4642.00,0.63
4641.00,0.63
4640.00,0.63
4639.00,0.63
4638.00,0.63
4637.00,0.63
4636.00,0.63
4635.00,0.63
4634.00,0.63
4633.00,0.63
4632.00,0.63
4631.00,0.63
4630.00,0.63
4629.00,0.63
4628.00,0.63
4627.00,0.63
4626.00,0.63
4625.00,0.63
4624.00,0.63
4623.00,0.63
4622.00,0.63
4621.00,0.63
4620.00,0.63
4619.00,0.63
4618.00,0.63
4617.00,0.63
4616.00,0.63
4615.00,0.63
4614.00,0.64
4613.00,0.64
4612.00,0.64
4611.00,0.64
4610.00,0.64
4609.00,0.64
4608.00,0.64
4607.00,0.64
4606.00,0.64
4605.00,0.64
4604.00,0.64
4603.00,0.64
4602.00,0.64
4601.00,0.64
4600.00,0.64
4599.00,0.64
4598.00,0.64
4597.00,0.64
4596.00,0.64
4595.00,0.64
4594.00,0.64
4593.00,0.64
4592.00,0.64
4591.00,0.64
4590.00,0.64
4589.00,0.64
4588.00,0.64
4587.00,0.65
4586.00,0.65
4585.00,0.65
4584.00,0.65
4583.00,0.65
4582.00,0.65
4581.00,0.65
4580.00,0.65
4579.00,0.65
4578.00,0.65
4577.00,0.65
4576.00,0.65
4575.00,0.65
4574.00,0.65
4573.00,0.65
4572.00,0.65
4571.00,0.65
4570.00,0.65
4569.00,0.65
4568.00,0.65
4567.00,0.65
4566.00,0.65
4565.00,0.65
4564.00,0.65
4563.00,0.65
4562.00,0.65
4561.00,0.65
4560.00,0.65
4559.00,0.65
4558.00,0.66
4557.00,0.66
4556.00,0.66
4555.00,0.66
4554.00,0.66
4553.00,0.66
4552.00,0.66
4551.00,0.66
4550.00,0.66
4549.00,0.66
4548.00,0.66
4547.00,0.66
4546.00,0.66
4545.00,0.66
4544.00,0.66
4543.00,0.66
4542.00,0.66
4541.00,0.66
4540.00,0.66
4539.00,0.67
4538.00,0.67
4537.00,0.67
4536.00,0.67
4535.00,0.67
4534.00,0.67
4533.00,0.67
4532.00,0.67
4531.00,0.67
4530.00,0.67
4529.00,0.67
4528.00,0.67
4527.00,0.67
4526.00,0.67
4525.00,0.67
4524.00,0.67
4523.00,0.67
4522.00,0.67
4521.00,0.67
4520.00,0.67
4519.00,0.67
4518.00,0.67
4517.00,0.67
4516.00,0.67
4515.00,0.67
4514.00,0.67
4513.00,0.67
4512.00,0.67
4511.00,0.67
4510.00,0.67
4509.00,0.67
4508.00,0.67
4507.00,0.67
4506.00,0.67
4505.00,0.67
4504.00,0.67
4503.00,0.67
4502.00,0.67
4501.00,0.67
4500.00,0.67
4499.00,0.67
4498.00,0.67
4497.00,0.67
4496.00,0.67
4495.00,0.67
4494.00,0.67
4493.00,0.67
4492.00,0.67
4491.00,0.67
4490.00,0.67
4489.00,0.67
4488.00,0.67
4487.00,0.67
4486.00,0.67
4485.00,0.67
4484.00,0.67
4483.00,0.67
4482.00,0.67
4481.00,0.67
4480.00,0.67
4479.00,0.67
4478.00,0.67
4477.00,0.67
4476.00,0.67
4475.00,0.67
4474.00,0.67
4473.00,0.67
4472.00,0.66
4471.00,0.66
4470.00,0.66
4469.00,0.66
4468.00,0.66
4467.00,0.66
4466.00,0.66
4465.00,0.66
4464.00,0.66
4463.00,0.65
4462.00,0.65
4461.00,0.65
4460.00,0.65
4459.00,0.65
4458.00,0.65
4457.00,0.65
4456.00,0.65
4455.00,0.65
4454.00,0.64
4453.00,0.64
4452.00,0.64
4451.00,0.64
4450.00,0.64
4449.00,0.64
4448.00,0.64
4447.00,0.64
4446.00,0.64
4445.00,0.64
4444.00,0.64
4443.00,0.64
4442.00,0.64
4441.00,0.64
4440.00,0.64
4439.00,0.64
4438.00,0.64
4437.00,0.63
4436.00,0.63
4435.00,0.63
4434.00,0.63
4433.00,0.63
4432.00,0.63
4431.00,0.63
4430.00,0.63
4429.00,0.63
4428.00,0.63
4427.00,0.63
4426.00,0.62
4425.00,0.62
4424.00,0.62
4423.00,0.62
4422.00,0.62
4421.00,0.62
4420.00,0.62
4419.00,0.62
4418.00,0.62
4417.00,0.62
4416.00,0.63
4415.00,0.63
4414.00,0.63
4413.00,0.63
4412.00,0.63
4411.00,0.63
4410.00,0.63
4409.00,0.63
4408.00,0.63
4407.00,0.63
4406.00,0.63
4405.00,0.63
4404.00,0.64
4403.00,0.64
4402.00,0.64
4401.00,0.64
4400.00,0.64
4399.00,0.64
4398.00,0.64
4397.00,0.64
4396.00,0.64
4395.00,0.64
4394.00,0.64
4393.00,0.64
4392.00,0.64
4391.00,0.64
4390.00,0.64
4389.00,0.64
4388.00,0.64
4387.00,0.64
4386.00,0.64
4385.00,0.64
4384.00,0.64
4383.00,0.64
4382.00,0.64
4381.00,0.64
4380.00,0.64
4379.00,0.64
4378.00,0.64
4377.00,0.64
4376.00,0.64
4375.00,0.64
4374.00,0.64
4373.00,0.64
4372.00,0.64
4371.00,0.64
4370.00,0.64
4369.00,0.64
4368.00,0.64
4367.00,0.64
4366.00,0.64
4365.00,0.64
4364.00,0.64
4363.00,0.64
4362.00,0.65
4361.00,0.65
4360.00,0.65
4359.00,0.65
4358.00,0.65
4357.00,0.65
4356.00,0.65
4355.00,0.65
4354.00,0.65
4353.00,0.65
4352.00,0.65
4351.00,0.65
4350.00,0.65
4349.00,0.65
4348.00,0.65
4347.00,0.65
4346.00,0.65
4345.00,0.65
4344.00,0.65
4343.00,0.65
4342.00,0.65
4341.00,0.65
4340.00,0.65
4339.00,0.65
4338.00,0.65
4337.00,0.65
4336.00,0.65
4335.00,0.65
4334.00,0.65
4333.00,0.65
4332.00,0.65
4331.00,0.65
4330.00,0.65
4329.00,0.65
4328.00,0.65
4327.00,0.65
4326.00,0.65
4325.00,0.65
4324.00,0.65
4323.00,0.65
4322.00,0.65
4321.00,0.65
4320.00,0.65
4319.00,0.66
4318.00,0.66
4317.00,0.66
4316.00,0.66
4315.00,0.66
4314.00,0.66
4313.00,0.66
4312.00,0.66
4311.00,0.66
4310.00,0.66
4309.00,0.66
4308.00,0.67
4307.00,0.67
4306.00,0.67
4305.00,0.67
4304.00,0.67
4303.00,0.67
4302.00,0.67
4301.00,0.67
4300.00,0.67
4299.00,0.67
4298.00,0.67
4297.00,0.67
4296.00,0.67
4295.00,0.67
4294.00,0.67
4293.00,0.67
4292.00,0.67
4291.00,0.67
4290.00,0.67
4289.00,0.67
4288.00,0.67
4287.00,0.67
4286.00,0.67
4285.00,0.67
4284.00,0.67
4283.00,0.67
4282.00,0.67
4281.00,0.67
4280.00,0.67
4279.00,0.67
4278.00,0.67
4277.00,0.67
4276.00,0.67
4275.00,0.67
4274.00,0.68
4273.00,0.68
4272.00,0.68
4271.00,0.68
4270.00,0.68
4269.00,0.68
4268.00,0.68
4267.00,0.68
4266.00,0.68
4265.00,0.68
4264.00,0.68
4263.00,0.68
4262.00,0.68
4261.00,0.67
4260.00,0.67
4259.00,0.67
4258.00,0.67
4257.00,0.67
4256.00,0.67
4255.00,0.67
4254.00,0.67
4253.00,0.67
4252.00,0.67
4251.00,0.67
4250.00,0.67
4249.00,0.67
4248.00,0.67
4247.00,0.67
4246.00,0.67
4245.00,0.67
4244.00,0.67
4243.00,0.67
4242.00,0.67
4241.00,0.67
4240.00,0.67
4239.00,0.67
4238.00,0.67
4237.00,0.67
4236.00,0.67
4235.00,0.68
4234.00,0.68
4233.00,0.68
4232.00,0.68
4231.00,0.68
4230.00,0.68
4229.00,0.68
4228.00,0.68
4227.00,0.68
4226.00,0.68
4225.00,0.68
4224.00,0.68
4223.00,0.68
4222.00,0.68
4221.00,0.68
4220.00,0.68
4219.00,0.68
4218.00,0.68
4217.00,0.69
4216.00,0.69
4215.00,0.69
4214.00,0.69
4213.00,0.69
4212.00,0.69
4211.00,0.69
4210.00,0.69
4209.00,0.69
4208.00,0.69
4207.00,0.69
4206.00,0.69
4205.00,0.69
4204.00,0.70
4203.00,0.70
4202.00,0.70
4201.00,0.70
4200.00,0.70
4199.00,0.70
4198.00,0.70
4197.00,0.70
4196.00,0.70
4195.00,0.70
4194.00,0.70
4193.00,0.70
4192.00,0.70
4191.00,0.70
4190.00,0.70
4189.00,0.70
4188.00,0.69
4187.00,0.69
4186.00,0.69
4185.00,0.69
4184.00,0.69
4183.00,0.69
4182.00,0.69
4181.00,0.69
4180.00,0.69
4179.00,0.69
4178.00,0.69
4177.00,0.69
4176.00,0.69
4175.00,0.69
4174.00,0.69
4173.00,0.69
4172.00,0.69
4171.00,0.69
4170.00,0.69
4169.00,0.69
4168.00,0.69
4167.00,0.69
4166.00,0.69
4165.00,0.70
4164.00,0.70
4163.00,0.70
4162.00,0.70
4161.00,0.70
4160.00,0.70
4159.00,0.70
4158.00,0.70
4157.00,0.70
4156.00,0.70
4155.00,0.70
4154.00,0.70
4153.00,0.70
4152.00,0.70
4151.00,0.70
4150.00,0.70
4149.00,0.70
4148.00,0.71
4147.00,0.71
4146.00,0.71
4145.00,0.71
4144.00,0.71
4143.00,0.71
4142.00,0.71
4141.00,0.71
4140.00,0.71
4139.00,0.71
4138.00,0.71
4137.00,0.71
4136.00,0.71
4135.00,0.71
4134.00,0.71
4133.00,0.71
4132.00,0.71
4131.00,0.71
4130.00,0.71
4129.00,0.72
4128.00,0.72
4127.00,0.72
4126.00,0.72
4125.00,0.72
4124.00,0.72
4123.00,0.72
4122.00,0.72
4121.00,0.72
4120.00,0.72
4119.00,0.72
4118.00,0.72
4117.00,0.72
4116.00,0.72
4115.00,0.71
4114.00,0.71
4113.00,0.71
4112.00,0.71
4111.00,0.71
4110.00,0.71
4109.00,0.71
4108.00,0.71
4107.00,0.71
4106.00,0.72
4105.00,0.72
4104.00,0.72
4103.00,0.72
4102.00,0.72
4101.00,0.72
4100.00,0.72
4099.00,0.72
4098.00,0.72
4097.00,0.72
4096.00,0.72
4095.00,0.72
4094.00,0.72
4093.00,0.72
4092.00,0.72
4091.00,0.72
4090.00,0.72
4089.00,0.72
4088.00,0.72
4087.00,0.72
4086.00,0.71
4085.00,0.71
4084.00,0.71
4083.00,0.71
4082.00,0.71
4081.00,0.71
4080.00,0.71
4079.00,0.71
4078.00,0.71
4077.00,0.71
4076.00,0.71
4075.00,0.72
4074.00,0.72
4073.00,0.72
4072.00,0.72
4071.00,0.72
4070.00,0.72
4069.00,0.72
4068.00,0.72
4067.00,0.72
4066.00,0.72
4065.00,0.72
4064.00,0.72
4063.00,0.72
4062.00,0.72
4061.00,0.72
4060.00,0.72
4059.00,0.72
4058.00,0.72
4057.00,0.72
4056.00,0.72
4055.00,0.73
4054.00,0.73
4053.00,0.73
4052.00,0.73
4051.00,0.73
4050.00,0.73
4049.00,0.73
4048.00,0.73
4047.00,0.73
4046.00,0.73
4045.00,0.73
4044.00,0.73
4043.00,0.73
4042.00,0.73
4041.00,0.73
4040.00,0.73
4039.00,0.73
4038.00,0.73
4037.00,0.73
4036.00,0.73
4035.00,0.73
4034.00,0.73
4033.00,0.73
4032.00,0.73
4031.00,0.73
4030.00,0.73
4029.00,0.73
4028.00,0.73
4027.00,0.73
4026.00,0.73
4025.00,0.73
4024.00,0.73
4023.00,0.73
4022.00,0.73
4021.00,0.73
4020.00,0.73
4019.00,0.73
4018.00,0.73
4017.00,0.73
4016.00,0.73
4015.00,0.73
4014.00,0.73
4013.00,0.73
4012.00,0.73
4011.00,0.73
4010.00,0.74
4009.00,0.74
4008.00,0.74
4007.00,0.74
4006.00,0.74
4005.00,0.74
4004.00,0.74
4003.00,0.74
4002.00,0.74
4001.00,0.75
4000.00,0.75
