创建为新数据集,样品 431 用户 Administrator 日期 星期日, 七月 15 2018
cm-1,%T
10000.00,0.86
9999.00,0.86
9998.00,0.86
9997.00,0.86
9996.00,0.86
9995.00,0.86
9994.00,0.86
9993.00,0.86
9992.00,0.86
9991.00,0.85
9990.00,0.85
9989.00,0.85
9988.00,0.85
9987.00,0.85
9986.00,0.84
9985.00,0.84
9984.00,0.84
9983.00,0.84
9982.00,0.84
9981.00,0.84
9980.00,0.84
9979.00,0.83
9978.00,0.83
9977.00,0.83
9976.00,0.83
9975.00,0.83
9974.00,0.83
9973.00,0.84
9972.00,0.84
9971.00,0.84
9970.00,0.84
9969.00,0.84
9968.00,0.84
9967.00,0.84
9966.00,0.84
9965.00,0.84
9964.00,0.84
9963.00,0.84
9962.00,0.84
9961.00,0.84
9960.00,0.84
9959.00,0.84
9958.00,0.84
9957.00,0.84
9956.00,0.84
9955.00,0.84
9954.00,0.84
9953.00,0.84
9952.00,0.84
9951.00,0.84
9950.00,0.84
9949.00,0.84
9948.00,0.84
9947.00,0.84
9946.00,0.84
9945.00,0.84
9944.00,0.83
9943.00,0.83
9942.00,0.83
9941.00,0.83
9940.00,0.83
9939.00,0.83
9938.00,0.82
9937.00,0.82
9936.00,0.82
9935.00,0.82
9934.00,0.82
9933.00,0.82
9932.00,0.82
9931.00,0.82
9930.00,0.81
9929.00,0.81
9928.00,0.81
9927.00,0.81
9926.00,0.81
9925.00,0.81
9924.00,0.81
9923.00,0.81
9922.00,0.81
9921.00,0.81
9920.00,0.81
9919.00,0.81
9918.00,0.81
9917.00,0.82
9916.00,0.82
9915.00,0.82
9914.00,0.82
9913.00,0.83
9912.00,0.83
9911.00,0.83
9910.00,0.84
9909.00,0.84
9908.00,0.84
9907.00,0.85
9906.00,0.85
9905.00,0.85
9904.00,0.85
9903.00,0.86
9902.00,0.86
9901.00,0.86
9900.00,0.86
9899.00,0.86
9898.00,0.86
9897.00,0.86
9896.00,0.86
9895.00,0.85
9894.00,0.85
9893.00,0.85
9892.00,0.85
9891.00,0.85
9890.00,0.84
9889.00,0.84
9888.00,0.84
9887.00,0.84
9886.00,0.84
9885.00,0.84
9884.00,0.84
9883.00,0.84
9882.00,0.84
9881.00,0.84
9880.00,0.84
9879.00,0.84
9878.00,0.85
9877.00,0.85
9876.00,0.85
9875.00,0.85
9874.00,0.85
9873.00,0.86
9872.00,0.86
9871.00,0.86
9870.00,0.86
9869.00,0.86
9868.00,0.86
9867.00,0.86
9866.00,0.85
9865.00,0.85
9864.00,0.85
9863.00,0.85
9862.00,0.85
9861.00,0.84
9860.00,0.84
9859.00,0.84
9858.00,0.84
9857.00,0.83
9856.00,0.83
9855.00,0.83
9854.00,0.83
9853.00,0.83
9852.00,0.83
9851.00,0.83
9850.00,0.82
9849.00,0.82
9848.00,0.82
9847.00,0.82
9846.00,0.82
9845.00,0.82
9844.00,0.82
9843.00,0.82
9842.00,0.82
9841.00,0.83
9840.00,0.83
9839.00,0.83
9838.00,0.83
9837.00,0.83
9836.00,0.83
9835.00,0.83
9834.00,0.83
9833.00,0.83
9832.00,0.83
9831.00,0.83
9830.00,0.84
9829.00,0.84
9828.00,0.84
9827.00,0.84
9826.00,0.83
9825.00,0.83
9824.00,0.83
9823.00,0.83
9822.00,0.83
9821.00,0.83
9820.00,0.83
9819.00,0.82
9818.00,0.82
9817.00,0.82
9816.00,0.82
9815.00,0.82
9814.00,0.82
9813.00,0.81
9812.00,0.81
9811.00,0.81
9810.00,0.81
9809.00,0.81
9808.00,0.81
9807.00,0.81
9806.00,0.81
9805.00,0.81
9804.00,0.81
9803.00,0.81
9802.00,0.81
9801.00,0.81
9800.00,0.82
9799.00,0.82
9798.00,0.82
9797.00,0.82
9796.00,0.82
9795.00,0.82
9794.00,0.83
9793.00,0.83
9792.00,0.83
9791.00,0.83
9790.00,0.83
9789.00,0.83
9788.00,0.83
9787.00,0.83
9786.00,0.83
9785.00,0.84
9784.00,0.84
9783.00,0.84
9782.00,0.84
9781.00,0.84
9780.00,0.83
9779.00,0.83
9778.00,0.83
9777.00,0.83
9776.00,0.83
9775.00,0.83
9774.00,0.83
9773.00,0.83
9772.00,0.83
9771.00,0.83
9770.00,0.84
9769.00,0.84
9768.00,0.84
9767.00,0.84
9766.00,0.84
9765.00,0.84
9764.00,0.84
9763.00,0.84
9762.00,0.84
9761.00,0.84
9760.00,0.85
9759.00,0.85
9758.00,0.85
9757.00,0.85
9756.00,0.85
9755.00,0.85
9754.00,0.85
9753.00,0.85
9752.00,0.85
9751.00,0.84
9750.00,0.84
9749.00,0.84
9748.00,0.84
9747.00,0.84
9746.00,0.84
9745.00,0.83
9744.00,0.83
9743.00,0.83
9742.00,0.83
9741.00,0.83
9740.00,0.83
9739.00,0.82
9738.00,0.82
9737.00,0.82
9736.00,0.82
9735.00,0.82
9734.00,0.82
9733.00,0.82
9732.00,0.82
9731.00,0.82
9730.00,0.82
9729.00,0.82
9728.00,0.82
9727.00,0.82
9726.00,0.82
9725.00,0.82
9724.00,0.82
9723.00,0.82
9722.00,0.83
9721.00,0.83
9720.00,0.83
9719.00,0.83
9718.00,0.83
9717.00,0.84
9716.00,0.84
9715.00,0.84
9714.00,0.84
9713.00,0.84
9712.00,0.84
9711.00,0.85
9710.00,0.85
9709.00,0.85
9708.00,0.85
9707.00,0.85
9706.00,0.85
9705.00,0.85
9704.00,0.85
9703.00,0.85
9702.00,0.85
9701.00,0.85
9700.00,0.85
9699.00,0.85
9698.00,0.85
9697.00,0.85
9696.00,0.85
9695.00,0.85
9694.00,0.84
9693.00,0.84
9692.00,0.84
9691.00,0.84
9690.00,0.84
9689.00,0.84
9688.00,0.84
9687.00,0.84
9686.00,0.84
9685.00,0.84
9684.00,0.84
9683.00,0.84
9682.00,0.84
9681.00,0.84
9680.00,0.84
9679.00,0.84
9678.00,0.84
9677.00,0.84
9676.00,0.84
9675.00,0.84
9674.00,0.84
9673.00,0.84
9672.00,0.84
9671.00,0.84
9670.00,0.84
9669.00,0.84
9668.00,0.84
9667.00,0.84
9666.00,0.84
9665.00,0.84
9664.00,0.84
9663.00,0.84
9662.00,0.84
9661.00,0.83
9660.00,0.83
9659.00,0.83
9658.00,0.83
9657.00,0.82
9656.00,0.82
9655.00,0.82
9654.00,0.82
9653.00,0.82
9652.00,0.82
9651.00,0.82
9650.00,0.82
9649.00,0.82
9648.00,0.82
9647.00,0.82
9646.00,0.82
9645.00,0.82
9644.00,0.82
9643.00,0.82
9642.00,0.83
9641.00,0.83
9640.00,0.83
9639.00,0.83
9638.00,0.84
9637.00,0.84
9636.00,0.84
9635.00,0.84
9634.00,0.85
9633.00,0.85
9632.00,0.85
9631.00,0.85
9630.00,0.85
9629.00,0.85
9628.00,0.85
9627.00,0.85
9626.00,0.85
9625.00,0.85
9624.00,0.85
9623.00,0.84
9622.00,0.84
9621.00,0.84
9620.00,0.84
9619.00,0.84
9618.00,0.83
9617.00,0.83
9616.00,0.83
9615.00,0.83
9614.00,0.83
9613.00,0.83
9612.00,0.82
9611.00,0.82
9610.00,0.82
9609.00,0.82
9608.00,0.82
9607.00,0.82
9606.00,0.81
9605.00,0.81
9604.00,0.81
9603.00,0.81
9602.00,0.81
9601.00,0.81
9600.00,0.81
9599.00,0.81
9598.00,0.81
9597.00,0.81
9596.00,0.81
9595.00,0.81
9594.00,0.81
9593.00,0.81
9592.00,0.81
9591.00,0.82
9590.00,0.82
9589.00,0.82
9588.00,0.82
9587.00,0.82
9586.00,0.82
9585.00,0.83
9584.00,0.83
9583.00,0.83
9582.00,0.83
9581.00,0.83
9580.00,0.83
9579.00,0.83
9578.00,0.83
9577.00,0.82
9576.00,0.82
9575.00,0.82
9574.00,0.82
9573.00,0.82
9572.00,0.82
9571.00,0.82
9570.00,0.82
9569.00,0.81
9568.00,0.81
9567.00,0.81
9566.00,0.81
9565.00,0.81
9564.00,0.82
9563.00,0.82
9562.00,0.82
9561.00,0.82
9560.00,0.82
9559.00,0.82
9558.00,0.83
9557.00,0.83
9556.00,0.83
9555.00,0.83
9554.00,0.83
9553.00,0.83
9552.00,0.83
9551.00,0.83
9550.00,0.83
9549.00,0.83
9548.00,0.83
9547.00,0.83
9546.00,0.83
9545.00,0.83
9544.00,0.83
9543.00,0.83
9542.00,0.83
9541.00,0.83
9540.00,0.83
9539.00,0.83
9538.00,0.83
9537.00,0.83
9536.00,0.83
9535.00,0.83
9534.00,0.83
9533.00,0.83
9532.00,0.83
9531.00,0.83
9530.00,0.83
9529.00,0.83
9528.00,0.83
9527.00,0.83
9526.00,0.83
9525.00,0.83
9524.00,0.83
9523.00,0.83
9522.00,0.83
9521.00,0.83
9520.00,0.83
9519.00,0.83
9518.00,0.83
9517.00,0.83
9516.00,0.83
9515.00,0.83
9514.00,0.83
9513.00,0.83
9512.00,0.83
9511.00,0.83
9510.00,0.83
9509.00,0.83
9508.00,0.83
9507.00,0.83
9506.00,0.83
9505.00,0.83
9504.00,0.83
9503.00,0.83
9502.00,0.83
9501.00,0.83
9500.00,0.83
9499.00,0.83
9498.00,0.83
9497.00,0.82
9496.00,0.82
9495.00,0.82
9494.00,0.82
9493.00,0.82
9492.00,0.82
9491.00,0.82
9490.00,0.82
9489.00,0.83
9488.00,0.83
9487.00,0.83
9486.00,0.83
9485.00,0.83
9484.00,0.83
9483.00,0.84
9482.00,0.84
9481.00,0.84
9480.00,0.84
9479.00,0.84
9478.00,0.84
9477.00,0.84
9476.00,0.84
9475.00,0.84
9474.00,0.84
9473.00,0.84
9472.00,0.84
9471.00,0.84
9470.00,0.84
9469.00,0.83
9468.00,0.83
9467.00,0.83
9466.00,0.83
9465.00,0.83
9464.00,0.83
9463.00,0.83
9462.00,0.83
9461.00,0.83
9460.00,0.83
9459.00,0.83
9458.00,0.83
9457.00,0.83
9456.00,0.83
9455.00,0.82
9454.00,0.82
9453.00,0.82
9452.00,0.82
9451.00,0.82
9450.00,0.82
9449.00,0.82
9448.00,0.82
9447.00,0.82
9446.00,0.82
9445.00,0.82
9444.00,0.82
9443.00,0.83
9442.00,0.83
9441.00,0.83
9440.00,0.83
9439.00,0.83
9438.00,0.83
9437.00,0.83
9436.00,0.83
9435.00,0.84
9434.00,0.84
9433.00,0.84
9432.00,0.84
9431.00,0.84
9430.00,0.84
9429.00,0.84
9428.00,0.84
9427.00,0.84
9426.00,0.84
9425.00,0.84
9424.00,0.84
9423.00,0.84
9422.00,0.84
9421.00,0.84
9420.00,0.85
9419.00,0.85
9418.00,0.85
9417.00,0.85
9416.00,0.85
9415.00,0.85
9414.00,0.85
9413.00,0.85
9412.00,0.85
9411.00,0.85
9410.00,0.85
9409.00,0.85
9408.00,0.85
9407.00,0.85
9406.00,0.85
9405.00,0.84
9404.00,0.84
9403.00,0.84
9402.00,0.84
9401.00,0.84
9400.00,0.84
9399.00,0.84
9398.00,0.84
9397.00,0.84
9396.00,0.84
9395.00,0.84
9394.00,0.84
9393.00,0.84
9392.00,0.84
9391.00,0.84
9390.00,0.84
9389.00,0.84
9388.00,0.84
9387.00,0.84
9386.00,0.84
9385.00,0.84
9384.00,0.84
9383.00,0.84
9382.00,0.84
9381.00,0.84
9380.00,0.84
9379.00,0.84
9378.00,0.84
9377.00,0.84
9376.00,0.84
9375.00,0.84
9374.00,0.84
9373.00,0.84
9372.00,0.84
9371.00,0.84
9370.00,0.84
9369.00,0.84
9368.00,0.83
9367.00,0.83
9366.00,0.83
9365.00,0.83
9364.00,0.83
9363.00,0.83
9362.00,0.83
9361.00,0.83
9360.00,0.83
9359.00,0.83
9358.00,0.83
9357.00,0.84
9356.00,0.84
9355.00,0.84
9354.00,0.84
9353.00,0.84
9352.00,0.84
9351.00,0.84
9350.00,0.84
9349.00,0.84
9348.00,0.84
9347.00,0.84
9346.00,0.84
9345.00,0.84
9344.00,0.84
9343.00,0.84
9342.00,0.84
9341.00,0.84
9340.00,0.84
9339.00,0.84
9338.00,0.84
9337.00,0.84
9336.00,0.84
9335.00,0.84
9334.00,0.84
9333.00,0.85
9332.00,0.85
9331.00,0.85
9330.00,0.85
9329.00,0.85
9328.00,0.85
9327.00,0.85
9326.00,0.85
9325.00,0.85
9324.00,0.85
9323.00,0.85
9322.00,0.85
9321.00,0.85
9320.00,0.85
9319.00,0.85
9318.00,0.85
9317.00,0.85
9316.00,0.85
9315.00,0.85
9314.00,0.85
9313.00,0.85
9312.00,0.85
9311.00,0.85
9310.00,0.85
9309.00,0.85
9308.00,0.84
9307.00,0.84
9306.00,0.84
9305.00,0.84
9304.00,0.83
9303.00,0.83
9302.00,0.83
9301.00,0.82
9300.00,0.82
9299.00,0.82
9298.00,0.82
9297.00,0.82
9296.00,0.81
9295.00,0.81
9294.00,0.81
9293.00,0.81
9292.00,0.81
9291.00,0.81
9290.00,0.81
9289.00,0.81
9288.00,0.82
9287.00,0.82
9286.00,0.82
9285.00,0.82
9284.00,0.82
9283.00,0.82
9282.00,0.83
9281.00,0.83
9280.00,0.83
9279.00,0.83
9278.00,0.83
9277.00,0.84
9276.00,0.84
9275.00,0.84
9274.00,0.84
9273.00,0.84
9272.00,0.85
9271.00,0.85
9270.00,0.85
9269.00,0.85
9268.00,0.85
9267.00,0.85
9266.00,0.85
9265.00,0.85
9264.00,0.85
9263.00,0.85
9262.00,0.85
9261.00,0.85
9260.00,0.84
9259.00,0.84
9258.00,0.84
9257.00,0.84
9256.00,0.84
9255.00,0.84
9254.00,0.84
9253.00,0.84
9252.00,0.84
9251.00,0.84
9250.00,0.84
9249.00,0.84
9248.00,0.84
9247.00,0.84
9246.00,0.84
9245.00,0.84
9244.00,0.84
9243.00,0.84
9242.00,0.84
9241.00,0.84
9240.00,0.84
9239.00,0.84
9238.00,0.84
9237.00,0.83
9236.00,0.83
9235.00,0.83
9234.00,0.83
9233.00,0.83
9232.00,0.83
9231.00,0.83
9230.00,0.83
9229.00,0.83
9228.00,0.83
9227.00,0.83
9226.00,0.83
9225.00,0.83
9224.00,0.83
9223.00,0.83
9222.00,0.83
9221.00,0.83
9220.00,0.83
9219.00,0.83
9218.00,0.83
9217.00,0.83
9216.00,0.83
9215.00,0.83
9214.00,0.83
9213.00,0.83
9212.00,0.83
9211.00,0.83
9210.00,0.84
9209.00,0.84
9208.00,0.84
9207.00,0.84
9206.00,0.84
9205.00,0.84
9204.00,0.84
9203.00,0.84
9202.00,0.84
9201.00,0.84
9200.00,0.83
9199.00,0.83
9198.00,0.83
9197.00,0.83
9196.00,0.83
9195.00,0.83
9194.00,0.83
9193.00,0.83
9192.00,0.83
9191.00,0.83
9190.00,0.83
9189.00,0.83
9188.00,0.83
9187.00,0.83
9186.00,0.84
9185.00,0.84
9184.00,0.84
9183.00,0.84
9182.00,0.84
9181.00,0.84
9180.00,0.84
9179.00,0.84
9178.00,0.85
9177.00,0.85
9176.00,0.85
9175.00,0.85
9174.00,0.85
9173.00,0.85
9172.00,0.85
9171.00,0.85
9170.00,0.85
9169.00,0.85
9168.00,0.85
9167.00,0.85
9166.00,0.85
9165.00,0.85
9164.00,0.85
9163.00,0.85
9162.00,0.85
9161.00,0.85
9160.00,0.85
9159.00,0.85
9158.00,0.85
9157.00,0.85
9156.00,0.85
9155.00,0.85
9154.00,0.85
9153.00,0.85
9152.00,0.85
9151.00,0.85
9150.00,0.86
9149.00,0.86
9148.00,0.86
9147.00,0.86
9146.00,0.86
9145.00,0.86
9144.00,0.86
9143.00,0.86
9142.00,0.86
9141.00,0.86
9140.00,0.86
9139.00,0.86
9138.00,0.85
9137.00,0.85
9136.00,0.85
9135.00,0.85
9134.00,0.85
9133.00,0.85
9132.00,0.85
9131.00,0.84
9130.00,0.84
9129.00,0.84
9128.00,0.84
9127.00,0.84
9126.00,0.84
9125.00,0.84
9124.00,0.84
9123.00,0.84
9122.00,0.84
9121.00,0.84
9120.00,0.84
9119.00,0.84
9118.00,0.84
9117.00,0.84
9116.00,0.84
9115.00,0.84
9114.00,0.84
9113.00,0.84
9112.00,0.84
9111.00,0.84
9110.00,0.84
9109.00,0.84
9108.00,0.84
9107.00,0.85
9106.00,0.85
9105.00,0.85
9104.00,0.85
9103.00,0.85
9102.00,0.85
9101.00,0.85
9100.00,0.85
9099.00,0.85
9098.00,0.85
9097.00,0.85
9096.00,0.85
9095.00,0.85
9094.00,0.86
9093.00,0.86
9092.00,0.86
9091.00,0.86
9090.00,0.86
9089.00,0.86
9088.00,0.86
9087.00,0.86
9086.00,0.86
9085.00,0.86
9084.00,0.86
9083.00,0.86
9082.00,0.86
9081.00,0.86
9080.00,0.86
9079.00,0.86
9078.00,0.86
9077.00,0.86
9076.00,0.86
9075.00,0.85
9074.00,0.85
9073.00,0.85
9072.00,0.85
9071.00,0.85
9070.00,0.85
9069.00,0.85
9068.00,0.85
9067.00,0.85
9066.00,0.85
9065.00,0.85
9064.00,0.85
9063.00,0.85
9062.00,0.84
9061.00,0.84
9060.00,0.84
9059.00,0.84
9058.00,0.84
9057.00,0.84
9056.00,0.84
9055.00,0.83
9054.00,0.83
9053.00,0.83
9052.00,0.83
9051.00,0.83
9050.00,0.83
9049.00,0.83
9048.00,0.84
9047.00,0.84
9046.00,0.84
9045.00,0.84
9044.00,0.84
9043.00,0.84
9042.00,0.84
9041.00,0.84
9040.00,0.84
9039.00,0.84
9038.00,0.84
9037.00,0.85
9036.00,0.85
9035.00,0.85
9034.00,0.85
9033.00,0.85
9032.00,0.85
9031.00,0.85
9030.00,0.85
9029.00,0.85
9028.00,0.85
9027.00,0.85
9026.00,0.84
9025.00,0.84
9024.00,0.84
9023.00,0.84
9022.00,0.84
9021.00,0.84
9020.00,0.84
9019.00,0.84
9018.00,0.84
9017.00,0.84
9016.00,0.84
9015.00,0.84
9014.00,0.84
9013.00,0.84
9012.00,0.84
9011.00,0.84
9010.00,0.84
9009.00,0.84
9008.00,0.84
9007.00,0.84
9006.00,0.84
9005.00,0.84
9004.00,0.84
9003.00,0.84
9002.00,0.84
9001.00,0.84
9000.00,0.85
8999.00,0.85
8998.00,0.85
8997.00,0.85
8996.00,0.85
8995.00,0.85
8994.00,0.85
8993.00,0.85
8992.00,0.85
8991.00,0.85
8990.00,0.85
8989.00,0.85
8988.00,0.85
8987.00,0.85
8986.00,0.85
8985.00,0.85
8984.00,0.85
8983.00,0.85
8982.00,0.85
8981.00,0.85
8980.00,0.85
8979.00,0.85
8978.00,0.85
8977.00,0.85
8976.00,0.85
8975.00,0.84
8974.00,0.84
8973.00,0.84
8972.00,0.84
8971.00,0.84
8970.00,0.84
8969.00,0.84
8968.00,0.84
8967.00,0.84
8966.00,0.84
8965.00,0.84
8964.00,0.84
8963.00,0.84
8962.00,0.84
8961.00,0.84
8960.00,0.84
8959.00,0.84
8958.00,0.84
8957.00,0.84
8956.00,0.84
8955.00,0.84
8954.00,0.84
8953.00,0.84
8952.00,0.84
8951.00,0.84
8950.00,0.85
8949.00,0.85
8948.00,0.85
8947.00,0.84
8946.00,0.84
8945.00,0.84
8944.00,0.84
8943.00,0.84
8942.00,0.84
8941.00,0.84
8940.00,0.84
8939.00,0.84
8938.00,0.84
8937.00,0.84
8936.00,0.84
8935.00,0.84
8934.00,0.84
8933.00,0.84
8932.00,0.84
8931.00,0.84
8930.00,0.83
8929.00,0.83
8928.00,0.84
8927.00,0.84
8926.00,0.84
8925.00,0.84
8924.00,0.84
8923.00,0.84
8922.00,0.84
8921.00,0.84
8920.00,0.84
8919.00,0.84
8918.00,0.84
8917.00,0.84
8916.00,0.84
8915.00,0.84
8914.00,0.84
8913.00,0.83
8912.00,0.83
8911.00,0.83
8910.00,0.83
8909.00,0.83
8908.00,0.83
8907.00,0.83
8906.00,0.83
8905.00,0.83
8904.00,0.83
8903.00,0.83
8902.00,0.83
8901.00,0.83
8900.00,0.83
8899.00,0.83
8898.00,0.83
8897.00,0.83
8896.00,0.83
8895.00,0.84
8894.00,0.84
8893.00,0.84
8892.00,0.84
8891.00,0.84
8890.00,0.84
8889.00,0.85
8888.00,0.85
8887.00,0.85
8886.00,0.85
8885.00,0.85
8884.00,0.85
8883.00,0.85
8882.00,0.85
8881.00,0.85
8880.00,0.85
8879.00,0.84
8878.00,0.84
8877.00,0.84
8876.00,0.84
8875.00,0.84
8874.00,0.84
8873.00,0.84
8872.00,0.84
8871.00,0.84
8870.00,0.84
8869.00,0.84
8868.00,0.84
8867.00,0.84
8866.00,0.83
8865.00,0.83
8864.00,0.83
8863.00,0.83
8862.00,0.83
8861.00,0.83
8860.00,0.83
8859.00,0.83
8858.00,0.83
8857.00,0.83
8856.00,0.84
8855.00,0.84
8854.00,0.84
8853.00,0.84
8852.00,0.84
8851.00,0.84
8850.00,0.84
8849.00,0.85
8848.00,0.85
8847.00,0.85
8846.00,0.85
8845.00,0.85
8844.00,0.86
8843.00,0.86
8842.00,0.86
8841.00,0.86
8840.00,0.86
8839.00,0.86
8838.00,0.86
8837.00,0.86
8836.00,0.86
8835.00,0.86
8834.00,0.86
8833.00,0.86
8832.00,0.86
8831.00,0.86
8830.00,0.85
8829.00,0.85
8828.00,0.85
8827.00,0.85
8826.00,0.85
8825.00,0.85
8824.00,0.85
8823.00,0.84
8822.00,0.84
8821.00,0.84
8820.00,0.84
8819.00,0.84
8818.00,0.84
8817.00,0.83
8816.00,0.83
8815.00,0.83
8814.00,0.83
8813.00,0.83
8812.00,0.83
8811.00,0.83
8810.00,0.82
8809.00,0.82
8808.00,0.82
8807.00,0.82
8806.00,0.82
8805.00,0.82
8804.00,0.82
8803.00,0.82
8802.00,0.82
8801.00,0.82
8800.00,0.82
8799.00,0.82
8798.00,0.82
8797.00,0.82
8796.00,0.82
8795.00,0.82
8794.00,0.82
8793.00,0.82
8792.00,0.82
8791.00,0.82
8790.00,0.81
8789.00,0.81
8788.00,0.81
8787.00,0.81
8786.00,0.81
8785.00,0.81
8784.00,0.81
8783.00,0.81
8782.00,0.81
8781.00,0.81
8780.00,0.81
8779.00,0.81
8778.00,0.81
8777.00,0.81
8776.00,0.81
8775.00,0.81
8774.00,0.81
8773.00,0.81
8772.00,0.81
8771.00,0.81
8770.00,0.81
8769.00,0.81
8768.00,0.81
8767.00,0.81
8766.00,0.81
8765.00,0.81
8764.00,0.81
8763.00,0.81
8762.00,0.81
8761.00,0.81
8760.00,0.81
8759.00,0.81
8758.00,0.81
8757.00,0.81
8756.00,0.81
8755.00,0.81
8754.00,0.81
8753.00,0.81
8752.00,0.81
8751.00,0.81
8750.00,0.81
8749.00,0.81
8748.00,0.80
8747.00,0.80
8746.00,0.80
8745.00,0.80
8744.00,0.80
8743.00,0.80
8742.00,0.80
8741.00,0.80
8740.00,0.80
8739.00,0.80
8738.00,0.80
8737.00,0.80
8736.00,0.80
8735.00,0.80
8734.00,0.80
8733.00,0.80
8732.00,0.80
8731.00,0.80
8730.00,0.80
8729.00,0.80
8728.00,0.80
8727.00,0.80
8726.00,0.80
8725.00,0.80
8724.00,0.80
8723.00,0.80
8722.00,0.80
8721.00,0.80
8720.00,0.80
8719.00,0.80
8718.00,0.80
8717.00,0.80
8716.00,0.80
8715.00,0.80
8714.00,0.80
8713.00,0.80
8712.00,0.80
8711.00,0.80
8710.00,0.80
8709.00,0.79
8708.00,0.79
8707.00,0.79
8706.00,0.79
8705.00,0.79
8704.00,0.79
8703.00,0.79
8702.00,0.79
8701.00,0.79
8700.00,0.79
8699.00,0.80
8698.00,0.80
8697.00,0.80
8696.00,0.80
8695.00,0.80
8694.00,0.80
8693.00,0.80
8692.00,0.80
8691.00,0.80
8690.00,0.80
8689.00,0.80
8688.00,0.80
8687.00,0.80
8686.00,0.80
8685.00,0.80
8684.00,0.80
8683.00,0.80
8682.00,0.80
8681.00,0.80
8680.00,0.80
8679.00,0.80
8678.00,0.80
8677.00,0.80
8676.00,0.80
8675.00,0.80
8674.00,0.79
8673.00,0.79
8672.00,0.79
8671.00,0.79
8670.00,0.79
8669.00,0.79
8668.00,0.79
8667.00,0.79
8666.00,0.78
8665.00,0.78
8664.00,0.78
8663.00,0.78
8662.00,0.78
8661.00,0.78
8660.00,0.78
8659.00,0.78
8658.00,0.78
8657.00,0.78
8656.00,0.78
8655.00,0.78
8654.00,0.78
8653.00,0.78
8652.00,0.78
8651.00,0.78
8650.00,0.78
8649.00,0.78
8648.00,0.78
8647.00,0.79
8646.00,0.79
8645.00,0.79
8644.00,0.79
8643.00,0.79
8642.00,0.79
8641.00,0.79
8640.00,0.79
8639.00,0.79
8638.00,0.79
8637.00,0.79
8636.00,0.79
8635.00,0.79
8634.00,0.79
8633.00,0.79
8632.00,0.79
8631.00,0.79
8630.00,0.79
8629.00,0.79
8628.00,0.79
8627.00,0.79
8626.00,0.79
8625.00,0.79
8624.00,0.79
8623.00,0.79
8622.00,0.79
8621.00,0.79
8620.00,0.79
8619.00,0.79
8618.00,0.78
8617.00,0.78
8616.00,0.78
8615.00,0.78
8614.00,0.78
8613.00,0.78
8612.00,0.78
8611.00,0.78
8610.00,0.78
8609.00,0.77
8608.00,0.77
8607.00,0.77
8606.00,0.77
8605.00,0.77
8604.00,0.77
8603.00,0.77
8602.00,0.77
8601.00,0.77
8600.00,0.77
8599.00,0.77
8598.00,0.77
8597.00,0.77
8596.00,0.77
8595.00,0.77
8594.00,0.77
8593.00,0.77
8592.00,0.77
8591.00,0.77
8590.00,0.77
8589.00,0.77
8588.00,0.77
8587.00,0.77
8586.00,0.77
8585.00,0.77
8584.00,0.77
8583.00,0.77
8582.00,0.77
8581.00,0.77
8580.00,0.77
8579.00,0.77
8578.00,0.77
8577.00,0.76
8576.00,0.76
8575.00,0.76
8574.00,0.76
8573.00,0.76
8572.00,0.76
8571.00,0.76
8570.00,0.76
8569.00,0.76
8568.00,0.76
8567.00,0.76
8566.00,0.76
8565.00,0.76
8564.00,0.76
8563.00,0.76
8562.00,0.76
8561.00,0.76
8560.00,0.76
8559.00,0.76
8558.00,0.77
8557.00,0.77
8556.00,0.77
8555.00,0.77
8554.00,0.77
8553.00,0.77
8552.00,0.77
8551.00,0.77
8550.00,0.77
8549.00,0.77
8548.00,0.77
8547.00,0.77
8546.00,0.77
8545.00,0.76
8544.00,0.76
8543.00,0.76
8542.00,0.76
8541.00,0.76
8540.00,0.76
8539.00,0.76
8538.00,0.76
8537.00,0.75
8536.00,0.75
8535.00,0.75
8534.00,0.75
8533.00,0.75
8532.00,0.75
8531.00,0.75
8530.00,0.75
8529.00,0.75
8528.00,0.75
8527.00,0.75
8526.00,0.75
8525.00,0.75
8524.00,0.75
8523.00,0.75
8522.00,0.75
8521.00,0.75
8520.00,0.75
8519.00,0.75
8518.00,0.75
8517.00,0.75
8516.00,0.75
8515.00,0.75
8514.00,0.75
8513.00,0.75
8512.00,0.75
8511.00,0.75
8510.00,0.75
8509.00,0.75
8508.00,0.75
8507.00,0.75
8506.00,0.75
8505.00,0.75
8504.00,0.75
8503.00,0.75
8502.00,0.75
8501.00,0.75
8500.00,0.75
8499.00,0.75
8498.00,0.74
8497.00,0.74
8496.00,0.74
8495.00,0.74
8494.00,0.74
8493.00,0.74
8492.00,0.74
8491.00,0.74
8490.00,0.74
8489.00,0.74
8488.00,0.74
8487.00,0.74
8486.00,0.74
8485.00,0.74
8484.00,0.74
8483.00,0.74
8482.00,0.74
8481.00,0.74
8480.00,0.74
8479.00,0.74
8478.00,0.74
8477.00,0.74
8476.00,0.73
8475.00,0.73
8474.00,0.73
8473.00,0.73
8472.00,0.73
8471.00,0.73
8470.00,0.73
8469.00,0.73
8468.00,0.73
8467.00,0.73
8466.00,0.73
8465.00,0.72
8464.00,0.72
8463.00,0.72
8462.00,0.72
8461.00,0.72
8460.00,0.72
8459.00,0.72
8458.00,0.72
8457.00,0.72
8456.00,0.72
8455.00,0.72
8454.00,0.72
8453.00,0.72
8452.00,0.72
8451.00,0.72
8450.00,0.72
8449.00,0.72
8448.00,0.72
8447.00,0.72
8446.00,0.72
8445.00,0.72
8444.00,0.72
8443.00,0.72
8442.00,0.72
8441.00,0.72
8440.00,0.72
8439.00,0.72
8438.00,0.72
8437.00,0.72
8436.00,0.72
8435.00,0.72
8434.00,0.72
8433.00,0.72
8432.00,0.72
8431.00,0.72
8430.00,0.72
8429.00,0.72
8428.00,0.72
8427.00,0.72
8426.00,0.72
8425.00,0.72
8424.00,0.72
8423.00,0.72
8422.00,0.72
8421.00,0.72
8420.00,0.73
8419.00,0.73
8418.00,0.73
8417.00,0.73
8416.00,0.73
8415.00,0.73
8414.00,0.73
8413.00,0.73
8412.00,0.73
8411.00,0.73
8410.00,0.73
8409.00,0.74
8408.00,0.74
8407.00,0.74
8406.00,0.74
8405.00,0.74
8404.00,0.74
8403.00,0.74
8402.00,0.74
8401.00,0.74
8400.00,0.74
8399.00,0.74
8398.00,0.74
8397.00,0.74
8396.00,0.74
8395.00,0.74
8394.00,0.74
8393.00,0.74
8392.00,0.74
8391.00,0.74
8390.00,0.74
8389.00,0.74
8388.00,0.74
8387.00,0.74
8386.00,0.74
8385.00,0.74
8384.00,0.74
8383.00,0.74
8382.00,0.74
8381.00,0.74
8380.00,0.74
8379.00,0.74
8378.00,0.74
8377.00,0.74
8376.00,0.74
8375.00,0.74
8374.00,0.74
8373.00,0.74
8372.00,0.74
8371.00,0.74
8370.00,0.74
8369.00,0.74
8368.00,0.75
8367.00,0.75
8366.00,0.75
8365.00,0.75
8364.00,0.75
8363.00,0.75
8362.00,0.75
8361.00,0.75
8360.00,0.76
8359.00,0.76
8358.00,0.76
8357.00,0.76
8356.00,0.76
8355.00,0.76
8354.00,0.76
8353.00,0.76
8352.00,0.76
8351.00,0.76
8350.00,0.76
8349.00,0.76
8348.00,0.76
8347.00,0.76
8346.00,0.76
8345.00,0.76
8344.00,0.76
8343.00,0.76
8342.00,0.76
8341.00,0.76
8340.00,0.76
8339.00,0.76
8338.00,0.76
8337.00,0.76
8336.00,0.76
8335.00,0.76
8334.00,0.76
8333.00,0.76
8332.00,0.76
8331.00,0.76
8330.00,0.76
8329.00,0.76
8328.00,0.76
8327.00,0.76
8326.00,0.76
8325.00,0.76
8324.00,0.76
8323.00,0.76
8322.00,0.76
8321.00,0.76
8320.00,0.76
8319.00,0.76
8318.00,0.76
8317.00,0.76
8316.00,0.77
8315.00,0.77
8314.00,0.77
8313.00,0.77
8312.00,0.77
8311.00,0.77
8310.00,0.77
8309.00,0.77
8308.00,0.77
8307.00,0.78
8306.00,0.78
8305.00,0.78
8304.00,0.78
8303.00,0.78
8302.00,0.78
8301.00,0.77
8300.00,0.77
8299.00,0.77
8298.00,0.77
8297.00,0.77
8296.00,0.77
8295.00,0.77
8294.00,0.77
8293.00,0.77
8292.00,0.76
8291.00,0.76
8290.00,0.76
8289.00,0.76
8288.00,0.76
8287.00,0.76
8286.00,0.76
8285.00,0.76
8284.00,0.76
8283.00,0.76
8282.00,0.76
8281.00,0.76
8280.00,0.76
8279.00,0.76
8278.00,0.76
8277.00,0.76
8276.00,0.76
8275.00,0.76
8274.00,0.76
8273.00,0.76
8272.00,0.76
8271.00,0.76
8270.00,0.76
8269.00,0.76
8268.00,0.76
8267.00,0.77
8266.00,0.77
8265.00,0.77
8264.00,0.77
8263.00,0.77
8262.00,0.77
8261.00,0.77
8260.00,0.77
8259.00,0.77
8258.00,0.77
8257.00,0.77
8256.00,0.77
8255.00,0.77
8254.00,0.77
8253.00,0.77
8252.00,0.77
8251.00,0.77
8250.00,0.77
8249.00,0.77
8248.00,0.77
8247.00,0.77
8246.00,0.77
8245.00,0.77
8244.00,0.77
8243.00,0.77
8242.00,0.77
8241.00,0.77
8240.00,0.77
8239.00,0.77
8238.00,0.77
8237.00,0.77
8236.00,0.77
8235.00,0.77
8234.00,0.78
8233.00,0.78
8232.00,0.78
8231.00,0.78
8230.00,0.78
8229.00,0.78
8228.00,0.78
8227.00,0.78
8226.00,0.78
8225.00,0.78
8224.00,0.78
8223.00,0.78
8222.00,0.78
8221.00,0.78
8220.00,0.78
8219.00,0.78
8218.00,0.78
8217.00,0.78
8216.00,0.78
8215.00,0.78
8214.00,0.78
8213.00,0.78
8212.00,0.78
8211.00,0.78
8210.00,0.78
8209.00,0.78
8208.00,0.78
8207.00,0.78
8206.00,0.78
8205.00,0.78
8204.00,0.77
8203.00,0.77
8202.00,0.78
8201.00,0.78
8200.00,0.78
8199.00,0.78
8198.00,0.78
8197.00,0.78
8196.00,0.78
8195.00,0.78
8194.00,0.78
8193.00,0.78
8192.00,0.78
8191.00,0.78
8190.00,0.79
8189.00,0.79
8188.00,0.79
8187.00,0.79
8186.00,0.79
8185.00,0.79
8184.00,0.79
8183.00,0.79
8182.00,0.79
8181.00,0.79
8180.00,0.79
8179.00,0.79
8178.00,0.79
8177.00,0.79
8176.00,0.79
8175.00,0.79
8174.00,0.79
8173.00,0.79
8172.00,0.79
8171.00,0.79
8170.00,0.79
8169.00,0.79
8168.00,0.79
8167.00,0.79
8166.00,0.79
8165.00,0.79
8164.00,0.79
8163.00,0.79
8162.00,0.79
8161.00,0.79
8160.00,0.79
8159.00,0.79
8158.00,0.79
8157.00,0.79
8156.00,0.79
8155.00,0.79
8154.00,0.79
8153.00,0.79
8152.00,0.79
8151.00,0.79
8150.00,0.79
8149.00,0.79
8148.00,0.79
8147.00,0.79
8146.00,0.79
8145.00,0.79
8144.00,0.79
8143.00,0.79
8142.00,0.80
8141.00,0.80
8140.00,0.80
8139.00,0.80
8138.00,0.80
8137.00,0.80
8136.00,0.80
8135.00,0.80
8134.00,0.80
8133.00,0.80
8132.00,0.80
8131.00,0.80
8130.00,0.80
8129.00,0.80
8128.00,0.80
8127.00,0.80
8126.00,0.80
8125.00,0.80
8124.00,0.80
8123.00,0.80
8122.00,0.80
8121.00,0.80
8120.00,0.80
8119.00,0.80
8118.00,0.80
8117.00,0.80
8116.00,0.80
8115.00,0.80
8114.00,0.80
8113.00,0.80
8112.00,0.80
8111.00,0.80
8110.00,0.80
8109.00,0.80
8108.00,0.80
8107.00,0.80
8106.00,0.80
8105.00,0.80
8104.00,0.80
8103.00,0.80
8102.00,0.80
8101.00,0.80
8100.00,0.80
8099.00,0.80
8098.00,0.80
8097.00,0.80
8096.00,0.80
8095.00,0.80
8094.00,0.80
8093.00,0.80
8092.00,0.80
8091.00,0.80
8090.00,0.80
8089.00,0.80
8088.00,0.80
8087.00,0.80
8086.00,0.80
8085.00,0.80
8084.00,0.80
8083.00,0.80
8082.00,0.80
8081.00,0.81
8080.00,0.81
8079.00,0.81
8078.00,0.81
8077.00,0.81
8076.00,0.81
8075.00,0.81
8074.00,0.81
8073.00,0.81
8072.00,0.81
8071.00,0.81
8070.00,0.81
8069.00,0.81
8068.00,0.81
8067.00,0.81
8066.00,0.81
8065.00,0.81
8064.00,0.81
8063.00,0.81
8062.00,0.81
8061.00,0.81
8060.00,0.81
8059.00,0.81
8058.00,0.81
8057.00,0.81
8056.00,0.81
8055.00,0.81
8054.00,0.81
8053.00,0.81
8052.00,0.81
8051.00,0.81
8050.00,0.81
8049.00,0.81
8048.00,0.82
8047.00,0.82
8046.00,0.82
8045.00,0.82
8044.00,0.82
8043.00,0.82
8042.00,0.82
8041.00,0.82
8040.00,0.82
8039.00,0.82
8038.00,0.82
8037.00,0.82
8036.00,0.82
8035.00,0.82
8034.00,0.82
8033.00,0.82
8032.00,0.82
8031.00,0.82
8030.00,0.82
8029.00,0.82
8028.00,0.82
8027.00,0.82
8026.00,0.82
8025.00,0.82
8024.00,0.82
8023.00,0.83
8022.00,0.83
8021.00,0.83
8020.00,0.83
8019.00,0.83
8018.00,0.83
8017.00,0.83
8016.00,0.83
8015.00,0.83
8014.00,0.83
8013.00,0.83
8012.00,0.83
8011.00,0.83
8010.00,0.83
8009.00,0.83
8008.00,0.83
8007.00,0.83
8006.00,0.83
8005.00,0.83
8004.00,0.83
8003.00,0.83
8002.00,0.83
8001.00,0.83
8000.00,0.83
7999.00,0.83
7998.00,0.83
7997.00,0.83
7996.00,0.83
7995.00,0.83
7994.00,0.82
7993.00,0.82
7992.00,0.82
7991.00,0.82
7990.00,0.82
7989.00,0.82
7988.00,0.82
7987.00,0.82
7986.00,0.82
7985.00,0.82
7984.00,0.82
7983.00,0.82
7982.00,0.82
7981.00,0.82
7980.00,0.82
7979.00,0.82
7978.00,0.82
7977.00,0.83
7976.00,0.83
7975.00,0.83
7974.00,0.83
7973.00,0.83
7972.00,0.83
7971.00,0.83
7970.00,0.83
7969.00,0.83
7968.00,0.83
7967.00,0.83
7966.00,0.83
7965.00,0.83
7964.00,0.83
7963.00,0.83
7962.00,0.84
7961.00,0.84
7960.00,0.84
7959.00,0.84
7958.00,0.84
7957.00,0.84
7956.00,0.84
7955.00,0.84
7954.00,0.84
7953.00,0.84
7952.00,0.84
7951.00,0.84
7950.00,0.84
7949.00,0.84
7948.00,0.84
7947.00,0.84
7946.00,0.84
7945.00,0.84
7944.00,0.84
7943.00,0.84
7942.00,0.84
7941.00,0.84
7940.00,0.84
7939.00,0.84
7938.00,0.84
7937.00,0.84
7936.00,0.84
7935.00,0.84
7934.00,0.84
7933.00,0.84
7932.00,0.84
7931.00,0.84
7930.00,0.84
7929.00,0.84
7928.00,0.84
7927.00,0.84
7926.00,0.84
7925.00,0.84
7924.00,0.84
7923.00,0.84
7922.00,0.84
7921.00,0.84
7920.00,0.85
7919.00,0.85
7918.00,0.85
7917.00,0.85
7916.00,0.85
7915.00,0.85
7914.00,0.85
7913.00,0.85
7912.00,0.85
7911.00,0.85
7910.00,0.85
7909.00,0.85
7908.00,0.85
7907.00,0.85
7906.00,0.85
7905.00,0.85
7904.00,0.85
7903.00,0.85
7902.00,0.85
7901.00,0.85
7900.00,0.85
7899.00,0.85
7898.00,0.85
7897.00,0.85
7896.00,0.85
7895.00,0.85
7894.00,0.85
7893.00,0.85
7892.00,0.85
7891.00,0.85
7890.00,0.85
7889.00,0.85
7888.00,0.85
7887.00,0.85
7886.00,0.85
7885.00,0.85
7884.00,0.84
7883.00,0.84
7882.00,0.84
7881.00,0.84
7880.00,0.84
7879.00,0.84
7878.00,0.84
7877.00,0.84
7876.00,0.84
7875.00,0.84
7874.00,0.84
7873.00,0.84
7872.00,0.84
7871.00,0.84
7870.00,0.84
7869.00,0.84
7868.00,0.84
7867.00,0.84
7866.00,0.84
7865.00,0.84
7864.00,0.84
7863.00,0.84
7862.00,0.85
7861.00,0.85
7860.00,0.85
7859.00,0.85
7858.00,0.85
7857.00,0.85
7856.00,0.85
7855.00,0.85
7854.00,0.85
7853.00,0.85
7852.00,0.85
7851.00,0.85
7850.00,0.85
7849.00,0.85
7848.00,0.85
7847.00,0.85
7846.00,0.85
7845.00,0.85
7844.00,0.85
7843.00,0.85
7842.00,0.85
7841.00,0.85
7840.00,0.85
7839.00,0.85
7838.00,0.85
7837.00,0.85
7836.00,0.85
7835.00,0.85
7834.00,0.85
7833.00,0.85
7832.00,0.85
7831.00,0.85
7830.00,0.85
7829.00,0.85
7828.00,0.85
7827.00,0.85
7826.00,0.85
7825.00,0.85
7824.00,0.85
7823.00,0.85
7822.00,0.85
7821.00,0.85
7820.00,0.85
7819.00,0.85
7818.00,0.85
7817.00,0.85
7816.00,0.85
7815.00,0.85
7814.00,0.85
7813.00,0.85
7812.00,0.85
7811.00,0.85
7810.00,0.85
7809.00,0.85
7808.00,0.85
7807.00,0.85
7806.00,0.85
7805.00,0.85
7804.00,0.85
7803.00,0.85
7802.00,0.85
7801.00,0.85
7800.00,0.85
7799.00,0.85
7798.00,0.85
7797.00,0.85
7796.00,0.85
7795.00,0.85
7794.00,0.85
7793.00,0.86
7792.00,0.86
7791.00,0.86
7790.00,0.86
7789.00,0.86
7788.00,0.86
7787.00,0.86
7786.00,0.86
7785.00,0.86
7784.00,0.85
7783.00,0.85
7782.00,0.85
7781.00,0.85
7780.00,0.85
7779.00,0.85
7778.00,0.85
7777.00,0.85
7776.00,0.85
7775.00,0.85
7774.00,0.85
7773.00,0.85
7772.00,0.85
7771.00,0.85
7770.00,0.85
7769.00,0.85
7768.00,0.85
7767.00,0.85
7766.00,0.85
7765.00,0.85
7764.00,0.85
7763.00,0.85
7762.00,0.85
7761.00,0.85
7760.00,0.85
7759.00,0.85
7758.00,0.85
7757.00,0.85
7756.00,0.85
7755.00,0.85
7754.00,0.85
7753.00,0.85
7752.00,0.85
7751.00,0.85
7750.00,0.85
7749.00,0.85
7748.00,0.85
7747.00,0.86
7746.00,0.86
7745.00,0.86
7744.00,0.86
7743.00,0.86
7742.00,0.86
7741.00,0.86
7740.00,0.86
7739.00,0.86
7738.00,0.86
7737.00,0.86
7736.00,0.86
7735.00,0.86
7734.00,0.86
7733.00,0.86
7732.00,0.86
7731.00,0.86
7730.00,0.86
7729.00,0.86
7728.00,0.86
7727.00,0.86
7726.00,0.86
7725.00,0.86
7724.00,0.86
7723.00,0.86
7722.00,0.86
7721.00,0.86
7720.00,0.86
7719.00,0.86
7718.00,0.86
7717.00,0.86
7716.00,0.85
7715.00,0.85
7714.00,0.85
7713.00,0.85
7712.00,0.85
7711.00,0.85
7710.00,0.85
7709.00,0.85
7708.00,0.85
7707.00,0.85
7706.00,0.85
7705.00,0.85
7704.00,0.85
7703.00,0.85
7702.00,0.85
7701.00,0.85
7700.00,0.85
7699.00,0.85
7698.00,0.85
7697.00,0.85
7696.00,0.85
7695.00,0.85
7694.00,0.85
7693.00,0.85
7692.00,0.85
7691.00,0.85
7690.00,0.85
7689.00,0.85
7688.00,0.85
7687.00,0.85
7686.00,0.85
7685.00,0.85
7684.00,0.85
7683.00,0.85
7682.00,0.85
7681.00,0.85
7680.00,0.85
7679.00,0.85
7678.00,0.85
7677.00,0.85
7676.00,0.85
7675.00,0.85
7674.00,0.85
7673.00,0.85
7672.00,0.85
7671.00,0.85
7670.00,0.85
7669.00,0.85
7668.00,0.84
7667.00,0.84
7666.00,0.84
7665.00,0.84
7664.00,0.84
7663.00,0.84
7662.00,0.84
7661.00,0.84
7660.00,0.84
7659.00,0.84
7658.00,0.84
7657.00,0.84
7656.00,0.85
7655.00,0.85
7654.00,0.85
7653.00,0.85
7652.00,0.85
7651.00,0.85
7650.00,0.85
7649.00,0.85
7648.00,0.85
7647.00,0.85
7646.00,0.85
7645.00,0.85
7644.00,0.85
7643.00,0.85
7642.00,0.86
7641.00,0.86
7640.00,0.86
7639.00,0.86
7638.00,0.86
7637.00,0.86
7636.00,0.86
7635.00,0.86
7634.00,0.86
7633.00,0.86
7632.00,0.86
7631.00,0.86
7630.00,0.86
7629.00,0.86
7628.00,0.86
7627.00,0.86
7626.00,0.86
7625.00,0.86
7624.00,0.86
7623.00,0.86
7622.00,0.86
7621.00,0.86
7620.00,0.86
7619.00,0.86
7618.00,0.86
7617.00,0.86
7616.00,0.86
7615.00,0.86
7614.00,0.85
7613.00,0.85
7612.00,0.85
7611.00,0.85
7610.00,0.85
7609.00,0.85
7608.00,0.85
7607.00,0.85
7606.00,0.85
7605.00,0.85
7604.00,0.85
7603.00,0.85
7602.00,0.85
7601.00,0.85
7600.00,0.85
7599.00,0.85
7598.00,0.85
7597.00,0.85
7596.00,0.85
7595.00,0.85
7594.00,0.85
7593.00,0.85
7592.00,0.85
7591.00,0.85
7590.00,0.85
7589.00,0.85
7588.00,0.85
7587.00,0.85
7586.00,0.85
7585.00,0.85
7584.00,0.85
7583.00,0.84
7582.00,0.84
7581.00,0.84
7580.00,0.84
7579.00,0.84
7578.00,0.84
7577.00,0.84
7576.00,0.84
7575.00,0.84
7574.00,0.84
7573.00,0.84
7572.00,0.84
7571.00,0.84
7570.00,0.84
7569.00,0.84
7568.00,0.84
7567.00,0.84
7566.00,0.84
7565.00,0.84
7564.00,0.84
7563.00,0.84
7562.00,0.84
7561.00,0.84
7560.00,0.84
7559.00,0.84
7558.00,0.84
7557.00,0.84
7556.00,0.84
7555.00,0.84
7554.00,0.84
7553.00,0.84
7552.00,0.84
7551.00,0.84
7550.00,0.84
7549.00,0.84
7548.00,0.84
7547.00,0.84
7546.00,0.84
7545.00,0.84
7544.00,0.84
7543.00,0.84
7542.00,0.84
7541.00,0.84
7540.00,0.84
7539.00,0.84
7538.00,0.84
7537.00,0.84
7536.00,0.84
7535.00,0.84
7534.00,0.84
7533.00,0.84
7532.00,0.84
7531.00,0.84
7530.00,0.84
7529.00,0.84
7528.00,0.84
7527.00,0.84
7526.00,0.84
7525.00,0.84
7524.00,0.84
7523.00,0.84
7522.00,0.84
7521.00,0.84
7520.00,0.84
7519.00,0.84
7518.00,0.84
7517.00,0.84
7516.00,0.84
7515.00,0.84
7514.00,0.83
7513.00,0.83
7512.00,0.83
7511.00,0.83
7510.00,0.83
7509.00,0.83
7508.00,0.83
7507.00,0.83
7506.00,0.83
7505.00,0.83
7504.00,0.83
7503.00,0.83
7502.00,0.83
7501.00,0.83
7500.00,0.83
7499.00,0.83
7498.00,0.83
7497.00,0.83
7496.00,0.83
7495.00,0.82
7494.00,0.82
7493.00,0.82
7492.00,0.82
7491.00,0.82
7490.00,0.82
7489.00,0.82
7488.00,0.82
7487.00,0.82
7486.00,0.82
7485.00,0.82
7484.00,0.82
7483.00,0.82
7482.00,0.82
7481.00,0.82
7480.00,0.82
7479.00,0.82
7478.00,0.82
7477.00,0.82
7476.00,0.82
7475.00,0.81
7474.00,0.81
7473.00,0.81
7472.00,0.81
7471.00,0.81
7470.00,0.81
7469.00,0.81
7468.00,0.81
7467.00,0.81
7466.00,0.81
7465.00,0.81
7464.00,0.81
7463.00,0.81
7462.00,0.81
7461.00,0.81
7460.00,0.81
7459.00,0.81
7458.00,0.81
7457.00,0.81
7456.00,0.81
7455.00,0.81
7454.00,0.81
7453.00,0.81
7452.00,0.80
7451.00,0.80
7450.00,0.80
7449.00,0.80
7448.00,0.80
7447.00,0.80
7446.00,0.80
7445.00,0.80
7444.00,0.80
7443.00,0.80
7442.00,0.80
7441.00,0.80
7440.00,0.80
7439.00,0.80
7438.00,0.80
7437.00,0.80
7436.00,0.80
7435.00,0.80
7434.00,0.80
7433.00,0.80
7432.00,0.79
7431.00,0.79
7430.00,0.79
7429.00,0.79
7428.00,0.79
7427.00,0.79
7426.00,0.79
7425.00,0.79
7424.00,0.79
7423.00,0.79
7422.00,0.79
7421.00,0.79
7420.00,0.79
7419.00,0.79
7418.00,0.79
7417.00,0.78
7416.00,0.78
7415.00,0.78
7414.00,0.78
7413.00,0.78
7412.00,0.78
7411.00,0.78
7410.00,0.78
7409.00,0.78
7408.00,0.78
7407.00,0.78
7406.00,0.78
7405.00,0.78
7404.00,0.78
7403.00,0.78
7402.00,0.78
7401.00,0.78
7400.00,0.77
7399.00,0.77
7398.00,0.77
7397.00,0.77
7396.00,0.77
7395.00,0.77
7394.00,0.77
7393.00,0.77
7392.00,0.77
7391.00,0.77
7390.00,0.77
7389.00,0.77
7388.00,0.77
7387.00,0.77
7386.00,0.77
7385.00,0.77
7384.00,0.77
7383.00,0.77
7382.00,0.77
7381.00,0.77
7380.00,0.77
7379.00,0.77
7378.00,0.77
7377.00,0.77
7376.00,0.77
7375.00,0.77
7374.00,0.77
7373.00,0.77
7372.00,0.77
7371.00,0.77
7370.00,0.77
7369.00,0.77
7368.00,0.77
7367.00,0.77
7366.00,0.77
7365.00,0.77
7364.00,0.77
7363.00,0.77
7362.00,0.77
7361.00,0.76
7360.00,0.76
7359.00,0.76
7358.00,0.76
7357.00,0.76
7356.00,0.76
7355.00,0.76
7354.00,0.76
7353.00,0.76
7352.00,0.76
7351.00,0.76
7350.00,0.76
7349.00,0.76
7348.00,0.76
7347.00,0.76
7346.00,0.76
7345.00,0.76
7344.00,0.76
7343.00,0.76
7342.00,0.76
7341.00,0.76
7340.00,0.76
7339.00,0.76
7338.00,0.76
7337.00,0.76
7336.00,0.76
7335.00,0.76
7334.00,0.76
7333.00,0.75
7332.00,0.75
7331.00,0.75
7330.00,0.75
7329.00,0.75
7328.00,0.75
7327.00,0.75
7326.00,0.75
7325.00,0.75
7324.00,0.75
7323.00,0.75
7322.00,0.75
7321.00,0.75
7320.00,0.75
7319.00,0.75
7318.00,0.75
7317.00,0.75
7316.00,0.75
7315.00,0.75
7314.00,0.75
7313.00,0.75
7312.00,0.75
7311.00,0.75
7310.00,0.75
7309.00,0.75
7308.00,0.75
7307.00,0.75
7306.00,0.74
7305.00,0.74
7304.00,0.74
7303.00,0.74
7302.00,0.74
7301.00,0.74
7300.00,0.74
7299.00,0.74
7298.00,0.74
7297.00,0.73
7296.00,0.73
7295.00,0.73
7294.00,0.73
7293.00,0.73
7292.00,0.73
7291.00,0.73
7290.00,0.72
7289.00,0.72
7288.00,0.72
7287.00,0.72
7286.00,0.72
7285.00,0.72
7284.00,0.72
7283.00,0.72
7282.00,0.72
7281.00,0.72
7280.00,0.72
7279.00,0.72
7278.00,0.72
7277.00,0.72
7276.00,0.72
7275.00,0.72
7274.00,0.72
7273.00,0.72
7272.00,0.72
7271.00,0.72
7270.00,0.72
7269.00,0.71
7268.00,0.71
7267.00,0.71
7266.00,0.71
7265.00,0.71
7264.00,0.71
7263.00,0.71
7262.00,0.70
7261.00,0.70
7260.00,0.70
7259.00,0.70
7258.00,0.70
7257.00,0.69
7256.00,0.69
7255.00,0.69
7254.00,0.69
7253.00,0.69
7252.00,0.68
7251.00,0.68
7250.00,0.68
7249.00,0.68
7248.00,0.68
7247.00,0.67
7246.00,0.67
7245.00,0.67
7244.00,0.67
7243.00,0.67
7242.00,0.67
7241.00,0.66
7240.00,0.66
7239.00,0.66
7238.00,0.66
7237.00,0.66
7236.00,0.65
7235.00,0.65
7234.00,0.65
7233.00,0.65
7232.00,0.64
7231.00,0.64
7230.00,0.64
7229.00,0.64
7228.00,0.63
7227.00,0.63
7226.00,0.63
7225.00,0.63
7224.00,0.62
7223.00,0.62
7222.00,0.62
7221.00,0.62
7220.00,0.62
7219.00,0.61
7218.00,0.61
7217.00,0.61
7216.00,0.61
7215.00,0.60
7214.00,0.60
7213.00,0.60
7212.00,0.60
7211.00,0.60
7210.00,0.59
7209.00,0.59
7208.00,0.59
7207.00,0.58
7206.00,0.58
7205.00,0.58
7204.00,0.58
7203.00,0.57
7202.00,0.57
7201.00,0.57
7200.00,0.56
7199.00,0.56
7198.00,0.56
7197.00,0.56
7196.00,0.55
7195.00,0.55
7194.00,0.55
7193.00,0.54
7192.00,0.54
7191.00,0.54
7190.00,0.54
7189.00,0.53
7188.00,0.53
7187.00,0.53
7186.00,0.53
7185.00,0.52
7184.00,0.52
7183.00,0.52
7182.00,0.52
7181.00,0.51
7180.00,0.51
7179.00,0.51
7178.00,0.51
7177.00,0.51
7176.00,0.50
7175.00,0.50
7174.00,0.50
7173.00,0.50
7172.00,0.49
7171.00,0.49
7170.00,0.49
7169.00,0.49
7168.00,0.49
7167.00,0.49
7166.00,0.48
7165.00,0.48
7164.00,0.48
7163.00,0.48
7162.00,0.48
7161.00,0.48
7160.00,0.48
7159.00,0.47
7158.00,0.47
7157.00,0.47
7156.00,0.47
7155.00,0.47
7154.00,0.47
7153.00,0.47
7152.00,0.47
7151.00,0.46
7150.00,0.46
7149.00,0.46
7148.00,0.46
7147.00,0.46
7146.00,0.46
7145.00,0.45
7144.00,0.45
7143.00,0.45
7142.00,0.45
7141.00,0.45
7140.00,0.44
7139.00,0.44
7138.00,0.44
7137.00,0.44
7136.00,0.44
7135.00,0.43
7134.00,0.43
7133.00,0.43
7132.00,0.43
7131.00,0.43
7130.00,0.43
7129.00,0.42
7128.00,0.42
7127.00,0.42
7126.00,0.42
7125.00,0.42
7124.00,0.41
7123.00,0.41
7122.00,0.41
7121.00,0.41
7120.00,0.41
7119.00,0.41
7118.00,0.41
7117.00,0.40
7116.00,0.40
7115.00,0.40
7114.00,0.40
7113.00,0.40
7112.00,0.40
7111.00,0.40
7110.00,0.40
7109.00,0.40
7108.00,0.40
7107.00,0.39
7106.00,0.39
7105.00,0.39
7104.00,0.39
7103.00,0.39
7102.00,0.39
7101.00,0.39
7100.00,0.39
7099.00,0.38
7098.00,0.38
7097.00,0.38
7096.00,0.38
7095.00,0.38
7094.00,0.38
7093.00,0.38
7092.00,0.38
7091.00,0.38
7090.00,0.37
7089.00,0.37
7088.00,0.37
7087.00,0.37
7086.00,0.37
7085.00,0.37
7084.00,0.37
7083.00,0.37
7082.00,0.37
7081.00,0.37
7080.00,0.37
7079.00,0.37
7078.00,0.37
7077.00,0.37
7076.00,0.37
7075.00,0.37
7074.00,0.37
7073.00,0.37
7072.00,0.37
7071.00,0.36
7070.00,0.36
7069.00,0.36
7068.00,0.36
7067.00,0.36
7066.00,0.36
7065.00,0.36
7064.00,0.36
7063.00,0.36
7062.00,0.36
7061.00,0.36
7060.00,0.36
7059.00,0.36
7058.00,0.36
7057.00,0.36
7056.00,0.36
7055.00,0.36
7054.00,0.36
7053.00,0.36
7052.00,0.36
7051.00,0.36
7050.00,0.35
7049.00,0.35
7048.00,0.35
7047.00,0.35
7046.00,0.35
7045.00,0.35
7044.00,0.35
7043.00,0.35
7042.00,0.35
7041.00,0.35
7040.00,0.35
7039.00,0.35
7038.00,0.35
7037.00,0.35
7036.00,0.35
7035.00,0.35
7034.00,0.35
7033.00,0.35
7032.00,0.35
7031.00,0.35
7030.00,0.35
7029.00,0.35
7028.00,0.35
7027.00,0.35
7026.00,0.35
7025.00,0.34
7024.00,0.34
7023.00,0.34
7022.00,0.34
7021.00,0.34
7020.00,0.34
7019.00,0.34
7018.00,0.34
7017.00,0.34
7016.00,0.34
7015.00,0.34
7014.00,0.34
7013.00,0.34
7012.00,0.34
7011.00,0.34
7010.00,0.34
7009.00,0.34
7008.00,0.34
7007.00,0.34
7006.00,0.34
7005.00,0.34
7004.00,0.34
7003.00,0.34
7002.00,0.33
7001.00,0.33
7000.00,0.33
6999.00,0.33
6998.00,0.33
6997.00,0.33
6996.00,0.33
6995.00,0.33
6994.00,0.33
6993.00,0.33
6992.00,0.33
6991.00,0.33
6990.00,0.33
6989.00,0.33
6988.00,0.33
6987.00,0.33
6986.00,0.33
6985.00,0.33
6984.00,0.33
6983.00,0.33
6982.00,0.33
6981.00,0.33
6980.00,0.33
6979.00,0.33
6978.00,0.33
6977.00,0.33
6976.00,0.33
6975.00,0.33
6974.00,0.33
6973.00,0.33
6972.00,0.33
6971.00,0.33
6970.00,0.33
6969.00,0.33
6968.00,0.33
6967.00,0.33
6966.00,0.33
6965.00,0.33
6964.00,0.33
6963.00,0.33
6962.00,0.33
6961.00,0.33
6960.00,0.33
6959.00,0.33
6958.00,0.33
6957.00,0.33
6956.00,0.33
6955.00,0.33
6954.00,0.33
6953.00,0.33
6952.00,0.33
6951.00,0.33
6950.00,0.33
6949.00,0.33
6948.00,0.33
6947.00,0.33
6946.00,0.33
6945.00,0.33
6944.00,0.33
6943.00,0.33
6942.00,0.33
6941.00,0.33
6940.00,0.33
6939.00,0.33
6938.00,0.33
6937.00,0.33
6936.00,0.33
6935.00,0.33
6934.00,0.33
6933.00,0.33
6932.00,0.33
6931.00,0.33
6930.00,0.33
6929.00,0.33
6928.00,0.33
6927.00,0.33
6926.00,0.33
6925.00,0.33
6924.00,0.33
6923.00,0.33
6922.00,0.33
6921.00,0.33
6920.00,0.33
6919.00,0.33
6918.00,0.33
6917.00,0.33
6916.00,0.33
6915.00,0.33
6914.00,0.33
6913.00,0.33
6912.00,0.33
6911.00,0.32
6910.00,0.32
6909.00,0.32
6908.00,0.32
6907.00,0.32
6906.00,0.32
6905.00,0.33
6904.00,0.33
6903.00,0.33
6902.00,0.33
6901.00,0.33
6900.00,0.33
6899.00,0.33
6898.00,0.33
6897.00,0.33
6896.00,0.33
6895.00,0.33
6894.00,0.33
6893.00,0.33
6892.00,0.33
6891.00,0.33
6890.00,0.33
6889.00,0.33
6888.00,0.33
6887.00,0.33
6886.00,0.33
6885.00,0.33
6884.00,0.33
6883.00,0.33
6882.00,0.33
6881.00,0.33
6880.00,0.33
6879.00,0.33
6878.00,0.32
6877.00,0.32
6876.00,0.32
6875.00,0.32
6874.00,0.32
6873.00,0.32
6872.00,0.32
6871.00,0.33
6870.00,0.33
6869.00,0.33
6868.00,0.33
6867.00,0.33
6866.00,0.33
6865.00,0.33
6864.00,0.33
6863.00,0.33
6862.00,0.33
6861.00,0.33
6860.00,0.33
6859.00,0.33
6858.00,0.33
6857.00,0.33
6856.00,0.33
6855.00,0.33
6854.00,0.33
6853.00,0.33
6852.00,0.33
6851.00,0.34
6850.00,0.34
6849.00,0.34
6848.00,0.34
6847.00,0.34
6846.00,0.34
6845.00,0.34
6844.00,0.34
6843.00,0.34
6842.00,0.34
6841.00,0.34
6840.00,0.34
6839.00,0.34
6838.00,0.34
6837.00,0.34
6836.00,0.34
6835.00,0.34
6834.00,0.34
6833.00,0.34
6832.00,0.34
6831.00,0.34
6830.00,0.34
6829.00,0.34
6828.00,0.34
6827.00,0.34
6826.00,0.34
6825.00,0.34
6824.00,0.34
6823.00,0.34
6822.00,0.34
6821.00,0.34
6820.00,0.34
6819.00,0.34
6818.00,0.34
6817.00,0.34
6816.00,0.34
6815.00,0.34
6814.00,0.34
6813.00,0.34
6812.00,0.34
6811.00,0.34
6810.00,0.34
6809.00,0.34
6808.00,0.34
6807.00,0.34
6806.00,0.34
6805.00,0.34
6804.00,0.34
6803.00,0.34
6802.00,0.34
6801.00,0.34
6800.00,0.34
6799.00,0.34
6798.00,0.34
6797.00,0.34
6796.00,0.34
6795.00,0.34
6794.00,0.34
6793.00,0.34
6792.00,0.34
6791.00,0.34
6790.00,0.34
6789.00,0.34
6788.00,0.34
6787.00,0.34
6786.00,0.34
6785.00,0.34
6784.00,0.34
6783.00,0.34
6782.00,0.34
6781.00,0.34
6780.00,0.34
6779.00,0.34
6778.00,0.34
6777.00,0.34
6776.00,0.34
6775.00,0.35
6774.00,0.35
6773.00,0.35
6772.00,0.35
6771.00,0.35
6770.00,0.35
6769.00,0.35
6768.00,0.35
6767.00,0.35
6766.00,0.35
6765.00,0.35
6764.00,0.35
6763.00,0.35
6762.00,0.35
6761.00,0.35
6760.00,0.35
6759.00,0.35
6758.00,0.35
6757.00,0.35
6756.00,0.35
6755.00,0.35
6754.00,0.35
6753.00,0.35
6752.00,0.35
6751.00,0.35
6750.00,0.35
6749.00,0.35
6748.00,0.35
6747.00,0.35
6746.00,0.35
6745.00,0.35
6744.00,0.35
6743.00,0.35
6742.00,0.35
6741.00,0.35
6740.00,0.36
6739.00,0.36
6738.00,0.36
6737.00,0.36
6736.00,0.36
6735.00,0.36
6734.00,0.36
6733.00,0.36
6732.00,0.36
6731.00,0.36
6730.00,0.36
6729.00,0.36
6728.00,0.36
6727.00,0.36
6726.00,0.36
6725.00,0.36
6724.00,0.36
6723.00,0.36
6722.00,0.36
6721.00,0.36
6720.00,0.36
6719.00,0.36
6718.00,0.36
6717.00,0.36
6716.00,0.36
6715.00,0.36
6714.00,0.36
6713.00,0.36
6712.00,0.36
6711.00,0.36
6710.00,0.36
6709.00,0.36
6708.00,0.36
6707.00,0.36
6706.00,0.36
6705.00,0.37
6704.00,0.37
6703.00,0.37
6702.00,0.37
6701.00,0.37
6700.00,0.37
6699.00,0.37
6698.00,0.37
6697.00,0.37
6696.00,0.37
6695.00,0.37
6694.00,0.37
6693.00,0.37
6692.00,0.37
6691.00,0.37
6690.00,0.37
6689.00,0.37
6688.00,0.37
6687.00,0.37
6686.00,0.37
6685.00,0.37
6684.00,0.37
6683.00,0.37
6682.00,0.38
6681.00,0.38
6680.00,0.38
6679.00,0.38
6678.00,0.38
6677.00,0.38
6676.00,0.38
6675.00,0.38
6674.00,0.38
6673.00,0.38
6672.00,0.38
6671.00,0.38
6670.00,0.38
6669.00,0.38
6668.00,0.38
6667.00,0.39
6666.00,0.39
6665.00,0.39
6664.00,0.39
6663.00,0.39
6662.00,0.39
6661.00,0.39
6660.00,0.39
6659.00,0.39
6658.00,0.39
6657.00,0.39
6656.00,0.39
6655.00,0.39
6654.00,0.39
6653.00,0.39
6652.00,0.39
6651.00,0.39
6650.00,0.39
6649.00,0.39
6648.00,0.39
6647.00,0.39
6646.00,0.39
6645.00,0.40
6644.00,0.40
6643.00,0.40
6642.00,0.40
6641.00,0.40
6640.00,0.40
6639.00,0.40
6638.00,0.40
6637.00,0.40
6636.00,0.40
6635.00,0.40
6634.00,0.40
6633.00,0.40
6632.00,0.40
6631.00,0.40
6630.00,0.40
6629.00,0.40
6628.00,0.40
6627.00,0.40
6626.00,0.40
6625.00,0.40
6624.00,0.40
6623.00,0.40
6622.00,0.40
6621.00,0.40
6620.00,0.40
6619.00,0.40
6618.00,0.41
6617.00,0.41
6616.00,0.41
6615.00,0.41
6614.00,0.41
6613.00,0.41
6612.00,0.41
6611.00,0.41
6610.00,0.41
6609.00,0.41
6608.00,0.41
6607.00,0.41
6606.00,0.41
6605.00,0.41
6604.00,0.41
6603.00,0.41
6602.00,0.41
6601.00,0.41
6600.00,0.42
6599.00,0.42
6598.00,0.42
6597.00,0.42
6596.00,0.42
6595.00,0.42
6594.00,0.42
6593.00,0.42
6592.00,0.42
6591.00,0.42
6590.00,0.42
6589.00,0.42
6588.00,0.42
6587.00,0.42
6586.00,0.42
6585.00,0.43
6584.00,0.43
6583.00,0.43
6582.00,0.43
6581.00,0.43
6580.00,0.43
6579.00,0.43
6578.00,0.43
6577.00,0.43
6576.00,0.43
6575.00,0.43
6574.00,0.43
6573.00,0.43
6572.00,0.43
6571.00,0.43
6570.00,0.44
6569.00,0.44
6568.00,0.44
6567.00,0.44
6566.00,0.44
6565.00,0.44
6564.00,0.44
6563.00,0.44
6562.00,0.44
6561.00,0.44
6560.00,0.44
6559.00,0.44
6558.00,0.44
6557.00,0.44
6556.00,0.44
6555.00,0.44
6554.00,0.44
6553.00,0.45
6552.00,0.45
6551.00,0.45
6550.00,0.45
6549.00,0.45
6548.00,0.45
6547.00,0.45
6546.00,0.45
6545.00,0.45
6544.00,0.45
6543.00,0.45
6542.00,0.45
6541.00,0.45
6540.00,0.45
6539.00,0.45
6538.00,0.45
6537.00,0.45
6536.00,0.45
6535.00,0.45
6534.00,0.45
6533.00,0.45
6532.00,0.45
6531.00,0.45
6530.00,0.45
6529.00,0.45
6528.00,0.45
6527.00,0.45
6526.00,0.45
6525.00,0.45
6524.00,0.45
6523.00,0.45
6522.00,0.45
6521.00,0.46
6520.00,0.46
6519.00,0.46
6518.00,0.46
6517.00,0.46
6516.00,0.46
6515.00,0.46
6514.00,0.46
6513.00,0.46
6512.00,0.46
6511.00,0.46
6510.00,0.46
6509.00,0.47
6508.00,0.47
6507.00,0.47
6506.00,0.47
6505.00,0.47
6504.00,0.47
6503.00,0.47
6502.00,0.47
6501.00,0.47
6500.00,0.47
6499.00,0.47
6498.00,0.47
6497.00,0.47
6496.00,0.47
6495.00,0.48
6494.00,0.48
6493.00,0.48
6492.00,0.48
6491.00,0.48
6490.00,0.48
6489.00,0.48
6488.00,0.48
6487.00,0.48
6486.00,0.48
6485.00,0.48
6484.00,0.48
6483.00,0.48
6482.00,0.48
6481.00,0.49
6480.00,0.49
6479.00,0.49
6478.00,0.49
6477.00,0.49
6476.00,0.49
6475.00,0.49
6474.00,0.49
6473.00,0.49
6472.00,0.49
6471.00,0.49
6470.00,0.49
6469.00,0.49
6468.00,0.49
6467.00,0.49
6466.00,0.49
6465.00,0.49
6464.00,0.49
6463.00,0.49
6462.00,0.49
6461.00,0.49
6460.00,0.49
6459.00,0.49
6458.00,0.49
6457.00,0.49
6456.00,0.49
6455.00,0.49
6454.00,0.49
6453.00,0.49
6452.00,0.49
6451.00,0.49
6450.00,0.49
6449.00,0.49
6448.00,0.49
6447.00,0.49
6446.00,0.49
6445.00,0.49
6444.00,0.50
6443.00,0.50
6442.00,0.50
6441.00,0.50
6440.00,0.50
6439.00,0.50
6438.00,0.50
6437.00,0.50
6436.00,0.50
6435.00,0.50
6434.00,0.50
6433.00,0.50
6432.00,0.50
6431.00,0.50
6430.00,0.50
6429.00,0.50
6428.00,0.50
6427.00,0.50
6426.00,0.50
6425.00,0.50
6424.00,0.50
6423.00,0.50
6422.00,0.50
6421.00,0.50
6420.00,0.50
6419.00,0.51
6418.00,0.51
6417.00,0.51
6416.00,0.51
6415.00,0.51
6414.00,0.51
6413.00,0.51
6412.00,0.51
6411.00,0.51
6410.00,0.51
6409.00,0.51
6408.00,0.51
6407.00,0.52
6406.00,0.52
6405.00,0.52
6404.00,0.52
6403.00,0.52
6402.00,0.52
6401.00,0.52
6400.00,0.52
6399.00,0.52
6398.00,0.52
6397.00,0.52
6396.00,0.52
6395.00,0.52
6394.00,0.52
6393.00,0.52
6392.00,0.52
6391.00,0.52
6390.00,0.52
6389.00,0.52
6388.00,0.52
6387.00,0.52
6386.00,0.52
6385.00,0.52
6384.00,0.52
6383.00,0.52
6382.00,0.52
6381.00,0.52
6380.00,0.52
6379.00,0.52
6378.00,0.53
6377.00,0.53
6376.00,0.53
6375.00,0.53
6374.00,0.53
6373.00,0.53
6372.00,0.53
6371.00,0.53
6370.00,0.53
6369.00,0.53
6368.00,0.53
6367.00,0.54
6366.00,0.54
6365.00,0.54
6364.00,0.54
6363.00,0.54
6362.00,0.54
6361.00,0.54
6360.00,0.54
6359.00,0.54
6358.00,0.54
6357.00,0.54
6356.00,0.54
6355.00,0.55
6354.00,0.55
6353.00,0.55
6352.00,0.55
6351.00,0.55
6350.00,0.55
6349.00,0.55
6348.00,0.55
6347.00,0.55
6346.00,0.55
6345.00,0.55
6344.00,0.55
6343.00,0.55
6342.00,0.55
6341.00,0.55
6340.00,0.55
6339.00,0.55
6338.00,0.55
6337.00,0.55
6336.00,0.55
6335.00,0.56
6334.00,0.56
6333.00,0.56
6332.00,0.56
6331.00,0.56
6330.00,0.56
6329.00,0.56
6328.00,0.56
6327.00,0.56
6326.00,0.56
6325.00,0.56
6324.00,0.56
6323.00,0.56
6322.00,0.56
6321.00,0.56
6320.00,0.57
6319.00,0.57
6318.00,0.57
6317.00,0.57
6316.00,0.57
6315.00,0.57
6314.00,0.57
6313.00,0.57
6312.00,0.57
6311.00,0.57
6310.00,0.58
6309.00,0.58
6308.00,0.58
6307.00,0.58
6306.00,0.58
6305.00,0.58
6304.00,0.58
6303.00,0.58
6302.00,0.58
6301.00,0.58
6300.00,0.58
6299.00,0.58
6298.00,0.58
6297.00,0.58
6296.00,0.58
6295.00,0.59
6294.00,0.59
6293.00,0.59
6292.00,0.59
6291.00,0.59
6290.00,0.59
6289.00,0.59
6288.00,0.59
6287.00,0.59
6286.00,0.59
6285.00,0.59
6284.00,0.59
6283.00,0.59
6282.00,0.60
6281.00,0.60
6280.00,0.60
6279.00,0.60
6278.00,0.60
6277.00,0.60
6276.00,0.60
6275.00,0.60
6274.00,0.60
6273.00,0.60
6272.00,0.60
6271.00,0.60
6270.00,0.60
6269.00,0.61
6268.00,0.61
6267.00,0.61
6266.00,0.61
6265.00,0.61
6264.00,0.61
6263.00,0.61
6262.00,0.61
6261.00,0.61
6260.00,0.61
6259.00,0.61
6258.00,0.62
6257.00,0.62
6256.00,0.62
6255.00,0.62
6254.00,0.62
6253.00,0.62
6252.00,0.62
6251.00,0.62
6250.00,0.62
6249.00,0.62
6248.00,0.62
6247.00,0.62
6246.00,0.62
6245.00,0.62
6244.00,0.62
6243.00,0.62
6242.00,0.62
6241.00,0.62
6240.00,0.62
6239.00,0.62
6238.00,0.62
6237.00,0.63
6236.00,0.63
6235.00,0.63
6234.00,0.63
6233.00,0.63
6232.00,0.63
6231.00,0.63
6230.00,0.63
6229.00,0.63
6228.00,0.63
6227.00,0.64
6226.00,0.64
6225.00,0.64
6224.00,0.64
6223.00,0.64
6222.00,0.64
6221.00,0.64
6220.00,0.64
6219.00,0.64
6218.00,0.64
6217.00,0.65
6216.00,0.65
6215.00,0.65
6214.00,0.65
6213.00,0.65
6212.00,0.65
6211.00,0.65
6210.00,0.65
6209.00,0.65
6208.00,0.65
6207.00,0.65
6206.00,0.66
6205.00,0.66
6204.00,0.66
6203.00,0.66
6202.00,0.66
6201.00,0.66
6200.00,0.66
6199.00,0.66
6198.00,0.66
6197.00,0.66
6196.00,0.66
6195.00,0.66
6194.00,0.66
6193.00,0.66
6192.00,0.66
6191.00,0.66
6190.00,0.67
6189.00,0.67
6188.00,0.67
6187.00,0.67
6186.00,0.67
6185.00,0.67
6184.00,0.67
6183.00,0.67
6182.00,0.67
6181.00,0.67
6180.00,0.68
6179.00,0.68
6178.00,0.68
6177.00,0.68
6176.00,0.68
6175.00,0.68
6174.00,0.68
6173.00,0.68
6172.00,0.68
6171.00,0.68
6170.00,0.69
6169.00,0.69
6168.00,0.69
6167.00,0.69
6166.00,0.69
6165.00,0.69
6164.00,0.69
6163.00,0.69
6162.00,0.69
6161.00,0.69
6160.00,0.69
6159.00,0.69
6158.00,0.69
6157.00,0.70
6156.00,0.70
6155.00,0.70
6154.00,0.70
6153.00,0.70
6152.00,0.70
6151.00,0.70
6150.00,0.70
6149.00,0.70
6148.00,0.70
6147.00,0.71
6146.00,0.71
6145.00,0.71
6144.00,0.71
6143.00,0.71
6142.00,0.71
6141.00,0.71
6140.00,0.71
6139.00,0.72
6138.00,0.72
6137.00,0.72
6136.00,0.72
6135.00,0.72
6134.00,0.72
6133.00,0.72
6132.00,0.72
6131.00,0.73
6130.00,0.73
6129.00,0.73
6128.00,0.73
6127.00,0.73
6126.00,0.73
6125.00,0.73
6124.00,0.73
6123.00,0.73
6122.00,0.73
6121.00,0.74
6120.00,0.74
6119.00,0.74
6118.00,0.74
6117.00,0.74
6116.00,0.74
6115.00,0.74
6114.00,0.74
6113.00,0.74
6112.00,0.74
6111.00,0.74
6110.00,0.75
6109.00,0.75
6108.00,0.75
6107.00,0.75
6106.00,0.75
6105.00,0.75
6104.00,0.75
6103.00,0.75
6102.00,0.75
6101.00,0.75
6100.00,0.75
6099.00,0.75
6098.00,0.75
6097.00,0.75
6096.00,0.75
6095.00,0.76
6094.00,0.76
6093.00,0.76
6092.00,0.76
6091.00,0.76
6090.00,0.76
6089.00,0.76
6088.00,0.76
6087.00,0.76
6086.00,0.76
6085.00,0.76
6084.00,0.77
6083.00,0.77
6082.00,0.77
6081.00,0.77
6080.00,0.77
6079.00,0.77
6078.00,0.77
6077.00,0.77
6076.00,0.77
6075.00,0.78
6074.00,0.78
6073.00,0.78
6072.00,0.78
6071.00,0.78
6070.00,0.78
6069.00,0.78
6068.00,0.78
6067.00,0.78
6066.00,0.78
6065.00,0.78
6064.00,0.78
6063.00,0.78
6062.00,0.78
6061.00,0.78
6060.00,0.78
6059.00,0.78
6058.00,0.78
6057.00,0.79
6056.00,0.79
6055.00,0.79
6054.00,0.79
6053.00,0.79
6052.00,0.79
6051.00,0.79
6050.00,0.79
6049.00,0.79
6048.00,0.79
6047.00,0.79
6046.00,0.79
6045.00,0.79
6044.00,0.79
6043.00,0.80
6042.00,0.80
6041.00,0.80
6040.00,0.80
6039.00,0.80
6038.00,0.80
6037.00,0.80
6036.00,0.80
6035.00,0.80
6034.00,0.80
6033.00,0.80
6032.00,0.80
6031.00,0.80
6030.00,0.80
6029.00,0.80
6028.00,0.80
6027.00,0.80
6026.00,0.80
6025.00,0.80
6024.00,0.81
6023.00,0.81
6022.00,0.81
6021.00,0.81
6020.00,0.81
6019.00,0.81
6018.00,0.81
6017.00,0.81
6016.00,0.81
6015.00,0.81
6014.00,0.81
6013.00,0.81
6012.00,0.81
6011.00,0.81
6010.00,0.81
6009.00,0.81
6008.00,0.81
6007.00,0.81
6006.00,0.81
6005.00,0.81
6004.00,0.81
6003.00,0.81
6002.00,0.81
6001.00,0.81
6000.00,0.81
5999.00,0.81
5998.00,0.81
5997.00,0.81
5996.00,0.81
5995.00,0.80
5994.00,0.80
5993.00,0.80
5992.00,0.80
5991.00,0.80
5990.00,0.80
5989.00,0.80
5988.00,0.80
5987.00,0.80
5986.00,0.79
5985.00,0.79
5984.00,0.79
5983.00,0.79
5982.00,0.79
5981.00,0.78
5980.00,0.78
5979.00,0.78
5978.00,0.78
5977.00,0.78
5976.00,0.77
5975.00,0.77
5974.00,0.77
5973.00,0.76
5972.00,0.76
5971.00,0.76
5970.00,0.76
5969.00,0.75
5968.00,0.75
5967.00,0.74
5966.00,0.74
5965.00,0.74
5964.00,0.73
5963.00,0.73
5962.00,0.72
5961.00,0.72
5960.00,0.72
5959.00,0.71
5958.00,0.71
5957.00,0.71
5956.00,0.70
5955.00,0.70
5954.00,0.70
5953.00,0.69
5952.00,0.69
5951.00,0.69
5950.00,0.68
5949.00,0.68
5948.00,0.68
5947.00,0.68
5946.00,0.67
5945.00,0.67
5944.00,0.67
5943.00,0.67
5942.00,0.67
5941.00,0.67
5940.00,0.67
5939.00,0.67
5938.00,0.66
5937.00,0.66
5936.00,0.66
5935.00,0.66
5934.00,0.66
5933.00,0.66
5932.00,0.66
5931.00,0.66
5930.00,0.66
5929.00,0.66
5928.00,0.66
5927.00,0.66
5926.00,0.66
5925.00,0.66
5924.00,0.66
5923.00,0.65
5922.00,0.65
5921.00,0.65
5920.00,0.65
5919.00,0.65
5918.00,0.65
5917.00,0.65
5916.00,0.65
5915.00,0.64
5914.00,0.64
5913.00,0.64
5912.00,0.64
5911.00,0.64
5910.00,0.64
5909.00,0.64
5908.00,0.64
5907.00,0.64
5906.00,0.64
5905.00,0.64
5904.00,0.64
5903.00,0.64
5902.00,0.64
5901.00,0.64
5900.00,0.64
5899.00,0.64
5898.00,0.64
5897.00,0.64
5896.00,0.64
5895.00,0.64
5894.00,0.64
5893.00,0.65
5892.00,0.65
5891.00,0.65
5890.00,0.65
5889.00,0.65
5888.00,0.65
5887.00,0.66
5886.00,0.66
5885.00,0.66
5884.00,0.66
5883.00,0.66
5882.00,0.67
5881.00,0.67
5880.00,0.67
5879.00,0.67
5878.00,0.67
5877.00,0.67
5876.00,0.68
5875.00,0.68
5874.00,0.68
5873.00,0.68
5872.00,0.68
5871.00,0.68
5870.00,0.68
5869.00,0.69
5868.00,0.69
5867.00,0.69
5866.00,0.69
5865.00,0.69
5864.00,0.69
5863.00,0.69
5862.00,0.69
5861.00,0.69
5860.00,0.69
5859.00,0.69
5858.00,0.70
5857.00,0.70
5856.00,0.70
5855.00,0.70
5854.00,0.70
5853.00,0.70
5852.00,0.70
5851.00,0.70
5850.00,0.70
5849.00,0.70
5848.00,0.70
5847.00,0.70
5846.00,0.70
5845.00,0.70
5844.00,0.70
5843.00,0.70
5842.00,0.70
5841.00,0.70
5840.00,0.70
5839.00,0.70
5838.00,0.70
5837.00,0.70
5836.00,0.70
5835.00,0.70
5834.00,0.70
5833.00,0.70
5832.00,0.70
5831.00,0.70
5830.00,0.70
5829.00,0.70
5828.00,0.70
5827.00,0.70
5826.00,0.70
5825.00,0.70
5824.00,0.70
5823.00,0.70
5822.00,0.70
5821.00,0.70
5820.00,0.70
5819.00,0.70
5818.00,0.70
5817.00,0.70
5816.00,0.70
5815.00,0.70
5814.00,0.70
5813.00,0.70
5812.00,0.70
5811.00,0.70
5810.00,0.70
5809.00,0.70
5808.00,0.70
5807.00,0.70
5806.00,0.70
5805.00,0.70
5804.00,0.70
5803.00,0.70
5802.00,0.70
5801.00,0.70
5800.00,0.70
5799.00,0.70
5798.00,0.70
5797.00,0.69
5796.00,0.69
5795.00,0.69
5794.00,0.69
5793.00,0.69
5792.00,0.69
5791.00,0.69
5790.00,0.68
5789.00,0.68
5788.00,0.68
5787.00,0.68
5786.00,0.68
5785.00,0.68
5784.00,0.68
5783.00,0.68
5782.00,0.68
5781.00,0.68
5780.00,0.67
5779.00,0.67
5778.00,0.67
5777.00,0.67
5776.00,0.67
5775.00,0.67
5774.00,0.67
5773.00,0.67
5772.00,0.67
5771.00,0.67
5770.00,0.67
5769.00,0.67
5768.00,0.67
5767.00,0.67
5766.00,0.67
5765.00,0.68
5764.00,0.68
5763.00,0.68
5762.00,0.68
5761.00,0.68
5760.00,0.68
5759.00,0.68
5758.00,0.68
5757.00,0.68
5756.00,0.69
5755.00,0.69
5754.00,0.69
5753.00,0.69
5752.00,0.69
5751.00,0.69
5750.00,0.70
5749.00,0.70
5748.00,0.70
5747.00,0.70
5746.00,0.70
5745.00,0.70
5744.00,0.71
5743.00,0.71
5742.00,0.71
5741.00,0.71
5740.00,0.71
5739.00,0.71
5738.00,0.71
5737.00,0.71
5736.00,0.71
5735.00,0.72
5734.00,0.72
5733.00,0.72
5732.00,0.72
5731.00,0.72
5730.00,0.72
5729.00,0.72
5728.00,0.72
5727.00,0.72
5726.00,0.72
5725.00,0.72
5724.00,0.72
5723.00,0.72
5722.00,0.72
5721.00,0.72
5720.00,0.72
5719.00,0.72
5718.00,0.72
5717.00,0.72
5716.00,0.72
5715.00,0.72
5714.00,0.72
5713.00,0.72
5712.00,0.72
5711.00,0.72
5710.00,0.72
5709.00,0.72
5708.00,0.72
5707.00,0.71
5706.00,0.71
5705.00,0.71
5704.00,0.71
5703.00,0.71
5702.00,0.71
5701.00,0.71
5700.00,0.71
5699.00,0.71
5698.00,0.71
5697.00,0.71
5696.00,0.71
5695.00,0.71
5694.00,0.71
5693.00,0.70
5692.00,0.70
5691.00,0.70
5690.00,0.70
5689.00,0.70
5688.00,0.70
5687.00,0.70
5686.00,0.70
5685.00,0.70
5684.00,0.70
5683.00,0.70
5682.00,0.70
5681.00,0.70
5680.00,0.70
5679.00,0.70
5678.00,0.70
5677.00,0.70
5676.00,0.70
5675.00,0.70
5674.00,0.70
5673.00,0.70
5672.00,0.70
5671.00,0.70
5670.00,0.70
5669.00,0.70
5668.00,0.70
5667.00,0.70
5666.00,0.70
5665.00,0.70
5664.00,0.70
5663.00,0.70
5662.00,0.70
5661.00,0.70
5660.00,0.70
5659.00,0.70
5658.00,0.70
5657.00,0.70
5656.00,0.70
5655.00,0.70
5654.00,0.71
5653.00,0.71
5652.00,0.71
5651.00,0.71
5650.00,0.71
5649.00,0.71
5648.00,0.71
5647.00,0.71
5646.00,0.71
5645.00,0.71
5644.00,0.72
5643.00,0.72
5642.00,0.72
5641.00,0.72
5640.00,0.72
5639.00,0.72
5638.00,0.72
5637.00,0.72
5636.00,0.72
5635.00,0.72
5634.00,0.73
5633.00,0.73
5632.00,0.73
5631.00,0.73
5630.00,0.73
5629.00,0.73
5628.00,0.73
5627.00,0.73
5626.00,0.73
5625.00,0.73
5624.00,0.73
5623.00,0.73
5622.00,0.73
5621.00,0.73
5620.00,0.73
5619.00,0.74
5618.00,0.74
5617.00,0.74
5616.00,0.74
5615.00,0.74
5614.00,0.74
5613.00,0.74
5612.00,0.74
5611.00,0.74
5610.00,0.74
5609.00,0.75
5608.00,0.75
5607.00,0.75
5606.00,0.75
5605.00,0.75
5604.00,0.75
5603.00,0.75
5602.00,0.75
5601.00,0.75
5600.00,0.76
5599.00,0.76
5598.00,0.76
5597.00,0.76
5596.00,0.76
5595.00,0.76
5594.00,0.76
5593.00,0.76
5592.00,0.76
5591.00,0.76
5590.00,0.76
5589.00,0.76
5588.00,0.76
5587.00,0.76
5586.00,0.76
5585.00,0.77
5584.00,0.77
5583.00,0.77
5582.00,0.77
5581.00,0.77
5580.00,0.77
5579.00,0.77
5578.00,0.77
5577.00,0.77
5576.00,0.77
5575.00,0.77
5574.00,0.77
5573.00,0.77
5572.00,0.77
5571.00,0.78
5570.00,0.78
5569.00,0.78
5568.00,0.78
5567.00,0.78
5566.00,0.78
5565.00,0.78
5564.00,0.78
5563.00,0.78
5562.00,0.78
5561.00,0.79
5560.00,0.79
5559.00,0.79
5558.00,0.79
5557.00,0.79
5556.00,0.79
5555.00,0.79
5554.00,0.79
5553.00,0.79
5552.00,0.79
5551.00,0.79
5550.00,0.80
5549.00,0.80
5548.00,0.80
5547.00,0.80
5546.00,0.80
5545.00,0.80
5544.00,0.80
5543.00,0.80
5542.00,0.80
5541.00,0.80
5540.00,0.81
5539.00,0.81
5538.00,0.81
5537.00,0.81
5536.00,0.81
5535.00,0.81
5534.00,0.81
5533.00,0.81
5532.00,0.81
5531.00,0.81
5530.00,0.81
5529.00,0.81
5528.00,0.81
5527.00,0.81
5526.00,0.81
5525.00,0.81
5524.00,0.81
5523.00,0.82
5522.00,0.82
5521.00,0.82
5520.00,0.82
5519.00,0.82
5518.00,0.82
5517.00,0.82
5516.00,0.82
5515.00,0.82
5514.00,0.82
5513.00,0.82
5512.00,0.82
5511.00,0.82
5510.00,0.82
5509.00,0.82
5508.00,0.82
5507.00,0.83
5506.00,0.83
5505.00,0.83
5504.00,0.83
5503.00,0.83
5502.00,0.83
5501.00,0.83
5500.00,0.83
5499.00,0.83
5498.00,0.83
5497.00,0.83
5496.00,0.83
5495.00,0.83
5494.00,0.83
5493.00,0.83
5492.00,0.83
5491.00,0.83
5490.00,0.83
5489.00,0.83
5488.00,0.83
5487.00,0.83
5486.00,0.83
5485.00,0.83
5484.00,0.84
5483.00,0.84
5482.00,0.84
5481.00,0.84
5480.00,0.84
5479.00,0.84
5478.00,0.84
5477.00,0.84
5476.00,0.84
5475.00,0.84
5474.00,0.84
5473.00,0.85
5472.00,0.85
5471.00,0.85
5470.00,0.85
5469.00,0.85
5468.00,0.85
5467.00,0.85
5466.00,0.85
5465.00,0.85
5464.00,0.85
5463.00,0.85
5462.00,0.85
5461.00,0.85
5460.00,0.85
5459.00,0.85
5458.00,0.86
5457.00,0.86
5456.00,0.86
5455.00,0.86
5454.00,0.86
5453.00,0.86
5452.00,0.86
5451.00,0.86
5450.00,0.86
5449.00,0.86
5448.00,0.86
5447.00,0.86
5446.00,0.86
5445.00,0.86
5444.00,0.86
5443.00,0.86
5442.00,0.86
5441.00,0.86
5440.00,0.86
5439.00,0.86
5438.00,0.86
5437.00,0.86
5436.00,0.86
5435.00,0.86
5434.00,0.86
5433.00,0.86
5432.00,0.86
5431.00,0.86
5430.00,0.86
5429.00,0.86
5428.00,0.86
5427.00,0.86
5426.00,0.86
5425.00,0.86
5424.00,0.86
5423.00,0.86
5422.00,0.86
5421.00,0.86
5420.00,0.86
5419.00,0.86
5418.00,0.86
5417.00,0.86
5416.00,0.86
5415.00,0.86
5414.00,0.85
5413.00,0.85
5412.00,0.85
5411.00,0.85
5410.00,0.85
5409.00,0.85
5408.00,0.85
5407.00,0.85
5406.00,0.85
5405.00,0.85
5404.00,0.85
5403.00,0.85
5402.00,0.84
5401.00,0.84
5400.00,0.84
5399.00,0.84
5398.00,0.84
5397.00,0.84
5396.00,0.84
5395.00,0.84
5394.00,0.84
5393.00,0.83
5392.00,0.83
5391.00,0.83
5390.00,0.83
5389.00,0.83
5388.00,0.82
5387.00,0.82
5386.00,0.82
5385.00,0.82
5384.00,0.81
5383.00,0.81
5382.00,0.81
5381.00,0.81
5380.00,0.80
5379.00,0.80
5378.00,0.80
5377.00,0.80
5376.00,0.79
5375.00,0.79
5374.00,0.79
5373.00,0.78
5372.00,0.78
5371.00,0.78
5370.00,0.77
5369.00,0.77
5368.00,0.77
5367.00,0.76
5366.00,0.76
5365.00,0.76
5364.00,0.75
5363.00,0.75
5362.00,0.74
5361.00,0.74
5360.00,0.73
5359.00,0.73
5358.00,0.73
5357.00,0.72
5356.00,0.72
5355.00,0.71
5354.00,0.71
5353.00,0.70
5352.00,0.69
5351.00,0.69
5350.00,0.68
5349.00,0.68
5348.00,0.67
5347.00,0.67
5346.00,0.66
5345.00,0.66
5344.00,0.65
5343.00,0.65
5342.00,0.64
5341.00,0.64
5340.00,0.63
5339.00,0.63
5338.00,0.62
5337.00,0.61
5336.00,0.61
5335.00,0.60
5334.00,0.60
5333.00,0.59
5332.00,0.59
5331.00,0.59
5330.00,0.58
5329.00,0.58
5328.00,0.57
5327.00,0.57
5326.00,0.56
5325.00,0.56
5324.00,0.56
5323.00,0.55
5322.00,0.55
5321.00,0.55
5320.00,0.54
5319.00,0.54
5318.00,0.54
5317.00,0.53
5316.00,0.53
5315.00,0.53
5314.00,0.53
5313.00,0.52
5312.00,0.52
5311.00,0.52
5310.00,0.52
5309.00,0.51
5308.00,0.51
5307.00,0.51
5306.00,0.51
5305.00,0.51
5304.00,0.50
5303.00,0.50
5302.00,0.50
5301.00,0.50
5300.00,0.50
5299.00,0.50
5298.00,0.50
5297.00,0.50
5296.00,0.50
5295.00,0.50
5294.00,0.49
5293.00,0.49
5292.00,0.49
5291.00,0.49
5290.00,0.49
5289.00,0.49
5288.00,0.49
5287.00,0.49
5286.00,0.49
5285.00,0.49
5284.00,0.49
5283.00,0.49
5282.00,0.49
5281.00,0.49
5280.00,0.49
5279.00,0.49
5278.00,0.49
5277.00,0.49
5276.00,0.49
5275.00,0.49
5274.00,0.49
5273.00,0.49
5272.00,0.49
5271.00,0.49
5270.00,0.49
5269.00,0.49
5268.00,0.49
5267.00,0.49
5266.00,0.49
5265.00,0.49
5264.00,0.49
5263.00,0.49
5262.00,0.49
5261.00,0.49
5260.00,0.49
5259.00,0.49
5258.00,0.49
5257.00,0.49
5256.00,0.49
5255.00,0.49
5254.00,0.49
5253.00,0.49
5252.00,0.49
5251.00,0.49
5250.00,0.49
5249.00,0.49
5248.00,0.49
5247.00,0.49
5246.00,0.49
5245.00,0.49
5244.00,0.49
5243.00,0.49
5242.00,0.49
5241.00,0.49
5240.00,0.49
5239.00,0.49
5238.00,0.49
5237.00,0.49
5236.00,0.49
5235.00,0.49
5234.00,0.49
5233.00,0.49
5232.00,0.49
5231.00,0.49
5230.00,0.49
5229.00,0.49
5228.00,0.49
5227.00,0.49
5226.00,0.49
5225.00,0.49
5224.00,0.49
5223.00,0.49
5222.00,0.49
5221.00,0.49
5220.00,0.49
5219.00,0.49
5218.00,0.49
5217.00,0.49
5216.00,0.49
5215.00,0.50
5214.00,0.50
5213.00,0.50
5212.00,0.50
5211.00,0.50
5210.00,0.50
5209.00,0.50
5208.00,0.50
5207.00,0.50
5206.00,0.50
5205.00,0.50
5204.00,0.50
5203.00,0.50
5202.00,0.50
5201.00,0.50
5200.00,0.50
5199.00,0.50
5198.00,0.50
5197.00,0.50
5196.00,0.50
5195.00,0.50
5194.00,0.50
5193.00,0.50
5192.00,0.50
5191.00,0.50
5190.00,0.50
5189.00,0.50
5188.00,0.50
5187.00,0.50
5186.00,0.50
5185.00,0.50
5184.00,0.50
5183.00,0.50
5182.00,0.50
5181.00,0.50
5180.00,0.50
5179.00,0.50
5178.00,0.50
5177.00,0.50
5176.00,0.50
5175.00,0.50
5174.00,0.50
5173.00,0.50
5172.00,0.50
5171.00,0.50
5170.00,0.51
5169.00,0.51
5168.00,0.51
5167.00,0.51
5166.00,0.51
5165.00,0.51
5164.00,0.51
5163.00,0.51
5162.00,0.51
5161.00,0.51
5160.00,0.51
5159.00,0.51
5158.00,0.51
5157.00,0.51
5156.00,0.51
5155.00,0.51
5154.00,0.51
5153.00,0.51
5152.00,0.51
5151.00,0.51
5150.00,0.51
5149.00,0.51
5148.00,0.51
5147.00,0.51
5146.00,0.51
5145.00,0.51
5144.00,0.51
5143.00,0.51
5142.00,0.52
5141.00,0.52
5140.00,0.52
5139.00,0.52
5138.00,0.52
5137.00,0.52
5136.00,0.52
5135.00,0.52
5134.00,0.52
5133.00,0.52
5132.00,0.52
5131.00,0.52
5130.00,0.52
5129.00,0.52
5128.00,0.52
5127.00,0.52
5126.00,0.52
5125.00,0.52
5124.00,0.52
5123.00,0.52
5122.00,0.52
5121.00,0.52
5120.00,0.52
5119.00,0.52
5118.00,0.52
5117.00,0.52
5116.00,0.52
5115.00,0.52
5114.00,0.52
5113.00,0.52
5112.00,0.52
5111.00,0.52
5110.00,0.52
5109.00,0.52
5108.00,0.52
5107.00,0.52
5106.00,0.52
5105.00,0.52
5104.00,0.52
5103.00,0.52
5102.00,0.52
5101.00,0.52
5100.00,0.52
5099.00,0.52
5098.00,0.52
5097.00,0.52
5096.00,0.52
5095.00,0.52
5094.00,0.52
5093.00,0.52
5092.00,0.52
5091.00,0.52
5090.00,0.52
5089.00,0.52
5088.00,0.52
5087.00,0.52
5086.00,0.52
5085.00,0.52
5084.00,0.53
5083.00,0.53
5082.00,0.53
5081.00,0.53
5080.00,0.53
5079.00,0.53
5078.00,0.53
5077.00,0.53
5076.00,0.53
5075.00,0.53
5074.00,0.53
5073.00,0.53
5072.00,0.53
5071.00,0.53
5070.00,0.53
5069.00,0.53
5068.00,0.53
5067.00,0.53
5066.00,0.53
5065.00,0.53
5064.00,0.54
5063.00,0.54
5062.00,0.54
5061.00,0.54
5060.00,0.54
5059.00,0.54
5058.00,0.54
5057.00,0.54
5056.00,0.54
5055.00,0.54
5054.00,0.54
5053.00,0.54
5052.00,0.54
5051.00,0.54
5050.00,0.54
5049.00,0.54
5048.00,0.54
5047.00,0.54
5046.00,0.54
5045.00,0.54
5044.00,0.54
5043.00,0.54
5042.00,0.54
5041.00,0.54
5040.00,0.54
5039.00,0.54
5038.00,0.54
5037.00,0.54
5036.00,0.54
5035.00,0.54
5034.00,0.54
5033.00,0.54
5032.00,0.54
5031.00,0.54
5030.00,0.54
5029.00,0.54
5028.00,0.55
5027.00,0.55
5026.00,0.55
5025.00,0.55
5024.00,0.55
5023.00,0.55
5022.00,0.55
5021.00,0.55
5020.00,0.55
5019.00,0.55
5018.00,0.55
5017.00,0.55
5016.00,0.55
5015.00,0.55
5014.00,0.55
5013.00,0.55
5012.00,0.55
5011.00,0.55
5010.00,0.55
5009.00,0.55
5008.00,0.55
5007.00,0.55
5006.00,0.55
5005.00,0.55
5004.00,0.55
5003.00,0.55
5002.00,0.55
5001.00,0.55
5000.00,0.55
4999.00,0.55
4998.00,0.55
4997.00,0.55
4996.00,0.55
4995.00,0.56
4994.00,0.56
4993.00,0.56
4992.00,0.56
4991.00,0.56
4990.00,0.56
4989.00,0.56
4988.00,0.56
4987.00,0.56
4986.00,0.56
4985.00,0.56
4984.00,0.56
4983.00,0.56
4982.00,0.56
4981.00,0.56
4980.00,0.56
4979.00,0.56
4978.00,0.56
4977.00,0.56
4976.00,0.56
4975.00,0.56
4974.00,0.56
4973.00,0.56
4972.00,0.56
4971.00,0.56
4970.00,0.56
4969.00,0.56
4968.00,0.56
4967.00,0.56
4966.00,0.56
4965.00,0.56
4964.00,0.56
4963.00,0.56
4962.00,0.56
4961.00,0.56
4960.00,0.56
4959.00,0.56
4958.00,0.56
4957.00,0.56
4956.00,0.56
4955.00,0.56
4954.00,0.57
4953.00,0.57
4952.00,0.57
4951.00,0.57
4950.00,0.57
4949.00,0.57
4948.00,0.57
4947.00,0.57
4946.00,0.57
4945.00,0.57
4944.00,0.57
4943.00,0.57
4942.00,0.57
4941.00,0.57
4940.00,0.57
4939.00,0.57
4938.00,0.57
4937.00,0.57
4936.00,0.57
4935.00,0.58
4934.00,0.58
4933.00,0.58
4932.00,0.58
4931.00,0.58
4930.00,0.58
4929.00,0.58
4928.00,0.58
4927.00,0.58
4926.00,0.58
4925.00,0.58
4924.00,0.58
4923.00,0.58
4922.00,0.58
4921.00,0.58
4920.00,0.58
4919.00,0.58
4918.00,0.58
4917.00,0.58
4916.00,0.58
4915.00,0.58
4914.00,0.58
4913.00,0.58
4912.00,0.58
4911.00,0.58
4910.00,0.58
4909.00,0.58
4908.00,0.58
4907.00,0.58
4906.00,0.58
4905.00,0.58
4904.00,0.58
4903.00,0.58
4902.00,0.58
4901.00,0.58
4900.00,0.58
4899.00,0.58
4898.00,0.59
4897.00,0.59
4896.00,0.59
4895.00,0.59
4894.00,0.59
4893.00,0.59
4892.00,0.59
4891.00,0.59
4890.00,0.59
4889.00,0.59
4888.00,0.59
4887.00,0.59
4886.00,0.59
4885.00,0.59
4884.00,0.59
4883.00,0.59
4882.00,0.59
4881.00,0.59
4880.00,0.59
4879.00,0.59
4878.00,0.59
4877.00,0.59
4876.00,0.60
4875.00,0.60
4874.00,0.60
4873.00,0.60
4872.00,0.60
4871.00,0.60
4870.00,0.60
4869.00,0.60
4868.00,0.60
4867.00,0.60
4866.00,0.60
4865.00,0.60
4864.00,0.60
4863.00,0.60
4862.00,0.60
4861.00,0.60
4860.00,0.60
4859.00,0.60
4858.00,0.60
4857.00,0.60
4856.00,0.60
4855.00,0.60
4854.00,0.60
4853.00,0.60
4852.00,0.60
4851.00,0.60
4850.00,0.60
4849.00,0.60
4848.00,0.60
4847.00,0.61
4846.00,0.61
4845.00,0.61
4844.00,0.61
4843.00,0.61
4842.00,0.61
4841.00,0.61
4840.00,0.61
4839.00,0.61
4838.00,0.61
4837.00,0.61
4836.00,0.61
4835.00,0.61
4834.00,0.61
4833.00,0.61
4832.00,0.61
4831.00,0.61
4830.00,0.62
4829.00,0.62
4828.00,0.62
4827.00,0.62
4826.00,0.62
4825.00,0.62
4824.00,0.62
4823.00,0.62
4822.00,0.62
4821.00,0.62
4820.00,0.62
4819.00,0.62
4818.00,0.62
4817.00,0.62
4816.00,0.62
4815.00,0.62
4814.00,0.62
4813.00,0.62
4812.00,0.62
4811.00,0.62
4810.00,0.62
4809.00,0.62
4808.00,0.62
4807.00,0.62
4806.00,0.62
4805.00,0.62
4804.00,0.62
4803.00,0.62
4802.00,0.62
4801.00,0.62
4800.00,0.62
4799.00,0.62
4798.00,0.62
4797.00,0.62
4796.00,0.62
4795.00,0.63
4794.00,0.63
4793.00,0.63
4792.00,0.63
4791.00,0.63
4790.00,0.63
4789.00,0.63
4788.00,0.63
4787.00,0.63
4786.00,0.63
4785.00,0.63
4784.00,0.63
4783.00,0.63
4782.00,0.63
4781.00,0.63
4780.00,0.63
4779.00,0.63
4778.00,0.63
4777.00,0.64
4776.00,0.64
4775.00,0.64
4774.00,0.64
4773.00,0.64
4772.00,0.64
4771.00,0.64
4770.00,0.64
4769.00,0.64
4768.00,0.64
4767.00,0.64
4766.00,0.64
4765.00,0.65
4764.00,0.65
4763.00,0.65
4762.00,0.65
4761.00,0.65
4760.00,0.65
4759.00,0.65
4758.00,0.65
4757.00,0.65
4756.00,0.65
4755.00,0.65
4754.00,0.65
4753.00,0.65
4752.00,0.65
4751.00,0.65
4750.00,0.65
4749.00,0.65
4748.00,0.65
4747.00,0.65
4746.00,0.65
4745.00,0.65
4744.00,0.65
4743.00,0.65
4742.00,0.65
4741.00,0.65
4740.00,0.65
4739.00,0.66
4738.00,0.66
4737.00,0.66
4736.00,0.66
4735.00,0.66
4734.00,0.66
4733.00,0.66
4732.00,0.66
4731.00,0.66
4730.00,0.66
4729.00,0.66
4728.00,0.66
4727.00,0.66
4726.00,0.67
4725.00,0.67
4724.00,0.67
4723.00,0.67
4722.00,0.67
4721.00,0.67
4720.00,0.67
4719.00,0.67
4718.00,0.67
4717.00,0.67
4716.00,0.67
4715.00,0.67
4714.00,0.67
4713.00,0.67
4712.00,0.67
4711.00,0.67
4710.00,0.67
4709.00,0.67
4708.00,0.67
4707.00,0.67
4706.00,0.67
4705.00,0.68
4704.00,0.68
4703.00,0.68
4702.00,0.68
4701.00,0.68
4700.00,0.68
4699.00,0.68
4698.00,0.68
4697.00,0.68
4696.00,0.68
4695.00,0.68
4694.00,0.68
4693.00,0.68
4692.00,0.68
4691.00,0.68
4690.00,0.68
4689.00,0.68
4688.00,0.68
4687.00,0.68
4686.00,0.68
4685.00,0.68
4684.00,0.69
4683.00,0.69
4682.00,0.69
4681.00,0.69
4680.00,0.69
4679.00,0.69
4678.00,0.69
4677.00,0.69
4676.00,0.69
4675.00,0.69
4674.00,0.69
4673.00,0.69
4672.00,0.70
4671.00,0.70
4670.00,0.70
4669.00,0.70
4668.00,0.70
4667.00,0.70
4666.00,0.70
4665.00,0.70
4664.00,0.70
4663.00,0.70
4662.00,0.70
4661.00,0.70
4660.00,0.70
4659.00,0.70
4658.00,0.70
4657.00,0.70
4656.00,0.70
4655.00,0.70
4654.00,0.70
4653.00,0.70
4652.00,0.70
4651.00,0.70
4650.00,0.70
4649.00,0.70
4648.00,0.70
4647.00,0.70
4646.00,0.70
4645.00,0.71
4644.00,0.71
4643.00,0.71
4642.00,0.71
4641.00,0.71
4640.00,0.71
4639.00,0.71
4638.00,0.71
4637.00,0.71
4636.00,0.71
4635.00,0.71
4634.00,0.71
4633.00,0.71
4632.00,0.71
4631.00,0.72
4630.00,0.72
4629.00,0.72
4628.00,0.72
4627.00,0.72
4626.00,0.72
4625.00,0.72
4624.00,0.72
4623.00,0.72
4622.00,0.72
4621.00,0.72
4620.00,0.72
4619.00,0.72
4618.00,0.72
4617.00,0.72
4616.00,0.72
4615.00,0.72
4614.00,0.72
4613.00,0.72
4612.00,0.72
4611.00,0.72
4610.00,0.72
4609.00,0.72
4608.00,0.72
4607.00,0.72
4606.00,0.72
4605.00,0.72
4604.00,0.72
4603.00,0.72
4602.00,0.72
4601.00,0.72
4600.00,0.72
4599.00,0.72
4598.00,0.72
4597.00,0.72
4596.00,0.72
4595.00,0.72
4594.00,0.72
4593.00,0.72
4592.00,0.72
4591.00,0.72
4590.00,0.72
4589.00,0.73
4588.00,0.73
4587.00,0.73
4586.00,0.73
4585.00,0.73
4584.00,0.73
4583.00,0.73
4582.00,0.73
4581.00,0.73
4580.00,0.73
4579.00,0.73
4578.00,0.73
4577.00,0.73
4576.00,0.73
4575.00,0.73
4574.00,0.73
4573.00,0.73
4572.00,0.73
4571.00,0.73
4570.00,0.73
4569.00,0.73
4568.00,0.73
4567.00,0.73
4566.00,0.73
4565.00,0.73
4564.00,0.73
4563.00,0.73
4562.00,0.73
4561.00,0.73
4560.00,0.73
4559.00,0.73
4558.00,0.74
4557.00,0.74
4556.00,0.74
4555.00,0.74
4554.00,0.74
4553.00,0.74
4552.00,0.74
4551.00,0.74
4550.00,0.74
4549.00,0.74
4548.00,0.74
4547.00,0.74
4546.00,0.74
4545.00,0.74
4544.00,0.74
4543.00,0.74
4542.00,0.74
4541.00,0.74
4540.00,0.74
4539.00,0.74
4538.00,0.74
4537.00,0.74
4536.00,0.74
4535.00,0.74
4534.00,0.75
4533.00,0.75
4532.00,0.75
4531.00,0.75
4530.00,0.75
4529.00,0.75
4528.00,0.75
4527.00,0.75
4526.00,0.75
4525.00,0.75
4524.00,0.75
4523.00,0.75
4522.00,0.75
4521.00,0.75
4520.00,0.75
4519.00,0.75
4518.00,0.75
4517.00,0.75
4516.00,0.75
4515.00,0.75
4514.00,0.75
4513.00,0.75
4512.00,0.75
4511.00,0.75
4510.00,0.75
4509.00,0.75
4508.00,0.75
4507.00,0.75
4506.00,0.75
4505.00,0.75
4504.00,0.75
4503.00,0.75
4502.00,0.75
4501.00,0.75
4500.00,0.75
4499.00,0.75
4498.00,0.75
4497.00,0.75
4496.00,0.75
4495.00,0.75
4494.00,0.75
4493.00,0.75
4492.00,0.75
4491.00,0.75
4490.00,0.75
4489.00,0.75
4488.00,0.75
4487.00,0.75
4486.00,0.75
4485.00,0.75
4484.00,0.75
4483.00,0.75
4482.00,0.75
4481.00,0.75
4480.00,0.75
4479.00,0.75
4478.00,0.75
4477.00,0.75
4476.00,0.75
4475.00,0.75
4474.00,0.75
4473.00,0.74
4472.00,0.74
4471.00,0.74
4470.00,0.74
4469.00,0.74
4468.00,0.74
4467.00,0.74
4466.00,0.74
4465.00,0.74
4464.00,0.74
4463.00,0.74
4462.00,0.74
4461.00,0.74
4460.00,0.74
4459.00,0.74
4458.00,0.74
4457.00,0.74
4456.00,0.74
4455.00,0.74
4454.00,0.74
4453.00,0.74
4452.00,0.74
4451.00,0.74
4450.00,0.73
4449.00,0.73
4448.00,0.73
4447.00,0.73
4446.00,0.73
4445.00,0.73
4444.00,0.73
4443.00,0.73
4442.00,0.73
4441.00,0.73
4440.00,0.73
4439.00,0.72
4438.00,0.72
4437.00,0.72
4436.00,0.72
4435.00,0.72
4434.00,0.72
4433.00,0.72
4432.00,0.72
4431.00,0.72
4430.00,0.72
4429.00,0.72
4428.00,0.71
4427.00,0.71
4426.00,0.71
4425.00,0.71
4424.00,0.71
4423.00,0.71
4422.00,0.71
4421.00,0.71
4420.00,0.71
4419.00,0.71
4418.00,0.71
4417.00,0.71
4416.00,0.71
4415.00,0.71
4414.00,0.71
4413.00,0.71
4412.00,0.71
4411.00,0.71
4410.00,0.71
4409.00,0.71
4408.00,0.71
4407.00,0.72
4406.00,0.72
4405.00,0.72
4404.00,0.72
4403.00,0.72
4402.00,0.72
4401.00,0.72
4400.00,0.72
4399.00,0.72
4398.00,0.72
4397.00,0.72
4396.00,0.72
4395.00,0.72
4394.00,0.72
4393.00,0.72
4392.00,0.72
4391.00,0.73
4390.00,0.73
4389.00,0.73
4388.00,0.73
4387.00,0.73
4386.00,0.73
4385.00,0.73
4384.00,0.73
4383.00,0.73
4382.00,0.73
4381.00,0.73
4380.00,0.73
4379.00,0.73
4378.00,0.73
4377.00,0.73
4376.00,0.73
4375.00,0.73
4374.00,0.73
4373.00,0.73
4372.00,0.74
4371.00,0.74
4370.00,0.74
4369.00,0.74
4368.00,0.74
4367.00,0.74
4366.00,0.74
4365.00,0.74
4364.00,0.74
4363.00,0.74
4362.00,0.74
4361.00,0.74
4360.00,0.74
4359.00,0.74
4358.00,0.74
4357.00,0.74
4356.00,0.74
4355.00,0.74
4354.00,0.74
4353.00,0.74
4352.00,0.74
4351.00,0.74
4350.00,0.74
4349.00,0.74
4348.00,0.74
4347.00,0.74
4346.00,0.74
4345.00,0.74
4344.00,0.74
4343.00,0.74
4342.00,0.74
4341.00,0.74
4340.00,0.74
4339.00,0.74
4338.00,0.75
4337.00,0.75
4336.00,0.75
4335.00,0.75
4334.00,0.75
4333.00,0.75
4332.00,0.75
4331.00,0.75
4330.00,0.75
4329.00,0.75
4328.00,0.75
4327.00,0.75
4326.00,0.75
4325.00,0.75
4324.00,0.75
4323.00,0.75
4322.00,0.75
4321.00,0.75
4320.00,0.75
4319.00,0.75
4318.00,0.75
4317.00,0.75
4316.00,0.75
4315.00,0.75
4314.00,0.75
4313.00,0.76
4312.00,0.76
4311.00,0.76
4310.00,0.76
4309.00,0.76
4308.00,0.76
4307.00,0.76
4306.00,0.76
4305.00,0.76
4304.00,0.76
4303.00,0.76
4302.00,0.76
4301.00,0.76
4300.00,0.76
4299.00,0.76
4298.00,0.76
4297.00,0.77
4296.00,0.77
4295.00,0.77
4294.00,0.77
4293.00,0.77
4292.00,0.77
4291.00,0.77
4290.00,0.77
4289.00,0.77
4288.00,0.77
4287.00,0.77
4286.00,0.77
4285.00,0.77
4284.00,0.77
4283.00,0.77
4282.00,0.77
4281.00,0.77
4280.00,0.78
4279.00,0.78
4278.00,0.78
4277.00,0.78
4276.00,0.78
4275.00,0.77
4274.00,0.77
4273.00,0.77
4272.00,0.77
4271.00,0.77
4270.00,0.77
4269.00,0.77
4268.00,0.77
4267.00,0.77
4266.00,0.77
4265.00,0.77
4264.00,0.77
4263.00,0.77
4262.00,0.77
4261.00,0.77
4260.00,0.77
4259.00,0.77
4258.00,0.77
4257.00,0.77
4256.00,0.77
4255.00,0.77
4254.00,0.77
4253.00,0.78
4252.00,0.78
4251.00,0.78
4250.00,0.78
4249.00,0.78
4248.00,0.78
4247.00,0.78
4246.00,0.78
4245.00,0.78
4244.00,0.78
4243.00,0.78
4242.00,0.78
4241.00,0.78
4240.00,0.78
4239.00,0.78
4238.00,0.78
4237.00,0.78
4236.00,0.78
4235.00,0.78
4234.00,0.78
4233.00,0.78
4232.00,0.78
4231.00,0.78
4230.00,0.79
4229.00,0.79
4228.00,0.79
4227.00,0.79
4226.00,0.79
4225.00,0.79
4224.00,0.79
4223.00,0.79
4222.00,0.79
4221.00,0.79
4220.00,0.79
4219.00,0.79
4218.00,0.79
4217.00,0.79
4216.00,0.79
4215.00,0.79
4214.00,0.79
4213.00,0.79
4212.00,0.79
4211.00,0.79
4210.00,0.79
4209.00,0.79
4208.00,0.79
4207.00,0.79
4206.00,0.79
4205.00,0.79
4204.00,0.79
4203.00,0.79
4202.00,0.79
4201.00,0.79
4200.00,0.79
4199.00,0.80
4198.00,0.80
4197.00,0.80
4196.00,0.80
4195.00,0.80
4194.00,0.80
4193.00,0.80
4192.00,0.80
4191.00,0.80
4190.00,0.80
4189.00,0.80
4188.00,0.80
4187.00,0.80
4186.00,0.80
4185.00,0.80
4184.00,0.80
4183.00,0.80
4182.00,0.80
4181.00,0.80
4180.00,0.80
4179.00,0.80
4178.00,0.80
4177.00,0.80
4176.00,0.81
4175.00,0.81
4174.00,0.81
4173.00,0.81
4172.00,0.81
4171.00,0.81
4170.00,0.81
4169.00,0.81
4168.00,0.81
4167.00,0.81
4166.00,0.81
4165.00,0.81
4164.00,0.81
4163.00,0.81
4162.00,0.81
4161.00,0.81
4160.00,0.81
4159.00,0.81
4158.00,0.81
4157.00,0.81
4156.00,0.81
4155.00,0.81
4154.00,0.81
4153.00,0.81
4152.00,0.81
4151.00,0.81
4150.00,0.81
4149.00,0.81
4148.00,0.81
4147.00,0.81
4146.00,0.81
4145.00,0.81
4144.00,0.81
4143.00,0.81
4142.00,0.81
4141.00,0.81
4140.00,0.81
4139.00,0.81
4138.00,0.81
4137.00,0.81
4136.00,0.81
4135.00,0.81
4134.00,0.82
4133.00,0.82
4132.00,0.82
4131.00,0.82
4130.00,0.82
4129.00,0.82
4128.00,0.82
4127.00,0.82
4126.00,0.83
4125.00,0.83
4124.00,0.83
4123.00,0.83
4122.00,0.83
4121.00,0.83
4120.00,0.83
4119.00,0.83
4118.00,0.83
4117.00,0.83
4116.00,0.83
4115.00,0.83
4114.00,0.83
4113.00,0.83
4112.00,0.83
4111.00,0.83
4110.00,0.83
4109.00,0.83
4108.00,0.83
4107.00,0.83
4106.00,0.83
4105.00,0.83
4104.00,0.83
4103.00,0.83
4102.00,0.83
4101.00,0.83
4100.00,0.83
4099.00,0.83
4098.00,0.83
4097.00,0.83
4096.00,0.82
4095.00,0.82
4094.00,0.82
4093.00,0.82
4092.00,0.82
4091.00,0.82
4090.00,0.82
4089.00,0.82
4088.00,0.82
4087.00,0.82
4086.00,0.83
4085.00,0.83
4084.00,0.83
4083.00,0.83
4082.00,0.83
4081.00,0.83
4080.00,0.83
4079.00,0.83
4078.00,0.83
4077.00,0.83
4076.00,0.83
4075.00,0.83
4074.00,0.83
4073.00,0.83
4072.00,0.83
4071.00,0.83
4070.00,0.83
4069.00,0.83
4068.00,0.83
4067.00,0.83
4066.00,0.83
4065.00,0.83
4064.00,0.83
4063.00,0.83
4062.00,0.83
4061.00,0.83
4060.00,0.83
4059.00,0.83
4058.00,0.83
4057.00,0.83
4056.00,0.83
4055.00,0.83
4054.00,0.83
4053.00,0.83
4052.00,0.83
4051.00,0.83
4050.00,0.83
4049.00,0.83
4048.00,0.83
4047.00,0.83
4046.00,0.83
4045.00,0.83
4044.00,0.83
4043.00,0.83
4042.00,0.83
4041.00,0.84
4040.00,0.84
4039.00,0.84
4038.00,0.84
4037.00,0.84
4036.00,0.84
4035.00,0.84
4034.00,0.84
4033.00,0.84
4032.00,0.84
4031.00,0.84
4030.00,0.85
4029.00,0.85
4028.00,0.85
4027.00,0.85
4026.00,0.85
4025.00,0.85
4024.00,0.85
4023.00,0.85
4022.00,0.85
4021.00,0.85
4020.00,0.85
4019.00,0.85
4018.00,0.85
4017.00,0.85
4016.00,0.85
4015.00,0.85
4014.00,0.85
4013.00,0.85
4012.00,0.85
4011.00,0.85
4010.00,0.86
4009.00,0.86
4008.00,0.86
4007.00,0.86
4006.00,0.86
4005.00,0.86
4004.00,0.86
4003.00,0.86
4002.00,0.86
4001.00,0.86
4000.00,0.86
