创建为新数据集,样品 462 用户 Administrator 日期 星期日, 七月 15 2018
cm-1,%T
10000.00,0.52
9999.00,0.52
9998.00,0.51
9997.00,0.51
9996.00,0.51
9995.00,0.50
9994.00,0.50
9993.00,0.50
9992.00,0.50
9991.00,0.50
9990.00,0.50
9989.00,0.49
9988.00,0.49
9987.00,0.49
9986.00,0.49
9985.00,0.49
9984.00,0.48
9983.00,0.48
9982.00,0.48
9981.00,0.48
9980.00,0.48
9979.00,0.47
9978.00,0.47
9977.00,0.47
9976.00,0.47
9975.00,0.47
9974.00,0.47
9973.00,0.47
9972.00,0.47
9971.00,0.47
9970.00,0.47
9969.00,0.47
9968.00,0.48
9967.00,0.48
9966.00,0.48
9965.00,0.48
9964.00,0.48
9963.00,0.48
9962.00,0.48
9961.00,0.48
9960.00,0.48
9959.00,0.48
9958.00,0.48
9957.00,0.48
9956.00,0.48
9955.00,0.49
9954.00,0.49
9953.00,0.49
9952.00,0.49
9951.00,0.50
9950.00,0.50
9949.00,0.50
9948.00,0.50
9947.00,0.50
9946.00,0.50
9945.00,0.50
9944.00,0.50
9943.00,0.50
9942.00,0.50
9941.00,0.50
9940.00,0.50
9939.00,0.50
9938.00,0.50
9937.00,0.50
9936.00,0.49
9935.00,0.49
9934.00,0.49
9933.00,0.49
9932.00,0.49
9931.00,0.49
9930.00,0.49
9929.00,0.50
9928.00,0.50
9927.00,0.50
9926.00,0.50
9925.00,0.50
9924.00,0.50
9923.00,0.50
9922.00,0.50
9921.00,0.50
9920.00,0.50
9919.00,0.50
9918.00,0.49
9917.00,0.49
9916.00,0.49
9915.00,0.49
9914.00,0.49
9913.00,0.48
9912.00,0.48
9911.00,0.48
9910.00,0.48
9909.00,0.48
9908.00,0.48
9907.00,0.48
9906.00,0.48
9905.00,0.48
9904.00,0.48
9903.00,0.48
9902.00,0.48
9901.00,0.48
9900.00,0.49
9899.00,0.49
9898.00,0.49
9897.00,0.49
9896.00,0.50
9895.00,0.50
9894.00,0.50
9893.00,0.50
9892.00,0.50
9891.00,0.50
9890.00,0.51
9889.00,0.51
9888.00,0.51
9887.00,0.51
9886.00,0.50
9885.00,0.50
9884.00,0.50
9883.00,0.50
9882.00,0.50
9881.00,0.50
9880.00,0.50
9879.00,0.49
9878.00,0.49
9877.00,0.49
9876.00,0.49
9875.00,0.49
9874.00,0.49
9873.00,0.49
9872.00,0.49
9871.00,0.49
9870.00,0.49
9869.00,0.50
9868.00,0.50
9867.00,0.50
9866.00,0.50
9865.00,0.50
9864.00,0.51
9863.00,0.51
9862.00,0.51
9861.00,0.51
9860.00,0.51
9859.00,0.51
9858.00,0.51
9857.00,0.51
9856.00,0.51
9855.00,0.51
9854.00,0.51
9853.00,0.50
9852.00,0.50
9851.00,0.50
9850.00,0.49
9849.00,0.49
9848.00,0.48
9847.00,0.48
9846.00,0.48
9845.00,0.47
9844.00,0.47
9843.00,0.46
9842.00,0.46
9841.00,0.46
9840.00,0.46
9839.00,0.46
9838.00,0.46
9837.00,0.46
9836.00,0.46
9835.00,0.46
9834.00,0.46
9833.00,0.46
9832.00,0.46
9831.00,0.47
9830.00,0.47
9829.00,0.47
9828.00,0.47
9827.00,0.47
9826.00,0.47
9825.00,0.46
9824.00,0.46
9823.00,0.46
9822.00,0.46
9821.00,0.46
9820.00,0.45
9819.00,0.45
9818.00,0.45
9817.00,0.45
9816.00,0.44
9815.00,0.44
9814.00,0.44
9813.00,0.44
9812.00,0.44
9811.00,0.44
9810.00,0.44
9809.00,0.44
9808.00,0.44
9807.00,0.44
9806.00,0.44
9805.00,0.45
9804.00,0.45
9803.00,0.45
9802.00,0.45
9801.00,0.45
9800.00,0.45
9799.00,0.45
9798.00,0.45
9797.00,0.44
9796.00,0.44
9795.00,0.44
9794.00,0.44
9793.00,0.44
9792.00,0.44
9791.00,0.44
9790.00,0.44
9789.00,0.44
9788.00,0.44
9787.00,0.44
9786.00,0.44
9785.00,0.44
9784.00,0.44
9783.00,0.44
9782.00,0.44
9781.00,0.45
9780.00,0.45
9779.00,0.45
9778.00,0.45
9777.00,0.45
9776.00,0.45
9775.00,0.45
9774.00,0.45
9773.00,0.45
9772.00,0.45
9771.00,0.45
9770.00,0.46
9769.00,0.46
9768.00,0.46
9767.00,0.46
9766.00,0.46
9765.00,0.46
9764.00,0.46
9763.00,0.46
9762.00,0.47
9761.00,0.47
9760.00,0.47
9759.00,0.48
9758.00,0.48
9757.00,0.48
9756.00,0.49
9755.00,0.49
9754.00,0.50
9753.00,0.50
9752.00,0.50
9751.00,0.51
9750.00,0.51
9749.00,0.51
9748.00,0.51
9747.00,0.51
9746.00,0.51
9745.00,0.51
9744.00,0.51
9743.00,0.51
9742.00,0.51
9741.00,0.51
9740.00,0.51
9739.00,0.51
9738.00,0.51
9737.00,0.51
9736.00,0.51
9735.00,0.51
9734.00,0.50
9733.00,0.50
9732.00,0.50
9731.00,0.50
9730.00,0.49
9729.00,0.49
9728.00,0.48
9727.00,0.48
9726.00,0.48
9725.00,0.47
9724.00,0.47
9723.00,0.46
9722.00,0.46
9721.00,0.45
9720.00,0.45
9719.00,0.45
9718.00,0.44
9717.00,0.44
9716.00,0.44
9715.00,0.44
9714.00,0.44
9713.00,0.44
9712.00,0.44
9711.00,0.45
9710.00,0.45
9709.00,0.45
9708.00,0.46
9707.00,0.46
9706.00,0.46
9705.00,0.47
9704.00,0.47
9703.00,0.47
9702.00,0.48
9701.00,0.48
9700.00,0.48
9699.00,0.48
9698.00,0.48
9697.00,0.49
9696.00,0.49
9695.00,0.49
9694.00,0.49
9693.00,0.49
9692.00,0.49
9691.00,0.49
9690.00,0.49
9689.00,0.49
9688.00,0.49
9687.00,0.49
9686.00,0.49
9685.00,0.50
9684.00,0.50
9683.00,0.50
9682.00,0.50
9681.00,0.50
9680.00,0.50
9679.00,0.50
9678.00,0.50
9677.00,0.50
9676.00,0.50
9675.00,0.50
9674.00,0.50
9673.00,0.50
9672.00,0.50
9671.00,0.49
9670.00,0.49
9669.00,0.49
9668.00,0.48
9667.00,0.48
9666.00,0.48
9665.00,0.47
9664.00,0.47
9663.00,0.46
9662.00,0.46
9661.00,0.45
9660.00,0.45
9659.00,0.45
9658.00,0.44
9657.00,0.44
9656.00,0.44
9655.00,0.44
9654.00,0.44
9653.00,0.44
9652.00,0.44
9651.00,0.44
9650.00,0.44
9649.00,0.44
9648.00,0.44
9647.00,0.44
9646.00,0.45
9645.00,0.45
9644.00,0.45
9643.00,0.45
9642.00,0.45
9641.00,0.46
9640.00,0.46
9639.00,0.46
9638.00,0.46
9637.00,0.47
9636.00,0.47
9635.00,0.47
9634.00,0.48
9633.00,0.48
9632.00,0.48
9631.00,0.49
9630.00,0.49
9629.00,0.50
9628.00,0.50
9627.00,0.50
9626.00,0.50
9625.00,0.51
9624.00,0.51
9623.00,0.51
9622.00,0.51
9621.00,0.51
9620.00,0.51
9619.00,0.51
9618.00,0.51
9617.00,0.50
9616.00,0.50
9615.00,0.50
9614.00,0.50
9613.00,0.50
9612.00,0.49
9611.00,0.49
9610.00,0.49
9609.00,0.49
9608.00,0.49
9607.00,0.49
9606.00,0.49
9605.00,0.49
9604.00,0.49
9603.00,0.50
9602.00,0.50
9601.00,0.50
9600.00,0.50
9599.00,0.50
9598.00,0.50
9597.00,0.50
9596.00,0.50
9595.00,0.50
9594.00,0.50
9593.00,0.50
9592.00,0.50
9591.00,0.50
9590.00,0.50
9589.00,0.49
9588.00,0.49
9587.00,0.49
9586.00,0.49
9585.00,0.48
9584.00,0.48
9583.00,0.48
9582.00,0.48
9581.00,0.47
9580.00,0.47
9579.00,0.47
9578.00,0.47
9577.00,0.47
9576.00,0.47
9575.00,0.46
9574.00,0.46
9573.00,0.46
9572.00,0.46
9571.00,0.46
9570.00,0.46
9569.00,0.46
9568.00,0.45
9567.00,0.45
9566.00,0.45
9565.00,0.45
9564.00,0.45
9563.00,0.45
9562.00,0.46
9561.00,0.46
9560.00,0.46
9559.00,0.46
9558.00,0.47
9557.00,0.47
9556.00,0.48
9555.00,0.48
9554.00,0.48
9553.00,0.49
9552.00,0.49
9551.00,0.50
9550.00,0.50
9549.00,0.51
9548.00,0.51
9547.00,0.51
9546.00,0.51
9545.00,0.51
9544.00,0.51
9543.00,0.51
9542.00,0.51
9541.00,0.51
9540.00,0.51
9539.00,0.51
9538.00,0.51
9537.00,0.51
9536.00,0.51
9535.00,0.51
9534.00,0.50
9533.00,0.50
9532.00,0.50
9531.00,0.50
9530.00,0.50
9529.00,0.50
9528.00,0.50
9527.00,0.50
9526.00,0.50
9525.00,0.50
9524.00,0.49
9523.00,0.49
9522.00,0.49
9521.00,0.49
9520.00,0.49
9519.00,0.49
9518.00,0.49
9517.00,0.49
9516.00,0.48
9515.00,0.48
9514.00,0.48
9513.00,0.48
9512.00,0.48
9511.00,0.48
9510.00,0.48
9509.00,0.48
9508.00,0.47
9507.00,0.47
9506.00,0.47
9505.00,0.47
9504.00,0.47
9503.00,0.47
9502.00,0.47
9501.00,0.47
9500.00,0.47
9499.00,0.47
9498.00,0.47
9497.00,0.47
9496.00,0.47
9495.00,0.48
9494.00,0.48
9493.00,0.48
9492.00,0.48
9491.00,0.48
9490.00,0.48
9489.00,0.48
9488.00,0.48
9487.00,0.48
9486.00,0.48
9485.00,0.48
9484.00,0.48
9483.00,0.47
9482.00,0.47
9481.00,0.47
9480.00,0.47
9479.00,0.47
9478.00,0.47
9477.00,0.47
9476.00,0.47
9475.00,0.47
9474.00,0.47
9473.00,0.47
9472.00,0.47
9471.00,0.47
9470.00,0.47
9469.00,0.46
9468.00,0.46
9467.00,0.46
9466.00,0.46
9465.00,0.46
9464.00,0.46
9463.00,0.46
9462.00,0.46
9461.00,0.46
9460.00,0.46
9459.00,0.46
9458.00,0.46
9457.00,0.46
9456.00,0.46
9455.00,0.46
9454.00,0.46
9453.00,0.46
9452.00,0.46
9451.00,0.47
9450.00,0.47
9449.00,0.47
9448.00,0.47
9447.00,0.48
9446.00,0.48
9445.00,0.48
9444.00,0.49
9443.00,0.49
9442.00,0.49
9441.00,0.49
9440.00,0.49
9439.00,0.49
9438.00,0.49
9437.00,0.49
9436.00,0.49
9435.00,0.49
9434.00,0.49
9433.00,0.49
9432.00,0.49
9431.00,0.49
9430.00,0.48
9429.00,0.48
9428.00,0.48
9427.00,0.48
9426.00,0.48
9425.00,0.48
9424.00,0.48
9423.00,0.47
9422.00,0.47
9421.00,0.47
9420.00,0.47
9419.00,0.47
9418.00,0.47
9417.00,0.47
9416.00,0.47
9415.00,0.47
9414.00,0.47
9413.00,0.47
9412.00,0.47
9411.00,0.47
9410.00,0.47
9409.00,0.47
9408.00,0.46
9407.00,0.46
9406.00,0.46
9405.00,0.46
9404.00,0.46
9403.00,0.46
9402.00,0.46
9401.00,0.46
9400.00,0.46
9399.00,0.46
9398.00,0.46
9397.00,0.46
9396.00,0.47
9395.00,0.47
9394.00,0.47
9393.00,0.47
9392.00,0.48
9391.00,0.48
9390.00,0.48
9389.00,0.48
9388.00,0.48
9387.00,0.49
9386.00,0.49
9385.00,0.49
9384.00,0.49
9383.00,0.49
9382.00,0.49
9381.00,0.49
9380.00,0.49
9379.00,0.48
9378.00,0.48
9377.00,0.48
9376.00,0.48
9375.00,0.48
9374.00,0.48
9373.00,0.48
9372.00,0.47
9371.00,0.47
9370.00,0.47
9369.00,0.47
9368.00,0.47
9367.00,0.47
9366.00,0.47
9365.00,0.47
9364.00,0.47
9363.00,0.48
9362.00,0.48
9361.00,0.48
9360.00,0.48
9359.00,0.48
9358.00,0.48
9357.00,0.48
9356.00,0.48
9355.00,0.48
9354.00,0.48
9353.00,0.48
9352.00,0.48
9351.00,0.48
9350.00,0.48
9349.00,0.47
9348.00,0.47
9347.00,0.47
9346.00,0.47
9345.00,0.47
9344.00,0.47
9343.00,0.47
9342.00,0.47
9341.00,0.47
9340.00,0.47
9339.00,0.46
9338.00,0.46
9337.00,0.46
9336.00,0.46
9335.00,0.46
9334.00,0.46
9333.00,0.46
9332.00,0.47
9331.00,0.47
9330.00,0.47
9329.00,0.47
9328.00,0.47
9327.00,0.47
9326.00,0.48
9325.00,0.48
9324.00,0.48
9323.00,0.48
9322.00,0.48
9321.00,0.49
9320.00,0.49
9319.00,0.49
9318.00,0.49
9317.00,0.49
9316.00,0.49
9315.00,0.49
9314.00,0.49
9313.00,0.49
9312.00,0.49
9311.00,0.49
9310.00,0.49
9309.00,0.49
9308.00,0.49
9307.00,0.49
9306.00,0.49
9305.00,0.49
9304.00,0.49
9303.00,0.49
9302.00,0.49
9301.00,0.49
9300.00,0.50
9299.00,0.50
9298.00,0.50
9297.00,0.50
9296.00,0.50
9295.00,0.50
9294.00,0.50
9293.00,0.50
9292.00,0.50
9291.00,0.50
9290.00,0.50
9289.00,0.49
9288.00,0.49
9287.00,0.49
9286.00,0.49
9285.00,0.49
9284.00,0.49
9283.00,0.49
9282.00,0.49
9281.00,0.49
9280.00,0.49
9279.00,0.49
9278.00,0.49
9277.00,0.49
9276.00,0.50
9275.00,0.50
9274.00,0.50
9273.00,0.50
9272.00,0.50
9271.00,0.50
9270.00,0.50
9269.00,0.50
9268.00,0.50
9267.00,0.49
9266.00,0.49
9265.00,0.49
9264.00,0.49
9263.00,0.49
9262.00,0.49
9261.00,0.49
9260.00,0.48
9259.00,0.48
9258.00,0.48
9257.00,0.48
9256.00,0.48
9255.00,0.48
9254.00,0.48
9253.00,0.48
9252.00,0.48
9251.00,0.48
9250.00,0.48
9249.00,0.48
9248.00,0.48
9247.00,0.48
9246.00,0.48
9245.00,0.48
9244.00,0.48
9243.00,0.48
9242.00,0.48
9241.00,0.48
9240.00,0.48
9239.00,0.48
9238.00,0.48
9237.00,0.48
9236.00,0.48
9235.00,0.48
9234.00,0.48
9233.00,0.48
9232.00,0.48
9231.00,0.48
9230.00,0.48
9229.00,0.48
9228.00,0.49
9227.00,0.49
9226.00,0.49
9225.00,0.49
9224.00,0.49
9223.00,0.49
9222.00,0.49
9221.00,0.49
9220.00,0.49
9219.00,0.49
9218.00,0.49
9217.00,0.49
9216.00,0.50
9215.00,0.50
9214.00,0.50
9213.00,0.50
9212.00,0.50
9211.00,0.50
9210.00,0.50
9209.00,0.50
9208.00,0.50
9207.00,0.50
9206.00,0.50
9205.00,0.50
9204.00,0.50
9203.00,0.50
9202.00,0.50
9201.00,0.50
9200.00,0.50
9199.00,0.50
9198.00,0.50
9197.00,0.50
9196.00,0.50
9195.00,0.50
9194.00,0.49
9193.00,0.49
9192.00,0.49
9191.00,0.49
9190.00,0.49
9189.00,0.49
9188.00,0.49
9187.00,0.49
9186.00,0.48
9185.00,0.48
9184.00,0.48
9183.00,0.48
9182.00,0.48
9181.00,0.48
9180.00,0.48
9179.00,0.48
9178.00,0.48
9177.00,0.49
9176.00,0.49
9175.00,0.49
9174.00,0.49
9173.00,0.49
9172.00,0.49
9171.00,0.50
9170.00,0.50
9169.00,0.50
9168.00,0.50
9167.00,0.50
9166.00,0.50
9165.00,0.50
9164.00,0.50
9163.00,0.50
9162.00,0.50
9161.00,0.50
9160.00,0.50
9159.00,0.50
9158.00,0.50
9157.00,0.49
9156.00,0.49
9155.00,0.49
9154.00,0.49
9153.00,0.49
9152.00,0.49
9151.00,0.49
9150.00,0.49
9149.00,0.49
9148.00,0.49
9147.00,0.49
9146.00,0.49
9145.00,0.49
9144.00,0.49
9143.00,0.49
9142.00,0.50
9141.00,0.50
9140.00,0.50
9139.00,0.50
9138.00,0.50
9137.00,0.50
9136.00,0.50
9135.00,0.51
9134.00,0.51
9133.00,0.51
9132.00,0.51
9131.00,0.51
9130.00,0.51
9129.00,0.51
9128.00,0.51
9127.00,0.51
9126.00,0.51
9125.00,0.51
9124.00,0.50
9123.00,0.50
9122.00,0.50
9121.00,0.50
9120.00,0.50
9119.00,0.50
9118.00,0.50
9117.00,0.49
9116.00,0.49
9115.00,0.49
9114.00,0.49
9113.00,0.49
9112.00,0.49
9111.00,0.49
9110.00,0.49
9109.00,0.49
9108.00,0.49
9107.00,0.49
9106.00,0.49
9105.00,0.49
9104.00,0.49
9103.00,0.49
9102.00,0.49
9101.00,0.49
9100.00,0.49
9099.00,0.49
9098.00,0.50
9097.00,0.50
9096.00,0.50
9095.00,0.50
9094.00,0.50
9093.00,0.51
9092.00,0.51
9091.00,0.51
9090.00,0.51
9089.00,0.51
9088.00,0.51
9087.00,0.51
9086.00,0.51
9085.00,0.51
9084.00,0.51
9083.00,0.51
9082.00,0.51
9081.00,0.51
9080.00,0.51
9079.00,0.51
9078.00,0.50
9077.00,0.50
9076.00,0.50
9075.00,0.50
9074.00,0.50
9073.00,0.50
9072.00,0.50
9071.00,0.50
9070.00,0.50
9069.00,0.50
9068.00,0.50
9067.00,0.50
9066.00,0.50
9065.00,0.50
9064.00,0.50
9063.00,0.50
9062.00,0.50
9061.00,0.50
9060.00,0.50
9059.00,0.50
9058.00,0.50
9057.00,0.50
9056.00,0.50
9055.00,0.50
9054.00,0.50
9053.00,0.50
9052.00,0.50
9051.00,0.50
9050.00,0.50
9049.00,0.50
9048.00,0.50
9047.00,0.50
9046.00,0.50
9045.00,0.50
9044.00,0.50
9043.00,0.50
9042.00,0.50
9041.00,0.50
9040.00,0.50
9039.00,0.50
9038.00,0.50
9037.00,0.50
9036.00,0.50
9035.00,0.50
9034.00,0.50
9033.00,0.50
9032.00,0.50
9031.00,0.50
9030.00,0.50
9029.00,0.50
9028.00,0.50
9027.00,0.50
9026.00,0.50
9025.00,0.50
9024.00,0.50
9023.00,0.50
9022.00,0.50
9021.00,0.50
9020.00,0.50
9019.00,0.50
9018.00,0.50
9017.00,0.50
9016.00,0.50
9015.00,0.50
9014.00,0.49
9013.00,0.49
9012.00,0.49
9011.00,0.49
9010.00,0.49
9009.00,0.48
9008.00,0.48
9007.00,0.48
9006.00,0.48
9005.00,0.48
9004.00,0.47
9003.00,0.47
9002.00,0.47
9001.00,0.47
9000.00,0.47
8999.00,0.47
8998.00,0.48
8997.00,0.48
8996.00,0.48
8995.00,0.48
8994.00,0.48
8993.00,0.48
8992.00,0.49
8991.00,0.49
8990.00,0.49
8989.00,0.49
8988.00,0.49
8987.00,0.49
8986.00,0.49
8985.00,0.49
8984.00,0.49
8983.00,0.49
8982.00,0.49
8981.00,0.49
8980.00,0.49
8979.00,0.49
8978.00,0.49
8977.00,0.49
8976.00,0.48
8975.00,0.48
8974.00,0.48
8973.00,0.48
8972.00,0.48
8971.00,0.48
8970.00,0.48
8969.00,0.48
8968.00,0.48
8967.00,0.48
8966.00,0.48
8965.00,0.48
8964.00,0.48
8963.00,0.48
8962.00,0.48
8961.00,0.48
8960.00,0.48
8959.00,0.48
8958.00,0.49
8957.00,0.49
8956.00,0.49
8955.00,0.49
8954.00,0.49
8953.00,0.49
8952.00,0.49
8951.00,0.49
8950.00,0.50
8949.00,0.50
8948.00,0.50
8947.00,0.50
8946.00,0.50
8945.00,0.50
8944.00,0.50
8943.00,0.50
8942.00,0.50
8941.00,0.50
8940.00,0.50
8939.00,0.50
8938.00,0.50
8937.00,0.50
8936.00,0.50
8935.00,0.50
8934.00,0.50
8933.00,0.50
8932.00,0.50
8931.00,0.50
8930.00,0.50
8929.00,0.51
8928.00,0.51
8927.00,0.51
8926.00,0.51
8925.00,0.51
8924.00,0.51
8923.00,0.51
8922.00,0.51
8921.00,0.51
8920.00,0.51
8919.00,0.51
8918.00,0.51
8917.00,0.51
8916.00,0.51
8915.00,0.51
8914.00,0.50
8913.00,0.50
8912.00,0.50
8911.00,0.50
8910.00,0.50
8909.00,0.50
8908.00,0.50
8907.00,0.50
8906.00,0.50
8905.00,0.50
8904.00,0.50
8903.00,0.50
8902.00,0.50
8901.00,0.50
8900.00,0.50
8899.00,0.50
8898.00,0.50
8897.00,0.50
8896.00,0.50
8895.00,0.51
8894.00,0.51
8893.00,0.51
8892.00,0.51
8891.00,0.51
8890.00,0.51
8889.00,0.51
8888.00,0.51
8887.00,0.51
8886.00,0.51
8885.00,0.51
8884.00,0.51
8883.00,0.51
8882.00,0.50
8881.00,0.50
8880.00,0.50
8879.00,0.50
8878.00,0.50
8877.00,0.50
8876.00,0.50
8875.00,0.50
8874.00,0.50
8873.00,0.50
8872.00,0.50
8871.00,0.50
8870.00,0.49
8869.00,0.49
8868.00,0.49
8867.00,0.49
8866.00,0.49
8865.00,0.49
8864.00,0.49
8863.00,0.50
8862.00,0.50
8861.00,0.50
8860.00,0.50
8859.00,0.50
8858.00,0.50
8857.00,0.50
8856.00,0.50
8855.00,0.50
8854.00,0.50
8853.00,0.50
8852.00,0.50
8851.00,0.50
8850.00,0.50
8849.00,0.50
8848.00,0.50
8847.00,0.50
8846.00,0.49
8845.00,0.49
8844.00,0.49
8843.00,0.49
8842.00,0.49
8841.00,0.49
8840.00,0.49
8839.00,0.49
8838.00,0.49
8837.00,0.49
8836.00,0.49
8835.00,0.49
8834.00,0.49
8833.00,0.49
8832.00,0.49
8831.00,0.49
8830.00,0.49
8829.00,0.50
8828.00,0.50
8827.00,0.50
8826.00,0.50
8825.00,0.50
8824.00,0.50
8823.00,0.50
8822.00,0.50
8821.00,0.50
8820.00,0.50
8819.00,0.50
8818.00,0.50
8817.00,0.49
8816.00,0.49
8815.00,0.49
8814.00,0.49
8813.00,0.49
8812.00,0.49
8811.00,0.49
8810.00,0.49
8809.00,0.48
8808.00,0.48
8807.00,0.48
8806.00,0.48
8805.00,0.48
8804.00,0.48
8803.00,0.48
8802.00,0.48
8801.00,0.48
8800.00,0.48
8799.00,0.48
8798.00,0.48
8797.00,0.48
8796.00,0.48
8795.00,0.48
8794.00,0.48
8793.00,0.48
8792.00,0.48
8791.00,0.48
8790.00,0.48
8789.00,0.48
8788.00,0.48
8787.00,0.48
8786.00,0.48
8785.00,0.48
8784.00,0.49
8783.00,0.49
8782.00,0.49
8781.00,0.49
8780.00,0.49
8779.00,0.49
8778.00,0.49
8777.00,0.49
8776.00,0.49
8775.00,0.49
8774.00,0.49
8773.00,0.49
8772.00,0.49
8771.00,0.49
8770.00,0.49
8769.00,0.49
8768.00,0.49
8767.00,0.49
8766.00,0.48
8765.00,0.48
8764.00,0.48
8763.00,0.48
8762.00,0.48
8761.00,0.48
8760.00,0.48
8759.00,0.48
8758.00,0.48
8757.00,0.48
8756.00,0.48
8755.00,0.48
8754.00,0.48
8753.00,0.48
8752.00,0.48
8751.00,0.48
8750.00,0.48
8749.00,0.48
8748.00,0.48
8747.00,0.48
8746.00,0.48
8745.00,0.48
8744.00,0.48
8743.00,0.48
8742.00,0.48
8741.00,0.48
8740.00,0.48
8739.00,0.48
8738.00,0.48
8737.00,0.47
8736.00,0.47
8735.00,0.47
8734.00,0.47
8733.00,0.47
8732.00,0.47
8731.00,0.47
8730.00,0.47
8729.00,0.47
8728.00,0.47
8727.00,0.47
8726.00,0.47
8725.00,0.47
8724.00,0.47
8723.00,0.47
8722.00,0.47
8721.00,0.47
8720.00,0.47
8719.00,0.47
8718.00,0.47
8717.00,0.47
8716.00,0.47
8715.00,0.47
8714.00,0.47
8713.00,0.47
8712.00,0.47
8711.00,0.47
8710.00,0.47
8709.00,0.47
8708.00,0.47
8707.00,0.48
8706.00,0.48
8705.00,0.48
8704.00,0.48
8703.00,0.48
8702.00,0.48
8701.00,0.48
8700.00,0.48
8699.00,0.48
8698.00,0.48
8697.00,0.48
8696.00,0.48
8695.00,0.48
8694.00,0.48
8693.00,0.48
8692.00,0.48
8691.00,0.48
8690.00,0.48
8689.00,0.47
8688.00,0.47
8687.00,0.47
8686.00,0.47
8685.00,0.47
8684.00,0.47
8683.00,0.47
8682.00,0.47
8681.00,0.47
8680.00,0.47
8679.00,0.47
8678.00,0.47
8677.00,0.47
8676.00,0.47
8675.00,0.47
8674.00,0.47
8673.00,0.48
8672.00,0.48
8671.00,0.48
8670.00,0.48
8669.00,0.48
8668.00,0.48
8667.00,0.48
8666.00,0.48
8665.00,0.48
8664.00,0.48
8663.00,0.48
8662.00,0.48
8661.00,0.48
8660.00,0.48
8659.00,0.48
8658.00,0.48
8657.00,0.48
8656.00,0.48
8655.00,0.48
8654.00,0.48
8653.00,0.48
8652.00,0.48
8651.00,0.48
8650.00,0.48
8649.00,0.48
8648.00,0.48
8647.00,0.48
8646.00,0.48
8645.00,0.48
8644.00,0.48
8643.00,0.48
8642.00,0.48
8641.00,0.48
8640.00,0.47
8639.00,0.47
8638.00,0.47
8637.00,0.47
8636.00,0.47
8635.00,0.47
8634.00,0.47
8633.00,0.47
8632.00,0.47
8631.00,0.47
8630.00,0.47
8629.00,0.47
8628.00,0.47
8627.00,0.47
8626.00,0.47
8625.00,0.47
8624.00,0.47
8623.00,0.47
8622.00,0.47
8621.00,0.47
8620.00,0.48
8619.00,0.48
8618.00,0.48
8617.00,0.48
8616.00,0.48
8615.00,0.48
8614.00,0.48
8613.00,0.48
8612.00,0.48
8611.00,0.48
8610.00,0.48
8609.00,0.48
8608.00,0.48
8607.00,0.48
8606.00,0.48
8605.00,0.47
8604.00,0.47
8603.00,0.47
8602.00,0.47
8601.00,0.47
8600.00,0.46
8599.00,0.46
8598.00,0.46
8597.00,0.46
8596.00,0.46
8595.00,0.46
8594.00,0.46
8593.00,0.46
8592.00,0.46
8591.00,0.46
8590.00,0.46
8589.00,0.46
8588.00,0.46
8587.00,0.46
8586.00,0.46
8585.00,0.46
8584.00,0.46
8583.00,0.46
8582.00,0.46
8581.00,0.47
8580.00,0.47
8579.00,0.47
8578.00,0.47
8577.00,0.47
8576.00,0.47
8575.00,0.47
8574.00,0.47
8573.00,0.47
8572.00,0.47
8571.00,0.47
8570.00,0.47
8569.00,0.47
8568.00,0.47
8567.00,0.47
8566.00,0.47
8565.00,0.47
8564.00,0.47
8563.00,0.47
8562.00,0.47
8561.00,0.47
8560.00,0.47
8559.00,0.47
8558.00,0.47
8557.00,0.46
8556.00,0.46
8555.00,0.46
8554.00,0.46
8553.00,0.46
8552.00,0.46
8551.00,0.46
8550.00,0.46
8549.00,0.46
8548.00,0.46
8547.00,0.46
8546.00,0.46
8545.00,0.46
8544.00,0.46
8543.00,0.46
8542.00,0.46
8541.00,0.46
8540.00,0.46
8539.00,0.46
8538.00,0.46
8537.00,0.46
8536.00,0.46
8535.00,0.46
8534.00,0.46
8533.00,0.46
8532.00,0.46
8531.00,0.46
8530.00,0.45
8529.00,0.45
8528.00,0.45
8527.00,0.45
8526.00,0.46
8525.00,0.46
8524.00,0.46
8523.00,0.46
8522.00,0.46
8521.00,0.46
8520.00,0.46
8519.00,0.46
8518.00,0.46
8517.00,0.46
8516.00,0.46
8515.00,0.46
8514.00,0.46
8513.00,0.46
8512.00,0.46
8511.00,0.46
8510.00,0.46
8509.00,0.46
8508.00,0.46
8507.00,0.46
8506.00,0.46
8505.00,0.46
8504.00,0.46
8503.00,0.46
8502.00,0.46
8501.00,0.45
8500.00,0.45
8499.00,0.45
8498.00,0.45
8497.00,0.45
8496.00,0.45
8495.00,0.44
8494.00,0.44
8493.00,0.44
8492.00,0.44
8491.00,0.44
8490.00,0.44
8489.00,0.44
8488.00,0.44
8487.00,0.44
8486.00,0.44
8485.00,0.44
8484.00,0.44
8483.00,0.44
8482.00,0.44
8481.00,0.44
8480.00,0.44
8479.00,0.44
8478.00,0.44
8477.00,0.44
8476.00,0.44
8475.00,0.44
8474.00,0.44
8473.00,0.44
8472.00,0.44
8471.00,0.44
8470.00,0.44
8469.00,0.45
8468.00,0.45
8467.00,0.45
8466.00,0.45
8465.00,0.45
8464.00,0.45
8463.00,0.45
8462.00,0.45
8461.00,0.45
8460.00,0.45
8459.00,0.45
8458.00,0.45
8457.00,0.45
8456.00,0.45
8455.00,0.45
8454.00,0.45
8453.00,0.45
8452.00,0.45
8451.00,0.45
8450.00,0.45
8449.00,0.45
8448.00,0.45
8447.00,0.45
8446.00,0.45
8445.00,0.45
8444.00,0.45
8443.00,0.45
8442.00,0.45
8441.00,0.45
8440.00,0.45
8439.00,0.45
8438.00,0.45
8437.00,0.45
8436.00,0.45
8435.00,0.45
8434.00,0.45
8433.00,0.45
8432.00,0.45
8431.00,0.45
8430.00,0.45
8429.00,0.45
8428.00,0.45
8427.00,0.45
8426.00,0.45
8425.00,0.45
8424.00,0.45
8423.00,0.45
8422.00,0.45
8421.00,0.45
8420.00,0.45
8419.00,0.45
8418.00,0.45
8417.00,0.45
8416.00,0.45
8415.00,0.45
8414.00,0.45
8413.00,0.44
8412.00,0.44
8411.00,0.44
8410.00,0.44
8409.00,0.44
8408.00,0.44
8407.00,0.44
8406.00,0.44
8405.00,0.44
8404.00,0.44
8403.00,0.44
8402.00,0.44
8401.00,0.44
8400.00,0.44
8399.00,0.44
8398.00,0.44
8397.00,0.44
8396.00,0.44
8395.00,0.44
8394.00,0.44
8393.00,0.44
8392.00,0.44
8391.00,0.44
8390.00,0.44
8389.00,0.44
8388.00,0.44
8387.00,0.44
8386.00,0.44
8385.00,0.44
8384.00,0.44
8383.00,0.44
8382.00,0.44
8381.00,0.44
8380.00,0.44
8379.00,0.44
8378.00,0.44
8377.00,0.44
8376.00,0.44
8375.00,0.44
8374.00,0.44
8373.00,0.44
8372.00,0.44
8371.00,0.44
8370.00,0.44
8369.00,0.44
8368.00,0.45
8367.00,0.45
8366.00,0.45
8365.00,0.45
8364.00,0.45
8363.00,0.46
8362.00,0.46
8361.00,0.46
8360.00,0.46
8359.00,0.46
8358.00,0.46
8357.00,0.46
8356.00,0.46
8355.00,0.46
8354.00,0.46
8353.00,0.46
8352.00,0.46
8351.00,0.46
8350.00,0.46
8349.00,0.46
8348.00,0.46
8347.00,0.46
8346.00,0.46
8345.00,0.46
8344.00,0.46
8343.00,0.46
8342.00,0.46
8341.00,0.46
8340.00,0.46
8339.00,0.46
8338.00,0.46
8337.00,0.46
8336.00,0.46
8335.00,0.46
8334.00,0.46
8333.00,0.46
8332.00,0.46
8331.00,0.46
8330.00,0.46
8329.00,0.46
8328.00,0.46
8327.00,0.46
8326.00,0.46
8325.00,0.46
8324.00,0.46
8323.00,0.46
8322.00,0.46
8321.00,0.46
8320.00,0.46
8319.00,0.46
8318.00,0.46
8317.00,0.46
8316.00,0.46
8315.00,0.46
8314.00,0.46
8313.00,0.46
8312.00,0.46
8311.00,0.46
8310.00,0.46
8309.00,0.46
8308.00,0.46
8307.00,0.46
8306.00,0.46
8305.00,0.46
8304.00,0.46
8303.00,0.46
8302.00,0.46
8301.00,0.47
8300.00,0.47
8299.00,0.47
8298.00,0.47
8297.00,0.47
8296.00,0.47
8295.00,0.47
8294.00,0.46
8293.00,0.46
8292.00,0.46
8291.00,0.46
8290.00,0.46
8289.00,0.46
8288.00,0.46
8287.00,0.46
8286.00,0.46
8285.00,0.46
8284.00,0.46
8283.00,0.46
8282.00,0.46
8281.00,0.46
8280.00,0.46
8279.00,0.46
8278.00,0.46
8277.00,0.46
8276.00,0.46
8275.00,0.46
8274.00,0.46
8273.00,0.46
8272.00,0.46
8271.00,0.46
8270.00,0.46
8269.00,0.46
8268.00,0.46
8267.00,0.46
8266.00,0.46
8265.00,0.46
8264.00,0.46
8263.00,0.46
8262.00,0.46
8261.00,0.46
8260.00,0.46
8259.00,0.46
8258.00,0.46
8257.00,0.46
8256.00,0.46
8255.00,0.46
8254.00,0.46
8253.00,0.46
8252.00,0.46
8251.00,0.46
8250.00,0.47
8249.00,0.47
8248.00,0.47
8247.00,0.47
8246.00,0.47
8245.00,0.46
8244.00,0.46
8243.00,0.46
8242.00,0.46
8241.00,0.46
8240.00,0.46
8239.00,0.46
8238.00,0.46
8237.00,0.46
8236.00,0.46
8235.00,0.46
8234.00,0.46
8233.00,0.46
8232.00,0.46
8231.00,0.46
8230.00,0.46
8229.00,0.46
8228.00,0.46
8227.00,0.46
8226.00,0.46
8225.00,0.46
8224.00,0.46
8223.00,0.46
8222.00,0.46
8221.00,0.46
8220.00,0.46
8219.00,0.46
8218.00,0.46
8217.00,0.46
8216.00,0.46
8215.00,0.46
8214.00,0.46
8213.00,0.46
8212.00,0.47
8211.00,0.47
8210.00,0.47
8209.00,0.47
8208.00,0.47
8207.00,0.47
8206.00,0.47
8205.00,0.47
8204.00,0.47
8203.00,0.47
8202.00,0.47
8201.00,0.47
8200.00,0.47
8199.00,0.47
8198.00,0.47
8197.00,0.47
8196.00,0.47
8195.00,0.48
8194.00,0.48
8193.00,0.48
8192.00,0.48
8191.00,0.48
8190.00,0.48
8189.00,0.48
8188.00,0.48
8187.00,0.48
8186.00,0.48
8185.00,0.48
8184.00,0.48
8183.00,0.49
8182.00,0.49
8181.00,0.49
8180.00,0.49
8179.00,0.49
8178.00,0.49
8177.00,0.49
8176.00,0.49
8175.00,0.49
8174.00,0.49
8173.00,0.49
8172.00,0.49
8171.00,0.49
8170.00,0.49
8169.00,0.49
8168.00,0.49
8167.00,0.49
8166.00,0.49
8165.00,0.49
8164.00,0.49
8163.00,0.49
8162.00,0.49
8161.00,0.49
8160.00,0.48
8159.00,0.48
8158.00,0.48
8157.00,0.48
8156.00,0.48
8155.00,0.48
8154.00,0.48
8153.00,0.48
8152.00,0.48
8151.00,0.48
8150.00,0.48
8149.00,0.48
8148.00,0.48
8147.00,0.48
8146.00,0.48
8145.00,0.48
8144.00,0.48
8143.00,0.48
8142.00,0.48
8141.00,0.47
8140.00,0.47
8139.00,0.47
8138.00,0.47
8137.00,0.47
8136.00,0.47
8135.00,0.47
8134.00,0.47
8133.00,0.47
8132.00,0.47
8131.00,0.47
8130.00,0.47
8129.00,0.47
8128.00,0.47
8127.00,0.47
8126.00,0.47
8125.00,0.47
8124.00,0.47
8123.00,0.47
8122.00,0.47
8121.00,0.47
8120.00,0.47
8119.00,0.47
8118.00,0.47
8117.00,0.47
8116.00,0.47
8115.00,0.47
8114.00,0.47
8113.00,0.47
8112.00,0.47
8111.00,0.47
8110.00,0.47
8109.00,0.47
8108.00,0.47
8107.00,0.47
8106.00,0.48
8105.00,0.48
8104.00,0.48
8103.00,0.48
8102.00,0.48
8101.00,0.48
8100.00,0.48
8099.00,0.48
8098.00,0.48
8097.00,0.48
8096.00,0.48
8095.00,0.48
8094.00,0.48
8093.00,0.48
8092.00,0.48
8091.00,0.48
8090.00,0.48
8089.00,0.48
8088.00,0.49
8087.00,0.49
8086.00,0.49
8085.00,0.49
8084.00,0.49
8083.00,0.49
8082.00,0.49
8081.00,0.49
8080.00,0.49
8079.00,0.49
8078.00,0.49
8077.00,0.49
8076.00,0.49
8075.00,0.50
8074.00,0.50
8073.00,0.50
8072.00,0.50
8071.00,0.50
8070.00,0.50
8069.00,0.49
8068.00,0.49
8067.00,0.49
8066.00,0.49
8065.00,0.49
8064.00,0.49
8063.00,0.49
8062.00,0.49
8061.00,0.49
8060.00,0.49
8059.00,0.49
8058.00,0.48
8057.00,0.48
8056.00,0.48
8055.00,0.48
8054.00,0.48
8053.00,0.48
8052.00,0.48
8051.00,0.48
8050.00,0.48
8049.00,0.48
8048.00,0.48
8047.00,0.48
8046.00,0.48
8045.00,0.48
8044.00,0.48
8043.00,0.48
8042.00,0.48
8041.00,0.49
8040.00,0.49
8039.00,0.49
8038.00,0.49
8037.00,0.49
8036.00,0.49
8035.00,0.49
8034.00,0.49
8033.00,0.49
8032.00,0.49
8031.00,0.49
8030.00,0.49
8029.00,0.49
8028.00,0.50
8027.00,0.50
8026.00,0.50
8025.00,0.50
8024.00,0.50
8023.00,0.50
8022.00,0.50
8021.00,0.50
8020.00,0.50
8019.00,0.50
8018.00,0.50
8017.00,0.50
8016.00,0.50
8015.00,0.51
8014.00,0.51
8013.00,0.51
8012.00,0.51
8011.00,0.51
8010.00,0.51
8009.00,0.51
8008.00,0.51
8007.00,0.51
8006.00,0.51
8005.00,0.51
8004.00,0.51
8003.00,0.51
8002.00,0.51
8001.00,0.51
8000.00,0.51
7999.00,0.51
7998.00,0.51
7997.00,0.51
7996.00,0.51
7995.00,0.51
7994.00,0.51
7993.00,0.50
7992.00,0.50
7991.00,0.50
7990.00,0.50
7989.00,0.50
7988.00,0.50
7987.00,0.50
7986.00,0.50
7985.00,0.50
7984.00,0.50
7983.00,0.50
7982.00,0.50
7981.00,0.50
7980.00,0.50
7979.00,0.50
7978.00,0.50
7977.00,0.50
7976.00,0.50
7975.00,0.50
7974.00,0.50
7973.00,0.50
7972.00,0.50
7971.00,0.50
7970.00,0.50
7969.00,0.50
7968.00,0.50
7967.00,0.50
7966.00,0.50
7965.00,0.50
7964.00,0.50
7963.00,0.50
7962.00,0.50
7961.00,0.50
7960.00,0.50
7959.00,0.50
7958.00,0.50
7957.00,0.50
7956.00,0.50
7955.00,0.50
7954.00,0.50
7953.00,0.50
7952.00,0.50
7951.00,0.50
7950.00,0.50
7949.00,0.50
7948.00,0.50
7947.00,0.50
7946.00,0.50
7945.00,0.50
7944.00,0.50
7943.00,0.50
7942.00,0.50
7941.00,0.50
7940.00,0.50
7939.00,0.50
7938.00,0.50
7937.00,0.50
7936.00,0.50
7935.00,0.50
7934.00,0.50
7933.00,0.50
7932.00,0.50
7931.00,0.50
7930.00,0.50
7929.00,0.50
7928.00,0.50
7927.00,0.50
7926.00,0.50
7925.00,0.50
7924.00,0.50
7923.00,0.50
7922.00,0.50
7921.00,0.50
7920.00,0.50
7919.00,0.50
7918.00,0.50
7917.00,0.50
7916.00,0.50
7915.00,0.50
7914.00,0.50
7913.00,0.50
7912.00,0.50
7911.00,0.50
7910.00,0.50
7909.00,0.50
7908.00,0.50
7907.00,0.50
7906.00,0.50
7905.00,0.50
7904.00,0.50
7903.00,0.50
7902.00,0.50
7901.00,0.50
7900.00,0.50
7899.00,0.50
7898.00,0.50
7897.00,0.50
7896.00,0.50
7895.00,0.50
7894.00,0.50
7893.00,0.50
7892.00,0.51
7891.00,0.51
7890.00,0.51
7889.00,0.51
7888.00,0.51
7887.00,0.51
7886.00,0.51
7885.00,0.51
7884.00,0.51
7883.00,0.51
7882.00,0.51
7881.00,0.51
7880.00,0.51
7879.00,0.51
7878.00,0.51
7877.00,0.51
7876.00,0.51
7875.00,0.51
7874.00,0.51
7873.00,0.51
7872.00,0.51
7871.00,0.51
7870.00,0.51
7869.00,0.50
7868.00,0.50
7867.00,0.50
7866.00,0.50
7865.00,0.50
7864.00,0.50
7863.00,0.50
7862.00,0.50
7861.00,0.49
7860.00,0.49
7859.00,0.49
7858.00,0.49
7857.00,0.49
7856.00,0.49
7855.00,0.49
7854.00,0.49
7853.00,0.49
7852.00,0.49
7851.00,0.49
7850.00,0.49
7849.00,0.49
7848.00,0.49
7847.00,0.49
7846.00,0.50
7845.00,0.50
7844.00,0.50
7843.00,0.50
7842.00,0.50
7841.00,0.50
7840.00,0.50
7839.00,0.51
7838.00,0.51
7837.00,0.51
7836.00,0.51
7835.00,0.51
7834.00,0.51
7833.00,0.51
7832.00,0.51
7831.00,0.51
7830.00,0.51
7829.00,0.50
7828.00,0.50
7827.00,0.50
7826.00,0.50
7825.00,0.50
7824.00,0.50
7823.00,0.50
7822.00,0.50
7821.00,0.50
7820.00,0.50
7819.00,0.50
7818.00,0.50
7817.00,0.50
7816.00,0.50
7815.00,0.50
7814.00,0.50
7813.00,0.50
7812.00,0.50
7811.00,0.51
7810.00,0.51
7809.00,0.51
7808.00,0.51
7807.00,0.51
7806.00,0.51
7805.00,0.51
7804.00,0.51
7803.00,0.51
7802.00,0.51
7801.00,0.51
7800.00,0.51
7799.00,0.51
7798.00,0.51
7797.00,0.51
7796.00,0.51
7795.00,0.51
7794.00,0.51
7793.00,0.51
7792.00,0.51
7791.00,0.51
7790.00,0.51
7789.00,0.51
7788.00,0.51
7787.00,0.51
7786.00,0.51
7785.00,0.51
7784.00,0.50
7783.00,0.50
7782.00,0.50
7781.00,0.50
7780.00,0.50
7779.00,0.50
7778.00,0.50
7777.00,0.50
7776.00,0.50
7775.00,0.50
7774.00,0.50
7773.00,0.50
7772.00,0.50
7771.00,0.50
7770.00,0.50
7769.00,0.50
7768.00,0.50
7767.00,0.50
7766.00,0.50
7765.00,0.50
7764.00,0.50
7763.00,0.50
7762.00,0.50
7761.00,0.50
7760.00,0.50
7759.00,0.50
7758.00,0.50
7757.00,0.50
7756.00,0.50
7755.00,0.50
7754.00,0.50
7753.00,0.50
7752.00,0.50
7751.00,0.50
7750.00,0.50
7749.00,0.50
7748.00,0.50
7747.00,0.50
7746.00,0.50
7745.00,0.50
7744.00,0.50
7743.00,0.50
7742.00,0.50
7741.00,0.50
7740.00,0.50
7739.00,0.50
7738.00,0.50
7737.00,0.50
7736.00,0.50
7735.00,0.50
7734.00,0.50
7733.00,0.50
7732.00,0.50
7731.00,0.50
7730.00,0.50
7729.00,0.50
7728.00,0.50
7727.00,0.50
7726.00,0.50
7725.00,0.50
7724.00,0.50
7723.00,0.50
7722.00,0.50
7721.00,0.50
7720.00,0.50
7719.00,0.50
7718.00,0.50
7717.00,0.50
7716.00,0.50
7715.00,0.50
7714.00,0.50
7713.00,0.50
7712.00,0.50
7711.00,0.50
7710.00,0.50
7709.00,0.50
7708.00,0.50
7707.00,0.50
7706.00,0.50
7705.00,0.50
7704.00,0.51
7703.00,0.51
7702.00,0.51
7701.00,0.51
7700.00,0.51
7699.00,0.51
7698.00,0.51
7697.00,0.51
7696.00,0.51
7695.00,0.51
7694.00,0.51
7693.00,0.51
7692.00,0.51
7691.00,0.51
7690.00,0.51
7689.00,0.51
7688.00,0.51
7687.00,0.51
7686.00,0.51
7685.00,0.51
7684.00,0.51
7683.00,0.51
7682.00,0.51
7681.00,0.51
7680.00,0.51
7679.00,0.51
7678.00,0.51
7677.00,0.51
7676.00,0.51
7675.00,0.51
7674.00,0.50
7673.00,0.50
7672.00,0.50
7671.00,0.50
7670.00,0.50
7669.00,0.51
7668.00,0.51
7667.00,0.51
7666.00,0.51
7665.00,0.51
7664.00,0.51
7663.00,0.51
7662.00,0.51
7661.00,0.51
7660.00,0.51
7659.00,0.51
7658.00,0.51
7657.00,0.51
7656.00,0.51
7655.00,0.51
7654.00,0.51
7653.00,0.51
7652.00,0.51
7651.00,0.51
7650.00,0.51
7649.00,0.51
7648.00,0.51
7647.00,0.51
7646.00,0.51
7645.00,0.51
7644.00,0.51
7643.00,0.51
7642.00,0.52
7641.00,0.52
7640.00,0.52
7639.00,0.52
7638.00,0.52
7637.00,0.52
7636.00,0.51
7635.00,0.51
7634.00,0.51
7633.00,0.51
7632.00,0.51
7631.00,0.51
7630.00,0.51
7629.00,0.51
7628.00,0.51
7627.00,0.51
7626.00,0.51
7625.00,0.51
7624.00,0.51
7623.00,0.51
7622.00,0.51
7621.00,0.51
7620.00,0.51
7619.00,0.51
7618.00,0.51
7617.00,0.51
7616.00,0.51
7615.00,0.51
7614.00,0.51
7613.00,0.51
7612.00,0.51
7611.00,0.51
7610.00,0.51
7609.00,0.51
7608.00,0.51
7607.00,0.51
7606.00,0.51
7605.00,0.51
7604.00,0.51
7603.00,0.51
7602.00,0.51
7601.00,0.51
7600.00,0.50
7599.00,0.50
7598.00,0.50
7597.00,0.50
7596.00,0.50
7595.00,0.50
7594.00,0.50
7593.00,0.50
7592.00,0.50
7591.00,0.50
7590.00,0.50
7589.00,0.50
7588.00,0.50
7587.00,0.50
7586.00,0.50
7585.00,0.50
7584.00,0.50
7583.00,0.50
7582.00,0.50
7581.00,0.50
7580.00,0.50
7579.00,0.50
7578.00,0.50
7577.00,0.50
7576.00,0.50
7575.00,0.50
7574.00,0.50
7573.00,0.50
7572.00,0.50
7571.00,0.50
7570.00,0.50
7569.00,0.50
7568.00,0.50
7567.00,0.50
7566.00,0.50
7565.00,0.50
7564.00,0.50
7563.00,0.50
7562.00,0.50
7561.00,0.50
7560.00,0.50
7559.00,0.50
7558.00,0.50
7557.00,0.50
7556.00,0.50
7555.00,0.51
7554.00,0.51
7553.00,0.51
7552.00,0.51
7551.00,0.51
7550.00,0.51
7549.00,0.51
7548.00,0.51
7547.00,0.51
7546.00,0.51
7545.00,0.51
7544.00,0.51
7543.00,0.51
7542.00,0.51
7541.00,0.51
7540.00,0.51
7539.00,0.51
7538.00,0.51
7537.00,0.51
7536.00,0.51
7535.00,0.51
7534.00,0.51
7533.00,0.51
7532.00,0.51
7531.00,0.51
7530.00,0.51
7529.00,0.51
7528.00,0.51
7527.00,0.51
7526.00,0.51
7525.00,0.51
7524.00,0.51
7523.00,0.51
7522.00,0.51
7521.00,0.51
7520.00,0.51
7519.00,0.51
7518.00,0.51
7517.00,0.51
7516.00,0.51
7515.00,0.51
7514.00,0.51
7513.00,0.51
7512.00,0.51
7511.00,0.51
7510.00,0.51
7509.00,0.51
7508.00,0.51
7507.00,0.51
7506.00,0.51
7505.00,0.51
7504.00,0.51
7503.00,0.51
7502.00,0.50
7501.00,0.50
7500.00,0.50
7499.00,0.50
7498.00,0.50
7497.00,0.50
7496.00,0.50
7495.00,0.50
7494.00,0.50
7493.00,0.50
7492.00,0.50
7491.00,0.50
7490.00,0.50
7489.00,0.50
7488.00,0.50
7487.00,0.50
7486.00,0.50
7485.00,0.50
7484.00,0.50
7483.00,0.50
7482.00,0.50
7481.00,0.50
7480.00,0.50
7479.00,0.50
7478.00,0.49
7477.00,0.49
7476.00,0.49
7475.00,0.49
7474.00,0.49
7473.00,0.49
7472.00,0.49
7471.00,0.49
7470.00,0.49
7469.00,0.49
7468.00,0.49
7467.00,0.49
7466.00,0.49
7465.00,0.49
7464.00,0.49
7463.00,0.49
7462.00,0.49
7461.00,0.49
7460.00,0.49
7459.00,0.49
7458.00,0.49
7457.00,0.49
7456.00,0.49
7455.00,0.49
7454.00,0.49
7453.00,0.49
7452.00,0.49
7451.00,0.49
7450.00,0.49
7449.00,0.49
7448.00,0.49
7447.00,0.49
7446.00,0.49
7445.00,0.49
7444.00,0.49
7443.00,0.49
7442.00,0.49
7441.00,0.49
7440.00,0.49
7439.00,0.49
7438.00,0.49
7437.00,0.49
7436.00,0.49
7435.00,0.49
7434.00,0.49
7433.00,0.49
7432.00,0.49
7431.00,0.49
7430.00,0.49
7429.00,0.49
7428.00,0.49
7427.00,0.49
7426.00,0.49
7425.00,0.49
7424.00,0.49
7423.00,0.49
7422.00,0.48
7421.00,0.48
7420.00,0.48
7419.00,0.48
7418.00,0.48
7417.00,0.48
7416.00,0.48
7415.00,0.48
7414.00,0.48
7413.00,0.48
7412.00,0.48
7411.00,0.48
7410.00,0.48
7409.00,0.48
7408.00,0.48
7407.00,0.48
7406.00,0.48
7405.00,0.48
7404.00,0.48
7403.00,0.48
7402.00,0.48
7401.00,0.48
7400.00,0.48
7399.00,0.48
7398.00,0.48
7397.00,0.48
7396.00,0.48
7395.00,0.48
7394.00,0.48
7393.00,0.48
7392.00,0.47
7391.00,0.47
7390.00,0.47
7389.00,0.47
7388.00,0.47
7387.00,0.47
7386.00,0.47
7385.00,0.47
7384.00,0.47
7383.00,0.47
7382.00,0.47
7381.00,0.47
7380.00,0.47
7379.00,0.47
7378.00,0.47
7377.00,0.47
7376.00,0.47
7375.00,0.46
7374.00,0.46
7373.00,0.46
7372.00,0.46
7371.00,0.46
7370.00,0.46
7369.00,0.46
7368.00,0.46
7367.00,0.46
7366.00,0.46
7365.00,0.46
7364.00,0.46
7363.00,0.46
7362.00,0.46
7361.00,0.46
7360.00,0.46
7359.00,0.46
7358.00,0.46
7357.00,0.46
7356.00,0.46
7355.00,0.46
7354.00,0.46
7353.00,0.46
7352.00,0.46
7351.00,0.46
7350.00,0.46
7349.00,0.46
7348.00,0.46
7347.00,0.46
7346.00,0.46
7345.00,0.46
7344.00,0.46
7343.00,0.46
7342.00,0.46
7341.00,0.46
7340.00,0.46
7339.00,0.46
7338.00,0.46
7337.00,0.46
7336.00,0.46
7335.00,0.46
7334.00,0.46
7333.00,0.46
7332.00,0.46
7331.00,0.46
7330.00,0.46
7329.00,0.46
7328.00,0.46
7327.00,0.46
7326.00,0.46
7325.00,0.46
7324.00,0.46
7323.00,0.46
7322.00,0.45
7321.00,0.45
7320.00,0.45
7319.00,0.45
7318.00,0.45
7317.00,0.45
7316.00,0.45
7315.00,0.45
7314.00,0.45
7313.00,0.45
7312.00,0.45
7311.00,0.45
7310.00,0.44
7309.00,0.44
7308.00,0.44
7307.00,0.44
7306.00,0.44
7305.00,0.44
7304.00,0.44
7303.00,0.44
7302.00,0.44
7301.00,0.44
7300.00,0.44
7299.00,0.44
7298.00,0.44
7297.00,0.44
7296.00,0.44
7295.00,0.44
7294.00,0.44
7293.00,0.44
7292.00,0.44
7291.00,0.44
7290.00,0.44
7289.00,0.45
7288.00,0.45
7287.00,0.45
7286.00,0.45
7285.00,0.45
7284.00,0.45
7283.00,0.45
7282.00,0.45
7281.00,0.45
7280.00,0.45
7279.00,0.45
7278.00,0.45
7277.00,0.45
7276.00,0.45
7275.00,0.45
7274.00,0.45
7273.00,0.45
7272.00,0.44
7271.00,0.44
7270.00,0.44
7269.00,0.44
7268.00,0.44
7267.00,0.44
7266.00,0.44
7265.00,0.44
7264.00,0.44
7263.00,0.44
7262.00,0.44
7261.00,0.44
7260.00,0.44
7259.00,0.43
7258.00,0.43
7257.00,0.43
7256.00,0.43
7255.00,0.43
7254.00,0.43
7253.00,0.43
7252.00,0.43
7251.00,0.43
7250.00,0.43
7249.00,0.43
7248.00,0.43
7247.00,0.43
7246.00,0.43
7245.00,0.43
7244.00,0.43
7243.00,0.43
7242.00,0.43
7241.00,0.43
7240.00,0.43
7239.00,0.42
7238.00,0.42
7237.00,0.42
7236.00,0.42
7235.00,0.42
7234.00,0.42
7233.00,0.42
7232.00,0.41
7231.00,0.41
7230.00,0.41
7229.00,0.41
7228.00,0.41
7227.00,0.41
7226.00,0.40
7225.00,0.40
7224.00,0.40
7223.00,0.40
7222.00,0.40
7221.00,0.40
7220.00,0.40
7219.00,0.39
7218.00,0.39
7217.00,0.39
7216.00,0.39
7215.00,0.39
7214.00,0.39
7213.00,0.39
7212.00,0.39
7211.00,0.38
7210.00,0.38
7209.00,0.38
7208.00,0.38
7207.00,0.38
7206.00,0.38
7205.00,0.38
7204.00,0.37
7203.00,0.37
7202.00,0.37
7201.00,0.37
7200.00,0.37
7199.00,0.37
7198.00,0.37
7197.00,0.37
7196.00,0.37
7195.00,0.36
7194.00,0.36
7193.00,0.36
7192.00,0.36
7191.00,0.36
7190.00,0.36
7189.00,0.36
7188.00,0.36
7187.00,0.36
7186.00,0.36
7185.00,0.36
7184.00,0.35
7183.00,0.35
7182.00,0.35
7181.00,0.35
7180.00,0.35
7179.00,0.35
7178.00,0.35
7177.00,0.35
7176.00,0.35
7175.00,0.35
7174.00,0.34
7173.00,0.34
7172.00,0.34
7171.00,0.34
7170.00,0.34
7169.00,0.34
7168.00,0.34
7167.00,0.34
7166.00,0.34
7165.00,0.33
7164.00,0.33
7163.00,0.33
7162.00,0.33
7161.00,0.33
7160.00,0.33
7159.00,0.33
7158.00,0.33
7157.00,0.33
7156.00,0.32
7155.00,0.32
7154.00,0.32
7153.00,0.32
7152.00,0.32
7151.00,0.32
7150.00,0.32
7149.00,0.32
7148.00,0.31
7147.00,0.31
7146.00,0.31
7145.00,0.31
7144.00,0.31
7143.00,0.31
7142.00,0.30
7141.00,0.30
7140.00,0.30
7139.00,0.30
7138.00,0.30
7137.00,0.30
7136.00,0.30
7135.00,0.30
7134.00,0.30
7133.00,0.30
7132.00,0.30
7131.00,0.29
7130.00,0.29
7129.00,0.29
7128.00,0.29
7127.00,0.29
7126.00,0.29
7125.00,0.29
7124.00,0.29
7123.00,0.29
7122.00,0.29
7121.00,0.29
7120.00,0.29
7119.00,0.29
7118.00,0.29
7117.00,0.28
7116.00,0.28
7115.00,0.28
7114.00,0.28
7113.00,0.28
7112.00,0.28
7111.00,0.28
7110.00,0.28
7109.00,0.27
7108.00,0.27
7107.00,0.27
7106.00,0.27
7105.00,0.27
7104.00,0.27
7103.00,0.27
7102.00,0.26
7101.00,0.26
7100.00,0.26
7099.00,0.26
7098.00,0.26
7097.00,0.26
7096.00,0.26
7095.00,0.25
7094.00,0.25
7093.00,0.25
7092.00,0.25
7091.00,0.25
7090.00,0.25
7089.00,0.25
7088.00,0.25
7087.00,0.25
7086.00,0.25
7085.00,0.25
7084.00,0.25
7083.00,0.24
7082.00,0.24
7081.00,0.24
7080.00,0.24
7079.00,0.24
7078.00,0.24
7077.00,0.24
7076.00,0.24
7075.00,0.24
7074.00,0.24
7073.00,0.24
7072.00,0.24
7071.00,0.24
7070.00,0.24
7069.00,0.24
7068.00,0.24
7067.00,0.24
7066.00,0.24
7065.00,0.24
7064.00,0.24
7063.00,0.24
7062.00,0.24
7061.00,0.24
7060.00,0.24
7059.00,0.23
7058.00,0.23
7057.00,0.23
7056.00,0.23
7055.00,0.23
7054.00,0.23
7053.00,0.23
7052.00,0.23
7051.00,0.23
7050.00,0.23
7049.00,0.23
7048.00,0.23
7047.00,0.23
7046.00,0.22
7045.00,0.22
7044.00,0.22
7043.00,0.22
7042.00,0.22
7041.00,0.22
7040.00,0.22
7039.00,0.22
7038.00,0.22
7037.00,0.22
7036.00,0.22
7035.00,0.22
7034.00,0.22
7033.00,0.22
7032.00,0.22
7031.00,0.22
7030.00,0.22
7029.00,0.22
7028.00,0.22
7027.00,0.22
7026.00,0.22
7025.00,0.22
7024.00,0.22
7023.00,0.22
7022.00,0.22
7021.00,0.21
7020.00,0.21
7019.00,0.21
7018.00,0.21
7017.00,0.21
7016.00,0.21
7015.00,0.21
7014.00,0.21
7013.00,0.21
7012.00,0.21
7011.00,0.21
7010.00,0.21
7009.00,0.21
7008.00,0.21
7007.00,0.21
7006.00,0.21
7005.00,0.21
7004.00,0.21
7003.00,0.21
7002.00,0.21
7001.00,0.21
7000.00,0.21
6999.00,0.21
6998.00,0.21
6997.00,0.21
6996.00,0.21
6995.00,0.21
6994.00,0.21
6993.00,0.21
6992.00,0.21
6991.00,0.21
6990.00,0.21
6989.00,0.21
6988.00,0.21
6987.00,0.21
6986.00,0.21
6985.00,0.21
6984.00,0.21
6983.00,0.21
6982.00,0.21
6981.00,0.21
6980.00,0.21
6979.00,0.21
6978.00,0.21
6977.00,0.21
6976.00,0.21
6975.00,0.20
6974.00,0.20
6973.00,0.20
6972.00,0.20
6971.00,0.20
6970.00,0.20
6969.00,0.20
6968.00,0.20
6967.00,0.20
6966.00,0.20
6965.00,0.20
6964.00,0.20
6963.00,0.20
6962.00,0.20
6961.00,0.20
6960.00,0.20
6959.00,0.20
6958.00,0.20
6957.00,0.20
6956.00,0.20
6955.00,0.20
6954.00,0.20
6953.00,0.20
6952.00,0.20
6951.00,0.20
6950.00,0.20
6949.00,0.20
6948.00,0.20
6947.00,0.20
6946.00,0.20
6945.00,0.20
6944.00,0.20
6943.00,0.20
6942.00,0.20
6941.00,0.20
6940.00,0.20
6939.00,0.20
6938.00,0.20
6937.00,0.20
6936.00,0.20
6935.00,0.20
6934.00,0.20
6933.00,0.20
6932.00,0.20
6931.00,0.20
6930.00,0.20
6929.00,0.20
6928.00,0.20
6927.00,0.20
6926.00,0.20
6925.00,0.20
6924.00,0.20
6923.00,0.20
6922.00,0.20
6921.00,0.20
6920.00,0.20
6919.00,0.20
6918.00,0.20
6917.00,0.20
6916.00,0.20
6915.00,0.20
6914.00,0.20
6913.00,0.20
6912.00,0.20
6911.00,0.20
6910.00,0.20
6909.00,0.20
6908.00,0.20
6907.00,0.20
6906.00,0.20
6905.00,0.20
6904.00,0.20
6903.00,0.20
6902.00,0.20
6901.00,0.20
6900.00,0.20
6899.00,0.20
6898.00,0.20
6897.00,0.20
6896.00,0.20
6895.00,0.20
6894.00,0.20
6893.00,0.20
6892.00,0.20
6891.00,0.20
6890.00,0.20
6889.00,0.20
6888.00,0.20
6887.00,0.19
6886.00,0.19
6885.00,0.19
6884.00,0.19
6883.00,0.19
6882.00,0.19
6881.00,0.19
6880.00,0.19
6879.00,0.19
6878.00,0.19
6877.00,0.19
6876.00,0.19
6875.00,0.19
6874.00,0.19
6873.00,0.19
6872.00,0.19
6871.00,0.19
6870.00,0.19
6869.00,0.19
6868.00,0.19
6867.00,0.19
6866.00,0.19
6865.00,0.19
6864.00,0.19
6863.00,0.19
6862.00,0.20
6861.00,0.20
6860.00,0.20
6859.00,0.20
6858.00,0.20
6857.00,0.20
6856.00,0.20
6855.00,0.19
6854.00,0.19
6853.00,0.19
6852.00,0.19
6851.00,0.19
6850.00,0.19
6849.00,0.19
6848.00,0.19
6847.00,0.19
6846.00,0.19
6845.00,0.19
6844.00,0.19
6843.00,0.19
6842.00,0.19
6841.00,0.19
6840.00,0.19
6839.00,0.19
6838.00,0.19
6837.00,0.19
6836.00,0.19
6835.00,0.19
6834.00,0.19
6833.00,0.19
6832.00,0.19
6831.00,0.19
6830.00,0.19
6829.00,0.20
6828.00,0.20
6827.00,0.20
6826.00,0.20
6825.00,0.20
6824.00,0.20
6823.00,0.20
6822.00,0.20
6821.00,0.20
6820.00,0.20
6819.00,0.20
6818.00,0.20
6817.00,0.20
6816.00,0.20
6815.00,0.20
6814.00,0.20
6813.00,0.20
6812.00,0.20
6811.00,0.20
6810.00,0.20
6809.00,0.20
6808.00,0.20
6807.00,0.20
6806.00,0.20
6805.00,0.20
6804.00,0.20
6803.00,0.20
6802.00,0.20
6801.00,0.20
6800.00,0.20
6799.00,0.20
6798.00,0.20
6797.00,0.20
6796.00,0.20
6795.00,0.20
6794.00,0.20
6793.00,0.20
6792.00,0.20
6791.00,0.20
6790.00,0.20
6789.00,0.20
6788.00,0.20
6787.00,0.20
6786.00,0.20
6785.00,0.20
6784.00,0.20
6783.00,0.20
6782.00,0.20
6781.00,0.20
6780.00,0.20
6779.00,0.20
6778.00,0.20
6777.00,0.20
6776.00,0.21
6775.00,0.21
6774.00,0.21
6773.00,0.21
6772.00,0.21
6771.00,0.21
6770.00,0.21
6769.00,0.21
6768.00,0.21
6767.00,0.21
6766.00,0.21
6765.00,0.21
6764.00,0.21
6763.00,0.21
6762.00,0.21
6761.00,0.21
6760.00,0.21
6759.00,0.21
6758.00,0.21
6757.00,0.21
6756.00,0.21
6755.00,0.21
6754.00,0.21
6753.00,0.21
6752.00,0.21
6751.00,0.21
6750.00,0.21
6749.00,0.21
6748.00,0.21
6747.00,0.21
6746.00,0.21
6745.00,0.21
6744.00,0.21
6743.00,0.21
6742.00,0.21
6741.00,0.21
6740.00,0.21
6739.00,0.21
6738.00,0.22
6737.00,0.22
6736.00,0.22
6735.00,0.22
6734.00,0.22
6733.00,0.22
6732.00,0.22
6731.00,0.22
6730.00,0.22
6729.00,0.22
6728.00,0.22
6727.00,0.22
6726.00,0.22
6725.00,0.22
6724.00,0.22
6723.00,0.22
6722.00,0.22
6721.00,0.22
6720.00,0.23
6719.00,0.23
6718.00,0.23
6717.00,0.23
6716.00,0.23
6715.00,0.23
6714.00,0.23
6713.00,0.23
6712.00,0.23
6711.00,0.23
6710.00,0.23
6709.00,0.23
6708.00,0.23
6707.00,0.23
6706.00,0.23
6705.00,0.23
6704.00,0.23
6703.00,0.23
6702.00,0.23
6701.00,0.23
6700.00,0.23
6699.00,0.23
6698.00,0.23
6697.00,0.23
6696.00,0.23
6695.00,0.23
6694.00,0.23
6693.00,0.23
6692.00,0.23
6691.00,0.23
6690.00,0.23
6689.00,0.23
6688.00,0.23
6687.00,0.23
6686.00,0.23
6685.00,0.23
6684.00,0.23
6683.00,0.23
6682.00,0.23
6681.00,0.23
6680.00,0.23
6679.00,0.23
6678.00,0.23
6677.00,0.24
6676.00,0.24
6675.00,0.24
6674.00,0.24
6673.00,0.24
6672.00,0.24
6671.00,0.24
6670.00,0.24
6669.00,0.24
6668.00,0.24
6667.00,0.24
6666.00,0.24
6665.00,0.24
6664.00,0.24
6663.00,0.24
6662.00,0.24
6661.00,0.24
6660.00,0.24
6659.00,0.24
6658.00,0.24
6657.00,0.24
6656.00,0.24
6655.00,0.24
6654.00,0.24
6653.00,0.24
6652.00,0.24
6651.00,0.24
6650.00,0.24
6649.00,0.24
6648.00,0.24
6647.00,0.24
6646.00,0.24
6645.00,0.25
6644.00,0.25
6643.00,0.25
6642.00,0.25
6641.00,0.25
6640.00,0.25
6639.00,0.25
6638.00,0.25
6637.00,0.25
6636.00,0.25
6635.00,0.25
6634.00,0.25
6633.00,0.25
6632.00,0.25
6631.00,0.25
6630.00,0.25
6629.00,0.25
6628.00,0.25
6627.00,0.25
6626.00,0.25
6625.00,0.25
6624.00,0.25
6623.00,0.25
6622.00,0.25
6621.00,0.26
6620.00,0.26
6619.00,0.26
6618.00,0.26
6617.00,0.26
6616.00,0.26
6615.00,0.26
6614.00,0.26
6613.00,0.26
6612.00,0.26
6611.00,0.26
6610.00,0.27
6609.00,0.27
6608.00,0.27
6607.00,0.27
6606.00,0.27
6605.00,0.27
6604.00,0.27
6603.00,0.27
6602.00,0.27
6601.00,0.27
6600.00,0.27
6599.00,0.27
6598.00,0.27
6597.00,0.27
6596.00,0.27
6595.00,0.27
6594.00,0.27
6593.00,0.27
6592.00,0.27
6591.00,0.27
6590.00,0.27
6589.00,0.27
6588.00,0.27
6587.00,0.27
6586.00,0.27
6585.00,0.27
6584.00,0.27
6583.00,0.27
6582.00,0.27
6581.00,0.27
6580.00,0.27
6579.00,0.28
6578.00,0.28
6577.00,0.28
6576.00,0.28
6575.00,0.28
6574.00,0.28
6573.00,0.28
6572.00,0.28
6571.00,0.28
6570.00,0.28
6569.00,0.28
6568.00,0.28
6567.00,0.28
6566.00,0.28
6565.00,0.28
6564.00,0.28
6563.00,0.28
6562.00,0.28
6561.00,0.28
6560.00,0.28
6559.00,0.28
6558.00,0.29
6557.00,0.29
6556.00,0.29
6555.00,0.29
6554.00,0.29
6553.00,0.29
6552.00,0.29
6551.00,0.29
6550.00,0.29
6549.00,0.29
6548.00,0.29
6547.00,0.29
6546.00,0.29
6545.00,0.29
6544.00,0.29
6543.00,0.29
6542.00,0.29
6541.00,0.29
6540.00,0.29
6539.00,0.29
6538.00,0.29
6537.00,0.29
6536.00,0.29
6535.00,0.29
6534.00,0.29
6533.00,0.29
6532.00,0.29
6531.00,0.29
6530.00,0.29
6529.00,0.29
6528.00,0.29
6527.00,0.29
6526.00,0.29
6525.00,0.29
6524.00,0.29
6523.00,0.29
6522.00,0.29
6521.00,0.29
6520.00,0.29
6519.00,0.29
6518.00,0.29
6517.00,0.29
6516.00,0.29
6515.00,0.29
6514.00,0.29
6513.00,0.29
6512.00,0.30
6511.00,0.30
6510.00,0.30
6509.00,0.30
6508.00,0.30
6507.00,0.30
6506.00,0.30
6505.00,0.30
6504.00,0.30
6503.00,0.30
6502.00,0.30
6501.00,0.30
6500.00,0.30
6499.00,0.30
6498.00,0.30
6497.00,0.30
6496.00,0.30
6495.00,0.30
6494.00,0.30
6493.00,0.30
6492.00,0.30
6491.00,0.30
6490.00,0.30
6489.00,0.31
6488.00,0.31
6487.00,0.31
6486.00,0.31
6485.00,0.31
6484.00,0.31
6483.00,0.31
6482.00,0.31
6481.00,0.31
6480.00,0.31
6479.00,0.31
6478.00,0.31
6477.00,0.31
6476.00,0.31
6475.00,0.31
6474.00,0.31
6473.00,0.31
6472.00,0.31
6471.00,0.31
6470.00,0.31
6469.00,0.31
6468.00,0.31
6467.00,0.31
6466.00,0.31
6465.00,0.31
6464.00,0.31
6463.00,0.31
6462.00,0.31
6461.00,0.31
6460.00,0.31
6459.00,0.31
6458.00,0.31
6457.00,0.31
6456.00,0.31
6455.00,0.31
6454.00,0.31
6453.00,0.31
6452.00,0.31
6451.00,0.31
6450.00,0.31
6449.00,0.31
6448.00,0.31
6447.00,0.31
6446.00,0.31
6445.00,0.31
6444.00,0.31
6443.00,0.31
6442.00,0.31
6441.00,0.31
6440.00,0.31
6439.00,0.31
6438.00,0.31
6437.00,0.31
6436.00,0.31
6435.00,0.31
6434.00,0.31
6433.00,0.31
6432.00,0.31
6431.00,0.31
6430.00,0.31
6429.00,0.31
6428.00,0.31
6427.00,0.31
6426.00,0.32
6425.00,0.32
6424.00,0.32
6423.00,0.32
6422.00,0.32
6421.00,0.32
6420.00,0.32
6419.00,0.32
6418.00,0.32
6417.00,0.32
6416.00,0.32
6415.00,0.32
6414.00,0.32
6413.00,0.32
6412.00,0.32
6411.00,0.32
6410.00,0.32
6409.00,0.32
6408.00,0.32
6407.00,0.32
6406.00,0.32
6405.00,0.32
6404.00,0.32
6403.00,0.32
6402.00,0.32
6401.00,0.32
6400.00,0.32
6399.00,0.32
6398.00,0.32
6397.00,0.32
6396.00,0.32
6395.00,0.32
6394.00,0.32
6393.00,0.32
6392.00,0.32
6391.00,0.32
6390.00,0.32
6389.00,0.33
6388.00,0.33
6387.00,0.33
6386.00,0.33
6385.00,0.33
6384.00,0.33
6383.00,0.33
6382.00,0.33
6381.00,0.33
6380.00,0.33
6379.00,0.33
6378.00,0.33
6377.00,0.33
6376.00,0.33
6375.00,0.33
6374.00,0.33
6373.00,0.33
6372.00,0.33
6371.00,0.33
6370.00,0.33
6369.00,0.33
6368.00,0.33
6367.00,0.33
6366.00,0.33
6365.00,0.33
6364.00,0.33
6363.00,0.33
6362.00,0.33
6361.00,0.33
6360.00,0.33
6359.00,0.33
6358.00,0.33
6357.00,0.33
6356.00,0.33
6355.00,0.33
6354.00,0.34
6353.00,0.34
6352.00,0.34
6351.00,0.34
6350.00,0.34
6349.00,0.34
6348.00,0.34
6347.00,0.34
6346.00,0.34
6345.00,0.34
6344.00,0.34
6343.00,0.34
6342.00,0.34
6341.00,0.34
6340.00,0.34
6339.00,0.34
6338.00,0.34
6337.00,0.34
6336.00,0.34
6335.00,0.34
6334.00,0.34
6333.00,0.34
6332.00,0.34
6331.00,0.34
6330.00,0.34
6329.00,0.34
6328.00,0.34
6327.00,0.34
6326.00,0.34
6325.00,0.34
6324.00,0.34
6323.00,0.34
6322.00,0.34
6321.00,0.34
6320.00,0.34
6319.00,0.34
6318.00,0.34
6317.00,0.34
6316.00,0.34
6315.00,0.34
6314.00,0.35
6313.00,0.35
6312.00,0.35
6311.00,0.35
6310.00,0.35
6309.00,0.35
6308.00,0.35
6307.00,0.35
6306.00,0.35
6305.00,0.35
6304.00,0.35
6303.00,0.35
6302.00,0.35
6301.00,0.35
6300.00,0.35
6299.00,0.36
6298.00,0.36
6297.00,0.36
6296.00,0.36
6295.00,0.36
6294.00,0.36
6293.00,0.36
6292.00,0.36
6291.00,0.36
6290.00,0.36
6289.00,0.36
6288.00,0.36
6287.00,0.36
6286.00,0.36
6285.00,0.36
6284.00,0.36
6283.00,0.36
6282.00,0.36
6281.00,0.36
6280.00,0.37
6279.00,0.37
6278.00,0.37
6277.00,0.37
6276.00,0.37
6275.00,0.37
6274.00,0.37
6273.00,0.37
6272.00,0.37
6271.00,0.37
6270.00,0.37
6269.00,0.37
6268.00,0.37
6267.00,0.37
6266.00,0.37
6265.00,0.37
6264.00,0.37
6263.00,0.37
6262.00,0.37
6261.00,0.37
6260.00,0.37
6259.00,0.37
6258.00,0.37
6257.00,0.38
6256.00,0.38
6255.00,0.38
6254.00,0.38
6253.00,0.38
6252.00,0.38
6251.00,0.38
6250.00,0.38
6249.00,0.38
6248.00,0.38
6247.00,0.38
6246.00,0.38
6245.00,0.38
6244.00,0.38
6243.00,0.38
6242.00,0.38
6241.00,0.38
6240.00,0.38
6239.00,0.38
6238.00,0.38
6237.00,0.38
6236.00,0.38
6235.00,0.38
6234.00,0.38
6233.00,0.39
6232.00,0.39
6231.00,0.39
6230.00,0.39
6229.00,0.39
6228.00,0.39
6227.00,0.39
6226.00,0.39
6225.00,0.39
6224.00,0.39
6223.00,0.39
6222.00,0.39
6221.00,0.39
6220.00,0.39
6219.00,0.39
6218.00,0.39
6217.00,0.39
6216.00,0.39
6215.00,0.39
6214.00,0.40
6213.00,0.40
6212.00,0.40
6211.00,0.40
6210.00,0.40
6209.00,0.40
6208.00,0.40
6207.00,0.40
6206.00,0.40
6205.00,0.40
6204.00,0.40
6203.00,0.40
6202.00,0.40
6201.00,0.40
6200.00,0.40
6199.00,0.41
6198.00,0.41
6197.00,0.41
6196.00,0.41
6195.00,0.41
6194.00,0.41
6193.00,0.41
6192.00,0.41
6191.00,0.41
6190.00,0.41
6189.00,0.41
6188.00,0.41
6187.00,0.41
6186.00,0.41
6185.00,0.41
6184.00,0.41
6183.00,0.41
6182.00,0.41
6181.00,0.41
6180.00,0.41
6179.00,0.41
6178.00,0.41
6177.00,0.42
6176.00,0.42
6175.00,0.42
6174.00,0.42
6173.00,0.42
6172.00,0.42
6171.00,0.42
6170.00,0.42
6169.00,0.42
6168.00,0.42
6167.00,0.42
6166.00,0.42
6165.00,0.42
6164.00,0.42
6163.00,0.42
6162.00,0.42
6161.00,0.42
6160.00,0.43
6159.00,0.43
6158.00,0.43
6157.00,0.43
6156.00,0.43
6155.00,0.43
6154.00,0.43
6153.00,0.43
6152.00,0.43
6151.00,0.43
6150.00,0.43
6149.00,0.43
6148.00,0.43
6147.00,0.43
6146.00,0.43
6145.00,0.43
6144.00,0.43
6143.00,0.43
6142.00,0.44
6141.00,0.44
6140.00,0.44
6139.00,0.44
6138.00,0.44
6137.00,0.44
6136.00,0.44
6135.00,0.44
6134.00,0.44
6133.00,0.44
6132.00,0.44
6131.00,0.44
6130.00,0.44
6129.00,0.44
6128.00,0.45
6127.00,0.45
6126.00,0.45
6125.00,0.45
6124.00,0.45
6123.00,0.45
6122.00,0.45
6121.00,0.45
6120.00,0.45
6119.00,0.45
6118.00,0.45
6117.00,0.45
6116.00,0.45
6115.00,0.45
6114.00,0.45
6113.00,0.45
6112.00,0.45
6111.00,0.45
6110.00,0.46
6109.00,0.46
6108.00,0.46
6107.00,0.46
6106.00,0.46
6105.00,0.46
6104.00,0.46
6103.00,0.46
6102.00,0.46
6101.00,0.46
6100.00,0.46
6099.00,0.46
6098.00,0.46
6097.00,0.46
6096.00,0.46
6095.00,0.46
6094.00,0.47
6093.00,0.47
6092.00,0.47
6091.00,0.47
6090.00,0.47
6089.00,0.47
6088.00,0.47
6087.00,0.47
6086.00,0.47
6085.00,0.47
6084.00,0.47
6083.00,0.47
6082.00,0.47
6081.00,0.47
6080.00,0.47
6079.00,0.47
6078.00,0.47
6077.00,0.47
6076.00,0.47
6075.00,0.47
6074.00,0.47
6073.00,0.47
6072.00,0.47
6071.00,0.47
6070.00,0.47
6069.00,0.48
6068.00,0.48
6067.00,0.48
6066.00,0.48
6065.00,0.48
6064.00,0.48
6063.00,0.48
6062.00,0.48
6061.00,0.48
6060.00,0.48
6059.00,0.48
6058.00,0.48
6057.00,0.48
6056.00,0.48
6055.00,0.48
6054.00,0.48
6053.00,0.48
6052.00,0.48
6051.00,0.48
6050.00,0.48
6049.00,0.48
6048.00,0.48
6047.00,0.48
6046.00,0.48
6045.00,0.48
6044.00,0.48
6043.00,0.48
6042.00,0.48
6041.00,0.48
6040.00,0.48
6039.00,0.48
6038.00,0.48
6037.00,0.48
6036.00,0.48
6035.00,0.48
6034.00,0.48
6033.00,0.48
6032.00,0.48
6031.00,0.49
6030.00,0.49
6029.00,0.49
6028.00,0.49
6027.00,0.49
6026.00,0.49
6025.00,0.49
6024.00,0.49
6023.00,0.49
6022.00,0.49
6021.00,0.49
6020.00,0.49
6019.00,0.49
6018.00,0.49
6017.00,0.49
6016.00,0.49
6015.00,0.49
6014.00,0.49
6013.00,0.49
6012.00,0.49
6011.00,0.49
6010.00,0.49
6009.00,0.49
6008.00,0.49
6007.00,0.49
6006.00,0.49
6005.00,0.49
6004.00,0.49
6003.00,0.49
6002.00,0.49
6001.00,0.49
6000.00,0.49
5999.00,0.49
5998.00,0.49
5997.00,0.49
5996.00,0.49
5995.00,0.49
5994.00,0.49
5993.00,0.49
5992.00,0.48
5991.00,0.48
5990.00,0.48
5989.00,0.48
5988.00,0.48
5987.00,0.48
5986.00,0.48
5985.00,0.48
5984.00,0.47
5983.00,0.47
5982.00,0.47
5981.00,0.47
5980.00,0.47
5979.00,0.47
5978.00,0.47
5977.00,0.46
5976.00,0.46
5975.00,0.46
5974.00,0.46
5973.00,0.46
5972.00,0.45
5971.00,0.45
5970.00,0.45
5969.00,0.45
5968.00,0.45
5967.00,0.44
5966.00,0.44
5965.00,0.44
5964.00,0.44
5963.00,0.43
5962.00,0.43
5961.00,0.43
5960.00,0.43
5959.00,0.42
5958.00,0.42
5957.00,0.42
5956.00,0.41
5955.00,0.41
5954.00,0.41
5953.00,0.41
5952.00,0.40
5951.00,0.40
5950.00,0.40
5949.00,0.40
5948.00,0.39
5947.00,0.39
5946.00,0.39
5945.00,0.39
5944.00,0.38
5943.00,0.38
5942.00,0.38
5941.00,0.38
5940.00,0.38
5939.00,0.38
5938.00,0.38
5937.00,0.38
5936.00,0.38
5935.00,0.37
5934.00,0.37
5933.00,0.37
5932.00,0.37
5931.00,0.37
5930.00,0.37
5929.00,0.37
5928.00,0.37
5927.00,0.37
5926.00,0.37
5925.00,0.37
5924.00,0.37
5923.00,0.37
5922.00,0.37
5921.00,0.37
5920.00,0.36
5919.00,0.36
5918.00,0.36
5917.00,0.36
5916.00,0.36
5915.00,0.36
5914.00,0.36
5913.00,0.36
5912.00,0.36
5911.00,0.36
5910.00,0.35
5909.00,0.35
5908.00,0.35
5907.00,0.35
5906.00,0.35
5905.00,0.35
5904.00,0.35
5903.00,0.35
5902.00,0.35
5901.00,0.35
5900.00,0.35
5899.00,0.35
5898.00,0.35
5897.00,0.35
5896.00,0.35
5895.00,0.35
5894.00,0.36
5893.00,0.36
5892.00,0.36
5891.00,0.36
5890.00,0.36
5889.00,0.36
5888.00,0.36
5887.00,0.37
5886.00,0.37
5885.00,0.37
5884.00,0.37
5883.00,0.37
5882.00,0.37
5881.00,0.38
5880.00,0.38
5879.00,0.38
5878.00,0.38
5877.00,0.38
5876.00,0.38
5875.00,0.38
5874.00,0.38
5873.00,0.38
5872.00,0.38
5871.00,0.38
5870.00,0.38
5869.00,0.39
5868.00,0.39
5867.00,0.39
5866.00,0.39
5865.00,0.39
5864.00,0.39
5863.00,0.39
5862.00,0.39
5861.00,0.39
5860.00,0.39
5859.00,0.39
5858.00,0.39
5857.00,0.39
5856.00,0.39
5855.00,0.39
5854.00,0.39
5853.00,0.39
5852.00,0.39
5851.00,0.39
5850.00,0.39
5849.00,0.39
5848.00,0.39
5847.00,0.39
5846.00,0.39
5845.00,0.39
5844.00,0.39
5843.00,0.39
5842.00,0.39
5841.00,0.39
5840.00,0.39
5839.00,0.39
5838.00,0.39
5837.00,0.39
5836.00,0.39
5835.00,0.39
5834.00,0.39
5833.00,0.39
5832.00,0.39
5831.00,0.39
5830.00,0.39
5829.00,0.39
5828.00,0.39
5827.00,0.39
5826.00,0.39
5825.00,0.39
5824.00,0.39
5823.00,0.39
5822.00,0.39
5821.00,0.39
5820.00,0.39
5819.00,0.39
5818.00,0.39
5817.00,0.39
5816.00,0.39
5815.00,0.39
5814.00,0.39
5813.00,0.39
5812.00,0.39
5811.00,0.39
5810.00,0.39
5809.00,0.39
5808.00,0.39
5807.00,0.39
5806.00,0.39
5805.00,0.39
5804.00,0.39
5803.00,0.39
5802.00,0.39
5801.00,0.39
5800.00,0.39
5799.00,0.39
5798.00,0.39
5797.00,0.39
5796.00,0.39
5795.00,0.39
5794.00,0.39
5793.00,0.39
5792.00,0.39
5791.00,0.38
5790.00,0.38
5789.00,0.38
5788.00,0.38
5787.00,0.38
5786.00,0.38
5785.00,0.38
5784.00,0.38
5783.00,0.38
5782.00,0.38
5781.00,0.38
5780.00,0.38
5779.00,0.38
5778.00,0.38
5777.00,0.38
5776.00,0.37
5775.00,0.37
5774.00,0.37
5773.00,0.37
5772.00,0.37
5771.00,0.37
5770.00,0.37
5769.00,0.37
5768.00,0.37
5767.00,0.37
5766.00,0.37
5765.00,0.37
5764.00,0.37
5763.00,0.37
5762.00,0.38
5761.00,0.38
5760.00,0.38
5759.00,0.38
5758.00,0.38
5757.00,0.38
5756.00,0.38
5755.00,0.38
5754.00,0.38
5753.00,0.38
5752.00,0.39
5751.00,0.39
5750.00,0.39
5749.00,0.39
5748.00,0.39
5747.00,0.39
5746.00,0.40
5745.00,0.40
5744.00,0.40
5743.00,0.40
5742.00,0.40
5741.00,0.40
5740.00,0.41
5739.00,0.41
5738.00,0.41
5737.00,0.41
5736.00,0.41
5735.00,0.41
5734.00,0.41
5733.00,0.41
5732.00,0.42
5731.00,0.42
5730.00,0.42
5729.00,0.42
5728.00,0.42
5727.00,0.42
5726.00,0.42
5725.00,0.42
5724.00,0.42
5723.00,0.42
5722.00,0.42
5721.00,0.42
5720.00,0.42
5719.00,0.42
5718.00,0.42
5717.00,0.42
5716.00,0.42
5715.00,0.42
5714.00,0.42
5713.00,0.42
5712.00,0.42
5711.00,0.42
5710.00,0.42
5709.00,0.42
5708.00,0.42
5707.00,0.42
5706.00,0.42
5705.00,0.42
5704.00,0.42
5703.00,0.42
5702.00,0.42
5701.00,0.42
5700.00,0.42
5699.00,0.42
5698.00,0.42
5697.00,0.42
5696.00,0.41
5695.00,0.41
5694.00,0.41
5693.00,0.41
5692.00,0.41
5691.00,0.41
5690.00,0.41
5689.00,0.41
5688.00,0.41
5687.00,0.41
5686.00,0.41
5685.00,0.41
5684.00,0.41
5683.00,0.41
5682.00,0.41
5681.00,0.41
5680.00,0.40
5679.00,0.40
5678.00,0.40
5677.00,0.40
5676.00,0.40
5675.00,0.40
5674.00,0.40
5673.00,0.40
5672.00,0.40
5671.00,0.40
5670.00,0.40
5669.00,0.40
5668.00,0.40
5667.00,0.40
5666.00,0.41
5665.00,0.41
5664.00,0.41
5663.00,0.41
5662.00,0.41
5661.00,0.41
5660.00,0.41
5659.00,0.41
5658.00,0.41
5657.00,0.41
5656.00,0.41
5655.00,0.41
5654.00,0.41
5653.00,0.41
5652.00,0.41
5651.00,0.41
5650.00,0.42
5649.00,0.42
5648.00,0.42
5647.00,0.42
5646.00,0.42
5645.00,0.42
5644.00,0.42
5643.00,0.42
5642.00,0.42
5641.00,0.42
5640.00,0.42
5639.00,0.42
5638.00,0.42
5637.00,0.42
5636.00,0.43
5635.00,0.43
5634.00,0.43
5633.00,0.43
5632.00,0.43
5631.00,0.43
5630.00,0.43
5629.00,0.43
5628.00,0.43
5627.00,0.43
5626.00,0.43
5625.00,0.43
5624.00,0.44
5623.00,0.44
5622.00,0.44
5621.00,0.44
5620.00,0.44
5619.00,0.44
5618.00,0.44
5617.00,0.44
5616.00,0.44
5615.00,0.44
5614.00,0.44
5613.00,0.44
5612.00,0.44
5611.00,0.44
5610.00,0.44
5609.00,0.44
5608.00,0.44
5607.00,0.44
5606.00,0.44
5605.00,0.44
5604.00,0.44
5603.00,0.45
5602.00,0.45
5601.00,0.45
5600.00,0.45
5599.00,0.45
5598.00,0.45
5597.00,0.45
5596.00,0.45
5595.00,0.45
5594.00,0.45
5593.00,0.45
5592.00,0.45
5591.00,0.46
5590.00,0.46
5589.00,0.46
5588.00,0.46
5587.00,0.46
5586.00,0.46
5585.00,0.46
5584.00,0.46
5583.00,0.46
5582.00,0.46
5581.00,0.46
5580.00,0.46
5579.00,0.46
5578.00,0.46
5577.00,0.46
5576.00,0.46
5575.00,0.46
5574.00,0.47
5573.00,0.47
5572.00,0.47
5571.00,0.47
5570.00,0.47
5569.00,0.47
5568.00,0.47
5567.00,0.47
5566.00,0.47
5565.00,0.47
5564.00,0.47
5563.00,0.47
5562.00,0.47
5561.00,0.47
5560.00,0.47
5559.00,0.47
5558.00,0.47
5557.00,0.47
5556.00,0.47
5555.00,0.47
5554.00,0.48
5553.00,0.48
5552.00,0.48
5551.00,0.48
5550.00,0.48
5549.00,0.48
5548.00,0.48
5547.00,0.48
5546.00,0.48
5545.00,0.48
5544.00,0.48
5543.00,0.48
5542.00,0.48
5541.00,0.48
5540.00,0.48
5539.00,0.48
5538.00,0.49
5537.00,0.49
5536.00,0.49
5535.00,0.49
5534.00,0.49
5533.00,0.49
5532.00,0.49
5531.00,0.49
5530.00,0.49
5529.00,0.49
5528.00,0.49
5527.00,0.49
5526.00,0.49
5525.00,0.49
5524.00,0.49
5523.00,0.49
5522.00,0.49
5521.00,0.49
5520.00,0.49
5519.00,0.49
5518.00,0.49
5517.00,0.49
5516.00,0.49
5515.00,0.49
5514.00,0.49
5513.00,0.49
5512.00,0.49
5511.00,0.49
5510.00,0.49
5509.00,0.49
5508.00,0.49
5507.00,0.49
5506.00,0.49
5505.00,0.49
5504.00,0.49
5503.00,0.49
5502.00,0.49
5501.00,0.49
5500.00,0.49
5499.00,0.49
5498.00,0.49
5497.00,0.49
5496.00,0.49
5495.00,0.49
5494.00,0.49
5493.00,0.50
5492.00,0.50
5491.00,0.50
5490.00,0.50
5489.00,0.50
5488.00,0.50
5487.00,0.50
5486.00,0.50
5485.00,0.50
5484.00,0.50
5483.00,0.50
5482.00,0.50
5481.00,0.50
5480.00,0.50
5479.00,0.50
5478.00,0.50
5477.00,0.50
5476.00,0.50
5475.00,0.50
5474.00,0.50
5473.00,0.50
5472.00,0.51
5471.00,0.51
5470.00,0.51
5469.00,0.51
5468.00,0.51
5467.00,0.51
5466.00,0.51
5465.00,0.51
5464.00,0.51
5463.00,0.51
5462.00,0.51
5461.00,0.51
5460.00,0.51
5459.00,0.51
5458.00,0.51
5457.00,0.51
5456.00,0.51
5455.00,0.51
5454.00,0.51
5453.00,0.51
5452.00,0.51
5451.00,0.51
5450.00,0.51
5449.00,0.51
5448.00,0.51
5447.00,0.51
5446.00,0.51
5445.00,0.51
5444.00,0.51
5443.00,0.51
5442.00,0.51
5441.00,0.51
5440.00,0.51
5439.00,0.51
5438.00,0.51
5437.00,0.51
5436.00,0.51
5435.00,0.51
5434.00,0.51
5433.00,0.51
5432.00,0.51
5431.00,0.51
5430.00,0.52
5429.00,0.52
5428.00,0.52
5427.00,0.52
5426.00,0.52
5425.00,0.52
5424.00,0.52
5423.00,0.52
5422.00,0.52
5421.00,0.52
5420.00,0.52
5419.00,0.52
5418.00,0.52
5417.00,0.52
5416.00,0.51
5415.00,0.51
5414.00,0.51
5413.00,0.51
5412.00,0.51
5411.00,0.51
5410.00,0.51
5409.00,0.51
5408.00,0.51
5407.00,0.51
5406.00,0.51
5405.00,0.51
5404.00,0.52
5403.00,0.52
5402.00,0.52
5401.00,0.52
5400.00,0.52
5399.00,0.52
5398.00,0.52
5397.00,0.52
5396.00,0.52
5395.00,0.52
5394.00,0.52
5393.00,0.51
5392.00,0.51
5391.00,0.51
5390.00,0.51
5389.00,0.51
5388.00,0.51
5387.00,0.51
5386.00,0.51
5385.00,0.51
5384.00,0.51
5383.00,0.51
5382.00,0.51
5381.00,0.51
5380.00,0.50
5379.00,0.50
5378.00,0.50
5377.00,0.50
5376.00,0.50
5375.00,0.50
5374.00,0.50
5373.00,0.50
5372.00,0.49
5371.00,0.49
5370.00,0.49
5369.00,0.49
5368.00,0.49
5367.00,0.49
5366.00,0.48
5365.00,0.48
5364.00,0.48
5363.00,0.48
5362.00,0.47
5361.00,0.47
5360.00,0.47
5359.00,0.47
5358.00,0.46
5357.00,0.46
5356.00,0.46
5355.00,0.45
5354.00,0.45
5353.00,0.45
5352.00,0.45
5351.00,0.44
5350.00,0.44
5349.00,0.44
5348.00,0.43
5347.00,0.43
5346.00,0.42
5345.00,0.42
5344.00,0.42
5343.00,0.41
5342.00,0.41
5341.00,0.41
5340.00,0.40
5339.00,0.40
5338.00,0.39
5337.00,0.39
5336.00,0.38
5335.00,0.38
5334.00,0.38
5333.00,0.37
5332.00,0.37
5331.00,0.36
5330.00,0.36
5329.00,0.35
5328.00,0.35
5327.00,0.35
5326.00,0.34
5325.00,0.34
5324.00,0.33
5323.00,0.33
5322.00,0.33
5321.00,0.32
5320.00,0.32
5319.00,0.31
5318.00,0.31
5317.00,0.31
5316.00,0.30
5315.00,0.30
5314.00,0.29
5313.00,0.29
5312.00,0.29
5311.00,0.28
5310.00,0.28
5309.00,0.28
5308.00,0.27
5307.00,0.27
5306.00,0.27
5305.00,0.27
5304.00,0.26
5303.00,0.26
5302.00,0.26
5301.00,0.26
5300.00,0.25
5299.00,0.25
5298.00,0.25
5297.00,0.25
5296.00,0.25
5295.00,0.24
5294.00,0.24
5293.00,0.24
5292.00,0.24
5291.00,0.24
5290.00,0.24
5289.00,0.24
5288.00,0.24
5287.00,0.23
5286.00,0.23
5285.00,0.23
5284.00,0.23
5283.00,0.23
5282.00,0.23
5281.00,0.23
5280.00,0.23
5279.00,0.23
5278.00,0.23
5277.00,0.23
5276.00,0.23
5275.00,0.23
5274.00,0.23
5273.00,0.23
5272.00,0.23
5271.00,0.23
5270.00,0.22
5269.00,0.22
5268.00,0.22
5267.00,0.22
5266.00,0.22
5265.00,0.22
5264.00,0.22
5263.00,0.22
5262.00,0.22
5261.00,0.22
5260.00,0.22
5259.00,0.22
5258.00,0.22
5257.00,0.22
5256.00,0.22
5255.00,0.22
5254.00,0.22
5253.00,0.22
5252.00,0.22
5251.00,0.22
5250.00,0.22
5249.00,0.22
5248.00,0.22
5247.00,0.22
5246.00,0.22
5245.00,0.22
5244.00,0.22
5243.00,0.22
5242.00,0.22
5241.00,0.22
5240.00,0.22
5239.00,0.22
5238.00,0.22
5237.00,0.22
5236.00,0.22
5235.00,0.22
5234.00,0.22
5233.00,0.22
5232.00,0.22
5231.00,0.22
5230.00,0.22
5229.00,0.22
5228.00,0.22
5227.00,0.22
5226.00,0.22
5225.00,0.22
5224.00,0.22
5223.00,0.22
5222.00,0.22
5221.00,0.22
5220.00,0.22
5219.00,0.22
5218.00,0.22
5217.00,0.22
5216.00,0.22
5215.00,0.22
5214.00,0.22
5213.00,0.22
5212.00,0.22
5211.00,0.22
5210.00,0.22
5209.00,0.22
5208.00,0.22
5207.00,0.22
5206.00,0.22
5205.00,0.22
5204.00,0.22
5203.00,0.22
5202.00,0.22
5201.00,0.22
5200.00,0.22
5199.00,0.22
5198.00,0.22
5197.00,0.22
5196.00,0.22
5195.00,0.23
5194.00,0.23
5193.00,0.23
5192.00,0.23
5191.00,0.23
5190.00,0.23
5189.00,0.23
5188.00,0.23
5187.00,0.23
5186.00,0.23
5185.00,0.23
5184.00,0.23
5183.00,0.23
5182.00,0.23
5181.00,0.23
5180.00,0.23
5179.00,0.23
5178.00,0.23
5177.00,0.23
5176.00,0.23
5175.00,0.23
5174.00,0.23
5173.00,0.23
5172.00,0.23
5171.00,0.23
5170.00,0.23
5169.00,0.23
5168.00,0.23
5167.00,0.23
5166.00,0.23
5165.00,0.23
5164.00,0.23
5163.00,0.23
5162.00,0.23
5161.00,0.23
5160.00,0.23
5159.00,0.23
5158.00,0.23
5157.00,0.23
5156.00,0.23
5155.00,0.23
5154.00,0.23
5153.00,0.23
5152.00,0.23
5151.00,0.23
5150.00,0.23
5149.00,0.23
5148.00,0.23
5147.00,0.23
5146.00,0.23
5145.00,0.23
5144.00,0.23
5143.00,0.23
5142.00,0.23
5141.00,0.23
5140.00,0.23
5139.00,0.23
5138.00,0.23
5137.00,0.24
5136.00,0.24
5135.00,0.24
5134.00,0.24
5133.00,0.24
5132.00,0.24
5131.00,0.24
5130.00,0.24
5129.00,0.24
5128.00,0.24
5127.00,0.24
5126.00,0.24
5125.00,0.24
5124.00,0.24
5123.00,0.24
5122.00,0.24
5121.00,0.24
5120.00,0.24
5119.00,0.24
5118.00,0.24
5117.00,0.24
5116.00,0.24
5115.00,0.24
5114.00,0.24
5113.00,0.24
5112.00,0.24
5111.00,0.24
5110.00,0.24
5109.00,0.24
5108.00,0.24
5107.00,0.24
5106.00,0.24
5105.00,0.24
5104.00,0.24
5103.00,0.24
5102.00,0.24
5101.00,0.25
5100.00,0.25
5099.00,0.25
5098.00,0.25
5097.00,0.25
5096.00,0.25
5095.00,0.25
5094.00,0.25
5093.00,0.25
5092.00,0.25
5091.00,0.25
5090.00,0.25
5089.00,0.25
5088.00,0.25
5087.00,0.25
5086.00,0.25
5085.00,0.25
5084.00,0.25
5083.00,0.25
5082.00,0.25
5081.00,0.25
5080.00,0.25
5079.00,0.25
5078.00,0.25
5077.00,0.25
5076.00,0.25
5075.00,0.25
5074.00,0.25
5073.00,0.25
5072.00,0.25
5071.00,0.25
5070.00,0.25
5069.00,0.25
5068.00,0.25
5067.00,0.25
5066.00,0.25
5065.00,0.25
5064.00,0.25
5063.00,0.25
5062.00,0.25
5061.00,0.25
5060.00,0.25
5059.00,0.25
5058.00,0.25
5057.00,0.26
5056.00,0.26
5055.00,0.26
5054.00,0.26
5053.00,0.26
5052.00,0.26
5051.00,0.26
5050.00,0.26
5049.00,0.26
5048.00,0.26
5047.00,0.26
5046.00,0.26
5045.00,0.26
5044.00,0.26
5043.00,0.26
5042.00,0.26
5041.00,0.26
5040.00,0.26
5039.00,0.26
5038.00,0.26
5037.00,0.26
5036.00,0.26
5035.00,0.26
5034.00,0.26
5033.00,0.26
5032.00,0.26
5031.00,0.26
5030.00,0.26
5029.00,0.26
5028.00,0.26
5027.00,0.26
5026.00,0.26
5025.00,0.26
5024.00,0.26
5023.00,0.27
5022.00,0.27
5021.00,0.27
5020.00,0.27
5019.00,0.27
5018.00,0.27
5017.00,0.27
5016.00,0.27
5015.00,0.27
5014.00,0.27
5013.00,0.27
5012.00,0.27
5011.00,0.27
5010.00,0.27
5009.00,0.27
5008.00,0.27
5007.00,0.27
5006.00,0.27
5005.00,0.27
5004.00,0.27
5003.00,0.27
5002.00,0.27
5001.00,0.27
5000.00,0.27
4999.00,0.27
4998.00,0.27
4997.00,0.27
4996.00,0.27
4995.00,0.27
4994.00,0.28
4993.00,0.28
4992.00,0.28
4991.00,0.28
4990.00,0.28
4989.00,0.28
4988.00,0.28
4987.00,0.28
4986.00,0.28
4985.00,0.28
4984.00,0.28
4983.00,0.28
4982.00,0.28
4981.00,0.28
4980.00,0.28
4979.00,0.28
4978.00,0.28
4977.00,0.28
4976.00,0.28
4975.00,0.28
4974.00,0.28
4973.00,0.29
4972.00,0.29
4971.00,0.29
4970.00,0.29
4969.00,0.29
4968.00,0.29
4967.00,0.29
4966.00,0.29
4965.00,0.29
4964.00,0.29
4963.00,0.29
4962.00,0.29
4961.00,0.29
4960.00,0.29
4959.00,0.29
4958.00,0.29
4957.00,0.29
4956.00,0.29
4955.00,0.29
4954.00,0.29
4953.00,0.29
4952.00,0.29
4951.00,0.29
4950.00,0.29
4949.00,0.29
4948.00,0.30
4947.00,0.30
4946.00,0.30
4945.00,0.30
4944.00,0.30
4943.00,0.30
4942.00,0.30
4941.00,0.30
4940.00,0.30
4939.00,0.30
4938.00,0.30
4937.00,0.30
4936.00,0.30
4935.00,0.30
4934.00,0.30
4933.00,0.30
4932.00,0.30
4931.00,0.30
4930.00,0.30
4929.00,0.30
4928.00,0.30
4927.00,0.30
4926.00,0.30
4925.00,0.30
4924.00,0.30
4923.00,0.30
4922.00,0.30
4921.00,0.30
4920.00,0.30
4919.00,0.30
4918.00,0.30
4917.00,0.30
4916.00,0.30
4915.00,0.30
4914.00,0.30
4913.00,0.30
4912.00,0.30
4911.00,0.30
4910.00,0.31
4909.00,0.31
4908.00,0.31
4907.00,0.31
4906.00,0.31
4905.00,0.31
4904.00,0.31
4903.00,0.31
4902.00,0.31
4901.00,0.31
4900.00,0.31
4899.00,0.31
4898.00,0.31
4897.00,0.31
4896.00,0.31
4895.00,0.31
4894.00,0.31
4893.00,0.31
4892.00,0.31
4891.00,0.31
4890.00,0.31
4889.00,0.31
4888.00,0.31
4887.00,0.31
4886.00,0.31
4885.00,0.31
4884.00,0.31
4883.00,0.31
4882.00,0.31
4881.00,0.31
4880.00,0.31
4879.00,0.31
4878.00,0.31
4877.00,0.31
4876.00,0.31
4875.00,0.31
4874.00,0.31
4873.00,0.31
4872.00,0.31
4871.00,0.31
4870.00,0.31
4869.00,0.31
4868.00,0.32
4867.00,0.32
4866.00,0.32
4865.00,0.32
4864.00,0.32
4863.00,0.32
4862.00,0.32
4861.00,0.32
4860.00,0.32
4859.00,0.32
4858.00,0.32
4857.00,0.32
4856.00,0.32
4855.00,0.32
4854.00,0.32
4853.00,0.32
4852.00,0.32
4851.00,0.32
4850.00,0.32
4849.00,0.32
4848.00,0.32
4847.00,0.32
4846.00,0.32
4845.00,0.32
4844.00,0.32
4843.00,0.32
4842.00,0.32
4841.00,0.32
4840.00,0.32
4839.00,0.32
4838.00,0.32
4837.00,0.32
4836.00,0.32
4835.00,0.32
4834.00,0.32
4833.00,0.32
4832.00,0.32
4831.00,0.32
4830.00,0.32
4829.00,0.32
4828.00,0.32
4827.00,0.32
4826.00,0.32
4825.00,0.32
4824.00,0.32
4823.00,0.33
4822.00,0.33
4821.00,0.33
4820.00,0.33
4819.00,0.33
4818.00,0.33
4817.00,0.33
4816.00,0.33
4815.00,0.33
4814.00,0.33
4813.00,0.33
4812.00,0.33
4811.00,0.33
4810.00,0.33
4809.00,0.33
4808.00,0.33
4807.00,0.33
4806.00,0.33
4805.00,0.33
4804.00,0.33
4803.00,0.33
4802.00,0.33
4801.00,0.33
4800.00,0.33
4799.00,0.33
4798.00,0.33
4797.00,0.33
4796.00,0.33
4795.00,0.34
4794.00,0.34
4793.00,0.34
4792.00,0.34
4791.00,0.34
4790.00,0.34
4789.00,0.34
4788.00,0.34
4787.00,0.34
4786.00,0.34
4785.00,0.34
4784.00,0.34
4783.00,0.34
4782.00,0.34
4781.00,0.34
4780.00,0.34
4779.00,0.34
4778.00,0.34
4777.00,0.35
4776.00,0.35
4775.00,0.35
4774.00,0.35
4773.00,0.35
4772.00,0.35
4771.00,0.35
4770.00,0.35
4769.00,0.35
4768.00,0.35
4767.00,0.35
4766.00,0.35
4765.00,0.35
4764.00,0.35
4763.00,0.35
4762.00,0.35
4761.00,0.36
4760.00,0.36
4759.00,0.36
4758.00,0.36
4757.00,0.36
4756.00,0.36
4755.00,0.36
4754.00,0.36
4753.00,0.36
4752.00,0.36
4751.00,0.36
4750.00,0.36
4749.00,0.36
4748.00,0.37
4747.00,0.37
4746.00,0.37
4745.00,0.37
4744.00,0.37
4743.00,0.37
4742.00,0.37
4741.00,0.37
4740.00,0.37
4739.00,0.37
4738.00,0.37
4737.00,0.37
4736.00,0.37
4735.00,0.37
4734.00,0.37
4733.00,0.37
4732.00,0.37
4731.00,0.38
4730.00,0.38
4729.00,0.38
4728.00,0.38
4727.00,0.38
4726.00,0.38
4725.00,0.38
4724.00,0.38
4723.00,0.38
4722.00,0.38
4721.00,0.38
4720.00,0.38
4719.00,0.38
4718.00,0.38
4717.00,0.38
4716.00,0.39
4715.00,0.39
4714.00,0.39
4713.00,0.39
4712.00,0.39
4711.00,0.39
4710.00,0.39
4709.00,0.39
4708.00,0.39
4707.00,0.39
4706.00,0.39
4705.00,0.39
4704.00,0.39
4703.00,0.39
4702.00,0.39
4701.00,0.40
4700.00,0.40
4699.00,0.40
4698.00,0.40
4697.00,0.40
4696.00,0.40
4695.00,0.40
4694.00,0.40
4693.00,0.40
4692.00,0.40
4691.00,0.41
4690.00,0.41
4689.00,0.41
4688.00,0.41
4687.00,0.41
4686.00,0.41
4685.00,0.41
4684.00,0.41
4683.00,0.41
4682.00,0.41
4681.00,0.41
4680.00,0.41
4679.00,0.41
4678.00,0.41
4677.00,0.41
4676.00,0.41
4675.00,0.41
4674.00,0.41
4673.00,0.41
4672.00,0.42
4671.00,0.42
4670.00,0.42
4669.00,0.42
4668.00,0.42
4667.00,0.42
4666.00,0.42
4665.00,0.42
4664.00,0.42
4663.00,0.42
4662.00,0.42
4661.00,0.42
4660.00,0.42
4659.00,0.43
4658.00,0.43
4657.00,0.43
4656.00,0.43
4655.00,0.43
4654.00,0.43
4653.00,0.43
4652.00,0.43
4651.00,0.43
4650.00,0.43
4649.00,0.43
4648.00,0.43
4647.00,0.43
4646.00,0.43
4645.00,0.43
4644.00,0.43
4643.00,0.44
4642.00,0.44
4641.00,0.44
4640.00,0.44
4639.00,0.44
4638.00,0.44
4637.00,0.44
4636.00,0.44
4635.00,0.44
4634.00,0.44
4633.00,0.44
4632.00,0.44
4631.00,0.44
4630.00,0.44
4629.00,0.44
4628.00,0.44
4627.00,0.44
4626.00,0.44
4625.00,0.44
4624.00,0.44
4623.00,0.44
4622.00,0.44
4621.00,0.44
4620.00,0.44
4619.00,0.44
4618.00,0.44
4617.00,0.44
4616.00,0.44
4615.00,0.44
4614.00,0.44
4613.00,0.44
4612.00,0.44
4611.00,0.44
4610.00,0.45
4609.00,0.45
4608.00,0.45
4607.00,0.45
4606.00,0.45
4605.00,0.45
4604.00,0.45
4603.00,0.45
4602.00,0.45
4601.00,0.45
4600.00,0.45
4599.00,0.45
4598.00,0.45
4597.00,0.45
4596.00,0.45
4595.00,0.45
4594.00,0.45
4593.00,0.45
4592.00,0.46
4591.00,0.46
4590.00,0.46
4589.00,0.46
4588.00,0.46
4587.00,0.46
4586.00,0.46
4585.00,0.46
4584.00,0.46
4583.00,0.46
4582.00,0.46
4581.00,0.46
4580.00,0.46
4579.00,0.46
4578.00,0.46
4577.00,0.46
4576.00,0.46
4575.00,0.46
4574.00,0.46
4573.00,0.46
4572.00,0.46
4571.00,0.46
4570.00,0.46
4569.00,0.46
4568.00,0.46
4567.00,0.46
4566.00,0.46
4565.00,0.46
4564.00,0.46
4563.00,0.47
4562.00,0.47
4561.00,0.47
4560.00,0.47
4559.00,0.47
4558.00,0.47
4557.00,0.47
4556.00,0.47
4555.00,0.47
4554.00,0.47
4553.00,0.47
4552.00,0.47
4551.00,0.47
4550.00,0.47
4549.00,0.47
4548.00,0.47
4547.00,0.47
4546.00,0.47
4545.00,0.47
4544.00,0.47
4543.00,0.47
4542.00,0.47
4541.00,0.47
4540.00,0.47
4539.00,0.47
4538.00,0.47
4537.00,0.47
4536.00,0.47
4535.00,0.47
4534.00,0.47
4533.00,0.47
4532.00,0.47
4531.00,0.47
4530.00,0.47
4529.00,0.47
4528.00,0.48
4527.00,0.48
4526.00,0.48
4525.00,0.48
4524.00,0.48
4523.00,0.48
4522.00,0.48
4521.00,0.48
4520.00,0.48
4519.00,0.48
4518.00,0.48
4517.00,0.48
4516.00,0.48
4515.00,0.48
4514.00,0.48
4513.00,0.48
4512.00,0.48
4511.00,0.48
4510.00,0.48
4509.00,0.48
4508.00,0.48
4507.00,0.48
4506.00,0.48
4505.00,0.48
4504.00,0.48
4503.00,0.47
4502.00,0.47
4501.00,0.47
4500.00,0.47
4499.00,0.47
4498.00,0.47
4497.00,0.47
4496.00,0.47
4495.00,0.47
4494.00,0.47
4493.00,0.47
4492.00,0.47
4491.00,0.47
4490.00,0.47
4489.00,0.47
4488.00,0.47
4487.00,0.47
4486.00,0.47
4485.00,0.47
4484.00,0.47
4483.00,0.47
4482.00,0.47
4481.00,0.47
4480.00,0.46
4479.00,0.46
4478.00,0.46
4477.00,0.46
4476.00,0.46
4475.00,0.46
4474.00,0.46
4473.00,0.46
4472.00,0.46
4471.00,0.46
4470.00,0.46
4469.00,0.45
4468.00,0.45
4467.00,0.45
4466.00,0.45
4465.00,0.45
4464.00,0.45
4463.00,0.45
4462.00,0.45
4461.00,0.45
4460.00,0.45
4459.00,0.44
4458.00,0.44
4457.00,0.44
4456.00,0.44
4455.00,0.44
4454.00,0.44
4453.00,0.44
4452.00,0.44
4451.00,0.43
4450.00,0.43
4449.00,0.43
4448.00,0.43
4447.00,0.43
4446.00,0.43
4445.00,0.42
4444.00,0.42
4443.00,0.42
4442.00,0.42
4441.00,0.42
4440.00,0.42
4439.00,0.42
4438.00,0.41
4437.00,0.41
4436.00,0.41
4435.00,0.41
4434.00,0.41
4433.00,0.41
4432.00,0.41
4431.00,0.40
4430.00,0.40
4429.00,0.40
4428.00,0.40
4427.00,0.40
4426.00,0.40
4425.00,0.40
4424.00,0.40
4423.00,0.40
4422.00,0.40
4421.00,0.39
4420.00,0.39
4419.00,0.39
4418.00,0.39
4417.00,0.39
4416.00,0.39
4415.00,0.39
4414.00,0.39
4413.00,0.39
4412.00,0.40
4411.00,0.40
4410.00,0.40
4409.00,0.40
4408.00,0.40
4407.00,0.40
4406.00,0.40
4405.00,0.40
4404.00,0.40
4403.00,0.40
4402.00,0.40
4401.00,0.40
4400.00,0.40
4399.00,0.40
4398.00,0.40
4397.00,0.40
4396.00,0.40
4395.00,0.40
4394.00,0.40
4393.00,0.41
4392.00,0.41
4391.00,0.41
4390.00,0.41
4389.00,0.41
4388.00,0.41
4387.00,0.41
4386.00,0.41
4385.00,0.41
4384.00,0.41
4383.00,0.41
4382.00,0.41
4381.00,0.41
4380.00,0.41
4379.00,0.41
4378.00,0.41
4377.00,0.41
4376.00,0.41
4375.00,0.41
4374.00,0.41
4373.00,0.41
4372.00,0.41
4371.00,0.41
4370.00,0.41
4369.00,0.41
4368.00,0.41
4367.00,0.42
4366.00,0.42
4365.00,0.42
4364.00,0.42
4363.00,0.42
4362.00,0.41
4361.00,0.41
4360.00,0.41
4359.00,0.41
4358.00,0.41
4357.00,0.41
4356.00,0.41
4355.00,0.41
4354.00,0.41
4353.00,0.41
4352.00,0.41
4351.00,0.41
4350.00,0.41
4349.00,0.41
4348.00,0.41
4347.00,0.41
4346.00,0.41
4345.00,0.41
4344.00,0.41
4343.00,0.41
4342.00,0.41
4341.00,0.41
4340.00,0.41
4339.00,0.41
4338.00,0.41
4337.00,0.41
4336.00,0.41
4335.00,0.41
4334.00,0.41
4333.00,0.41
4332.00,0.41
4331.00,0.41
4330.00,0.41
4329.00,0.42
4328.00,0.42
4327.00,0.42
4326.00,0.42
4325.00,0.42
4324.00,0.42
4323.00,0.42
4322.00,0.42
4321.00,0.42
4320.00,0.42
4319.00,0.42
4318.00,0.42
4317.00,0.42
4316.00,0.42
4315.00,0.42
4314.00,0.43
4313.00,0.43
4312.00,0.43
4311.00,0.43
4310.00,0.43
4309.00,0.43
4308.00,0.43
4307.00,0.43
4306.00,0.43
4305.00,0.43
4304.00,0.43
4303.00,0.43
4302.00,0.44
4301.00,0.44
4300.00,0.44
4299.00,0.44
4298.00,0.44
4297.00,0.44
4296.00,0.44
4295.00,0.44
4294.00,0.44
4293.00,0.44
4292.00,0.44
4291.00,0.44
4290.00,0.45
4289.00,0.45
4288.00,0.45
4287.00,0.45
4286.00,0.45
4285.00,0.45
4284.00,0.45
4283.00,0.45
4282.00,0.45
4281.00,0.45
4280.00,0.45
4279.00,0.45
4278.00,0.45
4277.00,0.45
4276.00,0.45
4275.00,0.45
4274.00,0.45
4273.00,0.45
4272.00,0.45
4271.00,0.45
4270.00,0.45
4269.00,0.45
4268.00,0.45
4267.00,0.45
4266.00,0.45
4265.00,0.45
4264.00,0.45
4263.00,0.45
4262.00,0.45
4261.00,0.45
4260.00,0.45
4259.00,0.45
4258.00,0.45
4257.00,0.45
4256.00,0.45
4255.00,0.45
4254.00,0.45
4253.00,0.45
4252.00,0.45
4251.00,0.45
4250.00,0.45
4249.00,0.45
4248.00,0.45
4247.00,0.45
4246.00,0.45
4245.00,0.45
4244.00,0.45
4243.00,0.45
4242.00,0.45
4241.00,0.45
4240.00,0.45
4239.00,0.45
4238.00,0.45
4237.00,0.45
4236.00,0.46
4235.00,0.46
4234.00,0.46
4233.00,0.46
4232.00,0.46
4231.00,0.46
4230.00,0.46
4229.00,0.46
4228.00,0.46
4227.00,0.46
4226.00,0.46
4225.00,0.46
4224.00,0.46
4223.00,0.46
4222.00,0.47
4221.00,0.47
4220.00,0.47
4219.00,0.47
4218.00,0.47
4217.00,0.47
4216.00,0.47
4215.00,0.47
4214.00,0.47
4213.00,0.47
4212.00,0.47
4211.00,0.47
4210.00,0.47
4209.00,0.47
4208.00,0.47
4207.00,0.47
4206.00,0.47
4205.00,0.47
4204.00,0.47
4203.00,0.47
4202.00,0.47
4201.00,0.47
4200.00,0.47
4199.00,0.47
4198.00,0.47
4197.00,0.47
4196.00,0.47
4195.00,0.47
4194.00,0.47
4193.00,0.47
4192.00,0.47
4191.00,0.47
4190.00,0.47
4189.00,0.47
4188.00,0.47
4187.00,0.47
4186.00,0.47
4185.00,0.47
4184.00,0.47
4183.00,0.47
4182.00,0.47
4181.00,0.47
4180.00,0.47
4179.00,0.47
4178.00,0.47
4177.00,0.47
4176.00,0.47
4175.00,0.47
4174.00,0.47
4173.00,0.47
4172.00,0.47
4171.00,0.47
4170.00,0.47
4169.00,0.47
4168.00,0.47
4167.00,0.47
4166.00,0.47
4165.00,0.47
4164.00,0.47
4163.00,0.47
4162.00,0.47
4161.00,0.47
4160.00,0.47
4159.00,0.47
4158.00,0.47
4157.00,0.47
4156.00,0.47
4155.00,0.47
4154.00,0.47
4153.00,0.47
4152.00,0.47
4151.00,0.47
4150.00,0.47
4149.00,0.47
4148.00,0.47
4147.00,0.47
4146.00,0.47
4145.00,0.48
4144.00,0.48
4143.00,0.48
4142.00,0.48
4141.00,0.48
4140.00,0.48
4139.00,0.48
4138.00,0.48
4137.00,0.48
4136.00,0.48
4135.00,0.48
4134.00,0.48
4133.00,0.48
4132.00,0.48
4131.00,0.48
4130.00,0.48
4129.00,0.48
4128.00,0.48
4127.00,0.48
4126.00,0.48
4125.00,0.48
4124.00,0.48
4123.00,0.48
4122.00,0.48
4121.00,0.48
4120.00,0.48
4119.00,0.48
4118.00,0.48
4117.00,0.48
4116.00,0.48
4115.00,0.48
4114.00,0.48
4113.00,0.48
4112.00,0.48
4111.00,0.48
4110.00,0.48
4109.00,0.48
4108.00,0.48
4107.00,0.48
4106.00,0.48
4105.00,0.48
4104.00,0.48
4103.00,0.48
4102.00,0.48
4101.00,0.48
4100.00,0.48
4099.00,0.48
4098.00,0.48
4097.00,0.48
4096.00,0.48
4095.00,0.48
4094.00,0.48
4093.00,0.48
4092.00,0.48
4091.00,0.48
4090.00,0.48
4089.00,0.49
4088.00,0.49
4087.00,0.49
4086.00,0.49
4085.00,0.49
4084.00,0.49
4083.00,0.49
4082.00,0.49
4081.00,0.49
4080.00,0.49
4079.00,0.49
4078.00,0.49
4077.00,0.49
4076.00,0.49
4075.00,0.49
4074.00,0.49
4073.00,0.49
4072.00,0.49
4071.00,0.49
4070.00,0.49
4069.00,0.49
4068.00,0.49
4067.00,0.49
4066.00,0.49
4065.00,0.49
4064.00,0.49
4063.00,0.50
4062.00,0.50
4061.00,0.50
4060.00,0.50
4059.00,0.50
4058.00,0.50
4057.00,0.50
4056.00,0.50
4055.00,0.50
4054.00,0.50
4053.00,0.50
4052.00,0.50
4051.00,0.50
4050.00,0.50
4049.00,0.50
4048.00,0.50
4047.00,0.50
4046.00,0.50
4045.00,0.50
4044.00,0.50
4043.00,0.50
4042.00,0.50
4041.00,0.50
4040.00,0.50
4039.00,0.50
4038.00,0.50
4037.00,0.50
4036.00,0.50
4035.00,0.50
4034.00,0.50
4033.00,0.50
4032.00,0.50
4031.00,0.50
4030.00,0.50
4029.00,0.50
4028.00,0.50
4027.00,0.50
4026.00,0.50
4025.00,0.50
4024.00,0.50
4023.00,0.50
4022.00,0.50
4021.00,0.50
4020.00,0.50
4019.00,0.50
4018.00,0.50
4017.00,0.51
4016.00,0.51
4015.00,0.51
4014.00,0.51
4013.00,0.51
4012.00,0.51
4011.00,0.51
4010.00,0.51
4009.00,0.51
4008.00,0.51
4007.00,0.51
4006.00,0.51
4005.00,0.51
4004.00,0.52
4003.00,0.52
4002.00,0.52
4001.00,0.52
4000.00,0.52
