创建为新数据集,样品 470 用户 Administrator 日期 星期日, 七月 15 2018
cm-1,%T
10000.00,0.49
9999.00,0.49
9998.00,0.48
9997.00,0.48
9996.00,0.47
9995.00,0.47
9994.00,0.46
9993.00,0.46
9992.00,0.45
9991.00,0.45
9990.00,0.44
9989.00,0.44
9988.00,0.44
9987.00,0.44
9986.00,0.44
9985.00,0.44
9984.00,0.45
9983.00,0.45
9982.00,0.45
9981.00,0.46
9980.00,0.46
9979.00,0.46
9978.00,0.47
9977.00,0.47
9976.00,0.47
9975.00,0.48
9974.00,0.48
9973.00,0.48
9972.00,0.48
9971.00,0.48
9970.00,0.48
9969.00,0.47
9968.00,0.47
9967.00,0.47
9966.00,0.47
9965.00,0.46
9964.00,0.46
9963.00,0.45
9962.00,0.45
9961.00,0.44
9960.00,0.44
9959.00,0.44
9958.00,0.43
9957.00,0.43
9956.00,0.43
9955.00,0.42
9954.00,0.42
9953.00,0.42
9952.00,0.42
9951.00,0.42
9950.00,0.42
9949.00,0.42
9948.00,0.43
9947.00,0.43
9946.00,0.43
9945.00,0.44
9944.00,0.44
9943.00,0.44
9942.00,0.45
9941.00,0.45
9940.00,0.45
9939.00,0.46
9938.00,0.46
9937.00,0.46
9936.00,0.46
9935.00,0.47
9934.00,0.47
9933.00,0.47
9932.00,0.47
9931.00,0.47
9930.00,0.47
9929.00,0.47
9928.00,0.47
9927.00,0.47
9926.00,0.47
9925.00,0.47
9924.00,0.47
9923.00,0.47
9922.00,0.47
9921.00,0.47
9920.00,0.47
9919.00,0.47
9918.00,0.47
9917.00,0.47
9916.00,0.47
9915.00,0.48
9914.00,0.48
9913.00,0.48
9912.00,0.48
9911.00,0.48
9910.00,0.48
9909.00,0.47
9908.00,0.47
9907.00,0.47
9906.00,0.47
9905.00,0.47
9904.00,0.47
9903.00,0.46
9902.00,0.46
9901.00,0.46
9900.00,0.45
9899.00,0.45
9898.00,0.45
9897.00,0.45
9896.00,0.45
9895.00,0.45
9894.00,0.45
9893.00,0.45
9892.00,0.45
9891.00,0.45
9890.00,0.45
9889.00,0.45
9888.00,0.46
9887.00,0.46
9886.00,0.46
9885.00,0.47
9884.00,0.47
9883.00,0.47
9882.00,0.47
9881.00,0.47
9880.00,0.47
9879.00,0.47
9878.00,0.47
9877.00,0.47
9876.00,0.47
9875.00,0.47
9874.00,0.47
9873.00,0.46
9872.00,0.46
9871.00,0.46
9870.00,0.46
9869.00,0.46
9868.00,0.46
9867.00,0.46
9866.00,0.46
9865.00,0.46
9864.00,0.46
9863.00,0.46
9862.00,0.46
9861.00,0.46
9860.00,0.46
9859.00,0.47
9858.00,0.47
9857.00,0.47
9856.00,0.47
9855.00,0.47
9854.00,0.48
9853.00,0.48
9852.00,0.48
9851.00,0.48
9850.00,0.48
9849.00,0.48
9848.00,0.48
9847.00,0.48
9846.00,0.48
9845.00,0.48
9844.00,0.48
9843.00,0.48
9842.00,0.48
9841.00,0.48
9840.00,0.48
9839.00,0.48
9838.00,0.47
9837.00,0.47
9836.00,0.47
9835.00,0.47
9834.00,0.47
9833.00,0.47
9832.00,0.47
9831.00,0.47
9830.00,0.46
9829.00,0.46
9828.00,0.46
9827.00,0.46
9826.00,0.46
9825.00,0.46
9824.00,0.46
9823.00,0.45
9822.00,0.45
9821.00,0.45
9820.00,0.45
9819.00,0.45
9818.00,0.45
9817.00,0.45
9816.00,0.45
9815.00,0.45
9814.00,0.45
9813.00,0.45
9812.00,0.45
9811.00,0.45
9810.00,0.45
9809.00,0.45
9808.00,0.44
9807.00,0.44
9806.00,0.44
9805.00,0.43
9804.00,0.43
9803.00,0.43
9802.00,0.42
9801.00,0.42
9800.00,0.42
9799.00,0.42
9798.00,0.41
9797.00,0.41
9796.00,0.41
9795.00,0.41
9794.00,0.41
9793.00,0.41
9792.00,0.41
9791.00,0.41
9790.00,0.41
9789.00,0.41
9788.00,0.42
9787.00,0.42
9786.00,0.42
9785.00,0.42
9784.00,0.43
9783.00,0.43
9782.00,0.43
9781.00,0.43
9780.00,0.43
9779.00,0.43
9778.00,0.43
9777.00,0.43
9776.00,0.43
9775.00,0.43
9774.00,0.43
9773.00,0.43
9772.00,0.43
9771.00,0.43
9770.00,0.43
9769.00,0.43
9768.00,0.43
9767.00,0.43
9766.00,0.43
9765.00,0.43
9764.00,0.43
9763.00,0.43
9762.00,0.43
9761.00,0.43
9760.00,0.43
9759.00,0.43
9758.00,0.43
9757.00,0.44
9756.00,0.44
9755.00,0.44
9754.00,0.44
9753.00,0.44
9752.00,0.44
9751.00,0.44
9750.00,0.45
9749.00,0.45
9748.00,0.45
9747.00,0.45
9746.00,0.46
9745.00,0.46
9744.00,0.46
9743.00,0.46
9742.00,0.46
9741.00,0.47
9740.00,0.47
9739.00,0.47
9738.00,0.47
9737.00,0.47
9736.00,0.46
9735.00,0.46
9734.00,0.46
9733.00,0.45
9732.00,0.45
9731.00,0.45
9730.00,0.44
9729.00,0.44
9728.00,0.43
9727.00,0.43
9726.00,0.43
9725.00,0.42
9724.00,0.42
9723.00,0.42
9722.00,0.42
9721.00,0.41
9720.00,0.41
9719.00,0.41
9718.00,0.41
9717.00,0.41
9716.00,0.41
9715.00,0.41
9714.00,0.41
9713.00,0.41
9712.00,0.41
9711.00,0.41
9710.00,0.42
9709.00,0.42
9708.00,0.42
9707.00,0.42
9706.00,0.42
9705.00,0.42
9704.00,0.42
9703.00,0.43
9702.00,0.43
9701.00,0.43
9700.00,0.44
9699.00,0.44
9698.00,0.45
9697.00,0.45
9696.00,0.45
9695.00,0.46
9694.00,0.46
9693.00,0.47
9692.00,0.47
9691.00,0.47
9690.00,0.48
9689.00,0.48
9688.00,0.48
9687.00,0.48
9686.00,0.48
9685.00,0.48
9684.00,0.47
9683.00,0.47
9682.00,0.47
9681.00,0.47
9680.00,0.46
9679.00,0.46
9678.00,0.45
9677.00,0.45
9676.00,0.44
9675.00,0.44
9674.00,0.43
9673.00,0.43
9672.00,0.42
9671.00,0.42
9670.00,0.41
9669.00,0.41
9668.00,0.40
9667.00,0.40
9666.00,0.39
9665.00,0.39
9664.00,0.39
9663.00,0.38
9662.00,0.38
9661.00,0.38
9660.00,0.38
9659.00,0.38
9658.00,0.38
9657.00,0.38
9656.00,0.38
9655.00,0.38
9654.00,0.38
9653.00,0.39
9652.00,0.39
9651.00,0.39
9650.00,0.40
9649.00,0.40
9648.00,0.41
9647.00,0.41
9646.00,0.42
9645.00,0.42
9644.00,0.43
9643.00,0.43
9642.00,0.44
9641.00,0.44
9640.00,0.44
9639.00,0.45
9638.00,0.45
9637.00,0.46
9636.00,0.46
9635.00,0.46
9634.00,0.46
9633.00,0.46
9632.00,0.46
9631.00,0.46
9630.00,0.46
9629.00,0.46
9628.00,0.46
9627.00,0.46
9626.00,0.46
9625.00,0.45
9624.00,0.45
9623.00,0.45
9622.00,0.45
9621.00,0.45
9620.00,0.45
9619.00,0.45
9618.00,0.45
9617.00,0.45
9616.00,0.45
9615.00,0.45
9614.00,0.46
9613.00,0.46
9612.00,0.46
9611.00,0.47
9610.00,0.47
9609.00,0.47
9608.00,0.47
9607.00,0.48
9606.00,0.48
9605.00,0.48
9604.00,0.48
9603.00,0.48
9602.00,0.48
9601.00,0.48
9600.00,0.48
9599.00,0.47
9598.00,0.47
9597.00,0.47
9596.00,0.47
9595.00,0.47
9594.00,0.47
9593.00,0.46
9592.00,0.46
9591.00,0.46
9590.00,0.46
9589.00,0.46
9588.00,0.45
9587.00,0.45
9586.00,0.45
9585.00,0.45
9584.00,0.45
9583.00,0.45
9582.00,0.45
9581.00,0.45
9580.00,0.45
9579.00,0.45
9578.00,0.45
9577.00,0.45
9576.00,0.45
9575.00,0.45
9574.00,0.45
9573.00,0.45
9572.00,0.45
9571.00,0.44
9570.00,0.44
9569.00,0.44
9568.00,0.44
9567.00,0.44
9566.00,0.44
9565.00,0.44
9564.00,0.44
9563.00,0.44
9562.00,0.44
9561.00,0.44
9560.00,0.44
9559.00,0.44
9558.00,0.44
9557.00,0.43
9556.00,0.43
9555.00,0.43
9554.00,0.43
9553.00,0.43
9552.00,0.43
9551.00,0.43
9550.00,0.43
9549.00,0.43
9548.00,0.43
9547.00,0.43
9546.00,0.43
9545.00,0.43
9544.00,0.43
9543.00,0.43
9542.00,0.43
9541.00,0.43
9540.00,0.44
9539.00,0.44
9538.00,0.44
9537.00,0.44
9536.00,0.44
9535.00,0.44
9534.00,0.45
9533.00,0.45
9532.00,0.45
9531.00,0.45
9530.00,0.45
9529.00,0.46
9528.00,0.46
9527.00,0.46
9526.00,0.46
9525.00,0.46
9524.00,0.46
9523.00,0.47
9522.00,0.47
9521.00,0.47
9520.00,0.47
9519.00,0.47
9518.00,0.47
9517.00,0.47
9516.00,0.47
9515.00,0.47
9514.00,0.47
9513.00,0.46
9512.00,0.46
9511.00,0.46
9510.00,0.46
9509.00,0.46
9508.00,0.46
9507.00,0.46
9506.00,0.45
9505.00,0.45
9504.00,0.45
9503.00,0.45
9502.00,0.45
9501.00,0.45
9500.00,0.45
9499.00,0.45
9498.00,0.45
9497.00,0.45
9496.00,0.45
9495.00,0.45
9494.00,0.45
9493.00,0.45
9492.00,0.45
9491.00,0.45
9490.00,0.45
9489.00,0.45
9488.00,0.45
9487.00,0.45
9486.00,0.45
9485.00,0.45
9484.00,0.46
9483.00,0.46
9482.00,0.46
9481.00,0.45
9480.00,0.45
9479.00,0.45
9478.00,0.45
9477.00,0.45
9476.00,0.45
9475.00,0.45
9474.00,0.44
9473.00,0.44
9472.00,0.44
9471.00,0.44
9470.00,0.44
9469.00,0.43
9468.00,0.43
9467.00,0.43
9466.00,0.43
9465.00,0.43
9464.00,0.43
9463.00,0.43
9462.00,0.43
9461.00,0.43
9460.00,0.43
9459.00,0.44
9458.00,0.44
9457.00,0.44
9456.00,0.44
9455.00,0.44
9454.00,0.45
9453.00,0.45
9452.00,0.45
9451.00,0.45
9450.00,0.45
9449.00,0.45
9448.00,0.45
9447.00,0.45
9446.00,0.46
9445.00,0.46
9444.00,0.46
9443.00,0.46
9442.00,0.46
9441.00,0.46
9440.00,0.46
9439.00,0.46
9438.00,0.46
9437.00,0.46
9436.00,0.46
9435.00,0.46
9434.00,0.46
9433.00,0.46
9432.00,0.46
9431.00,0.46
9430.00,0.46
9429.00,0.46
9428.00,0.47
9427.00,0.47
9426.00,0.47
9425.00,0.47
9424.00,0.47
9423.00,0.47
9422.00,0.47
9421.00,0.47
9420.00,0.47
9419.00,0.48
9418.00,0.48
9417.00,0.48
9416.00,0.48
9415.00,0.48
9414.00,0.48
9413.00,0.47
9412.00,0.47
9411.00,0.47
9410.00,0.47
9409.00,0.47
9408.00,0.47
9407.00,0.47
9406.00,0.47
9405.00,0.47
9404.00,0.47
9403.00,0.47
9402.00,0.47
9401.00,0.47
9400.00,0.47
9399.00,0.47
9398.00,0.47
9397.00,0.47
9396.00,0.47
9395.00,0.47
9394.00,0.46
9393.00,0.46
9392.00,0.46
9391.00,0.46
9390.00,0.46
9389.00,0.45
9388.00,0.45
9387.00,0.45
9386.00,0.45
9385.00,0.45
9384.00,0.44
9383.00,0.44
9382.00,0.44
9381.00,0.44
9380.00,0.44
9379.00,0.44
9378.00,0.45
9377.00,0.45
9376.00,0.45
9375.00,0.45
9374.00,0.45
9373.00,0.45
9372.00,0.46
9371.00,0.46
9370.00,0.46
9369.00,0.46
9368.00,0.46
9367.00,0.47
9366.00,0.47
9365.00,0.47
9364.00,0.47
9363.00,0.47
9362.00,0.47
9361.00,0.47
9360.00,0.47
9359.00,0.47
9358.00,0.47
9357.00,0.47
9356.00,0.47
9355.00,0.47
9354.00,0.47
9353.00,0.47
9352.00,0.47
9351.00,0.47
9350.00,0.47
9349.00,0.47
9348.00,0.46
9347.00,0.46
9346.00,0.46
9345.00,0.46
9344.00,0.46
9343.00,0.46
9342.00,0.46
9341.00,0.46
9340.00,0.46
9339.00,0.47
9338.00,0.47
9337.00,0.47
9336.00,0.47
9335.00,0.47
9334.00,0.47
9333.00,0.47
9332.00,0.47
9331.00,0.47
9330.00,0.47
9329.00,0.47
9328.00,0.47
9327.00,0.47
9326.00,0.47
9325.00,0.47
9324.00,0.47
9323.00,0.47
9322.00,0.47
9321.00,0.47
9320.00,0.47
9319.00,0.47
9318.00,0.46
9317.00,0.46
9316.00,0.46
9315.00,0.46
9314.00,0.46
9313.00,0.46
9312.00,0.46
9311.00,0.46
9310.00,0.46
9309.00,0.46
9308.00,0.46
9307.00,0.46
9306.00,0.46
9305.00,0.46
9304.00,0.47
9303.00,0.47
9302.00,0.47
9301.00,0.47
9300.00,0.47
9299.00,0.47
9298.00,0.47
9297.00,0.47
9296.00,0.47
9295.00,0.47
9294.00,0.47
9293.00,0.47
9292.00,0.47
9291.00,0.47
9290.00,0.47
9289.00,0.47
9288.00,0.47
9287.00,0.47
9286.00,0.47
9285.00,0.47
9284.00,0.47
9283.00,0.47
9282.00,0.47
9281.00,0.46
9280.00,0.46
9279.00,0.46
9278.00,0.46
9277.00,0.46
9276.00,0.46
9275.00,0.46
9274.00,0.46
9273.00,0.46
9272.00,0.46
9271.00,0.46
9270.00,0.46
9269.00,0.46
9268.00,0.47
9267.00,0.47
9266.00,0.47
9265.00,0.47
9264.00,0.47
9263.00,0.47
9262.00,0.47
9261.00,0.47
9260.00,0.47
9259.00,0.47
9258.00,0.46
9257.00,0.46
9256.00,0.46
9255.00,0.46
9254.00,0.46
9253.00,0.46
9252.00,0.45
9251.00,0.45
9250.00,0.45
9249.00,0.45
9248.00,0.45
9247.00,0.45
9246.00,0.45
9245.00,0.45
9244.00,0.45
9243.00,0.45
9242.00,0.45
9241.00,0.45
9240.00,0.46
9239.00,0.46
9238.00,0.46
9237.00,0.46
9236.00,0.46
9235.00,0.46
9234.00,0.46
9233.00,0.46
9232.00,0.46
9231.00,0.46
9230.00,0.46
9229.00,0.46
9228.00,0.46
9227.00,0.46
9226.00,0.46
9225.00,0.46
9224.00,0.46
9223.00,0.46
9222.00,0.46
9221.00,0.46
9220.00,0.46
9219.00,0.46
9218.00,0.46
9217.00,0.46
9216.00,0.46
9215.00,0.46
9214.00,0.46
9213.00,0.46
9212.00,0.46
9211.00,0.46
9210.00,0.46
9209.00,0.46
9208.00,0.46
9207.00,0.46
9206.00,0.46
9205.00,0.46
9204.00,0.46
9203.00,0.46
9202.00,0.46
9201.00,0.46
9200.00,0.46
9199.00,0.46
9198.00,0.46
9197.00,0.46
9196.00,0.46
9195.00,0.46
9194.00,0.46
9193.00,0.46
9192.00,0.46
9191.00,0.46
9190.00,0.46
9189.00,0.46
9188.00,0.46
9187.00,0.46
9186.00,0.46
9185.00,0.46
9184.00,0.46
9183.00,0.46
9182.00,0.46
9181.00,0.46
9180.00,0.45
9179.00,0.45
9178.00,0.45
9177.00,0.45
9176.00,0.45
9175.00,0.45
9174.00,0.45
9173.00,0.44
9172.00,0.44
9171.00,0.44
9170.00,0.44
9169.00,0.44
9168.00,0.44
9167.00,0.44
9166.00,0.44
9165.00,0.43
9164.00,0.43
9163.00,0.43
9162.00,0.43
9161.00,0.43
9160.00,0.43
9159.00,0.44
9158.00,0.44
9157.00,0.44
9156.00,0.44
9155.00,0.44
9154.00,0.44
9153.00,0.44
9152.00,0.44
9151.00,0.44
9150.00,0.44
9149.00,0.44
9148.00,0.45
9147.00,0.45
9146.00,0.45
9145.00,0.45
9144.00,0.46
9143.00,0.46
9142.00,0.46
9141.00,0.47
9140.00,0.47
9139.00,0.47
9138.00,0.47
9137.00,0.47
9136.00,0.48
9135.00,0.48
9134.00,0.48
9133.00,0.48
9132.00,0.48
9131.00,0.48
9130.00,0.48
9129.00,0.48
9128.00,0.48
9127.00,0.47
9126.00,0.47
9125.00,0.47
9124.00,0.47
9123.00,0.47
9122.00,0.47
9121.00,0.47
9120.00,0.47
9119.00,0.46
9118.00,0.46
9117.00,0.46
9116.00,0.46
9115.00,0.46
9114.00,0.46
9113.00,0.46
9112.00,0.46
9111.00,0.46
9110.00,0.45
9109.00,0.45
9108.00,0.45
9107.00,0.45
9106.00,0.45
9105.00,0.45
9104.00,0.45
9103.00,0.45
9102.00,0.45
9101.00,0.44
9100.00,0.44
9099.00,0.44
9098.00,0.44
9097.00,0.44
9096.00,0.44
9095.00,0.44
9094.00,0.44
9093.00,0.44
9092.00,0.44
9091.00,0.44
9090.00,0.45
9089.00,0.45
9088.00,0.45
9087.00,0.45
9086.00,0.45
9085.00,0.45
9084.00,0.45
9083.00,0.46
9082.00,0.46
9081.00,0.46
9080.00,0.46
9079.00,0.46
9078.00,0.46
9077.00,0.46
9076.00,0.46
9075.00,0.47
9074.00,0.47
9073.00,0.47
9072.00,0.47
9071.00,0.46
9070.00,0.46
9069.00,0.46
9068.00,0.46
9067.00,0.46
9066.00,0.46
9065.00,0.46
9064.00,0.46
9063.00,0.46
9062.00,0.46
9061.00,0.46
9060.00,0.46
9059.00,0.46
9058.00,0.46
9057.00,0.46
9056.00,0.46
9055.00,0.46
9054.00,0.46
9053.00,0.46
9052.00,0.46
9051.00,0.46
9050.00,0.46
9049.00,0.46
9048.00,0.46
9047.00,0.46
9046.00,0.46
9045.00,0.46
9044.00,0.46
9043.00,0.46
9042.00,0.46
9041.00,0.46
9040.00,0.46
9039.00,0.46
9038.00,0.46
9037.00,0.45
9036.00,0.45
9035.00,0.45
9034.00,0.45
9033.00,0.45
9032.00,0.45
9031.00,0.45
9030.00,0.45
9029.00,0.45
9028.00,0.45
9027.00,0.45
9026.00,0.45
9025.00,0.45
9024.00,0.45
9023.00,0.45
9022.00,0.45
9021.00,0.45
9020.00,0.45
9019.00,0.45
9018.00,0.45
9017.00,0.45
9016.00,0.45
9015.00,0.45
9014.00,0.45
9013.00,0.45
9012.00,0.45
9011.00,0.45
9010.00,0.44
9009.00,0.44
9008.00,0.44
9007.00,0.44
9006.00,0.44
9005.00,0.44
9004.00,0.44
9003.00,0.44
9002.00,0.44
9001.00,0.44
9000.00,0.44
8999.00,0.44
8998.00,0.44
8997.00,0.44
8996.00,0.44
8995.00,0.45
8994.00,0.45
8993.00,0.45
8992.00,0.45
8991.00,0.45
8990.00,0.46
8989.00,0.46
8988.00,0.46
8987.00,0.46
8986.00,0.47
8985.00,0.47
8984.00,0.47
8983.00,0.47
8982.00,0.47
8981.00,0.47
8980.00,0.47
8979.00,0.48
8978.00,0.48
8977.00,0.48
8976.00,0.48
8975.00,0.48
8974.00,0.48
8973.00,0.48
8972.00,0.48
8971.00,0.48
8970.00,0.48
8969.00,0.47
8968.00,0.47
8967.00,0.47
8966.00,0.47
8965.00,0.47
8964.00,0.47
8963.00,0.47
8962.00,0.47
8961.00,0.47
8960.00,0.47
8959.00,0.47
8958.00,0.47
8957.00,0.46
8956.00,0.46
8955.00,0.46
8954.00,0.46
8953.00,0.46
8952.00,0.46
8951.00,0.46
8950.00,0.46
8949.00,0.46
8948.00,0.46
8947.00,0.46
8946.00,0.46
8945.00,0.46
8944.00,0.46
8943.00,0.46
8942.00,0.46
8941.00,0.46
8940.00,0.46
8939.00,0.47
8938.00,0.47
8937.00,0.47
8936.00,0.47
8935.00,0.47
8934.00,0.47
8933.00,0.47
8932.00,0.47
8931.00,0.47
8930.00,0.47
8929.00,0.47
8928.00,0.47
8927.00,0.47
8926.00,0.47
8925.00,0.47
8924.00,0.47
8923.00,0.47
8922.00,0.47
8921.00,0.47
8920.00,0.47
8919.00,0.47
8918.00,0.47
8917.00,0.47
8916.00,0.47
8915.00,0.47
8914.00,0.47
8913.00,0.47
8912.00,0.47
8911.00,0.47
8910.00,0.47
8909.00,0.47
8908.00,0.47
8907.00,0.46
8906.00,0.46
8905.00,0.46
8904.00,0.46
8903.00,0.46
8902.00,0.45
8901.00,0.45
8900.00,0.45
8899.00,0.45
8898.00,0.45
8897.00,0.45
8896.00,0.45
8895.00,0.45
8894.00,0.44
8893.00,0.44
8892.00,0.44
8891.00,0.44
8890.00,0.44
8889.00,0.44
8888.00,0.44
8887.00,0.44
8886.00,0.45
8885.00,0.45
8884.00,0.45
8883.00,0.45
8882.00,0.45
8881.00,0.45
8880.00,0.45
8879.00,0.45
8878.00,0.45
8877.00,0.45
8876.00,0.45
8875.00,0.45
8874.00,0.45
8873.00,0.45
8872.00,0.45
8871.00,0.46
8870.00,0.46
8869.00,0.46
8868.00,0.46
8867.00,0.45
8866.00,0.45
8865.00,0.45
8864.00,0.45
8863.00,0.45
8862.00,0.45
8861.00,0.45
8860.00,0.45
8859.00,0.45
8858.00,0.45
8857.00,0.45
8856.00,0.46
8855.00,0.46
8854.00,0.46
8853.00,0.46
8852.00,0.46
8851.00,0.46
8850.00,0.46
8849.00,0.46
8848.00,0.46
8847.00,0.46
8846.00,0.46
8845.00,0.46
8844.00,0.46
8843.00,0.46
8842.00,0.46
8841.00,0.46
8840.00,0.46
8839.00,0.46
8838.00,0.46
8837.00,0.46
8836.00,0.46
8835.00,0.46
8834.00,0.46
8833.00,0.46
8832.00,0.47
8831.00,0.47
8830.00,0.47
8829.00,0.47
8828.00,0.47
8827.00,0.47
8826.00,0.47
8825.00,0.47
8824.00,0.47
8823.00,0.47
8822.00,0.46
8821.00,0.46
8820.00,0.46
8819.00,0.46
8818.00,0.46
8817.00,0.46
8816.00,0.45
8815.00,0.45
8814.00,0.45
8813.00,0.45
8812.00,0.45
8811.00,0.45
8810.00,0.45
8809.00,0.45
8808.00,0.45
8807.00,0.45
8806.00,0.46
8805.00,0.46
8804.00,0.46
8803.00,0.46
8802.00,0.46
8801.00,0.47
8800.00,0.47
8799.00,0.47
8798.00,0.47
8797.00,0.48
8796.00,0.48
8795.00,0.48
8794.00,0.48
8793.00,0.48
8792.00,0.48
8791.00,0.48
8790.00,0.48
8789.00,0.48
8788.00,0.48
8787.00,0.47
8786.00,0.47
8785.00,0.47
8784.00,0.47
8783.00,0.47
8782.00,0.47
8781.00,0.47
8780.00,0.47
8779.00,0.46
8778.00,0.46
8777.00,0.46
8776.00,0.46
8775.00,0.46
8774.00,0.46
8773.00,0.47
8772.00,0.47
8771.00,0.47
8770.00,0.47
8769.00,0.47
8768.00,0.47
8767.00,0.47
8766.00,0.46
8765.00,0.46
8764.00,0.46
8763.00,0.46
8762.00,0.46
8761.00,0.46
8760.00,0.45
8759.00,0.45
8758.00,0.45
8757.00,0.45
8756.00,0.45
8755.00,0.44
8754.00,0.44
8753.00,0.44
8752.00,0.44
8751.00,0.44
8750.00,0.44
8749.00,0.44
8748.00,0.44
8747.00,0.44
8746.00,0.44
8745.00,0.44
8744.00,0.44
8743.00,0.44
8742.00,0.44
8741.00,0.44
8740.00,0.44
8739.00,0.44
8738.00,0.44
8737.00,0.44
8736.00,0.44
8735.00,0.44
8734.00,0.44
8733.00,0.44
8732.00,0.44
8731.00,0.43
8730.00,0.43
8729.00,0.43
8728.00,0.43
8727.00,0.43
8726.00,0.43
8725.00,0.43
8724.00,0.42
8723.00,0.42
8722.00,0.42
8721.00,0.42
8720.00,0.42
8719.00,0.42
8718.00,0.42
8717.00,0.42
8716.00,0.43
8715.00,0.43
8714.00,0.43
8713.00,0.43
8712.00,0.43
8711.00,0.43
8710.00,0.44
8709.00,0.44
8708.00,0.44
8707.00,0.44
8706.00,0.44
8705.00,0.44
8704.00,0.44
8703.00,0.44
8702.00,0.44
8701.00,0.45
8700.00,0.45
8699.00,0.45
8698.00,0.45
8697.00,0.45
8696.00,0.45
8695.00,0.45
8694.00,0.45
8693.00,0.45
8692.00,0.45
8691.00,0.45
8690.00,0.45
8689.00,0.45
8688.00,0.45
8687.00,0.45
8686.00,0.45
8685.00,0.45
8684.00,0.45
8683.00,0.45
8682.00,0.45
8681.00,0.45
8680.00,0.45
8679.00,0.45
8678.00,0.45
8677.00,0.45
8676.00,0.45
8675.00,0.45
8674.00,0.45
8673.00,0.45
8672.00,0.45
8671.00,0.45
8670.00,0.45
8669.00,0.45
8668.00,0.45
8667.00,0.45
8666.00,0.45
8665.00,0.45
8664.00,0.45
8663.00,0.45
8662.00,0.45
8661.00,0.45
8660.00,0.45
8659.00,0.45
8658.00,0.44
8657.00,0.44
8656.00,0.44
8655.00,0.44
8654.00,0.44
8653.00,0.44
8652.00,0.44
8651.00,0.44
8650.00,0.44
8649.00,0.44
8648.00,0.44
8647.00,0.43
8646.00,0.43
8645.00,0.43
8644.00,0.43
8643.00,0.43
8642.00,0.43
8641.00,0.43
8640.00,0.42
8639.00,0.42
8638.00,0.42
8637.00,0.42
8636.00,0.42
8635.00,0.42
8634.00,0.42
8633.00,0.42
8632.00,0.43
8631.00,0.43
8630.00,0.43
8629.00,0.43
8628.00,0.43
8627.00,0.43
8626.00,0.43
8625.00,0.44
8624.00,0.44
8623.00,0.44
8622.00,0.44
8621.00,0.44
8620.00,0.44
8619.00,0.44
8618.00,0.44
8617.00,0.44
8616.00,0.44
8615.00,0.44
8614.00,0.44
8613.00,0.44
8612.00,0.44
8611.00,0.44
8610.00,0.44
8609.00,0.44
8608.00,0.44
8607.00,0.44
8606.00,0.44
8605.00,0.44
8604.00,0.44
8603.00,0.44
8602.00,0.44
8601.00,0.44
8600.00,0.44
8599.00,0.44
8598.00,0.44
8597.00,0.44
8596.00,0.44
8595.00,0.44
8594.00,0.44
8593.00,0.44
8592.00,0.44
8591.00,0.44
8590.00,0.44
8589.00,0.44
8588.00,0.44
8587.00,0.44
8586.00,0.44
8585.00,0.44
8584.00,0.43
8583.00,0.43
8582.00,0.43
8581.00,0.43
8580.00,0.43
8579.00,0.43
8578.00,0.42
8577.00,0.42
8576.00,0.42
8575.00,0.42
8574.00,0.42
8573.00,0.42
8572.00,0.42
8571.00,0.42
8570.00,0.42
8569.00,0.42
8568.00,0.42
8567.00,0.42
8566.00,0.42
8565.00,0.42
8564.00,0.42
8563.00,0.42
8562.00,0.43
8561.00,0.43
8560.00,0.43
8559.00,0.43
8558.00,0.43
8557.00,0.43
8556.00,0.43
8555.00,0.43
8554.00,0.43
8553.00,0.43
8552.00,0.43
8551.00,0.43
8550.00,0.43
8549.00,0.43
8548.00,0.43
8547.00,0.43
8546.00,0.43
8545.00,0.43
8544.00,0.43
8543.00,0.43
8542.00,0.43
8541.00,0.43
8540.00,0.43
8539.00,0.43
8538.00,0.43
8537.00,0.43
8536.00,0.43
8535.00,0.43
8534.00,0.43
8533.00,0.43
8532.00,0.43
8531.00,0.43
8530.00,0.43
8529.00,0.43
8528.00,0.43
8527.00,0.43
8526.00,0.43
8525.00,0.43
8524.00,0.43
8523.00,0.43
8522.00,0.43
8521.00,0.42
8520.00,0.42
8519.00,0.42
8518.00,0.42
8517.00,0.42
8516.00,0.43
8515.00,0.43
8514.00,0.43
8513.00,0.43
8512.00,0.43
8511.00,0.43
8510.00,0.43
8509.00,0.43
8508.00,0.43
8507.00,0.43
8506.00,0.43
8505.00,0.43
8504.00,0.43
8503.00,0.43
8502.00,0.43
8501.00,0.43
8500.00,0.43
8499.00,0.43
8498.00,0.43
8497.00,0.43
8496.00,0.43
8495.00,0.43
8494.00,0.43
8493.00,0.43
8492.00,0.43
8491.00,0.43
8490.00,0.43
8489.00,0.43
8488.00,0.43
8487.00,0.43
8486.00,0.43
8485.00,0.43
8484.00,0.43
8483.00,0.43
8482.00,0.43
8481.00,0.43
8480.00,0.43
8479.00,0.43
8478.00,0.43
8477.00,0.43
8476.00,0.43
8475.00,0.43
8474.00,0.43
8473.00,0.43
8472.00,0.43
8471.00,0.43
8470.00,0.43
8469.00,0.43
8468.00,0.42
8467.00,0.42
8466.00,0.42
8465.00,0.42
8464.00,0.42
8463.00,0.42
8462.00,0.42
8461.00,0.42
8460.00,0.42
8459.00,0.42
8458.00,0.42
8457.00,0.42
8456.00,0.42
8455.00,0.42
8454.00,0.42
8453.00,0.42
8452.00,0.42
8451.00,0.42
8450.00,0.42
8449.00,0.42
8448.00,0.42
8447.00,0.42
8446.00,0.42
8445.00,0.42
8444.00,0.42
8443.00,0.42
8442.00,0.42
8441.00,0.42
8440.00,0.42
8439.00,0.43
8438.00,0.43
8437.00,0.43
8436.00,0.43
8435.00,0.43
8434.00,0.43
8433.00,0.43
8432.00,0.43
8431.00,0.43
8430.00,0.43
8429.00,0.43
8428.00,0.43
8427.00,0.43
8426.00,0.43
8425.00,0.43
8424.00,0.42
8423.00,0.42
8422.00,0.42
8421.00,0.42
8420.00,0.42
8419.00,0.42
8418.00,0.42
8417.00,0.42
8416.00,0.42
8415.00,0.42
8414.00,0.41
8413.00,0.41
8412.00,0.41
8411.00,0.41
8410.00,0.41
8409.00,0.41
8408.00,0.41
8407.00,0.42
8406.00,0.42
8405.00,0.42
8404.00,0.42
8403.00,0.42
8402.00,0.42
8401.00,0.42
8400.00,0.42
8399.00,0.42
8398.00,0.42
8397.00,0.42
8396.00,0.42
8395.00,0.42
8394.00,0.42
8393.00,0.42
8392.00,0.42
8391.00,0.42
8390.00,0.42
8389.00,0.42
8388.00,0.42
8387.00,0.42
8386.00,0.42
8385.00,0.42
8384.00,0.42
8383.00,0.42
8382.00,0.42
8381.00,0.42
8380.00,0.42
8379.00,0.42
8378.00,0.42
8377.00,0.42
8376.00,0.42
8375.00,0.41
8374.00,0.41
8373.00,0.41
8372.00,0.41
8371.00,0.41
8370.00,0.41
8369.00,0.41
8368.00,0.41
8367.00,0.41
8366.00,0.41
8365.00,0.41
8364.00,0.41
8363.00,0.41
8362.00,0.41
8361.00,0.41
8360.00,0.41
8359.00,0.41
8358.00,0.41
8357.00,0.41
8356.00,0.41
8355.00,0.41
8354.00,0.41
8353.00,0.41
8352.00,0.41
8351.00,0.41
8350.00,0.41
8349.00,0.42
8348.00,0.42
8347.00,0.42
8346.00,0.42
8345.00,0.42
8344.00,0.42
8343.00,0.42
8342.00,0.43
8341.00,0.43
8340.00,0.43
8339.00,0.43
8338.00,0.43
8337.00,0.43
8336.00,0.43
8335.00,0.43
8334.00,0.43
8333.00,0.43
8332.00,0.43
8331.00,0.44
8330.00,0.44
8329.00,0.44
8328.00,0.44
8327.00,0.44
8326.00,0.44
8325.00,0.44
8324.00,0.44
8323.00,0.44
8322.00,0.44
8321.00,0.44
8320.00,0.44
8319.00,0.44
8318.00,0.44
8317.00,0.44
8316.00,0.44
8315.00,0.44
8314.00,0.44
8313.00,0.44
8312.00,0.44
8311.00,0.43
8310.00,0.43
8309.00,0.43
8308.00,0.43
8307.00,0.43
8306.00,0.43
8305.00,0.43
8304.00,0.43
8303.00,0.42
8302.00,0.42
8301.00,0.42
8300.00,0.42
8299.00,0.42
8298.00,0.42
8297.00,0.42
8296.00,0.42
8295.00,0.42
8294.00,0.42
8293.00,0.42
8292.00,0.42
8291.00,0.42
8290.00,0.42
8289.00,0.42
8288.00,0.42
8287.00,0.42
8286.00,0.42
8285.00,0.42
8284.00,0.43
8283.00,0.43
8282.00,0.43
8281.00,0.43
8280.00,0.43
8279.00,0.44
8278.00,0.44
8277.00,0.44
8276.00,0.44
8275.00,0.44
8274.00,0.44
8273.00,0.45
8272.00,0.45
8271.00,0.45
8270.00,0.45
8269.00,0.45
8268.00,0.45
8267.00,0.45
8266.00,0.45
8265.00,0.45
8264.00,0.45
8263.00,0.45
8262.00,0.44
8261.00,0.44
8260.00,0.44
8259.00,0.44
8258.00,0.44
8257.00,0.44
8256.00,0.44
8255.00,0.44
8254.00,0.44
8253.00,0.44
8252.00,0.44
8251.00,0.44
8250.00,0.44
8249.00,0.44
8248.00,0.44
8247.00,0.44
8246.00,0.45
8245.00,0.45
8244.00,0.45
8243.00,0.45
8242.00,0.45
8241.00,0.45
8240.00,0.45
8239.00,0.45
8238.00,0.45
8237.00,0.45
8236.00,0.44
8235.00,0.44
8234.00,0.44
8233.00,0.44
8232.00,0.44
8231.00,0.44
8230.00,0.44
8229.00,0.44
8228.00,0.44
8227.00,0.44
8226.00,0.43
8225.00,0.43
8224.00,0.43
8223.00,0.43
8222.00,0.43
8221.00,0.43
8220.00,0.43
8219.00,0.43
8218.00,0.43
8217.00,0.43
8216.00,0.43
8215.00,0.43
8214.00,0.43
8213.00,0.43
8212.00,0.43
8211.00,0.43
8210.00,0.43
8209.00,0.43
8208.00,0.44
8207.00,0.44
8206.00,0.44
8205.00,0.44
8204.00,0.44
8203.00,0.44
8202.00,0.44
8201.00,0.44
8200.00,0.44
8199.00,0.44
8198.00,0.44
8197.00,0.44
8196.00,0.44
8195.00,0.44
8194.00,0.44
8193.00,0.44
8192.00,0.44
8191.00,0.45
8190.00,0.45
8189.00,0.45
8188.00,0.45
8187.00,0.45
8186.00,0.45
8185.00,0.45
8184.00,0.46
8183.00,0.46
8182.00,0.46
8181.00,0.46
8180.00,0.46
8179.00,0.46
8178.00,0.46
8177.00,0.46
8176.00,0.46
8175.00,0.46
8174.00,0.46
8173.00,0.46
8172.00,0.45
8171.00,0.45
8170.00,0.45
8169.00,0.45
8168.00,0.45
8167.00,0.44
8166.00,0.44
8165.00,0.44
8164.00,0.44
8163.00,0.44
8162.00,0.44
8161.00,0.44
8160.00,0.44
8159.00,0.44
8158.00,0.44
8157.00,0.44
8156.00,0.44
8155.00,0.44
8154.00,0.44
8153.00,0.44
8152.00,0.44
8151.00,0.44
8150.00,0.44
8149.00,0.45
8148.00,0.45
8147.00,0.45
8146.00,0.45
8145.00,0.45
8144.00,0.46
8143.00,0.46
8142.00,0.46
8141.00,0.46
8140.00,0.46
8139.00,0.46
8138.00,0.47
8137.00,0.47
8136.00,0.47
8135.00,0.47
8134.00,0.47
8133.00,0.47
8132.00,0.47
8131.00,0.47
8130.00,0.47
8129.00,0.47
8128.00,0.47
8127.00,0.47
8126.00,0.47
8125.00,0.47
8124.00,0.46
8123.00,0.46
8122.00,0.46
8121.00,0.46
8120.00,0.46
8119.00,0.46
8118.00,0.46
8117.00,0.46
8116.00,0.46
8115.00,0.46
8114.00,0.46
8113.00,0.46
8112.00,0.46
8111.00,0.46
8110.00,0.46
8109.00,0.46
8108.00,0.46
8107.00,0.46
8106.00,0.46
8105.00,0.46
8104.00,0.46
8103.00,0.46
8102.00,0.45
8101.00,0.45
8100.00,0.45
8099.00,0.45
8098.00,0.45
8097.00,0.45
8096.00,0.45
8095.00,0.45
8094.00,0.45
8093.00,0.45
8092.00,0.45
8091.00,0.45
8090.00,0.45
8089.00,0.45
8088.00,0.45
8087.00,0.45
8086.00,0.45
8085.00,0.45
8084.00,0.45
8083.00,0.45
8082.00,0.45
8081.00,0.45
8080.00,0.45
8079.00,0.46
8078.00,0.46
8077.00,0.46
8076.00,0.46
8075.00,0.46
8074.00,0.46
8073.00,0.46
8072.00,0.46
8071.00,0.46
8070.00,0.46
8069.00,0.46
8068.00,0.46
8067.00,0.46
8066.00,0.46
8065.00,0.46
8064.00,0.46
8063.00,0.46
8062.00,0.46
8061.00,0.46
8060.00,0.46
8059.00,0.46
8058.00,0.47
8057.00,0.47
8056.00,0.47
8055.00,0.47
8054.00,0.47
8053.00,0.47
8052.00,0.47
8051.00,0.47
8050.00,0.47
8049.00,0.47
8048.00,0.47
8047.00,0.47
8046.00,0.47
8045.00,0.47
8044.00,0.47
8043.00,0.47
8042.00,0.46
8041.00,0.46
8040.00,0.46
8039.00,0.46
8038.00,0.46
8037.00,0.46
8036.00,0.46
8035.00,0.46
8034.00,0.46
8033.00,0.46
8032.00,0.46
8031.00,0.46
8030.00,0.46
8029.00,0.46
8028.00,0.46
8027.00,0.46
8026.00,0.46
8025.00,0.46
8024.00,0.46
8023.00,0.46
8022.00,0.46
8021.00,0.46
8020.00,0.46
8019.00,0.46
8018.00,0.46
8017.00,0.47
8016.00,0.47
8015.00,0.47
8014.00,0.47
8013.00,0.47
8012.00,0.46
8011.00,0.46
8010.00,0.46
8009.00,0.46
8008.00,0.46
8007.00,0.46
8006.00,0.46
8005.00,0.46
8004.00,0.46
8003.00,0.46
8002.00,0.46
8001.00,0.46
8000.00,0.47
7999.00,0.47
7998.00,0.47
7997.00,0.47
7996.00,0.47
7995.00,0.47
7994.00,0.47
7993.00,0.47
7992.00,0.47
7991.00,0.47
7990.00,0.47
7989.00,0.47
7988.00,0.47
7987.00,0.47
7986.00,0.47
7985.00,0.47
7984.00,0.47
7983.00,0.47
7982.00,0.47
7981.00,0.47
7980.00,0.47
7979.00,0.47
7978.00,0.47
7977.00,0.46
7976.00,0.46
7975.00,0.46
7974.00,0.46
7973.00,0.46
7972.00,0.46
7971.00,0.46
7970.00,0.46
7969.00,0.46
7968.00,0.46
7967.00,0.46
7966.00,0.46
7965.00,0.46
7964.00,0.46
7963.00,0.46
7962.00,0.46
7961.00,0.46
7960.00,0.46
7959.00,0.46
7958.00,0.46
7957.00,0.46
7956.00,0.46
7955.00,0.46
7954.00,0.46
7953.00,0.46
7952.00,0.46
7951.00,0.47
7950.00,0.47
7949.00,0.47
7948.00,0.47
7947.00,0.47
7946.00,0.47
7945.00,0.47
7944.00,0.47
7943.00,0.47
7942.00,0.47
7941.00,0.47
7940.00,0.47
7939.00,0.47
7938.00,0.47
7937.00,0.47
7936.00,0.47
7935.00,0.47
7934.00,0.47
7933.00,0.47
7932.00,0.47
7931.00,0.47
7930.00,0.47
7929.00,0.47
7928.00,0.47
7927.00,0.47
7926.00,0.47
7925.00,0.47
7924.00,0.47
7923.00,0.47
7922.00,0.47
7921.00,0.47
7920.00,0.47
7919.00,0.47
7918.00,0.47
7917.00,0.47
7916.00,0.47
7915.00,0.47
7914.00,0.47
7913.00,0.47
7912.00,0.47
7911.00,0.47
7910.00,0.47
7909.00,0.46
7908.00,0.46
7907.00,0.46
7906.00,0.46
7905.00,0.46
7904.00,0.46
7903.00,0.46
7902.00,0.46
7901.00,0.46
7900.00,0.46
7899.00,0.46
7898.00,0.46
7897.00,0.46
7896.00,0.46
7895.00,0.46
7894.00,0.46
7893.00,0.46
7892.00,0.46
7891.00,0.46
7890.00,0.46
7889.00,0.47
7888.00,0.47
7887.00,0.47
7886.00,0.47
7885.00,0.47
7884.00,0.47
7883.00,0.47
7882.00,0.47
7881.00,0.47
7880.00,0.47
7879.00,0.47
7878.00,0.47
7877.00,0.47
7876.00,0.47
7875.00,0.47
7874.00,0.47
7873.00,0.47
7872.00,0.47
7871.00,0.47
7870.00,0.47
7869.00,0.47
7868.00,0.47
7867.00,0.47
7866.00,0.47
7865.00,0.47
7864.00,0.47
7863.00,0.47
7862.00,0.47
7861.00,0.47
7860.00,0.47
7859.00,0.47
7858.00,0.47
7857.00,0.47
7856.00,0.47
7855.00,0.47
7854.00,0.47
7853.00,0.47
7852.00,0.47
7851.00,0.47
7850.00,0.47
7849.00,0.47
7848.00,0.47
7847.00,0.47
7846.00,0.47
7845.00,0.47
7844.00,0.47
7843.00,0.47
7842.00,0.46
7841.00,0.46
7840.00,0.46
7839.00,0.46
7838.00,0.46
7837.00,0.46
7836.00,0.46
7835.00,0.46
7834.00,0.46
7833.00,0.46
7832.00,0.46
7831.00,0.46
7830.00,0.46
7829.00,0.46
7828.00,0.46
7827.00,0.46
7826.00,0.47
7825.00,0.47
7824.00,0.47
7823.00,0.47
7822.00,0.47
7821.00,0.47
7820.00,0.47
7819.00,0.47
7818.00,0.47
7817.00,0.47
7816.00,0.47
7815.00,0.47
7814.00,0.47
7813.00,0.47
7812.00,0.47
7811.00,0.47
7810.00,0.47
7809.00,0.47
7808.00,0.47
7807.00,0.47
7806.00,0.47
7805.00,0.47
7804.00,0.47
7803.00,0.47
7802.00,0.47
7801.00,0.47
7800.00,0.47
7799.00,0.47
7798.00,0.47
7797.00,0.47
7796.00,0.47
7795.00,0.47
7794.00,0.47
7793.00,0.47
7792.00,0.47
7791.00,0.47
7790.00,0.47
7789.00,0.47
7788.00,0.47
7787.00,0.47
7786.00,0.47
7785.00,0.47
7784.00,0.47
7783.00,0.47
7782.00,0.47
7781.00,0.47
7780.00,0.47
7779.00,0.47
7778.00,0.47
7777.00,0.47
7776.00,0.47
7775.00,0.47
7774.00,0.47
7773.00,0.47
7772.00,0.47
7771.00,0.48
7770.00,0.48
7769.00,0.48
7768.00,0.48
7767.00,0.48
7766.00,0.48
7765.00,0.48
7764.00,0.48
7763.00,0.48
7762.00,0.48
7761.00,0.48
7760.00,0.48
7759.00,0.48
7758.00,0.48
7757.00,0.48
7756.00,0.48
7755.00,0.48
7754.00,0.48
7753.00,0.48
7752.00,0.48
7751.00,0.48
7750.00,0.48
7749.00,0.48
7748.00,0.48
7747.00,0.48
7746.00,0.48
7745.00,0.48
7744.00,0.48
7743.00,0.48
7742.00,0.48
7741.00,0.47
7740.00,0.47
7739.00,0.47
7738.00,0.47
7737.00,0.47
7736.00,0.47
7735.00,0.47
7734.00,0.47
7733.00,0.47
7732.00,0.47
7731.00,0.47
7730.00,0.47
7729.00,0.47
7728.00,0.47
7727.00,0.47
7726.00,0.47
7725.00,0.47
7724.00,0.47
7723.00,0.47
7722.00,0.47
7721.00,0.47
7720.00,0.47
7719.00,0.47
7718.00,0.47
7717.00,0.47
7716.00,0.47
7715.00,0.47
7714.00,0.47
7713.00,0.47
7712.00,0.47
7711.00,0.47
7710.00,0.47
7709.00,0.47
7708.00,0.47
7707.00,0.47
7706.00,0.47
7705.00,0.47
7704.00,0.47
7703.00,0.47
7702.00,0.47
7701.00,0.47
7700.00,0.47
7699.00,0.47
7698.00,0.47
7697.00,0.47
7696.00,0.47
7695.00,0.47
7694.00,0.47
7693.00,0.47
7692.00,0.47
7691.00,0.47
7690.00,0.47
7689.00,0.47
7688.00,0.47
7687.00,0.47
7686.00,0.47
7685.00,0.47
7684.00,0.47
7683.00,0.47
7682.00,0.47
7681.00,0.47
7680.00,0.47
7679.00,0.47
7678.00,0.47
7677.00,0.47
7676.00,0.47
7675.00,0.47
7674.00,0.47
7673.00,0.47
7672.00,0.47
7671.00,0.47
7670.00,0.47
7669.00,0.47
7668.00,0.47
7667.00,0.47
7666.00,0.47
7665.00,0.47
7664.00,0.47
7663.00,0.47
7662.00,0.47
7661.00,0.47
7660.00,0.47
7659.00,0.47
7658.00,0.47
7657.00,0.47
7656.00,0.47
7655.00,0.48
7654.00,0.48
7653.00,0.48
7652.00,0.48
7651.00,0.48
7650.00,0.48
7649.00,0.48
7648.00,0.48
7647.00,0.48
7646.00,0.48
7645.00,0.48
7644.00,0.48
7643.00,0.48
7642.00,0.48
7641.00,0.48
7640.00,0.48
7639.00,0.48
7638.00,0.48
7637.00,0.48
7636.00,0.48
7635.00,0.48
7634.00,0.48
7633.00,0.48
7632.00,0.48
7631.00,0.48
7630.00,0.48
7629.00,0.48
7628.00,0.48
7627.00,0.48
7626.00,0.48
7625.00,0.48
7624.00,0.48
7623.00,0.48
7622.00,0.48
7621.00,0.48
7620.00,0.48
7619.00,0.48
7618.00,0.48
7617.00,0.48
7616.00,0.48
7615.00,0.48
7614.00,0.48
7613.00,0.48
7612.00,0.48
7611.00,0.48
7610.00,0.48
7609.00,0.48
7608.00,0.48
7607.00,0.48
7606.00,0.48
7605.00,0.48
7604.00,0.48
7603.00,0.48
7602.00,0.48
7601.00,0.48
7600.00,0.48
7599.00,0.48
7598.00,0.48
7597.00,0.48
7596.00,0.48
7595.00,0.48
7594.00,0.48
7593.00,0.48
7592.00,0.48
7591.00,0.48
7590.00,0.48
7589.00,0.48
7588.00,0.47
7587.00,0.47
7586.00,0.47
7585.00,0.47
7584.00,0.47
7583.00,0.47
7582.00,0.47
7581.00,0.47
7580.00,0.47
7579.00,0.47
7578.00,0.47
7577.00,0.47
7576.00,0.47
7575.00,0.47
7574.00,0.47
7573.00,0.47
7572.00,0.47
7571.00,0.47
7570.00,0.47
7569.00,0.47
7568.00,0.47
7567.00,0.47
7566.00,0.47
7565.00,0.47
7564.00,0.47
7563.00,0.47
7562.00,0.47
7561.00,0.47
7560.00,0.47
7559.00,0.47
7558.00,0.47
7557.00,0.47
7556.00,0.47
7555.00,0.47
7554.00,0.47
7553.00,0.47
7552.00,0.47
7551.00,0.47
7550.00,0.47
7549.00,0.47
7548.00,0.47
7547.00,0.47
7546.00,0.47
7545.00,0.47
7544.00,0.47
7543.00,0.47
7542.00,0.47
7541.00,0.47
7540.00,0.47
7539.00,0.47
7538.00,0.47
7537.00,0.47
7536.00,0.47
7535.00,0.47
7534.00,0.47
7533.00,0.47
7532.00,0.47
7531.00,0.47
7530.00,0.47
7529.00,0.47
7528.00,0.47
7527.00,0.47
7526.00,0.47
7525.00,0.47
7524.00,0.47
7523.00,0.47
7522.00,0.47
7521.00,0.47
7520.00,0.47
7519.00,0.47
7518.00,0.47
7517.00,0.47
7516.00,0.47
7515.00,0.47
7514.00,0.47
7513.00,0.47
7512.00,0.47
7511.00,0.47
7510.00,0.47
7509.00,0.47
7508.00,0.47
7507.00,0.47
7506.00,0.47
7505.00,0.47
7504.00,0.47
7503.00,0.47
7502.00,0.47
7501.00,0.47
7500.00,0.47
7499.00,0.47
7498.00,0.47
7497.00,0.47
7496.00,0.47
7495.00,0.47
7494.00,0.47
7493.00,0.47
7492.00,0.47
7491.00,0.47
7490.00,0.47
7489.00,0.47
7488.00,0.47
7487.00,0.47
7486.00,0.47
7485.00,0.47
7484.00,0.47
7483.00,0.47
7482.00,0.47
7481.00,0.47
7480.00,0.47
7479.00,0.47
7478.00,0.47
7477.00,0.47
7476.00,0.47
7475.00,0.47
7474.00,0.46
7473.00,0.46
7472.00,0.46
7471.00,0.46
7470.00,0.46
7469.00,0.46
7468.00,0.46
7467.00,0.46
7466.00,0.46
7465.00,0.46
7464.00,0.46
7463.00,0.46
7462.00,0.46
7461.00,0.46
7460.00,0.46
7459.00,0.46
7458.00,0.46
7457.00,0.46
7456.00,0.46
7455.00,0.46
7454.00,0.46
7453.00,0.46
7452.00,0.46
7451.00,0.46
7450.00,0.46
7449.00,0.46
7448.00,0.46
7447.00,0.46
7446.00,0.46
7445.00,0.46
7444.00,0.46
7443.00,0.46
7442.00,0.46
7441.00,0.46
7440.00,0.45
7439.00,0.45
7438.00,0.45
7437.00,0.45
7436.00,0.45
7435.00,0.45
7434.00,0.45
7433.00,0.45
7432.00,0.45
7431.00,0.45
7430.00,0.45
7429.00,0.45
7428.00,0.45
7427.00,0.45
7426.00,0.45
7425.00,0.45
7424.00,0.45
7423.00,0.45
7422.00,0.45
7421.00,0.45
7420.00,0.45
7419.00,0.45
7418.00,0.45
7417.00,0.45
7416.00,0.45
7415.00,0.45
7414.00,0.45
7413.00,0.45
7412.00,0.45
7411.00,0.45
7410.00,0.45
7409.00,0.45
7408.00,0.45
7407.00,0.45
7406.00,0.45
7405.00,0.45
7404.00,0.45
7403.00,0.45
7402.00,0.45
7401.00,0.44
7400.00,0.44
7399.00,0.44
7398.00,0.44
7397.00,0.44
7396.00,0.44
7395.00,0.44
7394.00,0.44
7393.00,0.44
7392.00,0.44
7391.00,0.44
7390.00,0.44
7389.00,0.44
7388.00,0.44
7387.00,0.44
7386.00,0.44
7385.00,0.44
7384.00,0.44
7383.00,0.45
7382.00,0.45
7381.00,0.45
7380.00,0.45
7379.00,0.45
7378.00,0.45
7377.00,0.45
7376.00,0.45
7375.00,0.45
7374.00,0.45
7373.00,0.45
7372.00,0.45
7371.00,0.45
7370.00,0.45
7369.00,0.45
7368.00,0.44
7367.00,0.44
7366.00,0.44
7365.00,0.44
7364.00,0.44
7363.00,0.44
7362.00,0.44
7361.00,0.44
7360.00,0.44
7359.00,0.44
7358.00,0.44
7357.00,0.44
7356.00,0.44
7355.00,0.44
7354.00,0.44
7353.00,0.44
7352.00,0.44
7351.00,0.44
7350.00,0.44
7349.00,0.44
7348.00,0.44
7347.00,0.44
7346.00,0.44
7345.00,0.44
7344.00,0.44
7343.00,0.44
7342.00,0.44
7341.00,0.44
7340.00,0.44
7339.00,0.44
7338.00,0.44
7337.00,0.44
7336.00,0.44
7335.00,0.44
7334.00,0.44
7333.00,0.44
7332.00,0.44
7331.00,0.44
7330.00,0.44
7329.00,0.43
7328.00,0.43
7327.00,0.43
7326.00,0.43
7325.00,0.43
7324.00,0.43
7323.00,0.43
7322.00,0.43
7321.00,0.43
7320.00,0.43
7319.00,0.43
7318.00,0.43
7317.00,0.43
7316.00,0.43
7315.00,0.43
7314.00,0.43
7313.00,0.43
7312.00,0.43
7311.00,0.43
7310.00,0.43
7309.00,0.43
7308.00,0.43
7307.00,0.43
7306.00,0.43
7305.00,0.43
7304.00,0.43
7303.00,0.43
7302.00,0.43
7301.00,0.43
7300.00,0.43
7299.00,0.43
7298.00,0.43
7297.00,0.43
7296.00,0.43
7295.00,0.43
7294.00,0.43
7293.00,0.43
7292.00,0.43
7291.00,0.43
7290.00,0.43
7289.00,0.42
7288.00,0.42
7287.00,0.42
7286.00,0.42
7285.00,0.42
7284.00,0.42
7283.00,0.42
7282.00,0.42
7281.00,0.42
7280.00,0.42
7279.00,0.42
7278.00,0.42
7277.00,0.42
7276.00,0.42
7275.00,0.42
7274.00,0.42
7273.00,0.42
7272.00,0.42
7271.00,0.42
7270.00,0.42
7269.00,0.42
7268.00,0.42
7267.00,0.42
7266.00,0.42
7265.00,0.42
7264.00,0.42
7263.00,0.42
7262.00,0.42
7261.00,0.41
7260.00,0.41
7259.00,0.41
7258.00,0.41
7257.00,0.41
7256.00,0.41
7255.00,0.41
7254.00,0.41
7253.00,0.41
7252.00,0.41
7251.00,0.41
7250.00,0.41
7249.00,0.41
7248.00,0.41
7247.00,0.41
7246.00,0.41
7245.00,0.40
7244.00,0.40
7243.00,0.40
7242.00,0.40
7241.00,0.40
7240.00,0.40
7239.00,0.40
7238.00,0.40
7237.00,0.40
7236.00,0.40
7235.00,0.39
7234.00,0.39
7233.00,0.39
7232.00,0.39
7231.00,0.39
7230.00,0.39
7229.00,0.39
7228.00,0.39
7227.00,0.39
7226.00,0.39
7225.00,0.39
7224.00,0.39
7223.00,0.39
7222.00,0.38
7221.00,0.38
7220.00,0.38
7219.00,0.38
7218.00,0.38
7217.00,0.38
7216.00,0.38
7215.00,0.38
7214.00,0.37
7213.00,0.37
7212.00,0.37
7211.00,0.37
7210.00,0.37
7209.00,0.37
7208.00,0.37
7207.00,0.37
7206.00,0.36
7205.00,0.36
7204.00,0.36
7203.00,0.36
7202.00,0.36
7201.00,0.36
7200.00,0.36
7199.00,0.36
7198.00,0.36
7197.00,0.35
7196.00,0.35
7195.00,0.35
7194.00,0.35
7193.00,0.35
7192.00,0.35
7191.00,0.35
7190.00,0.35
7189.00,0.35
7188.00,0.35
7187.00,0.34
7186.00,0.34
7185.00,0.34
7184.00,0.34
7183.00,0.34
7182.00,0.34
7181.00,0.34
7180.00,0.34
7179.00,0.34
7178.00,0.34
7177.00,0.33
7176.00,0.33
7175.00,0.33
7174.00,0.33
7173.00,0.33
7172.00,0.33
7171.00,0.33
7170.00,0.33
7169.00,0.33
7168.00,0.32
7167.00,0.32
7166.00,0.32
7165.00,0.32
7164.00,0.32
7163.00,0.32
7162.00,0.32
7161.00,0.32
7160.00,0.32
7159.00,0.32
7158.00,0.32
7157.00,0.32
7156.00,0.31
7155.00,0.31
7154.00,0.31
7153.00,0.31
7152.00,0.31
7151.00,0.31
7150.00,0.31
7149.00,0.31
7148.00,0.31
7147.00,0.31
7146.00,0.31
7145.00,0.31
7144.00,0.31
7143.00,0.31
7142.00,0.31
7141.00,0.31
7140.00,0.30
7139.00,0.30
7138.00,0.30
7137.00,0.30
7136.00,0.30
7135.00,0.30
7134.00,0.30
7133.00,0.29
7132.00,0.29
7131.00,0.29
7130.00,0.29
7129.00,0.29
7128.00,0.29
7127.00,0.29
7126.00,0.29
7125.00,0.28
7124.00,0.28
7123.00,0.28
7122.00,0.28
7121.00,0.28
7120.00,0.28
7119.00,0.28
7118.00,0.28
7117.00,0.28
7116.00,0.27
7115.00,0.27
7114.00,0.27
7113.00,0.27
7112.00,0.27
7111.00,0.27
7110.00,0.27
7109.00,0.27
7108.00,0.27
7107.00,0.27
7106.00,0.27
7105.00,0.27
7104.00,0.27
7103.00,0.27
7102.00,0.27
7101.00,0.27
7100.00,0.27
7099.00,0.27
7098.00,0.27
7097.00,0.27
7096.00,0.27
7095.00,0.27
7094.00,0.27
7093.00,0.27
7092.00,0.27
7091.00,0.27
7090.00,0.26
7089.00,0.26
7088.00,0.26
7087.00,0.26
7086.00,0.26
7085.00,0.26
7084.00,0.26
7083.00,0.26
7082.00,0.26
7081.00,0.26
7080.00,0.26
7079.00,0.26
7078.00,0.25
7077.00,0.25
7076.00,0.25
7075.00,0.25
7074.00,0.25
7073.00,0.25
7072.00,0.25
7071.00,0.25
7070.00,0.25
7069.00,0.24
7068.00,0.24
7067.00,0.24
7066.00,0.24
7065.00,0.24
7064.00,0.24
7063.00,0.24
7062.00,0.24
7061.00,0.24
7060.00,0.24
7059.00,0.24
7058.00,0.24
7057.00,0.24
7056.00,0.24
7055.00,0.24
7054.00,0.24
7053.00,0.24
7052.00,0.24
7051.00,0.24
7050.00,0.24
7049.00,0.24
7048.00,0.24
7047.00,0.24
7046.00,0.23
7045.00,0.23
7044.00,0.23
7043.00,0.23
7042.00,0.23
7041.00,0.23
7040.00,0.23
7039.00,0.23
7038.00,0.23
7037.00,0.23
7036.00,0.23
7035.00,0.23
7034.00,0.23
7033.00,0.23
7032.00,0.23
7031.00,0.23
7030.00,0.23
7029.00,0.23
7028.00,0.23
7027.00,0.23
7026.00,0.23
7025.00,0.23
7024.00,0.23
7023.00,0.23
7022.00,0.23
7021.00,0.23
7020.00,0.23
7019.00,0.23
7018.00,0.23
7017.00,0.23
7016.00,0.23
7015.00,0.23
7014.00,0.22
7013.00,0.22
7012.00,0.22
7011.00,0.22
7010.00,0.22
7009.00,0.22
7008.00,0.22
7007.00,0.22
7006.00,0.22
7005.00,0.22
7004.00,0.22
7003.00,0.22
7002.00,0.22
7001.00,0.21
7000.00,0.21
6999.00,0.21
6998.00,0.21
6997.00,0.21
6996.00,0.21
6995.00,0.21
6994.00,0.21
6993.00,0.21
6992.00,0.21
6991.00,0.21
6990.00,0.21
6989.00,0.21
6988.00,0.21
6987.00,0.21
6986.00,0.21
6985.00,0.21
6984.00,0.21
6983.00,0.21
6982.00,0.21
6981.00,0.21
6980.00,0.21
6979.00,0.21
6978.00,0.21
6977.00,0.21
6976.00,0.21
6975.00,0.21
6974.00,0.21
6973.00,0.22
6972.00,0.22
6971.00,0.22
6970.00,0.22
6969.00,0.22
6968.00,0.22
6967.00,0.22
6966.00,0.22
6965.00,0.22
6964.00,0.22
6963.00,0.22
6962.00,0.22
6961.00,0.22
6960.00,0.22
6959.00,0.22
6958.00,0.21
6957.00,0.21
6956.00,0.21
6955.00,0.21
6954.00,0.21
6953.00,0.21
6952.00,0.21
6951.00,0.21
6950.00,0.21
6949.00,0.21
6948.00,0.21
6947.00,0.21
6946.00,0.21
6945.00,0.21
6944.00,0.21
6943.00,0.21
6942.00,0.21
6941.00,0.21
6940.00,0.21
6939.00,0.21
6938.00,0.21
6937.00,0.21
6936.00,0.21
6935.00,0.21
6934.00,0.21
6933.00,0.21
6932.00,0.21
6931.00,0.21
6930.00,0.21
6929.00,0.21
6928.00,0.21
6927.00,0.21
6926.00,0.21
6925.00,0.21
6924.00,0.21
6923.00,0.21
6922.00,0.21
6921.00,0.21
6920.00,0.21
6919.00,0.21
6918.00,0.21
6917.00,0.21
6916.00,0.21
6915.00,0.21
6914.00,0.21
6913.00,0.21
6912.00,0.21
6911.00,0.21
6910.00,0.21
6909.00,0.21
6908.00,0.21
6907.00,0.21
6906.00,0.21
6905.00,0.21
6904.00,0.21
6903.00,0.21
6902.00,0.21
6901.00,0.21
6900.00,0.21
6899.00,0.21
6898.00,0.21
6897.00,0.21
6896.00,0.21
6895.00,0.21
6894.00,0.21
6893.00,0.21
6892.00,0.21
6891.00,0.21
6890.00,0.21
6889.00,0.21
6888.00,0.21
6887.00,0.21
6886.00,0.21
6885.00,0.21
6884.00,0.21
6883.00,0.21
6882.00,0.21
6881.00,0.21
6880.00,0.21
6879.00,0.21
6878.00,0.21
6877.00,0.21
6876.00,0.21
6875.00,0.21
6874.00,0.21
6873.00,0.21
6872.00,0.21
6871.00,0.21
6870.00,0.21
6869.00,0.21
6868.00,0.21
6867.00,0.21
6866.00,0.21
6865.00,0.21
6864.00,0.21
6863.00,0.21
6862.00,0.21
6861.00,0.21
6860.00,0.21
6859.00,0.21
6858.00,0.21
6857.00,0.21
6856.00,0.21
6855.00,0.21
6854.00,0.21
6853.00,0.21
6852.00,0.21
6851.00,0.21
6850.00,0.21
6849.00,0.21
6848.00,0.21
6847.00,0.21
6846.00,0.21
6845.00,0.21
6844.00,0.21
6843.00,0.21
6842.00,0.21
6841.00,0.21
6840.00,0.21
6839.00,0.21
6838.00,0.21
6837.00,0.21
6836.00,0.21
6835.00,0.21
6834.00,0.21
6833.00,0.21
6832.00,0.21
6831.00,0.21
6830.00,0.21
6829.00,0.21
6828.00,0.21
6827.00,0.21
6826.00,0.21
6825.00,0.21
6824.00,0.21
6823.00,0.21
6822.00,0.21
6821.00,0.21
6820.00,0.21
6819.00,0.21
6818.00,0.21
6817.00,0.21
6816.00,0.21
6815.00,0.21
6814.00,0.21
6813.00,0.21
6812.00,0.21
6811.00,0.21
6810.00,0.21
6809.00,0.21
6808.00,0.21
6807.00,0.21
6806.00,0.21
6805.00,0.21
6804.00,0.21
6803.00,0.21
6802.00,0.21
6801.00,0.21
6800.00,0.21
6799.00,0.21
6798.00,0.21
6797.00,0.21
6796.00,0.21
6795.00,0.21
6794.00,0.21
6793.00,0.22
6792.00,0.22
6791.00,0.22
6790.00,0.22
6789.00,0.22
6788.00,0.22
6787.00,0.22
6786.00,0.22
6785.00,0.22
6784.00,0.22
6783.00,0.22
6782.00,0.22
6781.00,0.22
6780.00,0.22
6779.00,0.22
6778.00,0.22
6777.00,0.22
6776.00,0.22
6775.00,0.22
6774.00,0.22
6773.00,0.22
6772.00,0.22
6771.00,0.22
6770.00,0.22
6769.00,0.22
6768.00,0.22
6767.00,0.22
6766.00,0.22
6765.00,0.22
6764.00,0.22
6763.00,0.23
6762.00,0.23
6761.00,0.23
6760.00,0.23
6759.00,0.23
6758.00,0.23
6757.00,0.23
6756.00,0.23
6755.00,0.23
6754.00,0.23
6753.00,0.23
6752.00,0.23
6751.00,0.23
6750.00,0.23
6749.00,0.23
6748.00,0.23
6747.00,0.23
6746.00,0.23
6745.00,0.23
6744.00,0.23
6743.00,0.23
6742.00,0.23
6741.00,0.23
6740.00,0.23
6739.00,0.23
6738.00,0.23
6737.00,0.23
6736.00,0.23
6735.00,0.23
6734.00,0.23
6733.00,0.23
6732.00,0.23
6731.00,0.23
6730.00,0.23
6729.00,0.23
6728.00,0.23
6727.00,0.23
6726.00,0.23
6725.00,0.23
6724.00,0.23
6723.00,0.23
6722.00,0.23
6721.00,0.23
6720.00,0.23
6719.00,0.23
6718.00,0.23
6717.00,0.23
6716.00,0.24
6715.00,0.24
6714.00,0.24
6713.00,0.23
6712.00,0.23
6711.00,0.23
6710.00,0.23
6709.00,0.23
6708.00,0.23
6707.00,0.23
6706.00,0.23
6705.00,0.23
6704.00,0.23
6703.00,0.24
6702.00,0.24
6701.00,0.24
6700.00,0.24
6699.00,0.24
6698.00,0.24
6697.00,0.24
6696.00,0.24
6695.00,0.24
6694.00,0.24
6693.00,0.24
6692.00,0.24
6691.00,0.24
6690.00,0.24
6689.00,0.24
6688.00,0.24
6687.00,0.24
6686.00,0.25
6685.00,0.25
6684.00,0.25
6683.00,0.25
6682.00,0.25
6681.00,0.25
6680.00,0.25
6679.00,0.25
6678.00,0.25
6677.00,0.25
6676.00,0.25
6675.00,0.25
6674.00,0.25
6673.00,0.25
6672.00,0.25
6671.00,0.25
6670.00,0.25
6669.00,0.25
6668.00,0.25
6667.00,0.25
6666.00,0.25
6665.00,0.25
6664.00,0.25
6663.00,0.25
6662.00,0.25
6661.00,0.25
6660.00,0.25
6659.00,0.26
6658.00,0.26
6657.00,0.26
6656.00,0.26
6655.00,0.26
6654.00,0.26
6653.00,0.26
6652.00,0.26
6651.00,0.26
6650.00,0.26
6649.00,0.26
6648.00,0.26
6647.00,0.26
6646.00,0.26
6645.00,0.26
6644.00,0.26
6643.00,0.26
6642.00,0.26
6641.00,0.26
6640.00,0.26
6639.00,0.26
6638.00,0.26
6637.00,0.26
6636.00,0.26
6635.00,0.26
6634.00,0.26
6633.00,0.26
6632.00,0.26
6631.00,0.26
6630.00,0.26
6629.00,0.26
6628.00,0.26
6627.00,0.26
6626.00,0.26
6625.00,0.26
6624.00,0.26
6623.00,0.26
6622.00,0.27
6621.00,0.27
6620.00,0.27
6619.00,0.27
6618.00,0.27
6617.00,0.27
6616.00,0.27
6615.00,0.27
6614.00,0.27
6613.00,0.27
6612.00,0.27
6611.00,0.27
6610.00,0.27
6609.00,0.27
6608.00,0.27
6607.00,0.27
6606.00,0.27
6605.00,0.27
6604.00,0.27
6603.00,0.27
6602.00,0.27
6601.00,0.27
6600.00,0.27
6599.00,0.27
6598.00,0.27
6597.00,0.27
6596.00,0.27
6595.00,0.27
6594.00,0.27
6593.00,0.27
6592.00,0.27
6591.00,0.27
6590.00,0.27
6589.00,0.27
6588.00,0.27
6587.00,0.27
6586.00,0.28
6585.00,0.28
6584.00,0.28
6583.00,0.28
6582.00,0.28
6581.00,0.28
6580.00,0.28
6579.00,0.28
6578.00,0.28
6577.00,0.28
6576.00,0.28
6575.00,0.28
6574.00,0.28
6573.00,0.28
6572.00,0.28
6571.00,0.28
6570.00,0.28
6569.00,0.28
6568.00,0.28
6567.00,0.28
6566.00,0.28
6565.00,0.28
6564.00,0.29
6563.00,0.29
6562.00,0.29
6561.00,0.29
6560.00,0.29
6559.00,0.29
6558.00,0.29
6557.00,0.29
6556.00,0.29
6555.00,0.29
6554.00,0.29
6553.00,0.29
6552.00,0.29
6551.00,0.29
6550.00,0.29
6549.00,0.29
6548.00,0.29
6547.00,0.29
6546.00,0.29
6545.00,0.29
6544.00,0.29
6543.00,0.29
6542.00,0.29
6541.00,0.29
6540.00,0.29
6539.00,0.29
6538.00,0.29
6537.00,0.29
6536.00,0.29
6535.00,0.29
6534.00,0.29
6533.00,0.30
6532.00,0.30
6531.00,0.30
6530.00,0.30
6529.00,0.30
6528.00,0.30
6527.00,0.30
6526.00,0.30
6525.00,0.30
6524.00,0.30
6523.00,0.30
6522.00,0.30
6521.00,0.30
6520.00,0.30
6519.00,0.30
6518.00,0.30
6517.00,0.30
6516.00,0.30
6515.00,0.30
6514.00,0.30
6513.00,0.30
6512.00,0.30
6511.00,0.30
6510.00,0.30
6509.00,0.30
6508.00,0.30
6507.00,0.30
6506.00,0.31
6505.00,0.31
6504.00,0.31
6503.00,0.31
6502.00,0.31
6501.00,0.31
6500.00,0.31
6499.00,0.31
6498.00,0.31
6497.00,0.31
6496.00,0.31
6495.00,0.31
6494.00,0.31
6493.00,0.31
6492.00,0.31
6491.00,0.31
6490.00,0.31
6489.00,0.31
6488.00,0.31
6487.00,0.31
6486.00,0.31
6485.00,0.31
6484.00,0.31
6483.00,0.31
6482.00,0.31
6481.00,0.31
6480.00,0.31
6479.00,0.31
6478.00,0.31
6477.00,0.31
6476.00,0.31
6475.00,0.31
6474.00,0.31
6473.00,0.31
6472.00,0.31
6471.00,0.31
6470.00,0.31
6469.00,0.31
6468.00,0.31
6467.00,0.31
6466.00,0.31
6465.00,0.31
6464.00,0.31
6463.00,0.31
6462.00,0.31
6461.00,0.31
6460.00,0.31
6459.00,0.31
6458.00,0.31
6457.00,0.31
6456.00,0.31
6455.00,0.31
6454.00,0.31
6453.00,0.31
6452.00,0.31
6451.00,0.31
6450.00,0.31
6449.00,0.31
6448.00,0.31
6447.00,0.31
6446.00,0.31
6445.00,0.31
6444.00,0.31
6443.00,0.31
6442.00,0.31
6441.00,0.31
6440.00,0.31
6439.00,0.31
6438.00,0.31
6437.00,0.31
6436.00,0.31
6435.00,0.32
6434.00,0.32
6433.00,0.32
6432.00,0.32
6431.00,0.32
6430.00,0.32
6429.00,0.32
6428.00,0.32
6427.00,0.32
6426.00,0.32
6425.00,0.32
6424.00,0.32
6423.00,0.32
6422.00,0.32
6421.00,0.32
6420.00,0.33
6419.00,0.33
6418.00,0.33
6417.00,0.33
6416.00,0.33
6415.00,0.33
6414.00,0.33
6413.00,0.33
6412.00,0.33
6411.00,0.32
6410.00,0.32
6409.00,0.32
6408.00,0.32
6407.00,0.32
6406.00,0.32
6405.00,0.32
6404.00,0.32
6403.00,0.32
6402.00,0.32
6401.00,0.32
6400.00,0.32
6399.00,0.32
6398.00,0.32
6397.00,0.32
6396.00,0.32
6395.00,0.32
6394.00,0.32
6393.00,0.32
6392.00,0.32
6391.00,0.32
6390.00,0.33
6389.00,0.33
6388.00,0.33
6387.00,0.33
6386.00,0.33
6385.00,0.33
6384.00,0.33
6383.00,0.33
6382.00,0.33
6381.00,0.33
6380.00,0.33
6379.00,0.33
6378.00,0.33
6377.00,0.33
6376.00,0.33
6375.00,0.33
6374.00,0.33
6373.00,0.33
6372.00,0.33
6371.00,0.33
6370.00,0.33
6369.00,0.33
6368.00,0.33
6367.00,0.33
6366.00,0.33
6365.00,0.33
6364.00,0.33
6363.00,0.33
6362.00,0.33
6361.00,0.33
6360.00,0.33
6359.00,0.33
6358.00,0.33
6357.00,0.33
6356.00,0.34
6355.00,0.34
6354.00,0.34
6353.00,0.34
6352.00,0.34
6351.00,0.34
6350.00,0.34
6349.00,0.34
6348.00,0.34
6347.00,0.34
6346.00,0.34
6345.00,0.34
6344.00,0.34
6343.00,0.34
6342.00,0.34
6341.00,0.34
6340.00,0.34
6339.00,0.34
6338.00,0.34
6337.00,0.34
6336.00,0.34
6335.00,0.34
6334.00,0.34
6333.00,0.34
6332.00,0.34
6331.00,0.34
6330.00,0.34
6329.00,0.34
6328.00,0.34
6327.00,0.34
6326.00,0.34
6325.00,0.35
6324.00,0.35
6323.00,0.35
6322.00,0.35
6321.00,0.35
6320.00,0.35
6319.00,0.35
6318.00,0.35
6317.00,0.35
6316.00,0.35
6315.00,0.35
6314.00,0.35
6313.00,0.35
6312.00,0.35
6311.00,0.35
6310.00,0.35
6309.00,0.35
6308.00,0.35
6307.00,0.35
6306.00,0.35
6305.00,0.35
6304.00,0.35
6303.00,0.35
6302.00,0.35
6301.00,0.35
6300.00,0.35
6299.00,0.35
6298.00,0.36
6297.00,0.36
6296.00,0.36
6295.00,0.36
6294.00,0.36
6293.00,0.36
6292.00,0.36
6291.00,0.36
6290.00,0.36
6289.00,0.36
6288.00,0.36
6287.00,0.36
6286.00,0.36
6285.00,0.36
6284.00,0.36
6283.00,0.36
6282.00,0.36
6281.00,0.36
6280.00,0.36
6279.00,0.36
6278.00,0.36
6277.00,0.36
6276.00,0.36
6275.00,0.36
6274.00,0.36
6273.00,0.36
6272.00,0.37
6271.00,0.37
6270.00,0.37
6269.00,0.37
6268.00,0.37
6267.00,0.37
6266.00,0.37
6265.00,0.37
6264.00,0.37
6263.00,0.37
6262.00,0.37
6261.00,0.37
6260.00,0.37
6259.00,0.37
6258.00,0.37
6257.00,0.37
6256.00,0.37
6255.00,0.37
6254.00,0.37
6253.00,0.37
6252.00,0.37
6251.00,0.37
6250.00,0.37
6249.00,0.37
6248.00,0.38
6247.00,0.38
6246.00,0.38
6245.00,0.38
6244.00,0.38
6243.00,0.38
6242.00,0.38
6241.00,0.38
6240.00,0.38
6239.00,0.38
6238.00,0.38
6237.00,0.38
6236.00,0.38
6235.00,0.38
6234.00,0.38
6233.00,0.38
6232.00,0.38
6231.00,0.38
6230.00,0.38
6229.00,0.38
6228.00,0.38
6227.00,0.38
6226.00,0.38
6225.00,0.38
6224.00,0.38
6223.00,0.38
6222.00,0.38
6221.00,0.38
6220.00,0.39
6219.00,0.39
6218.00,0.39
6217.00,0.39
6216.00,0.39
6215.00,0.39
6214.00,0.39
6213.00,0.39
6212.00,0.39
6211.00,0.39
6210.00,0.39
6209.00,0.39
6208.00,0.39
6207.00,0.39
6206.00,0.39
6205.00,0.39
6204.00,0.39
6203.00,0.39
6202.00,0.39
6201.00,0.40
6200.00,0.40
6199.00,0.40
6198.00,0.40
6197.00,0.40
6196.00,0.40
6195.00,0.40
6194.00,0.40
6193.00,0.40
6192.00,0.40
6191.00,0.40
6190.00,0.40
6189.00,0.40
6188.00,0.40
6187.00,0.40
6186.00,0.40
6185.00,0.40
6184.00,0.40
6183.00,0.40
6182.00,0.40
6181.00,0.41
6180.00,0.41
6179.00,0.41
6178.00,0.41
6177.00,0.41
6176.00,0.41
6175.00,0.41
6174.00,0.41
6173.00,0.41
6172.00,0.41
6171.00,0.41
6170.00,0.41
6169.00,0.41
6168.00,0.41
6167.00,0.41
6166.00,0.41
6165.00,0.41
6164.00,0.41
6163.00,0.41
6162.00,0.41
6161.00,0.42
6160.00,0.42
6159.00,0.42
6158.00,0.42
6157.00,0.42
6156.00,0.42
6155.00,0.42
6154.00,0.42
6153.00,0.42
6152.00,0.42
6151.00,0.42
6150.00,0.42
6149.00,0.42
6148.00,0.42
6147.00,0.42
6146.00,0.42
6145.00,0.42
6144.00,0.42
6143.00,0.42
6142.00,0.42
6141.00,0.42
6140.00,0.42
6139.00,0.42
6138.00,0.42
6137.00,0.43
6136.00,0.43
6135.00,0.43
6134.00,0.43
6133.00,0.43
6132.00,0.43
6131.00,0.43
6130.00,0.43
6129.00,0.43
6128.00,0.43
6127.00,0.43
6126.00,0.43
6125.00,0.43
6124.00,0.43
6123.00,0.43
6122.00,0.43
6121.00,0.43
6120.00,0.43
6119.00,0.44
6118.00,0.44
6117.00,0.44
6116.00,0.44
6115.00,0.44
6114.00,0.44
6113.00,0.44
6112.00,0.44
6111.00,0.44
6110.00,0.44
6109.00,0.44
6108.00,0.44
6107.00,0.44
6106.00,0.44
6105.00,0.44
6104.00,0.44
6103.00,0.44
6102.00,0.44
6101.00,0.44
6100.00,0.44
6099.00,0.44
6098.00,0.44
6097.00,0.44
6096.00,0.44
6095.00,0.44
6094.00,0.44
6093.00,0.44
6092.00,0.44
6091.00,0.44
6090.00,0.44
6089.00,0.45
6088.00,0.45
6087.00,0.45
6086.00,0.45
6085.00,0.45
6084.00,0.45
6083.00,0.45
6082.00,0.45
6081.00,0.45
6080.00,0.45
6079.00,0.45
6078.00,0.45
6077.00,0.45
6076.00,0.45
6075.00,0.45
6074.00,0.45
6073.00,0.45
6072.00,0.45
6071.00,0.45
6070.00,0.45
6069.00,0.45
6068.00,0.45
6067.00,0.45
6066.00,0.45
6065.00,0.45
6064.00,0.46
6063.00,0.46
6062.00,0.46
6061.00,0.46
6060.00,0.46
6059.00,0.46
6058.00,0.46
6057.00,0.46
6056.00,0.46
6055.00,0.46
6054.00,0.46
6053.00,0.46
6052.00,0.46
6051.00,0.46
6050.00,0.46
6049.00,0.46
6048.00,0.46
6047.00,0.46
6046.00,0.46
6045.00,0.46
6044.00,0.46
6043.00,0.46
6042.00,0.46
6041.00,0.46
6040.00,0.46
6039.00,0.46
6038.00,0.46
6037.00,0.46
6036.00,0.46
6035.00,0.46
6034.00,0.47
6033.00,0.47
6032.00,0.47
6031.00,0.47
6030.00,0.47
6029.00,0.47
6028.00,0.47
6027.00,0.47
6026.00,0.47
6025.00,0.47
6024.00,0.47
6023.00,0.47
6022.00,0.47
6021.00,0.47
6020.00,0.47
6019.00,0.47
6018.00,0.47
6017.00,0.47
6016.00,0.47
6015.00,0.47
6014.00,0.47
6013.00,0.47
6012.00,0.47
6011.00,0.47
6010.00,0.47
6009.00,0.47
6008.00,0.47
6007.00,0.47
6006.00,0.46
6005.00,0.46
6004.00,0.46
6003.00,0.46
6002.00,0.46
6001.00,0.46
6000.00,0.46
5999.00,0.46
5998.00,0.46
5997.00,0.46
5996.00,0.46
5995.00,0.46
5994.00,0.46
5993.00,0.46
5992.00,0.46
5991.00,0.46
5990.00,0.46
5989.00,0.46
5988.00,0.46
5987.00,0.46
5986.00,0.46
5985.00,0.46
5984.00,0.46
5983.00,0.45
5982.00,0.45
5981.00,0.45
5980.00,0.45
5979.00,0.45
5978.00,0.45
5977.00,0.45
5976.00,0.45
5975.00,0.44
5974.00,0.44
5973.00,0.44
5972.00,0.44
5971.00,0.44
5970.00,0.43
5969.00,0.43
5968.00,0.43
5967.00,0.43
5966.00,0.43
5965.00,0.42
5964.00,0.42
5963.00,0.42
5962.00,0.42
5961.00,0.41
5960.00,0.41
5959.00,0.41
5958.00,0.41
5957.00,0.40
5956.00,0.40
5955.00,0.40
5954.00,0.40
5953.00,0.40
5952.00,0.39
5951.00,0.39
5950.00,0.39
5949.00,0.39
5948.00,0.39
5947.00,0.39
5946.00,0.38
5945.00,0.38
5944.00,0.38
5943.00,0.38
5942.00,0.38
5941.00,0.38
5940.00,0.38
5939.00,0.38
5938.00,0.38
5937.00,0.38
5936.00,0.38
5935.00,0.38
5934.00,0.38
5933.00,0.37
5932.00,0.37
5931.00,0.37
5930.00,0.37
5929.00,0.37
5928.00,0.37
5927.00,0.37
5926.00,0.37
5925.00,0.37
5924.00,0.37
5923.00,0.37
5922.00,0.37
5921.00,0.37
5920.00,0.37
5919.00,0.37
5918.00,0.36
5917.00,0.36
5916.00,0.36
5915.00,0.36
5914.00,0.36
5913.00,0.36
5912.00,0.36
5911.00,0.36
5910.00,0.36
5909.00,0.36
5908.00,0.36
5907.00,0.36
5906.00,0.36
5905.00,0.36
5904.00,0.36
5903.00,0.36
5902.00,0.36
5901.00,0.36
5900.00,0.36
5899.00,0.36
5898.00,0.36
5897.00,0.36
5896.00,0.36
5895.00,0.36
5894.00,0.36
5893.00,0.36
5892.00,0.36
5891.00,0.36
5890.00,0.36
5889.00,0.36
5888.00,0.36
5887.00,0.37
5886.00,0.37
5885.00,0.37
5884.00,0.37
5883.00,0.37
5882.00,0.37
5881.00,0.37
5880.00,0.37
5879.00,0.37
5878.00,0.37
5877.00,0.38
5876.00,0.38
5875.00,0.38
5874.00,0.38
5873.00,0.38
5872.00,0.38
5871.00,0.38
5870.00,0.38
5869.00,0.38
5868.00,0.38
5867.00,0.38
5866.00,0.38
5865.00,0.38
5864.00,0.38
5863.00,0.39
5862.00,0.39
5861.00,0.39
5860.00,0.39
5859.00,0.39
5858.00,0.39
5857.00,0.39
5856.00,0.39
5855.00,0.39
5854.00,0.39
5853.00,0.39
5852.00,0.39
5851.00,0.39
5850.00,0.39
5849.00,0.39
5848.00,0.39
5847.00,0.39
5846.00,0.39
5845.00,0.39
5844.00,0.39
5843.00,0.39
5842.00,0.39
5841.00,0.39
5840.00,0.39
5839.00,0.39
5838.00,0.39
5837.00,0.39
5836.00,0.39
5835.00,0.39
5834.00,0.39
5833.00,0.39
5832.00,0.39
5831.00,0.39
5830.00,0.39
5829.00,0.39
5828.00,0.39
5827.00,0.39
5826.00,0.39
5825.00,0.39
5824.00,0.39
5823.00,0.39
5822.00,0.39
5821.00,0.39
5820.00,0.39
5819.00,0.39
5818.00,0.39
5817.00,0.39
5816.00,0.39
5815.00,0.39
5814.00,0.39
5813.00,0.39
5812.00,0.39
5811.00,0.39
5810.00,0.39
5809.00,0.39
5808.00,0.39
5807.00,0.39
5806.00,0.39
5805.00,0.39
5804.00,0.39
5803.00,0.39
5802.00,0.39
5801.00,0.39
5800.00,0.39
5799.00,0.39
5798.00,0.39
5797.00,0.39
5796.00,0.39
5795.00,0.39
5794.00,0.39
5793.00,0.39
5792.00,0.39
5791.00,0.39
5790.00,0.38
5789.00,0.38
5788.00,0.38
5787.00,0.38
5786.00,0.38
5785.00,0.38
5784.00,0.38
5783.00,0.38
5782.00,0.38
5781.00,0.38
5780.00,0.38
5779.00,0.38
5778.00,0.38
5777.00,0.38
5776.00,0.38
5775.00,0.38
5774.00,0.37
5773.00,0.37
5772.00,0.37
5771.00,0.37
5770.00,0.37
5769.00,0.37
5768.00,0.37
5767.00,0.37
5766.00,0.37
5765.00,0.38
5764.00,0.38
5763.00,0.38
5762.00,0.38
5761.00,0.38
5760.00,0.38
5759.00,0.38
5758.00,0.38
5757.00,0.38
5756.00,0.38
5755.00,0.38
5754.00,0.38
5753.00,0.39
5752.00,0.39
5751.00,0.39
5750.00,0.39
5749.00,0.39
5748.00,0.39
5747.00,0.39
5746.00,0.40
5745.00,0.40
5744.00,0.40
5743.00,0.40
5742.00,0.40
5741.00,0.40
5740.00,0.40
5739.00,0.40
5738.00,0.40
5737.00,0.40
5736.00,0.40
5735.00,0.40
5734.00,0.41
5733.00,0.41
5732.00,0.41
5731.00,0.41
5730.00,0.41
5729.00,0.41
5728.00,0.41
5727.00,0.41
5726.00,0.41
5725.00,0.41
5724.00,0.41
5723.00,0.41
5722.00,0.41
5721.00,0.41
5720.00,0.41
5719.00,0.41
5718.00,0.41
5717.00,0.41
5716.00,0.41
5715.00,0.41
5714.00,0.41
5713.00,0.41
5712.00,0.41
5711.00,0.41
5710.00,0.41
5709.00,0.41
5708.00,0.41
5707.00,0.41
5706.00,0.41
5705.00,0.41
5704.00,0.41
5703.00,0.41
5702.00,0.41
5701.00,0.41
5700.00,0.41
5699.00,0.41
5698.00,0.41
5697.00,0.41
5696.00,0.40
5695.00,0.40
5694.00,0.40
5693.00,0.40
5692.00,0.40
5691.00,0.40
5690.00,0.40
5689.00,0.40
5688.00,0.40
5687.00,0.40
5686.00,0.40
5685.00,0.40
5684.00,0.40
5683.00,0.40
5682.00,0.40
5681.00,0.40
5680.00,0.40
5679.00,0.40
5678.00,0.40
5677.00,0.40
5676.00,0.40
5675.00,0.40
5674.00,0.40
5673.00,0.40
5672.00,0.40
5671.00,0.40
5670.00,0.40
5669.00,0.40
5668.00,0.40
5667.00,0.40
5666.00,0.40
5665.00,0.40
5664.00,0.40
5663.00,0.40
5662.00,0.40
5661.00,0.40
5660.00,0.40
5659.00,0.40
5658.00,0.40
5657.00,0.40
5656.00,0.40
5655.00,0.40
5654.00,0.40
5653.00,0.40
5652.00,0.41
5651.00,0.41
5650.00,0.41
5649.00,0.41
5648.00,0.41
5647.00,0.41
5646.00,0.41
5645.00,0.41
5644.00,0.41
5643.00,0.41
5642.00,0.41
5641.00,0.41
5640.00,0.41
5639.00,0.41
5638.00,0.41
5637.00,0.41
5636.00,0.41
5635.00,0.41
5634.00,0.41
5633.00,0.42
5632.00,0.42
5631.00,0.42
5630.00,0.42
5629.00,0.42
5628.00,0.42
5627.00,0.42
5626.00,0.42
5625.00,0.42
5624.00,0.42
5623.00,0.42
5622.00,0.42
5621.00,0.42
5620.00,0.42
5619.00,0.42
5618.00,0.42
5617.00,0.42
5616.00,0.42
5615.00,0.42
5614.00,0.42
5613.00,0.43
5612.00,0.43
5611.00,0.43
5610.00,0.43
5609.00,0.43
5608.00,0.43
5607.00,0.43
5606.00,0.43
5605.00,0.43
5604.00,0.43
5603.00,0.43
5602.00,0.43
5601.00,0.43
5600.00,0.43
5599.00,0.43
5598.00,0.43
5597.00,0.43
5596.00,0.43
5595.00,0.43
5594.00,0.44
5593.00,0.44
5592.00,0.44
5591.00,0.44
5590.00,0.44
5589.00,0.44
5588.00,0.44
5587.00,0.44
5586.00,0.44
5585.00,0.44
5584.00,0.44
5583.00,0.44
5582.00,0.44
5581.00,0.44
5580.00,0.44
5579.00,0.44
5578.00,0.44
5577.00,0.44
5576.00,0.45
5575.00,0.45
5574.00,0.45
5573.00,0.45
5572.00,0.45
5571.00,0.45
5570.00,0.45
5569.00,0.45
5568.00,0.45
5567.00,0.45
5566.00,0.45
5565.00,0.45
5564.00,0.45
5563.00,0.45
5562.00,0.45
5561.00,0.45
5560.00,0.45
5559.00,0.45
5558.00,0.45
5557.00,0.45
5556.00,0.45
5555.00,0.45
5554.00,0.45
5553.00,0.45
5552.00,0.45
5551.00,0.45
5550.00,0.45
5549.00,0.45
5548.00,0.45
5547.00,0.45
5546.00,0.46
5545.00,0.46
5544.00,0.46
5543.00,0.46
5542.00,0.46
5541.00,0.46
5540.00,0.46
5539.00,0.46
5538.00,0.46
5537.00,0.46
5536.00,0.46
5535.00,0.46
5534.00,0.46
5533.00,0.46
5532.00,0.46
5531.00,0.46
5530.00,0.46
5529.00,0.46
5528.00,0.46
5527.00,0.46
5526.00,0.46
5525.00,0.46
5524.00,0.46
5523.00,0.46
5522.00,0.46
5521.00,0.46
5520.00,0.46
5519.00,0.46
5518.00,0.46
5517.00,0.46
5516.00,0.46
5515.00,0.46
5514.00,0.46
5513.00,0.46
5512.00,0.46
5511.00,0.46
5510.00,0.46
5509.00,0.46
5508.00,0.46
5507.00,0.46
5506.00,0.46
5505.00,0.46
5504.00,0.46
5503.00,0.47
5502.00,0.47
5501.00,0.47
5500.00,0.47
5499.00,0.47
5498.00,0.47
5497.00,0.47
5496.00,0.47
5495.00,0.47
5494.00,0.47
5493.00,0.47
5492.00,0.47
5491.00,0.47
5490.00,0.47
5489.00,0.47
5488.00,0.47
5487.00,0.47
5486.00,0.47
5485.00,0.47
5484.00,0.47
5483.00,0.47
5482.00,0.47
5481.00,0.47
5480.00,0.47
5479.00,0.47
5478.00,0.47
5477.00,0.47
5476.00,0.47
5475.00,0.47
5474.00,0.47
5473.00,0.47
5472.00,0.47
5471.00,0.47
5470.00,0.47
5469.00,0.48
5468.00,0.48
5467.00,0.48
5466.00,0.48
5465.00,0.48
5464.00,0.48
5463.00,0.48
5462.00,0.48
5461.00,0.48
5460.00,0.48
5459.00,0.48
5458.00,0.48
5457.00,0.48
5456.00,0.48
5455.00,0.48
5454.00,0.48
5453.00,0.48
5452.00,0.48
5451.00,0.48
5450.00,0.48
5449.00,0.48
5448.00,0.48
5447.00,0.48
5446.00,0.48
5445.00,0.48
5444.00,0.48
5443.00,0.48
5442.00,0.48
5441.00,0.48
5440.00,0.48
5439.00,0.48
5438.00,0.48
5437.00,0.48
5436.00,0.48
5435.00,0.48
5434.00,0.48
5433.00,0.48
5432.00,0.48
5431.00,0.48
5430.00,0.48
5429.00,0.48
5428.00,0.48
5427.00,0.48
5426.00,0.48
5425.00,0.48
5424.00,0.48
5423.00,0.48
5422.00,0.48
5421.00,0.48
5420.00,0.48
5419.00,0.48
5418.00,0.48
5417.00,0.48
5416.00,0.48
5415.00,0.48
5414.00,0.48
5413.00,0.48
5412.00,0.48
5411.00,0.48
5410.00,0.48
5409.00,0.48
5408.00,0.48
5407.00,0.48
5406.00,0.48
5405.00,0.48
5404.00,0.48
5403.00,0.48
5402.00,0.48
5401.00,0.48
5400.00,0.48
5399.00,0.48
5398.00,0.48
5397.00,0.48
5396.00,0.48
5395.00,0.48
5394.00,0.48
5393.00,0.48
5392.00,0.48
5391.00,0.48
5390.00,0.48
5389.00,0.48
5388.00,0.47
5387.00,0.47
5386.00,0.47
5385.00,0.47
5384.00,0.47
5383.00,0.47
5382.00,0.47
5381.00,0.47
5380.00,0.47
5379.00,0.47
5378.00,0.47
5377.00,0.46
5376.00,0.46
5375.00,0.46
5374.00,0.46
5373.00,0.46
5372.00,0.46
5371.00,0.46
5370.00,0.46
5369.00,0.45
5368.00,0.45
5367.00,0.45
5366.00,0.45
5365.00,0.45
5364.00,0.44
5363.00,0.44
5362.00,0.44
5361.00,0.44
5360.00,0.44
5359.00,0.43
5358.00,0.43
5357.00,0.43
5356.00,0.43
5355.00,0.42
5354.00,0.42
5353.00,0.42
5352.00,0.41
5351.00,0.41
5350.00,0.41
5349.00,0.40
5348.00,0.40
5347.00,0.40
5346.00,0.39
5345.00,0.39
5344.00,0.39
5343.00,0.38
5342.00,0.38
5341.00,0.38
5340.00,0.37
5339.00,0.37
5338.00,0.37
5337.00,0.37
5336.00,0.36
5335.00,0.36
5334.00,0.36
5333.00,0.35
5332.00,0.35
5331.00,0.35
5330.00,0.34
5329.00,0.34
5328.00,0.34
5327.00,0.34
5326.00,0.33
5325.00,0.33
5324.00,0.33
5323.00,0.32
5322.00,0.32
5321.00,0.32
5320.00,0.31
5319.00,0.31
5318.00,0.31
5317.00,0.31
5316.00,0.30
5315.00,0.30
5314.00,0.30
5313.00,0.29
5312.00,0.29
5311.00,0.29
5310.00,0.29
5309.00,0.28
5308.00,0.28
5307.00,0.28
5306.00,0.28
5305.00,0.27
5304.00,0.27
5303.00,0.27
5302.00,0.27
5301.00,0.26
5300.00,0.26
5299.00,0.26
5298.00,0.26
5297.00,0.26
5296.00,0.26
5295.00,0.25
5294.00,0.25
5293.00,0.25
5292.00,0.25
5291.00,0.25
5290.00,0.25
5289.00,0.25
5288.00,0.25
5287.00,0.25
5286.00,0.25
5285.00,0.25
5284.00,0.25
5283.00,0.25
5282.00,0.25
5281.00,0.24
5280.00,0.24
5279.00,0.24
5278.00,0.24
5277.00,0.24
5276.00,0.24
5275.00,0.24
5274.00,0.24
5273.00,0.24
5272.00,0.24
5271.00,0.24
5270.00,0.24
5269.00,0.24
5268.00,0.24
5267.00,0.24
5266.00,0.24
5265.00,0.24
5264.00,0.24
5263.00,0.24
5262.00,0.24
5261.00,0.24
5260.00,0.23
5259.00,0.23
5258.00,0.23
5257.00,0.23
5256.00,0.23
5255.00,0.23
5254.00,0.23
5253.00,0.23
5252.00,0.23
5251.00,0.23
5250.00,0.23
5249.00,0.23
5248.00,0.23
5247.00,0.23
5246.00,0.23
5245.00,0.23
5244.00,0.23
5243.00,0.24
5242.00,0.24
5241.00,0.24
5240.00,0.24
5239.00,0.24
5238.00,0.24
5237.00,0.24
5236.00,0.24
5235.00,0.24
5234.00,0.24
5233.00,0.24
5232.00,0.24
5231.00,0.24
5230.00,0.24
5229.00,0.24
5228.00,0.24
5227.00,0.24
5226.00,0.23
5225.00,0.23
5224.00,0.23
5223.00,0.23
5222.00,0.23
5221.00,0.23
5220.00,0.23
5219.00,0.23
5218.00,0.23
5217.00,0.23
5216.00,0.23
5215.00,0.23
5214.00,0.23
5213.00,0.23
5212.00,0.23
5211.00,0.24
5210.00,0.24
5209.00,0.24
5208.00,0.24
5207.00,0.24
5206.00,0.24
5205.00,0.24
5204.00,0.24
5203.00,0.24
5202.00,0.24
5201.00,0.24
5200.00,0.24
5199.00,0.24
5198.00,0.24
5197.00,0.24
5196.00,0.24
5195.00,0.24
5194.00,0.24
5193.00,0.24
5192.00,0.24
5191.00,0.24
5190.00,0.24
5189.00,0.24
5188.00,0.24
5187.00,0.24
5186.00,0.24
5185.00,0.24
5184.00,0.24
5183.00,0.24
5182.00,0.24
5181.00,0.24
5180.00,0.24
5179.00,0.24
5178.00,0.24
5177.00,0.25
5176.00,0.25
5175.00,0.25
5174.00,0.25
5173.00,0.25
5172.00,0.25
5171.00,0.25
5170.00,0.25
5169.00,0.25
5168.00,0.25
5167.00,0.25
5166.00,0.25
5165.00,0.25
5164.00,0.25
5163.00,0.25
5162.00,0.25
5161.00,0.25
5160.00,0.25
5159.00,0.25
5158.00,0.25
5157.00,0.25
5156.00,0.25
5155.00,0.25
5154.00,0.25
5153.00,0.25
5152.00,0.25
5151.00,0.25
5150.00,0.25
5149.00,0.25
5148.00,0.25
5147.00,0.25
5146.00,0.25
5145.00,0.25
5144.00,0.25
5143.00,0.25
5142.00,0.25
5141.00,0.25
5140.00,0.25
5139.00,0.25
5138.00,0.25
5137.00,0.25
5136.00,0.25
5135.00,0.25
5134.00,0.25
5133.00,0.25
5132.00,0.25
5131.00,0.25
5130.00,0.25
5129.00,0.25
5128.00,0.25
5127.00,0.25
5126.00,0.25
5125.00,0.25
5124.00,0.25
5123.00,0.25
5122.00,0.25
5121.00,0.25
5120.00,0.25
5119.00,0.25
5118.00,0.25
5117.00,0.25
5116.00,0.25
5115.00,0.25
5114.00,0.25
5113.00,0.25
5112.00,0.25
5111.00,0.25
5110.00,0.26
5109.00,0.26
5108.00,0.26
5107.00,0.26
5106.00,0.26
5105.00,0.26
5104.00,0.26
5103.00,0.26
5102.00,0.26
5101.00,0.26
5100.00,0.26
5099.00,0.26
5098.00,0.26
5097.00,0.26
5096.00,0.26
5095.00,0.26
5094.00,0.26
5093.00,0.26
5092.00,0.26
5091.00,0.26
5090.00,0.26
5089.00,0.26
5088.00,0.26
5087.00,0.26
5086.00,0.26
5085.00,0.26
5084.00,0.26
5083.00,0.26
5082.00,0.26
5081.00,0.26
5080.00,0.26
5079.00,0.26
5078.00,0.26
5077.00,0.26
5076.00,0.26
5075.00,0.26
5074.00,0.26
5073.00,0.26
5072.00,0.26
5071.00,0.26
5070.00,0.26
5069.00,0.26
5068.00,0.26
5067.00,0.26
5066.00,0.26
5065.00,0.26
5064.00,0.26
5063.00,0.26
5062.00,0.26
5061.00,0.26
5060.00,0.26
5059.00,0.26
5058.00,0.26
5057.00,0.26
5056.00,0.26
5055.00,0.26
5054.00,0.27
5053.00,0.27
5052.00,0.27
5051.00,0.27
5050.00,0.27
5049.00,0.27
5048.00,0.27
5047.00,0.27
5046.00,0.27
5045.00,0.27
5044.00,0.27
5043.00,0.27
5042.00,0.27
5041.00,0.27
5040.00,0.27
5039.00,0.27
5038.00,0.27
5037.00,0.27
5036.00,0.27
5035.00,0.27
5034.00,0.27
5033.00,0.27
5032.00,0.27
5031.00,0.27
5030.00,0.27
5029.00,0.27
5028.00,0.27
5027.00,0.27
5026.00,0.27
5025.00,0.27
5024.00,0.27
5023.00,0.28
5022.00,0.28
5021.00,0.28
5020.00,0.28
5019.00,0.28
5018.00,0.28
5017.00,0.28
5016.00,0.28
5015.00,0.28
5014.00,0.28
5013.00,0.28
5012.00,0.28
5011.00,0.28
5010.00,0.28
5009.00,0.28
5008.00,0.28
5007.00,0.28
5006.00,0.28
5005.00,0.28
5004.00,0.28
5003.00,0.28
5002.00,0.28
5001.00,0.28
5000.00,0.28
4999.00,0.28
4998.00,0.28
4997.00,0.28
4996.00,0.28
4995.00,0.28
4994.00,0.28
4993.00,0.28
4992.00,0.28
4991.00,0.28
4990.00,0.28
4989.00,0.28
4988.00,0.28
4987.00,0.28
4986.00,0.28
4985.00,0.28
4984.00,0.29
4983.00,0.29
4982.00,0.29
4981.00,0.29
4980.00,0.29
4979.00,0.29
4978.00,0.29
4977.00,0.29
4976.00,0.29
4975.00,0.29
4974.00,0.29
4973.00,0.29
4972.00,0.29
4971.00,0.29
4970.00,0.29
4969.00,0.29
4968.00,0.29
4967.00,0.29
4966.00,0.29
4965.00,0.29
4964.00,0.29
4963.00,0.29
4962.00,0.29
4961.00,0.29
4960.00,0.29
4959.00,0.29
4958.00,0.29
4957.00,0.29
4956.00,0.29
4955.00,0.29
4954.00,0.30
4953.00,0.30
4952.00,0.30
4951.00,0.30
4950.00,0.30
4949.00,0.30
4948.00,0.30
4947.00,0.30
4946.00,0.30
4945.00,0.30
4944.00,0.30
4943.00,0.30
4942.00,0.30
4941.00,0.30
4940.00,0.30
4939.00,0.30
4938.00,0.30
4937.00,0.30
4936.00,0.30
4935.00,0.30
4934.00,0.30
4933.00,0.30
4932.00,0.30
4931.00,0.30
4930.00,0.30
4929.00,0.30
4928.00,0.30
4927.00,0.30
4926.00,0.30
4925.00,0.30
4924.00,0.31
4923.00,0.31
4922.00,0.31
4921.00,0.31
4920.00,0.31
4919.00,0.31
4918.00,0.31
4917.00,0.31
4916.00,0.31
4915.00,0.31
4914.00,0.31
4913.00,0.31
4912.00,0.31
4911.00,0.31
4910.00,0.31
4909.00,0.31
4908.00,0.31
4907.00,0.31
4906.00,0.31
4905.00,0.31
4904.00,0.31
4903.00,0.31
4902.00,0.31
4901.00,0.31
4900.00,0.31
4899.00,0.31
4898.00,0.31
4897.00,0.31
4896.00,0.31
4895.00,0.31
4894.00,0.31
4893.00,0.31
4892.00,0.31
4891.00,0.31
4890.00,0.31
4889.00,0.31
4888.00,0.31
4887.00,0.31
4886.00,0.31
4885.00,0.31
4884.00,0.31
4883.00,0.31
4882.00,0.31
4881.00,0.31
4880.00,0.31
4879.00,0.31
4878.00,0.31
4877.00,0.31
4876.00,0.31
4875.00,0.31
4874.00,0.31
4873.00,0.32
4872.00,0.32
4871.00,0.32
4870.00,0.32
4869.00,0.32
4868.00,0.32
4867.00,0.32
4866.00,0.32
4865.00,0.32
4864.00,0.32
4863.00,0.32
4862.00,0.32
4861.00,0.32
4860.00,0.32
4859.00,0.32
4858.00,0.32
4857.00,0.32
4856.00,0.32
4855.00,0.32
4854.00,0.32
4853.00,0.32
4852.00,0.32
4851.00,0.32
4850.00,0.32
4849.00,0.32
4848.00,0.32
4847.00,0.32
4846.00,0.32
4845.00,0.32
4844.00,0.32
4843.00,0.32
4842.00,0.32
4841.00,0.32
4840.00,0.32
4839.00,0.32
4838.00,0.32
4837.00,0.32
4836.00,0.32
4835.00,0.32
4834.00,0.32
4833.00,0.32
4832.00,0.33
4831.00,0.33
4830.00,0.33
4829.00,0.33
4828.00,0.33
4827.00,0.33
4826.00,0.33
4825.00,0.33
4824.00,0.33
4823.00,0.33
4822.00,0.33
4821.00,0.33
4820.00,0.33
4819.00,0.33
4818.00,0.33
4817.00,0.33
4816.00,0.33
4815.00,0.33
4814.00,0.33
4813.00,0.33
4812.00,0.33
4811.00,0.33
4810.00,0.33
4809.00,0.33
4808.00,0.34
4807.00,0.34
4806.00,0.34
4805.00,0.34
4804.00,0.34
4803.00,0.34
4802.00,0.34
4801.00,0.34
4800.00,0.34
4799.00,0.34
4798.00,0.34
4797.00,0.34
4796.00,0.34
4795.00,0.34
4794.00,0.34
4793.00,0.34
4792.00,0.34
4791.00,0.34
4790.00,0.34
4789.00,0.34
4788.00,0.34
4787.00,0.34
4786.00,0.34
4785.00,0.34
4784.00,0.34
4783.00,0.34
4782.00,0.34
4781.00,0.34
4780.00,0.34
4779.00,0.34
4778.00,0.34
4777.00,0.34
4776.00,0.34
4775.00,0.35
4774.00,0.35
4773.00,0.35
4772.00,0.35
4771.00,0.35
4770.00,0.35
4769.00,0.35
4768.00,0.35
4767.00,0.35
4766.00,0.35
4765.00,0.35
4764.00,0.35
4763.00,0.35
4762.00,0.35
4761.00,0.35
4760.00,0.35
4759.00,0.35
4758.00,0.35
4757.00,0.35
4756.00,0.36
4755.00,0.36
4754.00,0.36
4753.00,0.36
4752.00,0.36
4751.00,0.36
4750.00,0.36
4749.00,0.36
4748.00,0.36
4747.00,0.36
4746.00,0.36
4745.00,0.36
4744.00,0.36
4743.00,0.36
4742.00,0.36
4741.00,0.36
4740.00,0.36
4739.00,0.36
4738.00,0.36
4737.00,0.37
4736.00,0.37
4735.00,0.37
4734.00,0.37
4733.00,0.37
4732.00,0.37
4731.00,0.37
4730.00,0.37
4729.00,0.37
4728.00,0.37
4727.00,0.37
4726.00,0.37
4725.00,0.37
4724.00,0.37
4723.00,0.38
4722.00,0.38
4721.00,0.38
4720.00,0.38
4719.00,0.38
4718.00,0.38
4717.00,0.38
4716.00,0.38
4715.00,0.38
4714.00,0.38
4713.00,0.38
4712.00,0.38
4711.00,0.38
4710.00,0.38
4709.00,0.38
4708.00,0.38
4707.00,0.38
4706.00,0.39
4705.00,0.39
4704.00,0.39
4703.00,0.39
4702.00,0.39
4701.00,0.39
4700.00,0.39
4699.00,0.39
4698.00,0.39
4697.00,0.39
4696.00,0.39
4695.00,0.39
4694.00,0.39
4693.00,0.39
4692.00,0.39
4691.00,0.39
4690.00,0.39
4689.00,0.39
4688.00,0.39
4687.00,0.40
4686.00,0.40
4685.00,0.40
4684.00,0.40
4683.00,0.40
4682.00,0.40
4681.00,0.40
4680.00,0.40
4679.00,0.40
4678.00,0.40
4677.00,0.40
4676.00,0.40
4675.00,0.40
4674.00,0.40
4673.00,0.40
4672.00,0.40
4671.00,0.41
4670.00,0.41
4669.00,0.41
4668.00,0.41
4667.00,0.41
4666.00,0.41
4665.00,0.41
4664.00,0.41
4663.00,0.41
4662.00,0.41
4661.00,0.41
4660.00,0.41
4659.00,0.41
4658.00,0.41
4657.00,0.41
4656.00,0.41
4655.00,0.41
4654.00,0.41
4653.00,0.41
4652.00,0.41
4651.00,0.41
4650.00,0.41
4649.00,0.41
4648.00,0.41
4647.00,0.42
4646.00,0.42
4645.00,0.42
4644.00,0.42
4643.00,0.42
4642.00,0.42
4641.00,0.42
4640.00,0.42
4639.00,0.42
4638.00,0.42
4637.00,0.42
4636.00,0.42
4635.00,0.42
4634.00,0.42
4633.00,0.42
4632.00,0.42
4631.00,0.42
4630.00,0.42
4629.00,0.42
4628.00,0.42
4627.00,0.42
4626.00,0.42
4625.00,0.42
4624.00,0.42
4623.00,0.42
4622.00,0.42
4621.00,0.42
4620.00,0.42
4619.00,0.42
4618.00,0.42
4617.00,0.42
4616.00,0.42
4615.00,0.42
4614.00,0.43
4613.00,0.43
4612.00,0.43
4611.00,0.43
4610.00,0.43
4609.00,0.43
4608.00,0.43
4607.00,0.43
4606.00,0.43
4605.00,0.43
4604.00,0.43
4603.00,0.43
4602.00,0.43
4601.00,0.43
4600.00,0.43
4599.00,0.43
4598.00,0.43
4597.00,0.43
4596.00,0.43
4595.00,0.43
4594.00,0.43
4593.00,0.43
4592.00,0.43
4591.00,0.43
4590.00,0.43
4589.00,0.43
4588.00,0.43
4587.00,0.43
4586.00,0.43
4585.00,0.43
4584.00,0.43
4583.00,0.43
4582.00,0.43
4581.00,0.43
4580.00,0.43
4579.00,0.43
4578.00,0.43
4577.00,0.44
4576.00,0.44
4575.00,0.44
4574.00,0.44
4573.00,0.44
4572.00,0.44
4571.00,0.44
4570.00,0.44
4569.00,0.44
4568.00,0.44
4567.00,0.44
4566.00,0.44
4565.00,0.44
4564.00,0.44
4563.00,0.44
4562.00,0.44
4561.00,0.44
4560.00,0.44
4559.00,0.44
4558.00,0.44
4557.00,0.44
4556.00,0.44
4555.00,0.44
4554.00,0.44
4553.00,0.44
4552.00,0.45
4551.00,0.45
4550.00,0.45
4549.00,0.45
4548.00,0.45
4547.00,0.45
4546.00,0.45
4545.00,0.45
4544.00,0.45
4543.00,0.45
4542.00,0.45
4541.00,0.45
4540.00,0.45
4539.00,0.45
4538.00,0.45
4537.00,0.45
4536.00,0.45
4535.00,0.45
4534.00,0.45
4533.00,0.45
4532.00,0.45
4531.00,0.45
4530.00,0.45
4529.00,0.45
4528.00,0.45
4527.00,0.45
4526.00,0.45
4525.00,0.45
4524.00,0.45
4523.00,0.45
4522.00,0.45
4521.00,0.45
4520.00,0.45
4519.00,0.45
4518.00,0.45
4517.00,0.45
4516.00,0.45
4515.00,0.45
4514.00,0.45
4513.00,0.45
4512.00,0.45
4511.00,0.45
4510.00,0.45
4509.00,0.45
4508.00,0.45
4507.00,0.45
4506.00,0.45
4505.00,0.45
4504.00,0.45
4503.00,0.45
4502.00,0.45
4501.00,0.45
4500.00,0.45
4499.00,0.45
4498.00,0.45
4497.00,0.45
4496.00,0.45
4495.00,0.45
4494.00,0.45
4493.00,0.45
4492.00,0.45
4491.00,0.45
4490.00,0.45
4489.00,0.45
4488.00,0.45
4487.00,0.45
4486.00,0.45
4485.00,0.45
4484.00,0.45
4483.00,0.45
4482.00,0.45
4481.00,0.45
4480.00,0.45
4479.00,0.45
4478.00,0.44
4477.00,0.44
4476.00,0.44
4475.00,0.44
4474.00,0.44
4473.00,0.44
4472.00,0.44
4471.00,0.44
4470.00,0.44
4469.00,0.44
4468.00,0.44
4467.00,0.43
4466.00,0.43
4465.00,0.43
4464.00,0.43
4463.00,0.43
4462.00,0.43
4461.00,0.43
4460.00,0.43
4459.00,0.43
4458.00,0.42
4457.00,0.42
4456.00,0.42
4455.00,0.42
4454.00,0.42
4453.00,0.42
4452.00,0.42
4451.00,0.42
4450.00,0.41
4449.00,0.41
4448.00,0.41
4447.00,0.41
4446.00,0.41
4445.00,0.41
4444.00,0.40
4443.00,0.40
4442.00,0.40
4441.00,0.40
4440.00,0.40
4439.00,0.40
4438.00,0.40
4437.00,0.40
4436.00,0.39
4435.00,0.39
4434.00,0.39
4433.00,0.39
4432.00,0.39
4431.00,0.39
4430.00,0.39
4429.00,0.39
4428.00,0.39
4427.00,0.39
4426.00,0.39
4425.00,0.39
4424.00,0.39
4423.00,0.38
4422.00,0.38
4421.00,0.38
4420.00,0.38
4419.00,0.38
4418.00,0.38
4417.00,0.38
4416.00,0.38
4415.00,0.38
4414.00,0.38
4413.00,0.38
4412.00,0.38
4411.00,0.38
4410.00,0.38
4409.00,0.38
4408.00,0.38
4407.00,0.38
4406.00,0.39
4405.00,0.39
4404.00,0.39
4403.00,0.39
4402.00,0.39
4401.00,0.39
4400.00,0.39
4399.00,0.39
4398.00,0.39
4397.00,0.39
4396.00,0.39
4395.00,0.39
4394.00,0.39
4393.00,0.39
4392.00,0.39
4391.00,0.39
4390.00,0.39
4389.00,0.39
4388.00,0.39
4387.00,0.39
4386.00,0.39
4385.00,0.39
4384.00,0.39
4383.00,0.39
4382.00,0.39
4381.00,0.39
4380.00,0.39
4379.00,0.40
4378.00,0.40
4377.00,0.40
4376.00,0.40
4375.00,0.40
4374.00,0.40
4373.00,0.40
4372.00,0.40
4371.00,0.40
4370.00,0.40
4369.00,0.40
4368.00,0.40
4367.00,0.40
4366.00,0.40
4365.00,0.40
4364.00,0.40
4363.00,0.40
4362.00,0.40
4361.00,0.40
4360.00,0.40
4359.00,0.40
4358.00,0.40
4357.00,0.40
4356.00,0.40
4355.00,0.40
4354.00,0.40
4353.00,0.40
4352.00,0.40
4351.00,0.40
4350.00,0.40
4349.00,0.40
4348.00,0.40
4347.00,0.40
4346.00,0.40
4345.00,0.40
4344.00,0.40
4343.00,0.40
4342.00,0.40
4341.00,0.40
4340.00,0.40
4339.00,0.40
4338.00,0.40
4337.00,0.40
4336.00,0.40
4335.00,0.40
4334.00,0.40
4333.00,0.40
4332.00,0.40
4331.00,0.40
4330.00,0.40
4329.00,0.40
4328.00,0.40
4327.00,0.40
4326.00,0.41
4325.00,0.41
4324.00,0.41
4323.00,0.41
4322.00,0.41
4321.00,0.41
4320.00,0.41
4319.00,0.41
4318.00,0.41
4317.00,0.41
4316.00,0.41
4315.00,0.41
4314.00,0.41
4313.00,0.41
4312.00,0.41
4311.00,0.41
4310.00,0.41
4309.00,0.41
4308.00,0.41
4307.00,0.41
4306.00,0.41
4305.00,0.41
4304.00,0.41
4303.00,0.41
4302.00,0.41
4301.00,0.42
4300.00,0.42
4299.00,0.42
4298.00,0.42
4297.00,0.42
4296.00,0.42
4295.00,0.42
4294.00,0.42
4293.00,0.42
4292.00,0.42
4291.00,0.42
4290.00,0.42
4289.00,0.42
4288.00,0.42
4287.00,0.42
4286.00,0.42
4285.00,0.42
4284.00,0.43
4283.00,0.43
4282.00,0.43
4281.00,0.43
4280.00,0.43
4279.00,0.43
4278.00,0.43
4277.00,0.43
4276.00,0.43
4275.00,0.43
4274.00,0.43
4273.00,0.43
4272.00,0.43
4271.00,0.43
4270.00,0.43
4269.00,0.43
4268.00,0.43
4267.00,0.43
4266.00,0.43
4265.00,0.43
4264.00,0.43
4263.00,0.43
4262.00,0.43
4261.00,0.43
4260.00,0.43
4259.00,0.43
4258.00,0.43
4257.00,0.43
4256.00,0.43
4255.00,0.43
4254.00,0.43
4253.00,0.43
4252.00,0.43
4251.00,0.43
4250.00,0.43
4249.00,0.43
4248.00,0.43
4247.00,0.43
4246.00,0.43
4245.00,0.43
4244.00,0.43
4243.00,0.43
4242.00,0.43
4241.00,0.43
4240.00,0.43
4239.00,0.43
4238.00,0.43
4237.00,0.43
4236.00,0.43
4235.00,0.43
4234.00,0.43
4233.00,0.43
4232.00,0.43
4231.00,0.43
4230.00,0.43
4229.00,0.43
4228.00,0.43
4227.00,0.43
4226.00,0.43
4225.00,0.43
4224.00,0.43
4223.00,0.43
4222.00,0.43
4221.00,0.44
4220.00,0.44
4219.00,0.44
4218.00,0.44
4217.00,0.44
4216.00,0.44
4215.00,0.44
4214.00,0.44
4213.00,0.44
4212.00,0.44
4211.00,0.44
4210.00,0.44
4209.00,0.44
4208.00,0.44
4207.00,0.44
4206.00,0.44
4205.00,0.44
4204.00,0.44
4203.00,0.44
4202.00,0.44
4201.00,0.44
4200.00,0.44
4199.00,0.44
4198.00,0.44
4197.00,0.44
4196.00,0.44
4195.00,0.44
4194.00,0.44
4193.00,0.44
4192.00,0.44
4191.00,0.44
4190.00,0.44
4189.00,0.44
4188.00,0.44
4187.00,0.44
4186.00,0.44
4185.00,0.44
4184.00,0.44
4183.00,0.44
4182.00,0.44
4181.00,0.44
4180.00,0.44
4179.00,0.44
4178.00,0.44
4177.00,0.45
4176.00,0.45
4175.00,0.45
4174.00,0.45
4173.00,0.45
4172.00,0.45
4171.00,0.45
4170.00,0.44
4169.00,0.44
4168.00,0.44
4167.00,0.44
4166.00,0.44
4165.00,0.44
4164.00,0.44
4163.00,0.44
4162.00,0.44
4161.00,0.44
4160.00,0.44
4159.00,0.44
4158.00,0.44
4157.00,0.44
4156.00,0.44
4155.00,0.44
4154.00,0.44
4153.00,0.44
4152.00,0.44
4151.00,0.44
4150.00,0.44
4149.00,0.44
4148.00,0.44
4147.00,0.44
4146.00,0.44
4145.00,0.44
4144.00,0.44
4143.00,0.44
4142.00,0.44
4141.00,0.45
4140.00,0.45
4139.00,0.45
4138.00,0.45
4137.00,0.45
4136.00,0.45
4135.00,0.45
4134.00,0.45
4133.00,0.45
4132.00,0.45
4131.00,0.45
4130.00,0.45
4129.00,0.45
4128.00,0.45
4127.00,0.45
4126.00,0.45
4125.00,0.45
4124.00,0.45
4123.00,0.45
4122.00,0.45
4121.00,0.45
4120.00,0.45
4119.00,0.45
4118.00,0.45
4117.00,0.45
4116.00,0.45
4115.00,0.45
4114.00,0.45
4113.00,0.45
4112.00,0.45
4111.00,0.45
4110.00,0.45
4109.00,0.45
4108.00,0.45
4107.00,0.45
4106.00,0.46
4105.00,0.46
4104.00,0.46
4103.00,0.46
4102.00,0.46
4101.00,0.46
4100.00,0.46
4099.00,0.46
4098.00,0.46
4097.00,0.46
4096.00,0.46
4095.00,0.46
4094.00,0.46
4093.00,0.46
4092.00,0.46
4091.00,0.46
4090.00,0.46
4089.00,0.46
4088.00,0.46
4087.00,0.46
4086.00,0.46
4085.00,0.46
4084.00,0.46
4083.00,0.46
4082.00,0.46
4081.00,0.47
4080.00,0.47
4079.00,0.47
4078.00,0.47
4077.00,0.47
4076.00,0.47
4075.00,0.46
4074.00,0.46
4073.00,0.46
4072.00,0.46
4071.00,0.46
4070.00,0.46
4069.00,0.46
4068.00,0.46
4067.00,0.46
4066.00,0.47
4065.00,0.47
4064.00,0.47
4063.00,0.47
4062.00,0.47
4061.00,0.47
4060.00,0.47
4059.00,0.47
4058.00,0.47
4057.00,0.47
4056.00,0.47
4055.00,0.47
4054.00,0.47
4053.00,0.47
4052.00,0.47
4051.00,0.47
4050.00,0.47
4049.00,0.47
4048.00,0.47
4047.00,0.47
4046.00,0.47
4045.00,0.47
4044.00,0.47
4043.00,0.47
4042.00,0.47
4041.00,0.47
4040.00,0.47
4039.00,0.47
4038.00,0.47
4037.00,0.48
4036.00,0.48
4035.00,0.48
4034.00,0.48
4033.00,0.48
4032.00,0.48
4031.00,0.48
4030.00,0.48
4029.00,0.48
4028.00,0.48
4027.00,0.48
4026.00,0.48
4025.00,0.48
4024.00,0.48
4023.00,0.48
4022.00,0.48
4021.00,0.48
4020.00,0.47
4019.00,0.47
4018.00,0.47
4017.00,0.47
4016.00,0.47
4015.00,0.47
4014.00,0.47
4013.00,0.47
4012.00,0.47
4011.00,0.47
4010.00,0.48
4009.00,0.48
4008.00,0.48
4007.00,0.48
4006.00,0.48
4005.00,0.48
4004.00,0.48
4003.00,0.48
4002.00,0.48
4001.00,0.48
4000.00,0.48
