创建为新数据集,样品 480 用户 Administrator 日期 星期日, 七月 15 2018
cm-1,%T
10000.00,0.72
9999.00,0.72
9998.00,0.72
9997.00,0.71
9996.00,0.71
9995.00,0.71
9994.00,0.71
9993.00,0.71
9992.00,0.71
9991.00,0.71
9990.00,0.71
9989.00,0.71
9988.00,0.71
9987.00,0.71
9986.00,0.71
9985.00,0.71
9984.00,0.72
9983.00,0.72
9982.00,0.72
9981.00,0.72
9980.00,0.72
9979.00,0.72
9978.00,0.72
9977.00,0.72
9976.00,0.72
9975.00,0.72
9974.00,0.71
9973.00,0.71
9972.00,0.71
9971.00,0.71
9970.00,0.70
9969.00,0.70
9968.00,0.70
9967.00,0.70
9966.00,0.69
9965.00,0.69
9964.00,0.69
9963.00,0.69
9962.00,0.69
9961.00,0.69
9960.00,0.69
9959.00,0.69
9958.00,0.69
9957.00,0.69
9956.00,0.69
9955.00,0.69
9954.00,0.70
9953.00,0.70
9952.00,0.70
9951.00,0.70
9950.00,0.70
9949.00,0.70
9948.00,0.70
9947.00,0.71
9946.00,0.71
9945.00,0.71
9944.00,0.71
9943.00,0.71
9942.00,0.71
9941.00,0.71
9940.00,0.71
9939.00,0.71
9938.00,0.72
9937.00,0.72
9936.00,0.72
9935.00,0.72
9934.00,0.72
9933.00,0.72
9932.00,0.72
9931.00,0.72
9930.00,0.72
9929.00,0.72
9928.00,0.72
9927.00,0.72
9926.00,0.72
9925.00,0.72
9924.00,0.72
9923.00,0.72
9922.00,0.71
9921.00,0.71
9920.00,0.71
9919.00,0.71
9918.00,0.71
9917.00,0.71
9916.00,0.70
9915.00,0.70
9914.00,0.70
9913.00,0.69
9912.00,0.69
9911.00,0.68
9910.00,0.68
9909.00,0.68
9908.00,0.67
9907.00,0.67
9906.00,0.66
9905.00,0.66
9904.00,0.66
9903.00,0.65
9902.00,0.65
9901.00,0.65
9900.00,0.65
9899.00,0.65
9898.00,0.65
9897.00,0.65
9896.00,0.65
9895.00,0.65
9894.00,0.66
9893.00,0.66
9892.00,0.66
9891.00,0.66
9890.00,0.67
9889.00,0.67
9888.00,0.67
9887.00,0.67
9886.00,0.68
9885.00,0.68
9884.00,0.68
9883.00,0.68
9882.00,0.68
9881.00,0.68
9880.00,0.68
9879.00,0.68
9878.00,0.68
9877.00,0.69
9876.00,0.69
9875.00,0.69
9874.00,0.69
9873.00,0.69
9872.00,0.69
9871.00,0.69
9870.00,0.69
9869.00,0.69
9868.00,0.70
9867.00,0.70
9866.00,0.70
9865.00,0.70
9864.00,0.70
9863.00,0.70
9862.00,0.70
9861.00,0.70
9860.00,0.70
9859.00,0.70
9858.00,0.69
9857.00,0.69
9856.00,0.69
9855.00,0.68
9854.00,0.68
9853.00,0.68
9852.00,0.67
9851.00,0.67
9850.00,0.67
9849.00,0.67
9848.00,0.66
9847.00,0.66
9846.00,0.66
9845.00,0.66
9844.00,0.66
9843.00,0.66
9842.00,0.66
9841.00,0.66
9840.00,0.66
9839.00,0.66
9838.00,0.67
9837.00,0.67
9836.00,0.67
9835.00,0.68
9834.00,0.68
9833.00,0.68
9832.00,0.68
9831.00,0.68
9830.00,0.69
9829.00,0.69
9828.00,0.69
9827.00,0.69
9826.00,0.69
9825.00,0.69
9824.00,0.69
9823.00,0.68
9822.00,0.68
9821.00,0.68
9820.00,0.68
9819.00,0.67
9818.00,0.67
9817.00,0.67
9816.00,0.66
9815.00,0.66
9814.00,0.66
9813.00,0.66
9812.00,0.66
9811.00,0.66
9810.00,0.66
9809.00,0.66
9808.00,0.67
9807.00,0.67
9806.00,0.67
9805.00,0.68
9804.00,0.68
9803.00,0.68
9802.00,0.69
9801.00,0.69
9800.00,0.69
9799.00,0.69
9798.00,0.70
9797.00,0.70
9796.00,0.70
9795.00,0.70
9794.00,0.71
9793.00,0.71
9792.00,0.71
9791.00,0.71
9790.00,0.71
9789.00,0.71
9788.00,0.71
9787.00,0.71
9786.00,0.71
9785.00,0.71
9784.00,0.71
9783.00,0.71
9782.00,0.71
9781.00,0.71
9780.00,0.71
9779.00,0.71
9778.00,0.71
9777.00,0.71
9776.00,0.71
9775.00,0.70
9774.00,0.70
9773.00,0.70
9772.00,0.70
9771.00,0.69
9770.00,0.69
9769.00,0.69
9768.00,0.69
9767.00,0.69
9766.00,0.68
9765.00,0.68
9764.00,0.68
9763.00,0.68
9762.00,0.68
9761.00,0.68
9760.00,0.68
9759.00,0.68
9758.00,0.69
9757.00,0.69
9756.00,0.69
9755.00,0.69
9754.00,0.70
9753.00,0.70
9752.00,0.70
9751.00,0.70
9750.00,0.70
9749.00,0.70
9748.00,0.70
9747.00,0.70
9746.00,0.70
9745.00,0.70
9744.00,0.70
9743.00,0.70
9742.00,0.70
9741.00,0.69
9740.00,0.69
9739.00,0.69
9738.00,0.68
9737.00,0.68
9736.00,0.68
9735.00,0.68
9734.00,0.68
9733.00,0.68
9732.00,0.67
9731.00,0.67
9730.00,0.67
9729.00,0.67
9728.00,0.68
9727.00,0.68
9726.00,0.68
9725.00,0.68
9724.00,0.68
9723.00,0.69
9722.00,0.69
9721.00,0.69
9720.00,0.70
9719.00,0.70
9718.00,0.70
9717.00,0.71
9716.00,0.71
9715.00,0.71
9714.00,0.71
9713.00,0.71
9712.00,0.71
9711.00,0.71
9710.00,0.71
9709.00,0.71
9708.00,0.70
9707.00,0.70
9706.00,0.69
9705.00,0.69
9704.00,0.68
9703.00,0.68
9702.00,0.67
9701.00,0.67
9700.00,0.66
9699.00,0.66
9698.00,0.65
9697.00,0.65
9696.00,0.64
9695.00,0.64
9694.00,0.64
9693.00,0.63
9692.00,0.63
9691.00,0.63
9690.00,0.63
9689.00,0.63
9688.00,0.63
9687.00,0.63
9686.00,0.63
9685.00,0.63
9684.00,0.63
9683.00,0.63
9682.00,0.63
9681.00,0.64
9680.00,0.64
9679.00,0.64
9678.00,0.64
9677.00,0.65
9676.00,0.65
9675.00,0.65
9674.00,0.66
9673.00,0.66
9672.00,0.66
9671.00,0.66
9670.00,0.67
9669.00,0.67
9668.00,0.67
9667.00,0.67
9666.00,0.67
9665.00,0.68
9664.00,0.68
9663.00,0.68
9662.00,0.68
9661.00,0.68
9660.00,0.69
9659.00,0.69
9658.00,0.69
9657.00,0.69
9656.00,0.69
9655.00,0.69
9654.00,0.69
9653.00,0.69
9652.00,0.69
9651.00,0.69
9650.00,0.69
9649.00,0.69
9648.00,0.68
9647.00,0.68
9646.00,0.68
9645.00,0.68
9644.00,0.68
9643.00,0.67
9642.00,0.67
9641.00,0.67
9640.00,0.67
9639.00,0.67
9638.00,0.67
9637.00,0.67
9636.00,0.67
9635.00,0.67
9634.00,0.66
9633.00,0.66
9632.00,0.67
9631.00,0.67
9630.00,0.67
9629.00,0.67
9628.00,0.67
9627.00,0.67
9626.00,0.67
9625.00,0.67
9624.00,0.67
9623.00,0.68
9622.00,0.68
9621.00,0.68
9620.00,0.68
9619.00,0.68
9618.00,0.68
9617.00,0.68
9616.00,0.68
9615.00,0.68
9614.00,0.68
9613.00,0.68
9612.00,0.67
9611.00,0.67
9610.00,0.67
9609.00,0.67
9608.00,0.67
9607.00,0.66
9606.00,0.66
9605.00,0.66
9604.00,0.66
9603.00,0.66
9602.00,0.66
9601.00,0.66
9600.00,0.66
9599.00,0.66
9598.00,0.66
9597.00,0.66
9596.00,0.66
9595.00,0.66
9594.00,0.66
9593.00,0.66
9592.00,0.66
9591.00,0.66
9590.00,0.66
9589.00,0.66
9588.00,0.67
9587.00,0.67
9586.00,0.67
9585.00,0.67
9584.00,0.67
9583.00,0.67
9582.00,0.67
9581.00,0.67
9580.00,0.67
9579.00,0.67
9578.00,0.67
9577.00,0.67
9576.00,0.67
9575.00,0.67
9574.00,0.67
9573.00,0.67
9572.00,0.67
9571.00,0.67
9570.00,0.67
9569.00,0.67
9568.00,0.67
9567.00,0.67
9566.00,0.67
9565.00,0.67
9564.00,0.67
9563.00,0.67
9562.00,0.66
9561.00,0.66
9560.00,0.66
9559.00,0.66
9558.00,0.66
9557.00,0.66
9556.00,0.66
9555.00,0.66
9554.00,0.66
9553.00,0.66
9552.00,0.66
9551.00,0.66
9550.00,0.66
9549.00,0.66
9548.00,0.66
9547.00,0.66
9546.00,0.67
9545.00,0.67
9544.00,0.67
9543.00,0.67
9542.00,0.67
9541.00,0.67
9540.00,0.67
9539.00,0.67
9538.00,0.67
9537.00,0.67
9536.00,0.67
9535.00,0.67
9534.00,0.67
9533.00,0.67
9532.00,0.67
9531.00,0.67
9530.00,0.67
9529.00,0.67
9528.00,0.67
9527.00,0.67
9526.00,0.67
9525.00,0.67
9524.00,0.67
9523.00,0.67
9522.00,0.68
9521.00,0.68
9520.00,0.68
9519.00,0.68
9518.00,0.68
9517.00,0.69
9516.00,0.69
9515.00,0.69
9514.00,0.69
9513.00,0.69
9512.00,0.69
9511.00,0.69
9510.00,0.69
9509.00,0.69
9508.00,0.69
9507.00,0.69
9506.00,0.69
9505.00,0.69
9504.00,0.69
9503.00,0.69
9502.00,0.69
9501.00,0.68
9500.00,0.68
9499.00,0.68
9498.00,0.68
9497.00,0.68
9496.00,0.68
9495.00,0.68
9494.00,0.68
9493.00,0.68
9492.00,0.68
9491.00,0.68
9490.00,0.68
9489.00,0.68
9488.00,0.68
9487.00,0.68
9486.00,0.68
9485.00,0.67
9484.00,0.67
9483.00,0.67
9482.00,0.67
9481.00,0.67
9480.00,0.67
9479.00,0.67
9478.00,0.67
9477.00,0.67
9476.00,0.67
9475.00,0.67
9474.00,0.68
9473.00,0.68
9472.00,0.68
9471.00,0.69
9470.00,0.69
9469.00,0.69
9468.00,0.70
9467.00,0.70
9466.00,0.70
9465.00,0.70
9464.00,0.70
9463.00,0.70
9462.00,0.70
9461.00,0.70
9460.00,0.70
9459.00,0.70
9458.00,0.70
9457.00,0.70
9456.00,0.69
9455.00,0.69
9454.00,0.69
9453.00,0.69
9452.00,0.68
9451.00,0.68
9450.00,0.68
9449.00,0.68
9448.00,0.68
9447.00,0.68
9446.00,0.68
9445.00,0.68
9444.00,0.67
9443.00,0.67
9442.00,0.67
9441.00,0.67
9440.00,0.67
9439.00,0.67
9438.00,0.67
9437.00,0.67
9436.00,0.67
9435.00,0.67
9434.00,0.67
9433.00,0.67
9432.00,0.67
9431.00,0.68
9430.00,0.68
9429.00,0.68
9428.00,0.68
9427.00,0.68
9426.00,0.68
9425.00,0.69
9424.00,0.69
9423.00,0.69
9422.00,0.69
9421.00,0.70
9420.00,0.70
9419.00,0.70
9418.00,0.70
9417.00,0.71
9416.00,0.71
9415.00,0.71
9414.00,0.71
9413.00,0.71
9412.00,0.72
9411.00,0.72
9410.00,0.72
9409.00,0.72
9408.00,0.72
9407.00,0.72
9406.00,0.72
9405.00,0.72
9404.00,0.71
9403.00,0.71
9402.00,0.71
9401.00,0.71
9400.00,0.70
9399.00,0.70
9398.00,0.69
9397.00,0.69
9396.00,0.69
9395.00,0.68
9394.00,0.68
9393.00,0.68
9392.00,0.68
9391.00,0.67
9390.00,0.67
9389.00,0.67
9388.00,0.67
9387.00,0.67
9386.00,0.67
9385.00,0.67
9384.00,0.67
9383.00,0.67
9382.00,0.67
9381.00,0.68
9380.00,0.68
9379.00,0.68
9378.00,0.68
9377.00,0.68
9376.00,0.69
9375.00,0.69
9374.00,0.69
9373.00,0.69
9372.00,0.69
9371.00,0.70
9370.00,0.70
9369.00,0.70
9368.00,0.70
9367.00,0.70
9366.00,0.70
9365.00,0.70
9364.00,0.70
9363.00,0.70
9362.00,0.70
9361.00,0.70
9360.00,0.70
9359.00,0.70
9358.00,0.70
9357.00,0.70
9356.00,0.70
9355.00,0.69
9354.00,0.69
9353.00,0.69
9352.00,0.69
9351.00,0.69
9350.00,0.69
9349.00,0.69
9348.00,0.70
9347.00,0.70
9346.00,0.70
9345.00,0.70
9344.00,0.70
9343.00,0.70
9342.00,0.70
9341.00,0.70
9340.00,0.70
9339.00,0.70
9338.00,0.70
9337.00,0.70
9336.00,0.70
9335.00,0.70
9334.00,0.70
9333.00,0.70
9332.00,0.70
9331.00,0.70
9330.00,0.70
9329.00,0.70
9328.00,0.69
9327.00,0.69
9326.00,0.69
9325.00,0.69
9324.00,0.68
9323.00,0.68
9322.00,0.68
9321.00,0.68
9320.00,0.68
9319.00,0.67
9318.00,0.67
9317.00,0.67
9316.00,0.67
9315.00,0.67
9314.00,0.67
9313.00,0.67
9312.00,0.67
9311.00,0.67
9310.00,0.67
9309.00,0.67
9308.00,0.67
9307.00,0.67
9306.00,0.68
9305.00,0.68
9304.00,0.68
9303.00,0.68
9302.00,0.68
9301.00,0.69
9300.00,0.69
9299.00,0.69
9298.00,0.69
9297.00,0.69
9296.00,0.69
9295.00,0.69
9294.00,0.69
9293.00,0.69
9292.00,0.69
9291.00,0.69
9290.00,0.69
9289.00,0.69
9288.00,0.69
9287.00,0.69
9286.00,0.69
9285.00,0.68
9284.00,0.68
9283.00,0.68
9282.00,0.68
9281.00,0.68
9280.00,0.68
9279.00,0.67
9278.00,0.67
9277.00,0.67
9276.00,0.67
9275.00,0.67
9274.00,0.67
9273.00,0.66
9272.00,0.66
9271.00,0.66
9270.00,0.66
9269.00,0.66
9268.00,0.66
9267.00,0.66
9266.00,0.67
9265.00,0.67
9264.00,0.67
9263.00,0.67
9262.00,0.67
9261.00,0.67
9260.00,0.68
9259.00,0.68
9258.00,0.68
9257.00,0.68
9256.00,0.68
9255.00,0.69
9254.00,0.69
9253.00,0.69
9252.00,0.69
9251.00,0.69
9250.00,0.69
9249.00,0.69
9248.00,0.69
9247.00,0.69
9246.00,0.69
9245.00,0.69
9244.00,0.69
9243.00,0.69
9242.00,0.69
9241.00,0.69
9240.00,0.69
9239.00,0.69
9238.00,0.69
9237.00,0.69
9236.00,0.69
9235.00,0.69
9234.00,0.69
9233.00,0.68
9232.00,0.68
9231.00,0.68
9230.00,0.68
9229.00,0.68
9228.00,0.67
9227.00,0.67
9226.00,0.67
9225.00,0.67
9224.00,0.66
9223.00,0.66
9222.00,0.66
9221.00,0.66
9220.00,0.66
9219.00,0.65
9218.00,0.65
9217.00,0.65
9216.00,0.65
9215.00,0.65
9214.00,0.65
9213.00,0.65
9212.00,0.65
9211.00,0.65
9210.00,0.65
9209.00,0.66
9208.00,0.66
9207.00,0.66
9206.00,0.66
9205.00,0.66
9204.00,0.67
9203.00,0.67
9202.00,0.67
9201.00,0.68
9200.00,0.68
9199.00,0.68
9198.00,0.68
9197.00,0.68
9196.00,0.69
9195.00,0.69
9194.00,0.69
9193.00,0.69
9192.00,0.69
9191.00,0.69
9190.00,0.69
9189.00,0.68
9188.00,0.68
9187.00,0.68
9186.00,0.68
9185.00,0.68
9184.00,0.68
9183.00,0.68
9182.00,0.68
9181.00,0.68
9180.00,0.68
9179.00,0.68
9178.00,0.68
9177.00,0.68
9176.00,0.68
9175.00,0.68
9174.00,0.68
9173.00,0.68
9172.00,0.68
9171.00,0.68
9170.00,0.68
9169.00,0.68
9168.00,0.68
9167.00,0.68
9166.00,0.68
9165.00,0.68
9164.00,0.68
9163.00,0.68
9162.00,0.67
9161.00,0.67
9160.00,0.67
9159.00,0.67
9158.00,0.67
9157.00,0.67
9156.00,0.68
9155.00,0.68
9154.00,0.68
9153.00,0.68
9152.00,0.68
9151.00,0.68
9150.00,0.69
9149.00,0.69
9148.00,0.69
9147.00,0.69
9146.00,0.69
9145.00,0.70
9144.00,0.70
9143.00,0.70
9142.00,0.70
9141.00,0.70
9140.00,0.70
9139.00,0.70
9138.00,0.71
9137.00,0.71
9136.00,0.71
9135.00,0.71
9134.00,0.71
9133.00,0.71
9132.00,0.72
9131.00,0.72
9130.00,0.72
9129.00,0.72
9128.00,0.72
9127.00,0.72
9126.00,0.72
9125.00,0.72
9124.00,0.72
9123.00,0.72
9122.00,0.72
9121.00,0.72
9120.00,0.72
9119.00,0.72
9118.00,0.71
9117.00,0.71
9116.00,0.71
9115.00,0.71
9114.00,0.71
9113.00,0.71
9112.00,0.70
9111.00,0.70
9110.00,0.70
9109.00,0.70
9108.00,0.70
9107.00,0.70
9106.00,0.70
9105.00,0.69
9104.00,0.69
9103.00,0.69
9102.00,0.69
9101.00,0.69
9100.00,0.69
9099.00,0.69
9098.00,0.69
9097.00,0.69
9096.00,0.70
9095.00,0.70
9094.00,0.70
9093.00,0.70
9092.00,0.70
9091.00,0.70
9090.00,0.70
9089.00,0.70
9088.00,0.70
9087.00,0.70
9086.00,0.70
9085.00,0.70
9084.00,0.70
9083.00,0.70
9082.00,0.70
9081.00,0.70
9080.00,0.70
9079.00,0.70
9078.00,0.70
9077.00,0.70
9076.00,0.70
9075.00,0.70
9074.00,0.70
9073.00,0.70
9072.00,0.70
9071.00,0.70
9070.00,0.70
9069.00,0.70
9068.00,0.70
9067.00,0.70
9066.00,0.70
9065.00,0.70
9064.00,0.70
9063.00,0.70
9062.00,0.70
9061.00,0.71
9060.00,0.71
9059.00,0.71
9058.00,0.71
9057.00,0.71
9056.00,0.71
9055.00,0.71
9054.00,0.71
9053.00,0.71
9052.00,0.71
9051.00,0.71
9050.00,0.71
9049.00,0.72
9048.00,0.72
9047.00,0.72
9046.00,0.72
9045.00,0.72
9044.00,0.72
9043.00,0.72
9042.00,0.72
9041.00,0.72
9040.00,0.72
9039.00,0.72
9038.00,0.72
9037.00,0.72
9036.00,0.72
9035.00,0.72
9034.00,0.71
9033.00,0.71
9032.00,0.71
9031.00,0.71
9030.00,0.71
9029.00,0.70
9028.00,0.70
9027.00,0.70
9026.00,0.70
9025.00,0.70
9024.00,0.69
9023.00,0.69
9022.00,0.69
9021.00,0.69
9020.00,0.69
9019.00,0.69
9018.00,0.69
9017.00,0.69
9016.00,0.68
9015.00,0.68
9014.00,0.68
9013.00,0.68
9012.00,0.68
9011.00,0.68
9010.00,0.68
9009.00,0.68
9008.00,0.68
9007.00,0.68
9006.00,0.68
9005.00,0.69
9004.00,0.69
9003.00,0.69
9002.00,0.69
9001.00,0.69
9000.00,0.69
8999.00,0.69
8998.00,0.69
8997.00,0.69
8996.00,0.69
8995.00,0.69
8994.00,0.69
8993.00,0.69
8992.00,0.69
8991.00,0.69
8990.00,0.69
8989.00,0.69
8988.00,0.69
8987.00,0.69
8986.00,0.69
8985.00,0.69
8984.00,0.69
8983.00,0.69
8982.00,0.69
8981.00,0.69
8980.00,0.69
8979.00,0.69
8978.00,0.69
8977.00,0.69
8976.00,0.69
8975.00,0.69
8974.00,0.69
8973.00,0.69
8972.00,0.70
8971.00,0.70
8970.00,0.70
8969.00,0.70
8968.00,0.70
8967.00,0.70
8966.00,0.70
8965.00,0.70
8964.00,0.70
8963.00,0.70
8962.00,0.70
8961.00,0.70
8960.00,0.70
8959.00,0.70
8958.00,0.70
8957.00,0.70
8956.00,0.70
8955.00,0.70
8954.00,0.70
8953.00,0.70
8952.00,0.70
8951.00,0.70
8950.00,0.70
8949.00,0.70
8948.00,0.70
8947.00,0.70
8946.00,0.70
8945.00,0.70
8944.00,0.70
8943.00,0.69
8942.00,0.69
8941.00,0.69
8940.00,0.69
8939.00,0.69
8938.00,0.69
8937.00,0.69
8936.00,0.69
8935.00,0.69
8934.00,0.69
8933.00,0.69
8932.00,0.69
8931.00,0.69
8930.00,0.68
8929.00,0.68
8928.00,0.68
8927.00,0.68
8926.00,0.68
8925.00,0.68
8924.00,0.68
8923.00,0.68
8922.00,0.68
8921.00,0.68
8920.00,0.68
8919.00,0.68
8918.00,0.68
8917.00,0.68
8916.00,0.68
8915.00,0.68
8914.00,0.69
8913.00,0.69
8912.00,0.69
8911.00,0.69
8910.00,0.69
8909.00,0.69
8908.00,0.69
8907.00,0.69
8906.00,0.69
8905.00,0.69
8904.00,0.69
8903.00,0.69
8902.00,0.69
8901.00,0.70
8900.00,0.70
8899.00,0.70
8898.00,0.70
8897.00,0.70
8896.00,0.70
8895.00,0.70
8894.00,0.70
8893.00,0.70
8892.00,0.70
8891.00,0.70
8890.00,0.70
8889.00,0.70
8888.00,0.70
8887.00,0.70
8886.00,0.70
8885.00,0.69
8884.00,0.69
8883.00,0.69
8882.00,0.69
8881.00,0.69
8880.00,0.69
8879.00,0.69
8878.00,0.69
8877.00,0.69
8876.00,0.69
8875.00,0.69
8874.00,0.69
8873.00,0.69
8872.00,0.69
8871.00,0.69
8870.00,0.69
8869.00,0.70
8868.00,0.70
8867.00,0.70
8866.00,0.70
8865.00,0.70
8864.00,0.70
8863.00,0.70
8862.00,0.70
8861.00,0.70
8860.00,0.70
8859.00,0.70
8858.00,0.70
8857.00,0.70
8856.00,0.70
8855.00,0.70
8854.00,0.70
8853.00,0.70
8852.00,0.69
8851.00,0.69
8850.00,0.69
8849.00,0.69
8848.00,0.69
8847.00,0.68
8846.00,0.68
8845.00,0.68
8844.00,0.68
8843.00,0.68
8842.00,0.68
8841.00,0.68
8840.00,0.68
8839.00,0.68
8838.00,0.68
8837.00,0.68
8836.00,0.68
8835.00,0.68
8834.00,0.68
8833.00,0.68
8832.00,0.68
8831.00,0.68
8830.00,0.68
8829.00,0.68
8828.00,0.68
8827.00,0.68
8826.00,0.68
8825.00,0.68
8824.00,0.68
8823.00,0.69
8822.00,0.69
8821.00,0.68
8820.00,0.68
8819.00,0.68
8818.00,0.68
8817.00,0.68
8816.00,0.68
8815.00,0.68
8814.00,0.68
8813.00,0.68
8812.00,0.68
8811.00,0.68
8810.00,0.68
8809.00,0.68
8808.00,0.67
8807.00,0.67
8806.00,0.67
8805.00,0.67
8804.00,0.67
8803.00,0.67
8802.00,0.67
8801.00,0.67
8800.00,0.67
8799.00,0.67
8798.00,0.67
8797.00,0.68
8796.00,0.68
8795.00,0.68
8794.00,0.68
8793.00,0.68
8792.00,0.68
8791.00,0.68
8790.00,0.68
8789.00,0.68
8788.00,0.68
8787.00,0.68
8786.00,0.68
8785.00,0.68
8784.00,0.68
8783.00,0.68
8782.00,0.68
8781.00,0.68
8780.00,0.68
8779.00,0.68
8778.00,0.68
8777.00,0.68
8776.00,0.68
8775.00,0.68
8774.00,0.68
8773.00,0.68
8772.00,0.68
8771.00,0.68
8770.00,0.68
8769.00,0.68
8768.00,0.68
8767.00,0.68
8766.00,0.68
8765.00,0.68
8764.00,0.68
8763.00,0.68
8762.00,0.68
8761.00,0.68
8760.00,0.68
8759.00,0.68
8758.00,0.68
8757.00,0.68
8756.00,0.68
8755.00,0.69
8754.00,0.69
8753.00,0.69
8752.00,0.68
8751.00,0.68
8750.00,0.68
8749.00,0.68
8748.00,0.68
8747.00,0.68
8746.00,0.68
8745.00,0.68
8744.00,0.67
8743.00,0.67
8742.00,0.67
8741.00,0.67
8740.00,0.67
8739.00,0.67
8738.00,0.66
8737.00,0.66
8736.00,0.66
8735.00,0.66
8734.00,0.66
8733.00,0.66
8732.00,0.66
8731.00,0.66
8730.00,0.66
8729.00,0.66
8728.00,0.66
8727.00,0.66
8726.00,0.66
8725.00,0.66
8724.00,0.66
8723.00,0.66
8722.00,0.66
8721.00,0.66
8720.00,0.66
8719.00,0.66
8718.00,0.66
8717.00,0.66
8716.00,0.66
8715.00,0.66
8714.00,0.66
8713.00,0.67
8712.00,0.67
8711.00,0.67
8710.00,0.67
8709.00,0.67
8708.00,0.67
8707.00,0.67
8706.00,0.67
8705.00,0.67
8704.00,0.67
8703.00,0.67
8702.00,0.67
8701.00,0.67
8700.00,0.67
8699.00,0.67
8698.00,0.67
8697.00,0.67
8696.00,0.67
8695.00,0.66
8694.00,0.66
8693.00,0.66
8692.00,0.66
8691.00,0.66
8690.00,0.66
8689.00,0.66
8688.00,0.66
8687.00,0.66
8686.00,0.66
8685.00,0.66
8684.00,0.66
8683.00,0.66
8682.00,0.66
8681.00,0.66
8680.00,0.66
8679.00,0.66
8678.00,0.67
8677.00,0.67
8676.00,0.67
8675.00,0.67
8674.00,0.67
8673.00,0.67
8672.00,0.67
8671.00,0.67
8670.00,0.67
8669.00,0.68
8668.00,0.68
8667.00,0.68
8666.00,0.68
8665.00,0.68
8664.00,0.68
8663.00,0.68
8662.00,0.68
8661.00,0.68
8660.00,0.68
8659.00,0.68
8658.00,0.68
8657.00,0.68
8656.00,0.68
8655.00,0.68
8654.00,0.68
8653.00,0.68
8652.00,0.68
8651.00,0.67
8650.00,0.67
8649.00,0.67
8648.00,0.67
8647.00,0.67
8646.00,0.67
8645.00,0.67
8644.00,0.67
8643.00,0.67
8642.00,0.67
8641.00,0.67
8640.00,0.67
8639.00,0.67
8638.00,0.67
8637.00,0.67
8636.00,0.67
8635.00,0.67
8634.00,0.67
8633.00,0.67
8632.00,0.67
8631.00,0.67
8630.00,0.67
8629.00,0.67
8628.00,0.67
8627.00,0.67
8626.00,0.67
8625.00,0.67
8624.00,0.67
8623.00,0.67
8622.00,0.67
8621.00,0.67
8620.00,0.67
8619.00,0.67
8618.00,0.66
8617.00,0.66
8616.00,0.66
8615.00,0.66
8614.00,0.66
8613.00,0.66
8612.00,0.66
8611.00,0.66
8610.00,0.66
8609.00,0.65
8608.00,0.65
8607.00,0.66
8606.00,0.66
8605.00,0.66
8604.00,0.66
8603.00,0.66
8602.00,0.66
8601.00,0.66
8600.00,0.66
8599.00,0.66
8598.00,0.67
8597.00,0.67
8596.00,0.67
8595.00,0.67
8594.00,0.67
8593.00,0.67
8592.00,0.67
8591.00,0.67
8590.00,0.67
8589.00,0.67
8588.00,0.67
8587.00,0.67
8586.00,0.67
8585.00,0.67
8584.00,0.67
8583.00,0.67
8582.00,0.67
8581.00,0.67
8580.00,0.67
8579.00,0.67
8578.00,0.67
8577.00,0.67
8576.00,0.67
8575.00,0.67
8574.00,0.67
8573.00,0.67
8572.00,0.67
8571.00,0.67
8570.00,0.67
8569.00,0.67
8568.00,0.67
8567.00,0.67
8566.00,0.67
8565.00,0.67
8564.00,0.67
8563.00,0.67
8562.00,0.67
8561.00,0.67
8560.00,0.67
8559.00,0.66
8558.00,0.66
8557.00,0.66
8556.00,0.66
8555.00,0.66
8554.00,0.66
8553.00,0.66
8552.00,0.66
8551.00,0.66
8550.00,0.66
8549.00,0.66
8548.00,0.66
8547.00,0.66
8546.00,0.66
8545.00,0.66
8544.00,0.66
8543.00,0.66
8542.00,0.66
8541.00,0.65
8540.00,0.65
8539.00,0.65
8538.00,0.65
8537.00,0.65
8536.00,0.65
8535.00,0.65
8534.00,0.64
8533.00,0.64
8532.00,0.64
8531.00,0.64
8530.00,0.64
8529.00,0.64
8528.00,0.64
8527.00,0.63
8526.00,0.63
8525.00,0.63
8524.00,0.63
8523.00,0.63
8522.00,0.63
8521.00,0.63
8520.00,0.63
8519.00,0.63
8518.00,0.63
8517.00,0.63
8516.00,0.64
8515.00,0.64
8514.00,0.64
8513.00,0.64
8512.00,0.64
8511.00,0.64
8510.00,0.64
8509.00,0.64
8508.00,0.64
8507.00,0.64
8506.00,0.64
8505.00,0.64
8504.00,0.64
8503.00,0.64
8502.00,0.64
8501.00,0.64
8500.00,0.64
8499.00,0.64
8498.00,0.64
8497.00,0.64
8496.00,0.64
8495.00,0.64
8494.00,0.65
8493.00,0.65
8492.00,0.65
8491.00,0.65
8490.00,0.65
8489.00,0.65
8488.00,0.65
8487.00,0.65
8486.00,0.66
8485.00,0.66
8484.00,0.66
8483.00,0.66
8482.00,0.66
8481.00,0.66
8480.00,0.66
8479.00,0.66
8478.00,0.66
8477.00,0.65
8476.00,0.65
8475.00,0.65
8474.00,0.65
8473.00,0.65
8472.00,0.65
8471.00,0.64
8470.00,0.64
8469.00,0.64
8468.00,0.64
8467.00,0.64
8466.00,0.64
8465.00,0.64
8464.00,0.64
8463.00,0.64
8462.00,0.64
8461.00,0.64
8460.00,0.64
8459.00,0.64
8458.00,0.64
8457.00,0.64
8456.00,0.64
8455.00,0.64
8454.00,0.64
8453.00,0.64
8452.00,0.64
8451.00,0.64
8450.00,0.64
8449.00,0.65
8448.00,0.65
8447.00,0.65
8446.00,0.65
8445.00,0.65
8444.00,0.65
8443.00,0.65
8442.00,0.65
8441.00,0.64
8440.00,0.64
8439.00,0.64
8438.00,0.64
8437.00,0.64
8436.00,0.64
8435.00,0.64
8434.00,0.64
8433.00,0.64
8432.00,0.64
8431.00,0.64
8430.00,0.64
8429.00,0.64
8428.00,0.64
8427.00,0.64
8426.00,0.64
8425.00,0.64
8424.00,0.64
8423.00,0.64
8422.00,0.64
8421.00,0.64
8420.00,0.64
8419.00,0.64
8418.00,0.64
8417.00,0.64
8416.00,0.64
8415.00,0.64
8414.00,0.64
8413.00,0.64
8412.00,0.64
8411.00,0.64
8410.00,0.64
8409.00,0.64
8408.00,0.64
8407.00,0.64
8406.00,0.64
8405.00,0.64
8404.00,0.65
8403.00,0.65
8402.00,0.65
8401.00,0.65
8400.00,0.65
8399.00,0.65
8398.00,0.65
8397.00,0.66
8396.00,0.66
8395.00,0.66
8394.00,0.66
8393.00,0.66
8392.00,0.66
8391.00,0.66
8390.00,0.66
8389.00,0.66
8388.00,0.66
8387.00,0.66
8386.00,0.66
8385.00,0.66
8384.00,0.66
8383.00,0.66
8382.00,0.66
8381.00,0.66
8380.00,0.66
8379.00,0.66
8378.00,0.66
8377.00,0.66
8376.00,0.66
8375.00,0.65
8374.00,0.65
8373.00,0.65
8372.00,0.65
8371.00,0.65
8370.00,0.65
8369.00,0.65
8368.00,0.65
8367.00,0.65
8366.00,0.65
8365.00,0.65
8364.00,0.65
8363.00,0.65
8362.00,0.65
8361.00,0.65
8360.00,0.65
8359.00,0.65
8358.00,0.66
8357.00,0.66
8356.00,0.66
8355.00,0.66
8354.00,0.66
8353.00,0.66
8352.00,0.66
8351.00,0.66
8350.00,0.66
8349.00,0.66
8348.00,0.66
8347.00,0.66
8346.00,0.67
8345.00,0.67
8344.00,0.67
8343.00,0.67
8342.00,0.67
8341.00,0.67
8340.00,0.67
8339.00,0.67
8338.00,0.67
8337.00,0.67
8336.00,0.67
8335.00,0.67
8334.00,0.67
8333.00,0.67
8332.00,0.67
8331.00,0.67
8330.00,0.67
8329.00,0.67
8328.00,0.67
8327.00,0.67
8326.00,0.67
8325.00,0.67
8324.00,0.67
8323.00,0.67
8322.00,0.67
8321.00,0.67
8320.00,0.67
8319.00,0.67
8318.00,0.67
8317.00,0.67
8316.00,0.67
8315.00,0.67
8314.00,0.67
8313.00,0.67
8312.00,0.67
8311.00,0.67
8310.00,0.67
8309.00,0.67
8308.00,0.67
8307.00,0.67
8306.00,0.67
8305.00,0.67
8304.00,0.67
8303.00,0.67
8302.00,0.67
8301.00,0.67
8300.00,0.67
8299.00,0.67
8298.00,0.67
8297.00,0.67
8296.00,0.67
8295.00,0.67
8294.00,0.67
8293.00,0.67
8292.00,0.67
8291.00,0.67
8290.00,0.67
8289.00,0.67
8288.00,0.67
8287.00,0.67
8286.00,0.66
8285.00,0.66
8284.00,0.66
8283.00,0.66
8282.00,0.66
8281.00,0.66
8280.00,0.66
8279.00,0.66
8278.00,0.67
8277.00,0.67
8276.00,0.67
8275.00,0.67
8274.00,0.67
8273.00,0.67
8272.00,0.67
8271.00,0.67
8270.00,0.67
8269.00,0.67
8268.00,0.67
8267.00,0.67
8266.00,0.67
8265.00,0.67
8264.00,0.67
8263.00,0.67
8262.00,0.67
8261.00,0.67
8260.00,0.66
8259.00,0.66
8258.00,0.66
8257.00,0.66
8256.00,0.66
8255.00,0.66
8254.00,0.66
8253.00,0.66
8252.00,0.66
8251.00,0.66
8250.00,0.66
8249.00,0.66
8248.00,0.66
8247.00,0.66
8246.00,0.66
8245.00,0.66
8244.00,0.66
8243.00,0.66
8242.00,0.66
8241.00,0.66
8240.00,0.66
8239.00,0.66
8238.00,0.66
8237.00,0.66
8236.00,0.67
8235.00,0.67
8234.00,0.67
8233.00,0.67
8232.00,0.67
8231.00,0.67
8230.00,0.67
8229.00,0.67
8228.00,0.68
8227.00,0.68
8226.00,0.68
8225.00,0.68
8224.00,0.68
8223.00,0.68
8222.00,0.68
8221.00,0.68
8220.00,0.69
8219.00,0.69
8218.00,0.69
8217.00,0.69
8216.00,0.69
8215.00,0.69
8214.00,0.69
8213.00,0.69
8212.00,0.69
8211.00,0.69
8210.00,0.69
8209.00,0.69
8208.00,0.69
8207.00,0.69
8206.00,0.69
8205.00,0.69
8204.00,0.69
8203.00,0.69
8202.00,0.69
8201.00,0.69
8200.00,0.69
8199.00,0.69
8198.00,0.69
8197.00,0.69
8196.00,0.69
8195.00,0.69
8194.00,0.69
8193.00,0.68
8192.00,0.68
8191.00,0.68
8190.00,0.68
8189.00,0.68
8188.00,0.68
8187.00,0.68
8186.00,0.68
8185.00,0.68
8184.00,0.68
8183.00,0.68
8182.00,0.68
8181.00,0.68
8180.00,0.68
8179.00,0.68
8178.00,0.68
8177.00,0.68
8176.00,0.68
8175.00,0.68
8174.00,0.68
8173.00,0.68
8172.00,0.68
8171.00,0.68
8170.00,0.68
8169.00,0.68
8168.00,0.69
8167.00,0.69
8166.00,0.69
8165.00,0.69
8164.00,0.69
8163.00,0.69
8162.00,0.69
8161.00,0.69
8160.00,0.69
8159.00,0.68
8158.00,0.68
8157.00,0.68
8156.00,0.68
8155.00,0.68
8154.00,0.68
8153.00,0.68
8152.00,0.68
8151.00,0.68
8150.00,0.68
8149.00,0.68
8148.00,0.68
8147.00,0.68
8146.00,0.68
8145.00,0.68
8144.00,0.68
8143.00,0.68
8142.00,0.68
8141.00,0.68
8140.00,0.68
8139.00,0.68
8138.00,0.68
8137.00,0.68
8136.00,0.68
8135.00,0.68
8134.00,0.68
8133.00,0.68
8132.00,0.68
8131.00,0.68
8130.00,0.68
8129.00,0.68
8128.00,0.68
8127.00,0.68
8126.00,0.68
8125.00,0.68
8124.00,0.68
8123.00,0.68
8122.00,0.68
8121.00,0.68
8120.00,0.68
8119.00,0.68
8118.00,0.68
8117.00,0.68
8116.00,0.68
8115.00,0.68
8114.00,0.68
8113.00,0.68
8112.00,0.68
8111.00,0.68
8110.00,0.68
8109.00,0.68
8108.00,0.68
8107.00,0.68
8106.00,0.68
8105.00,0.68
8104.00,0.68
8103.00,0.68
8102.00,0.68
8101.00,0.68
8100.00,0.68
8099.00,0.68
8098.00,0.68
8097.00,0.68
8096.00,0.68
8095.00,0.68
8094.00,0.69
8093.00,0.69
8092.00,0.69
8091.00,0.69
8090.00,0.69
8089.00,0.69
8088.00,0.69
8087.00,0.69
8086.00,0.69
8085.00,0.69
8084.00,0.69
8083.00,0.69
8082.00,0.69
8081.00,0.69
8080.00,0.69
8079.00,0.69
8078.00,0.70
8077.00,0.70
8076.00,0.70
8075.00,0.70
8074.00,0.70
8073.00,0.70
8072.00,0.70
8071.00,0.70
8070.00,0.70
8069.00,0.70
8068.00,0.70
8067.00,0.70
8066.00,0.70
8065.00,0.70
8064.00,0.70
8063.00,0.70
8062.00,0.70
8061.00,0.70
8060.00,0.70
8059.00,0.70
8058.00,0.70
8057.00,0.70
8056.00,0.70
8055.00,0.70
8054.00,0.70
8053.00,0.70
8052.00,0.70
8051.00,0.70
8050.00,0.70
8049.00,0.70
8048.00,0.70
8047.00,0.70
8046.00,0.70
8045.00,0.71
8044.00,0.71
8043.00,0.71
8042.00,0.71
8041.00,0.71
8040.00,0.71
8039.00,0.71
8038.00,0.71
8037.00,0.71
8036.00,0.71
8035.00,0.71
8034.00,0.71
8033.00,0.71
8032.00,0.71
8031.00,0.71
8030.00,0.71
8029.00,0.71
8028.00,0.70
8027.00,0.70
8026.00,0.70
8025.00,0.70
8024.00,0.70
8023.00,0.70
8022.00,0.70
8021.00,0.70
8020.00,0.70
8019.00,0.70
8018.00,0.70
8017.00,0.70
8016.00,0.70
8015.00,0.70
8014.00,0.70
8013.00,0.70
8012.00,0.70
8011.00,0.70
8010.00,0.70
8009.00,0.70
8008.00,0.70
8007.00,0.70
8006.00,0.70
8005.00,0.70
8004.00,0.70
8003.00,0.70
8002.00,0.70
8001.00,0.70
8000.00,0.70
7999.00,0.70
7998.00,0.69
7997.00,0.69
7996.00,0.69
7995.00,0.69
7994.00,0.69
7993.00,0.69
7992.00,0.69
7991.00,0.69
7990.00,0.69
7989.00,0.69
7988.00,0.70
7987.00,0.70
7986.00,0.70
7985.00,0.70
7984.00,0.70
7983.00,0.70
7982.00,0.70
7981.00,0.70
7980.00,0.70
7979.00,0.70
7978.00,0.70
7977.00,0.70
7976.00,0.70
7975.00,0.70
7974.00,0.70
7973.00,0.70
7972.00,0.70
7971.00,0.70
7970.00,0.70
7969.00,0.70
7968.00,0.70
7967.00,0.70
7966.00,0.70
7965.00,0.70
7964.00,0.70
7963.00,0.70
7962.00,0.70
7961.00,0.70
7960.00,0.70
7959.00,0.70
7958.00,0.70
7957.00,0.70
7956.00,0.70
7955.00,0.70
7954.00,0.70
7953.00,0.70
7952.00,0.70
7951.00,0.70
7950.00,0.70
7949.00,0.70
7948.00,0.70
7947.00,0.70
7946.00,0.70
7945.00,0.70
7944.00,0.70
7943.00,0.70
7942.00,0.70
7941.00,0.70
7940.00,0.70
7939.00,0.70
7938.00,0.70
7937.00,0.70
7936.00,0.70
7935.00,0.70
7934.00,0.70
7933.00,0.70
7932.00,0.70
7931.00,0.70
7930.00,0.70
7929.00,0.70
7928.00,0.70
7927.00,0.70
7926.00,0.70
7925.00,0.70
7924.00,0.70
7923.00,0.70
7922.00,0.70
7921.00,0.70
7920.00,0.70
7919.00,0.70
7918.00,0.70
7917.00,0.70
7916.00,0.70
7915.00,0.70
7914.00,0.70
7913.00,0.70
7912.00,0.70
7911.00,0.70
7910.00,0.70
7909.00,0.70
7908.00,0.70
7907.00,0.71
7906.00,0.71
7905.00,0.71
7904.00,0.71
7903.00,0.71
7902.00,0.71
7901.00,0.70
7900.00,0.70
7899.00,0.70
7898.00,0.70
7897.00,0.70
7896.00,0.70
7895.00,0.70
7894.00,0.70
7893.00,0.70
7892.00,0.70
7891.00,0.70
7890.00,0.70
7889.00,0.70
7888.00,0.70
7887.00,0.70
7886.00,0.70
7885.00,0.70
7884.00,0.70
7883.00,0.70
7882.00,0.71
7881.00,0.71
7880.00,0.71
7879.00,0.71
7878.00,0.71
7877.00,0.71
7876.00,0.71
7875.00,0.71
7874.00,0.71
7873.00,0.71
7872.00,0.71
7871.00,0.71
7870.00,0.71
7869.00,0.71
7868.00,0.71
7867.00,0.71
7866.00,0.71
7865.00,0.71
7864.00,0.71
7863.00,0.71
7862.00,0.71
7861.00,0.71
7860.00,0.71
7859.00,0.71
7858.00,0.71
7857.00,0.71
7856.00,0.71
7855.00,0.71
7854.00,0.71
7853.00,0.71
7852.00,0.71
7851.00,0.71
7850.00,0.70
7849.00,0.70
7848.00,0.70
7847.00,0.70
7846.00,0.70
7845.00,0.70
7844.00,0.70
7843.00,0.70
7842.00,0.70
7841.00,0.70
7840.00,0.70
7839.00,0.70
7838.00,0.71
7837.00,0.71
7836.00,0.71
7835.00,0.71
7834.00,0.71
7833.00,0.71
7832.00,0.71
7831.00,0.71
7830.00,0.71
7829.00,0.71
7828.00,0.71
7827.00,0.71
7826.00,0.71
7825.00,0.71
7824.00,0.71
7823.00,0.71
7822.00,0.71
7821.00,0.71
7820.00,0.71
7819.00,0.71
7818.00,0.71
7817.00,0.71
7816.00,0.71
7815.00,0.71
7814.00,0.71
7813.00,0.71
7812.00,0.71
7811.00,0.71
7810.00,0.71
7809.00,0.71
7808.00,0.71
7807.00,0.71
7806.00,0.71
7805.00,0.71
7804.00,0.71
7803.00,0.71
7802.00,0.71
7801.00,0.71
7800.00,0.71
7799.00,0.71
7798.00,0.71
7797.00,0.71
7796.00,0.71
7795.00,0.71
7794.00,0.71
7793.00,0.71
7792.00,0.71
7791.00,0.71
7790.00,0.71
7789.00,0.71
7788.00,0.71
7787.00,0.71
7786.00,0.71
7785.00,0.71
7784.00,0.71
7783.00,0.72
7782.00,0.72
7781.00,0.72
7780.00,0.72
7779.00,0.72
7778.00,0.72
7777.00,0.72
7776.00,0.72
7775.00,0.72
7774.00,0.72
7773.00,0.72
7772.00,0.72
7771.00,0.72
7770.00,0.72
7769.00,0.72
7768.00,0.72
7767.00,0.72
7766.00,0.72
7765.00,0.72
7764.00,0.72
7763.00,0.72
7762.00,0.72
7761.00,0.72
7760.00,0.72
7759.00,0.72
7758.00,0.72
7757.00,0.72
7756.00,0.72
7755.00,0.72
7754.00,0.72
7753.00,0.72
7752.00,0.72
7751.00,0.72
7750.00,0.72
7749.00,0.72
7748.00,0.72
7747.00,0.72
7746.00,0.72
7745.00,0.72
7744.00,0.72
7743.00,0.72
7742.00,0.72
7741.00,0.72
7740.00,0.72
7739.00,0.72
7738.00,0.72
7737.00,0.72
7736.00,0.72
7735.00,0.71
7734.00,0.71
7733.00,0.71
7732.00,0.71
7731.00,0.71
7730.00,0.71
7729.00,0.71
7728.00,0.71
7727.00,0.71
7726.00,0.71
7725.00,0.71
7724.00,0.71
7723.00,0.71
7722.00,0.71
7721.00,0.71
7720.00,0.71
7719.00,0.71
7718.00,0.71
7717.00,0.71
7716.00,0.71
7715.00,0.71
7714.00,0.71
7713.00,0.71
7712.00,0.71
7711.00,0.71
7710.00,0.71
7709.00,0.71
7708.00,0.71
7707.00,0.71
7706.00,0.71
7705.00,0.71
7704.00,0.72
7703.00,0.72
7702.00,0.72
7701.00,0.72
7700.00,0.72
7699.00,0.72
7698.00,0.71
7697.00,0.71
7696.00,0.71
7695.00,0.71
7694.00,0.71
7693.00,0.71
7692.00,0.71
7691.00,0.71
7690.00,0.71
7689.00,0.71
7688.00,0.71
7687.00,0.71
7686.00,0.71
7685.00,0.71
7684.00,0.71
7683.00,0.71
7682.00,0.71
7681.00,0.71
7680.00,0.71
7679.00,0.71
7678.00,0.71
7677.00,0.71
7676.00,0.71
7675.00,0.71
7674.00,0.71
7673.00,0.71
7672.00,0.71
7671.00,0.71
7670.00,0.71
7669.00,0.71
7668.00,0.71
7667.00,0.71
7666.00,0.71
7665.00,0.71
7664.00,0.71
7663.00,0.71
7662.00,0.71
7661.00,0.71
7660.00,0.71
7659.00,0.71
7658.00,0.71
7657.00,0.71
7656.00,0.71
7655.00,0.71
7654.00,0.71
7653.00,0.71
7652.00,0.71
7651.00,0.71
7650.00,0.71
7649.00,0.72
7648.00,0.72
7647.00,0.72
7646.00,0.72
7645.00,0.72
7644.00,0.72
7643.00,0.72
7642.00,0.72
7641.00,0.72
7640.00,0.72
7639.00,0.72
7638.00,0.72
7637.00,0.72
7636.00,0.72
7635.00,0.72
7634.00,0.72
7633.00,0.72
7632.00,0.72
7631.00,0.72
7630.00,0.72
7629.00,0.72
7628.00,0.72
7627.00,0.72
7626.00,0.72
7625.00,0.72
7624.00,0.72
7623.00,0.72
7622.00,0.72
7621.00,0.72
7620.00,0.72
7619.00,0.72
7618.00,0.72
7617.00,0.72
7616.00,0.72
7615.00,0.72
7614.00,0.72
7613.00,0.71
7612.00,0.71
7611.00,0.71
7610.00,0.71
7609.00,0.71
7608.00,0.71
7607.00,0.71
7606.00,0.71
7605.00,0.71
7604.00,0.71
7603.00,0.71
7602.00,0.71
7601.00,0.71
7600.00,0.71
7599.00,0.71
7598.00,0.71
7597.00,0.71
7596.00,0.71
7595.00,0.71
7594.00,0.71
7593.00,0.71
7592.00,0.71
7591.00,0.71
7590.00,0.71
7589.00,0.71
7588.00,0.71
7587.00,0.71
7586.00,0.71
7585.00,0.71
7584.00,0.71
7583.00,0.71
7582.00,0.71
7581.00,0.71
7580.00,0.71
7579.00,0.71
7578.00,0.71
7577.00,0.71
7576.00,0.71
7575.00,0.71
7574.00,0.71
7573.00,0.71
7572.00,0.71
7571.00,0.71
7570.00,0.71
7569.00,0.71
7568.00,0.71
7567.00,0.71
7566.00,0.71
7565.00,0.71
7564.00,0.71
7563.00,0.71
7562.00,0.71
7561.00,0.71
7560.00,0.71
7559.00,0.71
7558.00,0.71
7557.00,0.71
7556.00,0.71
7555.00,0.71
7554.00,0.71
7553.00,0.71
7552.00,0.71
7551.00,0.71
7550.00,0.71
7549.00,0.71
7548.00,0.71
7547.00,0.71
7546.00,0.71
7545.00,0.71
7544.00,0.71
7543.00,0.71
7542.00,0.71
7541.00,0.71
7540.00,0.71
7539.00,0.71
7538.00,0.71
7537.00,0.71
7536.00,0.71
7535.00,0.71
7534.00,0.71
7533.00,0.71
7532.00,0.71
7531.00,0.71
7530.00,0.72
7529.00,0.72
7528.00,0.72
7527.00,0.72
7526.00,0.71
7525.00,0.71
7524.00,0.71
7523.00,0.71
7522.00,0.71
7521.00,0.71
7520.00,0.71
7519.00,0.71
7518.00,0.71
7517.00,0.71
7516.00,0.71
7515.00,0.71
7514.00,0.71
7513.00,0.71
7512.00,0.71
7511.00,0.71
7510.00,0.71
7509.00,0.71
7508.00,0.71
7507.00,0.71
7506.00,0.71
7505.00,0.71
7504.00,0.71
7503.00,0.71
7502.00,0.70
7501.00,0.70
7500.00,0.70
7499.00,0.70
7498.00,0.70
7497.00,0.70
7496.00,0.70
7495.00,0.70
7494.00,0.70
7493.00,0.70
7492.00,0.70
7491.00,0.70
7490.00,0.70
7489.00,0.70
7488.00,0.70
7487.00,0.70
7486.00,0.70
7485.00,0.70
7484.00,0.70
7483.00,0.70
7482.00,0.70
7481.00,0.70
7480.00,0.70
7479.00,0.70
7478.00,0.70
7477.00,0.70
7476.00,0.70
7475.00,0.70
7474.00,0.70
7473.00,0.70
7472.00,0.70
7471.00,0.70
7470.00,0.70
7469.00,0.70
7468.00,0.70
7467.00,0.70
7466.00,0.70
7465.00,0.70
7464.00,0.70
7463.00,0.70
7462.00,0.70
7461.00,0.70
7460.00,0.70
7459.00,0.70
7458.00,0.70
7457.00,0.70
7456.00,0.70
7455.00,0.70
7454.00,0.70
7453.00,0.70
7452.00,0.70
7451.00,0.69
7450.00,0.69
7449.00,0.69
7448.00,0.69
7447.00,0.69
7446.00,0.69
7445.00,0.69
7444.00,0.69
7443.00,0.69
7442.00,0.69
7441.00,0.69
7440.00,0.69
7439.00,0.69
7438.00,0.69
7437.00,0.69
7436.00,0.69
7435.00,0.69
7434.00,0.69
7433.00,0.69
7432.00,0.69
7431.00,0.69
7430.00,0.69
7429.00,0.69
7428.00,0.69
7427.00,0.69
7426.00,0.69
7425.00,0.69
7424.00,0.69
7423.00,0.69
7422.00,0.69
7421.00,0.69
7420.00,0.69
7419.00,0.69
7418.00,0.69
7417.00,0.69
7416.00,0.69
7415.00,0.69
7414.00,0.69
7413.00,0.69
7412.00,0.69
7411.00,0.68
7410.00,0.68
7409.00,0.68
7408.00,0.68
7407.00,0.68
7406.00,0.68
7405.00,0.68
7404.00,0.68
7403.00,0.68
7402.00,0.68
7401.00,0.68
7400.00,0.67
7399.00,0.67
7398.00,0.67
7397.00,0.67
7396.00,0.67
7395.00,0.67
7394.00,0.67
7393.00,0.67
7392.00,0.67
7391.00,0.67
7390.00,0.67
7389.00,0.67
7388.00,0.67
7387.00,0.67
7386.00,0.67
7385.00,0.67
7384.00,0.67
7383.00,0.67
7382.00,0.67
7381.00,0.67
7380.00,0.67
7379.00,0.67
7378.00,0.67
7377.00,0.67
7376.00,0.67
7375.00,0.67
7374.00,0.66
7373.00,0.66
7372.00,0.66
7371.00,0.66
7370.00,0.66
7369.00,0.66
7368.00,0.66
7367.00,0.66
7366.00,0.66
7365.00,0.66
7364.00,0.66
7363.00,0.66
7362.00,0.66
7361.00,0.66
7360.00,0.66
7359.00,0.66
7358.00,0.66
7357.00,0.66
7356.00,0.66
7355.00,0.66
7354.00,0.66
7353.00,0.66
7352.00,0.66
7351.00,0.66
7350.00,0.66
7349.00,0.66
7348.00,0.66
7347.00,0.66
7346.00,0.66
7345.00,0.66
7344.00,0.66
7343.00,0.66
7342.00,0.66
7341.00,0.66
7340.00,0.66
7339.00,0.66
7338.00,0.66
7337.00,0.66
7336.00,0.67
7335.00,0.67
7334.00,0.67
7333.00,0.67
7332.00,0.67
7331.00,0.67
7330.00,0.67
7329.00,0.67
7328.00,0.67
7327.00,0.67
7326.00,0.67
7325.00,0.67
7324.00,0.67
7323.00,0.66
7322.00,0.66
7321.00,0.66
7320.00,0.66
7319.00,0.66
7318.00,0.66
7317.00,0.66
7316.00,0.66
7315.00,0.66
7314.00,0.66
7313.00,0.66
7312.00,0.66
7311.00,0.66
7310.00,0.66
7309.00,0.66
7308.00,0.66
7307.00,0.66
7306.00,0.66
7305.00,0.66
7304.00,0.66
7303.00,0.66
7302.00,0.66
7301.00,0.66
7300.00,0.66
7299.00,0.66
7298.00,0.66
7297.00,0.65
7296.00,0.65
7295.00,0.65
7294.00,0.65
7293.00,0.65
7292.00,0.65
7291.00,0.65
7290.00,0.65
7289.00,0.65
7288.00,0.65
7287.00,0.65
7286.00,0.65
7285.00,0.65
7284.00,0.65
7283.00,0.65
7282.00,0.65
7281.00,0.65
7280.00,0.64
7279.00,0.64
7278.00,0.64
7277.00,0.64
7276.00,0.64
7275.00,0.64
7274.00,0.64
7273.00,0.64
7272.00,0.64
7271.00,0.64
7270.00,0.64
7269.00,0.64
7268.00,0.64
7267.00,0.64
7266.00,0.64
7265.00,0.64
7264.00,0.64
7263.00,0.64
7262.00,0.64
7261.00,0.64
7260.00,0.64
7259.00,0.63
7258.00,0.63
7257.00,0.63
7256.00,0.63
7255.00,0.63
7254.00,0.63
7253.00,0.63
7252.00,0.63
7251.00,0.62
7250.00,0.62
7249.00,0.62
7248.00,0.62
7247.00,0.62
7246.00,0.62
7245.00,0.62
7244.00,0.61
7243.00,0.61
7242.00,0.61
7241.00,0.61
7240.00,0.61
7239.00,0.61
7238.00,0.60
7237.00,0.60
7236.00,0.60
7235.00,0.60
7234.00,0.60
7233.00,0.60
7232.00,0.60
7231.00,0.59
7230.00,0.59
7229.00,0.59
7228.00,0.59
7227.00,0.59
7226.00,0.59
7225.00,0.59
7224.00,0.58
7223.00,0.58
7222.00,0.58
7221.00,0.58
7220.00,0.58
7219.00,0.58
7218.00,0.58
7217.00,0.57
7216.00,0.57
7215.00,0.57
7214.00,0.57
7213.00,0.57
7212.00,0.57
7211.00,0.56
7210.00,0.56
7209.00,0.56
7208.00,0.56
7207.00,0.56
7206.00,0.56
7205.00,0.55
7204.00,0.55
7203.00,0.55
7202.00,0.55
7201.00,0.55
7200.00,0.55
7199.00,0.54
7198.00,0.54
7197.00,0.54
7196.00,0.54
7195.00,0.54
7194.00,0.54
7193.00,0.53
7192.00,0.53
7191.00,0.53
7190.00,0.53
7189.00,0.53
7188.00,0.53
7187.00,0.52
7186.00,0.52
7185.00,0.52
7184.00,0.52
7183.00,0.52
7182.00,0.52
7181.00,0.51
7180.00,0.51
7179.00,0.51
7178.00,0.51
7177.00,0.51
7176.00,0.51
7175.00,0.50
7174.00,0.50
7173.00,0.50
7172.00,0.50
7171.00,0.50
7170.00,0.50
7169.00,0.49
7168.00,0.49
7167.00,0.49
7166.00,0.49
7165.00,0.49
7164.00,0.49
7163.00,0.48
7162.00,0.48
7161.00,0.48
7160.00,0.48
7159.00,0.48
7158.00,0.48
7157.00,0.48
7156.00,0.48
7155.00,0.47
7154.00,0.47
7153.00,0.47
7152.00,0.47
7151.00,0.47
7150.00,0.47
7149.00,0.47
7148.00,0.46
7147.00,0.46
7146.00,0.46
7145.00,0.46
7144.00,0.46
7143.00,0.45
7142.00,0.45
7141.00,0.45
7140.00,0.45
7139.00,0.45
7138.00,0.45
7137.00,0.44
7136.00,0.44
7135.00,0.44
7134.00,0.44
7133.00,0.44
7132.00,0.44
7131.00,0.44
7130.00,0.44
7129.00,0.43
7128.00,0.43
7127.00,0.43
7126.00,0.43
7125.00,0.43
7124.00,0.43
7123.00,0.43
7122.00,0.43
7121.00,0.43
7120.00,0.43
7119.00,0.43
7118.00,0.42
7117.00,0.42
7116.00,0.42
7115.00,0.42
7114.00,0.42
7113.00,0.42
7112.00,0.42
7111.00,0.42
7110.00,0.41
7109.00,0.41
7108.00,0.41
7107.00,0.41
7106.00,0.41
7105.00,0.41
7104.00,0.41
7103.00,0.41
7102.00,0.40
7101.00,0.40
7100.00,0.40
7099.00,0.40
7098.00,0.40
7097.00,0.40
7096.00,0.40
7095.00,0.39
7094.00,0.39
7093.00,0.39
7092.00,0.39
7091.00,0.39
7090.00,0.39
7089.00,0.39
7088.00,0.39
7087.00,0.39
7086.00,0.39
7085.00,0.39
7084.00,0.39
7083.00,0.39
7082.00,0.39
7081.00,0.39
7080.00,0.39
7079.00,0.38
7078.00,0.38
7077.00,0.38
7076.00,0.38
7075.00,0.38
7074.00,0.38
7073.00,0.38
7072.00,0.38
7071.00,0.38
7070.00,0.38
7069.00,0.38
7068.00,0.38
7067.00,0.37
7066.00,0.37
7065.00,0.37
7064.00,0.37
7063.00,0.37
7062.00,0.37
7061.00,0.37
7060.00,0.37
7059.00,0.37
7058.00,0.37
7057.00,0.37
7056.00,0.37
7055.00,0.37
7054.00,0.37
7053.00,0.37
7052.00,0.37
7051.00,0.37
7050.00,0.37
7049.00,0.37
7048.00,0.37
7047.00,0.36
7046.00,0.36
7045.00,0.36
7044.00,0.36
7043.00,0.36
7042.00,0.36
7041.00,0.36
7040.00,0.36
7039.00,0.36
7038.00,0.36
7037.00,0.36
7036.00,0.36
7035.00,0.36
7034.00,0.36
7033.00,0.36
7032.00,0.35
7031.00,0.35
7030.00,0.35
7029.00,0.35
7028.00,0.35
7027.00,0.35
7026.00,0.35
7025.00,0.35
7024.00,0.35
7023.00,0.35
7022.00,0.35
7021.00,0.35
7020.00,0.35
7019.00,0.35
7018.00,0.35
7017.00,0.35
7016.00,0.35
7015.00,0.35
7014.00,0.35
7013.00,0.35
7012.00,0.35
7011.00,0.35
7010.00,0.35
7009.00,0.35
7008.00,0.35
7007.00,0.35
7006.00,0.35
7005.00,0.35
7004.00,0.35
7003.00,0.35
7002.00,0.35
7001.00,0.35
7000.00,0.35
6999.00,0.35
6998.00,0.35
6997.00,0.35
6996.00,0.35
6995.00,0.35
6994.00,0.35
6993.00,0.35
6992.00,0.35
6991.00,0.35
6990.00,0.35
6989.00,0.35
6988.00,0.35
6987.00,0.35
6986.00,0.35
6985.00,0.35
6984.00,0.35
6983.00,0.35
6982.00,0.35
6981.00,0.35
6980.00,0.35
6979.00,0.35
6978.00,0.35
6977.00,0.35
6976.00,0.35
6975.00,0.35
6974.00,0.35
6973.00,0.35
6972.00,0.34
6971.00,0.34
6970.00,0.34
6969.00,0.34
6968.00,0.34
6967.00,0.34
6966.00,0.34
6965.00,0.34
6964.00,0.34
6963.00,0.34
6962.00,0.34
6961.00,0.34
6960.00,0.34
6959.00,0.34
6958.00,0.34
6957.00,0.34
6956.00,0.34
6955.00,0.34
6954.00,0.34
6953.00,0.34
6952.00,0.34
6951.00,0.34
6950.00,0.34
6949.00,0.35
6948.00,0.35
6947.00,0.35
6946.00,0.35
6945.00,0.35
6944.00,0.35
6943.00,0.35
6942.00,0.35
6941.00,0.35
6940.00,0.35
6939.00,0.35
6938.00,0.35
6937.00,0.34
6936.00,0.34
6935.00,0.34
6934.00,0.34
6933.00,0.34
6932.00,0.34
6931.00,0.34
6930.00,0.34
6929.00,0.34
6928.00,0.34
6927.00,0.34
6926.00,0.34
6925.00,0.34
6924.00,0.34
6923.00,0.34
6922.00,0.34
6921.00,0.34
6920.00,0.34
6919.00,0.34
6918.00,0.34
6917.00,0.34
6916.00,0.34
6915.00,0.34
6914.00,0.34
6913.00,0.34
6912.00,0.34
6911.00,0.34
6910.00,0.34
6909.00,0.34
6908.00,0.34
6907.00,0.34
6906.00,0.34
6905.00,0.34
6904.00,0.34
6903.00,0.34
6902.00,0.34
6901.00,0.34
6900.00,0.34
6899.00,0.34
6898.00,0.34
6897.00,0.34
6896.00,0.34
6895.00,0.34
6894.00,0.34
6893.00,0.34
6892.00,0.34
6891.00,0.34
6890.00,0.34
6889.00,0.33
6888.00,0.33
6887.00,0.33
6886.00,0.33
6885.00,0.33
6884.00,0.33
6883.00,0.33
6882.00,0.33
6881.00,0.33
6880.00,0.33
6879.00,0.33
6878.00,0.33
6877.00,0.33
6876.00,0.33
6875.00,0.33
6874.00,0.33
6873.00,0.33
6872.00,0.33
6871.00,0.33
6870.00,0.33
6869.00,0.33
6868.00,0.33
6867.00,0.33
6866.00,0.33
6865.00,0.33
6864.00,0.33
6863.00,0.33
6862.00,0.33
6861.00,0.33
6860.00,0.33
6859.00,0.33
6858.00,0.33
6857.00,0.33
6856.00,0.33
6855.00,0.33
6854.00,0.33
6853.00,0.33
6852.00,0.33
6851.00,0.33
6850.00,0.33
6849.00,0.33
6848.00,0.33
6847.00,0.33
6846.00,0.33
6845.00,0.33
6844.00,0.33
6843.00,0.33
6842.00,0.33
6841.00,0.33
6840.00,0.34
6839.00,0.34
6838.00,0.34
6837.00,0.34
6836.00,0.34
6835.00,0.34
6834.00,0.34
6833.00,0.34
6832.00,0.34
6831.00,0.34
6830.00,0.34
6829.00,0.34
6828.00,0.34
6827.00,0.34
6826.00,0.34
6825.00,0.34
6824.00,0.34
6823.00,0.34
6822.00,0.34
6821.00,0.34
6820.00,0.34
6819.00,0.34
6818.00,0.34
6817.00,0.34
6816.00,0.34
6815.00,0.34
6814.00,0.34
6813.00,0.34
6812.00,0.34
6811.00,0.34
6810.00,0.34
6809.00,0.34
6808.00,0.34
6807.00,0.34
6806.00,0.34
6805.00,0.34
6804.00,0.34
6803.00,0.35
6802.00,0.35
6801.00,0.35
6800.00,0.35
6799.00,0.35
6798.00,0.35
6797.00,0.35
6796.00,0.35
6795.00,0.35
6794.00,0.35
6793.00,0.35
6792.00,0.35
6791.00,0.35
6790.00,0.35
6789.00,0.35
6788.00,0.35
6787.00,0.35
6786.00,0.35
6785.00,0.35
6784.00,0.35
6783.00,0.35
6782.00,0.35
6781.00,0.36
6780.00,0.36
6779.00,0.36
6778.00,0.36
6777.00,0.36
6776.00,0.36
6775.00,0.36
6774.00,0.36
6773.00,0.36
6772.00,0.36
6771.00,0.36
6770.00,0.36
6769.00,0.36
6768.00,0.36
6767.00,0.36
6766.00,0.36
6765.00,0.36
6764.00,0.36
6763.00,0.36
6762.00,0.36
6761.00,0.36
6760.00,0.36
6759.00,0.36
6758.00,0.36
6757.00,0.36
6756.00,0.36
6755.00,0.36
6754.00,0.36
6753.00,0.36
6752.00,0.36
6751.00,0.36
6750.00,0.36
6749.00,0.36
6748.00,0.36
6747.00,0.36
6746.00,0.37
6745.00,0.37
6744.00,0.37
6743.00,0.37
6742.00,0.37
6741.00,0.37
6740.00,0.37
6739.00,0.37
6738.00,0.37
6737.00,0.37
6736.00,0.37
6735.00,0.37
6734.00,0.37
6733.00,0.37
6732.00,0.37
6731.00,0.37
6730.00,0.37
6729.00,0.37
6728.00,0.37
6727.00,0.37
6726.00,0.37
6725.00,0.37
6724.00,0.37
6723.00,0.37
6722.00,0.37
6721.00,0.37
6720.00,0.37
6719.00,0.37
6718.00,0.37
6717.00,0.37
6716.00,0.37
6715.00,0.37
6714.00,0.38
6713.00,0.38
6712.00,0.38
6711.00,0.38
6710.00,0.38
6709.00,0.38
6708.00,0.38
6707.00,0.38
6706.00,0.38
6705.00,0.38
6704.00,0.38
6703.00,0.38
6702.00,0.38
6701.00,0.38
6700.00,0.38
6699.00,0.38
6698.00,0.38
6697.00,0.38
6696.00,0.38
6695.00,0.38
6694.00,0.38
6693.00,0.38
6692.00,0.38
6691.00,0.38
6690.00,0.38
6689.00,0.38
6688.00,0.39
6687.00,0.39
6686.00,0.39
6685.00,0.39
6684.00,0.39
6683.00,0.39
6682.00,0.39
6681.00,0.39
6680.00,0.39
6679.00,0.39
6678.00,0.40
6677.00,0.40
6676.00,0.40
6675.00,0.40
6674.00,0.40
6673.00,0.40
6672.00,0.40
6671.00,0.40
6670.00,0.40
6669.00,0.40
6668.00,0.40
6667.00,0.40
6666.00,0.40
6665.00,0.40
6664.00,0.41
6663.00,0.41
6662.00,0.41
6661.00,0.41
6660.00,0.41
6659.00,0.41
6658.00,0.41
6657.00,0.41
6656.00,0.41
6655.00,0.41
6654.00,0.41
6653.00,0.41
6652.00,0.41
6651.00,0.41
6650.00,0.41
6649.00,0.41
6648.00,0.41
6647.00,0.41
6646.00,0.41
6645.00,0.41
6644.00,0.41
6643.00,0.41
6642.00,0.41
6641.00,0.41
6640.00,0.41
6639.00,0.41
6638.00,0.41
6637.00,0.42
6636.00,0.42
6635.00,0.42
6634.00,0.42
6633.00,0.42
6632.00,0.42
6631.00,0.42
6630.00,0.42
6629.00,0.42
6628.00,0.42
6627.00,0.42
6626.00,0.42
6625.00,0.42
6624.00,0.42
6623.00,0.42
6622.00,0.42
6621.00,0.42
6620.00,0.42
6619.00,0.43
6618.00,0.43
6617.00,0.43
6616.00,0.43
6615.00,0.43
6614.00,0.43
6613.00,0.43
6612.00,0.43
6611.00,0.43
6610.00,0.43
6609.00,0.43
6608.00,0.43
6607.00,0.43
6606.00,0.43
6605.00,0.43
6604.00,0.43
6603.00,0.43
6602.00,0.43
6601.00,0.43
6600.00,0.43
6599.00,0.43
6598.00,0.44
6597.00,0.44
6596.00,0.44
6595.00,0.44
6594.00,0.44
6593.00,0.44
6592.00,0.44
6591.00,0.44
6590.00,0.44
6589.00,0.44
6588.00,0.44
6587.00,0.44
6586.00,0.44
6585.00,0.44
6584.00,0.44
6583.00,0.44
6582.00,0.44
6581.00,0.44
6580.00,0.44
6579.00,0.44
6578.00,0.44
6577.00,0.44
6576.00,0.44
6575.00,0.44
6574.00,0.44
6573.00,0.44
6572.00,0.44
6571.00,0.44
6570.00,0.44
6569.00,0.44
6568.00,0.44
6567.00,0.44
6566.00,0.45
6565.00,0.45
6564.00,0.45
6563.00,0.45
6562.00,0.45
6561.00,0.45
6560.00,0.45
6559.00,0.45
6558.00,0.45
6557.00,0.45
6556.00,0.45
6555.00,0.45
6554.00,0.46
6553.00,0.46
6552.00,0.46
6551.00,0.46
6550.00,0.46
6549.00,0.46
6548.00,0.46
6547.00,0.46
6546.00,0.46
6545.00,0.46
6544.00,0.46
6543.00,0.46
6542.00,0.46
6541.00,0.46
6540.00,0.46
6539.00,0.46
6538.00,0.46
6537.00,0.46
6536.00,0.46
6535.00,0.47
6534.00,0.47
6533.00,0.47
6532.00,0.47
6531.00,0.47
6530.00,0.47
6529.00,0.47
6528.00,0.47
6527.00,0.47
6526.00,0.47
6525.00,0.47
6524.00,0.47
6523.00,0.47
6522.00,0.47
6521.00,0.47
6520.00,0.47
6519.00,0.47
6518.00,0.47
6517.00,0.47
6516.00,0.47
6515.00,0.48
6514.00,0.48
6513.00,0.48
6512.00,0.48
6511.00,0.48
6510.00,0.48
6509.00,0.48
6508.00,0.48
6507.00,0.48
6506.00,0.48
6505.00,0.48
6504.00,0.48
6503.00,0.48
6502.00,0.48
6501.00,0.48
6500.00,0.48
6499.00,0.48
6498.00,0.48
6497.00,0.48
6496.00,0.48
6495.00,0.48
6494.00,0.48
6493.00,0.48
6492.00,0.48
6491.00,0.48
6490.00,0.48
6489.00,0.49
6488.00,0.49
6487.00,0.49
6486.00,0.49
6485.00,0.49
6484.00,0.49
6483.00,0.49
6482.00,0.49
6481.00,0.49
6480.00,0.49
6479.00,0.49
6478.00,0.49
6477.00,0.49
6476.00,0.49
6475.00,0.50
6474.00,0.50
6473.00,0.50
6472.00,0.50
6471.00,0.50
6470.00,0.50
6469.00,0.50
6468.00,0.50
6467.00,0.50
6466.00,0.50
6465.00,0.50
6464.00,0.50
6463.00,0.50
6462.00,0.50
6461.00,0.50
6460.00,0.50
6459.00,0.50
6458.00,0.50
6457.00,0.50
6456.00,0.50
6455.00,0.50
6454.00,0.50
6453.00,0.50
6452.00,0.50
6451.00,0.50
6450.00,0.50
6449.00,0.50
6448.00,0.50
6447.00,0.50
6446.00,0.50
6445.00,0.50
6444.00,0.50
6443.00,0.50
6442.00,0.50
6441.00,0.50
6440.00,0.50
6439.00,0.50
6438.00,0.50
6437.00,0.51
6436.00,0.51
6435.00,0.51
6434.00,0.51
6433.00,0.51
6432.00,0.51
6431.00,0.51
6430.00,0.51
6429.00,0.51
6428.00,0.51
6427.00,0.51
6426.00,0.51
6425.00,0.51
6424.00,0.51
6423.00,0.51
6422.00,0.51
6421.00,0.51
6420.00,0.51
6419.00,0.51
6418.00,0.51
6417.00,0.51
6416.00,0.51
6415.00,0.51
6414.00,0.52
6413.00,0.52
6412.00,0.52
6411.00,0.52
6410.00,0.52
6409.00,0.52
6408.00,0.52
6407.00,0.52
6406.00,0.52
6405.00,0.52
6404.00,0.52
6403.00,0.52
6402.00,0.52
6401.00,0.52
6400.00,0.52
6399.00,0.52
6398.00,0.52
6397.00,0.52
6396.00,0.52
6395.00,0.52
6394.00,0.52
6393.00,0.52
6392.00,0.52
6391.00,0.53
6390.00,0.53
6389.00,0.53
6388.00,0.53
6387.00,0.53
6386.00,0.53
6385.00,0.53
6384.00,0.53
6383.00,0.53
6382.00,0.53
6381.00,0.53
6380.00,0.53
6379.00,0.53
6378.00,0.53
6377.00,0.53
6376.00,0.53
6375.00,0.53
6374.00,0.53
6373.00,0.53
6372.00,0.53
6371.00,0.53
6370.00,0.53
6369.00,0.54
6368.00,0.54
6367.00,0.54
6366.00,0.54
6365.00,0.54
6364.00,0.54
6363.00,0.54
6362.00,0.54
6361.00,0.54
6360.00,0.54
6359.00,0.54
6358.00,0.54
6357.00,0.54
6356.00,0.54
6355.00,0.54
6354.00,0.54
6353.00,0.55
6352.00,0.55
6351.00,0.55
6350.00,0.55
6349.00,0.55
6348.00,0.55
6347.00,0.55
6346.00,0.55
6345.00,0.55
6344.00,0.55
6343.00,0.55
6342.00,0.55
6341.00,0.55
6340.00,0.55
6339.00,0.55
6338.00,0.55
6337.00,0.55
6336.00,0.55
6335.00,0.55
6334.00,0.55
6333.00,0.56
6332.00,0.56
6331.00,0.56
6330.00,0.56
6329.00,0.56
6328.00,0.56
6327.00,0.56
6326.00,0.56
6325.00,0.56
6324.00,0.56
6323.00,0.56
6322.00,0.56
6321.00,0.56
6320.00,0.56
6319.00,0.56
6318.00,0.57
6317.00,0.57
6316.00,0.57
6315.00,0.57
6314.00,0.57
6313.00,0.57
6312.00,0.57
6311.00,0.57
6310.00,0.57
6309.00,0.57
6308.00,0.57
6307.00,0.57
6306.00,0.57
6305.00,0.57
6304.00,0.57
6303.00,0.57
6302.00,0.57
6301.00,0.57
6300.00,0.57
6299.00,0.57
6298.00,0.57
6297.00,0.57
6296.00,0.58
6295.00,0.58
6294.00,0.58
6293.00,0.58
6292.00,0.58
6291.00,0.58
6290.00,0.58
6289.00,0.58
6288.00,0.58
6287.00,0.58
6286.00,0.58
6285.00,0.58
6284.00,0.58
6283.00,0.58
6282.00,0.58
6281.00,0.58
6280.00,0.58
6279.00,0.58
6278.00,0.58
6277.00,0.58
6276.00,0.58
6275.00,0.58
6274.00,0.58
6273.00,0.58
6272.00,0.58
6271.00,0.59
6270.00,0.59
6269.00,0.59
6268.00,0.59
6267.00,0.59
6266.00,0.59
6265.00,0.59
6264.00,0.59
6263.00,0.59
6262.00,0.59
6261.00,0.59
6260.00,0.59
6259.00,0.59
6258.00,0.59
6257.00,0.59
6256.00,0.59
6255.00,0.59
6254.00,0.59
6253.00,0.59
6252.00,0.59
6251.00,0.59
6250.00,0.59
6249.00,0.59
6248.00,0.59
6247.00,0.60
6246.00,0.60
6245.00,0.60
6244.00,0.60
6243.00,0.60
6242.00,0.60
6241.00,0.60
6240.00,0.60
6239.00,0.60
6238.00,0.60
6237.00,0.60
6236.00,0.60
6235.00,0.61
6234.00,0.61
6233.00,0.61
6232.00,0.61
6231.00,0.61
6230.00,0.61
6229.00,0.61
6228.00,0.61
6227.00,0.61
6226.00,0.61
6225.00,0.61
6224.00,0.61
6223.00,0.61
6222.00,0.61
6221.00,0.61
6220.00,0.61
6219.00,0.61
6218.00,0.61
6217.00,0.62
6216.00,0.62
6215.00,0.62
6214.00,0.62
6213.00,0.62
6212.00,0.62
6211.00,0.62
6210.00,0.62
6209.00,0.62
6208.00,0.62
6207.00,0.62
6206.00,0.62
6205.00,0.62
6204.00,0.62
6203.00,0.62
6202.00,0.62
6201.00,0.63
6200.00,0.63
6199.00,0.63
6198.00,0.63
6197.00,0.63
6196.00,0.63
6195.00,0.63
6194.00,0.63
6193.00,0.63
6192.00,0.63
6191.00,0.63
6190.00,0.64
6189.00,0.64
6188.00,0.64
6187.00,0.64
6186.00,0.64
6185.00,0.64
6184.00,0.64
6183.00,0.64
6182.00,0.64
6181.00,0.64
6180.00,0.64
6179.00,0.64
6178.00,0.64
6177.00,0.64
6176.00,0.64
6175.00,0.64
6174.00,0.64
6173.00,0.64
6172.00,0.64
6171.00,0.64
6170.00,0.64
6169.00,0.64
6168.00,0.64
6167.00,0.64
6166.00,0.64
6165.00,0.64
6164.00,0.65
6163.00,0.65
6162.00,0.65
6161.00,0.65
6160.00,0.65
6159.00,0.65
6158.00,0.65
6157.00,0.65
6156.00,0.65
6155.00,0.65
6154.00,0.65
6153.00,0.65
6152.00,0.65
6151.00,0.65
6150.00,0.65
6149.00,0.66
6148.00,0.66
6147.00,0.66
6146.00,0.66
6145.00,0.66
6144.00,0.66
6143.00,0.66
6142.00,0.66
6141.00,0.66
6140.00,0.66
6139.00,0.66
6138.00,0.66
6137.00,0.67
6136.00,0.67
6135.00,0.67
6134.00,0.67
6133.00,0.67
6132.00,0.67
6131.00,0.67
6130.00,0.67
6129.00,0.67
6128.00,0.67
6127.00,0.67
6126.00,0.67
6125.00,0.67
6124.00,0.67
6123.00,0.67
6122.00,0.67
6121.00,0.67
6120.00,0.67
6119.00,0.67
6118.00,0.67
6117.00,0.67
6116.00,0.67
6115.00,0.67
6114.00,0.68
6113.00,0.68
6112.00,0.68
6111.00,0.68
6110.00,0.68
6109.00,0.68
6108.00,0.68
6107.00,0.68
6106.00,0.68
6105.00,0.68
6104.00,0.68
6103.00,0.68
6102.00,0.68
6101.00,0.69
6100.00,0.69
6099.00,0.69
6098.00,0.69
6097.00,0.69
6096.00,0.69
6095.00,0.69
6094.00,0.69
6093.00,0.69
6092.00,0.69
6091.00,0.69
6090.00,0.69
6089.00,0.69
6088.00,0.69
6087.00,0.69
6086.00,0.69
6085.00,0.69
6084.00,0.69
6083.00,0.69
6082.00,0.70
6081.00,0.70
6080.00,0.70
6079.00,0.70
6078.00,0.70
6077.00,0.70
6076.00,0.70
6075.00,0.70
6074.00,0.70
6073.00,0.70
6072.00,0.70
6071.00,0.70
6070.00,0.70
6069.00,0.70
6068.00,0.70
6067.00,0.70
6066.00,0.70
6065.00,0.70
6064.00,0.70
6063.00,0.70
6062.00,0.71
6061.00,0.71
6060.00,0.71
6059.00,0.71
6058.00,0.71
6057.00,0.71
6056.00,0.71
6055.00,0.71
6054.00,0.71
6053.00,0.71
6052.00,0.71
6051.00,0.71
6050.00,0.71
6049.00,0.71
6048.00,0.71
6047.00,0.71
6046.00,0.71
6045.00,0.71
6044.00,0.71
6043.00,0.71
6042.00,0.71
6041.00,0.71
6040.00,0.71
6039.00,0.71
6038.00,0.71
6037.00,0.71
6036.00,0.71
6035.00,0.72
6034.00,0.72
6033.00,0.72
6032.00,0.72
6031.00,0.72
6030.00,0.72
6029.00,0.72
6028.00,0.72
6027.00,0.72
6026.00,0.72
6025.00,0.72
6024.00,0.72
6023.00,0.72
6022.00,0.72
6021.00,0.72
6020.00,0.72
6019.00,0.72
6018.00,0.72
6017.00,0.72
6016.00,0.72
6015.00,0.72
6014.00,0.72
6013.00,0.72
6012.00,0.72
6011.00,0.72
6010.00,0.72
6009.00,0.72
6008.00,0.72
6007.00,0.72
6006.00,0.72
6005.00,0.72
6004.00,0.72
6003.00,0.72
6002.00,0.72
6001.00,0.72
6000.00,0.72
5999.00,0.72
5998.00,0.72
5997.00,0.72
5996.00,0.72
5995.00,0.72
5994.00,0.72
5993.00,0.72
5992.00,0.71
5991.00,0.71
5990.00,0.71
5989.00,0.71
5988.00,0.71
5987.00,0.71
5986.00,0.71
5985.00,0.71
5984.00,0.71
5983.00,0.71
5982.00,0.71
5981.00,0.70
5980.00,0.70
5979.00,0.70
5978.00,0.70
5977.00,0.70
5976.00,0.70
5975.00,0.70
5974.00,0.69
5973.00,0.69
5972.00,0.69
5971.00,0.69
5970.00,0.68
5969.00,0.68
5968.00,0.68
5967.00,0.68
5966.00,0.68
5965.00,0.67
5964.00,0.67
5963.00,0.67
5962.00,0.67
5961.00,0.66
5960.00,0.66
5959.00,0.66
5958.00,0.66
5957.00,0.66
5956.00,0.65
5955.00,0.65
5954.00,0.65
5953.00,0.65
5952.00,0.65
5951.00,0.64
5950.00,0.64
5949.00,0.64
5948.00,0.64
5947.00,0.64
5946.00,0.64
5945.00,0.64
5944.00,0.64
5943.00,0.64
5942.00,0.64
5941.00,0.64
5940.00,0.64
5939.00,0.64
5938.00,0.63
5937.00,0.63
5936.00,0.63
5935.00,0.63
5934.00,0.63
5933.00,0.63
5932.00,0.63
5931.00,0.63
5930.00,0.63
5929.00,0.63
5928.00,0.63
5927.00,0.63
5926.00,0.63
5925.00,0.63
5924.00,0.63
5923.00,0.63
5922.00,0.62
5921.00,0.62
5920.00,0.62
5919.00,0.62
5918.00,0.62
5917.00,0.62
5916.00,0.62
5915.00,0.62
5914.00,0.62
5913.00,0.62
5912.00,0.62
5911.00,0.61
5910.00,0.61
5909.00,0.61
5908.00,0.61
5907.00,0.61
5906.00,0.61
5905.00,0.61
5904.00,0.61
5903.00,0.61
5902.00,0.61
5901.00,0.61
5900.00,0.61
5899.00,0.61
5898.00,0.61
5897.00,0.61
5896.00,0.61
5895.00,0.62
5894.00,0.62
5893.00,0.62
5892.00,0.62
5891.00,0.62
5890.00,0.62
5889.00,0.62
5888.00,0.62
5887.00,0.62
5886.00,0.62
5885.00,0.62
5884.00,0.62
5883.00,0.63
5882.00,0.63
5881.00,0.63
5880.00,0.63
5879.00,0.63
5878.00,0.63
5877.00,0.63
5876.00,0.63
5875.00,0.63
5874.00,0.63
5873.00,0.64
5872.00,0.64
5871.00,0.64
5870.00,0.64
5869.00,0.64
5868.00,0.64
5867.00,0.64
5866.00,0.64
5865.00,0.64
5864.00,0.64
5863.00,0.64
5862.00,0.64
5861.00,0.65
5860.00,0.65
5859.00,0.65
5858.00,0.65
5857.00,0.65
5856.00,0.65
5855.00,0.65
5854.00,0.65
5853.00,0.65
5852.00,0.65
5851.00,0.65
5850.00,0.65
5849.00,0.65
5848.00,0.65
5847.00,0.65
5846.00,0.65
5845.00,0.65
5844.00,0.65
5843.00,0.65
5842.00,0.65
5841.00,0.65
5840.00,0.65
5839.00,0.65
5838.00,0.65
5837.00,0.65
5836.00,0.65
5835.00,0.65
5834.00,0.65
5833.00,0.65
5832.00,0.65
5831.00,0.65
5830.00,0.65
5829.00,0.65
5828.00,0.65
5827.00,0.65
5826.00,0.65
5825.00,0.65
5824.00,0.65
5823.00,0.65
5822.00,0.65
5821.00,0.65
5820.00,0.65
5819.00,0.65
5818.00,0.65
5817.00,0.65
5816.00,0.65
5815.00,0.65
5814.00,0.65
5813.00,0.65
5812.00,0.65
5811.00,0.65
5810.00,0.65
5809.00,0.65
5808.00,0.65
5807.00,0.65
5806.00,0.65
5805.00,0.65
5804.00,0.65
5803.00,0.64
5802.00,0.64
5801.00,0.64
5800.00,0.64
5799.00,0.64
5798.00,0.64
5797.00,0.64
5796.00,0.64
5795.00,0.64
5794.00,0.64
5793.00,0.64
5792.00,0.64
5791.00,0.64
5790.00,0.64
5789.00,0.64
5788.00,0.64
5787.00,0.64
5786.00,0.64
5785.00,0.63
5784.00,0.63
5783.00,0.63
5782.00,0.63
5781.00,0.63
5780.00,0.63
5779.00,0.63
5778.00,0.63
5777.00,0.63
5776.00,0.63
5775.00,0.63
5774.00,0.63
5773.00,0.63
5772.00,0.63
5771.00,0.63
5770.00,0.63
5769.00,0.63
5768.00,0.63
5767.00,0.63
5766.00,0.63
5765.00,0.63
5764.00,0.63
5763.00,0.63
5762.00,0.63
5761.00,0.63
5760.00,0.63
5759.00,0.63
5758.00,0.64
5757.00,0.64
5756.00,0.64
5755.00,0.64
5754.00,0.64
5753.00,0.64
5752.00,0.64
5751.00,0.64
5750.00,0.65
5749.00,0.65
5748.00,0.65
5747.00,0.65
5746.00,0.65
5745.00,0.65
5744.00,0.65
5743.00,0.65
5742.00,0.65
5741.00,0.65
5740.00,0.65
5739.00,0.65
5738.00,0.65
5737.00,0.65
5736.00,0.65
5735.00,0.66
5734.00,0.66
5733.00,0.66
5732.00,0.66
5731.00,0.66
5730.00,0.66
5729.00,0.66
5728.00,0.66
5727.00,0.65
5726.00,0.65
5725.00,0.65
5724.00,0.65
5723.00,0.65
5722.00,0.65
5721.00,0.65
5720.00,0.65
5719.00,0.65
5718.00,0.65
5717.00,0.65
5716.00,0.65
5715.00,0.65
5714.00,0.65
5713.00,0.65
5712.00,0.65
5711.00,0.65
5710.00,0.65
5709.00,0.65
5708.00,0.65
5707.00,0.65
5706.00,0.65
5705.00,0.65
5704.00,0.65
5703.00,0.65
5702.00,0.65
5701.00,0.65
5700.00,0.65
5699.00,0.65
5698.00,0.65
5697.00,0.65
5696.00,0.65
5695.00,0.65
5694.00,0.64
5693.00,0.64
5692.00,0.64
5691.00,0.64
5690.00,0.64
5689.00,0.64
5688.00,0.64
5687.00,0.64
5686.00,0.64
5685.00,0.64
5684.00,0.64
5683.00,0.64
5682.00,0.64
5681.00,0.64
5680.00,0.63
5679.00,0.63
5678.00,0.63
5677.00,0.63
5676.00,0.63
5675.00,0.63
5674.00,0.63
5673.00,0.63
5672.00,0.63
5671.00,0.63
5670.00,0.63
5669.00,0.63
5668.00,0.63
5667.00,0.63
5666.00,0.63
5665.00,0.63
5664.00,0.64
5663.00,0.64
5662.00,0.64
5661.00,0.64
5660.00,0.64
5659.00,0.64
5658.00,0.64
5657.00,0.64
5656.00,0.64
5655.00,0.64
5654.00,0.64
5653.00,0.64
5652.00,0.64
5651.00,0.64
5650.00,0.64
5649.00,0.64
5648.00,0.64
5647.00,0.65
5646.00,0.65
5645.00,0.65
5644.00,0.65
5643.00,0.65
5642.00,0.65
5641.00,0.65
5640.00,0.65
5639.00,0.65
5638.00,0.65
5637.00,0.65
5636.00,0.65
5635.00,0.65
5634.00,0.65
5633.00,0.65
5632.00,0.65
5631.00,0.65
5630.00,0.65
5629.00,0.65
5628.00,0.65
5627.00,0.65
5626.00,0.65
5625.00,0.65
5624.00,0.65
5623.00,0.65
5622.00,0.65
5621.00,0.65
5620.00,0.65
5619.00,0.66
5618.00,0.66
5617.00,0.66
5616.00,0.66
5615.00,0.66
5614.00,0.66
5613.00,0.66
5612.00,0.66
5611.00,0.66
5610.00,0.66
5609.00,0.66
5608.00,0.66
5607.00,0.66
5606.00,0.66
5605.00,0.66
5604.00,0.66
5603.00,0.66
5602.00,0.66
5601.00,0.66
5600.00,0.66
5599.00,0.66
5598.00,0.67
5597.00,0.67
5596.00,0.67
5595.00,0.67
5594.00,0.67
5593.00,0.67
5592.00,0.67
5591.00,0.67
5590.00,0.67
5589.00,0.67
5588.00,0.67
5587.00,0.67
5586.00,0.67
5585.00,0.67
5584.00,0.67
5583.00,0.67
5582.00,0.68
5581.00,0.68
5580.00,0.68
5579.00,0.68
5578.00,0.68
5577.00,0.68
5576.00,0.68
5575.00,0.68
5574.00,0.68
5573.00,0.68
5572.00,0.68
5571.00,0.68
5570.00,0.68
5569.00,0.68
5568.00,0.68
5567.00,0.68
5566.00,0.68
5565.00,0.68
5564.00,0.69
5563.00,0.69
5562.00,0.69
5561.00,0.69
5560.00,0.69
5559.00,0.69
5558.00,0.69
5557.00,0.69
5556.00,0.69
5555.00,0.69
5554.00,0.69
5553.00,0.69
5552.00,0.69
5551.00,0.69
5550.00,0.69
5549.00,0.69
5548.00,0.69
5547.00,0.69
5546.00,0.69
5545.00,0.69
5544.00,0.69
5543.00,0.69
5542.00,0.69
5541.00,0.69
5540.00,0.69
5539.00,0.69
5538.00,0.69
5537.00,0.69
5536.00,0.69
5535.00,0.69
5534.00,0.69
5533.00,0.70
5532.00,0.70
5531.00,0.70
5530.00,0.70
5529.00,0.70
5528.00,0.70
5527.00,0.70
5526.00,0.70
5525.00,0.70
5524.00,0.70
5523.00,0.70
5522.00,0.70
5521.00,0.70
5520.00,0.70
5519.00,0.70
5518.00,0.70
5517.00,0.70
5516.00,0.70
5515.00,0.70
5514.00,0.70
5513.00,0.70
5512.00,0.70
5511.00,0.70
5510.00,0.70
5509.00,0.70
5508.00,0.70
5507.00,0.70
5506.00,0.70
5505.00,0.70
5504.00,0.70
5503.00,0.70
5502.00,0.70
5501.00,0.70
5500.00,0.70
5499.00,0.70
5498.00,0.70
5497.00,0.70
5496.00,0.70
5495.00,0.70
5494.00,0.70
5493.00,0.70
5492.00,0.70
5491.00,0.70
5490.00,0.70
5489.00,0.70
5488.00,0.71
5487.00,0.71
5486.00,0.71
5485.00,0.71
5484.00,0.71
5483.00,0.71
5482.00,0.71
5481.00,0.71
5480.00,0.71
5479.00,0.71
5478.00,0.71
5477.00,0.71
5476.00,0.71
5475.00,0.71
5474.00,0.71
5473.00,0.71
5472.00,0.71
5471.00,0.72
5470.00,0.72
5469.00,0.72
5468.00,0.72
5467.00,0.72
5466.00,0.72
5465.00,0.72
5464.00,0.72
5463.00,0.72
5462.00,0.72
5461.00,0.72
5460.00,0.72
5459.00,0.72
5458.00,0.72
5457.00,0.72
5456.00,0.72
5455.00,0.72
5454.00,0.72
5453.00,0.72
5452.00,0.72
5451.00,0.72
5450.00,0.72
5449.00,0.72
5448.00,0.72
5447.00,0.72
5446.00,0.72
5445.00,0.72
5444.00,0.72
5443.00,0.72
5442.00,0.72
5441.00,0.72
5440.00,0.72
5439.00,0.72
5438.00,0.72
5437.00,0.72
5436.00,0.72
5435.00,0.72
5434.00,0.72
5433.00,0.72
5432.00,0.72
5431.00,0.72
5430.00,0.72
5429.00,0.72
5428.00,0.72
5427.00,0.72
5426.00,0.72
5425.00,0.72
5424.00,0.72
5423.00,0.72
5422.00,0.72
5421.00,0.72
5420.00,0.72
5419.00,0.72
5418.00,0.72
5417.00,0.72
5416.00,0.72
5415.00,0.72
5414.00,0.72
5413.00,0.72
5412.00,0.72
5411.00,0.72
5410.00,0.72
5409.00,0.72
5408.00,0.72
5407.00,0.72
5406.00,0.72
5405.00,0.72
5404.00,0.72
5403.00,0.72
5402.00,0.72
5401.00,0.71
5400.00,0.71
5399.00,0.71
5398.00,0.71
5397.00,0.71
5396.00,0.71
5395.00,0.71
5394.00,0.71
5393.00,0.71
5392.00,0.71
5391.00,0.71
5390.00,0.71
5389.00,0.70
5388.00,0.70
5387.00,0.70
5386.00,0.70
5385.00,0.70
5384.00,0.70
5383.00,0.70
5382.00,0.69
5381.00,0.69
5380.00,0.69
5379.00,0.69
5378.00,0.69
5377.00,0.69
5376.00,0.68
5375.00,0.68
5374.00,0.68
5373.00,0.68
5372.00,0.67
5371.00,0.67
5370.00,0.67
5369.00,0.67
5368.00,0.66
5367.00,0.66
5366.00,0.66
5365.00,0.66
5364.00,0.65
5363.00,0.65
5362.00,0.65
5361.00,0.65
5360.00,0.64
5359.00,0.64
5358.00,0.64
5357.00,0.63
5356.00,0.63
5355.00,0.63
5354.00,0.62
5353.00,0.62
5352.00,0.61
5351.00,0.61
5350.00,0.61
5349.00,0.60
5348.00,0.60
5347.00,0.59
5346.00,0.59
5345.00,0.58
5344.00,0.58
5343.00,0.58
5342.00,0.57
5341.00,0.57
5340.00,0.56
5339.00,0.56
5338.00,0.55
5337.00,0.55
5336.00,0.54
5335.00,0.54
5334.00,0.54
5333.00,0.53
5332.00,0.53
5331.00,0.52
5330.00,0.52
5329.00,0.52
5328.00,0.51
5327.00,0.51
5326.00,0.50
5325.00,0.50
5324.00,0.50
5323.00,0.49
5322.00,0.49
5321.00,0.49
5320.00,0.48
5319.00,0.48
5318.00,0.47
5317.00,0.47
5316.00,0.47
5315.00,0.46
5314.00,0.46
5313.00,0.46
5312.00,0.45
5311.00,0.45
5310.00,0.45
5309.00,0.45
5308.00,0.44
5307.00,0.44
5306.00,0.44
5305.00,0.44
5304.00,0.43
5303.00,0.43
5302.00,0.43
5301.00,0.43
5300.00,0.43
5299.00,0.42
5298.00,0.42
5297.00,0.42
5296.00,0.42
5295.00,0.42
5294.00,0.42
5293.00,0.42
5292.00,0.41
5291.00,0.41
5290.00,0.41
5289.00,0.41
5288.00,0.41
5287.00,0.41
5286.00,0.41
5285.00,0.41
5284.00,0.40
5283.00,0.40
5282.00,0.40
5281.00,0.40
5280.00,0.40
5279.00,0.40
5278.00,0.40
5277.00,0.40
5276.00,0.40
5275.00,0.40
5274.00,0.40
5273.00,0.40
5272.00,0.40
5271.00,0.40
5270.00,0.40
5269.00,0.40
5268.00,0.40
5267.00,0.40
5266.00,0.40
5265.00,0.40
5264.00,0.40
5263.00,0.40
5262.00,0.40
5261.00,0.40
5260.00,0.40
5259.00,0.40
5258.00,0.40
5257.00,0.40
5256.00,0.40
5255.00,0.40
5254.00,0.40
5253.00,0.40
5252.00,0.40
5251.00,0.40
5250.00,0.40
5249.00,0.40
5248.00,0.40
5247.00,0.40
5246.00,0.40
5245.00,0.40
5244.00,0.40
5243.00,0.40
5242.00,0.40
5241.00,0.40
5240.00,0.40
5239.00,0.40
5238.00,0.40
5237.00,0.40
5236.00,0.40
5235.00,0.40
5234.00,0.40
5233.00,0.40
5232.00,0.40
5231.00,0.40
5230.00,0.40
5229.00,0.40
5228.00,0.40
5227.00,0.40
5226.00,0.40
5225.00,0.40
5224.00,0.40
5223.00,0.40
5222.00,0.40
5221.00,0.40
5220.00,0.40
5219.00,0.40
5218.00,0.40
5217.00,0.40
5216.00,0.40
5215.00,0.40
5214.00,0.40
5213.00,0.40
5212.00,0.40
5211.00,0.40
5210.00,0.40
5209.00,0.40
5208.00,0.40
5207.00,0.40
5206.00,0.40
5205.00,0.40
5204.00,0.40
5203.00,0.40
5202.00,0.40
5201.00,0.40
5200.00,0.40
5199.00,0.40
5198.00,0.40
5197.00,0.40
5196.00,0.40
5195.00,0.40
5194.00,0.40
5193.00,0.40
5192.00,0.40
5191.00,0.40
5190.00,0.41
5189.00,0.41
5188.00,0.41
5187.00,0.41
5186.00,0.41
5185.00,0.41
5184.00,0.41
5183.00,0.41
5182.00,0.41
5181.00,0.41
5180.00,0.41
5179.00,0.41
5178.00,0.41
5177.00,0.41
5176.00,0.41
5175.00,0.41
5174.00,0.41
5173.00,0.41
5172.00,0.41
5171.00,0.41
5170.00,0.41
5169.00,0.41
5168.00,0.41
5167.00,0.41
5166.00,0.41
5165.00,0.41
5164.00,0.41
5163.00,0.41
5162.00,0.41
5161.00,0.41
5160.00,0.41
5159.00,0.41
5158.00,0.41
5157.00,0.41
5156.00,0.41
5155.00,0.41
5154.00,0.41
5153.00,0.41
5152.00,0.41
5151.00,0.41
5150.00,0.41
5149.00,0.41
5148.00,0.41
5147.00,0.41
5146.00,0.42
5145.00,0.42
5144.00,0.42
5143.00,0.42
5142.00,0.42
5141.00,0.42
5140.00,0.42
5139.00,0.42
5138.00,0.42
5137.00,0.42
5136.00,0.42
5135.00,0.42
5134.00,0.42
5133.00,0.42
5132.00,0.42
5131.00,0.42
5130.00,0.42
5129.00,0.42
5128.00,0.42
5127.00,0.42
5126.00,0.42
5125.00,0.42
5124.00,0.42
5123.00,0.42
5122.00,0.42
5121.00,0.42
5120.00,0.42
5119.00,0.42
5118.00,0.42
5117.00,0.42
5116.00,0.42
5115.00,0.42
5114.00,0.42
5113.00,0.42
5112.00,0.42
5111.00,0.42
5110.00,0.42
5109.00,0.42
5108.00,0.42
5107.00,0.42
5106.00,0.43
5105.00,0.43
5104.00,0.43
5103.00,0.43
5102.00,0.43
5101.00,0.43
5100.00,0.43
5099.00,0.43
5098.00,0.43
5097.00,0.43
5096.00,0.43
5095.00,0.43
5094.00,0.43
5093.00,0.43
5092.00,0.43
5091.00,0.43
5090.00,0.43
5089.00,0.43
5088.00,0.43
5087.00,0.43
5086.00,0.43
5085.00,0.43
5084.00,0.43
5083.00,0.43
5082.00,0.43
5081.00,0.43
5080.00,0.43
5079.00,0.43
5078.00,0.43
5077.00,0.43
5076.00,0.43
5075.00,0.44
5074.00,0.44
5073.00,0.44
5072.00,0.44
5071.00,0.44
5070.00,0.44
5069.00,0.44
5068.00,0.44
5067.00,0.44
5066.00,0.44
5065.00,0.44
5064.00,0.44
5063.00,0.44
5062.00,0.44
5061.00,0.44
5060.00,0.44
5059.00,0.44
5058.00,0.44
5057.00,0.44
5056.00,0.44
5055.00,0.44
5054.00,0.44
5053.00,0.44
5052.00,0.44
5051.00,0.44
5050.00,0.44
5049.00,0.44
5048.00,0.45
5047.00,0.45
5046.00,0.45
5045.00,0.45
5044.00,0.45
5043.00,0.45
5042.00,0.45
5041.00,0.45
5040.00,0.45
5039.00,0.45
5038.00,0.45
5037.00,0.45
5036.00,0.45
5035.00,0.45
5034.00,0.45
5033.00,0.45
5032.00,0.45
5031.00,0.45
5030.00,0.45
5029.00,0.45
5028.00,0.45
5027.00,0.45
5026.00,0.45
5025.00,0.45
5024.00,0.45
5023.00,0.45
5022.00,0.45
5021.00,0.46
5020.00,0.46
5019.00,0.46
5018.00,0.46
5017.00,0.46
5016.00,0.46
5015.00,0.46
5014.00,0.46
5013.00,0.46
5012.00,0.46
5011.00,0.46
5010.00,0.46
5009.00,0.46
5008.00,0.46
5007.00,0.46
5006.00,0.46
5005.00,0.46
5004.00,0.46
5003.00,0.46
5002.00,0.46
5001.00,0.46
5000.00,0.46
4999.00,0.46
4998.00,0.46
4997.00,0.47
4996.00,0.47
4995.00,0.47
4994.00,0.47
4993.00,0.47
4992.00,0.47
4991.00,0.47
4990.00,0.47
4989.00,0.47
4988.00,0.47
4987.00,0.47
4986.00,0.47
4985.00,0.47
4984.00,0.47
4983.00,0.47
4982.00,0.47
4981.00,0.47
4980.00,0.47
4979.00,0.47
4978.00,0.47
4977.00,0.47
4976.00,0.47
4975.00,0.47
4974.00,0.47
4973.00,0.47
4972.00,0.47
4971.00,0.48
4970.00,0.48
4969.00,0.48
4968.00,0.48
4967.00,0.48
4966.00,0.48
4965.00,0.48
4964.00,0.48
4963.00,0.48
4962.00,0.48
4961.00,0.48
4960.00,0.48
4959.00,0.48
4958.00,0.48
4957.00,0.48
4956.00,0.48
4955.00,0.48
4954.00,0.48
4953.00,0.48
4952.00,0.49
4951.00,0.49
4950.00,0.49
4949.00,0.49
4948.00,0.49
4947.00,0.49
4946.00,0.49
4945.00,0.49
4944.00,0.49
4943.00,0.49
4942.00,0.49
4941.00,0.49
4940.00,0.49
4939.00,0.49
4938.00,0.49
4937.00,0.49
4936.00,0.49
4935.00,0.49
4934.00,0.49
4933.00,0.50
4932.00,0.50
4931.00,0.50
4930.00,0.50
4929.00,0.50
4928.00,0.50
4927.00,0.50
4926.00,0.50
4925.00,0.50
4924.00,0.50
4923.00,0.50
4922.00,0.50
4921.00,0.50
4920.00,0.50
4919.00,0.50
4918.00,0.50
4917.00,0.50
4916.00,0.50
4915.00,0.51
4914.00,0.51
4913.00,0.51
4912.00,0.51
4911.00,0.51
4910.00,0.51
4909.00,0.51
4908.00,0.51
4907.00,0.51
4906.00,0.51
4905.00,0.51
4904.00,0.51
4903.00,0.51
4902.00,0.51
4901.00,0.51
4900.00,0.51
4899.00,0.51
4898.00,0.51
4897.00,0.51
4896.00,0.51
4895.00,0.51
4894.00,0.51
4893.00,0.51
4892.00,0.51
4891.00,0.51
4890.00,0.51
4889.00,0.51
4888.00,0.51
4887.00,0.52
4886.00,0.52
4885.00,0.52
4884.00,0.52
4883.00,0.52
4882.00,0.52
4881.00,0.52
4880.00,0.52
4879.00,0.52
4878.00,0.52
4877.00,0.52
4876.00,0.52
4875.00,0.52
4874.00,0.52
4873.00,0.52
4872.00,0.52
4871.00,0.52
4870.00,0.52
4869.00,0.52
4868.00,0.52
4867.00,0.52
4866.00,0.53
4865.00,0.53
4864.00,0.53
4863.00,0.53
4862.00,0.53
4861.00,0.53
4860.00,0.53
4859.00,0.53
4858.00,0.53
4857.00,0.53
4856.00,0.53
4855.00,0.53
4854.00,0.53
4853.00,0.53
4852.00,0.53
4851.00,0.53
4850.00,0.53
4849.00,0.53
4848.00,0.53
4847.00,0.53
4846.00,0.53
4845.00,0.53
4844.00,0.53
4843.00,0.53
4842.00,0.54
4841.00,0.54
4840.00,0.54
4839.00,0.54
4838.00,0.54
4837.00,0.54
4836.00,0.54
4835.00,0.54
4834.00,0.54
4833.00,0.54
4832.00,0.54
4831.00,0.54
4830.00,0.54
4829.00,0.54
4828.00,0.54
4827.00,0.54
4826.00,0.54
4825.00,0.54
4824.00,0.54
4823.00,0.54
4822.00,0.54
4821.00,0.55
4820.00,0.55
4819.00,0.55
4818.00,0.55
4817.00,0.55
4816.00,0.55
4815.00,0.55
4814.00,0.55
4813.00,0.55
4812.00,0.55
4811.00,0.55
4810.00,0.55
4809.00,0.55
4808.00,0.55
4807.00,0.55
4806.00,0.55
4805.00,0.55
4804.00,0.55
4803.00,0.55
4802.00,0.56
4801.00,0.56
4800.00,0.56
4799.00,0.56
4798.00,0.56
4797.00,0.56
4796.00,0.56
4795.00,0.56
4794.00,0.56
4793.00,0.56
4792.00,0.56
4791.00,0.57
4790.00,0.57
4789.00,0.57
4788.00,0.57
4787.00,0.57
4786.00,0.57
4785.00,0.57
4784.00,0.57
4783.00,0.57
4782.00,0.57
4781.00,0.57
4780.00,0.57
4779.00,0.57
4778.00,0.57
4777.00,0.57
4776.00,0.57
4775.00,0.57
4774.00,0.57
4773.00,0.57
4772.00,0.57
4771.00,0.57
4770.00,0.57
4769.00,0.57
4768.00,0.58
4767.00,0.58
4766.00,0.58
4765.00,0.58
4764.00,0.58
4763.00,0.58
4762.00,0.58
4761.00,0.58
4760.00,0.58
4759.00,0.58
4758.00,0.58
4757.00,0.59
4756.00,0.59
4755.00,0.59
4754.00,0.59
4753.00,0.59
4752.00,0.59
4751.00,0.59
4750.00,0.59
4749.00,0.59
4748.00,0.59
4747.00,0.59
4746.00,0.60
4745.00,0.60
4744.00,0.60
4743.00,0.60
4742.00,0.60
4741.00,0.60
4740.00,0.60
4739.00,0.60
4738.00,0.60
4737.00,0.60
4736.00,0.60
4735.00,0.60
4734.00,0.60
4733.00,0.60
4732.00,0.61
4731.00,0.61
4730.00,0.61
4729.00,0.61
4728.00,0.61
4727.00,0.61
4726.00,0.61
4725.00,0.61
4724.00,0.61
4723.00,0.61
4722.00,0.61
4721.00,0.61
4720.00,0.62
4719.00,0.62
4718.00,0.62
4717.00,0.62
4716.00,0.62
4715.00,0.62
4714.00,0.62
4713.00,0.62
4712.00,0.62
4711.00,0.62
4710.00,0.62
4709.00,0.63
4708.00,0.63
4707.00,0.63
4706.00,0.63
4705.00,0.63
4704.00,0.63
4703.00,0.63
4702.00,0.63
4701.00,0.63
4700.00,0.63
4699.00,0.64
4698.00,0.64
4697.00,0.64
4696.00,0.64
4695.00,0.64
4694.00,0.64
4693.00,0.64
4692.00,0.64
4691.00,0.64
4690.00,0.64
4689.00,0.64
4688.00,0.65
4687.00,0.65
4686.00,0.65
4685.00,0.65
4684.00,0.65
4683.00,0.65
4682.00,0.65
4681.00,0.65
4680.00,0.65
4679.00,0.65
4678.00,0.65
4677.00,0.65
4676.00,0.65
4675.00,0.65
4674.00,0.65
4673.00,0.65
4672.00,0.65
4671.00,0.65
4670.00,0.65
4669.00,0.65
4668.00,0.65
4667.00,0.66
4666.00,0.66
4665.00,0.66
4664.00,0.66
4663.00,0.66
4662.00,0.66
4661.00,0.66
4660.00,0.66
4659.00,0.66
4658.00,0.66
4657.00,0.66
4656.00,0.66
4655.00,0.66
4654.00,0.66
4653.00,0.66
4652.00,0.66
4651.00,0.66
4650.00,0.66
4649.00,0.66
4648.00,0.66
4647.00,0.66
4646.00,0.66
4645.00,0.66
4644.00,0.66
4643.00,0.67
4642.00,0.67
4641.00,0.67
4640.00,0.67
4639.00,0.67
4638.00,0.67
4637.00,0.67
4636.00,0.67
4635.00,0.67
4634.00,0.67
4633.00,0.67
4632.00,0.67
4631.00,0.67
4630.00,0.67
4629.00,0.67
4628.00,0.67
4627.00,0.67
4626.00,0.67
4625.00,0.67
4624.00,0.67
4623.00,0.67
4622.00,0.67
4621.00,0.67
4620.00,0.67
4619.00,0.67
4618.00,0.67
4617.00,0.67
4616.00,0.67
4615.00,0.67
4614.00,0.67
4613.00,0.67
4612.00,0.67
4611.00,0.67
4610.00,0.67
4609.00,0.67
4608.00,0.67
4607.00,0.67
4606.00,0.67
4605.00,0.67
4604.00,0.67
4603.00,0.67
4602.00,0.67
4601.00,0.67
4600.00,0.67
4599.00,0.67
4598.00,0.67
4597.00,0.67
4596.00,0.67
4595.00,0.67
4594.00,0.67
4593.00,0.67
4592.00,0.67
4591.00,0.67
4590.00,0.67
4589.00,0.67
4588.00,0.67
4587.00,0.67
4586.00,0.68
4585.00,0.68
4584.00,0.68
4583.00,0.68
4582.00,0.68
4581.00,0.68
4580.00,0.68
4579.00,0.68
4578.00,0.68
4577.00,0.68
4576.00,0.68
4575.00,0.68
4574.00,0.68
4573.00,0.68
4572.00,0.68
4571.00,0.68
4570.00,0.68
4569.00,0.68
4568.00,0.68
4567.00,0.68
4566.00,0.68
4565.00,0.68
4564.00,0.68
4563.00,0.68
4562.00,0.68
4561.00,0.68
4560.00,0.68
4559.00,0.68
4558.00,0.68
4557.00,0.68
4556.00,0.68
4555.00,0.68
4554.00,0.68
4553.00,0.68
4552.00,0.68
4551.00,0.68
4550.00,0.68
4549.00,0.68
4548.00,0.68
4547.00,0.68
4546.00,0.68
4545.00,0.68
4544.00,0.68
4543.00,0.68
4542.00,0.68
4541.00,0.68
4540.00,0.68
4539.00,0.68
4538.00,0.68
4537.00,0.68
4536.00,0.68
4535.00,0.68
4534.00,0.68
4533.00,0.68
4532.00,0.68
4531.00,0.69
4530.00,0.69
4529.00,0.69
4528.00,0.69
4527.00,0.69
4526.00,0.69
4525.00,0.69
4524.00,0.69
4523.00,0.69
4522.00,0.69
4521.00,0.69
4520.00,0.69
4519.00,0.69
4518.00,0.69
4517.00,0.69
4516.00,0.69
4515.00,0.69
4514.00,0.69
4513.00,0.69
4512.00,0.69
4511.00,0.69
4510.00,0.69
4509.00,0.69
4508.00,0.69
4507.00,0.69
4506.00,0.69
4505.00,0.69
4504.00,0.69
4503.00,0.69
4502.00,0.69
4501.00,0.69
4500.00,0.69
4499.00,0.69
4498.00,0.69
4497.00,0.69
4496.00,0.69
4495.00,0.69
4494.00,0.69
4493.00,0.68
4492.00,0.68
4491.00,0.68
4490.00,0.68
4489.00,0.68
4488.00,0.68
4487.00,0.68
4486.00,0.68
4485.00,0.68
4484.00,0.68
4483.00,0.68
4482.00,0.68
4481.00,0.68
4480.00,0.68
4479.00,0.68
4478.00,0.68
4477.00,0.68
4476.00,0.68
4475.00,0.67
4474.00,0.67
4473.00,0.67
4472.00,0.67
4471.00,0.67
4470.00,0.67
4469.00,0.67
4468.00,0.67
4467.00,0.67
4466.00,0.67
4465.00,0.67
4464.00,0.66
4463.00,0.66
4462.00,0.66
4461.00,0.66
4460.00,0.66
4459.00,0.66
4458.00,0.66
4457.00,0.66
4456.00,0.66
4455.00,0.65
4454.00,0.65
4453.00,0.65
4452.00,0.65
4451.00,0.65
4450.00,0.65
4449.00,0.65
4448.00,0.64
4447.00,0.64
4446.00,0.64
4445.00,0.64
4444.00,0.64
4443.00,0.64
4442.00,0.63
4441.00,0.63
4440.00,0.63
4439.00,0.63
4438.00,0.62
4437.00,0.62
4436.00,0.62
4435.00,0.62
4434.00,0.62
4433.00,0.62
4432.00,0.61
4431.00,0.61
4430.00,0.61
4429.00,0.61
4428.00,0.61
4427.00,0.61
4426.00,0.60
4425.00,0.60
4424.00,0.60
4423.00,0.60
4422.00,0.60
4421.00,0.60
4420.00,0.60
4419.00,0.60
4418.00,0.60
4417.00,0.60
4416.00,0.60
4415.00,0.60
4414.00,0.60
4413.00,0.60
4412.00,0.60
4411.00,0.60
4410.00,0.60
4409.00,0.60
4408.00,0.60
4407.00,0.60
4406.00,0.60
4405.00,0.60
4404.00,0.60
4403.00,0.60
4402.00,0.60
4401.00,0.60
4400.00,0.60
4399.00,0.60
4398.00,0.60
4397.00,0.60
4396.00,0.60
4395.00,0.60
4394.00,0.60
4393.00,0.61
4392.00,0.61
4391.00,0.61
4390.00,0.61
4389.00,0.61
4388.00,0.61
4387.00,0.61
4386.00,0.61
4385.00,0.61
4384.00,0.61
4383.00,0.62
4382.00,0.62
4381.00,0.62
4380.00,0.62
4379.00,0.62
4378.00,0.62
4377.00,0.62
4376.00,0.62
4375.00,0.62
4374.00,0.62
4373.00,0.62
4372.00,0.62
4371.00,0.62
4370.00,0.62
4369.00,0.62
4368.00,0.62
4367.00,0.62
4366.00,0.62
4365.00,0.62
4364.00,0.62
4363.00,0.62
4362.00,0.62
4361.00,0.62
4360.00,0.62
4359.00,0.62
4358.00,0.62
4357.00,0.62
4356.00,0.62
4355.00,0.62
4354.00,0.62
4353.00,0.62
4352.00,0.62
4351.00,0.62
4350.00,0.62
4349.00,0.62
4348.00,0.62
4347.00,0.62
4346.00,0.62
4345.00,0.62
4344.00,0.62
4343.00,0.62
4342.00,0.62
4341.00,0.62
4340.00,0.62
4339.00,0.62
4338.00,0.62
4337.00,0.62
4336.00,0.62
4335.00,0.62
4334.00,0.62
4333.00,0.63
4332.00,0.63
4331.00,0.63
4330.00,0.63
4329.00,0.63
4328.00,0.63
4327.00,0.63
4326.00,0.63
4325.00,0.63
4324.00,0.63
4323.00,0.63
4322.00,0.63
4321.00,0.64
4320.00,0.64
4319.00,0.64
4318.00,0.64
4317.00,0.64
4316.00,0.64
4315.00,0.64
4314.00,0.65
4313.00,0.65
4312.00,0.65
4311.00,0.65
4310.00,0.65
4309.00,0.65
4308.00,0.65
4307.00,0.65
4306.00,0.65
4305.00,0.66
4304.00,0.66
4303.00,0.66
4302.00,0.66
4301.00,0.66
4300.00,0.66
4299.00,0.66
4298.00,0.66
4297.00,0.66
4296.00,0.66
4295.00,0.66
4294.00,0.66
4293.00,0.66
4292.00,0.66
4291.00,0.66
4290.00,0.66
4289.00,0.66
4288.00,0.67
4287.00,0.67
4286.00,0.67
4285.00,0.67
4284.00,0.67
4283.00,0.67
4282.00,0.67
4281.00,0.67
4280.00,0.67
4279.00,0.67
4278.00,0.67
4277.00,0.67
4276.00,0.67
4275.00,0.67
4274.00,0.67
4273.00,0.67
4272.00,0.67
4271.00,0.66
4270.00,0.66
4269.00,0.66
4268.00,0.66
4267.00,0.66
4266.00,0.66
4265.00,0.66
4264.00,0.66
4263.00,0.66
4262.00,0.66
4261.00,0.66
4260.00,0.66
4259.00,0.66
4258.00,0.66
4257.00,0.67
4256.00,0.67
4255.00,0.67
4254.00,0.67
4253.00,0.67
4252.00,0.67
4251.00,0.67
4250.00,0.67
4249.00,0.67
4248.00,0.67
4247.00,0.67
4246.00,0.67
4245.00,0.67
4244.00,0.67
4243.00,0.67
4242.00,0.67
4241.00,0.67
4240.00,0.67
4239.00,0.67
4238.00,0.67
4237.00,0.68
4236.00,0.68
4235.00,0.68
4234.00,0.68
4233.00,0.68
4232.00,0.68
4231.00,0.68
4230.00,0.68
4229.00,0.68
4228.00,0.68
4227.00,0.68
4226.00,0.68
4225.00,0.68
4224.00,0.68
4223.00,0.68
4222.00,0.68
4221.00,0.68
4220.00,0.68
4219.00,0.68
4218.00,0.68
4217.00,0.68
4216.00,0.68
4215.00,0.68
4214.00,0.68
4213.00,0.68
4212.00,0.68
4211.00,0.68
4210.00,0.68
4209.00,0.68
4208.00,0.68
4207.00,0.68
4206.00,0.68
4205.00,0.68
4204.00,0.68
4203.00,0.68
4202.00,0.68
4201.00,0.68
4200.00,0.68
4199.00,0.68
4198.00,0.68
4197.00,0.68
4196.00,0.68
4195.00,0.68
4194.00,0.68
4193.00,0.68
4192.00,0.68
4191.00,0.68
4190.00,0.68
4189.00,0.68
4188.00,0.68
4187.00,0.68
4186.00,0.68
4185.00,0.68
4184.00,0.68
4183.00,0.68
4182.00,0.68
4181.00,0.68
4180.00,0.68
4179.00,0.68
4178.00,0.68
4177.00,0.68
4176.00,0.68
4175.00,0.68
4174.00,0.68
4173.00,0.68
4172.00,0.68
4171.00,0.68
4170.00,0.68
4169.00,0.68
4168.00,0.68
4167.00,0.68
4166.00,0.68
4165.00,0.68
4164.00,0.68
4163.00,0.68
4162.00,0.68
4161.00,0.68
4160.00,0.68
4159.00,0.68
4158.00,0.68
4157.00,0.68
4156.00,0.68
4155.00,0.68
4154.00,0.68
4153.00,0.68
4152.00,0.68
4151.00,0.68
4150.00,0.68
4149.00,0.68
4148.00,0.68
4147.00,0.68
4146.00,0.68
4145.00,0.68
4144.00,0.68
4143.00,0.68
4142.00,0.68
4141.00,0.68
4140.00,0.68
4139.00,0.68
4138.00,0.68
4137.00,0.68
4136.00,0.68
4135.00,0.68
4134.00,0.68
4133.00,0.68
4132.00,0.68
4131.00,0.68
4130.00,0.68
4129.00,0.68
4128.00,0.68
4127.00,0.68
4126.00,0.68
4125.00,0.68
4124.00,0.68
4123.00,0.68
4122.00,0.68
4121.00,0.68
4120.00,0.68
4119.00,0.68
4118.00,0.68
4117.00,0.68
4116.00,0.68
4115.00,0.68
4114.00,0.68
4113.00,0.68
4112.00,0.68
4111.00,0.68
4110.00,0.69
4109.00,0.69
4108.00,0.69
4107.00,0.69
4106.00,0.69
4105.00,0.69
4104.00,0.69
4103.00,0.69
4102.00,0.69
4101.00,0.69
4100.00,0.69
4099.00,0.69
4098.00,0.69
4097.00,0.69
4096.00,0.69
4095.00,0.69
4094.00,0.69
4093.00,0.69
4092.00,0.69
4091.00,0.69
4090.00,0.69
4089.00,0.69
4088.00,0.69
4087.00,0.69
4086.00,0.69
4085.00,0.69
4084.00,0.69
4083.00,0.69
4082.00,0.69
4081.00,0.69
4080.00,0.69
4079.00,0.69
4078.00,0.69
4077.00,0.69
4076.00,0.69
4075.00,0.69
4074.00,0.69
4073.00,0.69
4072.00,0.69
4071.00,0.69
4070.00,0.69
4069.00,0.69
4068.00,0.69
4067.00,0.69
4066.00,0.69
4065.00,0.69
4064.00,0.69
4063.00,0.69
4062.00,0.69
4061.00,0.70
4060.00,0.70
4059.00,0.70
4058.00,0.70
4057.00,0.70
4056.00,0.70
4055.00,0.70
4054.00,0.70
4053.00,0.70
4052.00,0.70
4051.00,0.70
4050.00,0.70
4049.00,0.70
4048.00,0.70
4047.00,0.70
4046.00,0.70
4045.00,0.70
4044.00,0.70
4043.00,0.70
4042.00,0.70
4041.00,0.70
4040.00,0.70
4039.00,0.70
4038.00,0.70
4037.00,0.70
4036.00,0.70
4035.00,0.70
4034.00,0.70
4033.00,0.70
4032.00,0.70
4031.00,0.70
4030.00,0.70
4029.00,0.70
4028.00,0.70
4027.00,0.70
4026.00,0.70
4025.00,0.70
4024.00,0.70
4023.00,0.70
4022.00,0.70
4021.00,0.70
4020.00,0.70
4019.00,0.70
4018.00,0.70
4017.00,0.71
4016.00,0.71
4015.00,0.71
4014.00,0.71
4013.00,0.71
4012.00,0.71
4011.00,0.71
4010.00,0.71
4009.00,0.71
4008.00,0.72
4007.00,0.72
4006.00,0.72
4005.00,0.72
4004.00,0.72
4003.00,0.72
4002.00,0.72
4001.00,0.72
4000.00,0.72
