创建为新数据集,样品 513 用户 Administrator 日期 星期一, 七月 16 2018
cm-1,%T
10000.00,1.13
9999.00,1.12
9998.00,1.12
9997.00,1.12
9996.00,1.12
9995.00,1.12
9994.00,1.12
9993.00,1.12
9992.00,1.13
9991.00,1.13
9990.00,1.13
9989.00,1.13
9988.00,1.14
9987.00,1.14
9986.00,1.14
9985.00,1.14
9984.00,1.15
9983.00,1.15
9982.00,1.15
9981.00,1.15
9980.00,1.15
9979.00,1.15
9978.00,1.15
9977.00,1.15
9976.00,1.15
9975.00,1.15
9974.00,1.14
9973.00,1.14
9972.00,1.14
9971.00,1.13
9970.00,1.13
9969.00,1.13
9968.00,1.13
9967.00,1.12
9966.00,1.12
9965.00,1.12
9964.00,1.12
9963.00,1.12
9962.00,1.12
9961.00,1.12
9960.00,1.12
9959.00,1.12
9958.00,1.12
9957.00,1.12
9956.00,1.12
9955.00,1.12
9954.00,1.12
9953.00,1.12
9952.00,1.12
9951.00,1.12
9950.00,1.12
9949.00,1.12
9948.00,1.13
9947.00,1.13
9946.00,1.13
9945.00,1.12
9944.00,1.12
9943.00,1.12
9942.00,1.12
9941.00,1.12
9940.00,1.12
9939.00,1.12
9938.00,1.12
9937.00,1.12
9936.00,1.12
9935.00,1.12
9934.00,1.12
9933.00,1.12
9932.00,1.12
9931.00,1.11
9930.00,1.11
9929.00,1.11
9928.00,1.11
9927.00,1.11
9926.00,1.10
9925.00,1.10
9924.00,1.10
9923.00,1.10
9922.00,1.10
9921.00,1.09
9920.00,1.09
9919.00,1.09
9918.00,1.09
9917.00,1.09
9916.00,1.09
9915.00,1.09
9914.00,1.09
9913.00,1.09
9912.00,1.09
9911.00,1.10
9910.00,1.10
9909.00,1.10
9908.00,1.10
9907.00,1.11
9906.00,1.11
9905.00,1.11
9904.00,1.11
9903.00,1.12
9902.00,1.12
9901.00,1.12
9900.00,1.12
9899.00,1.12
9898.00,1.12
9897.00,1.12
9896.00,1.12
9895.00,1.12
9894.00,1.12
9893.00,1.12
9892.00,1.12
9891.00,1.12
9890.00,1.12
9889.00,1.11
9888.00,1.11
9887.00,1.11
9886.00,1.11
9885.00,1.11
9884.00,1.11
9883.00,1.10
9882.00,1.10
9881.00,1.10
9880.00,1.10
9879.00,1.10
9878.00,1.10
9877.00,1.10
9876.00,1.10
9875.00,1.10
9874.00,1.10
9873.00,1.10
9872.00,1.09
9871.00,1.09
9870.00,1.09
9869.00,1.09
9868.00,1.09
9867.00,1.09
9866.00,1.09
9865.00,1.09
9864.00,1.09
9863.00,1.09
9862.00,1.09
9861.00,1.09
9860.00,1.09
9859.00,1.09
9858.00,1.09
9857.00,1.09
9856.00,1.08
9855.00,1.08
9854.00,1.08
9853.00,1.09
9852.00,1.09
9851.00,1.09
9850.00,1.09
9849.00,1.09
9848.00,1.09
9847.00,1.09
9846.00,1.09
9845.00,1.09
9844.00,1.10
9843.00,1.10
9842.00,1.10
9841.00,1.10
9840.00,1.10
9839.00,1.10
9838.00,1.10
9837.00,1.10
9836.00,1.10
9835.00,1.10
9834.00,1.10
9833.00,1.10
9832.00,1.10
9831.00,1.10
9830.00,1.10
9829.00,1.10
9828.00,1.10
9827.00,1.10
9826.00,1.10
9825.00,1.11
9824.00,1.11
9823.00,1.11
9822.00,1.11
9821.00,1.11
9820.00,1.11
9819.00,1.11
9818.00,1.11
9817.00,1.11
9816.00,1.11
9815.00,1.11
9814.00,1.11
9813.00,1.11
9812.00,1.11
9811.00,1.11
9810.00,1.11
9809.00,1.11
9808.00,1.11
9807.00,1.10
9806.00,1.10
9805.00,1.10
9804.00,1.10
9803.00,1.10
9802.00,1.10
9801.00,1.11
9800.00,1.11
9799.00,1.11
9798.00,1.11
9797.00,1.11
9796.00,1.11
9795.00,1.11
9794.00,1.11
9793.00,1.11
9792.00,1.11
9791.00,1.11
9790.00,1.11
9789.00,1.11
9788.00,1.11
9787.00,1.11
9786.00,1.11
9785.00,1.11
9784.00,1.11
9783.00,1.11
9782.00,1.11
9781.00,1.11
9780.00,1.11
9779.00,1.11
9778.00,1.11
9777.00,1.11
9776.00,1.12
9775.00,1.12
9774.00,1.12
9773.00,1.12
9772.00,1.12
9771.00,1.12
9770.00,1.12
9769.00,1.12
9768.00,1.12
9767.00,1.12
9766.00,1.12
9765.00,1.12
9764.00,1.12
9763.00,1.12
9762.00,1.12
9761.00,1.12
9760.00,1.12
9759.00,1.12
9758.00,1.11
9757.00,1.11
9756.00,1.11
9755.00,1.11
9754.00,1.11
9753.00,1.10
9752.00,1.10
9751.00,1.10
9750.00,1.10
9749.00,1.09
9748.00,1.09
9747.00,1.09
9746.00,1.09
9745.00,1.09
9744.00,1.09
9743.00,1.09
9742.00,1.09
9741.00,1.09
9740.00,1.09
9739.00,1.09
9738.00,1.09
9737.00,1.09
9736.00,1.09
9735.00,1.10
9734.00,1.10
9733.00,1.10
9732.00,1.10
9731.00,1.10
9730.00,1.10
9729.00,1.10
9728.00,1.11
9727.00,1.11
9726.00,1.11
9725.00,1.11
9724.00,1.10
9723.00,1.10
9722.00,1.10
9721.00,1.10
9720.00,1.10
9719.00,1.10
9718.00,1.10
9717.00,1.10
9716.00,1.10
9715.00,1.09
9714.00,1.09
9713.00,1.09
9712.00,1.09
9711.00,1.09
9710.00,1.09
9709.00,1.09
9708.00,1.09
9707.00,1.09
9706.00,1.09
9705.00,1.09
9704.00,1.09
9703.00,1.09
9702.00,1.09
9701.00,1.09
9700.00,1.09
9699.00,1.10
9698.00,1.10
9697.00,1.10
9696.00,1.10
9695.00,1.10
9694.00,1.10
9693.00,1.11
9692.00,1.11
9691.00,1.11
9690.00,1.11
9689.00,1.11
9688.00,1.12
9687.00,1.12
9686.00,1.12
9685.00,1.12
9684.00,1.12
9683.00,1.12
9682.00,1.12
9681.00,1.11
9680.00,1.11
9679.00,1.11
9678.00,1.11
9677.00,1.11
9676.00,1.10
9675.00,1.10
9674.00,1.10
9673.00,1.10
9672.00,1.09
9671.00,1.09
9670.00,1.09
9669.00,1.09
9668.00,1.09
9667.00,1.08
9666.00,1.08
9665.00,1.08
9664.00,1.08
9663.00,1.08
9662.00,1.08
9661.00,1.08
9660.00,1.08
9659.00,1.09
9658.00,1.09
9657.00,1.09
9656.00,1.09
9655.00,1.09
9654.00,1.09
9653.00,1.09
9652.00,1.10
9651.00,1.10
9650.00,1.10
9649.00,1.10
9648.00,1.10
9647.00,1.10
9646.00,1.10
9645.00,1.10
9644.00,1.10
9643.00,1.10
9642.00,1.10
9641.00,1.10
9640.00,1.09
9639.00,1.09
9638.00,1.09
9637.00,1.09
9636.00,1.09
9635.00,1.09
9634.00,1.09
9633.00,1.09
9632.00,1.09
9631.00,1.09
9630.00,1.09
9629.00,1.09
9628.00,1.09
9627.00,1.10
9626.00,1.10
9625.00,1.10
9624.00,1.10
9623.00,1.10
9622.00,1.10
9621.00,1.10
9620.00,1.10
9619.00,1.10
9618.00,1.10
9617.00,1.10
9616.00,1.10
9615.00,1.10
9614.00,1.10
9613.00,1.10
9612.00,1.10
9611.00,1.10
9610.00,1.10
9609.00,1.10
9608.00,1.10
9607.00,1.10
9606.00,1.10
9605.00,1.10
9604.00,1.10
9603.00,1.10
9602.00,1.10
9601.00,1.10
9600.00,1.10
9599.00,1.10
9598.00,1.10
9597.00,1.10
9596.00,1.10
9595.00,1.10
9594.00,1.10
9593.00,1.10
9592.00,1.10
9591.00,1.10
9590.00,1.10
9589.00,1.10
9588.00,1.10
9587.00,1.10
9586.00,1.10
9585.00,1.10
9584.00,1.10
9583.00,1.10
9582.00,1.10
9581.00,1.10
9580.00,1.10
9579.00,1.10
9578.00,1.10
9577.00,1.10
9576.00,1.10
9575.00,1.10
9574.00,1.10
9573.00,1.10
9572.00,1.10
9571.00,1.10
9570.00,1.10
9569.00,1.10
9568.00,1.10
9567.00,1.10
9566.00,1.10
9565.00,1.10
9564.00,1.11
9563.00,1.11
9562.00,1.11
9561.00,1.11
9560.00,1.10
9559.00,1.10
9558.00,1.10
9557.00,1.10
9556.00,1.10
9555.00,1.10
9554.00,1.10
9553.00,1.10
9552.00,1.10
9551.00,1.10
9550.00,1.10
9549.00,1.10
9548.00,1.10
9547.00,1.10
9546.00,1.10
9545.00,1.10
9544.00,1.10
9543.00,1.10
9542.00,1.10
9541.00,1.10
9540.00,1.10
9539.00,1.10
9538.00,1.10
9537.00,1.11
9536.00,1.11
9535.00,1.11
9534.00,1.11
9533.00,1.11
9532.00,1.11
9531.00,1.11
9530.00,1.12
9529.00,1.12
9528.00,1.12
9527.00,1.12
9526.00,1.12
9525.00,1.12
9524.00,1.12
9523.00,1.12
9522.00,1.12
9521.00,1.11
9520.00,1.11
9519.00,1.11
9518.00,1.11
9517.00,1.11
9516.00,1.11
9515.00,1.11
9514.00,1.10
9513.00,1.10
9512.00,1.10
9511.00,1.10
9510.00,1.10
9509.00,1.10
9508.00,1.10
9507.00,1.10
9506.00,1.11
9505.00,1.11
9504.00,1.11
9503.00,1.11
9502.00,1.11
9501.00,1.11
9500.00,1.11
9499.00,1.12
9498.00,1.12
9497.00,1.12
9496.00,1.12
9495.00,1.12
9494.00,1.12
9493.00,1.12
9492.00,1.11
9491.00,1.11
9490.00,1.11
9489.00,1.11
9488.00,1.11
9487.00,1.11
9486.00,1.11
9485.00,1.10
9484.00,1.10
9483.00,1.10
9482.00,1.10
9481.00,1.10
9480.00,1.10
9479.00,1.10
9478.00,1.10
9477.00,1.10
9476.00,1.10
9475.00,1.10
9474.00,1.10
9473.00,1.10
9472.00,1.10
9471.00,1.10
9470.00,1.10
9469.00,1.10
9468.00,1.10
9467.00,1.10
9466.00,1.10
9465.00,1.10
9464.00,1.10
9463.00,1.10
9462.00,1.10
9461.00,1.10
9460.00,1.11
9459.00,1.11
9458.00,1.11
9457.00,1.11
9456.00,1.11
9455.00,1.11
9454.00,1.11
9453.00,1.11
9452.00,1.11
9451.00,1.11
9450.00,1.12
9449.00,1.12
9448.00,1.12
9447.00,1.12
9446.00,1.12
9445.00,1.12
9444.00,1.12
9443.00,1.12
9442.00,1.12
9441.00,1.12
9440.00,1.12
9439.00,1.12
9438.00,1.11
9437.00,1.11
9436.00,1.11
9435.00,1.11
9434.00,1.11
9433.00,1.10
9432.00,1.10
9431.00,1.10
9430.00,1.10
9429.00,1.10
9428.00,1.09
9427.00,1.09
9426.00,1.09
9425.00,1.09
9424.00,1.09
9423.00,1.09
9422.00,1.09
9421.00,1.09
9420.00,1.09
9419.00,1.09
9418.00,1.09
9417.00,1.09
9416.00,1.09
9415.00,1.09
9414.00,1.09
9413.00,1.10
9412.00,1.10
9411.00,1.10
9410.00,1.10
9409.00,1.10
9408.00,1.11
9407.00,1.11
9406.00,1.11
9405.00,1.11
9404.00,1.11
9403.00,1.11
9402.00,1.11
9401.00,1.11
9400.00,1.12
9399.00,1.12
9398.00,1.12
9397.00,1.12
9396.00,1.12
9395.00,1.12
9394.00,1.12
9393.00,1.12
9392.00,1.12
9391.00,1.11
9390.00,1.11
9389.00,1.11
9388.00,1.11
9387.00,1.11
9386.00,1.11
9385.00,1.11
9384.00,1.10
9383.00,1.10
9382.00,1.10
9381.00,1.10
9380.00,1.10
9379.00,1.10
9378.00,1.10
9377.00,1.10
9376.00,1.10
9375.00,1.10
9374.00,1.10
9373.00,1.10
9372.00,1.10
9371.00,1.10
9370.00,1.10
9369.00,1.10
9368.00,1.10
9367.00,1.10
9366.00,1.10
9365.00,1.10
9364.00,1.10
9363.00,1.10
9362.00,1.10
9361.00,1.10
9360.00,1.10
9359.00,1.10
9358.00,1.10
9357.00,1.10
9356.00,1.10
9355.00,1.10
9354.00,1.10
9353.00,1.10
9352.00,1.10
9351.00,1.10
9350.00,1.10
9349.00,1.10
9348.00,1.10
9347.00,1.10
9346.00,1.09
9345.00,1.09
9344.00,1.09
9343.00,1.09
9342.00,1.09
9341.00,1.08
9340.00,1.08
9339.00,1.08
9338.00,1.08
9337.00,1.08
9336.00,1.08
9335.00,1.08
9334.00,1.08
9333.00,1.08
9332.00,1.08
9331.00,1.08
9330.00,1.08
9329.00,1.08
9328.00,1.09
9327.00,1.09
9326.00,1.09
9325.00,1.09
9324.00,1.09
9323.00,1.09
9322.00,1.09
9321.00,1.09
9320.00,1.09
9319.00,1.09
9318.00,1.09
9317.00,1.09
9316.00,1.09
9315.00,1.09
9314.00,1.09
9313.00,1.09
9312.00,1.09
9311.00,1.09
9310.00,1.10
9309.00,1.10
9308.00,1.10
9307.00,1.10
9306.00,1.10
9305.00,1.11
9304.00,1.11
9303.00,1.11
9302.00,1.11
9301.00,1.11
9300.00,1.12
9299.00,1.12
9298.00,1.12
9297.00,1.12
9296.00,1.12
9295.00,1.12
9294.00,1.12
9293.00,1.12
9292.00,1.12
9291.00,1.11
9290.00,1.11
9289.00,1.11
9288.00,1.11
9287.00,1.11
9286.00,1.11
9285.00,1.11
9284.00,1.11
9283.00,1.11
9282.00,1.11
9281.00,1.11
9280.00,1.11
9279.00,1.11
9278.00,1.11
9277.00,1.11
9276.00,1.11
9275.00,1.11
9274.00,1.11
9273.00,1.11
9272.00,1.11
9271.00,1.11
9270.00,1.11
9269.00,1.11
9268.00,1.11
9267.00,1.11
9266.00,1.11
9265.00,1.11
9264.00,1.11
9263.00,1.11
9262.00,1.11
9261.00,1.11
9260.00,1.11
9259.00,1.11
9258.00,1.11
9257.00,1.11
9256.00,1.11
9255.00,1.11
9254.00,1.11
9253.00,1.11
9252.00,1.11
9251.00,1.11
9250.00,1.11
9249.00,1.11
9248.00,1.11
9247.00,1.11
9246.00,1.11
9245.00,1.10
9244.00,1.10
9243.00,1.10
9242.00,1.10
9241.00,1.10
9240.00,1.09
9239.00,1.09
9238.00,1.09
9237.00,1.09
9236.00,1.09
9235.00,1.09
9234.00,1.09
9233.00,1.09
9232.00,1.09
9231.00,1.09
9230.00,1.09
9229.00,1.09
9228.00,1.09
9227.00,1.09
9226.00,1.09
9225.00,1.09
9224.00,1.09
9223.00,1.09
9222.00,1.09
9221.00,1.09
9220.00,1.09
9219.00,1.09
9218.00,1.09
9217.00,1.09
9216.00,1.09
9215.00,1.09
9214.00,1.09
9213.00,1.10
9212.00,1.10
9211.00,1.10
9210.00,1.10
9209.00,1.10
9208.00,1.10
9207.00,1.10
9206.00,1.10
9205.00,1.10
9204.00,1.10
9203.00,1.10
9202.00,1.10
9201.00,1.10
9200.00,1.10
9199.00,1.10
9198.00,1.10
9197.00,1.10
9196.00,1.10
9195.00,1.10
9194.00,1.10
9193.00,1.10
9192.00,1.09
9191.00,1.09
9190.00,1.09
9189.00,1.09
9188.00,1.09
9187.00,1.09
9186.00,1.08
9185.00,1.08
9184.00,1.08
9183.00,1.08
9182.00,1.08
9181.00,1.07
9180.00,1.07
9179.00,1.07
9178.00,1.07
9177.00,1.07
9176.00,1.07
9175.00,1.06
9174.00,1.06
9173.00,1.06
9172.00,1.06
9171.00,1.06
9170.00,1.07
9169.00,1.07
9168.00,1.07
9167.00,1.07
9166.00,1.07
9165.00,1.07
9164.00,1.08
9163.00,1.08
9162.00,1.08
9161.00,1.08
9160.00,1.08
9159.00,1.09
9158.00,1.09
9157.00,1.09
9156.00,1.09
9155.00,1.09
9154.00,1.09
9153.00,1.09
9152.00,1.09
9151.00,1.09
9150.00,1.09
9149.00,1.09
9148.00,1.09
9147.00,1.09
9146.00,1.09
9145.00,1.09
9144.00,1.09
9143.00,1.09
9142.00,1.09
9141.00,1.09
9140.00,1.09
9139.00,1.09
9138.00,1.09
9137.00,1.09
9136.00,1.08
9135.00,1.08
9134.00,1.08
9133.00,1.08
9132.00,1.08
9131.00,1.08
9130.00,1.08
9129.00,1.08
9128.00,1.08
9127.00,1.08
9126.00,1.08
9125.00,1.08
9124.00,1.08
9123.00,1.08
9122.00,1.08
9121.00,1.08
9120.00,1.08
9119.00,1.08
9118.00,1.08
9117.00,1.08
9116.00,1.08
9115.00,1.08
9114.00,1.08
9113.00,1.08
9112.00,1.09
9111.00,1.09
9110.00,1.09
9109.00,1.09
9108.00,1.09
9107.00,1.09
9106.00,1.09
9105.00,1.09
9104.00,1.09
9103.00,1.09
9102.00,1.09
9101.00,1.09
9100.00,1.09
9099.00,1.10
9098.00,1.10
9097.00,1.10
9096.00,1.10
9095.00,1.10
9094.00,1.10
9093.00,1.11
9092.00,1.11
9091.00,1.11
9090.00,1.11
9089.00,1.11
9088.00,1.11
9087.00,1.11
9086.00,1.11
9085.00,1.11
9084.00,1.11
9083.00,1.11
9082.00,1.11
9081.00,1.11
9080.00,1.11
9079.00,1.11
9078.00,1.11
9077.00,1.11
9076.00,1.11
9075.00,1.11
9074.00,1.11
9073.00,1.11
9072.00,1.11
9071.00,1.11
9070.00,1.11
9069.00,1.11
9068.00,1.11
9067.00,1.11
9066.00,1.11
9065.00,1.11
9064.00,1.11
9063.00,1.11
9062.00,1.11
9061.00,1.12
9060.00,1.12
9059.00,1.12
9058.00,1.12
9057.00,1.12
9056.00,1.12
9055.00,1.12
9054.00,1.12
9053.00,1.12
9052.00,1.12
9051.00,1.12
9050.00,1.12
9049.00,1.12
9048.00,1.12
9047.00,1.12
9046.00,1.12
9045.00,1.11
9044.00,1.11
9043.00,1.11
9042.00,1.11
9041.00,1.11
9040.00,1.11
9039.00,1.11
9038.00,1.11
9037.00,1.11
9036.00,1.11
9035.00,1.11
9034.00,1.11
9033.00,1.11
9032.00,1.11
9031.00,1.11
9030.00,1.11
9029.00,1.11
9028.00,1.11
9027.00,1.11
9026.00,1.11
9025.00,1.11
9024.00,1.11
9023.00,1.11
9022.00,1.11
9021.00,1.11
9020.00,1.11
9019.00,1.11
9018.00,1.11
9017.00,1.11
9016.00,1.11
9015.00,1.11
9014.00,1.11
9013.00,1.10
9012.00,1.10
9011.00,1.10
9010.00,1.10
9009.00,1.10
9008.00,1.09
9007.00,1.09
9006.00,1.09
9005.00,1.09
9004.00,1.08
9003.00,1.08
9002.00,1.08
9001.00,1.08
9000.00,1.08
8999.00,1.08
8998.00,1.08
8997.00,1.08
8996.00,1.08
8995.00,1.08
8994.00,1.08
8993.00,1.08
8992.00,1.08
8991.00,1.09
8990.00,1.09
8989.00,1.09
8988.00,1.09
8987.00,1.09
8986.00,1.09
8985.00,1.10
8984.00,1.10
8983.00,1.10
8982.00,1.10
8981.00,1.10
8980.00,1.10
8979.00,1.10
8978.00,1.10
8977.00,1.10
8976.00,1.10
8975.00,1.10
8974.00,1.10
8973.00,1.10
8972.00,1.10
8971.00,1.10
8970.00,1.10
8969.00,1.10
8968.00,1.10
8967.00,1.10
8966.00,1.10
8965.00,1.10
8964.00,1.10
8963.00,1.09
8962.00,1.09
8961.00,1.09
8960.00,1.09
8959.00,1.10
8958.00,1.10
8957.00,1.10
8956.00,1.10
8955.00,1.10
8954.00,1.10
8953.00,1.10
8952.00,1.10
8951.00,1.10
8950.00,1.11
8949.00,1.11
8948.00,1.11
8947.00,1.11
8946.00,1.11
8945.00,1.11
8944.00,1.11
8943.00,1.11
8942.00,1.11
8941.00,1.11
8940.00,1.11
8939.00,1.11
8938.00,1.11
8937.00,1.11
8936.00,1.12
8935.00,1.12
8934.00,1.12
8933.00,1.12
8932.00,1.12
8931.00,1.12
8930.00,1.12
8929.00,1.12
8928.00,1.12
8927.00,1.12
8926.00,1.12
8925.00,1.12
8924.00,1.12
8923.00,1.12
8922.00,1.12
8921.00,1.11
8920.00,1.11
8919.00,1.11
8918.00,1.11
8917.00,1.11
8916.00,1.10
8915.00,1.10
8914.00,1.10
8913.00,1.10
8912.00,1.10
8911.00,1.10
8910.00,1.09
8909.00,1.09
8908.00,1.09
8907.00,1.09
8906.00,1.09
8905.00,1.09
8904.00,1.09
8903.00,1.10
8902.00,1.10
8901.00,1.10
8900.00,1.10
8899.00,1.10
8898.00,1.10
8897.00,1.10
8896.00,1.10
8895.00,1.10
8894.00,1.10
8893.00,1.10
8892.00,1.10
8891.00,1.10
8890.00,1.10
8889.00,1.10
8888.00,1.09
8887.00,1.09
8886.00,1.09
8885.00,1.09
8884.00,1.09
8883.00,1.09
8882.00,1.09
8881.00,1.09
8880.00,1.09
8879.00,1.09
8878.00,1.09
8877.00,1.09
8876.00,1.08
8875.00,1.08
8874.00,1.08
8873.00,1.08
8872.00,1.08
8871.00,1.08
8870.00,1.08
8869.00,1.08
8868.00,1.08
8867.00,1.08
8866.00,1.08
8865.00,1.08
8864.00,1.08
8863.00,1.08
8862.00,1.08
8861.00,1.08
8860.00,1.08
8859.00,1.08
8858.00,1.09
8857.00,1.09
8856.00,1.09
8855.00,1.09
8854.00,1.09
8853.00,1.09
8852.00,1.09
8851.00,1.09
8850.00,1.09
8849.00,1.09
8848.00,1.09
8847.00,1.09
8846.00,1.09
8845.00,1.09
8844.00,1.09
8843.00,1.09
8842.00,1.09
8841.00,1.09
8840.00,1.09
8839.00,1.09
8838.00,1.09
8837.00,1.09
8836.00,1.09
8835.00,1.09
8834.00,1.09
8833.00,1.09
8832.00,1.09
8831.00,1.09
8830.00,1.09
8829.00,1.09
8828.00,1.09
8827.00,1.09
8826.00,1.09
8825.00,1.09
8824.00,1.09
8823.00,1.09
8822.00,1.09
8821.00,1.09
8820.00,1.09
8819.00,1.09
8818.00,1.09
8817.00,1.09
8816.00,1.08
8815.00,1.08
8814.00,1.08
8813.00,1.08
8812.00,1.08
8811.00,1.08
8810.00,1.08
8809.00,1.08
8808.00,1.08
8807.00,1.08
8806.00,1.08
8805.00,1.08
8804.00,1.08
8803.00,1.08
8802.00,1.08
8801.00,1.08
8800.00,1.08
8799.00,1.08
8798.00,1.08
8797.00,1.09
8796.00,1.09
8795.00,1.09
8794.00,1.09
8793.00,1.09
8792.00,1.09
8791.00,1.09
8790.00,1.09
8789.00,1.09
8788.00,1.09
8787.00,1.09
8786.00,1.09
8785.00,1.09
8784.00,1.09
8783.00,1.09
8782.00,1.09
8781.00,1.09
8780.00,1.09
8779.00,1.09
8778.00,1.09
8777.00,1.09
8776.00,1.09
8775.00,1.09
8774.00,1.09
8773.00,1.09
8772.00,1.09
8771.00,1.08
8770.00,1.08
8769.00,1.08
8768.00,1.08
8767.00,1.08
8766.00,1.08
8765.00,1.08
8764.00,1.08
8763.00,1.08
8762.00,1.08
8761.00,1.08
8760.00,1.08
8759.00,1.08
8758.00,1.08
8757.00,1.08
8756.00,1.08
8755.00,1.08
8754.00,1.08
8753.00,1.08
8752.00,1.08
8751.00,1.08
8750.00,1.08
8749.00,1.08
8748.00,1.08
8747.00,1.08
8746.00,1.08
8745.00,1.08
8744.00,1.08
8743.00,1.08
8742.00,1.08
8741.00,1.08
8740.00,1.08
8739.00,1.08
8738.00,1.08
8737.00,1.08
8736.00,1.08
8735.00,1.08
8734.00,1.08
8733.00,1.08
8732.00,1.09
8731.00,1.09
8730.00,1.09
8729.00,1.09
8728.00,1.09
8727.00,1.09
8726.00,1.09
8725.00,1.09
8724.00,1.09
8723.00,1.09
8722.00,1.09
8721.00,1.09
8720.00,1.09
8719.00,1.09
8718.00,1.09
8717.00,1.09
8716.00,1.09
8715.00,1.09
8714.00,1.09
8713.00,1.09
8712.00,1.09
8711.00,1.09
8710.00,1.09
8709.00,1.09
8708.00,1.09
8707.00,1.08
8706.00,1.08
8705.00,1.08
8704.00,1.08
8703.00,1.08
8702.00,1.08
8701.00,1.08
8700.00,1.08
8699.00,1.08
8698.00,1.08
8697.00,1.08
8696.00,1.08
8695.00,1.08
8694.00,1.09
8693.00,1.09
8692.00,1.09
8691.00,1.09
8690.00,1.09
8689.00,1.09
8688.00,1.09
8687.00,1.09
8686.00,1.10
8685.00,1.10
8684.00,1.10
8683.00,1.10
8682.00,1.10
8681.00,1.10
8680.00,1.10
8679.00,1.10
8678.00,1.09
8677.00,1.09
8676.00,1.09
8675.00,1.09
8674.00,1.09
8673.00,1.09
8672.00,1.09
8671.00,1.09
8670.00,1.09
8669.00,1.09
8668.00,1.09
8667.00,1.08
8666.00,1.08
8665.00,1.08
8664.00,1.08
8663.00,1.08
8662.00,1.08
8661.00,1.08
8660.00,1.08
8659.00,1.07
8658.00,1.07
8657.00,1.07
8656.00,1.07
8655.00,1.07
8654.00,1.07
8653.00,1.07
8652.00,1.07
8651.00,1.07
8650.00,1.07
8649.00,1.07
8648.00,1.07
8647.00,1.07
8646.00,1.07
8645.00,1.08
8644.00,1.08
8643.00,1.08
8642.00,1.08
8641.00,1.08
8640.00,1.09
8639.00,1.09
8638.00,1.09
8637.00,1.09
8636.00,1.09
8635.00,1.09
8634.00,1.09
8633.00,1.09
8632.00,1.09
8631.00,1.09
8630.00,1.09
8629.00,1.09
8628.00,1.09
8627.00,1.08
8626.00,1.08
8625.00,1.08
8624.00,1.08
8623.00,1.08
8622.00,1.08
8621.00,1.08
8620.00,1.08
8619.00,1.07
8618.00,1.07
8617.00,1.07
8616.00,1.07
8615.00,1.07
8614.00,1.08
8613.00,1.08
8612.00,1.08
8611.00,1.08
8610.00,1.08
8609.00,1.08
8608.00,1.08
8607.00,1.08
8606.00,1.08
8605.00,1.08
8604.00,1.08
8603.00,1.08
8602.00,1.08
8601.00,1.08
8600.00,1.08
8599.00,1.08
8598.00,1.08
8597.00,1.08
8596.00,1.08
8595.00,1.08
8594.00,1.07
8593.00,1.07
8592.00,1.07
8591.00,1.07
8590.00,1.07
8589.00,1.07
8588.00,1.07
8587.00,1.07
8586.00,1.08
8585.00,1.08
8584.00,1.08
8583.00,1.08
8582.00,1.08
8581.00,1.08
8580.00,1.08
8579.00,1.08
8578.00,1.08
8577.00,1.09
8576.00,1.09
8575.00,1.09
8574.00,1.09
8573.00,1.09
8572.00,1.09
8571.00,1.09
8570.00,1.09
8569.00,1.09
8568.00,1.09
8567.00,1.09
8566.00,1.09
8565.00,1.09
8564.00,1.09
8563.00,1.09
8562.00,1.09
8561.00,1.09
8560.00,1.09
8559.00,1.09
8558.00,1.09
8557.00,1.09
8556.00,1.09
8555.00,1.09
8554.00,1.09
8553.00,1.09
8552.00,1.09
8551.00,1.09
8550.00,1.09
8549.00,1.08
8548.00,1.08
8547.00,1.08
8546.00,1.07
8545.00,1.07
8544.00,1.07
8543.00,1.07
8542.00,1.06
8541.00,1.06
8540.00,1.06
8539.00,1.06
8538.00,1.05
8537.00,1.05
8536.00,1.05
8535.00,1.05
8534.00,1.05
8533.00,1.05
8532.00,1.05
8531.00,1.05
8530.00,1.05
8529.00,1.05
8528.00,1.05
8527.00,1.05
8526.00,1.05
8525.00,1.05
8524.00,1.05
8523.00,1.06
8522.00,1.06
8521.00,1.06
8520.00,1.06
8519.00,1.06
8518.00,1.07
8517.00,1.07
8516.00,1.07
8515.00,1.07
8514.00,1.07
8513.00,1.07
8512.00,1.08
8511.00,1.08
8510.00,1.08
8509.00,1.08
8508.00,1.08
8507.00,1.08
8506.00,1.08
8505.00,1.08
8504.00,1.08
8503.00,1.08
8502.00,1.08
8501.00,1.08
8500.00,1.08
8499.00,1.08
8498.00,1.08
8497.00,1.08
8496.00,1.08
8495.00,1.08
8494.00,1.07
8493.00,1.07
8492.00,1.07
8491.00,1.07
8490.00,1.07
8489.00,1.07
8488.00,1.07
8487.00,1.07
8486.00,1.07
8485.00,1.07
8484.00,1.07
8483.00,1.07
8482.00,1.07
8481.00,1.07
8480.00,1.06
8479.00,1.06
8478.00,1.06
8477.00,1.06
8476.00,1.06
8475.00,1.06
8474.00,1.06
8473.00,1.06
8472.00,1.06
8471.00,1.06
8470.00,1.05
8469.00,1.05
8468.00,1.05
8467.00,1.05
8466.00,1.05
8465.00,1.05
8464.00,1.05
8463.00,1.05
8462.00,1.05
8461.00,1.05
8460.00,1.05
8459.00,1.05
8458.00,1.05
8457.00,1.05
8456.00,1.05
8455.00,1.05
8454.00,1.05
8453.00,1.05
8452.00,1.05
8451.00,1.05
8450.00,1.05
8449.00,1.05
8448.00,1.05
8447.00,1.05
8446.00,1.06
8445.00,1.06
8444.00,1.06
8443.00,1.06
8442.00,1.06
8441.00,1.06
8440.00,1.06
8439.00,1.06
8438.00,1.07
8437.00,1.07
8436.00,1.07
8435.00,1.07
8434.00,1.07
8433.00,1.07
8432.00,1.07
8431.00,1.07
8430.00,1.07
8429.00,1.07
8428.00,1.07
8427.00,1.07
8426.00,1.07
8425.00,1.07
8424.00,1.07
8423.00,1.07
8422.00,1.07
8421.00,1.06
8420.00,1.06
8419.00,1.06
8418.00,1.06
8417.00,1.06
8416.00,1.06
8415.00,1.06
8414.00,1.06
8413.00,1.06
8412.00,1.06
8411.00,1.06
8410.00,1.07
8409.00,1.07
8408.00,1.07
8407.00,1.07
8406.00,1.07
8405.00,1.07
8404.00,1.07
8403.00,1.07
8402.00,1.07
8401.00,1.07
8400.00,1.08
8399.00,1.08
8398.00,1.08
8397.00,1.08
8396.00,1.08
8395.00,1.08
8394.00,1.08
8393.00,1.07
8392.00,1.07
8391.00,1.07
8390.00,1.07
8389.00,1.07
8388.00,1.07
8387.00,1.07
8386.00,1.07
8385.00,1.08
8384.00,1.08
8383.00,1.08
8382.00,1.08
8381.00,1.08
8380.00,1.08
8379.00,1.08
8378.00,1.08
8377.00,1.08
8376.00,1.07
8375.00,1.07
8374.00,1.07
8373.00,1.07
8372.00,1.07
8371.00,1.07
8370.00,1.07
8369.00,1.07
8368.00,1.07
8367.00,1.07
8366.00,1.07
8365.00,1.07
8364.00,1.07
8363.00,1.07
8362.00,1.07
8361.00,1.07
8360.00,1.07
8359.00,1.07
8358.00,1.07
8357.00,1.07
8356.00,1.07
8355.00,1.07
8354.00,1.07
8353.00,1.07
8352.00,1.07
8351.00,1.07
8350.00,1.06
8349.00,1.06
8348.00,1.06
8347.00,1.06
8346.00,1.06
8345.00,1.06
8344.00,1.06
8343.00,1.06
8342.00,1.06
8341.00,1.06
8340.00,1.06
8339.00,1.06
8338.00,1.06
8337.00,1.06
8336.00,1.06
8335.00,1.06
8334.00,1.06
8333.00,1.06
8332.00,1.06
8331.00,1.06
8330.00,1.06
8329.00,1.06
8328.00,1.06
8327.00,1.06
8326.00,1.06
8325.00,1.06
8324.00,1.06
8323.00,1.06
8322.00,1.06
8321.00,1.06
8320.00,1.06
8319.00,1.06
8318.00,1.06
8317.00,1.06
8316.00,1.06
8315.00,1.06
8314.00,1.06
8313.00,1.06
8312.00,1.06
8311.00,1.06
8310.00,1.06
8309.00,1.05
8308.00,1.05
8307.00,1.05
8306.00,1.05
8305.00,1.05
8304.00,1.05
8303.00,1.05
8302.00,1.06
8301.00,1.06
8300.00,1.06
8299.00,1.06
8298.00,1.06
8297.00,1.06
8296.00,1.06
8295.00,1.06
8294.00,1.07
8293.00,1.07
8292.00,1.07
8291.00,1.07
8290.00,1.07
8289.00,1.07
8288.00,1.07
8287.00,1.07
8286.00,1.07
8285.00,1.07
8284.00,1.07
8283.00,1.07
8282.00,1.07
8281.00,1.07
8280.00,1.07
8279.00,1.07
8278.00,1.07
8277.00,1.07
8276.00,1.07
8275.00,1.07
8274.00,1.07
8273.00,1.07
8272.00,1.07
8271.00,1.07
8270.00,1.07
8269.00,1.08
8268.00,1.08
8267.00,1.08
8266.00,1.08
8265.00,1.08
8264.00,1.08
8263.00,1.08
8262.00,1.08
8261.00,1.08
8260.00,1.08
8259.00,1.08
8258.00,1.08
8257.00,1.09
8256.00,1.09
8255.00,1.09
8254.00,1.09
8253.00,1.09
8252.00,1.09
8251.00,1.09
8250.00,1.08
8249.00,1.08
8248.00,1.08
8247.00,1.08
8246.00,1.08
8245.00,1.08
8244.00,1.08
8243.00,1.08
8242.00,1.08
8241.00,1.08
8240.00,1.08
8239.00,1.07
8238.00,1.07
8237.00,1.07
8236.00,1.07
8235.00,1.07
8234.00,1.07
8233.00,1.07
8232.00,1.07
8231.00,1.07
8230.00,1.07
8229.00,1.07
8228.00,1.07
8227.00,1.07
8226.00,1.07
8225.00,1.07
8224.00,1.07
8223.00,1.07
8222.00,1.07
8221.00,1.07
8220.00,1.07
8219.00,1.07
8218.00,1.07
8217.00,1.07
8216.00,1.07
8215.00,1.07
8214.00,1.07
8213.00,1.07
8212.00,1.07
8211.00,1.07
8210.00,1.07
8209.00,1.07
8208.00,1.07
8207.00,1.07
8206.00,1.07
8205.00,1.07
8204.00,1.07
8203.00,1.07
8202.00,1.07
8201.00,1.07
8200.00,1.07
8199.00,1.07
8198.00,1.07
8197.00,1.07
8196.00,1.07
8195.00,1.07
8194.00,1.07
8193.00,1.07
8192.00,1.07
8191.00,1.07
8190.00,1.07
8189.00,1.07
8188.00,1.07
8187.00,1.07
8186.00,1.07
8185.00,1.08
8184.00,1.08
8183.00,1.08
8182.00,1.08
8181.00,1.08
8180.00,1.08
8179.00,1.08
8178.00,1.08
8177.00,1.08
8176.00,1.08
8175.00,1.08
8174.00,1.08
8173.00,1.08
8172.00,1.08
8171.00,1.08
8170.00,1.08
8169.00,1.08
8168.00,1.08
8167.00,1.08
8166.00,1.08
8165.00,1.08
8164.00,1.08
8163.00,1.08
8162.00,1.08
8161.00,1.08
8160.00,1.08
8159.00,1.08
8158.00,1.08
8157.00,1.08
8156.00,1.08
8155.00,1.08
8154.00,1.08
8153.00,1.08
8152.00,1.08
8151.00,1.08
8150.00,1.08
8149.00,1.09
8148.00,1.09
8147.00,1.09
8146.00,1.09
8145.00,1.09
8144.00,1.09
8143.00,1.09
8142.00,1.09
8141.00,1.09
8140.00,1.09
8139.00,1.09
8138.00,1.09
8137.00,1.09
8136.00,1.09
8135.00,1.09
8134.00,1.09
8133.00,1.10
8132.00,1.10
8131.00,1.10
8130.00,1.10
8129.00,1.10
8128.00,1.10
8127.00,1.10
8126.00,1.10
8125.00,1.10
8124.00,1.09
8123.00,1.09
8122.00,1.09
8121.00,1.09
8120.00,1.09
8119.00,1.09
8118.00,1.09
8117.00,1.09
8116.00,1.08
8115.00,1.08
8114.00,1.08
8113.00,1.08
8112.00,1.08
8111.00,1.07
8110.00,1.07
8109.00,1.07
8108.00,1.07
8107.00,1.07
8106.00,1.07
8105.00,1.07
8104.00,1.07
8103.00,1.07
8102.00,1.07
8101.00,1.07
8100.00,1.07
8099.00,1.07
8098.00,1.07
8097.00,1.07
8096.00,1.08
8095.00,1.08
8094.00,1.08
8093.00,1.08
8092.00,1.08
8091.00,1.08
8090.00,1.08
8089.00,1.09
8088.00,1.09
8087.00,1.09
8086.00,1.09
8085.00,1.09
8084.00,1.09
8083.00,1.09
8082.00,1.09
8081.00,1.09
8080.00,1.09
8079.00,1.09
8078.00,1.09
8077.00,1.09
8076.00,1.09
8075.00,1.09
8074.00,1.09
8073.00,1.09
8072.00,1.09
8071.00,1.09
8070.00,1.09
8069.00,1.09
8068.00,1.09
8067.00,1.09
8066.00,1.08
8065.00,1.08
8064.00,1.08
8063.00,1.08
8062.00,1.08
8061.00,1.08
8060.00,1.08
8059.00,1.08
8058.00,1.08
8057.00,1.08
8056.00,1.08
8055.00,1.08
8054.00,1.08
8053.00,1.08
8052.00,1.08
8051.00,1.08
8050.00,1.08
8049.00,1.08
8048.00,1.08
8047.00,1.08
8046.00,1.08
8045.00,1.09
8044.00,1.09
8043.00,1.09
8042.00,1.09
8041.00,1.09
8040.00,1.09
8039.00,1.09
8038.00,1.09
8037.00,1.09
8036.00,1.09
8035.00,1.08
8034.00,1.08
8033.00,1.08
8032.00,1.08
8031.00,1.08
8030.00,1.08
8029.00,1.08
8028.00,1.08
8027.00,1.08
8026.00,1.08
8025.00,1.08
8024.00,1.08
8023.00,1.08
8022.00,1.08
8021.00,1.08
8020.00,1.09
8019.00,1.09
8018.00,1.09
8017.00,1.09
8016.00,1.09
8015.00,1.09
8014.00,1.10
8013.00,1.10
8012.00,1.10
8011.00,1.10
8010.00,1.10
8009.00,1.10
8008.00,1.11
8007.00,1.11
8006.00,1.11
8005.00,1.11
8004.00,1.11
8003.00,1.11
8002.00,1.11
8001.00,1.11
8000.00,1.11
7999.00,1.11
7998.00,1.11
7997.00,1.11
7996.00,1.11
7995.00,1.11
7994.00,1.11
7993.00,1.11
7992.00,1.10
7991.00,1.10
7990.00,1.10
7989.00,1.10
7988.00,1.10
7987.00,1.10
7986.00,1.10
7985.00,1.10
7984.00,1.10
7983.00,1.10
7982.00,1.10
7981.00,1.10
7980.00,1.10
7979.00,1.10
7978.00,1.10
7977.00,1.09
7976.00,1.09
7975.00,1.09
7974.00,1.09
7973.00,1.09
7972.00,1.09
7971.00,1.09
7970.00,1.09
7969.00,1.09
7968.00,1.09
7967.00,1.09
7966.00,1.09
7965.00,1.09
7964.00,1.09
7963.00,1.09
7962.00,1.09
7961.00,1.09
7960.00,1.10
7959.00,1.10
7958.00,1.10
7957.00,1.10
7956.00,1.10
7955.00,1.10
7954.00,1.10
7953.00,1.10
7952.00,1.09
7951.00,1.09
7950.00,1.09
7949.00,1.09
7948.00,1.09
7947.00,1.09
7946.00,1.09
7945.00,1.09
7944.00,1.09
7943.00,1.09
7942.00,1.09
7941.00,1.09
7940.00,1.09
7939.00,1.09
7938.00,1.09
7937.00,1.09
7936.00,1.09
7935.00,1.09
7934.00,1.09
7933.00,1.09
7932.00,1.10
7931.00,1.10
7930.00,1.10
7929.00,1.10
7928.00,1.10
7927.00,1.10
7926.00,1.10
7925.00,1.11
7924.00,1.11
7923.00,1.11
7922.00,1.11
7921.00,1.11
7920.00,1.11
7919.00,1.11
7918.00,1.11
7917.00,1.11
7916.00,1.11
7915.00,1.11
7914.00,1.11
7913.00,1.11
7912.00,1.11
7911.00,1.11
7910.00,1.11
7909.00,1.11
7908.00,1.11
7907.00,1.11
7906.00,1.11
7905.00,1.11
7904.00,1.11
7903.00,1.11
7902.00,1.11
7901.00,1.11
7900.00,1.10
7899.00,1.10
7898.00,1.10
7897.00,1.10
7896.00,1.10
7895.00,1.10
7894.00,1.10
7893.00,1.10
7892.00,1.09
7891.00,1.09
7890.00,1.09
7889.00,1.09
7888.00,1.09
7887.00,1.09
7886.00,1.09
7885.00,1.09
7884.00,1.09
7883.00,1.09
7882.00,1.09
7881.00,1.09
7880.00,1.09
7879.00,1.09
7878.00,1.09
7877.00,1.09
7876.00,1.09
7875.00,1.09
7874.00,1.09
7873.00,1.09
7872.00,1.09
7871.00,1.09
7870.00,1.09
7869.00,1.09
7868.00,1.09
7867.00,1.09
7866.00,1.09
7865.00,1.09
7864.00,1.09
7863.00,1.09
7862.00,1.09
7861.00,1.09
7860.00,1.09
7859.00,1.09
7858.00,1.09
7857.00,1.09
7856.00,1.09
7855.00,1.09
7854.00,1.09
7853.00,1.09
7852.00,1.09
7851.00,1.09
7850.00,1.09
7849.00,1.09
7848.00,1.09
7847.00,1.09
7846.00,1.09
7845.00,1.09
7844.00,1.09
7843.00,1.09
7842.00,1.09
7841.00,1.09
7840.00,1.09
7839.00,1.09
7838.00,1.09
7837.00,1.09
7836.00,1.09
7835.00,1.09
7834.00,1.09
7833.00,1.09
7832.00,1.09
7831.00,1.10
7830.00,1.10
7829.00,1.10
7828.00,1.10
7827.00,1.10
7826.00,1.10
7825.00,1.10
7824.00,1.10
7823.00,1.10
7822.00,1.10
7821.00,1.10
7820.00,1.10
7819.00,1.10
7818.00,1.10
7817.00,1.10
7816.00,1.10
7815.00,1.10
7814.00,1.10
7813.00,1.10
7812.00,1.10
7811.00,1.10
7810.00,1.10
7809.00,1.10
7808.00,1.10
7807.00,1.10
7806.00,1.10
7805.00,1.10
7804.00,1.10
7803.00,1.10
7802.00,1.10
7801.00,1.10
7800.00,1.10
7799.00,1.10
7798.00,1.10
7797.00,1.10
7796.00,1.10
7795.00,1.10
7794.00,1.10
7793.00,1.10
7792.00,1.10
7791.00,1.10
7790.00,1.10
7789.00,1.10
7788.00,1.10
7787.00,1.10
7786.00,1.10
7785.00,1.10
7784.00,1.10
7783.00,1.10
7782.00,1.11
7781.00,1.11
7780.00,1.11
7779.00,1.11
7778.00,1.11
7777.00,1.11
7776.00,1.11
7775.00,1.11
7774.00,1.11
7773.00,1.11
7772.00,1.11
7771.00,1.11
7770.00,1.11
7769.00,1.11
7768.00,1.11
7767.00,1.11
7766.00,1.11
7765.00,1.11
7764.00,1.11
7763.00,1.11
7762.00,1.11
7761.00,1.12
7760.00,1.12
7759.00,1.12
7758.00,1.12
7757.00,1.12
7756.00,1.12
7755.00,1.12
7754.00,1.12
7753.00,1.12
7752.00,1.12
7751.00,1.12
7750.00,1.12
7749.00,1.12
7748.00,1.12
7747.00,1.12
7746.00,1.12
7745.00,1.12
7744.00,1.11
7743.00,1.11
7742.00,1.11
7741.00,1.11
7740.00,1.11
7739.00,1.11
7738.00,1.11
7737.00,1.11
7736.00,1.10
7735.00,1.10
7734.00,1.10
7733.00,1.10
7732.00,1.10
7731.00,1.10
7730.00,1.10
7729.00,1.10
7728.00,1.10
7727.00,1.10
7726.00,1.10
7725.00,1.10
7724.00,1.10
7723.00,1.11
7722.00,1.11
7721.00,1.11
7720.00,1.11
7719.00,1.11
7718.00,1.11
7717.00,1.11
7716.00,1.11
7715.00,1.11
7714.00,1.11
7713.00,1.11
7712.00,1.11
7711.00,1.11
7710.00,1.11
7709.00,1.11
7708.00,1.11
7707.00,1.11
7706.00,1.11
7705.00,1.11
7704.00,1.11
7703.00,1.11
7702.00,1.11
7701.00,1.11
7700.00,1.11
7699.00,1.11
7698.00,1.11
7697.00,1.11
7696.00,1.12
7695.00,1.12
7694.00,1.12
7693.00,1.12
7692.00,1.12
7691.00,1.12
7690.00,1.12
7689.00,1.12
7688.00,1.12
7687.00,1.12
7686.00,1.12
7685.00,1.12
7684.00,1.12
7683.00,1.12
7682.00,1.12
7681.00,1.12
7680.00,1.12
7679.00,1.12
7678.00,1.12
7677.00,1.12
7676.00,1.12
7675.00,1.12
7674.00,1.12
7673.00,1.11
7672.00,1.11
7671.00,1.11
7670.00,1.11
7669.00,1.11
7668.00,1.11
7667.00,1.11
7666.00,1.11
7665.00,1.11
7664.00,1.11
7663.00,1.11
7662.00,1.11
7661.00,1.11
7660.00,1.12
7659.00,1.12
7658.00,1.12
7657.00,1.12
7656.00,1.12
7655.00,1.11
7654.00,1.11
7653.00,1.11
7652.00,1.11
7651.00,1.11
7650.00,1.11
7649.00,1.11
7648.00,1.11
7647.00,1.11
7646.00,1.11
7645.00,1.11
7644.00,1.11
7643.00,1.11
7642.00,1.11
7641.00,1.11
7640.00,1.11
7639.00,1.11
7638.00,1.11
7637.00,1.11
7636.00,1.11
7635.00,1.11
7634.00,1.11
7633.00,1.11
7632.00,1.11
7631.00,1.11
7630.00,1.11
7629.00,1.11
7628.00,1.11
7627.00,1.11
7626.00,1.11
7625.00,1.11
7624.00,1.11
7623.00,1.11
7622.00,1.11
7621.00,1.11
7620.00,1.11
7619.00,1.11
7618.00,1.11
7617.00,1.11
7616.00,1.11
7615.00,1.11
7614.00,1.11
7613.00,1.11
7612.00,1.11
7611.00,1.11
7610.00,1.11
7609.00,1.11
7608.00,1.11
7607.00,1.11
7606.00,1.11
7605.00,1.11
7604.00,1.11
7603.00,1.11
7602.00,1.11
7601.00,1.11
7600.00,1.11
7599.00,1.11
7598.00,1.11
7597.00,1.11
7596.00,1.11
7595.00,1.11
7594.00,1.11
7593.00,1.12
7592.00,1.12
7591.00,1.12
7590.00,1.12
7589.00,1.12
7588.00,1.12
7587.00,1.12
7586.00,1.12
7585.00,1.12
7584.00,1.12
7583.00,1.12
7582.00,1.11
7581.00,1.11
7580.00,1.11
7579.00,1.11
7578.00,1.11
7577.00,1.11
7576.00,1.11
7575.00,1.11
7574.00,1.11
7573.00,1.11
7572.00,1.11
7571.00,1.11
7570.00,1.11
7569.00,1.11
7568.00,1.11
7567.00,1.11
7566.00,1.11
7565.00,1.11
7564.00,1.11
7563.00,1.11
7562.00,1.11
7561.00,1.11
7560.00,1.11
7559.00,1.11
7558.00,1.11
7557.00,1.11
7556.00,1.11
7555.00,1.11
7554.00,1.11
7553.00,1.11
7552.00,1.11
7551.00,1.11
7550.00,1.11
7549.00,1.11
7548.00,1.11
7547.00,1.11
7546.00,1.11
7545.00,1.11
7544.00,1.11
7543.00,1.11
7542.00,1.11
7541.00,1.11
7540.00,1.11
7539.00,1.11
7538.00,1.11
7537.00,1.11
7536.00,1.11
7535.00,1.11
7534.00,1.11
7533.00,1.11
7532.00,1.11
7531.00,1.11
7530.00,1.11
7529.00,1.11
7528.00,1.11
7527.00,1.11
7526.00,1.11
7525.00,1.11
7524.00,1.11
7523.00,1.11
7522.00,1.11
7521.00,1.11
7520.00,1.10
7519.00,1.10
7518.00,1.10
7517.00,1.10
7516.00,1.10
7515.00,1.10
7514.00,1.10
7513.00,1.10
7512.00,1.10
7511.00,1.10
7510.00,1.10
7509.00,1.10
7508.00,1.10
7507.00,1.10
7506.00,1.10
7505.00,1.10
7504.00,1.10
7503.00,1.10
7502.00,1.10
7501.00,1.10
7500.00,1.10
7499.00,1.10
7498.00,1.10
7497.00,1.10
7496.00,1.10
7495.00,1.10
7494.00,1.10
7493.00,1.10
7492.00,1.10
7491.00,1.10
7490.00,1.10
7489.00,1.10
7488.00,1.10
7487.00,1.10
7486.00,1.10
7485.00,1.10
7484.00,1.10
7483.00,1.10
7482.00,1.10
7481.00,1.10
7480.00,1.10
7479.00,1.10
7478.00,1.10
7477.00,1.10
7476.00,1.10
7475.00,1.10
7474.00,1.10
7473.00,1.09
7472.00,1.09
7471.00,1.09
7470.00,1.09
7469.00,1.09
7468.00,1.09
7467.00,1.09
7466.00,1.09
7465.00,1.09
7464.00,1.09
7463.00,1.09
7462.00,1.09
7461.00,1.09
7460.00,1.09
7459.00,1.09
7458.00,1.09
7457.00,1.09
7456.00,1.09
7455.00,1.09
7454.00,1.09
7453.00,1.09
7452.00,1.09
7451.00,1.09
7450.00,1.09
7449.00,1.09
7448.00,1.09
7447.00,1.09
7446.00,1.09
7445.00,1.09
7444.00,1.09
7443.00,1.09
7442.00,1.09
7441.00,1.09
7440.00,1.09
7439.00,1.09
7438.00,1.09
7437.00,1.09
7436.00,1.09
7435.00,1.09
7434.00,1.09
7433.00,1.09
7432.00,1.09
7431.00,1.09
7430.00,1.09
7429.00,1.09
7428.00,1.09
7427.00,1.09
7426.00,1.09
7425.00,1.09
7424.00,1.09
7423.00,1.09
7422.00,1.09
7421.00,1.09
7420.00,1.09
7419.00,1.09
7418.00,1.09
7417.00,1.09
7416.00,1.09
7415.00,1.09
7414.00,1.09
7413.00,1.09
7412.00,1.09
7411.00,1.09
7410.00,1.09
7409.00,1.09
7408.00,1.09
7407.00,1.09
7406.00,1.09
7405.00,1.09
7404.00,1.09
7403.00,1.09
7402.00,1.09
7401.00,1.08
7400.00,1.08
7399.00,1.08
7398.00,1.08
7397.00,1.08
7396.00,1.08
7395.00,1.08
7394.00,1.08
7393.00,1.08
7392.00,1.08
7391.00,1.08
7390.00,1.08
7389.00,1.07
7388.00,1.07
7387.00,1.07
7386.00,1.07
7385.00,1.07
7384.00,1.07
7383.00,1.07
7382.00,1.07
7381.00,1.07
7380.00,1.07
7379.00,1.07
7378.00,1.07
7377.00,1.07
7376.00,1.07
7375.00,1.07
7374.00,1.07
7373.00,1.07
7372.00,1.07
7371.00,1.07
7370.00,1.07
7369.00,1.06
7368.00,1.06
7367.00,1.06
7366.00,1.06
7365.00,1.06
7364.00,1.06
7363.00,1.06
7362.00,1.06
7361.00,1.06
7360.00,1.06
7359.00,1.06
7358.00,1.07
7357.00,1.07
7356.00,1.07
7355.00,1.07
7354.00,1.07
7353.00,1.07
7352.00,1.07
7351.00,1.07
7350.00,1.06
7349.00,1.06
7348.00,1.06
7347.00,1.06
7346.00,1.06
7345.00,1.06
7344.00,1.06
7343.00,1.06
7342.00,1.06
7341.00,1.06
7340.00,1.06
7339.00,1.06
7338.00,1.06
7337.00,1.06
7336.00,1.06
7335.00,1.06
7334.00,1.06
7333.00,1.06
7332.00,1.06
7331.00,1.06
7330.00,1.06
7329.00,1.06
7328.00,1.06
7327.00,1.06
7326.00,1.06
7325.00,1.06
7324.00,1.06
7323.00,1.06
7322.00,1.06
7321.00,1.06
7320.00,1.06
7319.00,1.06
7318.00,1.06
7317.00,1.06
7316.00,1.06
7315.00,1.06
7314.00,1.06
7313.00,1.06
7312.00,1.06
7311.00,1.06
7310.00,1.06
7309.00,1.07
7308.00,1.07
7307.00,1.07
7306.00,1.07
7305.00,1.07
7304.00,1.07
7303.00,1.07
7302.00,1.07
7301.00,1.07
7300.00,1.08
7299.00,1.08
7298.00,1.08
7297.00,1.08
7296.00,1.08
7295.00,1.08
7294.00,1.08
7293.00,1.08
7292.00,1.08
7291.00,1.07
7290.00,1.07
7289.00,1.07
7288.00,1.07
7287.00,1.07
7286.00,1.07
7285.00,1.07
7284.00,1.07
7283.00,1.07
7282.00,1.07
7281.00,1.07
7280.00,1.06
7279.00,1.06
7278.00,1.06
7277.00,1.06
7276.00,1.06
7275.00,1.06
7274.00,1.06
7273.00,1.06
7272.00,1.06
7271.00,1.06
7270.00,1.05
7269.00,1.05
7268.00,1.05
7267.00,1.05
7266.00,1.05
7265.00,1.05
7264.00,1.05
7263.00,1.05
7262.00,1.05
7261.00,1.04
7260.00,1.04
7259.00,1.04
7258.00,1.04
7257.00,1.04
7256.00,1.04
7255.00,1.04
7254.00,1.04
7253.00,1.04
7252.00,1.04
7251.00,1.04
7250.00,1.04
7249.00,1.04
7248.00,1.04
7247.00,1.04
7246.00,1.04
7245.00,1.04
7244.00,1.04
7243.00,1.04
7242.00,1.04
7241.00,1.03
7240.00,1.03
7239.00,1.03
7238.00,1.03
7237.00,1.03
7236.00,1.03
7235.00,1.03
7234.00,1.03
7233.00,1.02
7232.00,1.02
7231.00,1.02
7230.00,1.02
7229.00,1.02
7228.00,1.02
7227.00,1.02
7226.00,1.02
7225.00,1.02
7224.00,1.02
7223.00,1.02
7222.00,1.02
7221.00,1.02
7220.00,1.02
7219.00,1.02
7218.00,1.02
7217.00,1.02
7216.00,1.01
7215.00,1.01
7214.00,1.01
7213.00,1.01
7212.00,1.01
7211.00,1.01
7210.00,1.01
7209.00,1.01
7208.00,1.00
7207.00,1.00
7206.00,1.00
7205.00,1.00
7204.00,1.00
7203.00,1.00
7202.00,0.99
7201.00,0.99
7200.00,0.99
7199.00,0.99
7198.00,0.99
7197.00,0.99
7196.00,0.99
7195.00,0.99
7194.00,0.98
7193.00,0.98
7192.00,0.98
7191.00,0.98
7190.00,0.98
7189.00,0.98
7188.00,0.98
7187.00,0.98
7186.00,0.98
7185.00,0.97
7184.00,0.97
7183.00,0.97
7182.00,0.97
7181.00,0.97
7180.00,0.97
7179.00,0.97
7178.00,0.97
7177.00,0.97
7176.00,0.97
7175.00,0.97
7174.00,0.96
7173.00,0.96
7172.00,0.96
7171.00,0.96
7170.00,0.96
7169.00,0.96
7168.00,0.96
7167.00,0.96
7166.00,0.96
7165.00,0.96
7164.00,0.96
7163.00,0.96
7162.00,0.96
7161.00,0.96
7160.00,0.96
7159.00,0.96
7158.00,0.96
7157.00,0.95
7156.00,0.95
7155.00,0.95
7154.00,0.95
7153.00,0.95
7152.00,0.95
7151.00,0.95
7150.00,0.94
7149.00,0.94
7148.00,0.94
7147.00,0.94
7146.00,0.94
7145.00,0.93
7144.00,0.93
7143.00,0.93
7142.00,0.93
7141.00,0.93
7140.00,0.93
7139.00,0.92
7138.00,0.92
7137.00,0.92
7136.00,0.92
7135.00,0.92
7134.00,0.92
7133.00,0.92
7132.00,0.93
7131.00,0.93
7130.00,0.93
7129.00,0.93
7128.00,0.93
7127.00,0.93
7126.00,0.93
7125.00,0.93
7124.00,0.93
7123.00,0.93
7122.00,0.93
7121.00,0.93
7120.00,0.93
7119.00,0.93
7118.00,0.93
7117.00,0.93
7116.00,0.93
7115.00,0.93
7114.00,0.93
7113.00,0.93
7112.00,0.92
7111.00,0.92
7110.00,0.92
7109.00,0.92
7108.00,0.92
7107.00,0.92
7106.00,0.92
7105.00,0.92
7104.00,0.92
7103.00,0.92
7102.00,0.91
7101.00,0.91
7100.00,0.91
7099.00,0.91
7098.00,0.91
7097.00,0.91
7096.00,0.91
7095.00,0.91
7094.00,0.91
7093.00,0.91
7092.00,0.91
7091.00,0.91
7090.00,0.91
7089.00,0.91
7088.00,0.91
7087.00,0.91
7086.00,0.91
7085.00,0.91
7084.00,0.91
7083.00,0.91
7082.00,0.91
7081.00,0.91
7080.00,0.91
7079.00,0.91
7078.00,0.91
7077.00,0.91
7076.00,0.91
7075.00,0.90
7074.00,0.90
7073.00,0.90
7072.00,0.90
7071.00,0.90
7070.00,0.90
7069.00,0.90
7068.00,0.90
7067.00,0.90
7066.00,0.90
7065.00,0.90
7064.00,0.89
7063.00,0.89
7062.00,0.89
7061.00,0.89
7060.00,0.89
7059.00,0.89
7058.00,0.89
7057.00,0.89
7056.00,0.89
7055.00,0.89
7054.00,0.89
7053.00,0.89
7052.00,0.89
7051.00,0.89
7050.00,0.89
7049.00,0.89
7048.00,0.89
7047.00,0.89
7046.00,0.89
7045.00,0.88
7044.00,0.88
7043.00,0.88
7042.00,0.88
7041.00,0.88
7040.00,0.88
7039.00,0.88
7038.00,0.88
7037.00,0.88
7036.00,0.88
7035.00,0.88
7034.00,0.88
7033.00,0.88
7032.00,0.88
7031.00,0.88
7030.00,0.88
7029.00,0.88
7028.00,0.88
7027.00,0.88
7026.00,0.88
7025.00,0.88
7024.00,0.88
7023.00,0.88
7022.00,0.88
7021.00,0.88
7020.00,0.88
7019.00,0.88
7018.00,0.88
7017.00,0.88
7016.00,0.88
7015.00,0.88
7014.00,0.88
7013.00,0.88
7012.00,0.88
7011.00,0.88
7010.00,0.88
7009.00,0.88
7008.00,0.88
7007.00,0.88
7006.00,0.88
7005.00,0.88
7004.00,0.87
7003.00,0.87
7002.00,0.87
7001.00,0.87
7000.00,0.87
6999.00,0.87
6998.00,0.87
6997.00,0.87
6996.00,0.87
6995.00,0.87
6994.00,0.87
6993.00,0.87
6992.00,0.87
6991.00,0.87
6990.00,0.87
6989.00,0.87
6988.00,0.87
6987.00,0.87
6986.00,0.87
6985.00,0.87
6984.00,0.87
6983.00,0.87
6982.00,0.87
6981.00,0.87
6980.00,0.87
6979.00,0.87
6978.00,0.87
6977.00,0.87
6976.00,0.87
6975.00,0.87
6974.00,0.87
6973.00,0.87
6972.00,0.87
6971.00,0.87
6970.00,0.87
6969.00,0.87
6968.00,0.87
6967.00,0.87
6966.00,0.87
6965.00,0.87
6964.00,0.87
6963.00,0.87
6962.00,0.87
6961.00,0.87
6960.00,0.87
6959.00,0.87
6958.00,0.87
6957.00,0.87
6956.00,0.87
6955.00,0.87
6954.00,0.87
6953.00,0.87
6952.00,0.87
6951.00,0.87
6950.00,0.87
6949.00,0.87
6948.00,0.87
6947.00,0.87
6946.00,0.87
6945.00,0.87
6944.00,0.87
6943.00,0.87
6942.00,0.87
6941.00,0.87
6940.00,0.87
6939.00,0.87
6938.00,0.87
6937.00,0.87
6936.00,0.86
6935.00,0.86
6934.00,0.86
6933.00,0.86
6932.00,0.86
6931.00,0.86
6930.00,0.86
6929.00,0.86
6928.00,0.86
6927.00,0.86
6926.00,0.86
6925.00,0.86
6924.00,0.86
6923.00,0.86
6922.00,0.86
6921.00,0.86
6920.00,0.86
6919.00,0.86
6918.00,0.86
6917.00,0.86
6916.00,0.86
6915.00,0.86
6914.00,0.86
6913.00,0.87
6912.00,0.87
6911.00,0.87
6910.00,0.87
6909.00,0.87
6908.00,0.87
6907.00,0.87
6906.00,0.87
6905.00,0.87
6904.00,0.87
6903.00,0.87
6902.00,0.87
6901.00,0.87
6900.00,0.87
6899.00,0.87
6898.00,0.87
6897.00,0.87
6896.00,0.87
6895.00,0.87
6894.00,0.87
6893.00,0.87
6892.00,0.87
6891.00,0.87
6890.00,0.87
6889.00,0.87
6888.00,0.87
6887.00,0.87
6886.00,0.87
6885.00,0.87
6884.00,0.87
6883.00,0.87
6882.00,0.87
6881.00,0.87
6880.00,0.87
6879.00,0.87
6878.00,0.87
6877.00,0.87
6876.00,0.87
6875.00,0.87
6874.00,0.87
6873.00,0.87
6872.00,0.87
6871.00,0.87
6870.00,0.87
6869.00,0.87
6868.00,0.87
6867.00,0.87
6866.00,0.87
6865.00,0.87
6864.00,0.87
6863.00,0.87
6862.00,0.87
6861.00,0.87
6860.00,0.87
6859.00,0.87
6858.00,0.87
6857.00,0.87
6856.00,0.87
6855.00,0.87
6854.00,0.87
6853.00,0.87
6852.00,0.87
6851.00,0.87
6850.00,0.87
6849.00,0.87
6848.00,0.87
6847.00,0.87
6846.00,0.87
6845.00,0.87
6844.00,0.87
6843.00,0.87
6842.00,0.87
6841.00,0.87
6840.00,0.87
6839.00,0.87
6838.00,0.87
6837.00,0.87
6836.00,0.87
6835.00,0.87
6834.00,0.87
6833.00,0.87
6832.00,0.87
6831.00,0.87
6830.00,0.87
6829.00,0.87
6828.00,0.87
6827.00,0.87
6826.00,0.87
6825.00,0.87
6824.00,0.87
6823.00,0.87
6822.00,0.87
6821.00,0.87
6820.00,0.87
6819.00,0.87
6818.00,0.87
6817.00,0.87
6816.00,0.87
6815.00,0.87
6814.00,0.87
6813.00,0.87
6812.00,0.87
6811.00,0.88
6810.00,0.88
6809.00,0.88
6808.00,0.88
6807.00,0.88
6806.00,0.88
6805.00,0.88
6804.00,0.88
6803.00,0.88
6802.00,0.88
6801.00,0.88
6800.00,0.88
6799.00,0.88
6798.00,0.88
6797.00,0.88
6796.00,0.88
6795.00,0.88
6794.00,0.88
6793.00,0.88
6792.00,0.88
6791.00,0.88
6790.00,0.88
6789.00,0.88
6788.00,0.88
6787.00,0.88
6786.00,0.88
6785.00,0.88
6784.00,0.88
6783.00,0.88
6782.00,0.88
6781.00,0.88
6780.00,0.88
6779.00,0.88
6778.00,0.88
6777.00,0.89
6776.00,0.89
6775.00,0.89
6774.00,0.89
6773.00,0.89
6772.00,0.89
6771.00,0.89
6770.00,0.89
6769.00,0.89
6768.00,0.89
6767.00,0.89
6766.00,0.89
6765.00,0.89
6764.00,0.89
6763.00,0.89
6762.00,0.89
6761.00,0.89
6760.00,0.89
6759.00,0.89
6758.00,0.89
6757.00,0.89
6756.00,0.89
6755.00,0.89
6754.00,0.89
6753.00,0.89
6752.00,0.89
6751.00,0.89
6750.00,0.89
6749.00,0.89
6748.00,0.89
6747.00,0.89
6746.00,0.89
6745.00,0.90
6744.00,0.90
6743.00,0.90
6742.00,0.90
6741.00,0.90
6740.00,0.90
6739.00,0.90
6738.00,0.90
6737.00,0.90
6736.00,0.90
6735.00,0.90
6734.00,0.90
6733.00,0.90
6732.00,0.90
6731.00,0.90
6730.00,0.90
6729.00,0.90
6728.00,0.90
6727.00,0.90
6726.00,0.90
6725.00,0.90
6724.00,0.90
6723.00,0.90
6722.00,0.90
6721.00,0.90
6720.00,0.90
6719.00,0.90
6718.00,0.90
6717.00,0.90
6716.00,0.90
6715.00,0.90
6714.00,0.90
6713.00,0.90
6712.00,0.90
6711.00,0.90
6710.00,0.90
6709.00,0.90
6708.00,0.90
6707.00,0.90
6706.00,0.90
6705.00,0.90
6704.00,0.91
6703.00,0.91
6702.00,0.91
6701.00,0.91
6700.00,0.91
6699.00,0.91
6698.00,0.91
6697.00,0.91
6696.00,0.91
6695.00,0.91
6694.00,0.91
6693.00,0.91
6692.00,0.91
6691.00,0.91
6690.00,0.91
6689.00,0.91
6688.00,0.91
6687.00,0.91
6686.00,0.92
6685.00,0.92
6684.00,0.92
6683.00,0.92
6682.00,0.92
6681.00,0.92
6680.00,0.92
6679.00,0.92
6678.00,0.92
6677.00,0.92
6676.00,0.92
6675.00,0.92
6674.00,0.92
6673.00,0.92
6672.00,0.92
6671.00,0.92
6670.00,0.92
6669.00,0.92
6668.00,0.92
6667.00,0.92
6666.00,0.92
6665.00,0.92
6664.00,0.93
6663.00,0.93
6662.00,0.93
6661.00,0.93
6660.00,0.93
6659.00,0.93
6658.00,0.93
6657.00,0.93
6656.00,0.93
6655.00,0.93
6654.00,0.93
6653.00,0.93
6652.00,0.93
6651.00,0.93
6650.00,0.93
6649.00,0.93
6648.00,0.93
6647.00,0.93
6646.00,0.93
6645.00,0.93
6644.00,0.93
6643.00,0.93
6642.00,0.93
6641.00,0.93
6640.00,0.93
6639.00,0.93
6638.00,0.93
6637.00,0.93
6636.00,0.93
6635.00,0.93
6634.00,0.93
6633.00,0.93
6632.00,0.93
6631.00,0.93
6630.00,0.93
6629.00,0.93
6628.00,0.93
6627.00,0.93
6626.00,0.93
6625.00,0.93
6624.00,0.93
6623.00,0.93
6622.00,0.93
6621.00,0.93
6620.00,0.94
6619.00,0.94
6618.00,0.94
6617.00,0.94
6616.00,0.94
6615.00,0.94
6614.00,0.94
6613.00,0.94
6612.00,0.94
6611.00,0.94
6610.00,0.94
6609.00,0.94
6608.00,0.94
6607.00,0.94
6606.00,0.94
6605.00,0.94
6604.00,0.94
6603.00,0.94
6602.00,0.94
6601.00,0.94
6600.00,0.94
6599.00,0.94
6598.00,0.94
6597.00,0.94
6596.00,0.94
6595.00,0.94
6594.00,0.94
6593.00,0.94
6592.00,0.94
6591.00,0.94
6590.00,0.94
6589.00,0.94
6588.00,0.94
6587.00,0.94
6586.00,0.94
6585.00,0.94
6584.00,0.94
6583.00,0.94
6582.00,0.94
6581.00,0.94
6580.00,0.94
6579.00,0.94
6578.00,0.94
6577.00,0.94
6576.00,0.94
6575.00,0.95
6574.00,0.95
6573.00,0.95
6572.00,0.95
6571.00,0.95
6570.00,0.95
6569.00,0.95
6568.00,0.95
6567.00,0.95
6566.00,0.95
6565.00,0.95
6564.00,0.95
6563.00,0.95
6562.00,0.96
6561.00,0.96
6560.00,0.96
6559.00,0.96
6558.00,0.96
6557.00,0.96
6556.00,0.96
6555.00,0.96
6554.00,0.96
6553.00,0.96
6552.00,0.96
6551.00,0.97
6550.00,0.97
6549.00,0.97
6548.00,0.97
6547.00,0.97
6546.00,0.97
6545.00,0.97
6544.00,0.97
6543.00,0.97
6542.00,0.97
6541.00,0.97
6540.00,0.97
6539.00,0.97
6538.00,0.97
6537.00,0.97
6536.00,0.97
6535.00,0.97
6534.00,0.97
6533.00,0.97
6532.00,0.97
6531.00,0.97
6530.00,0.97
6529.00,0.97
6528.00,0.97
6527.00,0.97
6526.00,0.97
6525.00,0.97
6524.00,0.97
6523.00,0.97
6522.00,0.97
6521.00,0.97
6520.00,0.97
6519.00,0.97
6518.00,0.97
6517.00,0.97
6516.00,0.97
6515.00,0.97
6514.00,0.97
6513.00,0.97
6512.00,0.97
6511.00,0.97
6510.00,0.97
6509.00,0.97
6508.00,0.97
6507.00,0.97
6506.00,0.97
6505.00,0.97
6504.00,0.97
6503.00,0.97
6502.00,0.97
6501.00,0.97
6500.00,0.97
6499.00,0.97
6498.00,0.97
6497.00,0.97
6496.00,0.97
6495.00,0.97
6494.00,0.97
6493.00,0.97
6492.00,0.97
6491.00,0.97
6490.00,0.97
6489.00,0.97
6488.00,0.97
6487.00,0.98
6486.00,0.98
6485.00,0.98
6484.00,0.98
6483.00,0.98
6482.00,0.98
6481.00,0.98
6480.00,0.98
6479.00,0.98
6478.00,0.98
6477.00,0.98
6476.00,0.98
6475.00,0.99
6474.00,0.99
6473.00,0.99
6472.00,0.99
6471.00,0.99
6470.00,0.99
6469.00,0.99
6468.00,0.99
6467.00,0.99
6466.00,0.99
6465.00,0.99
6464.00,0.99
6463.00,0.99
6462.00,0.99
6461.00,0.98
6460.00,0.98
6459.00,0.98
6458.00,0.98
6457.00,0.99
6456.00,0.99
6455.00,0.99
6454.00,0.99
6453.00,0.99
6452.00,0.99
6451.00,0.99
6450.00,0.99
6449.00,0.99
6448.00,0.99
6447.00,0.99
6446.00,0.99
6445.00,0.99
6444.00,0.99
6443.00,0.99
6442.00,0.99
6441.00,0.99
6440.00,0.99
6439.00,0.99
6438.00,0.99
6437.00,0.99
6436.00,0.99
6435.00,0.99
6434.00,0.99
6433.00,0.99
6432.00,0.99
6431.00,0.99
6430.00,0.99
6429.00,0.99
6428.00,0.99
6427.00,0.99
6426.00,0.99
6425.00,0.99
6424.00,0.99
6423.00,0.99
6422.00,0.99
6421.00,0.99
6420.00,0.99
6419.00,0.99
6418.00,0.99
6417.00,0.99
6416.00,0.99
6415.00,0.99
6414.00,0.99
6413.00,0.99
6412.00,0.99
6411.00,0.99
6410.00,0.99
6409.00,0.99
6408.00,0.99
6407.00,1.00
6406.00,1.00
6405.00,1.00
6404.00,1.00
6403.00,1.00
6402.00,1.00
6401.00,1.00
6400.00,1.00
6399.00,1.00
6398.00,1.00
6397.00,1.00
6396.00,1.00
6395.00,1.00
6394.00,1.00
6393.00,1.00
6392.00,1.00
6391.00,1.00
6390.00,1.00
6389.00,1.00
6388.00,1.00
6387.00,1.00
6386.00,1.00
6385.00,1.00
6384.00,1.00
6383.00,1.00
6382.00,1.00
6381.00,1.00
6380.00,1.00
6379.00,1.00
6378.00,1.00
6377.00,1.00
6376.00,1.00
6375.00,1.00
6374.00,1.00
6373.00,1.00
6372.00,1.00
6371.00,1.00
6370.00,1.00
6369.00,1.00
6368.00,1.00
6367.00,1.00
6366.00,1.00
6365.00,1.00
6364.00,1.00
6363.00,1.00
6362.00,1.00
6361.00,1.00
6360.00,1.00
6359.00,1.00
6358.00,1.00
6357.00,1.00
6356.00,1.00
6355.00,1.00
6354.00,1.00
6353.00,1.01
6352.00,1.01
6351.00,1.01
6350.00,1.01
6349.00,1.01
6348.00,1.01
6347.00,1.01
6346.00,1.01
6345.00,1.01
6344.00,1.01
6343.00,1.01
6342.00,1.01
6341.00,1.01
6340.00,1.01
6339.00,1.01
6338.00,1.01
6337.00,1.02
6336.00,1.02
6335.00,1.02
6334.00,1.02
6333.00,1.02
6332.00,1.02
6331.00,1.02
6330.00,1.02
6329.00,1.02
6328.00,1.02
6327.00,1.02
6326.00,1.02
6325.00,1.02
6324.00,1.02
6323.00,1.02
6322.00,1.02
6321.00,1.01
6320.00,1.01
6319.00,1.01
6318.00,1.01
6317.00,1.01
6316.00,1.01
6315.00,1.01
6314.00,1.02
6313.00,1.02
6312.00,1.02
6311.00,1.02
6310.00,1.02
6309.00,1.02
6308.00,1.02
6307.00,1.02
6306.00,1.02
6305.00,1.02
6304.00,1.02
6303.00,1.02
6302.00,1.02
6301.00,1.02
6300.00,1.02
6299.00,1.02
6298.00,1.02
6297.00,1.02
6296.00,1.02
6295.00,1.02
6294.00,1.02
6293.00,1.02
6292.00,1.02
6291.00,1.02
6290.00,1.02
6289.00,1.03
6288.00,1.03
6287.00,1.03
6286.00,1.03
6285.00,1.03
6284.00,1.03
6283.00,1.03
6282.00,1.03
6281.00,1.03
6280.00,1.03
6279.00,1.03
6278.00,1.03
6277.00,1.03
6276.00,1.03
6275.00,1.03
6274.00,1.03
6273.00,1.03
6272.00,1.03
6271.00,1.03
6270.00,1.03
6269.00,1.03
6268.00,1.03
6267.00,1.03
6266.00,1.03
6265.00,1.03
6264.00,1.03
6263.00,1.03
6262.00,1.04
6261.00,1.04
6260.00,1.04
6259.00,1.04
6258.00,1.04
6257.00,1.04
6256.00,1.04
6255.00,1.04
6254.00,1.04
6253.00,1.04
6252.00,1.04
6251.00,1.04
6250.00,1.04
6249.00,1.04
6248.00,1.04
6247.00,1.04
6246.00,1.04
6245.00,1.04
6244.00,1.04
6243.00,1.04
6242.00,1.04
6241.00,1.04
6240.00,1.04
6239.00,1.04
6238.00,1.04
6237.00,1.04
6236.00,1.04
6235.00,1.04
6234.00,1.04
6233.00,1.04
6232.00,1.04
6231.00,1.04
6230.00,1.04
6229.00,1.04
6228.00,1.05
6227.00,1.05
6226.00,1.05
6225.00,1.05
6224.00,1.05
6223.00,1.05
6222.00,1.05
6221.00,1.05
6220.00,1.05
6219.00,1.05
6218.00,1.05
6217.00,1.05
6216.00,1.05
6215.00,1.05
6214.00,1.06
6213.00,1.06
6212.00,1.06
6211.00,1.06
6210.00,1.06
6209.00,1.06
6208.00,1.06
6207.00,1.06
6206.00,1.06
6205.00,1.06
6204.00,1.06
6203.00,1.06
6202.00,1.06
6201.00,1.06
6200.00,1.06
6199.00,1.06
6198.00,1.06
6197.00,1.06
6196.00,1.06
6195.00,1.06
6194.00,1.06
6193.00,1.06
6192.00,1.06
6191.00,1.06
6190.00,1.06
6189.00,1.06
6188.00,1.06
6187.00,1.06
6186.00,1.06
6185.00,1.06
6184.00,1.06
6183.00,1.06
6182.00,1.06
6181.00,1.06
6180.00,1.06
6179.00,1.06
6178.00,1.06
6177.00,1.06
6176.00,1.06
6175.00,1.06
6174.00,1.06
6173.00,1.06
6172.00,1.06
6171.00,1.06
6170.00,1.06
6169.00,1.06
6168.00,1.06
6167.00,1.06
6166.00,1.06
6165.00,1.06
6164.00,1.06
6163.00,1.06
6162.00,1.06
6161.00,1.06
6160.00,1.07
6159.00,1.07
6158.00,1.07
6157.00,1.07
6156.00,1.07
6155.00,1.07
6154.00,1.07
6153.00,1.07
6152.00,1.07
6151.00,1.07
6150.00,1.07
6149.00,1.08
6148.00,1.08
6147.00,1.08
6146.00,1.08
6145.00,1.08
6144.00,1.08
6143.00,1.08
6142.00,1.08
6141.00,1.08
6140.00,1.08
6139.00,1.08
6138.00,1.08
6137.00,1.08
6136.00,1.08
6135.00,1.08
6134.00,1.08
6133.00,1.08
6132.00,1.08
6131.00,1.09
6130.00,1.09
6129.00,1.09
6128.00,1.09
6127.00,1.09
6126.00,1.09
6125.00,1.09
6124.00,1.09
6123.00,1.09
6122.00,1.09
6121.00,1.09
6120.00,1.09
6119.00,1.09
6118.00,1.09
6117.00,1.09
6116.00,1.09
6115.00,1.09
6114.00,1.09
6113.00,1.09
6112.00,1.09
6111.00,1.09
6110.00,1.09
6109.00,1.09
6108.00,1.09
6107.00,1.09
6106.00,1.09
6105.00,1.09
6104.00,1.09
6103.00,1.09
6102.00,1.10
6101.00,1.10
6100.00,1.10
6099.00,1.10
6098.00,1.10
6097.00,1.10
6096.00,1.10
6095.00,1.10
6094.00,1.10
6093.00,1.10
6092.00,1.10
6091.00,1.10
6090.00,1.10
6089.00,1.10
6088.00,1.10
6087.00,1.10
6086.00,1.10
6085.00,1.10
6084.00,1.10
6083.00,1.10
6082.00,1.10
6081.00,1.10
6080.00,1.10
6079.00,1.10
6078.00,1.10
6077.00,1.10
6076.00,1.10
6075.00,1.10
6074.00,1.10
6073.00,1.10
6072.00,1.10
6071.00,1.10
6070.00,1.10
6069.00,1.10
6068.00,1.10
6067.00,1.10
6066.00,1.11
6065.00,1.11
6064.00,1.11
6063.00,1.11
6062.00,1.11
6061.00,1.11
6060.00,1.11
6059.00,1.11
6058.00,1.11
6057.00,1.11
6056.00,1.11
6055.00,1.11
6054.00,1.11
6053.00,1.11
6052.00,1.11
6051.00,1.11
6050.00,1.11
6049.00,1.11
6048.00,1.11
6047.00,1.11
6046.00,1.11
6045.00,1.11
6044.00,1.11
6043.00,1.11
6042.00,1.11
6041.00,1.11
6040.00,1.11
6039.00,1.11
6038.00,1.11
6037.00,1.11
6036.00,1.11
6035.00,1.11
6034.00,1.11
6033.00,1.11
6032.00,1.11
6031.00,1.11
6030.00,1.11
6029.00,1.11
6028.00,1.11
6027.00,1.11
6026.00,1.11
6025.00,1.11
6024.00,1.11
6023.00,1.11
6022.00,1.11
6021.00,1.11
6020.00,1.11
6019.00,1.11
6018.00,1.11
6017.00,1.11
6016.00,1.11
6015.00,1.11
6014.00,1.11
6013.00,1.11
6012.00,1.11
6011.00,1.11
6010.00,1.11
6009.00,1.11
6008.00,1.11
6007.00,1.11
6006.00,1.11
6005.00,1.11
6004.00,1.11
6003.00,1.11
6002.00,1.11
6001.00,1.11
6000.00,1.11
5999.00,1.11
5998.00,1.11
5997.00,1.11
5996.00,1.11
5995.00,1.11
5994.00,1.11
5993.00,1.11
5992.00,1.11
5991.00,1.11
5990.00,1.11
5989.00,1.11
5988.00,1.11
5987.00,1.11
5986.00,1.11
5985.00,1.11
5984.00,1.11
5983.00,1.11
5982.00,1.11
5981.00,1.11
5980.00,1.11
5979.00,1.10
5978.00,1.10
5977.00,1.10
5976.00,1.10
5975.00,1.10
5974.00,1.10
5973.00,1.10
5972.00,1.10
5971.00,1.10
5970.00,1.09
5969.00,1.09
5968.00,1.09
5967.00,1.09
5966.00,1.09
5965.00,1.09
5964.00,1.09
5963.00,1.09
5962.00,1.09
5961.00,1.08
5960.00,1.08
5959.00,1.08
5958.00,1.08
5957.00,1.08
5956.00,1.08
5955.00,1.08
5954.00,1.07
5953.00,1.07
5952.00,1.07
5951.00,1.07
5950.00,1.07
5949.00,1.07
5948.00,1.07
5947.00,1.06
5946.00,1.06
5945.00,1.06
5944.00,1.06
5943.00,1.06
5942.00,1.06
5941.00,1.06
5940.00,1.06
5939.00,1.06
5938.00,1.06
5937.00,1.06
5936.00,1.06
5935.00,1.06
5934.00,1.06
5933.00,1.06
5932.00,1.06
5931.00,1.06
5930.00,1.05
5929.00,1.05
5928.00,1.05
5927.00,1.05
5926.00,1.05
5925.00,1.05
5924.00,1.05
5923.00,1.05
5922.00,1.05
5921.00,1.05
5920.00,1.05
5919.00,1.05
5918.00,1.05
5917.00,1.05
5916.00,1.05
5915.00,1.05
5914.00,1.05
5913.00,1.04
5912.00,1.04
5911.00,1.04
5910.00,1.04
5909.00,1.04
5908.00,1.04
5907.00,1.04
5906.00,1.04
5905.00,1.04
5904.00,1.04
5903.00,1.04
5902.00,1.04
5901.00,1.04
5900.00,1.04
5899.00,1.04
5898.00,1.04
5897.00,1.04
5896.00,1.04
5895.00,1.04
5894.00,1.04
5893.00,1.04
5892.00,1.04
5891.00,1.05
5890.00,1.05
5889.00,1.05
5888.00,1.05
5887.00,1.05
5886.00,1.05
5885.00,1.05
5884.00,1.05
5883.00,1.05
5882.00,1.05
5881.00,1.05
5880.00,1.05
5879.00,1.06
5878.00,1.06
5877.00,1.06
5876.00,1.06
5875.00,1.06
5874.00,1.06
5873.00,1.06
5872.00,1.06
5871.00,1.06
5870.00,1.06
5869.00,1.06
5868.00,1.06
5867.00,1.06
5866.00,1.06
5865.00,1.06
5864.00,1.06
5863.00,1.06
5862.00,1.06
5861.00,1.06
5860.00,1.06
5859.00,1.06
5858.00,1.06
5857.00,1.07
5856.00,1.07
5855.00,1.07
5854.00,1.07
5853.00,1.07
5852.00,1.07
5851.00,1.07
5850.00,1.07
5849.00,1.07
5848.00,1.07
5847.00,1.07
5846.00,1.07
5845.00,1.07
5844.00,1.07
5843.00,1.07
5842.00,1.07
5841.00,1.07
5840.00,1.07
5839.00,1.07
5838.00,1.07
5837.00,1.07
5836.00,1.07
5835.00,1.07
5834.00,1.07
5833.00,1.07
5832.00,1.07
5831.00,1.07
5830.00,1.07
5829.00,1.07
5828.00,1.07
5827.00,1.07
5826.00,1.07
5825.00,1.07
5824.00,1.07
5823.00,1.07
5822.00,1.07
5821.00,1.07
5820.00,1.07
5819.00,1.07
5818.00,1.07
5817.00,1.07
5816.00,1.07
5815.00,1.07
5814.00,1.07
5813.00,1.07
5812.00,1.07
5811.00,1.07
5810.00,1.07
5809.00,1.07
5808.00,1.07
5807.00,1.07
5806.00,1.06
5805.00,1.06
5804.00,1.06
5803.00,1.06
5802.00,1.06
5801.00,1.06
5800.00,1.06
5799.00,1.06
5798.00,1.06
5797.00,1.06
5796.00,1.06
5795.00,1.06
5794.00,1.06
5793.00,1.06
5792.00,1.06
5791.00,1.06
5790.00,1.06
5789.00,1.06
5788.00,1.06
5787.00,1.06
5786.00,1.06
5785.00,1.06
5784.00,1.06
5783.00,1.06
5782.00,1.06
5781.00,1.06
5780.00,1.05
5779.00,1.05
5778.00,1.05
5777.00,1.05
5776.00,1.05
5775.00,1.05
5774.00,1.05
5773.00,1.05
5772.00,1.05
5771.00,1.05
5770.00,1.05
5769.00,1.06
5768.00,1.06
5767.00,1.06
5766.00,1.06
5765.00,1.06
5764.00,1.06
5763.00,1.06
5762.00,1.06
5761.00,1.06
5760.00,1.06
5759.00,1.06
5758.00,1.06
5757.00,1.07
5756.00,1.07
5755.00,1.07
5754.00,1.07
5753.00,1.07
5752.00,1.07
5751.00,1.07
5750.00,1.07
5749.00,1.07
5748.00,1.07
5747.00,1.07
5746.00,1.07
5745.00,1.07
5744.00,1.07
5743.00,1.07
5742.00,1.07
5741.00,1.07
5740.00,1.07
5739.00,1.07
5738.00,1.07
5737.00,1.08
5736.00,1.08
5735.00,1.08
5734.00,1.08
5733.00,1.08
5732.00,1.08
5731.00,1.08
5730.00,1.08
5729.00,1.08
5728.00,1.08
5727.00,1.08
5726.00,1.08
5725.00,1.08
5724.00,1.08
5723.00,1.08
5722.00,1.08
5721.00,1.08
5720.00,1.08
5719.00,1.08
5718.00,1.08
5717.00,1.08
5716.00,1.08
5715.00,1.08
5714.00,1.08
5713.00,1.08
5712.00,1.08
5711.00,1.08
5710.00,1.08
5709.00,1.08
5708.00,1.08
5707.00,1.08
5706.00,1.08
5705.00,1.08
5704.00,1.08
5703.00,1.08
5702.00,1.08
5701.00,1.08
5700.00,1.08
5699.00,1.08
5698.00,1.08
5697.00,1.08
5696.00,1.08
5695.00,1.08
5694.00,1.08
5693.00,1.08
5692.00,1.08
5691.00,1.08
5690.00,1.07
5689.00,1.07
5688.00,1.07
5687.00,1.07
5686.00,1.07
5685.00,1.07
5684.00,1.07
5683.00,1.07
5682.00,1.07
5681.00,1.07
5680.00,1.07
5679.00,1.07
5678.00,1.07
5677.00,1.07
5676.00,1.07
5675.00,1.07
5674.00,1.07
5673.00,1.07
5672.00,1.07
5671.00,1.07
5670.00,1.07
5669.00,1.07
5668.00,1.07
5667.00,1.07
5666.00,1.07
5665.00,1.07
5664.00,1.07
5663.00,1.07
5662.00,1.07
5661.00,1.07
5660.00,1.07
5659.00,1.07
5658.00,1.07
5657.00,1.07
5656.00,1.07
5655.00,1.07
5654.00,1.07
5653.00,1.07
5652.00,1.07
5651.00,1.07
5650.00,1.07
5649.00,1.07
5648.00,1.07
5647.00,1.07
5646.00,1.07
5645.00,1.08
5644.00,1.08
5643.00,1.08
5642.00,1.08
5641.00,1.08
5640.00,1.08
5639.00,1.08
5638.00,1.08
5637.00,1.08
5636.00,1.08
5635.00,1.08
5634.00,1.08
5633.00,1.08
5632.00,1.08
5631.00,1.08
5630.00,1.08
5629.00,1.08
5628.00,1.08
5627.00,1.08
5626.00,1.08
5625.00,1.08
5624.00,1.08
5623.00,1.08
5622.00,1.08
5621.00,1.08
5620.00,1.08
5619.00,1.08
5618.00,1.08
5617.00,1.08
5616.00,1.08
5615.00,1.08
5614.00,1.08
5613.00,1.09
5612.00,1.09
5611.00,1.09
5610.00,1.09
5609.00,1.09
5608.00,1.09
5607.00,1.09
5606.00,1.09
5605.00,1.09
5604.00,1.09
5603.00,1.09
5602.00,1.09
5601.00,1.10
5600.00,1.10
5599.00,1.10
5598.00,1.10
5597.00,1.10
5596.00,1.10
5595.00,1.10
5594.00,1.10
5593.00,1.10
5592.00,1.10
5591.00,1.10
5590.00,1.10
5589.00,1.10
5588.00,1.10
5587.00,1.10
5586.00,1.10
5585.00,1.10
5584.00,1.10
5583.00,1.10
5582.00,1.10
5581.00,1.10
5580.00,1.10
5579.00,1.10
5578.00,1.10
5577.00,1.10
5576.00,1.10
5575.00,1.10
5574.00,1.10
5573.00,1.10
5572.00,1.10
5571.00,1.10
5570.00,1.10
5569.00,1.10
5568.00,1.10
5567.00,1.10
5566.00,1.10
5565.00,1.10
5564.00,1.10
5563.00,1.10
5562.00,1.10
5561.00,1.10
5560.00,1.10
5559.00,1.11
5558.00,1.11
5557.00,1.11
5556.00,1.11
5555.00,1.11
5554.00,1.11
5553.00,1.11
5552.00,1.11
5551.00,1.11
5550.00,1.11
5549.00,1.11
5548.00,1.11
5547.00,1.11
5546.00,1.11
5545.00,1.11
5544.00,1.11
5543.00,1.11
5542.00,1.11
5541.00,1.11
5540.00,1.11
5539.00,1.11
5538.00,1.11
5537.00,1.11
5536.00,1.11
5535.00,1.11
5534.00,1.11
5533.00,1.11
5532.00,1.12
5531.00,1.12
5530.00,1.12
5529.00,1.12
5528.00,1.12
5527.00,1.12
5526.00,1.12
5525.00,1.12
5524.00,1.12
5523.00,1.12
5522.00,1.12
5521.00,1.12
5520.00,1.12
5519.00,1.12
5518.00,1.12
5517.00,1.12
5516.00,1.12
5515.00,1.12
5514.00,1.12
5513.00,1.12
5512.00,1.12
5511.00,1.12
5510.00,1.12
5509.00,1.12
5508.00,1.12
5507.00,1.12
5506.00,1.12
5505.00,1.12
5504.00,1.12
5503.00,1.12
5502.00,1.12
5501.00,1.12
5500.00,1.12
5499.00,1.12
5498.00,1.12
5497.00,1.12
5496.00,1.12
5495.00,1.12
5494.00,1.12
5493.00,1.12
5492.00,1.12
5491.00,1.12
5490.00,1.12
5489.00,1.12
5488.00,1.12
5487.00,1.12
5486.00,1.12
5485.00,1.12
5484.00,1.12
5483.00,1.12
5482.00,1.12
5481.00,1.12
5480.00,1.12
5479.00,1.12
5478.00,1.12
5477.00,1.12
5476.00,1.12
5475.00,1.12
5474.00,1.12
5473.00,1.12
5472.00,1.12
5471.00,1.12
5470.00,1.12
5469.00,1.12
5468.00,1.12
5467.00,1.12
5466.00,1.12
5465.00,1.12
5464.00,1.12
5463.00,1.12
5462.00,1.12
5461.00,1.12
5460.00,1.12
5459.00,1.12
5458.00,1.12
5457.00,1.12
5456.00,1.12
5455.00,1.12
5454.00,1.12
5453.00,1.12
5452.00,1.12
5451.00,1.12
5450.00,1.12
5449.00,1.12
5448.00,1.12
5447.00,1.12
5446.00,1.12
5445.00,1.12
5444.00,1.12
5443.00,1.12
5442.00,1.12
5441.00,1.12
5440.00,1.12
5439.00,1.12
5438.00,1.12
5437.00,1.12
5436.00,1.12
5435.00,1.12
5434.00,1.12
5433.00,1.12
5432.00,1.12
5431.00,1.12
5430.00,1.12
5429.00,1.12
5428.00,1.12
5427.00,1.12
5426.00,1.12
5425.00,1.12
5424.00,1.12
5423.00,1.12
5422.00,1.12
5421.00,1.12
5420.00,1.12
5419.00,1.12
5418.00,1.12
5417.00,1.12
5416.00,1.12
5415.00,1.12
5414.00,1.12
5413.00,1.12
5412.00,1.12
5411.00,1.12
5410.00,1.12
5409.00,1.12
5408.00,1.12
5407.00,1.12
5406.00,1.12
5405.00,1.12
5404.00,1.12
5403.00,1.12
5402.00,1.12
5401.00,1.12
5400.00,1.12
5399.00,1.12
5398.00,1.12
5397.00,1.12
5396.00,1.12
5395.00,1.12
5394.00,1.12
5393.00,1.12
5392.00,1.12
5391.00,1.12
5390.00,1.12
5389.00,1.12
5388.00,1.12
5387.00,1.12
5386.00,1.12
5385.00,1.12
5384.00,1.12
5383.00,1.12
5382.00,1.12
5381.00,1.12
5380.00,1.12
5379.00,1.11
5378.00,1.11
5377.00,1.11
5376.00,1.11
5375.00,1.11
5374.00,1.11
5373.00,1.11
5372.00,1.11
5371.00,1.11
5370.00,1.11
5369.00,1.11
5368.00,1.11
5367.00,1.10
5366.00,1.10
5365.00,1.10
5364.00,1.10
5363.00,1.10
5362.00,1.10
5361.00,1.10
5360.00,1.10
5359.00,1.09
5358.00,1.09
5357.00,1.09
5356.00,1.09
5355.00,1.08
5354.00,1.08
5353.00,1.08
5352.00,1.08
5351.00,1.07
5350.00,1.07
5349.00,1.07
5348.00,1.06
5347.00,1.06
5346.00,1.06
5345.00,1.05
5344.00,1.05
5343.00,1.05
5342.00,1.04
5341.00,1.04
5340.00,1.04
5339.00,1.04
5338.00,1.03
5337.00,1.03
5336.00,1.03
5335.00,1.03
5334.00,1.02
5333.00,1.02
5332.00,1.02
5331.00,1.02
5330.00,1.02
5329.00,1.01
5328.00,1.01
5327.00,1.01
5326.00,1.01
5325.00,1.01
5324.00,1.00
5323.00,1.00
5322.00,1.00
5321.00,1.00
5320.00,0.99
5319.00,0.99
5318.00,0.99
5317.00,0.99
5316.00,0.98
5315.00,0.98
5314.00,0.98
5313.00,0.98
5312.00,0.97
5311.00,0.97
5310.00,0.97
5309.00,0.96
5308.00,0.96
5307.00,0.96
5306.00,0.96
5305.00,0.95
5304.00,0.95
5303.00,0.95
5302.00,0.95
5301.00,0.94
5300.00,0.94
5299.00,0.94
5298.00,0.94
5297.00,0.94
5296.00,0.93
5295.00,0.93
5294.00,0.93
5293.00,0.93
5292.00,0.93
5291.00,0.92
5290.00,0.92
5289.00,0.92
5288.00,0.92
5287.00,0.92
5286.00,0.92
5285.00,0.91
5284.00,0.91
5283.00,0.91
5282.00,0.91
5281.00,0.91
5280.00,0.91
5279.00,0.91
5278.00,0.91
5277.00,0.90
5276.00,0.90
5275.00,0.90
5274.00,0.90
5273.00,0.90
5272.00,0.90
5271.00,0.90
5270.00,0.90
5269.00,0.90
5268.00,0.89
5267.00,0.89
5266.00,0.89
5265.00,0.89
5264.00,0.89
5263.00,0.89
5262.00,0.89
5261.00,0.89
5260.00,0.89
5259.00,0.89
5258.00,0.89
5257.00,0.89
5256.00,0.88
5255.00,0.88
5254.00,0.88
5253.00,0.88
5252.00,0.88
5251.00,0.88
5250.00,0.88
5249.00,0.88
5248.00,0.88
5247.00,0.88
5246.00,0.88
5245.00,0.88
5244.00,0.88
5243.00,0.88
5242.00,0.88
5241.00,0.88
5240.00,0.88
5239.00,0.88
5238.00,0.88
5237.00,0.88
5236.00,0.88
5235.00,0.88
5234.00,0.88
5233.00,0.88
5232.00,0.88
5231.00,0.88
5230.00,0.88
5229.00,0.88
5228.00,0.88
5227.00,0.88
5226.00,0.88
5225.00,0.88
5224.00,0.88
5223.00,0.88
5222.00,0.88
5221.00,0.88
5220.00,0.88
5219.00,0.88
5218.00,0.88
5217.00,0.88
5216.00,0.88
5215.00,0.88
5214.00,0.88
5213.00,0.88
5212.00,0.88
5211.00,0.88
5210.00,0.88
5209.00,0.88
5208.00,0.88
5207.00,0.88
5206.00,0.88
5205.00,0.88
5204.00,0.88
5203.00,0.88
5202.00,0.88
5201.00,0.88
5200.00,0.88
5199.00,0.88
5198.00,0.88
5197.00,0.88
5196.00,0.88
5195.00,0.88
5194.00,0.88
5193.00,0.88
5192.00,0.88
5191.00,0.88
5190.00,0.88
5189.00,0.88
5188.00,0.88
5187.00,0.88
5186.00,0.88
5185.00,0.88
5184.00,0.88
5183.00,0.88
5182.00,0.88
5181.00,0.88
5180.00,0.88
5179.00,0.88
5178.00,0.88
5177.00,0.88
5176.00,0.88
5175.00,0.88
5174.00,0.88
5173.00,0.88
5172.00,0.88
5171.00,0.88
5170.00,0.88
5169.00,0.88
5168.00,0.88
5167.00,0.88
5166.00,0.88
5165.00,0.88
5164.00,0.88
5163.00,0.88
5162.00,0.88
5161.00,0.88
5160.00,0.88
5159.00,0.88
5158.00,0.88
5157.00,0.89
5156.00,0.89
5155.00,0.89
5154.00,0.89
5153.00,0.89
5152.00,0.89
5151.00,0.89
5150.00,0.89
5149.00,0.89
5148.00,0.89
5147.00,0.89
5146.00,0.89
5145.00,0.89
5144.00,0.89
5143.00,0.89
5142.00,0.89
5141.00,0.89
5140.00,0.89
5139.00,0.90
5138.00,0.90
5137.00,0.90
5136.00,0.90
5135.00,0.90
5134.00,0.90
5133.00,0.90
5132.00,0.90
5131.00,0.90
5130.00,0.90
5129.00,0.90
5128.00,0.90
5127.00,0.90
5126.00,0.90
5125.00,0.90
5124.00,0.90
5123.00,0.90
5122.00,0.91
5121.00,0.91
5120.00,0.91
5119.00,0.91
5118.00,0.91
5117.00,0.91
5116.00,0.91
5115.00,0.91
5114.00,0.91
5113.00,0.91
5112.00,0.91
5111.00,0.91
5110.00,0.91
5109.00,0.91
5108.00,0.91
5107.00,0.91
5106.00,0.91
5105.00,0.91
5104.00,0.91
5103.00,0.91
5102.00,0.91
5101.00,0.91
5100.00,0.91
5099.00,0.91
5098.00,0.92
5097.00,0.92
5096.00,0.92
5095.00,0.92
5094.00,0.92
5093.00,0.92
5092.00,0.92
5091.00,0.92
5090.00,0.92
5089.00,0.92
5088.00,0.92
5087.00,0.92
5086.00,0.92
5085.00,0.92
5084.00,0.92
5083.00,0.92
5082.00,0.92
5081.00,0.92
5080.00,0.92
5079.00,0.92
5078.00,0.92
5077.00,0.92
5076.00,0.92
5075.00,0.92
5074.00,0.92
5073.00,0.92
5072.00,0.92
5071.00,0.92
5070.00,0.92
5069.00,0.92
5068.00,0.92
5067.00,0.93
5066.00,0.93
5065.00,0.93
5064.00,0.93
5063.00,0.93
5062.00,0.93
5061.00,0.93
5060.00,0.93
5059.00,0.93
5058.00,0.93
5057.00,0.93
5056.00,0.93
5055.00,0.94
5054.00,0.94
5053.00,0.94
5052.00,0.94
5051.00,0.94
5050.00,0.94
5049.00,0.94
5048.00,0.94
5047.00,0.94
5046.00,0.94
5045.00,0.94
5044.00,0.94
5043.00,0.94
5042.00,0.94
5041.00,0.94
5040.00,0.94
5039.00,0.94
5038.00,0.94
5037.00,0.94
5036.00,0.94
5035.00,0.94
5034.00,0.94
5033.00,0.94
5032.00,0.95
5031.00,0.95
5030.00,0.95
5029.00,0.95
5028.00,0.95
5027.00,0.95
5026.00,0.95
5025.00,0.95
5024.00,0.95
5023.00,0.95
5022.00,0.95
5021.00,0.95
5020.00,0.95
5019.00,0.95
5018.00,0.95
5017.00,0.95
5016.00,0.95
5015.00,0.95
5014.00,0.95
5013.00,0.96
5012.00,0.96
5011.00,0.96
5010.00,0.96
5009.00,0.96
5008.00,0.96
5007.00,0.96
5006.00,0.96
5005.00,0.96
5004.00,0.96
5003.00,0.96
5002.00,0.96
5001.00,0.97
5000.00,0.97
4999.00,0.97
4998.00,0.97
4997.00,0.97
4996.00,0.97
4995.00,0.97
4994.00,0.97
4993.00,0.97
4992.00,0.97
4991.00,0.97
4990.00,0.97
4989.00,0.97
4988.00,0.97
4987.00,0.97
4986.00,0.98
4985.00,0.98
4984.00,0.98
4983.00,0.98
4982.00,0.98
4981.00,0.98
4980.00,0.98
4979.00,0.98
4978.00,0.98
4977.00,0.98
4976.00,0.98
4975.00,0.98
4974.00,0.98
4973.00,0.98
4972.00,0.98
4971.00,0.98
4970.00,0.98
4969.00,0.98
4968.00,0.98
4967.00,0.98
4966.00,0.98
4965.00,0.98
4964.00,0.99
4963.00,0.99
4962.00,0.99
4961.00,0.99
4960.00,0.99
4959.00,0.99
4958.00,0.99
4957.00,0.99
4956.00,0.99
4955.00,0.99
4954.00,0.99
4953.00,0.99
4952.00,0.99
4951.00,0.99
4950.00,0.99
4949.00,1.00
4948.00,1.00
4947.00,1.00
4946.00,1.00
4945.00,1.00
4944.00,1.00
4943.00,1.00
4942.00,1.00
4941.00,1.00
4940.00,1.00
4939.00,1.00
4938.00,1.00
4937.00,1.00
4936.00,1.00
4935.00,1.00
4934.00,1.00
4933.00,1.00
4932.00,1.00
4931.00,1.00
4930.00,1.00
4929.00,1.00
4928.00,1.00
4927.00,1.00
4926.00,1.00
4925.00,1.00
4924.00,1.01
4923.00,1.01
4922.00,1.01
4921.00,1.01
4920.00,1.01
4919.00,1.01
4918.00,1.01
4917.00,1.01
4916.00,1.01
4915.00,1.01
4914.00,1.01
4913.00,1.01
4912.00,1.01
4911.00,1.01
4910.00,1.01
4909.00,1.01
4908.00,1.01
4907.00,1.02
4906.00,1.02
4905.00,1.02
4904.00,1.02
4903.00,1.02
4902.00,1.02
4901.00,1.02
4900.00,1.02
4899.00,1.02
4898.00,1.02
4897.00,1.02
4896.00,1.02
4895.00,1.02
4894.00,1.02
4893.00,1.02
4892.00,1.02
4891.00,1.02
4890.00,1.02
4889.00,1.02
4888.00,1.02
4887.00,1.02
4886.00,1.02
4885.00,1.02
4884.00,1.02
4883.00,1.02
4882.00,1.02
4881.00,1.02
4880.00,1.02
4879.00,1.02
4878.00,1.02
4877.00,1.02
4876.00,1.02
4875.00,1.02
4874.00,1.02
4873.00,1.02
4872.00,1.02
4871.00,1.02
4870.00,1.02
4869.00,1.02
4868.00,1.03
4867.00,1.03
4866.00,1.03
4865.00,1.03
4864.00,1.03
4863.00,1.03
4862.00,1.03
4861.00,1.03
4860.00,1.03
4859.00,1.03
4858.00,1.03
4857.00,1.03
4856.00,1.03
4855.00,1.03
4854.00,1.04
4853.00,1.04
4852.00,1.04
4851.00,1.04
4850.00,1.04
4849.00,1.04
4848.00,1.04
4847.00,1.04
4846.00,1.04
4845.00,1.04
4844.00,1.04
4843.00,1.04
4842.00,1.04
4841.00,1.04
4840.00,1.04
4839.00,1.04
4838.00,1.04
4837.00,1.04
4836.00,1.04
4835.00,1.04
4834.00,1.04
4833.00,1.04
4832.00,1.04
4831.00,1.04
4830.00,1.04
4829.00,1.04
4828.00,1.04
4827.00,1.04
4826.00,1.04
4825.00,1.04
4824.00,1.04
4823.00,1.04
4822.00,1.04
4821.00,1.04
4820.00,1.04
4819.00,1.04
4818.00,1.04
4817.00,1.04
4816.00,1.04
4815.00,1.05
4814.00,1.05
4813.00,1.05
4812.00,1.05
4811.00,1.05
4810.00,1.05
4809.00,1.05
4808.00,1.05
4807.00,1.05
4806.00,1.05
4805.00,1.05
4804.00,1.05
4803.00,1.05
4802.00,1.05
4801.00,1.05
4800.00,1.05
4799.00,1.05
4798.00,1.05
4797.00,1.05
4796.00,1.05
4795.00,1.06
4794.00,1.06
4793.00,1.06
4792.00,1.06
4791.00,1.06
4790.00,1.06
4789.00,1.06
4788.00,1.06
4787.00,1.06
4786.00,1.06
4785.00,1.06
4784.00,1.06
4783.00,1.06
4782.00,1.06
4781.00,1.06
4780.00,1.06
4779.00,1.06
4778.00,1.06
4777.00,1.06
4776.00,1.06
4775.00,1.06
4774.00,1.06
4773.00,1.06
4772.00,1.06
4771.00,1.07
4770.00,1.07
4769.00,1.07
4768.00,1.07
4767.00,1.07
4766.00,1.07
4765.00,1.07
4764.00,1.07
4763.00,1.07
4762.00,1.07
4761.00,1.07
4760.00,1.07
4759.00,1.07
4758.00,1.07
4757.00,1.07
4756.00,1.07
4755.00,1.07
4754.00,1.07
4753.00,1.07
4752.00,1.07
4751.00,1.07
4750.00,1.07
4749.00,1.07
4748.00,1.08
4747.00,1.08
4746.00,1.08
4745.00,1.08
4744.00,1.08
4743.00,1.08
4742.00,1.08
4741.00,1.08
4740.00,1.08
4739.00,1.08
4738.00,1.08
4737.00,1.08
4736.00,1.08
4735.00,1.08
4734.00,1.08
4733.00,1.08
4732.00,1.08
4731.00,1.08
4730.00,1.08
4729.00,1.08
4728.00,1.08
4727.00,1.08
4726.00,1.08
4725.00,1.08
4724.00,1.08
4723.00,1.08
4722.00,1.09
4721.00,1.09
4720.00,1.09
4719.00,1.09
4718.00,1.09
4717.00,1.09
4716.00,1.09
4715.00,1.09
4714.00,1.09
4713.00,1.09
4712.00,1.09
4711.00,1.09
4710.00,1.10
4709.00,1.10
4708.00,1.10
4707.00,1.10
4706.00,1.10
4705.00,1.10
4704.00,1.10
4703.00,1.10
4702.00,1.10
4701.00,1.10
4700.00,1.10
4699.00,1.10
4698.00,1.10
4697.00,1.10
4696.00,1.10
4695.00,1.10
4694.00,1.10
4693.00,1.10
4692.00,1.10
4691.00,1.10
4690.00,1.10
4689.00,1.10
4688.00,1.10
4687.00,1.10
4686.00,1.10
4685.00,1.11
4684.00,1.11
4683.00,1.11
4682.00,1.11
4681.00,1.11
4680.00,1.11
4679.00,1.11
4678.00,1.11
4677.00,1.11
4676.00,1.11
4675.00,1.11
4674.00,1.11
4673.00,1.11
4672.00,1.11
4671.00,1.11
4670.00,1.11
4669.00,1.11
4668.00,1.11
4667.00,1.11
4666.00,1.11
4665.00,1.11
4664.00,1.11
4663.00,1.11
4662.00,1.11
4661.00,1.11
4660.00,1.11
4659.00,1.11
4658.00,1.11
4657.00,1.11
4656.00,1.11
4655.00,1.11
4654.00,1.11
4653.00,1.11
4652.00,1.11
4651.00,1.12
4650.00,1.12
4649.00,1.12
4648.00,1.12
4647.00,1.12
4646.00,1.12
4645.00,1.12
4644.00,1.12
4643.00,1.12
4642.00,1.12
4641.00,1.12
4640.00,1.12
4639.00,1.12
4638.00,1.12
4637.00,1.12
4636.00,1.12
4635.00,1.12
4634.00,1.11
4633.00,1.11
4632.00,1.11
4631.00,1.11
4630.00,1.11
4629.00,1.11
4628.00,1.11
4627.00,1.11
4626.00,1.11
4625.00,1.11
4624.00,1.11
4623.00,1.11
4622.00,1.11
4621.00,1.11
4620.00,1.11
4619.00,1.11
4618.00,1.11
4617.00,1.11
4616.00,1.11
4615.00,1.11
4614.00,1.11
4613.00,1.11
4612.00,1.11
4611.00,1.11
4610.00,1.11
4609.00,1.11
4608.00,1.11
4607.00,1.11
4606.00,1.11
4605.00,1.11
4604.00,1.11
4603.00,1.11
4602.00,1.11
4601.00,1.11
4600.00,1.11
4599.00,1.11
4598.00,1.11
4597.00,1.11
4596.00,1.11
4595.00,1.11
4594.00,1.11
4593.00,1.11
4592.00,1.11
4591.00,1.11
4590.00,1.11
4589.00,1.11
4588.00,1.11
4587.00,1.11
4586.00,1.11
4585.00,1.12
4584.00,1.12
4583.00,1.12
4582.00,1.12
4581.00,1.12
4580.00,1.12
4579.00,1.12
4578.00,1.12
4577.00,1.12
4576.00,1.12
4575.00,1.12
4574.00,1.12
4573.00,1.12
4572.00,1.12
4571.00,1.12
4570.00,1.12
4569.00,1.11
4568.00,1.11
4567.00,1.11
4566.00,1.11
4565.00,1.11
4564.00,1.11
4563.00,1.11
4562.00,1.11
4561.00,1.11
4560.00,1.11
4559.00,1.11
4558.00,1.11
4557.00,1.11
4556.00,1.11
4555.00,1.11
4554.00,1.11
4553.00,1.11
4552.00,1.11
4551.00,1.11
4550.00,1.11
4549.00,1.11
4548.00,1.11
4547.00,1.11
4546.00,1.11
4545.00,1.11
4544.00,1.11
4543.00,1.11
4542.00,1.11
4541.00,1.11
4540.00,1.11
4539.00,1.11
4538.00,1.11
4537.00,1.11
4536.00,1.11
4535.00,1.11
4534.00,1.11
4533.00,1.11
4532.00,1.11
4531.00,1.11
4530.00,1.11
4529.00,1.11
4528.00,1.11
4527.00,1.11
4526.00,1.11
4525.00,1.11
4524.00,1.11
4523.00,1.11
4522.00,1.11
4521.00,1.11
4520.00,1.11
4519.00,1.11
4518.00,1.11
4517.00,1.11
4516.00,1.11
4515.00,1.11
4514.00,1.11
4513.00,1.11
4512.00,1.11
4511.00,1.12
4510.00,1.12
4509.00,1.12
4508.00,1.12
4507.00,1.12
4506.00,1.12
4505.00,1.12
4504.00,1.12
4503.00,1.12
4502.00,1.12
4501.00,1.12
4500.00,1.12
4499.00,1.12
4498.00,1.11
4497.00,1.11
4496.00,1.11
4495.00,1.11
4494.00,1.11
4493.00,1.11
4492.00,1.11
4491.00,1.11
4490.00,1.11
4489.00,1.11
4488.00,1.11
4487.00,1.11
4486.00,1.11
4485.00,1.11
4484.00,1.11
4483.00,1.11
4482.00,1.11
4481.00,1.11
4480.00,1.11
4479.00,1.11
4478.00,1.11
4477.00,1.11
4476.00,1.11
4475.00,1.11
4474.00,1.11
4473.00,1.11
4472.00,1.11
4471.00,1.11
4470.00,1.11
4469.00,1.11
4468.00,1.11
4467.00,1.11
4466.00,1.11
4465.00,1.11
4464.00,1.11
4463.00,1.11
4462.00,1.10
4461.00,1.10
4460.00,1.10
4459.00,1.10
4458.00,1.10
4457.00,1.10
4456.00,1.10
4455.00,1.10
4454.00,1.10
4453.00,1.10
4452.00,1.10
4451.00,1.10
4450.00,1.10
4449.00,1.10
4448.00,1.09
4447.00,1.09
4446.00,1.09
4445.00,1.09
4444.00,1.09
4443.00,1.09
4442.00,1.09
4441.00,1.09
4440.00,1.08
4439.00,1.08
4438.00,1.08
4437.00,1.08
4436.00,1.08
4435.00,1.08
4434.00,1.08
4433.00,1.07
4432.00,1.07
4431.00,1.07
4430.00,1.07
4429.00,1.07
4428.00,1.07
4427.00,1.07
4426.00,1.07
4425.00,1.06
4424.00,1.06
4423.00,1.06
4422.00,1.06
4421.00,1.06
4420.00,1.06
4419.00,1.06
4418.00,1.06
4417.00,1.06
4416.00,1.06
4415.00,1.06
4414.00,1.06
4413.00,1.06
4412.00,1.06
4411.00,1.06
4410.00,1.06
4409.00,1.06
4408.00,1.06
4407.00,1.06
4406.00,1.06
4405.00,1.06
4404.00,1.06
4403.00,1.06
4402.00,1.07
4401.00,1.07
4400.00,1.07
4399.00,1.07
4398.00,1.07
4397.00,1.07
4396.00,1.07
4395.00,1.07
4394.00,1.07
4393.00,1.07
4392.00,1.07
4391.00,1.07
4390.00,1.07
4389.00,1.07
4388.00,1.07
4387.00,1.07
4386.00,1.08
4385.00,1.08
4384.00,1.08
4383.00,1.08
4382.00,1.08
4381.00,1.08
4380.00,1.08
4379.00,1.08
4378.00,1.08
4377.00,1.08
4376.00,1.08
4375.00,1.08
4374.00,1.08
4373.00,1.08
4372.00,1.08
4371.00,1.08
4370.00,1.09
4369.00,1.09
4368.00,1.09
4367.00,1.09
4366.00,1.09
4365.00,1.09
4364.00,1.09
4363.00,1.09
4362.00,1.09
4361.00,1.09
4360.00,1.09
4359.00,1.09
4358.00,1.09
4357.00,1.08
4356.00,1.08
4355.00,1.08
4354.00,1.08
4353.00,1.08
4352.00,1.08
4351.00,1.08
4350.00,1.08
4349.00,1.08
4348.00,1.08
4347.00,1.08
4346.00,1.08
4345.00,1.08
4344.00,1.08
4343.00,1.08
4342.00,1.08
4341.00,1.08
4340.00,1.08
4339.00,1.08
4338.00,1.08
4337.00,1.08
4336.00,1.08
4335.00,1.08
4334.00,1.08
4333.00,1.08
4332.00,1.08
4331.00,1.08
4330.00,1.08
4329.00,1.08
4328.00,1.08
4327.00,1.08
4326.00,1.08
4325.00,1.08
4324.00,1.08
4323.00,1.09
4322.00,1.09
4321.00,1.09
4320.00,1.09
4319.00,1.09
4318.00,1.09
4317.00,1.09
4316.00,1.09
4315.00,1.10
4314.00,1.10
4313.00,1.10
4312.00,1.10
4311.00,1.10
4310.00,1.10
4309.00,1.10
4308.00,1.11
4307.00,1.11
4306.00,1.11
4305.00,1.11
4304.00,1.11
4303.00,1.11
4302.00,1.11
4301.00,1.11
4300.00,1.11
4299.00,1.11
4298.00,1.11
4297.00,1.11
4296.00,1.12
4295.00,1.12
4294.00,1.12
4293.00,1.12
4292.00,1.12
4291.00,1.12
4290.00,1.12
4289.00,1.12
4288.00,1.12
4287.00,1.12
4286.00,1.12
4285.00,1.12
4284.00,1.12
4283.00,1.12
4282.00,1.12
4281.00,1.12
4280.00,1.12
4279.00,1.12
4278.00,1.12
4277.00,1.12
4276.00,1.12
4275.00,1.12
4274.00,1.12
4273.00,1.12
4272.00,1.12
4271.00,1.12
4270.00,1.12
4269.00,1.12
4268.00,1.12
4267.00,1.12
4266.00,1.12
4265.00,1.12
4264.00,1.12
4263.00,1.12
4262.00,1.12
4261.00,1.12
4260.00,1.12
4259.00,1.12
4258.00,1.12
4257.00,1.12
4256.00,1.12
4255.00,1.12
4254.00,1.12
4253.00,1.12
4252.00,1.12
4251.00,1.12
4250.00,1.12
4249.00,1.12
4248.00,1.12
4247.00,1.12
4246.00,1.12
4245.00,1.12
4244.00,1.12
4243.00,1.12
4242.00,1.12
4241.00,1.12
4240.00,1.12
4239.00,1.12
4238.00,1.12
4237.00,1.12
4236.00,1.12
4235.00,1.12
4234.00,1.12
4233.00,1.12
4232.00,1.12
4231.00,1.12
4230.00,1.12
4229.00,1.12
4228.00,1.12
4227.00,1.12
4226.00,1.12
4225.00,1.12
4224.00,1.12
4223.00,1.12
4222.00,1.12
4221.00,1.12
4220.00,1.12
4219.00,1.12
4218.00,1.12
4217.00,1.12
4216.00,1.12
4215.00,1.12
4214.00,1.12
4213.00,1.12
4212.00,1.12
4211.00,1.12
4210.00,1.12
4209.00,1.12
4208.00,1.12
4207.00,1.12
4206.00,1.12
4205.00,1.12
4204.00,1.12
4203.00,1.12
4202.00,1.12
4201.00,1.12
4200.00,1.12
4199.00,1.12
4198.00,1.12
4197.00,1.12
4196.00,1.12
4195.00,1.12
4194.00,1.12
4193.00,1.12
4192.00,1.12
4191.00,1.12
4190.00,1.12
4189.00,1.12
4188.00,1.12
4187.00,1.12
4186.00,1.12
4185.00,1.12
4184.00,1.12
4183.00,1.12
4182.00,1.12
4181.00,1.12
4180.00,1.12
4179.00,1.12
4178.00,1.12
4177.00,1.12
4176.00,1.12
4175.00,1.12
4174.00,1.12
4173.00,1.12
4172.00,1.12
4171.00,1.12
4170.00,1.12
4169.00,1.12
4168.00,1.12
4167.00,1.12
4166.00,1.12
4165.00,1.12
4164.00,1.12
4163.00,1.12
4162.00,1.12
4161.00,1.12
4160.00,1.12
4159.00,1.12
4158.00,1.12
4157.00,1.12
4156.00,1.12
4155.00,1.12
4154.00,1.12
4153.00,1.12
4152.00,1.12
4151.00,1.12
4150.00,1.12
4149.00,1.12
4148.00,1.12
4147.00,1.12
4146.00,1.12
4145.00,1.11
4144.00,1.11
4143.00,1.11
4142.00,1.11
4141.00,1.11
4140.00,1.11
4139.00,1.11
4138.00,1.11
4137.00,1.11
4136.00,1.11
4135.00,1.11
4134.00,1.11
4133.00,1.11
4132.00,1.11
4131.00,1.11
4130.00,1.11
4129.00,1.11
4128.00,1.11
4127.00,1.12
4126.00,1.12
4125.00,1.12
4124.00,1.12
4123.00,1.12
4122.00,1.12
4121.00,1.12
4120.00,1.12
4119.00,1.12
4118.00,1.12
4117.00,1.12
4116.00,1.12
4115.00,1.12
4114.00,1.12
4113.00,1.12
4112.00,1.12
4111.00,1.12
4110.00,1.12
4109.00,1.12
4108.00,1.12
4107.00,1.12
4106.00,1.12
4105.00,1.12
4104.00,1.12
4103.00,1.12
4102.00,1.12
4101.00,1.12
4100.00,1.12
4099.00,1.12
4098.00,1.12
4097.00,1.12
4096.00,1.12
4095.00,1.12
4094.00,1.12
4093.00,1.12
4092.00,1.12
4091.00,1.12
4090.00,1.12
4089.00,1.12
4088.00,1.12
4087.00,1.12
4086.00,1.12
4085.00,1.12
4084.00,1.12
4083.00,1.12
4082.00,1.12
4081.00,1.12
4080.00,1.12
4079.00,1.12
4078.00,1.12
4077.00,1.12
4076.00,1.12
4075.00,1.12
4074.00,1.12
4073.00,1.12
4072.00,1.12
4071.00,1.12
4070.00,1.12
4069.00,1.12
4068.00,1.12
4067.00,1.12
4066.00,1.12
4065.00,1.12
4064.00,1.12
4063.00,1.12
4062.00,1.12
4061.00,1.12
4060.00,1.12
4059.00,1.12
4058.00,1.12
4057.00,1.12
4056.00,1.12
4055.00,1.12
4054.00,1.12
4053.00,1.12
4052.00,1.12
4051.00,1.12
4050.00,1.12
4049.00,1.12
4048.00,1.12
4047.00,1.12
4046.00,1.12
4045.00,1.12
4044.00,1.12
4043.00,1.12
4042.00,1.12
4041.00,1.12
4040.00,1.12
4039.00,1.12
4038.00,1.12
4037.00,1.12
4036.00,1.12
4035.00,1.12
4034.00,1.12
4033.00,1.12
4032.00,1.12
4031.00,1.12
4030.00,1.12
4029.00,1.12
4028.00,1.12
4027.00,1.12
4026.00,1.12
4025.00,1.12
4024.00,1.11
4023.00,1.11
4022.00,1.11
4021.00,1.11
4020.00,1.11
4019.00,1.11
4018.00,1.11
4017.00,1.11
4016.00,1.11
4015.00,1.11
4014.00,1.12
4013.00,1.12
4012.00,1.12
4011.00,1.12
4010.00,1.12
4009.00,1.12
4008.00,1.12
4007.00,1.12
4006.00,1.12
4005.00,1.12
4004.00,1.12
4003.00,1.12
4002.00,1.12
4001.00,1.12
4000.00,1.12
