创建为新数据集,样品 518 用户 Administrator 日期 星期一, 七月 16 2018
cm-1,%T
10000.00,1.82
9999.00,1.82
9998.00,1.82
9997.00,1.81
9996.00,1.81
9995.00,1.81
9994.00,1.81
9993.00,1.81
9992.00,1.81
9991.00,1.81
9990.00,1.81
9989.00,1.81
9988.00,1.82
9987.00,1.82
9986.00,1.82
9985.00,1.82
9984.00,1.82
9983.00,1.82
9982.00,1.82
9981.00,1.83
9980.00,1.83
9979.00,1.83
9978.00,1.83
9977.00,1.83
9976.00,1.83
9975.00,1.83
9974.00,1.83
9973.00,1.83
9972.00,1.82
9971.00,1.82
9970.00,1.82
9969.00,1.82
9968.00,1.82
9967.00,1.81
9966.00,1.81
9965.00,1.81
9964.00,1.80
9963.00,1.80
9962.00,1.79
9961.00,1.79
9960.00,1.79
9959.00,1.78
9958.00,1.78
9957.00,1.78
9956.00,1.78
9955.00,1.78
9954.00,1.77
9953.00,1.77
9952.00,1.77
9951.00,1.77
9950.00,1.77
9949.00,1.77
9948.00,1.77
9947.00,1.77
9946.00,1.77
9945.00,1.77
9944.00,1.78
9943.00,1.78
9942.00,1.78
9941.00,1.78
9940.00,1.78
9939.00,1.78
9938.00,1.78
9937.00,1.78
9936.00,1.78
9935.00,1.79
9934.00,1.79
9933.00,1.79
9932.00,1.79
9931.00,1.80
9930.00,1.80
9929.00,1.80
9928.00,1.80
9927.00,1.80
9926.00,1.81
9925.00,1.81
9924.00,1.81
9923.00,1.81
9922.00,1.81
9921.00,1.81
9920.00,1.81
9919.00,1.81
9918.00,1.80
9917.00,1.80
9916.00,1.80
9915.00,1.80
9914.00,1.79
9913.00,1.79
9912.00,1.79
9911.00,1.79
9910.00,1.78
9909.00,1.78
9908.00,1.78
9907.00,1.78
9906.00,1.78
9905.00,1.78
9904.00,1.78
9903.00,1.77
9902.00,1.77
9901.00,1.77
9900.00,1.77
9899.00,1.77
9898.00,1.77
9897.00,1.77
9896.00,1.77
9895.00,1.77
9894.00,1.77
9893.00,1.77
9892.00,1.77
9891.00,1.77
9890.00,1.77
9889.00,1.77
9888.00,1.77
9887.00,1.77
9886.00,1.77
9885.00,1.77
9884.00,1.77
9883.00,1.77
9882.00,1.77
9881.00,1.77
9880.00,1.77
9879.00,1.78
9878.00,1.78
9877.00,1.78
9876.00,1.78
9875.00,1.78
9874.00,1.78
9873.00,1.79
9872.00,1.79
9871.00,1.79
9870.00,1.79
9869.00,1.79
9868.00,1.79
9867.00,1.78
9866.00,1.78
9865.00,1.78
9864.00,1.78
9863.00,1.78
9862.00,1.77
9861.00,1.77
9860.00,1.77
9859.00,1.77
9858.00,1.77
9857.00,1.77
9856.00,1.77
9855.00,1.77
9854.00,1.77
9853.00,1.77
9852.00,1.77
9851.00,1.77
9850.00,1.77
9849.00,1.77
9848.00,1.77
9847.00,1.77
9846.00,1.77
9845.00,1.77
9844.00,1.77
9843.00,1.77
9842.00,1.77
9841.00,1.77
9840.00,1.77
9839.00,1.78
9838.00,1.78
9837.00,1.78
9836.00,1.78
9835.00,1.78
9834.00,1.78
9833.00,1.78
9832.00,1.78
9831.00,1.78
9830.00,1.78
9829.00,1.78
9828.00,1.78
9827.00,1.78
9826.00,1.78
9825.00,1.78
9824.00,1.78
9823.00,1.78
9822.00,1.78
9821.00,1.78
9820.00,1.78
9819.00,1.78
9818.00,1.78
9817.00,1.78
9816.00,1.78
9815.00,1.78
9814.00,1.78
9813.00,1.79
9812.00,1.79
9811.00,1.79
9810.00,1.79
9809.00,1.79
9808.00,1.79
9807.00,1.79
9806.00,1.79
9805.00,1.79
9804.00,1.79
9803.00,1.79
9802.00,1.79
9801.00,1.79
9800.00,1.78
9799.00,1.78
9798.00,1.78
9797.00,1.78
9796.00,1.78
9795.00,1.78
9794.00,1.78
9793.00,1.78
9792.00,1.78
9791.00,1.78
9790.00,1.78
9789.00,1.78
9788.00,1.78
9787.00,1.78
9786.00,1.78
9785.00,1.78
9784.00,1.78
9783.00,1.78
9782.00,1.79
9781.00,1.79
9780.00,1.79
9779.00,1.79
9778.00,1.79
9777.00,1.79
9776.00,1.80
9775.00,1.80
9774.00,1.80
9773.00,1.80
9772.00,1.80
9771.00,1.80
9770.00,1.80
9769.00,1.80
9768.00,1.80
9767.00,1.80
9766.00,1.80
9765.00,1.80
9764.00,1.80
9763.00,1.80
9762.00,1.80
9761.00,1.80
9760.00,1.80
9759.00,1.80
9758.00,1.80
9757.00,1.80
9756.00,1.80
9755.00,1.80
9754.00,1.80
9753.00,1.80
9752.00,1.80
9751.00,1.80
9750.00,1.80
9749.00,1.80
9748.00,1.80
9747.00,1.80
9746.00,1.81
9745.00,1.81
9744.00,1.81
9743.00,1.81
9742.00,1.81
9741.00,1.81
9740.00,1.80
9739.00,1.80
9738.00,1.80
9737.00,1.80
9736.00,1.80
9735.00,1.79
9734.00,1.79
9733.00,1.79
9732.00,1.78
9731.00,1.78
9730.00,1.78
9729.00,1.77
9728.00,1.77
9727.00,1.77
9726.00,1.77
9725.00,1.77
9724.00,1.77
9723.00,1.77
9722.00,1.77
9721.00,1.77
9720.00,1.77
9719.00,1.78
9718.00,1.78
9717.00,1.78
9716.00,1.79
9715.00,1.79
9714.00,1.79
9713.00,1.80
9712.00,1.80
9711.00,1.81
9710.00,1.81
9709.00,1.81
9708.00,1.81
9707.00,1.81
9706.00,1.82
9705.00,1.82
9704.00,1.82
9703.00,1.82
9702.00,1.82
9701.00,1.81
9700.00,1.81
9699.00,1.81
9698.00,1.81
9697.00,1.81
9696.00,1.81
9695.00,1.81
9694.00,1.80
9693.00,1.80
9692.00,1.80
9691.00,1.80
9690.00,1.80
9689.00,1.79
9688.00,1.79
9687.00,1.79
9686.00,1.79
9685.00,1.79
9684.00,1.78
9683.00,1.78
9682.00,1.78
9681.00,1.78
9680.00,1.78
9679.00,1.78
9678.00,1.78
9677.00,1.77
9676.00,1.77
9675.00,1.77
9674.00,1.77
9673.00,1.77
9672.00,1.77
9671.00,1.77
9670.00,1.77
9669.00,1.77
9668.00,1.77
9667.00,1.77
9666.00,1.77
9665.00,1.77
9664.00,1.77
9663.00,1.77
9662.00,1.77
9661.00,1.77
9660.00,1.78
9659.00,1.78
9658.00,1.78
9657.00,1.78
9656.00,1.78
9655.00,1.78
9654.00,1.78
9653.00,1.78
9652.00,1.79
9651.00,1.79
9650.00,1.79
9649.00,1.79
9648.00,1.79
9647.00,1.79
9646.00,1.80
9645.00,1.80
9644.00,1.80
9643.00,1.80
9642.00,1.80
9641.00,1.80
9640.00,1.80
9639.00,1.80
9638.00,1.80
9637.00,1.80
9636.00,1.80
9635.00,1.80
9634.00,1.80
9633.00,1.80
9632.00,1.80
9631.00,1.80
9630.00,1.80
9629.00,1.79
9628.00,1.79
9627.00,1.79
9626.00,1.79
9625.00,1.79
9624.00,1.79
9623.00,1.79
9622.00,1.79
9621.00,1.79
9620.00,1.79
9619.00,1.79
9618.00,1.79
9617.00,1.79
9616.00,1.79
9615.00,1.79
9614.00,1.79
9613.00,1.79
9612.00,1.79
9611.00,1.79
9610.00,1.79
9609.00,1.79
9608.00,1.79
9607.00,1.79
9606.00,1.79
9605.00,1.79
9604.00,1.79
9603.00,1.79
9602.00,1.79
9601.00,1.79
9600.00,1.79
9599.00,1.79
9598.00,1.79
9597.00,1.79
9596.00,1.79
9595.00,1.78
9594.00,1.78
9593.00,1.78
9592.00,1.78
9591.00,1.78
9590.00,1.77
9589.00,1.77
9588.00,1.77
9587.00,1.77
9586.00,1.77
9585.00,1.77
9584.00,1.77
9583.00,1.77
9582.00,1.77
9581.00,1.78
9580.00,1.78
9579.00,1.78
9578.00,1.78
9577.00,1.78
9576.00,1.79
9575.00,1.79
9574.00,1.79
9573.00,1.79
9572.00,1.80
9571.00,1.80
9570.00,1.80
9569.00,1.80
9568.00,1.80
9567.00,1.80
9566.00,1.81
9565.00,1.81
9564.00,1.81
9563.00,1.81
9562.00,1.81
9561.00,1.81
9560.00,1.81
9559.00,1.81
9558.00,1.81
9557.00,1.80
9556.00,1.80
9555.00,1.80
9554.00,1.80
9553.00,1.80
9552.00,1.80
9551.00,1.80
9550.00,1.80
9549.00,1.80
9548.00,1.80
9547.00,1.80
9546.00,1.80
9545.00,1.80
9544.00,1.80
9543.00,1.80
9542.00,1.80
9541.00,1.80
9540.00,1.80
9539.00,1.80
9538.00,1.80
9537.00,1.80
9536.00,1.80
9535.00,1.80
9534.00,1.80
9533.00,1.80
9532.00,1.80
9531.00,1.80
9530.00,1.80
9529.00,1.80
9528.00,1.81
9527.00,1.81
9526.00,1.81
9525.00,1.81
9524.00,1.81
9523.00,1.81
9522.00,1.81
9521.00,1.81
9520.00,1.82
9519.00,1.82
9518.00,1.82
9517.00,1.82
9516.00,1.82
9515.00,1.82
9514.00,1.82
9513.00,1.82
9512.00,1.82
9511.00,1.82
9510.00,1.82
9509.00,1.82
9508.00,1.82
9507.00,1.82
9506.00,1.82
9505.00,1.82
9504.00,1.82
9503.00,1.81
9502.00,1.81
9501.00,1.81
9500.00,1.81
9499.00,1.81
9498.00,1.81
9497.00,1.81
9496.00,1.80
9495.00,1.80
9494.00,1.80
9493.00,1.80
9492.00,1.80
9491.00,1.80
9490.00,1.80
9489.00,1.81
9488.00,1.81
9487.00,1.81
9486.00,1.81
9485.00,1.81
9484.00,1.81
9483.00,1.81
9482.00,1.81
9481.00,1.81
9480.00,1.81
9479.00,1.81
9478.00,1.81
9477.00,1.81
9476.00,1.80
9475.00,1.80
9474.00,1.80
9473.00,1.80
9472.00,1.80
9471.00,1.79
9470.00,1.79
9469.00,1.79
9468.00,1.79
9467.00,1.79
9466.00,1.78
9465.00,1.78
9464.00,1.78
9463.00,1.78
9462.00,1.78
9461.00,1.78
9460.00,1.77
9459.00,1.77
9458.00,1.77
9457.00,1.77
9456.00,1.77
9455.00,1.77
9454.00,1.77
9453.00,1.78
9452.00,1.78
9451.00,1.78
9450.00,1.78
9449.00,1.78
9448.00,1.78
9447.00,1.79
9446.00,1.79
9445.00,1.79
9444.00,1.79
9443.00,1.79
9442.00,1.79
9441.00,1.79
9440.00,1.79
9439.00,1.79
9438.00,1.79
9437.00,1.79
9436.00,1.79
9435.00,1.79
9434.00,1.79
9433.00,1.79
9432.00,1.79
9431.00,1.79
9430.00,1.79
9429.00,1.79
9428.00,1.79
9427.00,1.79
9426.00,1.79
9425.00,1.79
9424.00,1.79
9423.00,1.79
9422.00,1.79
9421.00,1.79
9420.00,1.79
9419.00,1.79
9418.00,1.79
9417.00,1.79
9416.00,1.79
9415.00,1.79
9414.00,1.79
9413.00,1.79
9412.00,1.79
9411.00,1.79
9410.00,1.79
9409.00,1.79
9408.00,1.79
9407.00,1.79
9406.00,1.79
9405.00,1.79
9404.00,1.79
9403.00,1.79
9402.00,1.79
9401.00,1.79
9400.00,1.79
9399.00,1.79
9398.00,1.79
9397.00,1.79
9396.00,1.79
9395.00,1.79
9394.00,1.79
9393.00,1.79
9392.00,1.79
9391.00,1.79
9390.00,1.79
9389.00,1.79
9388.00,1.79
9387.00,1.79
9386.00,1.79
9385.00,1.80
9384.00,1.80
9383.00,1.80
9382.00,1.80
9381.00,1.80
9380.00,1.81
9379.00,1.81
9378.00,1.81
9377.00,1.81
9376.00,1.81
9375.00,1.82
9374.00,1.82
9373.00,1.82
9372.00,1.82
9371.00,1.82
9370.00,1.82
9369.00,1.82
9368.00,1.82
9367.00,1.82
9366.00,1.82
9365.00,1.81
9364.00,1.81
9363.00,1.81
9362.00,1.81
9361.00,1.80
9360.00,1.80
9359.00,1.80
9358.00,1.79
9357.00,1.79
9356.00,1.79
9355.00,1.78
9354.00,1.78
9353.00,1.78
9352.00,1.78
9351.00,1.77
9350.00,1.77
9349.00,1.77
9348.00,1.77
9347.00,1.77
9346.00,1.77
9345.00,1.77
9344.00,1.77
9343.00,1.78
9342.00,1.78
9341.00,1.78
9340.00,1.78
9339.00,1.78
9338.00,1.78
9337.00,1.78
9336.00,1.79
9335.00,1.79
9334.00,1.79
9333.00,1.79
9332.00,1.79
9331.00,1.79
9330.00,1.79
9329.00,1.79
9328.00,1.79
9327.00,1.79
9326.00,1.79
9325.00,1.79
9324.00,1.79
9323.00,1.79
9322.00,1.79
9321.00,1.79
9320.00,1.79
9319.00,1.79
9318.00,1.79
9317.00,1.79
9316.00,1.79
9315.00,1.79
9314.00,1.79
9313.00,1.79
9312.00,1.78
9311.00,1.78
9310.00,1.78
9309.00,1.78
9308.00,1.78
9307.00,1.78
9306.00,1.78
9305.00,1.78
9304.00,1.78
9303.00,1.79
9302.00,1.79
9301.00,1.79
9300.00,1.79
9299.00,1.79
9298.00,1.80
9297.00,1.80
9296.00,1.80
9295.00,1.80
9294.00,1.80
9293.00,1.81
9292.00,1.81
9291.00,1.81
9290.00,1.81
9289.00,1.81
9288.00,1.81
9287.00,1.81
9286.00,1.80
9285.00,1.80
9284.00,1.80
9283.00,1.80
9282.00,1.80
9281.00,1.80
9280.00,1.80
9279.00,1.80
9278.00,1.80
9277.00,1.80
9276.00,1.80
9275.00,1.80
9274.00,1.80
9273.00,1.80
9272.00,1.81
9271.00,1.81
9270.00,1.81
9269.00,1.81
9268.00,1.81
9267.00,1.81
9266.00,1.82
9265.00,1.82
9264.00,1.82
9263.00,1.82
9262.00,1.82
9261.00,1.82
9260.00,1.81
9259.00,1.81
9258.00,1.81
9257.00,1.81
9256.00,1.81
9255.00,1.81
9254.00,1.81
9253.00,1.81
9252.00,1.80
9251.00,1.80
9250.00,1.80
9249.00,1.80
9248.00,1.80
9247.00,1.80
9246.00,1.80
9245.00,1.80
9244.00,1.80
9243.00,1.80
9242.00,1.80
9241.00,1.80
9240.00,1.80
9239.00,1.80
9238.00,1.80
9237.00,1.80
9236.00,1.80
9235.00,1.80
9234.00,1.80
9233.00,1.80
9232.00,1.80
9231.00,1.80
9230.00,1.80
9229.00,1.80
9228.00,1.80
9227.00,1.81
9226.00,1.81
9225.00,1.81
9224.00,1.81
9223.00,1.81
9222.00,1.81
9221.00,1.81
9220.00,1.81
9219.00,1.81
9218.00,1.81
9217.00,1.81
9216.00,1.80
9215.00,1.80
9214.00,1.80
9213.00,1.80
9212.00,1.80
9211.00,1.80
9210.00,1.79
9209.00,1.79
9208.00,1.79
9207.00,1.79
9206.00,1.78
9205.00,1.78
9204.00,1.78
9203.00,1.78
9202.00,1.78
9201.00,1.78
9200.00,1.78
9199.00,1.78
9198.00,1.78
9197.00,1.78
9196.00,1.78
9195.00,1.79
9194.00,1.79
9193.00,1.79
9192.00,1.79
9191.00,1.79
9190.00,1.79
9189.00,1.80
9188.00,1.80
9187.00,1.80
9186.00,1.80
9185.00,1.80
9184.00,1.80
9183.00,1.80
9182.00,1.80
9181.00,1.80
9180.00,1.81
9179.00,1.81
9178.00,1.81
9177.00,1.81
9176.00,1.81
9175.00,1.81
9174.00,1.81
9173.00,1.81
9172.00,1.81
9171.00,1.81
9170.00,1.81
9169.00,1.81
9168.00,1.82
9167.00,1.82
9166.00,1.82
9165.00,1.82
9164.00,1.82
9163.00,1.82
9162.00,1.82
9161.00,1.82
9160.00,1.82
9159.00,1.82
9158.00,1.81
9157.00,1.81
9156.00,1.81
9155.00,1.81
9154.00,1.81
9153.00,1.81
9152.00,1.81
9151.00,1.81
9150.00,1.81
9149.00,1.81
9148.00,1.81
9147.00,1.81
9146.00,1.81
9145.00,1.81
9144.00,1.81
9143.00,1.81
9142.00,1.81
9141.00,1.81
9140.00,1.81
9139.00,1.82
9138.00,1.82
9137.00,1.82
9136.00,1.82
9135.00,1.82
9134.00,1.82
9133.00,1.82
9132.00,1.82
9131.00,1.82
9130.00,1.81
9129.00,1.81
9128.00,1.81
9127.00,1.81
9126.00,1.81
9125.00,1.81
9124.00,1.81
9123.00,1.80
9122.00,1.80
9121.00,1.80
9120.00,1.80
9119.00,1.80
9118.00,1.80
9117.00,1.80
9116.00,1.80
9115.00,1.80
9114.00,1.80
9113.00,1.80
9112.00,1.80
9111.00,1.80
9110.00,1.80
9109.00,1.80
9108.00,1.80
9107.00,1.80
9106.00,1.80
9105.00,1.80
9104.00,1.80
9103.00,1.80
9102.00,1.80
9101.00,1.80
9100.00,1.80
9099.00,1.80
9098.00,1.80
9097.00,1.80
9096.00,1.80
9095.00,1.80
9094.00,1.80
9093.00,1.79
9092.00,1.79
9091.00,1.79
9090.00,1.79
9089.00,1.79
9088.00,1.79
9087.00,1.79
9086.00,1.79
9085.00,1.79
9084.00,1.79
9083.00,1.79
9082.00,1.79
9081.00,1.79
9080.00,1.79
9079.00,1.79
9078.00,1.79
9077.00,1.79
9076.00,1.79
9075.00,1.79
9074.00,1.79
9073.00,1.79
9072.00,1.79
9071.00,1.79
9070.00,1.79
9069.00,1.79
9068.00,1.79
9067.00,1.80
9066.00,1.80
9065.00,1.80
9064.00,1.80
9063.00,1.81
9062.00,1.81
9061.00,1.81
9060.00,1.81
9059.00,1.81
9058.00,1.82
9057.00,1.82
9056.00,1.82
9055.00,1.82
9054.00,1.82
9053.00,1.82
9052.00,1.82
9051.00,1.82
9050.00,1.82
9049.00,1.82
9048.00,1.82
9047.00,1.82
9046.00,1.82
9045.00,1.82
9044.00,1.82
9043.00,1.82
9042.00,1.82
9041.00,1.82
9040.00,1.82
9039.00,1.82
9038.00,1.82
9037.00,1.82
9036.00,1.82
9035.00,1.81
9034.00,1.81
9033.00,1.81
9032.00,1.81
9031.00,1.81
9030.00,1.81
9029.00,1.81
9028.00,1.81
9027.00,1.81
9026.00,1.81
9025.00,1.81
9024.00,1.81
9023.00,1.81
9022.00,1.81
9021.00,1.81
9020.00,1.81
9019.00,1.81
9018.00,1.81
9017.00,1.81
9016.00,1.81
9015.00,1.81
9014.00,1.81
9013.00,1.81
9012.00,1.81
9011.00,1.81
9010.00,1.81
9009.00,1.81
9008.00,1.81
9007.00,1.81
9006.00,1.81
9005.00,1.81
9004.00,1.81
9003.00,1.81
9002.00,1.80
9001.00,1.80
9000.00,1.80
8999.00,1.80
8998.00,1.80
8997.00,1.80
8996.00,1.80
8995.00,1.80
8994.00,1.80
8993.00,1.80
8992.00,1.80
8991.00,1.80
8990.00,1.80
8989.00,1.80
8988.00,1.80
8987.00,1.80
8986.00,1.80
8985.00,1.80
8984.00,1.80
8983.00,1.80
8982.00,1.80
8981.00,1.80
8980.00,1.80
8979.00,1.80
8978.00,1.80
8977.00,1.80
8976.00,1.80
8975.00,1.80
8974.00,1.80
8973.00,1.80
8972.00,1.80
8971.00,1.80
8970.00,1.80
8969.00,1.80
8968.00,1.80
8967.00,1.80
8966.00,1.80
8965.00,1.80
8964.00,1.80
8963.00,1.80
8962.00,1.80
8961.00,1.80
8960.00,1.80
8959.00,1.80
8958.00,1.80
8957.00,1.80
8956.00,1.81
8955.00,1.81
8954.00,1.81
8953.00,1.81
8952.00,1.81
8951.00,1.81
8950.00,1.81
8949.00,1.81
8948.00,1.81
8947.00,1.81
8946.00,1.81
8945.00,1.81
8944.00,1.81
8943.00,1.81
8942.00,1.81
8941.00,1.81
8940.00,1.81
8939.00,1.81
8938.00,1.81
8937.00,1.81
8936.00,1.81
8935.00,1.81
8934.00,1.81
8933.00,1.81
8932.00,1.81
8931.00,1.81
8930.00,1.81
8929.00,1.81
8928.00,1.81
8927.00,1.80
8926.00,1.80
8925.00,1.80
8924.00,1.80
8923.00,1.80
8922.00,1.80
8921.00,1.79
8920.00,1.79
8919.00,1.79
8918.00,1.79
8917.00,1.79
8916.00,1.79
8915.00,1.79
8914.00,1.79
8913.00,1.79
8912.00,1.79
8911.00,1.79
8910.00,1.79
8909.00,1.79
8908.00,1.79
8907.00,1.79
8906.00,1.79
8905.00,1.79
8904.00,1.79
8903.00,1.80
8902.00,1.80
8901.00,1.80
8900.00,1.80
8899.00,1.80
8898.00,1.80
8897.00,1.80
8896.00,1.80
8895.00,1.80
8894.00,1.80
8893.00,1.80
8892.00,1.80
8891.00,1.80
8890.00,1.80
8889.00,1.80
8888.00,1.80
8887.00,1.80
8886.00,1.80
8885.00,1.81
8884.00,1.81
8883.00,1.81
8882.00,1.81
8881.00,1.81
8880.00,1.81
8879.00,1.81
8878.00,1.81
8877.00,1.81
8876.00,1.81
8875.00,1.81
8874.00,1.81
8873.00,1.81
8872.00,1.81
8871.00,1.81
8870.00,1.81
8869.00,1.81
8868.00,1.81
8867.00,1.81
8866.00,1.81
8865.00,1.81
8864.00,1.81
8863.00,1.81
8862.00,1.81
8861.00,1.81
8860.00,1.80
8859.00,1.80
8858.00,1.80
8857.00,1.80
8856.00,1.80
8855.00,1.80
8854.00,1.80
8853.00,1.80
8852.00,1.80
8851.00,1.80
8850.00,1.80
8849.00,1.80
8848.00,1.80
8847.00,1.80
8846.00,1.80
8845.00,1.79
8844.00,1.79
8843.00,1.79
8842.00,1.79
8841.00,1.79
8840.00,1.79
8839.00,1.79
8838.00,1.79
8837.00,1.79
8836.00,1.79
8835.00,1.79
8834.00,1.79
8833.00,1.79
8832.00,1.79
8831.00,1.79
8830.00,1.78
8829.00,1.78
8828.00,1.78
8827.00,1.78
8826.00,1.78
8825.00,1.78
8824.00,1.78
8823.00,1.78
8822.00,1.79
8821.00,1.79
8820.00,1.79
8819.00,1.79
8818.00,1.79
8817.00,1.79
8816.00,1.79
8815.00,1.79
8814.00,1.79
8813.00,1.79
8812.00,1.79
8811.00,1.79
8810.00,1.79
8809.00,1.79
8808.00,1.79
8807.00,1.78
8806.00,1.78
8805.00,1.78
8804.00,1.78
8803.00,1.78
8802.00,1.78
8801.00,1.78
8800.00,1.78
8799.00,1.78
8798.00,1.78
8797.00,1.78
8796.00,1.78
8795.00,1.78
8794.00,1.78
8793.00,1.78
8792.00,1.77
8791.00,1.77
8790.00,1.77
8789.00,1.77
8788.00,1.77
8787.00,1.76
8786.00,1.76
8785.00,1.76
8784.00,1.76
8783.00,1.76
8782.00,1.75
8781.00,1.75
8780.00,1.75
8779.00,1.75
8778.00,1.75
8777.00,1.75
8776.00,1.75
8775.00,1.75
8774.00,1.75
8773.00,1.75
8772.00,1.75
8771.00,1.75
8770.00,1.75
8769.00,1.75
8768.00,1.75
8767.00,1.75
8766.00,1.75
8765.00,1.75
8764.00,1.75
8763.00,1.75
8762.00,1.75
8761.00,1.75
8760.00,1.75
8759.00,1.76
8758.00,1.76
8757.00,1.76
8756.00,1.76
8755.00,1.76
8754.00,1.76
8753.00,1.76
8752.00,1.76
8751.00,1.76
8750.00,1.76
8749.00,1.76
8748.00,1.76
8747.00,1.76
8746.00,1.76
8745.00,1.76
8744.00,1.76
8743.00,1.76
8742.00,1.76
8741.00,1.76
8740.00,1.76
8739.00,1.76
8738.00,1.76
8737.00,1.76
8736.00,1.75
8735.00,1.75
8734.00,1.75
8733.00,1.75
8732.00,1.75
8731.00,1.75
8730.00,1.75
8729.00,1.74
8728.00,1.74
8727.00,1.74
8726.00,1.74
8725.00,1.74
8724.00,1.74
8723.00,1.74
8722.00,1.74
8721.00,1.74
8720.00,1.74
8719.00,1.74
8718.00,1.74
8717.00,1.74
8716.00,1.74
8715.00,1.74
8714.00,1.74
8713.00,1.74
8712.00,1.74
8711.00,1.74
8710.00,1.74
8709.00,1.74
8708.00,1.74
8707.00,1.74
8706.00,1.74
8705.00,1.74
8704.00,1.74
8703.00,1.74
8702.00,1.74
8701.00,1.73
8700.00,1.73
8699.00,1.73
8698.00,1.73
8697.00,1.73
8696.00,1.73
8695.00,1.73
8694.00,1.73
8693.00,1.73
8692.00,1.73
8691.00,1.73
8690.00,1.73
8689.00,1.72
8688.00,1.72
8687.00,1.72
8686.00,1.72
8685.00,1.72
8684.00,1.72
8683.00,1.72
8682.00,1.72
8681.00,1.72
8680.00,1.72
8679.00,1.72
8678.00,1.73
8677.00,1.73
8676.00,1.73
8675.00,1.73
8674.00,1.73
8673.00,1.73
8672.00,1.73
8671.00,1.73
8670.00,1.74
8669.00,1.74
8668.00,1.74
8667.00,1.74
8666.00,1.74
8665.00,1.74
8664.00,1.74
8663.00,1.74
8662.00,1.74
8661.00,1.74
8660.00,1.74
8659.00,1.74
8658.00,1.74
8657.00,1.74
8656.00,1.74
8655.00,1.73
8654.00,1.73
8653.00,1.73
8652.00,1.73
8651.00,1.73
8650.00,1.73
8649.00,1.73
8648.00,1.73
8647.00,1.73
8646.00,1.73
8645.00,1.73
8644.00,1.73
8643.00,1.73
8642.00,1.72
8641.00,1.72
8640.00,1.72
8639.00,1.72
8638.00,1.72
8637.00,1.72
8636.00,1.72
8635.00,1.71
8634.00,1.71
8633.00,1.71
8632.00,1.71
8631.00,1.71
8630.00,1.71
8629.00,1.70
8628.00,1.70
8627.00,1.70
8626.00,1.70
8625.00,1.70
8624.00,1.70
8623.00,1.70
8622.00,1.70
8621.00,1.70
8620.00,1.70
8619.00,1.70
8618.00,1.70
8617.00,1.70
8616.00,1.70
8615.00,1.70
8614.00,1.70
8613.00,1.70
8612.00,1.70
8611.00,1.70
8610.00,1.70
8609.00,1.70
8608.00,1.70
8607.00,1.70
8606.00,1.70
8605.00,1.70
8604.00,1.69
8603.00,1.69
8602.00,1.69
8601.00,1.69
8600.00,1.69
8599.00,1.69
8598.00,1.69
8597.00,1.69
8596.00,1.69
8595.00,1.69
8594.00,1.69
8593.00,1.69
8592.00,1.69
8591.00,1.69
8590.00,1.69
8589.00,1.69
8588.00,1.69
8587.00,1.69
8586.00,1.69
8585.00,1.69
8584.00,1.70
8583.00,1.70
8582.00,1.70
8581.00,1.70
8580.00,1.70
8579.00,1.70
8578.00,1.70
8577.00,1.70
8576.00,1.69
8575.00,1.69
8574.00,1.69
8573.00,1.69
8572.00,1.69
8571.00,1.69
8570.00,1.69
8569.00,1.69
8568.00,1.69
8567.00,1.68
8566.00,1.68
8565.00,1.68
8564.00,1.68
8563.00,1.68
8562.00,1.68
8561.00,1.68
8560.00,1.67
8559.00,1.67
8558.00,1.67
8557.00,1.67
8556.00,1.67
8555.00,1.67
8554.00,1.67
8553.00,1.67
8552.00,1.66
8551.00,1.66
8550.00,1.67
8549.00,1.67
8548.00,1.67
8547.00,1.67
8546.00,1.67
8545.00,1.67
8544.00,1.67
8543.00,1.68
8542.00,1.68
8541.00,1.68
8540.00,1.68
8539.00,1.68
8538.00,1.69
8537.00,1.69
8536.00,1.69
8535.00,1.69
8534.00,1.69
8533.00,1.69
8532.00,1.69
8531.00,1.69
8530.00,1.69
8529.00,1.69
8528.00,1.69
8527.00,1.69
8526.00,1.69
8525.00,1.69
8524.00,1.68
8523.00,1.68
8522.00,1.68
8521.00,1.68
8520.00,1.68
8519.00,1.67
8518.00,1.67
8517.00,1.67
8516.00,1.67
8515.00,1.67
8514.00,1.67
8513.00,1.67
8512.00,1.67
8511.00,1.67
8510.00,1.67
8509.00,1.67
8508.00,1.67
8507.00,1.66
8506.00,1.66
8505.00,1.66
8504.00,1.66
8503.00,1.66
8502.00,1.66
8501.00,1.66
8500.00,1.66
8499.00,1.66
8498.00,1.66
8497.00,1.66
8496.00,1.66
8495.00,1.66
8494.00,1.66
8493.00,1.66
8492.00,1.66
8491.00,1.65
8490.00,1.65
8489.00,1.65
8488.00,1.65
8487.00,1.65
8486.00,1.65
8485.00,1.65
8484.00,1.65
8483.00,1.65
8482.00,1.64
8481.00,1.64
8480.00,1.64
8479.00,1.64
8478.00,1.64
8477.00,1.63
8476.00,1.63
8475.00,1.63
8474.00,1.63
8473.00,1.63
8472.00,1.63
8471.00,1.63
8470.00,1.62
8469.00,1.62
8468.00,1.62
8467.00,1.62
8466.00,1.62
8465.00,1.62
8464.00,1.62
8463.00,1.62
8462.00,1.62
8461.00,1.62
8460.00,1.62
8459.00,1.62
8458.00,1.63
8457.00,1.63
8456.00,1.63
8455.00,1.63
8454.00,1.63
8453.00,1.63
8452.00,1.63
8451.00,1.63
8450.00,1.63
8449.00,1.63
8448.00,1.63
8447.00,1.63
8446.00,1.63
8445.00,1.63
8444.00,1.63
8443.00,1.63
8442.00,1.63
8441.00,1.63
8440.00,1.63
8439.00,1.63
8438.00,1.63
8437.00,1.63
8436.00,1.64
8435.00,1.64
8434.00,1.64
8433.00,1.64
8432.00,1.64
8431.00,1.64
8430.00,1.64
8429.00,1.64
8428.00,1.64
8427.00,1.64
8426.00,1.64
8425.00,1.64
8424.00,1.64
8423.00,1.65
8422.00,1.65
8421.00,1.65
8420.00,1.65
8419.00,1.65
8418.00,1.65
8417.00,1.65
8416.00,1.65
8415.00,1.65
8414.00,1.65
8413.00,1.65
8412.00,1.65
8411.00,1.65
8410.00,1.65
8409.00,1.65
8408.00,1.65
8407.00,1.65
8406.00,1.65
8405.00,1.65
8404.00,1.65
8403.00,1.65
8402.00,1.65
8401.00,1.65
8400.00,1.65
8399.00,1.65
8398.00,1.65
8397.00,1.65
8396.00,1.66
8395.00,1.66
8394.00,1.66
8393.00,1.66
8392.00,1.66
8391.00,1.66
8390.00,1.66
8389.00,1.66
8388.00,1.66
8387.00,1.66
8386.00,1.66
8385.00,1.66
8384.00,1.65
8383.00,1.65
8382.00,1.65
8381.00,1.65
8380.00,1.65
8379.00,1.65
8378.00,1.65
8377.00,1.64
8376.00,1.64
8375.00,1.64
8374.00,1.64
8373.00,1.64
8372.00,1.64
8371.00,1.64
8370.00,1.64
8369.00,1.65
8368.00,1.65
8367.00,1.65
8366.00,1.65
8365.00,1.65
8364.00,1.65
8363.00,1.66
8362.00,1.66
8361.00,1.66
8360.00,1.66
8359.00,1.66
8358.00,1.66
8357.00,1.67
8356.00,1.67
8355.00,1.67
8354.00,1.67
8353.00,1.67
8352.00,1.67
8351.00,1.67
8350.00,1.67
8349.00,1.68
8348.00,1.68
8347.00,1.68
8346.00,1.68
8345.00,1.68
8344.00,1.68
8343.00,1.68
8342.00,1.68
8341.00,1.68
8340.00,1.68
8339.00,1.67
8338.00,1.67
8337.00,1.67
8336.00,1.67
8335.00,1.67
8334.00,1.67
8333.00,1.67
8332.00,1.67
8331.00,1.67
8330.00,1.67
8329.00,1.67
8328.00,1.67
8327.00,1.67
8326.00,1.67
8325.00,1.67
8324.00,1.67
8323.00,1.67
8322.00,1.67
8321.00,1.66
8320.00,1.66
8319.00,1.66
8318.00,1.66
8317.00,1.66
8316.00,1.66
8315.00,1.66
8314.00,1.66
8313.00,1.66
8312.00,1.66
8311.00,1.66
8310.00,1.66
8309.00,1.66
8308.00,1.67
8307.00,1.67
8306.00,1.67
8305.00,1.67
8304.00,1.67
8303.00,1.67
8302.00,1.67
8301.00,1.67
8300.00,1.67
8299.00,1.67
8298.00,1.67
8297.00,1.67
8296.00,1.67
8295.00,1.67
8294.00,1.68
8293.00,1.68
8292.00,1.68
8291.00,1.68
8290.00,1.68
8289.00,1.68
8288.00,1.68
8287.00,1.68
8286.00,1.68
8285.00,1.68
8284.00,1.69
8283.00,1.69
8282.00,1.69
8281.00,1.69
8280.00,1.69
8279.00,1.69
8278.00,1.69
8277.00,1.69
8276.00,1.69
8275.00,1.69
8274.00,1.69
8273.00,1.69
8272.00,1.69
8271.00,1.69
8270.00,1.69
8269.00,1.69
8268.00,1.69
8267.00,1.69
8266.00,1.69
8265.00,1.69
8264.00,1.69
8263.00,1.69
8262.00,1.69
8261.00,1.69
8260.00,1.70
8259.00,1.70
8258.00,1.70
8257.00,1.70
8256.00,1.70
8255.00,1.70
8254.00,1.70
8253.00,1.70
8252.00,1.70
8251.00,1.70
8250.00,1.70
8249.00,1.69
8248.00,1.69
8247.00,1.69
8246.00,1.69
8245.00,1.69
8244.00,1.69
8243.00,1.69
8242.00,1.69
8241.00,1.69
8240.00,1.69
8239.00,1.69
8238.00,1.69
8237.00,1.69
8236.00,1.69
8235.00,1.69
8234.00,1.69
8233.00,1.69
8232.00,1.69
8231.00,1.70
8230.00,1.70
8229.00,1.70
8228.00,1.70
8227.00,1.70
8226.00,1.70
8225.00,1.70
8224.00,1.70
8223.00,1.70
8222.00,1.70
8221.00,1.70
8220.00,1.70
8219.00,1.70
8218.00,1.70
8217.00,1.70
8216.00,1.71
8215.00,1.71
8214.00,1.71
8213.00,1.71
8212.00,1.71
8211.00,1.71
8210.00,1.71
8209.00,1.71
8208.00,1.71
8207.00,1.71
8206.00,1.71
8205.00,1.71
8204.00,1.71
8203.00,1.71
8202.00,1.71
8201.00,1.71
8200.00,1.71
8199.00,1.71
8198.00,1.71
8197.00,1.71
8196.00,1.71
8195.00,1.71
8194.00,1.71
8193.00,1.71
8192.00,1.71
8191.00,1.71
8190.00,1.71
8189.00,1.72
8188.00,1.72
8187.00,1.72
8186.00,1.72
8185.00,1.72
8184.00,1.72
8183.00,1.72
8182.00,1.72
8181.00,1.72
8180.00,1.72
8179.00,1.72
8178.00,1.72
8177.00,1.72
8176.00,1.72
8175.00,1.72
8174.00,1.72
8173.00,1.72
8172.00,1.72
8171.00,1.71
8170.00,1.71
8169.00,1.71
8168.00,1.71
8167.00,1.71
8166.00,1.71
8165.00,1.71
8164.00,1.71
8163.00,1.71
8162.00,1.71
8161.00,1.71
8160.00,1.71
8159.00,1.71
8158.00,1.71
8157.00,1.71
8156.00,1.71
8155.00,1.71
8154.00,1.72
8153.00,1.72
8152.00,1.72
8151.00,1.72
8150.00,1.72
8149.00,1.72
8148.00,1.72
8147.00,1.73
8146.00,1.73
8145.00,1.73
8144.00,1.73
8143.00,1.73
8142.00,1.73
8141.00,1.73
8140.00,1.74
8139.00,1.74
8138.00,1.74
8137.00,1.74
8136.00,1.74
8135.00,1.74
8134.00,1.74
8133.00,1.74
8132.00,1.74
8131.00,1.74
8130.00,1.74
8129.00,1.74
8128.00,1.74
8127.00,1.74
8126.00,1.74
8125.00,1.74
8124.00,1.74
8123.00,1.73
8122.00,1.73
8121.00,1.73
8120.00,1.73
8119.00,1.73
8118.00,1.73
8117.00,1.73
8116.00,1.73
8115.00,1.73
8114.00,1.73
8113.00,1.73
8112.00,1.73
8111.00,1.73
8110.00,1.73
8109.00,1.73
8108.00,1.73
8107.00,1.73
8106.00,1.73
8105.00,1.73
8104.00,1.73
8103.00,1.74
8102.00,1.74
8101.00,1.74
8100.00,1.74
8099.00,1.74
8098.00,1.74
8097.00,1.74
8096.00,1.74
8095.00,1.74
8094.00,1.74
8093.00,1.74
8092.00,1.75
8091.00,1.75
8090.00,1.75
8089.00,1.75
8088.00,1.75
8087.00,1.75
8086.00,1.75
8085.00,1.75
8084.00,1.75
8083.00,1.75
8082.00,1.75
8081.00,1.75
8080.00,1.75
8079.00,1.75
8078.00,1.75
8077.00,1.75
8076.00,1.75
8075.00,1.75
8074.00,1.75
8073.00,1.75
8072.00,1.75
8071.00,1.76
8070.00,1.76
8069.00,1.76
8068.00,1.76
8067.00,1.76
8066.00,1.76
8065.00,1.76
8064.00,1.76
8063.00,1.76
8062.00,1.76
8061.00,1.76
8060.00,1.76
8059.00,1.76
8058.00,1.76
8057.00,1.76
8056.00,1.77
8055.00,1.77
8054.00,1.77
8053.00,1.77
8052.00,1.77
8051.00,1.77
8050.00,1.77
8049.00,1.77
8048.00,1.77
8047.00,1.77
8046.00,1.77
8045.00,1.77
8044.00,1.77
8043.00,1.77
8042.00,1.77
8041.00,1.77
8040.00,1.77
8039.00,1.77
8038.00,1.77
8037.00,1.77
8036.00,1.77
8035.00,1.77
8034.00,1.77
8033.00,1.77
8032.00,1.77
8031.00,1.77
8030.00,1.77
8029.00,1.77
8028.00,1.77
8027.00,1.77
8026.00,1.77
8025.00,1.77
8024.00,1.77
8023.00,1.77
8022.00,1.77
8021.00,1.77
8020.00,1.77
8019.00,1.77
8018.00,1.77
8017.00,1.77
8016.00,1.77
8015.00,1.77
8014.00,1.77
8013.00,1.77
8012.00,1.77
8011.00,1.77
8010.00,1.78
8009.00,1.78
8008.00,1.78
8007.00,1.78
8006.00,1.78
8005.00,1.78
8004.00,1.78
8003.00,1.78
8002.00,1.78
8001.00,1.78
8000.00,1.78
7999.00,1.78
7998.00,1.78
7997.00,1.78
7996.00,1.77
7995.00,1.77
7994.00,1.77
7993.00,1.77
7992.00,1.77
7991.00,1.77
7990.00,1.77
7989.00,1.77
7988.00,1.77
7987.00,1.77
7986.00,1.77
7985.00,1.78
7984.00,1.78
7983.00,1.78
7982.00,1.78
7981.00,1.78
7980.00,1.78
7979.00,1.78
7978.00,1.78
7977.00,1.78
7976.00,1.78
7975.00,1.78
7974.00,1.78
7973.00,1.78
7972.00,1.78
7971.00,1.78
7970.00,1.78
7969.00,1.78
7968.00,1.78
7967.00,1.78
7966.00,1.78
7965.00,1.78
7964.00,1.78
7963.00,1.77
7962.00,1.77
7961.00,1.77
7960.00,1.77
7959.00,1.77
7958.00,1.77
7957.00,1.77
7956.00,1.77
7955.00,1.77
7954.00,1.77
7953.00,1.77
7952.00,1.77
7951.00,1.77
7950.00,1.77
7949.00,1.77
7948.00,1.77
7947.00,1.77
7946.00,1.77
7945.00,1.77
7944.00,1.77
7943.00,1.77
7942.00,1.77
7941.00,1.78
7940.00,1.78
7939.00,1.78
7938.00,1.78
7937.00,1.78
7936.00,1.78
7935.00,1.78
7934.00,1.78
7933.00,1.79
7932.00,1.79
7931.00,1.79
7930.00,1.79
7929.00,1.79
7928.00,1.79
7927.00,1.79
7926.00,1.79
7925.00,1.79
7924.00,1.79
7923.00,1.79
7922.00,1.79
7921.00,1.79
7920.00,1.79
7919.00,1.79
7918.00,1.79
7917.00,1.79
7916.00,1.79
7915.00,1.79
7914.00,1.79
7913.00,1.79
7912.00,1.79
7911.00,1.79
7910.00,1.79
7909.00,1.79
7908.00,1.79
7907.00,1.79
7906.00,1.79
7905.00,1.79
7904.00,1.79
7903.00,1.79
7902.00,1.79
7901.00,1.79
7900.00,1.79
7899.00,1.79
7898.00,1.79
7897.00,1.79
7896.00,1.79
7895.00,1.79
7894.00,1.79
7893.00,1.79
7892.00,1.79
7891.00,1.79
7890.00,1.79
7889.00,1.79
7888.00,1.79
7887.00,1.79
7886.00,1.79
7885.00,1.79
7884.00,1.79
7883.00,1.79
7882.00,1.79
7881.00,1.79
7880.00,1.79
7879.00,1.79
7878.00,1.79
7877.00,1.79
7876.00,1.79
7875.00,1.79
7874.00,1.79
7873.00,1.79
7872.00,1.79
7871.00,1.79
7870.00,1.79
7869.00,1.79
7868.00,1.79
7867.00,1.79
7866.00,1.79
7865.00,1.79
7864.00,1.79
7863.00,1.79
7862.00,1.79
7861.00,1.79
7860.00,1.79
7859.00,1.79
7858.00,1.79
7857.00,1.79
7856.00,1.79
7855.00,1.79
7854.00,1.79
7853.00,1.79
7852.00,1.79
7851.00,1.79
7850.00,1.79
7849.00,1.79
7848.00,1.79
7847.00,1.79
7846.00,1.79
7845.00,1.79
7844.00,1.79
7843.00,1.79
7842.00,1.79
7841.00,1.79
7840.00,1.79
7839.00,1.80
7838.00,1.80
7837.00,1.80
7836.00,1.80
7835.00,1.80
7834.00,1.80
7833.00,1.80
7832.00,1.81
7831.00,1.81
7830.00,1.81
7829.00,1.81
7828.00,1.81
7827.00,1.81
7826.00,1.82
7825.00,1.82
7824.00,1.82
7823.00,1.82
7822.00,1.82
7821.00,1.82
7820.00,1.82
7819.00,1.82
7818.00,1.82
7817.00,1.82
7816.00,1.82
7815.00,1.82
7814.00,1.82
7813.00,1.82
7812.00,1.82
7811.00,1.82
7810.00,1.81
7809.00,1.81
7808.00,1.81
7807.00,1.81
7806.00,1.81
7805.00,1.81
7804.00,1.81
7803.00,1.81
7802.00,1.81
7801.00,1.81
7800.00,1.81
7799.00,1.81
7798.00,1.81
7797.00,1.81
7796.00,1.81
7795.00,1.81
7794.00,1.81
7793.00,1.81
7792.00,1.81
7791.00,1.81
7790.00,1.81
7789.00,1.81
7788.00,1.81
7787.00,1.81
7786.00,1.81
7785.00,1.81
7784.00,1.81
7783.00,1.81
7782.00,1.81
7781.00,1.81
7780.00,1.81
7779.00,1.81
7778.00,1.82
7777.00,1.82
7776.00,1.82
7775.00,1.82
7774.00,1.82
7773.00,1.82
7772.00,1.82
7771.00,1.82
7770.00,1.82
7769.00,1.82
7768.00,1.82
7767.00,1.82
7766.00,1.82
7765.00,1.82
7764.00,1.82
7763.00,1.82
7762.00,1.82
7761.00,1.82
7760.00,1.82
7759.00,1.82
7758.00,1.82
7757.00,1.82
7756.00,1.82
7755.00,1.82
7754.00,1.82
7753.00,1.82
7752.00,1.82
7751.00,1.82
7750.00,1.82
7749.00,1.82
7748.00,1.81
7747.00,1.81
7746.00,1.81
7745.00,1.81
7744.00,1.81
7743.00,1.81
7742.00,1.81
7741.00,1.81
7740.00,1.81
7739.00,1.81
7738.00,1.81
7737.00,1.81
7736.00,1.81
7735.00,1.81
7734.00,1.81
7733.00,1.81
7732.00,1.81
7731.00,1.81
7730.00,1.81
7729.00,1.81
7728.00,1.81
7727.00,1.81
7726.00,1.81
7725.00,1.82
7724.00,1.82
7723.00,1.82
7722.00,1.82
7721.00,1.82
7720.00,1.82
7719.00,1.82
7718.00,1.82
7717.00,1.82
7716.00,1.82
7715.00,1.82
7714.00,1.82
7713.00,1.82
7712.00,1.82
7711.00,1.82
7710.00,1.82
7709.00,1.82
7708.00,1.82
7707.00,1.82
7706.00,1.82
7705.00,1.82
7704.00,1.82
7703.00,1.82
7702.00,1.82
7701.00,1.82
7700.00,1.82
7699.00,1.82
7698.00,1.81
7697.00,1.81
7696.00,1.81
7695.00,1.81
7694.00,1.81
7693.00,1.81
7692.00,1.81
7691.00,1.81
7690.00,1.81
7689.00,1.81
7688.00,1.81
7687.00,1.81
7686.00,1.81
7685.00,1.81
7684.00,1.81
7683.00,1.81
7682.00,1.81
7681.00,1.81
7680.00,1.82
7679.00,1.82
7678.00,1.82
7677.00,1.82
7676.00,1.82
7675.00,1.82
7674.00,1.82
7673.00,1.82
7672.00,1.82
7671.00,1.82
7670.00,1.82
7669.00,1.82
7668.00,1.82
7667.00,1.82
7666.00,1.82
7665.00,1.82
7664.00,1.82
7663.00,1.82
7662.00,1.82
7661.00,1.82
7660.00,1.82
7659.00,1.82
7658.00,1.82
7657.00,1.82
7656.00,1.82
7655.00,1.82
7654.00,1.82
7653.00,1.82
7652.00,1.82
7651.00,1.82
7650.00,1.82
7649.00,1.82
7648.00,1.82
7647.00,1.82
7646.00,1.82
7645.00,1.82
7644.00,1.82
7643.00,1.82
7642.00,1.82
7641.00,1.82
7640.00,1.82
7639.00,1.82
7638.00,1.82
7637.00,1.82
7636.00,1.82
7635.00,1.82
7634.00,1.82
7633.00,1.82
7632.00,1.82
7631.00,1.82
7630.00,1.82
7629.00,1.82
7628.00,1.82
7627.00,1.82
7626.00,1.82
7625.00,1.82
7624.00,1.82
7623.00,1.82
7622.00,1.82
7621.00,1.82
7620.00,1.82
7619.00,1.82
7618.00,1.82
7617.00,1.82
7616.00,1.82
7615.00,1.82
7614.00,1.82
7613.00,1.82
7612.00,1.82
7611.00,1.82
7610.00,1.81
7609.00,1.81
7608.00,1.81
7607.00,1.81
7606.00,1.81
7605.00,1.81
7604.00,1.81
7603.00,1.81
7602.00,1.81
7601.00,1.81
7600.00,1.81
7599.00,1.81
7598.00,1.81
7597.00,1.81
7596.00,1.81
7595.00,1.81
7594.00,1.81
7593.00,1.81
7592.00,1.81
7591.00,1.81
7590.00,1.81
7589.00,1.81
7588.00,1.81
7587.00,1.81
7586.00,1.81
7585.00,1.81
7584.00,1.81
7583.00,1.81
7582.00,1.81
7581.00,1.81
7580.00,1.81
7579.00,1.81
7578.00,1.81
7577.00,1.81
7576.00,1.81
7575.00,1.81
7574.00,1.81
7573.00,1.81
7572.00,1.80
7571.00,1.80
7570.00,1.80
7569.00,1.80
7568.00,1.80
7567.00,1.80
7566.00,1.80
7565.00,1.80
7564.00,1.80
7563.00,1.80
7562.00,1.80
7561.00,1.80
7560.00,1.80
7559.00,1.80
7558.00,1.80
7557.00,1.80
7556.00,1.80
7555.00,1.80
7554.00,1.80
7553.00,1.80
7552.00,1.80
7551.00,1.80
7550.00,1.80
7549.00,1.80
7548.00,1.80
7547.00,1.80
7546.00,1.80
7545.00,1.80
7544.00,1.80
7543.00,1.80
7542.00,1.80
7541.00,1.80
7540.00,1.80
7539.00,1.79
7538.00,1.79
7537.00,1.79
7536.00,1.79
7535.00,1.79
7534.00,1.79
7533.00,1.79
7532.00,1.79
7531.00,1.79
7530.00,1.79
7529.00,1.79
7528.00,1.79
7527.00,1.79
7526.00,1.79
7525.00,1.79
7524.00,1.79
7523.00,1.79
7522.00,1.79
7521.00,1.78
7520.00,1.78
7519.00,1.78
7518.00,1.78
7517.00,1.79
7516.00,1.79
7515.00,1.79
7514.00,1.79
7513.00,1.79
7512.00,1.79
7511.00,1.79
7510.00,1.79
7509.00,1.78
7508.00,1.78
7507.00,1.78
7506.00,1.78
7505.00,1.78
7504.00,1.78
7503.00,1.78
7502.00,1.78
7501.00,1.78
7500.00,1.78
7499.00,1.78
7498.00,1.78
7497.00,1.78
7496.00,1.78
7495.00,1.77
7494.00,1.77
7493.00,1.77
7492.00,1.77
7491.00,1.77
7490.00,1.77
7489.00,1.77
7488.00,1.77
7487.00,1.77
7486.00,1.77
7485.00,1.77
7484.00,1.77
7483.00,1.77
7482.00,1.77
7481.00,1.77
7480.00,1.77
7479.00,1.77
7478.00,1.77
7477.00,1.77
7476.00,1.77
7475.00,1.76
7474.00,1.76
7473.00,1.76
7472.00,1.76
7471.00,1.76
7470.00,1.76
7469.00,1.76
7468.00,1.76
7467.00,1.76
7466.00,1.76
7465.00,1.76
7464.00,1.75
7463.00,1.75
7462.00,1.75
7461.00,1.75
7460.00,1.75
7459.00,1.75
7458.00,1.75
7457.00,1.74
7456.00,1.74
7455.00,1.74
7454.00,1.74
7453.00,1.74
7452.00,1.74
7451.00,1.74
7450.00,1.74
7449.00,1.74
7448.00,1.74
7447.00,1.74
7446.00,1.74
7445.00,1.74
7444.00,1.74
7443.00,1.74
7442.00,1.74
7441.00,1.74
7440.00,1.74
7439.00,1.74
7438.00,1.74
7437.00,1.74
7436.00,1.74
7435.00,1.74
7434.00,1.74
7433.00,1.73
7432.00,1.73
7431.00,1.73
7430.00,1.73
7429.00,1.73
7428.00,1.73
7427.00,1.73
7426.00,1.73
7425.00,1.73
7424.00,1.72
7423.00,1.72
7422.00,1.72
7421.00,1.72
7420.00,1.72
7419.00,1.72
7418.00,1.72
7417.00,1.72
7416.00,1.72
7415.00,1.72
7414.00,1.72
7413.00,1.72
7412.00,1.72
7411.00,1.71
7410.00,1.71
7409.00,1.71
7408.00,1.71
7407.00,1.71
7406.00,1.71
7405.00,1.71
7404.00,1.71
7403.00,1.71
7402.00,1.71
7401.00,1.71
7400.00,1.71
7399.00,1.70
7398.00,1.70
7397.00,1.70
7396.00,1.70
7395.00,1.70
7394.00,1.70
7393.00,1.70
7392.00,1.69
7391.00,1.69
7390.00,1.69
7389.00,1.69
7388.00,1.69
7387.00,1.68
7386.00,1.68
7385.00,1.68
7384.00,1.68
7383.00,1.68
7382.00,1.68
7381.00,1.68
7380.00,1.67
7379.00,1.67
7378.00,1.67
7377.00,1.67
7376.00,1.67
7375.00,1.67
7374.00,1.67
7373.00,1.67
7372.00,1.67
7371.00,1.67
7370.00,1.67
7369.00,1.67
7368.00,1.67
7367.00,1.67
7366.00,1.67
7365.00,1.67
7364.00,1.67
7363.00,1.67
7362.00,1.67
7361.00,1.67
7360.00,1.67
7359.00,1.67
7358.00,1.67
7357.00,1.67
7356.00,1.67
7355.00,1.67
7354.00,1.67
7353.00,1.67
7352.00,1.67
7351.00,1.67
7350.00,1.67
7349.00,1.66
7348.00,1.66
7347.00,1.66
7346.00,1.66
7345.00,1.66
7344.00,1.66
7343.00,1.66
7342.00,1.65
7341.00,1.65
7340.00,1.65
7339.00,1.65
7338.00,1.65
7337.00,1.65
7336.00,1.65
7335.00,1.65
7334.00,1.65
7333.00,1.65
7332.00,1.65
7331.00,1.65
7330.00,1.65
7329.00,1.65
7328.00,1.65
7327.00,1.65
7326.00,1.65
7325.00,1.65
7324.00,1.64
7323.00,1.64
7322.00,1.64
7321.00,1.64
7320.00,1.64
7319.00,1.64
7318.00,1.63
7317.00,1.63
7316.00,1.63
7315.00,1.63
7314.00,1.63
7313.00,1.63
7312.00,1.63
7311.00,1.62
7310.00,1.62
7309.00,1.62
7308.00,1.62
7307.00,1.62
7306.00,1.62
7305.00,1.62
7304.00,1.62
7303.00,1.62
7302.00,1.62
7301.00,1.62
7300.00,1.62
7299.00,1.62
7298.00,1.62
7297.00,1.62
7296.00,1.62
7295.00,1.62
7294.00,1.62
7293.00,1.62
7292.00,1.62
7291.00,1.62
7290.00,1.62
7289.00,1.61
7288.00,1.61
7287.00,1.61
7286.00,1.61
7285.00,1.61
7284.00,1.61
7283.00,1.61
7282.00,1.60
7281.00,1.60
7280.00,1.60
7279.00,1.60
7278.00,1.60
7277.00,1.60
7276.00,1.60
7275.00,1.60
7274.00,1.59
7273.00,1.59
7272.00,1.59
7271.00,1.59
7270.00,1.59
7269.00,1.59
7268.00,1.59
7267.00,1.59
7266.00,1.59
7265.00,1.59
7264.00,1.59
7263.00,1.58
7262.00,1.58
7261.00,1.58
7260.00,1.58
7259.00,1.58
7258.00,1.58
7257.00,1.57
7256.00,1.57
7255.00,1.57
7254.00,1.57
7253.00,1.56
7252.00,1.56
7251.00,1.56
7250.00,1.55
7249.00,1.55
7248.00,1.54
7247.00,1.54
7246.00,1.53
7245.00,1.53
7244.00,1.52
7243.00,1.52
7242.00,1.51
7241.00,1.51
7240.00,1.50
7239.00,1.50
7238.00,1.50
7237.00,1.49
7236.00,1.49
7235.00,1.49
7234.00,1.48
7233.00,1.48
7232.00,1.48
7231.00,1.47
7230.00,1.47
7229.00,1.47
7228.00,1.47
7227.00,1.46
7226.00,1.46
7225.00,1.46
7224.00,1.45
7223.00,1.45
7222.00,1.45
7221.00,1.44
7220.00,1.44
7219.00,1.43
7218.00,1.43
7217.00,1.42
7216.00,1.42
7215.00,1.41
7214.00,1.41
7213.00,1.40
7212.00,1.40
7211.00,1.39
7210.00,1.39
7209.00,1.38
7208.00,1.38
7207.00,1.37
7206.00,1.37
7205.00,1.36
7204.00,1.36
7203.00,1.35
7202.00,1.35
7201.00,1.35
7200.00,1.34
7199.00,1.34
7198.00,1.33
7197.00,1.33
7196.00,1.32
7195.00,1.32
7194.00,1.32
7193.00,1.31
7192.00,1.31
7191.00,1.30
7190.00,1.30
7189.00,1.29
7188.00,1.29
7187.00,1.28
7186.00,1.28
7185.00,1.27
7184.00,1.27
7183.00,1.26
7182.00,1.26
7181.00,1.25
7180.00,1.25
7179.00,1.25
7178.00,1.24
7177.00,1.24
7176.00,1.24
7175.00,1.23
7174.00,1.23
7173.00,1.23
7172.00,1.22
7171.00,1.22
7170.00,1.21
7169.00,1.21
7168.00,1.20
7167.00,1.20
7166.00,1.20
7165.00,1.19
7164.00,1.19
7163.00,1.18
7162.00,1.18
7161.00,1.17
7160.00,1.17
7159.00,1.16
7158.00,1.16
7157.00,1.16
7156.00,1.15
7155.00,1.15
7154.00,1.15
7153.00,1.14
7152.00,1.14
7151.00,1.14
7150.00,1.13
7149.00,1.13
7148.00,1.13
7147.00,1.12
7146.00,1.12
7145.00,1.11
7144.00,1.11
7143.00,1.11
7142.00,1.10
7141.00,1.10
7140.00,1.09
7139.00,1.09
7138.00,1.09
7137.00,1.08
7136.00,1.08
7135.00,1.07
7134.00,1.07
7133.00,1.07
7132.00,1.06
7131.00,1.06
7130.00,1.06
7129.00,1.05
7128.00,1.05
7127.00,1.04
7126.00,1.04
7125.00,1.04
7124.00,1.03
7123.00,1.03
7122.00,1.03
7121.00,1.02
7120.00,1.02
7119.00,1.02
7118.00,1.01
7117.00,1.01
7116.00,1.01
7115.00,1.01
7114.00,1.00
7113.00,1.00
7112.00,1.00
7111.00,1.00
7110.00,0.99
7109.00,0.99
7108.00,0.99
7107.00,0.99
7106.00,0.99
7105.00,0.99
7104.00,0.98
7103.00,0.98
7102.00,0.98
7101.00,0.98
7100.00,0.98
7099.00,0.98
7098.00,0.97
7097.00,0.97
7096.00,0.97
7095.00,0.97
7094.00,0.96
7093.00,0.96
7092.00,0.96
7091.00,0.96
7090.00,0.95
7089.00,0.95
7088.00,0.95
7087.00,0.95
7086.00,0.94
7085.00,0.94
7084.00,0.94
7083.00,0.94
7082.00,0.93
7081.00,0.93
7080.00,0.93
7079.00,0.93
7078.00,0.93
7077.00,0.92
7076.00,0.92
7075.00,0.92
7074.00,0.92
7073.00,0.92
7072.00,0.92
7071.00,0.92
7070.00,0.91
7069.00,0.91
7068.00,0.91
7067.00,0.91
7066.00,0.91
7065.00,0.91
7064.00,0.91
7063.00,0.90
7062.00,0.90
7061.00,0.90
7060.00,0.90
7059.00,0.90
7058.00,0.90
7057.00,0.89
7056.00,0.89
7055.00,0.89
7054.00,0.89
7053.00,0.89
7052.00,0.88
7051.00,0.88
7050.00,0.88
7049.00,0.88
7048.00,0.87
7047.00,0.87
7046.00,0.87
7045.00,0.87
7044.00,0.87
7043.00,0.87
7042.00,0.87
7041.00,0.86
7040.00,0.86
7039.00,0.86
7038.00,0.86
7037.00,0.86
7036.00,0.86
7035.00,0.86
7034.00,0.86
7033.00,0.86
7032.00,0.86
7031.00,0.86
7030.00,0.86
7029.00,0.86
7028.00,0.86
7027.00,0.86
7026.00,0.86
7025.00,0.86
7024.00,0.86
7023.00,0.86
7022.00,0.86
7021.00,0.86
7020.00,0.86
7019.00,0.86
7018.00,0.86
7017.00,0.86
7016.00,0.86
7015.00,0.86
7014.00,0.85
7013.00,0.85
7012.00,0.85
7011.00,0.85
7010.00,0.85
7009.00,0.85
7008.00,0.85
7007.00,0.85
7006.00,0.85
7005.00,0.85
7004.00,0.84
7003.00,0.84
7002.00,0.84
7001.00,0.84
7000.00,0.84
6999.00,0.84
6998.00,0.84
6997.00,0.84
6996.00,0.84
6995.00,0.83
6994.00,0.83
6993.00,0.83
6992.00,0.83
6991.00,0.83
6990.00,0.83
6989.00,0.83
6988.00,0.83
6987.00,0.83
6986.00,0.83
6985.00,0.83
6984.00,0.83
6983.00,0.83
6982.00,0.83
6981.00,0.83
6980.00,0.83
6979.00,0.83
6978.00,0.83
6977.00,0.83
6976.00,0.83
6975.00,0.83
6974.00,0.83
6973.00,0.83
6972.00,0.83
6971.00,0.83
6970.00,0.82
6969.00,0.82
6968.00,0.82
6967.00,0.82
6966.00,0.82
6965.00,0.82
6964.00,0.82
6963.00,0.81
6962.00,0.81
6961.00,0.81
6960.00,0.81
6959.00,0.81
6958.00,0.81
6957.00,0.81
6956.00,0.81
6955.00,0.81
6954.00,0.81
6953.00,0.81
6952.00,0.81
6951.00,0.81
6950.00,0.81
6949.00,0.81
6948.00,0.81
6947.00,0.81
6946.00,0.81
6945.00,0.81
6944.00,0.81
6943.00,0.81
6942.00,0.80
6941.00,0.80
6940.00,0.80
6939.00,0.80
6938.00,0.80
6937.00,0.80
6936.00,0.80
6935.00,0.80
6934.00,0.80
6933.00,0.80
6932.00,0.80
6931.00,0.80
6930.00,0.80
6929.00,0.80
6928.00,0.80
6927.00,0.80
6926.00,0.80
6925.00,0.80
6924.00,0.80
6923.00,0.80
6922.00,0.80
6921.00,0.80
6920.00,0.80
6919.00,0.80
6918.00,0.80
6917.00,0.80
6916.00,0.80
6915.00,0.80
6914.00,0.80
6913.00,0.79
6912.00,0.79
6911.00,0.79
6910.00,0.79
6909.00,0.79
6908.00,0.79
6907.00,0.79
6906.00,0.79
6905.00,0.79
6904.00,0.79
6903.00,0.79
6902.00,0.79
6901.00,0.79
6900.00,0.79
6899.00,0.79
6898.00,0.79
6897.00,0.79
6896.00,0.79
6895.00,0.79
6894.00,0.79
6893.00,0.79
6892.00,0.79
6891.00,0.80
6890.00,0.80
6889.00,0.80
6888.00,0.80
6887.00,0.80
6886.00,0.80
6885.00,0.80
6884.00,0.80
6883.00,0.80
6882.00,0.80
6881.00,0.80
6880.00,0.80
6879.00,0.80
6878.00,0.80
6877.00,0.80
6876.00,0.80
6875.00,0.80
6874.00,0.80
6873.00,0.80
6872.00,0.80
6871.00,0.80
6870.00,0.80
6869.00,0.80
6868.00,0.80
6867.00,0.80
6866.00,0.80
6865.00,0.80
6864.00,0.80
6863.00,0.80
6862.00,0.80
6861.00,0.80
6860.00,0.80
6859.00,0.80
6858.00,0.80
6857.00,0.80
6856.00,0.80
6855.00,0.80
6854.00,0.80
6853.00,0.80
6852.00,0.80
6851.00,0.80
6850.00,0.80
6849.00,0.80
6848.00,0.80
6847.00,0.80
6846.00,0.80
6845.00,0.80
6844.00,0.80
6843.00,0.80
6842.00,0.80
6841.00,0.80
6840.00,0.81
6839.00,0.81
6838.00,0.81
6837.00,0.81
6836.00,0.81
6835.00,0.81
6834.00,0.81
6833.00,0.81
6832.00,0.81
6831.00,0.81
6830.00,0.81
6829.00,0.81
6828.00,0.81
6827.00,0.81
6826.00,0.81
6825.00,0.81
6824.00,0.81
6823.00,0.81
6822.00,0.81
6821.00,0.81
6820.00,0.81
6819.00,0.81
6818.00,0.81
6817.00,0.81
6816.00,0.81
6815.00,0.81
6814.00,0.81
6813.00,0.81
6812.00,0.81
6811.00,0.81
6810.00,0.81
6809.00,0.81
6808.00,0.81
6807.00,0.81
6806.00,0.82
6805.00,0.82
6804.00,0.82
6803.00,0.82
6802.00,0.82
6801.00,0.82
6800.00,0.82
6799.00,0.82
6798.00,0.82
6797.00,0.82
6796.00,0.82
6795.00,0.82
6794.00,0.82
6793.00,0.82
6792.00,0.82
6791.00,0.82
6790.00,0.82
6789.00,0.83
6788.00,0.83
6787.00,0.83
6786.00,0.83
6785.00,0.83
6784.00,0.83
6783.00,0.83
6782.00,0.83
6781.00,0.83
6780.00,0.83
6779.00,0.83
6778.00,0.83
6777.00,0.83
6776.00,0.83
6775.00,0.83
6774.00,0.84
6773.00,0.84
6772.00,0.84
6771.00,0.84
6770.00,0.84
6769.00,0.84
6768.00,0.84
6767.00,0.84
6766.00,0.84
6765.00,0.85
6764.00,0.85
6763.00,0.85
6762.00,0.85
6761.00,0.85
6760.00,0.85
6759.00,0.85
6758.00,0.85
6757.00,0.86
6756.00,0.86
6755.00,0.86
6754.00,0.86
6753.00,0.86
6752.00,0.86
6751.00,0.86
6750.00,0.86
6749.00,0.86
6748.00,0.86
6747.00,0.86
6746.00,0.86
6745.00,0.86
6744.00,0.86
6743.00,0.86
6742.00,0.86
6741.00,0.86
6740.00,0.86
6739.00,0.86
6738.00,0.86
6737.00,0.87
6736.00,0.87
6735.00,0.87
6734.00,0.87
6733.00,0.87
6732.00,0.87
6731.00,0.87
6730.00,0.87
6729.00,0.87
6728.00,0.87
6727.00,0.87
6726.00,0.87
6725.00,0.88
6724.00,0.88
6723.00,0.88
6722.00,0.88
6721.00,0.88
6720.00,0.88
6719.00,0.88
6718.00,0.88
6717.00,0.89
6716.00,0.89
6715.00,0.89
6714.00,0.89
6713.00,0.89
6712.00,0.89
6711.00,0.89
6710.00,0.90
6709.00,0.90
6708.00,0.90
6707.00,0.90
6706.00,0.90
6705.00,0.90
6704.00,0.90
6703.00,0.90
6702.00,0.90
6701.00,0.90
6700.00,0.90
6699.00,0.90
6698.00,0.90
6697.00,0.90
6696.00,0.90
6695.00,0.90
6694.00,0.91
6693.00,0.91
6692.00,0.91
6691.00,0.91
6690.00,0.91
6689.00,0.91
6688.00,0.91
6687.00,0.92
6686.00,0.92
6685.00,0.92
6684.00,0.92
6683.00,0.92
6682.00,0.92
6681.00,0.93
6680.00,0.93
6679.00,0.93
6678.00,0.93
6677.00,0.93
6676.00,0.93
6675.00,0.93
6674.00,0.93
6673.00,0.94
6672.00,0.94
6671.00,0.94
6670.00,0.94
6669.00,0.94
6668.00,0.94
6667.00,0.94
6666.00,0.94
6665.00,0.94
6664.00,0.94
6663.00,0.94
6662.00,0.94
6661.00,0.94
6660.00,0.94
6659.00,0.94
6658.00,0.94
6657.00,0.94
6656.00,0.95
6655.00,0.95
6654.00,0.95
6653.00,0.95
6652.00,0.95
6651.00,0.95
6650.00,0.95
6649.00,0.95
6648.00,0.96
6647.00,0.96
6646.00,0.96
6645.00,0.96
6644.00,0.96
6643.00,0.96
6642.00,0.97
6641.00,0.97
6640.00,0.97
6639.00,0.97
6638.00,0.97
6637.00,0.98
6636.00,0.98
6635.00,0.98
6634.00,0.98
6633.00,0.98
6632.00,0.98
6631.00,0.99
6630.00,0.99
6629.00,0.99
6628.00,0.99
6627.00,0.99
6626.00,0.99
6625.00,0.99
6624.00,1.00
6623.00,1.00
6622.00,1.00
6621.00,1.00
6620.00,1.00
6619.00,1.00
6618.00,1.00
6617.00,1.01
6616.00,1.01
6615.00,1.01
6614.00,1.01
6613.00,1.01
6612.00,1.01
6611.00,1.01
6610.00,1.02
6609.00,1.02
6608.00,1.02
6607.00,1.02
6606.00,1.02
6605.00,1.02
6604.00,1.02
6603.00,1.02
6602.00,1.02
6601.00,1.03
6600.00,1.03
6599.00,1.03
6598.00,1.03
6597.00,1.03
6596.00,1.03
6595.00,1.03
6594.00,1.03
6593.00,1.03
6592.00,1.03
6591.00,1.04
6590.00,1.04
6589.00,1.04
6588.00,1.04
6587.00,1.04
6586.00,1.04
6585.00,1.04
6584.00,1.04
6583.00,1.04
6582.00,1.05
6581.00,1.05
6580.00,1.05
6579.00,1.05
6578.00,1.05
6577.00,1.05
6576.00,1.05
6575.00,1.05
6574.00,1.06
6573.00,1.06
6572.00,1.06
6571.00,1.06
6570.00,1.06
6569.00,1.06
6568.00,1.06
6567.00,1.06
6566.00,1.06
6565.00,1.07
6564.00,1.07
6563.00,1.07
6562.00,1.07
6561.00,1.07
6560.00,1.07
6559.00,1.07
6558.00,1.07
6557.00,1.07
6556.00,1.08
6555.00,1.08
6554.00,1.08
6553.00,1.08
6552.00,1.08
6551.00,1.08
6550.00,1.08
6549.00,1.08
6548.00,1.09
6547.00,1.09
6546.00,1.09
6545.00,1.09
6544.00,1.09
6543.00,1.09
6542.00,1.09
6541.00,1.10
6540.00,1.10
6539.00,1.10
6538.00,1.10
6537.00,1.10
6536.00,1.10
6535.00,1.10
6534.00,1.11
6533.00,1.11
6532.00,1.11
6531.00,1.11
6530.00,1.11
6529.00,1.11
6528.00,1.11
6527.00,1.12
6526.00,1.12
6525.00,1.12
6524.00,1.12
6523.00,1.12
6522.00,1.12
6521.00,1.12
6520.00,1.13
6519.00,1.13
6518.00,1.13
6517.00,1.13
6516.00,1.13
6515.00,1.13
6514.00,1.14
6513.00,1.14
6512.00,1.14
6511.00,1.14
6510.00,1.14
6509.00,1.14
6508.00,1.14
6507.00,1.15
6506.00,1.15
6505.00,1.15
6504.00,1.15
6503.00,1.15
6502.00,1.15
6501.00,1.15
6500.00,1.15
6499.00,1.16
6498.00,1.16
6497.00,1.16
6496.00,1.16
6495.00,1.16
6494.00,1.16
6493.00,1.16
6492.00,1.16
6491.00,1.16
6490.00,1.16
6489.00,1.17
6488.00,1.17
6487.00,1.17
6486.00,1.17
6485.00,1.17
6484.00,1.17
6483.00,1.17
6482.00,1.17
6481.00,1.17
6480.00,1.17
6479.00,1.17
6478.00,1.17
6477.00,1.17
6476.00,1.17
6475.00,1.17
6474.00,1.17
6473.00,1.17
6472.00,1.17
6471.00,1.17
6470.00,1.18
6469.00,1.18
6468.00,1.18
6467.00,1.18
6466.00,1.18
6465.00,1.18
6464.00,1.18
6463.00,1.18
6462.00,1.18
6461.00,1.18
6460.00,1.19
6459.00,1.19
6458.00,1.19
6457.00,1.19
6456.00,1.19
6455.00,1.19
6454.00,1.19
6453.00,1.19
6452.00,1.19
6451.00,1.19
6450.00,1.19
6449.00,1.20
6448.00,1.20
6447.00,1.20
6446.00,1.20
6445.00,1.20
6444.00,1.20
6443.00,1.21
6442.00,1.21
6441.00,1.21
6440.00,1.21
6439.00,1.21
6438.00,1.21
6437.00,1.22
6436.00,1.22
6435.00,1.22
6434.00,1.22
6433.00,1.22
6432.00,1.22
6431.00,1.22
6430.00,1.23
6429.00,1.23
6428.00,1.23
6427.00,1.23
6426.00,1.23
6425.00,1.23
6424.00,1.23
6423.00,1.23
6422.00,1.23
6421.00,1.24
6420.00,1.24
6419.00,1.24
6418.00,1.24
6417.00,1.24
6416.00,1.24
6415.00,1.24
6414.00,1.24
6413.00,1.24
6412.00,1.24
6411.00,1.24
6410.00,1.25
6409.00,1.25
6408.00,1.25
6407.00,1.25
6406.00,1.25
6405.00,1.25
6404.00,1.25
6403.00,1.25
6402.00,1.25
6401.00,1.25
6400.00,1.25
6399.00,1.25
6398.00,1.25
6397.00,1.25
6396.00,1.25
6395.00,1.25
6394.00,1.25
6393.00,1.25
6392.00,1.25
6391.00,1.25
6390.00,1.25
6389.00,1.26
6388.00,1.26
6387.00,1.26
6386.00,1.26
6385.00,1.26
6384.00,1.26
6383.00,1.26
6382.00,1.26
6381.00,1.26
6380.00,1.27
6379.00,1.27
6378.00,1.27
6377.00,1.27
6376.00,1.27
6375.00,1.27
6374.00,1.27
6373.00,1.28
6372.00,1.28
6371.00,1.28
6370.00,1.28
6369.00,1.28
6368.00,1.28
6367.00,1.29
6366.00,1.29
6365.00,1.29
6364.00,1.29
6363.00,1.29
6362.00,1.29
6361.00,1.30
6360.00,1.30
6359.00,1.30
6358.00,1.30
6357.00,1.30
6356.00,1.30
6355.00,1.30
6354.00,1.30
6353.00,1.30
6352.00,1.30
6351.00,1.30
6350.00,1.30
6349.00,1.30
6348.00,1.30
6347.00,1.31
6346.00,1.31
6345.00,1.31
6344.00,1.31
6343.00,1.31
6342.00,1.31
6341.00,1.31
6340.00,1.31
6339.00,1.31
6338.00,1.31
6337.00,1.31
6336.00,1.32
6335.00,1.32
6334.00,1.32
6333.00,1.32
6332.00,1.32
6331.00,1.33
6330.00,1.33
6329.00,1.33
6328.00,1.33
6327.00,1.33
6326.00,1.33
6325.00,1.34
6324.00,1.34
6323.00,1.34
6322.00,1.34
6321.00,1.34
6320.00,1.34
6319.00,1.34
6318.00,1.35
6317.00,1.35
6316.00,1.35
6315.00,1.35
6314.00,1.35
6313.00,1.35
6312.00,1.35
6311.00,1.36
6310.00,1.36
6309.00,1.36
6308.00,1.36
6307.00,1.36
6306.00,1.37
6305.00,1.37
6304.00,1.37
6303.00,1.37
6302.00,1.37
6301.00,1.37
6300.00,1.38
6299.00,1.38
6298.00,1.38
6297.00,1.38
6296.00,1.38
6295.00,1.38
6294.00,1.38
6293.00,1.38
6292.00,1.38
6291.00,1.38
6290.00,1.38
6289.00,1.39
6288.00,1.39
6287.00,1.39
6286.00,1.39
6285.00,1.39
6284.00,1.39
6283.00,1.39
6282.00,1.40
6281.00,1.40
6280.00,1.40
6279.00,1.40
6278.00,1.40
6277.00,1.41
6276.00,1.41
6275.00,1.41
6274.00,1.41
6273.00,1.41
6272.00,1.42
6271.00,1.42
6270.00,1.42
6269.00,1.42
6268.00,1.42
6267.00,1.42
6266.00,1.43
6265.00,1.43
6264.00,1.43
6263.00,1.43
6262.00,1.43
6261.00,1.44
6260.00,1.44
6259.00,1.44
6258.00,1.44
6257.00,1.44
6256.00,1.44
6255.00,1.45
6254.00,1.45
6253.00,1.45
6252.00,1.45
6251.00,1.45
6250.00,1.45
6249.00,1.45
6248.00,1.46
6247.00,1.46
6246.00,1.46
6245.00,1.46
6244.00,1.46
6243.00,1.46
6242.00,1.46
6241.00,1.46
6240.00,1.47
6239.00,1.47
6238.00,1.47
6237.00,1.47
6236.00,1.47
6235.00,1.47
6234.00,1.47
6233.00,1.47
6232.00,1.48
6231.00,1.48
6230.00,1.48
6229.00,1.48
6228.00,1.48
6227.00,1.48
6226.00,1.48
6225.00,1.49
6224.00,1.49
6223.00,1.49
6222.00,1.49
6221.00,1.49
6220.00,1.49
6219.00,1.49
6218.00,1.50
6217.00,1.50
6216.00,1.50
6215.00,1.50
6214.00,1.50
6213.00,1.50
6212.00,1.50
6211.00,1.51
6210.00,1.51
6209.00,1.51
6208.00,1.51
6207.00,1.51
6206.00,1.51
6205.00,1.52
6204.00,1.52
6203.00,1.52
6202.00,1.52
6201.00,1.52
6200.00,1.53
6199.00,1.53
6198.00,1.53
6197.00,1.53
6196.00,1.53
6195.00,1.53
6194.00,1.53
6193.00,1.54
6192.00,1.54
6191.00,1.54
6190.00,1.54
6189.00,1.54
6188.00,1.54
6187.00,1.54
6186.00,1.54
6185.00,1.54
6184.00,1.55
6183.00,1.55
6182.00,1.55
6181.00,1.55
6180.00,1.55
6179.00,1.55
6178.00,1.55
6177.00,1.55
6176.00,1.56
6175.00,1.56
6174.00,1.56
6173.00,1.56
6172.00,1.56
6171.00,1.57
6170.00,1.57
6169.00,1.57
6168.00,1.57
6167.00,1.57
6166.00,1.58
6165.00,1.58
6164.00,1.58
6163.00,1.58
6162.00,1.58
6161.00,1.58
6160.00,1.59
6159.00,1.59
6158.00,1.59
6157.00,1.59
6156.00,1.59
6155.00,1.60
6154.00,1.60
6153.00,1.60
6152.00,1.60
6151.00,1.60
6150.00,1.61
6149.00,1.61
6148.00,1.61
6147.00,1.61
6146.00,1.61
6145.00,1.62
6144.00,1.62
6143.00,1.62
6142.00,1.62
6141.00,1.63
6140.00,1.63
6139.00,1.63
6138.00,1.63
6137.00,1.63
6136.00,1.64
6135.00,1.64
6134.00,1.64
6133.00,1.64
6132.00,1.65
6131.00,1.65
6130.00,1.65
6129.00,1.65
6128.00,1.65
6127.00,1.65
6126.00,1.66
6125.00,1.66
6124.00,1.66
6123.00,1.66
6122.00,1.66
6121.00,1.66
6120.00,1.67
6119.00,1.67
6118.00,1.67
6117.00,1.67
6116.00,1.67
6115.00,1.67
6114.00,1.67
6113.00,1.67
6112.00,1.68
6111.00,1.68
6110.00,1.68
6109.00,1.68
6108.00,1.68
6107.00,1.68
6106.00,1.68
6105.00,1.68
6104.00,1.69
6103.00,1.69
6102.00,1.69
6101.00,1.69
6100.00,1.69
6099.00,1.69
6098.00,1.69
6097.00,1.69
6096.00,1.70
6095.00,1.70
6094.00,1.70
6093.00,1.70
6092.00,1.70
6091.00,1.70
6090.00,1.70
6089.00,1.71
6088.00,1.71
6087.00,1.71
6086.00,1.71
6085.00,1.71
6084.00,1.71
6083.00,1.71
6082.00,1.72
6081.00,1.72
6080.00,1.72
6079.00,1.72
6078.00,1.72
6077.00,1.72
6076.00,1.72
6075.00,1.73
6074.00,1.73
6073.00,1.73
6072.00,1.73
6071.00,1.73
6070.00,1.73
6069.00,1.73
6068.00,1.73
6067.00,1.73
6066.00,1.74
6065.00,1.74
6064.00,1.74
6063.00,1.74
6062.00,1.74
6061.00,1.74
6060.00,1.74
6059.00,1.74
6058.00,1.74
6057.00,1.74
6056.00,1.75
6055.00,1.75
6054.00,1.75
6053.00,1.75
6052.00,1.75
6051.00,1.75
6050.00,1.75
6049.00,1.75
6048.00,1.75
6047.00,1.75
6046.00,1.75
6045.00,1.76
6044.00,1.76
6043.00,1.76
6042.00,1.76
6041.00,1.76
6040.00,1.76
6039.00,1.76
6038.00,1.76
6037.00,1.76
6036.00,1.76
6035.00,1.76
6034.00,1.76
6033.00,1.76
6032.00,1.77
6031.00,1.77
6030.00,1.77
6029.00,1.77
6028.00,1.77
6027.00,1.77
6026.00,1.77
6025.00,1.77
6024.00,1.77
6023.00,1.78
6022.00,1.78
6021.00,1.78
6020.00,1.78
6019.00,1.78
6018.00,1.78
6017.00,1.78
6016.00,1.78
6015.00,1.78
6014.00,1.78
6013.00,1.78
6012.00,1.78
6011.00,1.78
6010.00,1.78
6009.00,1.78
6008.00,1.78
6007.00,1.78
6006.00,1.78
6005.00,1.78
6004.00,1.78
6003.00,1.77
6002.00,1.77
6001.00,1.77
6000.00,1.77
5999.00,1.77
5998.00,1.77
5997.00,1.77
5996.00,1.77
5995.00,1.77
5994.00,1.77
5993.00,1.77
5992.00,1.77
5991.00,1.77
5990.00,1.76
5989.00,1.76
5988.00,1.76
5987.00,1.76
5986.00,1.76
5985.00,1.75
5984.00,1.75
5983.00,1.75
5982.00,1.75
5981.00,1.74
5980.00,1.74
5979.00,1.73
5978.00,1.73
5977.00,1.73
5976.00,1.72
5975.00,1.72
5974.00,1.71
5973.00,1.71
5972.00,1.70
5971.00,1.70
5970.00,1.69
5969.00,1.68
5968.00,1.68
5967.00,1.67
5966.00,1.67
5965.00,1.66
5964.00,1.65
5963.00,1.65
5962.00,1.64
5961.00,1.64
5960.00,1.63
5959.00,1.62
5958.00,1.62
5957.00,1.61
5956.00,1.61
5955.00,1.60
5954.00,1.59
5953.00,1.59
5952.00,1.58
5951.00,1.58
5950.00,1.58
5949.00,1.57
5948.00,1.57
5947.00,1.56
5946.00,1.56
5945.00,1.56
5944.00,1.55
5943.00,1.55
5942.00,1.55
5941.00,1.55
5940.00,1.55
5939.00,1.54
5938.00,1.54
5937.00,1.54
5936.00,1.54
5935.00,1.54
5934.00,1.54
5933.00,1.54
5932.00,1.54
5931.00,1.53
5930.00,1.53
5929.00,1.53
5928.00,1.53
5927.00,1.53
5926.00,1.53
5925.00,1.53
5924.00,1.52
5923.00,1.52
5922.00,1.52
5921.00,1.52
5920.00,1.52
5919.00,1.51
5918.00,1.51
5917.00,1.51
5916.00,1.50
5915.00,1.50
5914.00,1.50
5913.00,1.50
5912.00,1.49
5911.00,1.49
5910.00,1.49
5909.00,1.49
5908.00,1.49
5907.00,1.48
5906.00,1.48
5905.00,1.48
5904.00,1.48
5903.00,1.48
5902.00,1.48
5901.00,1.48
5900.00,1.48
5899.00,1.48
5898.00,1.49
5897.00,1.49
5896.00,1.49
5895.00,1.49
5894.00,1.49
5893.00,1.50
5892.00,1.50
5891.00,1.50
5890.00,1.51
5889.00,1.51
5888.00,1.51
5887.00,1.51
5886.00,1.52
5885.00,1.52
5884.00,1.52
5883.00,1.52
5882.00,1.53
5881.00,1.53
5880.00,1.53
5879.00,1.54
5878.00,1.54
5877.00,1.54
5876.00,1.54
5875.00,1.55
5874.00,1.55
5873.00,1.55
5872.00,1.55
5871.00,1.56
5870.00,1.56
5869.00,1.56
5868.00,1.56
5867.00,1.57
5866.00,1.57
5865.00,1.57
5864.00,1.57
5863.00,1.58
5862.00,1.58
5861.00,1.58
5860.00,1.58
5859.00,1.58
5858.00,1.58
5857.00,1.58
5856.00,1.59
5855.00,1.59
5854.00,1.59
5853.00,1.59
5852.00,1.59
5851.00,1.59
5850.00,1.59
5849.00,1.59
5848.00,1.59
5847.00,1.59
5846.00,1.59
5845.00,1.59
5844.00,1.59
5843.00,1.59
5842.00,1.59
5841.00,1.59
5840.00,1.59
5839.00,1.59
5838.00,1.59
5837.00,1.59
5836.00,1.59
5835.00,1.59
5834.00,1.59
5833.00,1.59
5832.00,1.59
5831.00,1.59
5830.00,1.59
5829.00,1.59
5828.00,1.59
5827.00,1.59
5826.00,1.59
5825.00,1.59
5824.00,1.59
5823.00,1.59
5822.00,1.59
5821.00,1.59
5820.00,1.59
5819.00,1.59
5818.00,1.59
5817.00,1.59
5816.00,1.59
5815.00,1.59
5814.00,1.59
5813.00,1.59
5812.00,1.59
5811.00,1.59
5810.00,1.58
5809.00,1.58
5808.00,1.58
5807.00,1.58
5806.00,1.58
5805.00,1.58
5804.00,1.58
5803.00,1.57
5802.00,1.57
5801.00,1.57
5800.00,1.57
5799.00,1.57
5798.00,1.57
5797.00,1.56
5796.00,1.56
5795.00,1.56
5794.00,1.56
5793.00,1.55
5792.00,1.55
5791.00,1.55
5790.00,1.55
5789.00,1.55
5788.00,1.54
5787.00,1.54
5786.00,1.54
5785.00,1.54
5784.00,1.54
5783.00,1.54
5782.00,1.53
5781.00,1.53
5780.00,1.53
5779.00,1.53
5778.00,1.53
5777.00,1.53
5776.00,1.53
5775.00,1.53
5774.00,1.53
5773.00,1.53
5772.00,1.54
5771.00,1.54
5770.00,1.54
5769.00,1.54
5768.00,1.54
5767.00,1.54
5766.00,1.55
5765.00,1.55
5764.00,1.55
5763.00,1.55
5762.00,1.56
5761.00,1.56
5760.00,1.56
5759.00,1.57
5758.00,1.57
5757.00,1.57
5756.00,1.57
5755.00,1.58
5754.00,1.58
5753.00,1.58
5752.00,1.59
5751.00,1.59
5750.00,1.59
5749.00,1.59
5748.00,1.60
5747.00,1.60
5746.00,1.60
5745.00,1.60
5744.00,1.60
5743.00,1.61
5742.00,1.61
5741.00,1.61
5740.00,1.61
5739.00,1.61
5738.00,1.61
5737.00,1.61
5736.00,1.62
5735.00,1.62
5734.00,1.62
5733.00,1.62
5732.00,1.62
5731.00,1.62
5730.00,1.62
5729.00,1.62
5728.00,1.62
5727.00,1.62
5726.00,1.62
5725.00,1.62
5724.00,1.62
5723.00,1.63
5722.00,1.63
5721.00,1.63
5720.00,1.63
5719.00,1.63
5718.00,1.63
5717.00,1.63
5716.00,1.63
5715.00,1.63
5714.00,1.63
5713.00,1.62
5712.00,1.62
5711.00,1.62
5710.00,1.62
5709.00,1.62
5708.00,1.62
5707.00,1.62
5706.00,1.62
5705.00,1.62
5704.00,1.62
5703.00,1.61
5702.00,1.61
5701.00,1.61
5700.00,1.61
5699.00,1.61
5698.00,1.61
5697.00,1.60
5696.00,1.60
5695.00,1.60
5694.00,1.60
5693.00,1.60
5692.00,1.60
5691.00,1.59
5690.00,1.59
5689.00,1.59
5688.00,1.59
5687.00,1.59
5686.00,1.59
5685.00,1.58
5684.00,1.58
5683.00,1.58
5682.00,1.58
5681.00,1.58
5680.00,1.58
5679.00,1.58
5678.00,1.58
5677.00,1.58
5676.00,1.58
5675.00,1.58
5674.00,1.58
5673.00,1.58
5672.00,1.58
5671.00,1.58
5670.00,1.58
5669.00,1.58
5668.00,1.58
5667.00,1.58
5666.00,1.58
5665.00,1.58
5664.00,1.58
5663.00,1.58
5662.00,1.58
5661.00,1.58
5660.00,1.59
5659.00,1.59
5658.00,1.59
5657.00,1.59
5656.00,1.59
5655.00,1.59
5654.00,1.59
5653.00,1.60
5652.00,1.60
5651.00,1.60
5650.00,1.60
5649.00,1.60
5648.00,1.60
5647.00,1.61
5646.00,1.61
5645.00,1.61
5644.00,1.61
5643.00,1.61
5642.00,1.61
5641.00,1.61
5640.00,1.62
5639.00,1.62
5638.00,1.62
5637.00,1.62
5636.00,1.62
5635.00,1.62
5634.00,1.62
5633.00,1.63
5632.00,1.63
5631.00,1.63
5630.00,1.63
5629.00,1.63
5628.00,1.63
5627.00,1.63
5626.00,1.63
5625.00,1.63
5624.00,1.63
5623.00,1.64
5622.00,1.64
5621.00,1.64
5620.00,1.64
5619.00,1.64
5618.00,1.64
5617.00,1.64
5616.00,1.64
5615.00,1.65
5614.00,1.65
5613.00,1.65
5612.00,1.65
5611.00,1.65
5610.00,1.65
5609.00,1.66
5608.00,1.66
5607.00,1.66
5606.00,1.66
5605.00,1.66
5604.00,1.66
5603.00,1.67
5602.00,1.67
5601.00,1.67
5600.00,1.67
5599.00,1.67
5598.00,1.67
5597.00,1.68
5596.00,1.68
5595.00,1.68
5594.00,1.68
5593.00,1.68
5592.00,1.68
5591.00,1.68
5590.00,1.69
5589.00,1.69
5588.00,1.69
5587.00,1.69
5586.00,1.69
5585.00,1.69
5584.00,1.69
5583.00,1.70
5582.00,1.70
5581.00,1.70
5580.00,1.70
5579.00,1.70
5578.00,1.70
5577.00,1.70
5576.00,1.70
5575.00,1.71
5574.00,1.71
5573.00,1.71
5572.00,1.71
5571.00,1.71
5570.00,1.71
5569.00,1.71
5568.00,1.72
5567.00,1.72
5566.00,1.72
5565.00,1.72
5564.00,1.72
5563.00,1.72
5562.00,1.72
5561.00,1.73
5560.00,1.73
5559.00,1.73
5558.00,1.73
5557.00,1.73
5556.00,1.73
5555.00,1.73
5554.00,1.73
5553.00,1.74
5552.00,1.74
5551.00,1.74
5550.00,1.74
5549.00,1.74
5548.00,1.74
5547.00,1.74
5546.00,1.74
5545.00,1.74
5544.00,1.75
5543.00,1.75
5542.00,1.75
5541.00,1.75
5540.00,1.75
5539.00,1.75
5538.00,1.75
5537.00,1.76
5536.00,1.76
5535.00,1.76
5534.00,1.76
5533.00,1.76
5532.00,1.76
5531.00,1.76
5530.00,1.76
5529.00,1.77
5528.00,1.77
5527.00,1.77
5526.00,1.77
5525.00,1.77
5524.00,1.77
5523.00,1.77
5522.00,1.77
5521.00,1.77
5520.00,1.77
5519.00,1.77
5518.00,1.77
5517.00,1.77
5516.00,1.77
5515.00,1.77
5514.00,1.77
5513.00,1.78
5512.00,1.78
5511.00,1.78
5510.00,1.78
5509.00,1.78
5508.00,1.78
5507.00,1.78
5506.00,1.78
5505.00,1.78
5504.00,1.78
5503.00,1.78
5502.00,1.78
5501.00,1.78
5500.00,1.78
5499.00,1.78
5498.00,1.78
5497.00,1.79
5496.00,1.79
5495.00,1.79
5494.00,1.79
5493.00,1.79
5492.00,1.79
5491.00,1.79
5490.00,1.79
5489.00,1.79
5488.00,1.80
5487.00,1.80
5486.00,1.80
5485.00,1.80
5484.00,1.80
5483.00,1.80
5482.00,1.81
5481.00,1.81
5480.00,1.81
5479.00,1.81
5478.00,1.81
5477.00,1.81
5476.00,1.81
5475.00,1.81
5474.00,1.81
5473.00,1.81
5472.00,1.81
5471.00,1.81
5470.00,1.81
5469.00,1.81
5468.00,1.81
5467.00,1.81
5466.00,1.81
5465.00,1.81
5464.00,1.82
5463.00,1.82
5462.00,1.82
5461.00,1.82
5460.00,1.82
5459.00,1.82
5458.00,1.82
5457.00,1.82
5456.00,1.82
5455.00,1.82
5454.00,1.82
5453.00,1.82
5452.00,1.82
5451.00,1.82
5450.00,1.82
5449.00,1.82
5448.00,1.82
5447.00,1.82
5446.00,1.82
5445.00,1.81
5444.00,1.81
5443.00,1.81
5442.00,1.81
5441.00,1.81
5440.00,1.81
5439.00,1.81
5438.00,1.81
5437.00,1.81
5436.00,1.81
5435.00,1.81
5434.00,1.81
5433.00,1.81
5432.00,1.81
5431.00,1.81
5430.00,1.81
5429.00,1.82
5428.00,1.82
5427.00,1.82
5426.00,1.82
5425.00,1.82
5424.00,1.82
5423.00,1.82
5422.00,1.82
5421.00,1.82
5420.00,1.82
5419.00,1.82
5418.00,1.82
5417.00,1.82
5416.00,1.82
5415.00,1.82
5414.00,1.82
5413.00,1.81
5412.00,1.81
5411.00,1.81
5410.00,1.81
5409.00,1.81
5408.00,1.81
5407.00,1.81
5406.00,1.81
5405.00,1.81
5404.00,1.81
5403.00,1.81
5402.00,1.81
5401.00,1.81
5400.00,1.81
5399.00,1.81
5398.00,1.80
5397.00,1.80
5396.00,1.80
5395.00,1.80
5394.00,1.79
5393.00,1.79
5392.00,1.79
5391.00,1.78
5390.00,1.78
5389.00,1.78
5388.00,1.77
5387.00,1.77
5386.00,1.76
5385.00,1.76
5384.00,1.76
5383.00,1.75
5382.00,1.75
5381.00,1.74
5380.00,1.74
5379.00,1.73
5378.00,1.73
5377.00,1.72
5376.00,1.71
5375.00,1.71
5374.00,1.70
5373.00,1.70
5372.00,1.69
5371.00,1.69
5370.00,1.68
5369.00,1.67
5368.00,1.67
5367.00,1.66
5366.00,1.65
5365.00,1.64
5364.00,1.64
5363.00,1.63
5362.00,1.62
5361.00,1.61
5360.00,1.60
5359.00,1.59
5358.00,1.58
5357.00,1.58
5356.00,1.57
5355.00,1.55
5354.00,1.54
5353.00,1.53
5352.00,1.52
5351.00,1.51
5350.00,1.50
5349.00,1.49
5348.00,1.48
5347.00,1.47
5346.00,1.45
5345.00,1.44
5344.00,1.43
5343.00,1.42
5342.00,1.41
5341.00,1.40
5340.00,1.39
5339.00,1.38
5338.00,1.36
5337.00,1.35
5336.00,1.34
5335.00,1.33
5334.00,1.32
5333.00,1.31
5332.00,1.30
5331.00,1.29
5330.00,1.28
5329.00,1.27
5328.00,1.26
5327.00,1.25
5326.00,1.24
5325.00,1.23
5324.00,1.22
5323.00,1.21
5322.00,1.20
5321.00,1.19
5320.00,1.18
5319.00,1.17
5318.00,1.16
5317.00,1.15
5316.00,1.14
5315.00,1.13
5314.00,1.12
5313.00,1.11
5312.00,1.10
5311.00,1.09
5310.00,1.09
5309.00,1.08
5308.00,1.07
5307.00,1.06
5306.00,1.05
5305.00,1.05
5304.00,1.04
5303.00,1.03
5302.00,1.03
5301.00,1.02
5300.00,1.02
5299.00,1.01
5298.00,1.01
5297.00,1.00
5296.00,1.00
5295.00,1.00
5294.00,0.99
5293.00,0.99
5292.00,0.99
5291.00,0.98
5290.00,0.98
5289.00,0.98
5288.00,0.97
5287.00,0.97
5286.00,0.97
5285.00,0.97
5284.00,0.97
5283.00,0.96
5282.00,0.96
5281.00,0.96
5280.00,0.96
5279.00,0.96
5278.00,0.96
5277.00,0.95
5276.00,0.95
5275.00,0.95
5274.00,0.95
5273.00,0.95
5272.00,0.95
5271.00,0.95
5270.00,0.95
5269.00,0.95
5268.00,0.95
5267.00,0.95
5266.00,0.95
5265.00,0.95
5264.00,0.95
5263.00,0.95
5262.00,0.95
5261.00,0.95
5260.00,0.95
5259.00,0.95
5258.00,0.95
5257.00,0.95
5256.00,0.95
5255.00,0.95
5254.00,0.95
5253.00,0.95
5252.00,0.95
5251.00,0.95
5250.00,0.95
5249.00,0.95
5248.00,0.95
5247.00,0.95
5246.00,0.95
5245.00,0.95
5244.00,0.95
5243.00,0.95
5242.00,0.95
5241.00,0.95
5240.00,0.95
5239.00,0.95
5238.00,0.95
5237.00,0.95
5236.00,0.95
5235.00,0.95
5234.00,0.95
5233.00,0.95
5232.00,0.95
5231.00,0.95
5230.00,0.95
5229.00,0.95
5228.00,0.95
5227.00,0.95
5226.00,0.95
5225.00,0.95
5224.00,0.95
5223.00,0.95
5222.00,0.95
5221.00,0.95
5220.00,0.95
5219.00,0.95
5218.00,0.96
5217.00,0.96
5216.00,0.96
5215.00,0.96
5214.00,0.96
5213.00,0.96
5212.00,0.96
5211.00,0.96
5210.00,0.96
5209.00,0.96
5208.00,0.96
5207.00,0.96
5206.00,0.96
5205.00,0.96
5204.00,0.96
5203.00,0.96
5202.00,0.97
5201.00,0.97
5200.00,0.97
5199.00,0.97
5198.00,0.97
5197.00,0.97
5196.00,0.97
5195.00,0.97
5194.00,0.97
5193.00,0.97
5192.00,0.97
5191.00,0.97
5190.00,0.98
5189.00,0.98
5188.00,0.98
5187.00,0.98
5186.00,0.98
5185.00,0.98
5184.00,0.98
5183.00,0.98
5182.00,0.98
5181.00,0.98
5180.00,0.98
5179.00,0.98
5178.00,0.99
5177.00,0.99
5176.00,0.99
5175.00,0.99
5174.00,0.99
5173.00,0.99
5172.00,0.99
5171.00,0.99
5170.00,0.99
5169.00,0.99
5168.00,0.99
5167.00,0.99
5166.00,0.99
5165.00,0.99
5164.00,0.99
5163.00,0.99
5162.00,0.99
5161.00,0.99
5160.00,0.99
5159.00,0.99
5158.00,0.99
5157.00,0.99
5156.00,0.99
5155.00,0.99
5154.00,1.00
5153.00,1.00
5152.00,1.00
5151.00,1.00
5150.00,1.00
5149.00,1.00
5148.00,1.00
5147.00,1.00
5146.00,1.00
5145.00,1.00
5144.00,1.00
5143.00,1.00
5142.00,1.00
5141.00,1.00
5140.00,1.00
5139.00,1.01
5138.00,1.01
5137.00,1.01
5136.00,1.01
5135.00,1.01
5134.00,1.01
5133.00,1.01
5132.00,1.01
5131.00,1.01
5130.00,1.01
5129.00,1.01
5128.00,1.01
5127.00,1.02
5126.00,1.02
5125.00,1.02
5124.00,1.02
5123.00,1.02
5122.00,1.02
5121.00,1.02
5120.00,1.02
5119.00,1.02
5118.00,1.02
5117.00,1.02
5116.00,1.02
5115.00,1.02
5114.00,1.03
5113.00,1.03
5112.00,1.03
5111.00,1.03
5110.00,1.03
5109.00,1.03
5108.00,1.03
5107.00,1.03
5106.00,1.03
5105.00,1.03
5104.00,1.03
5103.00,1.03
5102.00,1.03
5101.00,1.03
5100.00,1.03
5099.00,1.03
5098.00,1.03
5097.00,1.03
5096.00,1.03
5095.00,1.04
5094.00,1.04
5093.00,1.04
5092.00,1.04
5091.00,1.04
5090.00,1.04
5089.00,1.04
5088.00,1.04
5087.00,1.04
5086.00,1.04
5085.00,1.04
5084.00,1.04
5083.00,1.04
5082.00,1.04
5081.00,1.04
5080.00,1.04
5079.00,1.04
5078.00,1.04
5077.00,1.05
5076.00,1.05
5075.00,1.05
5074.00,1.05
5073.00,1.05
5072.00,1.05
5071.00,1.05
5070.00,1.05
5069.00,1.05
5068.00,1.05
5067.00,1.05
5066.00,1.05
5065.00,1.05
5064.00,1.05
5063.00,1.05
5062.00,1.06
5061.00,1.06
5060.00,1.06
5059.00,1.06
5058.00,1.06
5057.00,1.06
5056.00,1.06
5055.00,1.06
5054.00,1.06
5053.00,1.06
5052.00,1.06
5051.00,1.07
5050.00,1.07
5049.00,1.07
5048.00,1.07
5047.00,1.07
5046.00,1.07
5045.00,1.07
5044.00,1.07
5043.00,1.07
5042.00,1.07
5041.00,1.07
5040.00,1.07
5039.00,1.07
5038.00,1.07
5037.00,1.07
5036.00,1.07
5035.00,1.07
5034.00,1.07
5033.00,1.07
5032.00,1.07
5031.00,1.07
5030.00,1.08
5029.00,1.08
5028.00,1.08
5027.00,1.08
5026.00,1.08
5025.00,1.08
5024.00,1.08
5023.00,1.08
5022.00,1.08
5021.00,1.08
5020.00,1.08
5019.00,1.08
5018.00,1.08
5017.00,1.08
5016.00,1.08
5015.00,1.09
5014.00,1.09
5013.00,1.09
5012.00,1.09
5011.00,1.09
5010.00,1.09
5009.00,1.09
5008.00,1.09
5007.00,1.09
5006.00,1.10
5005.00,1.10
5004.00,1.10
5003.00,1.10
5002.00,1.10
5001.00,1.10
5000.00,1.10
4999.00,1.10
4998.00,1.11
4997.00,1.11
4996.00,1.11
4995.00,1.11
4994.00,1.11
4993.00,1.11
4992.00,1.11
4991.00,1.12
4990.00,1.12
4989.00,1.12
4988.00,1.12
4987.00,1.12
4986.00,1.12
4985.00,1.12
4984.00,1.13
4983.00,1.13
4982.00,1.13
4981.00,1.13
4980.00,1.13
4979.00,1.13
4978.00,1.13
4977.00,1.13
4976.00,1.14
4975.00,1.14
4974.00,1.14
4973.00,1.14
4972.00,1.14
4971.00,1.14
4970.00,1.14
4969.00,1.14
4968.00,1.14
4967.00,1.14
4966.00,1.14
4965.00,1.14
4964.00,1.15
4963.00,1.15
4962.00,1.15
4961.00,1.15
4960.00,1.15
4959.00,1.15
4958.00,1.15
4957.00,1.15
4956.00,1.15
4955.00,1.15
4954.00,1.16
4953.00,1.16
4952.00,1.16
4951.00,1.16
4950.00,1.16
4949.00,1.16
4948.00,1.16
4947.00,1.16
4946.00,1.16
4945.00,1.16
4944.00,1.16
4943.00,1.16
4942.00,1.16
4941.00,1.16
4940.00,1.17
4939.00,1.17
4938.00,1.17
4937.00,1.17
4936.00,1.17
4935.00,1.17
4934.00,1.17
4933.00,1.17
4932.00,1.17
4931.00,1.17
4930.00,1.17
4929.00,1.17
4928.00,1.18
4927.00,1.18
4926.00,1.18
4925.00,1.18
4924.00,1.18
4923.00,1.18
4922.00,1.18
4921.00,1.18
4920.00,1.19
4919.00,1.19
4918.00,1.19
4917.00,1.19
4916.00,1.19
4915.00,1.19
4914.00,1.19
4913.00,1.19
4912.00,1.20
4911.00,1.20
4910.00,1.20
4909.00,1.20
4908.00,1.20
4907.00,1.20
4906.00,1.20
4905.00,1.20
4904.00,1.20
4903.00,1.20
4902.00,1.20
4901.00,1.21
4900.00,1.21
4899.00,1.21
4898.00,1.21
4897.00,1.21
4896.00,1.21
4895.00,1.21
4894.00,1.21
4893.00,1.21
4892.00,1.21
4891.00,1.22
4890.00,1.22
4889.00,1.22
4888.00,1.22
4887.00,1.22
4886.00,1.22
4885.00,1.22
4884.00,1.22
4883.00,1.22
4882.00,1.22
4881.00,1.23
4880.00,1.23
4879.00,1.23
4878.00,1.23
4877.00,1.23
4876.00,1.23
4875.00,1.23
4874.00,1.23
4873.00,1.23
4872.00,1.23
4871.00,1.24
4870.00,1.24
4869.00,1.24
4868.00,1.24
4867.00,1.24
4866.00,1.24
4865.00,1.24
4864.00,1.25
4863.00,1.25
4862.00,1.25
4861.00,1.25
4860.00,1.25
4859.00,1.25
4858.00,1.25
4857.00,1.26
4856.00,1.26
4855.00,1.26
4854.00,1.26
4853.00,1.26
4852.00,1.26
4851.00,1.26
4850.00,1.26
4849.00,1.26
4848.00,1.26
4847.00,1.26
4846.00,1.26
4845.00,1.26
4844.00,1.26
4843.00,1.27
4842.00,1.27
4841.00,1.27
4840.00,1.27
4839.00,1.27
4838.00,1.27
4837.00,1.27
4836.00,1.27
4835.00,1.28
4834.00,1.28
4833.00,1.28
4832.00,1.28
4831.00,1.28
4830.00,1.29
4829.00,1.29
4828.00,1.29
4827.00,1.29
4826.00,1.29
4825.00,1.29
4824.00,1.29
4823.00,1.29
4822.00,1.29
4821.00,1.30
4820.00,1.30
4819.00,1.30
4818.00,1.30
4817.00,1.30
4816.00,1.30
4815.00,1.30
4814.00,1.30
4813.00,1.30
4812.00,1.30
4811.00,1.30
4810.00,1.30
4809.00,1.30
4808.00,1.30
4807.00,1.31
4806.00,1.31
4805.00,1.31
4804.00,1.31
4803.00,1.31
4802.00,1.31
4801.00,1.31
4800.00,1.32
4799.00,1.32
4798.00,1.32
4797.00,1.32
4796.00,1.32
4795.00,1.32
4794.00,1.33
4793.00,1.33
4792.00,1.33
4791.00,1.33
4790.00,1.33
4789.00,1.34
4788.00,1.34
4787.00,1.34
4786.00,1.34
4785.00,1.34
4784.00,1.35
4783.00,1.35
4782.00,1.35
4781.00,1.35
4780.00,1.35
4779.00,1.35
4778.00,1.36
4777.00,1.36
4776.00,1.36
4775.00,1.36
4774.00,1.36
4773.00,1.36
4772.00,1.36
4771.00,1.36
4770.00,1.37
4769.00,1.37
4768.00,1.37
4767.00,1.37
4766.00,1.37
4765.00,1.37
4764.00,1.37
4763.00,1.38
4762.00,1.38
4761.00,1.38
4760.00,1.38
4759.00,1.38
4758.00,1.39
4757.00,1.39
4756.00,1.39
4755.00,1.39
4754.00,1.39
4753.00,1.39
4752.00,1.40
4751.00,1.40
4750.00,1.40
4749.00,1.40
4748.00,1.40
4747.00,1.40
4746.00,1.40
4745.00,1.41
4744.00,1.41
4743.00,1.41
4742.00,1.41
4741.00,1.41
4740.00,1.41
4739.00,1.41
4738.00,1.42
4737.00,1.42
4736.00,1.42
4735.00,1.42
4734.00,1.42
4733.00,1.43
4732.00,1.43
4731.00,1.43
4730.00,1.43
4729.00,1.43
4728.00,1.44
4727.00,1.44
4726.00,1.44
4725.00,1.44
4724.00,1.44
4723.00,1.45
4722.00,1.45
4721.00,1.45
4720.00,1.45
4719.00,1.45
4718.00,1.45
4717.00,1.46
4716.00,1.46
4715.00,1.46
4714.00,1.46
4713.00,1.46
4712.00,1.47
4711.00,1.47
4710.00,1.47
4709.00,1.47
4708.00,1.48
4707.00,1.48
4706.00,1.48
4705.00,1.48
4704.00,1.49
4703.00,1.49
4702.00,1.49
4701.00,1.49
4700.00,1.50
4699.00,1.50
4698.00,1.50
4697.00,1.51
4696.00,1.51
4695.00,1.51
4694.00,1.51
4693.00,1.52
4692.00,1.52
4691.00,1.52
4690.00,1.52
4689.00,1.53
4688.00,1.53
4687.00,1.53
4686.00,1.53
4685.00,1.53
4684.00,1.53
4683.00,1.53
4682.00,1.54
4681.00,1.54
4680.00,1.54
4679.00,1.54
4678.00,1.54
4677.00,1.54
4676.00,1.54
4675.00,1.54
4674.00,1.54
4673.00,1.55
4672.00,1.55
4671.00,1.55
4670.00,1.55
4669.00,1.55
4668.00,1.55
4667.00,1.56
4666.00,1.56
4665.00,1.56
4664.00,1.56
4663.00,1.56
4662.00,1.57
4661.00,1.57
4660.00,1.57
4659.00,1.57
4658.00,1.57
4657.00,1.57
4656.00,1.57
4655.00,1.58
4654.00,1.58
4653.00,1.58
4652.00,1.58
4651.00,1.58
4650.00,1.58
4649.00,1.58
4648.00,1.58
4647.00,1.58
4646.00,1.58
4645.00,1.59
4644.00,1.59
4643.00,1.59
4642.00,1.59
4641.00,1.59
4640.00,1.59
4639.00,1.59
4638.00,1.59
4637.00,1.59
4636.00,1.59
4635.00,1.59
4634.00,1.60
4633.00,1.60
4632.00,1.60
4631.00,1.60
4630.00,1.60
4629.00,1.60
4628.00,1.61
4627.00,1.61
4626.00,1.61
4625.00,1.61
4624.00,1.61
4623.00,1.61
4622.00,1.62
4621.00,1.62
4620.00,1.62
4619.00,1.62
4618.00,1.62
4617.00,1.63
4616.00,1.63
4615.00,1.63
4614.00,1.63
4613.00,1.63
4612.00,1.63
4611.00,1.64
4610.00,1.64
4609.00,1.64
4608.00,1.64
4607.00,1.64
4606.00,1.64
4605.00,1.65
4604.00,1.65
4603.00,1.65
4602.00,1.65
4601.00,1.65
4600.00,1.65
4599.00,1.65
4598.00,1.66
4597.00,1.66
4596.00,1.66
4595.00,1.66
4594.00,1.66
4593.00,1.66
4592.00,1.66
4591.00,1.67
4590.00,1.67
4589.00,1.67
4588.00,1.67
4587.00,1.67
4586.00,1.67
4585.00,1.67
4584.00,1.67
4583.00,1.68
4582.00,1.68
4581.00,1.68
4580.00,1.68
4579.00,1.68
4578.00,1.68
4577.00,1.68
4576.00,1.68
4575.00,1.68
4574.00,1.68
4573.00,1.69
4572.00,1.69
4571.00,1.69
4570.00,1.69
4569.00,1.69
4568.00,1.69
4567.00,1.69
4566.00,1.69
4565.00,1.69
4564.00,1.69
4563.00,1.69
4562.00,1.69
4561.00,1.69
4560.00,1.69
4559.00,1.70
4558.00,1.70
4557.00,1.70
4556.00,1.70
4555.00,1.70
4554.00,1.70
4553.00,1.70
4552.00,1.70
4551.00,1.70
4550.00,1.70
4549.00,1.71
4548.00,1.71
4547.00,1.71
4546.00,1.71
4545.00,1.71
4544.00,1.71
4543.00,1.72
4542.00,1.72
4541.00,1.72
4540.00,1.72
4539.00,1.72
4538.00,1.72
4537.00,1.72
4536.00,1.72
4535.00,1.72
4534.00,1.72
4533.00,1.72
4532.00,1.73
4531.00,1.73
4530.00,1.73
4529.00,1.73
4528.00,1.73
4527.00,1.73
4526.00,1.73
4525.00,1.73
4524.00,1.73
4523.00,1.73
4522.00,1.73
4521.00,1.73
4520.00,1.73
4519.00,1.73
4518.00,1.73
4517.00,1.73
4516.00,1.73
4515.00,1.73
4514.00,1.73
4513.00,1.73
4512.00,1.73
4511.00,1.73
4510.00,1.73
4509.00,1.73
4508.00,1.73
4507.00,1.73
4506.00,1.73
4505.00,1.73
4504.00,1.73
4503.00,1.73
4502.00,1.74
4501.00,1.74
4500.00,1.74
4499.00,1.74
4498.00,1.74
4497.00,1.74
4496.00,1.74
4495.00,1.74
4494.00,1.74
4493.00,1.74
4492.00,1.74
4491.00,1.74
4490.00,1.74
4489.00,1.73
4488.00,1.73
4487.00,1.73
4486.00,1.73
4485.00,1.73
4484.00,1.73
4483.00,1.73
4482.00,1.72
4481.00,1.72
4480.00,1.72
4479.00,1.72
4478.00,1.72
4477.00,1.71
4476.00,1.71
4475.00,1.71
4474.00,1.71
4473.00,1.70
4472.00,1.70
4471.00,1.70
4470.00,1.70
4469.00,1.69
4468.00,1.69
4467.00,1.69
4466.00,1.69
4465.00,1.68
4464.00,1.68
4463.00,1.68
4462.00,1.67
4461.00,1.67
4460.00,1.67
4459.00,1.67
4458.00,1.66
4457.00,1.66
4456.00,1.66
4455.00,1.65
4454.00,1.65
4453.00,1.64
4452.00,1.64
4451.00,1.64
4450.00,1.63
4449.00,1.63
4448.00,1.62
4447.00,1.62
4446.00,1.61
4445.00,1.61
4444.00,1.60
4443.00,1.60
4442.00,1.59
4441.00,1.59
4440.00,1.58
4439.00,1.58
4438.00,1.57
4437.00,1.57
4436.00,1.56
4435.00,1.56
4434.00,1.55
4433.00,1.55
4432.00,1.55
4431.00,1.54
4430.00,1.54
4429.00,1.53
4428.00,1.53
4427.00,1.53
4426.00,1.52
4425.00,1.52
4424.00,1.52
4423.00,1.52
4422.00,1.51
4421.00,1.51
4420.00,1.51
4419.00,1.51
4418.00,1.51
4417.00,1.51
4416.00,1.50
4415.00,1.50
4414.00,1.50
4413.00,1.50
4412.00,1.50
4411.00,1.50
4410.00,1.50
4409.00,1.50
4408.00,1.50
4407.00,1.50
4406.00,1.50
4405.00,1.50
4404.00,1.50
4403.00,1.51
4402.00,1.51
4401.00,1.51
4400.00,1.51
4399.00,1.51
4398.00,1.52
4397.00,1.52
4396.00,1.52
4395.00,1.52
4394.00,1.53
4393.00,1.53
4392.00,1.53
4391.00,1.53
4390.00,1.54
4389.00,1.54
4388.00,1.54
4387.00,1.54
4386.00,1.55
4385.00,1.55
4384.00,1.55
4383.00,1.55
4382.00,1.55
4381.00,1.55
4380.00,1.55
4379.00,1.56
4378.00,1.56
4377.00,1.56
4376.00,1.56
4375.00,1.56
4374.00,1.56
4373.00,1.56
4372.00,1.56
4371.00,1.56
4370.00,1.56
4369.00,1.56
4368.00,1.56
4367.00,1.56
4366.00,1.56
4365.00,1.56
4364.00,1.56
4363.00,1.56
4362.00,1.56
4361.00,1.56
4360.00,1.56
4359.00,1.56
4358.00,1.56
4357.00,1.56
4356.00,1.56
4355.00,1.56
4354.00,1.56
4353.00,1.56
4352.00,1.56
4351.00,1.56
4350.00,1.56
4349.00,1.56
4348.00,1.56
4347.00,1.56
4346.00,1.56
4345.00,1.56
4344.00,1.56
4343.00,1.56
4342.00,1.56
4341.00,1.56
4340.00,1.56
4339.00,1.56
4338.00,1.56
4337.00,1.56
4336.00,1.56
4335.00,1.57
4334.00,1.57
4333.00,1.57
4332.00,1.57
4331.00,1.57
4330.00,1.57
4329.00,1.58
4328.00,1.58
4327.00,1.58
4326.00,1.58
4325.00,1.59
4324.00,1.59
4323.00,1.59
4322.00,1.59
4321.00,1.60
4320.00,1.60
4319.00,1.60
4318.00,1.60
4317.00,1.61
4316.00,1.61
4315.00,1.61
4314.00,1.62
4313.00,1.62
4312.00,1.62
4311.00,1.63
4310.00,1.63
4309.00,1.63
4308.00,1.63
4307.00,1.64
4306.00,1.64
4305.00,1.64
4304.00,1.64
4303.00,1.64
4302.00,1.65
4301.00,1.65
4300.00,1.65
4299.00,1.65
4298.00,1.65
4297.00,1.65
4296.00,1.65
4295.00,1.65
4294.00,1.65
4293.00,1.65
4292.00,1.65
4291.00,1.66
4290.00,1.66
4289.00,1.66
4288.00,1.66
4287.00,1.66
4286.00,1.66
4285.00,1.66
4284.00,1.66
4283.00,1.66
4282.00,1.66
4281.00,1.66
4280.00,1.66
4279.00,1.66
4278.00,1.66
4277.00,1.66
4276.00,1.66
4275.00,1.66
4274.00,1.66
4273.00,1.66
4272.00,1.66
4271.00,1.66
4270.00,1.66
4269.00,1.66
4268.00,1.66
4267.00,1.65
4266.00,1.65
4265.00,1.65
4264.00,1.65
4263.00,1.65
4262.00,1.65
4261.00,1.65
4260.00,1.65
4259.00,1.65
4258.00,1.65
4257.00,1.65
4256.00,1.65
4255.00,1.65
4254.00,1.65
4253.00,1.65
4252.00,1.65
4251.00,1.66
4250.00,1.66
4249.00,1.66
4248.00,1.66
4247.00,1.66
4246.00,1.67
4245.00,1.67
4244.00,1.67
4243.00,1.67
4242.00,1.67
4241.00,1.67
4240.00,1.67
4239.00,1.68
4238.00,1.68
4237.00,1.68
4236.00,1.68
4235.00,1.68
4234.00,1.68
4233.00,1.68
4232.00,1.68
4231.00,1.68
4230.00,1.69
4229.00,1.69
4228.00,1.69
4227.00,1.69
4226.00,1.69
4225.00,1.69
4224.00,1.69
4223.00,1.70
4222.00,1.70
4221.00,1.70
4220.00,1.70
4219.00,1.70
4218.00,1.70
4217.00,1.70
4216.00,1.71
4215.00,1.71
4214.00,1.71
4213.00,1.71
4212.00,1.71
4211.00,1.71
4210.00,1.71
4209.00,1.71
4208.00,1.71
4207.00,1.71
4206.00,1.71
4205.00,1.71
4204.00,1.71
4203.00,1.71
4202.00,1.70
4201.00,1.70
4200.00,1.70
4199.00,1.70
4198.00,1.70
4197.00,1.70
4196.00,1.70
4195.00,1.70
4194.00,1.70
4193.00,1.70
4192.00,1.70
4191.00,1.70
4190.00,1.70
4189.00,1.70
4188.00,1.70
4187.00,1.70
4186.00,1.70
4185.00,1.70
4184.00,1.70
4183.00,1.70
4182.00,1.70
4181.00,1.71
4180.00,1.71
4179.00,1.71
4178.00,1.71
4177.00,1.71
4176.00,1.71
4175.00,1.71
4174.00,1.71
4173.00,1.71
4172.00,1.72
4171.00,1.72
4170.00,1.72
4169.00,1.72
4168.00,1.72
4167.00,1.72
4166.00,1.73
4165.00,1.73
4164.00,1.73
4163.00,1.73
4162.00,1.73
4161.00,1.74
4160.00,1.74
4159.00,1.74
4158.00,1.74
4157.00,1.74
4156.00,1.74
4155.00,1.74
4154.00,1.74
4153.00,1.74
4152.00,1.74
4151.00,1.74
4150.00,1.74
4149.00,1.74
4148.00,1.74
4147.00,1.74
4146.00,1.74
4145.00,1.74
4144.00,1.74
4143.00,1.74
4142.00,1.73
4141.00,1.73
4140.00,1.73
4139.00,1.73
4138.00,1.73
4137.00,1.73
4136.00,1.73
4135.00,1.73
4134.00,1.73
4133.00,1.73
4132.00,1.73
4131.00,1.73
4130.00,1.73
4129.00,1.73
4128.00,1.73
4127.00,1.73
4126.00,1.73
4125.00,1.74
4124.00,1.74
4123.00,1.74
4122.00,1.74
4121.00,1.74
4120.00,1.74
4119.00,1.75
4118.00,1.75
4117.00,1.75
4116.00,1.75
4115.00,1.75
4114.00,1.76
4113.00,1.76
4112.00,1.76
4111.00,1.76
4110.00,1.76
4109.00,1.76
4108.00,1.77
4107.00,1.77
4106.00,1.77
4105.00,1.77
4104.00,1.77
4103.00,1.77
4102.00,1.78
4101.00,1.78
4100.00,1.78
4099.00,1.78
4098.00,1.78
4097.00,1.78
4096.00,1.78
4095.00,1.78
4094.00,1.78
4093.00,1.78
4092.00,1.78
4091.00,1.78
4090.00,1.78
4089.00,1.78
4088.00,1.78
4087.00,1.78
4086.00,1.78
4085.00,1.78
4084.00,1.78
4083.00,1.78
4082.00,1.78
4081.00,1.78
4080.00,1.78
4079.00,1.78
4078.00,1.78
4077.00,1.78
4076.00,1.78
4075.00,1.78
4074.00,1.78
4073.00,1.78
4072.00,1.78
4071.00,1.78
4070.00,1.78
4069.00,1.78
4068.00,1.78
4067.00,1.78
4066.00,1.78
4065.00,1.79
4064.00,1.79
4063.00,1.79
4062.00,1.79
4061.00,1.79
4060.00,1.79
4059.00,1.80
4058.00,1.80
4057.00,1.80
4056.00,1.80
4055.00,1.80
4054.00,1.80
4053.00,1.81
4052.00,1.81
4051.00,1.81
4050.00,1.81
4049.00,1.81
4048.00,1.81
4047.00,1.81
4046.00,1.81
4045.00,1.82
4044.00,1.82
4043.00,1.82
4042.00,1.82
4041.00,1.82
4040.00,1.82
4039.00,1.82
4038.00,1.82
4037.00,1.81
4036.00,1.81
4035.00,1.81
4034.00,1.81
4033.00,1.81
4032.00,1.81
4031.00,1.81
4030.00,1.81
4029.00,1.81
4028.00,1.80
4027.00,1.80
4026.00,1.80
4025.00,1.80
4024.00,1.80
4023.00,1.80
4022.00,1.81
4021.00,1.81
4020.00,1.81
4019.00,1.81
4018.00,1.81
4017.00,1.81
4016.00,1.81
4015.00,1.81
4014.00,1.81
4013.00,1.81
4012.00,1.81
4011.00,1.81
4010.00,1.81
4009.00,1.81
4008.00,1.81
4007.00,1.81
4006.00,1.81
4005.00,1.81
4004.00,1.82
4003.00,1.82
4002.00,1.82
4001.00,1.82
4000.00,1.82
