创建为新数据集,样品 525 用户 Administrator 日期 星期一, 七月 16 2018
cm-1,%T
10000.00,1.85
9999.00,1.86
9998.00,1.86
9997.00,1.86
9996.00,1.86
9995.00,1.86
9994.00,1.86
9993.00,1.86
9992.00,1.86
9991.00,1.86
9990.00,1.85
9989.00,1.85
9988.00,1.85
9987.00,1.85
9986.00,1.85
9985.00,1.85
9984.00,1.85
9983.00,1.85
9982.00,1.84
9981.00,1.84
9980.00,1.84
9979.00,1.84
9978.00,1.84
9977.00,1.85
9976.00,1.85
9975.00,1.85
9974.00,1.85
9973.00,1.85
9972.00,1.85
9971.00,1.85
9970.00,1.84
9969.00,1.84
9968.00,1.84
9967.00,1.84
9966.00,1.84
9965.00,1.84
9964.00,1.83
9963.00,1.83
9962.00,1.83
9961.00,1.83
9960.00,1.82
9959.00,1.82
9958.00,1.82
9957.00,1.82
9956.00,1.82
9955.00,1.82
9954.00,1.82
9953.00,1.82
9952.00,1.82
9951.00,1.82
9950.00,1.82
9949.00,1.83
9948.00,1.83
9947.00,1.83
9946.00,1.84
9945.00,1.84
9944.00,1.84
9943.00,1.85
9942.00,1.85
9941.00,1.85
9940.00,1.85
9939.00,1.85
9938.00,1.86
9937.00,1.86
9936.00,1.86
9935.00,1.85
9934.00,1.85
9933.00,1.85
9932.00,1.85
9931.00,1.85
9930.00,1.85
9929.00,1.85
9928.00,1.85
9927.00,1.85
9926.00,1.85
9925.00,1.85
9924.00,1.85
9923.00,1.85
9922.00,1.85
9921.00,1.85
9920.00,1.85
9919.00,1.85
9918.00,1.85
9917.00,1.86
9916.00,1.86
9915.00,1.86
9914.00,1.86
9913.00,1.86
9912.00,1.86
9911.00,1.85
9910.00,1.85
9909.00,1.85
9908.00,1.85
9907.00,1.85
9906.00,1.85
9905.00,1.85
9904.00,1.85
9903.00,1.85
9902.00,1.85
9901.00,1.85
9900.00,1.84
9899.00,1.84
9898.00,1.84
9897.00,1.84
9896.00,1.84
9895.00,1.84
9894.00,1.84
9893.00,1.84
9892.00,1.84
9891.00,1.84
9890.00,1.84
9889.00,1.83
9888.00,1.83
9887.00,1.83
9886.00,1.83
9885.00,1.83
9884.00,1.83
9883.00,1.82
9882.00,1.82
9881.00,1.82
9880.00,1.82
9879.00,1.82
9878.00,1.82
9877.00,1.82
9876.00,1.82
9875.00,1.82
9874.00,1.82
9873.00,1.83
9872.00,1.83
9871.00,1.83
9870.00,1.83
9869.00,1.83
9868.00,1.83
9867.00,1.83
9866.00,1.83
9865.00,1.83
9864.00,1.83
9863.00,1.83
9862.00,1.83
9861.00,1.83
9860.00,1.83
9859.00,1.83
9858.00,1.83
9857.00,1.83
9856.00,1.83
9855.00,1.83
9854.00,1.83
9853.00,1.84
9852.00,1.84
9851.00,1.84
9850.00,1.84
9849.00,1.84
9848.00,1.84
9847.00,1.84
9846.00,1.84
9845.00,1.84
9844.00,1.83
9843.00,1.83
9842.00,1.83
9841.00,1.83
9840.00,1.83
9839.00,1.83
9838.00,1.83
9837.00,1.83
9836.00,1.83
9835.00,1.82
9834.00,1.82
9833.00,1.82
9832.00,1.82
9831.00,1.82
9830.00,1.82
9829.00,1.81
9828.00,1.81
9827.00,1.81
9826.00,1.81
9825.00,1.81
9824.00,1.81
9823.00,1.81
9822.00,1.82
9821.00,1.82
9820.00,1.82
9819.00,1.82
9818.00,1.82
9817.00,1.82
9816.00,1.83
9815.00,1.83
9814.00,1.83
9813.00,1.83
9812.00,1.83
9811.00,1.83
9810.00,1.83
9809.00,1.83
9808.00,1.83
9807.00,1.83
9806.00,1.83
9805.00,1.83
9804.00,1.83
9803.00,1.83
9802.00,1.83
9801.00,1.83
9800.00,1.83
9799.00,1.83
9798.00,1.83
9797.00,1.83
9796.00,1.83
9795.00,1.83
9794.00,1.83
9793.00,1.83
9792.00,1.83
9791.00,1.83
9790.00,1.83
9789.00,1.83
9788.00,1.83
9787.00,1.83
9786.00,1.83
9785.00,1.83
9784.00,1.83
9783.00,1.83
9782.00,1.84
9781.00,1.84
9780.00,1.84
9779.00,1.84
9778.00,1.84
9777.00,1.84
9776.00,1.84
9775.00,1.84
9774.00,1.83
9773.00,1.83
9772.00,1.83
9771.00,1.83
9770.00,1.83
9769.00,1.83
9768.00,1.83
9767.00,1.83
9766.00,1.83
9765.00,1.83
9764.00,1.82
9763.00,1.82
9762.00,1.82
9761.00,1.82
9760.00,1.82
9759.00,1.82
9758.00,1.82
9757.00,1.82
9756.00,1.82
9755.00,1.82
9754.00,1.82
9753.00,1.82
9752.00,1.83
9751.00,1.83
9750.00,1.83
9749.00,1.83
9748.00,1.83
9747.00,1.84
9746.00,1.84
9745.00,1.84
9744.00,1.84
9743.00,1.84
9742.00,1.85
9741.00,1.85
9740.00,1.85
9739.00,1.85
9738.00,1.85
9737.00,1.85
9736.00,1.85
9735.00,1.85
9734.00,1.85
9733.00,1.85
9732.00,1.85
9731.00,1.85
9730.00,1.85
9729.00,1.84
9728.00,1.84
9727.00,1.84
9726.00,1.84
9725.00,1.84
9724.00,1.84
9723.00,1.83
9722.00,1.83
9721.00,1.83
9720.00,1.83
9719.00,1.83
9718.00,1.83
9717.00,1.83
9716.00,1.83
9715.00,1.83
9714.00,1.83
9713.00,1.83
9712.00,1.83
9711.00,1.84
9710.00,1.84
9709.00,1.84
9708.00,1.84
9707.00,1.84
9706.00,1.84
9705.00,1.83
9704.00,1.83
9703.00,1.83
9702.00,1.83
9701.00,1.83
9700.00,1.83
9699.00,1.83
9698.00,1.83
9697.00,1.83
9696.00,1.83
9695.00,1.83
9694.00,1.83
9693.00,1.83
9692.00,1.83
9691.00,1.83
9690.00,1.83
9689.00,1.83
9688.00,1.83
9687.00,1.83
9686.00,1.83
9685.00,1.83
9684.00,1.83
9683.00,1.83
9682.00,1.82
9681.00,1.82
9680.00,1.82
9679.00,1.82
9678.00,1.81
9677.00,1.81
9676.00,1.81
9675.00,1.81
9674.00,1.80
9673.00,1.80
9672.00,1.80
9671.00,1.80
9670.00,1.80
9669.00,1.80
9668.00,1.79
9667.00,1.79
9666.00,1.79
9665.00,1.79
9664.00,1.79
9663.00,1.80
9662.00,1.80
9661.00,1.80
9660.00,1.80
9659.00,1.80
9658.00,1.80
9657.00,1.81
9656.00,1.81
9655.00,1.81
9654.00,1.81
9653.00,1.82
9652.00,1.82
9651.00,1.82
9650.00,1.83
9649.00,1.83
9648.00,1.83
9647.00,1.83
9646.00,1.83
9645.00,1.84
9644.00,1.84
9643.00,1.84
9642.00,1.84
9641.00,1.84
9640.00,1.84
9639.00,1.84
9638.00,1.84
9637.00,1.84
9636.00,1.84
9635.00,1.84
9634.00,1.84
9633.00,1.84
9632.00,1.84
9631.00,1.84
9630.00,1.85
9629.00,1.85
9628.00,1.85
9627.00,1.85
9626.00,1.85
9625.00,1.85
9624.00,1.85
9623.00,1.85
9622.00,1.85
9621.00,1.85
9620.00,1.85
9619.00,1.85
9618.00,1.85
9617.00,1.85
9616.00,1.85
9615.00,1.85
9614.00,1.85
9613.00,1.85
9612.00,1.85
9611.00,1.85
9610.00,1.85
9609.00,1.85
9608.00,1.85
9607.00,1.85
9606.00,1.85
9605.00,1.85
9604.00,1.85
9603.00,1.84
9602.00,1.84
9601.00,1.84
9600.00,1.84
9599.00,1.84
9598.00,1.83
9597.00,1.83
9596.00,1.83
9595.00,1.83
9594.00,1.82
9593.00,1.82
9592.00,1.82
9591.00,1.82
9590.00,1.82
9589.00,1.82
9588.00,1.81
9587.00,1.81
9586.00,1.81
9585.00,1.81
9584.00,1.81
9583.00,1.81
9582.00,1.81
9581.00,1.81
9580.00,1.81
9579.00,1.81
9578.00,1.81
9577.00,1.81
9576.00,1.81
9575.00,1.81
9574.00,1.81
9573.00,1.81
9572.00,1.81
9571.00,1.82
9570.00,1.82
9569.00,1.82
9568.00,1.82
9567.00,1.82
9566.00,1.82
9565.00,1.82
9564.00,1.82
9563.00,1.82
9562.00,1.83
9561.00,1.83
9560.00,1.83
9559.00,1.83
9558.00,1.83
9557.00,1.82
9556.00,1.82
9555.00,1.82
9554.00,1.82
9553.00,1.82
9552.00,1.82
9551.00,1.82
9550.00,1.82
9549.00,1.82
9548.00,1.82
9547.00,1.81
9546.00,1.81
9545.00,1.81
9544.00,1.81
9543.00,1.81
9542.00,1.82
9541.00,1.82
9540.00,1.82
9539.00,1.82
9538.00,1.82
9537.00,1.82
9536.00,1.82
9535.00,1.82
9534.00,1.82
9533.00,1.82
9532.00,1.82
9531.00,1.83
9530.00,1.83
9529.00,1.83
9528.00,1.83
9527.00,1.83
9526.00,1.83
9525.00,1.83
9524.00,1.84
9523.00,1.84
9522.00,1.84
9521.00,1.84
9520.00,1.84
9519.00,1.84
9518.00,1.84
9517.00,1.85
9516.00,1.85
9515.00,1.85
9514.00,1.85
9513.00,1.85
9512.00,1.85
9511.00,1.85
9510.00,1.85
9509.00,1.85
9508.00,1.85
9507.00,1.85
9506.00,1.84
9505.00,1.84
9504.00,1.84
9503.00,1.84
9502.00,1.84
9501.00,1.84
9500.00,1.84
9499.00,1.83
9498.00,1.83
9497.00,1.83
9496.00,1.83
9495.00,1.83
9494.00,1.83
9493.00,1.83
9492.00,1.83
9491.00,1.83
9490.00,1.83
9489.00,1.83
9488.00,1.83
9487.00,1.83
9486.00,1.83
9485.00,1.83
9484.00,1.83
9483.00,1.83
9482.00,1.83
9481.00,1.83
9480.00,1.83
9479.00,1.83
9478.00,1.83
9477.00,1.83
9476.00,1.83
9475.00,1.83
9474.00,1.83
9473.00,1.83
9472.00,1.83
9471.00,1.83
9470.00,1.83
9469.00,1.83
9468.00,1.83
9467.00,1.83
9466.00,1.83
9465.00,1.83
9464.00,1.83
9463.00,1.83
9462.00,1.82
9461.00,1.82
9460.00,1.82
9459.00,1.82
9458.00,1.82
9457.00,1.82
9456.00,1.82
9455.00,1.82
9454.00,1.83
9453.00,1.83
9452.00,1.83
9451.00,1.83
9450.00,1.83
9449.00,1.83
9448.00,1.83
9447.00,1.83
9446.00,1.84
9445.00,1.84
9444.00,1.84
9443.00,1.84
9442.00,1.84
9441.00,1.84
9440.00,1.84
9439.00,1.85
9438.00,1.85
9437.00,1.84
9436.00,1.84
9435.00,1.84
9434.00,1.84
9433.00,1.84
9432.00,1.84
9431.00,1.83
9430.00,1.83
9429.00,1.83
9428.00,1.82
9427.00,1.82
9426.00,1.82
9425.00,1.82
9424.00,1.81
9423.00,1.81
9422.00,1.81
9421.00,1.81
9420.00,1.81
9419.00,1.81
9418.00,1.81
9417.00,1.81
9416.00,1.81
9415.00,1.81
9414.00,1.81
9413.00,1.82
9412.00,1.82
9411.00,1.82
9410.00,1.82
9409.00,1.83
9408.00,1.83
9407.00,1.83
9406.00,1.83
9405.00,1.84
9404.00,1.84
9403.00,1.84
9402.00,1.84
9401.00,1.84
9400.00,1.84
9399.00,1.84
9398.00,1.84
9397.00,1.84
9396.00,1.84
9395.00,1.84
9394.00,1.83
9393.00,1.83
9392.00,1.83
9391.00,1.83
9390.00,1.83
9389.00,1.83
9388.00,1.83
9387.00,1.82
9386.00,1.82
9385.00,1.82
9384.00,1.82
9383.00,1.82
9382.00,1.82
9381.00,1.82
9380.00,1.82
9379.00,1.82
9378.00,1.82
9377.00,1.82
9376.00,1.83
9375.00,1.83
9374.00,1.83
9373.00,1.83
9372.00,1.83
9371.00,1.83
9370.00,1.83
9369.00,1.83
9368.00,1.83
9367.00,1.83
9366.00,1.83
9365.00,1.83
9364.00,1.83
9363.00,1.83
9362.00,1.83
9361.00,1.82
9360.00,1.82
9359.00,1.82
9358.00,1.82
9357.00,1.82
9356.00,1.81
9355.00,1.81
9354.00,1.81
9353.00,1.81
9352.00,1.81
9351.00,1.81
9350.00,1.81
9349.00,1.81
9348.00,1.81
9347.00,1.81
9346.00,1.81
9345.00,1.81
9344.00,1.81
9343.00,1.81
9342.00,1.81
9341.00,1.81
9340.00,1.81
9339.00,1.82
9338.00,1.82
9337.00,1.82
9336.00,1.82
9335.00,1.82
9334.00,1.82
9333.00,1.82
9332.00,1.82
9331.00,1.83
9330.00,1.83
9329.00,1.83
9328.00,1.83
9327.00,1.83
9326.00,1.83
9325.00,1.83
9324.00,1.83
9323.00,1.83
9322.00,1.83
9321.00,1.83
9320.00,1.83
9319.00,1.82
9318.00,1.82
9317.00,1.82
9316.00,1.82
9315.00,1.82
9314.00,1.82
9313.00,1.81
9312.00,1.81
9311.00,1.81
9310.00,1.81
9309.00,1.81
9308.00,1.80
9307.00,1.80
9306.00,1.80
9305.00,1.80
9304.00,1.80
9303.00,1.80
9302.00,1.80
9301.00,1.79
9300.00,1.79
9299.00,1.79
9298.00,1.79
9297.00,1.79
9296.00,1.79
9295.00,1.79
9294.00,1.79
9293.00,1.79
9292.00,1.79
9291.00,1.79
9290.00,1.79
9289.00,1.79
9288.00,1.80
9287.00,1.80
9286.00,1.80
9285.00,1.80
9284.00,1.80
9283.00,1.81
9282.00,1.81
9281.00,1.81
9280.00,1.82
9279.00,1.82
9278.00,1.82
9277.00,1.82
9276.00,1.83
9275.00,1.83
9274.00,1.83
9273.00,1.83
9272.00,1.83
9271.00,1.83
9270.00,1.83
9269.00,1.83
9268.00,1.83
9267.00,1.83
9266.00,1.83
9265.00,1.83
9264.00,1.83
9263.00,1.82
9262.00,1.82
9261.00,1.82
9260.00,1.82
9259.00,1.82
9258.00,1.82
9257.00,1.82
9256.00,1.82
9255.00,1.82
9254.00,1.82
9253.00,1.82
9252.00,1.82
9251.00,1.82
9250.00,1.82
9249.00,1.82
9248.00,1.82
9247.00,1.83
9246.00,1.83
9245.00,1.83
9244.00,1.83
9243.00,1.83
9242.00,1.83
9241.00,1.83
9240.00,1.84
9239.00,1.84
9238.00,1.84
9237.00,1.84
9236.00,1.84
9235.00,1.84
9234.00,1.83
9233.00,1.83
9232.00,1.83
9231.00,1.83
9230.00,1.83
9229.00,1.83
9228.00,1.83
9227.00,1.83
9226.00,1.82
9225.00,1.82
9224.00,1.82
9223.00,1.82
9222.00,1.82
9221.00,1.82
9220.00,1.82
9219.00,1.82
9218.00,1.82
9217.00,1.82
9216.00,1.82
9215.00,1.82
9214.00,1.82
9213.00,1.82
9212.00,1.82
9211.00,1.82
9210.00,1.82
9209.00,1.83
9208.00,1.83
9207.00,1.83
9206.00,1.83
9205.00,1.84
9204.00,1.84
9203.00,1.84
9202.00,1.84
9201.00,1.85
9200.00,1.85
9199.00,1.85
9198.00,1.85
9197.00,1.85
9196.00,1.86
9195.00,1.86
9194.00,1.86
9193.00,1.86
9192.00,1.85
9191.00,1.85
9190.00,1.85
9189.00,1.85
9188.00,1.85
9187.00,1.85
9186.00,1.85
9185.00,1.84
9184.00,1.84
9183.00,1.84
9182.00,1.84
9181.00,1.84
9180.00,1.83
9179.00,1.83
9178.00,1.83
9177.00,1.83
9176.00,1.83
9175.00,1.83
9174.00,1.83
9173.00,1.83
9172.00,1.83
9171.00,1.83
9170.00,1.83
9169.00,1.83
9168.00,1.83
9167.00,1.83
9166.00,1.83
9165.00,1.83
9164.00,1.83
9163.00,1.83
9162.00,1.83
9161.00,1.83
9160.00,1.83
9159.00,1.83
9158.00,1.83
9157.00,1.83
9156.00,1.83
9155.00,1.84
9154.00,1.84
9153.00,1.84
9152.00,1.84
9151.00,1.84
9150.00,1.84
9149.00,1.85
9148.00,1.85
9147.00,1.85
9146.00,1.85
9145.00,1.85
9144.00,1.85
9143.00,1.85
9142.00,1.85
9141.00,1.85
9140.00,1.85
9139.00,1.85
9138.00,1.85
9137.00,1.85
9136.00,1.85
9135.00,1.84
9134.00,1.84
9133.00,1.84
9132.00,1.84
9131.00,1.83
9130.00,1.83
9129.00,1.83
9128.00,1.83
9127.00,1.83
9126.00,1.82
9125.00,1.82
9124.00,1.82
9123.00,1.82
9122.00,1.82
9121.00,1.82
9120.00,1.82
9119.00,1.82
9118.00,1.82
9117.00,1.82
9116.00,1.82
9115.00,1.83
9114.00,1.83
9113.00,1.83
9112.00,1.83
9111.00,1.83
9110.00,1.84
9109.00,1.84
9108.00,1.84
9107.00,1.84
9106.00,1.84
9105.00,1.84
9104.00,1.84
9103.00,1.84
9102.00,1.84
9101.00,1.84
9100.00,1.84
9099.00,1.84
9098.00,1.84
9097.00,1.84
9096.00,1.84
9095.00,1.84
9094.00,1.83
9093.00,1.83
9092.00,1.83
9091.00,1.83
9090.00,1.83
9089.00,1.83
9088.00,1.83
9087.00,1.82
9086.00,1.82
9085.00,1.82
9084.00,1.82
9083.00,1.82
9082.00,1.82
9081.00,1.82
9080.00,1.82
9079.00,1.82
9078.00,1.82
9077.00,1.82
9076.00,1.82
9075.00,1.82
9074.00,1.82
9073.00,1.82
9072.00,1.82
9071.00,1.82
9070.00,1.82
9069.00,1.82
9068.00,1.82
9067.00,1.82
9066.00,1.82
9065.00,1.82
9064.00,1.82
9063.00,1.82
9062.00,1.82
9061.00,1.82
9060.00,1.82
9059.00,1.81
9058.00,1.81
9057.00,1.81
9056.00,1.81
9055.00,1.81
9054.00,1.81
9053.00,1.81
9052.00,1.81
9051.00,1.80
9050.00,1.80
9049.00,1.80
9048.00,1.80
9047.00,1.80
9046.00,1.80
9045.00,1.80
9044.00,1.81
9043.00,1.81
9042.00,1.81
9041.00,1.81
9040.00,1.81
9039.00,1.81
9038.00,1.81
9037.00,1.81
9036.00,1.81
9035.00,1.81
9034.00,1.81
9033.00,1.81
9032.00,1.81
9031.00,1.81
9030.00,1.81
9029.00,1.81
9028.00,1.82
9027.00,1.82
9026.00,1.82
9025.00,1.82
9024.00,1.82
9023.00,1.82
9022.00,1.82
9021.00,1.82
9020.00,1.82
9019.00,1.82
9018.00,1.82
9017.00,1.82
9016.00,1.82
9015.00,1.83
9014.00,1.83
9013.00,1.83
9012.00,1.83
9011.00,1.83
9010.00,1.83
9009.00,1.83
9008.00,1.83
9007.00,1.83
9006.00,1.83
9005.00,1.83
9004.00,1.82
9003.00,1.82
9002.00,1.82
9001.00,1.82
9000.00,1.82
8999.00,1.82
8998.00,1.82
8997.00,1.82
8996.00,1.82
8995.00,1.82
8994.00,1.83
8993.00,1.83
8992.00,1.83
8991.00,1.83
8990.00,1.83
8989.00,1.83
8988.00,1.83
8987.00,1.83
8986.00,1.83
8985.00,1.83
8984.00,1.83
8983.00,1.83
8982.00,1.83
8981.00,1.82
8980.00,1.82
8979.00,1.82
8978.00,1.82
8977.00,1.82
8976.00,1.82
8975.00,1.82
8974.00,1.82
8973.00,1.82
8972.00,1.82
8971.00,1.82
8970.00,1.82
8969.00,1.82
8968.00,1.82
8967.00,1.82
8966.00,1.82
8965.00,1.82
8964.00,1.82
8963.00,1.82
8962.00,1.83
8961.00,1.83
8960.00,1.83
8959.00,1.83
8958.00,1.83
8957.00,1.83
8956.00,1.83
8955.00,1.83
8954.00,1.83
8953.00,1.83
8952.00,1.83
8951.00,1.83
8950.00,1.83
8949.00,1.83
8948.00,1.83
8947.00,1.83
8946.00,1.83
8945.00,1.83
8944.00,1.83
8943.00,1.83
8942.00,1.83
8941.00,1.82
8940.00,1.82
8939.00,1.82
8938.00,1.82
8937.00,1.82
8936.00,1.82
8935.00,1.81
8934.00,1.81
8933.00,1.81
8932.00,1.81
8931.00,1.81
8930.00,1.81
8929.00,1.81
8928.00,1.81
8927.00,1.81
8926.00,1.81
8925.00,1.81
8924.00,1.81
8923.00,1.81
8922.00,1.81
8921.00,1.81
8920.00,1.81
8919.00,1.81
8918.00,1.81
8917.00,1.81
8916.00,1.81
8915.00,1.81
8914.00,1.81
8913.00,1.81
8912.00,1.81
8911.00,1.81
8910.00,1.81
8909.00,1.81
8908.00,1.81
8907.00,1.81
8906.00,1.81
8905.00,1.81
8904.00,1.81
8903.00,1.81
8902.00,1.81
8901.00,1.81
8900.00,1.81
8899.00,1.81
8898.00,1.81
8897.00,1.81
8896.00,1.81
8895.00,1.81
8894.00,1.81
8893.00,1.82
8892.00,1.82
8891.00,1.82
8890.00,1.82
8889.00,1.82
8888.00,1.82
8887.00,1.82
8886.00,1.82
8885.00,1.82
8884.00,1.82
8883.00,1.83
8882.00,1.83
8881.00,1.83
8880.00,1.83
8879.00,1.83
8878.00,1.83
8877.00,1.83
8876.00,1.83
8875.00,1.83
8874.00,1.83
8873.00,1.83
8872.00,1.83
8871.00,1.83
8870.00,1.83
8869.00,1.83
8868.00,1.83
8867.00,1.83
8866.00,1.83
8865.00,1.83
8864.00,1.83
8863.00,1.83
8862.00,1.83
8861.00,1.83
8860.00,1.83
8859.00,1.83
8858.00,1.83
8857.00,1.83
8856.00,1.83
8855.00,1.83
8854.00,1.83
8853.00,1.83
8852.00,1.83
8851.00,1.83
8850.00,1.83
8849.00,1.83
8848.00,1.83
8847.00,1.83
8846.00,1.83
8845.00,1.83
8844.00,1.83
8843.00,1.83
8842.00,1.83
8841.00,1.83
8840.00,1.83
8839.00,1.83
8838.00,1.83
8837.00,1.83
8836.00,1.83
8835.00,1.83
8834.00,1.83
8833.00,1.83
8832.00,1.83
8831.00,1.83
8830.00,1.82
8829.00,1.82
8828.00,1.82
8827.00,1.82
8826.00,1.82
8825.00,1.82
8824.00,1.82
8823.00,1.82
8822.00,1.81
8821.00,1.81
8820.00,1.81
8819.00,1.81
8818.00,1.81
8817.00,1.81
8816.00,1.81
8815.00,1.81
8814.00,1.81
8813.00,1.80
8812.00,1.80
8811.00,1.80
8810.00,1.80
8809.00,1.80
8808.00,1.80
8807.00,1.80
8806.00,1.80
8805.00,1.80
8804.00,1.80
8803.00,1.80
8802.00,1.79
8801.00,1.79
8800.00,1.79
8799.00,1.79
8798.00,1.79
8797.00,1.79
8796.00,1.79
8795.00,1.79
8794.00,1.79
8793.00,1.79
8792.00,1.79
8791.00,1.79
8790.00,1.79
8789.00,1.78
8788.00,1.78
8787.00,1.78
8786.00,1.78
8785.00,1.78
8784.00,1.78
8783.00,1.78
8782.00,1.78
8781.00,1.78
8780.00,1.78
8779.00,1.78
8778.00,1.78
8777.00,1.78
8776.00,1.78
8775.00,1.78
8774.00,1.78
8773.00,1.78
8772.00,1.78
8771.00,1.78
8770.00,1.78
8769.00,1.77
8768.00,1.77
8767.00,1.77
8766.00,1.77
8765.00,1.77
8764.00,1.77
8763.00,1.77
8762.00,1.77
8761.00,1.77
8760.00,1.76
8759.00,1.76
8758.00,1.76
8757.00,1.76
8756.00,1.76
8755.00,1.76
8754.00,1.76
8753.00,1.76
8752.00,1.76
8751.00,1.76
8750.00,1.76
8749.00,1.75
8748.00,1.75
8747.00,1.75
8746.00,1.75
8745.00,1.75
8744.00,1.75
8743.00,1.75
8742.00,1.75
8741.00,1.75
8740.00,1.75
8739.00,1.75
8738.00,1.75
8737.00,1.75
8736.00,1.75
8735.00,1.75
8734.00,1.76
8733.00,1.76
8732.00,1.76
8731.00,1.76
8730.00,1.76
8729.00,1.76
8728.00,1.76
8727.00,1.77
8726.00,1.77
8725.00,1.77
8724.00,1.77
8723.00,1.77
8722.00,1.77
8721.00,1.78
8720.00,1.78
8719.00,1.78
8718.00,1.78
8717.00,1.78
8716.00,1.78
8715.00,1.78
8714.00,1.77
8713.00,1.77
8712.00,1.77
8711.00,1.77
8710.00,1.77
8709.00,1.77
8708.00,1.76
8707.00,1.76
8706.00,1.76
8705.00,1.76
8704.00,1.76
8703.00,1.75
8702.00,1.75
8701.00,1.75
8700.00,1.75
8699.00,1.74
8698.00,1.74
8697.00,1.74
8696.00,1.74
8695.00,1.74
8694.00,1.74
8693.00,1.74
8692.00,1.74
8691.00,1.74
8690.00,1.74
8689.00,1.74
8688.00,1.74
8687.00,1.74
8686.00,1.74
8685.00,1.74
8684.00,1.74
8683.00,1.74
8682.00,1.74
8681.00,1.75
8680.00,1.75
8679.00,1.75
8678.00,1.75
8677.00,1.75
8676.00,1.75
8675.00,1.75
8674.00,1.75
8673.00,1.75
8672.00,1.75
8671.00,1.74
8670.00,1.74
8669.00,1.74
8668.00,1.74
8667.00,1.74
8666.00,1.73
8665.00,1.73
8664.00,1.73
8663.00,1.73
8662.00,1.72
8661.00,1.72
8660.00,1.72
8659.00,1.72
8658.00,1.72
8657.00,1.72
8656.00,1.72
8655.00,1.72
8654.00,1.72
8653.00,1.72
8652.00,1.72
8651.00,1.72
8650.00,1.72
8649.00,1.72
8648.00,1.72
8647.00,1.72
8646.00,1.72
8645.00,1.72
8644.00,1.72
8643.00,1.72
8642.00,1.72
8641.00,1.72
8640.00,1.72
8639.00,1.72
8638.00,1.72
8637.00,1.72
8636.00,1.72
8635.00,1.72
8634.00,1.72
8633.00,1.72
8632.00,1.71
8631.00,1.71
8630.00,1.71
8629.00,1.71
8628.00,1.71
8627.00,1.71
8626.00,1.71
8625.00,1.70
8624.00,1.70
8623.00,1.70
8622.00,1.70
8621.00,1.70
8620.00,1.70
8619.00,1.70
8618.00,1.70
8617.00,1.70
8616.00,1.70
8615.00,1.70
8614.00,1.69
8613.00,1.69
8612.00,1.69
8611.00,1.69
8610.00,1.69
8609.00,1.69
8608.00,1.69
8607.00,1.69
8606.00,1.69
8605.00,1.69
8604.00,1.68
8603.00,1.68
8602.00,1.68
8601.00,1.68
8600.00,1.68
8599.00,1.68
8598.00,1.68
8597.00,1.68
8596.00,1.68
8595.00,1.68
8594.00,1.68
8593.00,1.68
8592.00,1.68
8591.00,1.68
8590.00,1.68
8589.00,1.68
8588.00,1.68
8587.00,1.68
8586.00,1.68
8585.00,1.68
8584.00,1.68
8583.00,1.68
8582.00,1.68
8581.00,1.68
8580.00,1.68
8579.00,1.68
8578.00,1.68
8577.00,1.67
8576.00,1.67
8575.00,1.67
8574.00,1.67
8573.00,1.67
8572.00,1.67
8571.00,1.67
8570.00,1.67
8569.00,1.66
8568.00,1.66
8567.00,1.66
8566.00,1.66
8565.00,1.66
8564.00,1.66
8563.00,1.66
8562.00,1.66
8561.00,1.66
8560.00,1.66
8559.00,1.66
8558.00,1.66
8557.00,1.66
8556.00,1.66
8555.00,1.66
8554.00,1.66
8553.00,1.66
8552.00,1.66
8551.00,1.66
8550.00,1.66
8549.00,1.66
8548.00,1.66
8547.00,1.66
8546.00,1.66
8545.00,1.66
8544.00,1.66
8543.00,1.66
8542.00,1.66
8541.00,1.66
8540.00,1.66
8539.00,1.66
8538.00,1.66
8537.00,1.66
8536.00,1.66
8535.00,1.66
8534.00,1.65
8533.00,1.65
8532.00,1.65
8531.00,1.65
8530.00,1.65
8529.00,1.65
8528.00,1.64
8527.00,1.64
8526.00,1.64
8525.00,1.64
8524.00,1.64
8523.00,1.64
8522.00,1.64
8521.00,1.64
8520.00,1.64
8519.00,1.64
8518.00,1.64
8517.00,1.64
8516.00,1.64
8515.00,1.65
8514.00,1.65
8513.00,1.65
8512.00,1.65
8511.00,1.65
8510.00,1.65
8509.00,1.65
8508.00,1.65
8507.00,1.65
8506.00,1.65
8505.00,1.65
8504.00,1.65
8503.00,1.65
8502.00,1.65
8501.00,1.65
8500.00,1.64
8499.00,1.64
8498.00,1.64
8497.00,1.64
8496.00,1.64
8495.00,1.64
8494.00,1.63
8493.00,1.63
8492.00,1.63
8491.00,1.63
8490.00,1.63
8489.00,1.63
8488.00,1.63
8487.00,1.63
8486.00,1.62
8485.00,1.62
8484.00,1.62
8483.00,1.62
8482.00,1.62
8481.00,1.62
8480.00,1.62
8479.00,1.61
8478.00,1.61
8477.00,1.61
8476.00,1.61
8475.00,1.61
8474.00,1.61
8473.00,1.60
8472.00,1.60
8471.00,1.60
8470.00,1.60
8469.00,1.60
8468.00,1.60
8467.00,1.60
8466.00,1.60
8465.00,1.59
8464.00,1.59
8463.00,1.59
8462.00,1.59
8461.00,1.59
8460.00,1.59
8459.00,1.59
8458.00,1.59
8457.00,1.59
8456.00,1.59
8455.00,1.59
8454.00,1.59
8453.00,1.58
8452.00,1.58
8451.00,1.58
8450.00,1.58
8449.00,1.58
8448.00,1.58
8447.00,1.58
8446.00,1.57
8445.00,1.57
8444.00,1.57
8443.00,1.57
8442.00,1.57
8441.00,1.57
8440.00,1.57
8439.00,1.57
8438.00,1.57
8437.00,1.57
8436.00,1.57
8435.00,1.57
8434.00,1.57
8433.00,1.57
8432.00,1.57
8431.00,1.57
8430.00,1.57
8429.00,1.57
8428.00,1.57
8427.00,1.57
8426.00,1.57
8425.00,1.58
8424.00,1.58
8423.00,1.58
8422.00,1.58
8421.00,1.58
8420.00,1.58
8419.00,1.58
8418.00,1.58
8417.00,1.58
8416.00,1.58
8415.00,1.58
8414.00,1.58
8413.00,1.58
8412.00,1.58
8411.00,1.59
8410.00,1.59
8409.00,1.59
8408.00,1.59
8407.00,1.59
8406.00,1.59
8405.00,1.60
8404.00,1.60
8403.00,1.60
8402.00,1.60
8401.00,1.60
8400.00,1.60
8399.00,1.60
8398.00,1.61
8397.00,1.61
8396.00,1.61
8395.00,1.61
8394.00,1.61
8393.00,1.61
8392.00,1.61
8391.00,1.61
8390.00,1.62
8389.00,1.62
8388.00,1.62
8387.00,1.62
8386.00,1.62
8385.00,1.62
8384.00,1.62
8383.00,1.62
8382.00,1.62
8381.00,1.63
8380.00,1.63
8379.00,1.63
8378.00,1.63
8377.00,1.63
8376.00,1.63
8375.00,1.63
8374.00,1.63
8373.00,1.63
8372.00,1.63
8371.00,1.63
8370.00,1.63
8369.00,1.63
8368.00,1.63
8367.00,1.63
8366.00,1.63
8365.00,1.64
8364.00,1.64
8363.00,1.64
8362.00,1.64
8361.00,1.64
8360.00,1.64
8359.00,1.64
8358.00,1.64
8357.00,1.64
8356.00,1.64
8355.00,1.64
8354.00,1.64
8353.00,1.64
8352.00,1.64
8351.00,1.64
8350.00,1.64
8349.00,1.64
8348.00,1.64
8347.00,1.64
8346.00,1.64
8345.00,1.64
8344.00,1.64
8343.00,1.64
8342.00,1.64
8341.00,1.64
8340.00,1.64
8339.00,1.64
8338.00,1.64
8337.00,1.64
8336.00,1.64
8335.00,1.64
8334.00,1.64
8333.00,1.64
8332.00,1.64
8331.00,1.63
8330.00,1.63
8329.00,1.63
8328.00,1.63
8327.00,1.63
8326.00,1.63
8325.00,1.63
8324.00,1.63
8323.00,1.63
8322.00,1.63
8321.00,1.64
8320.00,1.64
8319.00,1.64
8318.00,1.64
8317.00,1.64
8316.00,1.64
8315.00,1.64
8314.00,1.64
8313.00,1.64
8312.00,1.64
8311.00,1.65
8310.00,1.65
8309.00,1.65
8308.00,1.65
8307.00,1.65
8306.00,1.65
8305.00,1.65
8304.00,1.65
8303.00,1.65
8302.00,1.65
8301.00,1.65
8300.00,1.65
8299.00,1.65
8298.00,1.65
8297.00,1.65
8296.00,1.65
8295.00,1.65
8294.00,1.65
8293.00,1.65
8292.00,1.65
8291.00,1.66
8290.00,1.66
8289.00,1.66
8288.00,1.66
8287.00,1.66
8286.00,1.66
8285.00,1.67
8284.00,1.67
8283.00,1.67
8282.00,1.67
8281.00,1.68
8280.00,1.68
8279.00,1.68
8278.00,1.68
8277.00,1.68
8276.00,1.68
8275.00,1.68
8274.00,1.69
8273.00,1.69
8272.00,1.69
8271.00,1.69
8270.00,1.69
8269.00,1.68
8268.00,1.68
8267.00,1.68
8266.00,1.68
8265.00,1.68
8264.00,1.68
8263.00,1.68
8262.00,1.68
8261.00,1.68
8260.00,1.67
8259.00,1.67
8258.00,1.67
8257.00,1.67
8256.00,1.67
8255.00,1.67
8254.00,1.67
8253.00,1.67
8252.00,1.67
8251.00,1.67
8250.00,1.67
8249.00,1.68
8248.00,1.68
8247.00,1.68
8246.00,1.68
8245.00,1.68
8244.00,1.68
8243.00,1.69
8242.00,1.69
8241.00,1.69
8240.00,1.69
8239.00,1.69
8238.00,1.69
8237.00,1.69
8236.00,1.70
8235.00,1.70
8234.00,1.70
8233.00,1.70
8232.00,1.70
8231.00,1.70
8230.00,1.70
8229.00,1.70
8228.00,1.70
8227.00,1.70
8226.00,1.70
8225.00,1.70
8224.00,1.70
8223.00,1.70
8222.00,1.70
8221.00,1.70
8220.00,1.70
8219.00,1.70
8218.00,1.70
8217.00,1.70
8216.00,1.71
8215.00,1.71
8214.00,1.71
8213.00,1.71
8212.00,1.71
8211.00,1.71
8210.00,1.71
8209.00,1.71
8208.00,1.71
8207.00,1.71
8206.00,1.71
8205.00,1.71
8204.00,1.71
8203.00,1.72
8202.00,1.72
8201.00,1.72
8200.00,1.72
8199.00,1.72
8198.00,1.72
8197.00,1.72
8196.00,1.72
8195.00,1.73
8194.00,1.73
8193.00,1.73
8192.00,1.73
8191.00,1.73
8190.00,1.73
8189.00,1.73
8188.00,1.73
8187.00,1.73
8186.00,1.73
8185.00,1.73
8184.00,1.73
8183.00,1.73
8182.00,1.73
8181.00,1.73
8180.00,1.73
8179.00,1.73
8178.00,1.73
8177.00,1.73
8176.00,1.73
8175.00,1.73
8174.00,1.73
8173.00,1.73
8172.00,1.73
8171.00,1.73
8170.00,1.73
8169.00,1.73
8168.00,1.73
8167.00,1.73
8166.00,1.73
8165.00,1.73
8164.00,1.73
8163.00,1.73
8162.00,1.73
8161.00,1.73
8160.00,1.73
8159.00,1.73
8158.00,1.73
8157.00,1.73
8156.00,1.73
8155.00,1.73
8154.00,1.74
8153.00,1.74
8152.00,1.74
8151.00,1.74
8150.00,1.74
8149.00,1.74
8148.00,1.74
8147.00,1.74
8146.00,1.74
8145.00,1.74
8144.00,1.74
8143.00,1.74
8142.00,1.74
8141.00,1.74
8140.00,1.74
8139.00,1.74
8138.00,1.74
8137.00,1.74
8136.00,1.74
8135.00,1.74
8134.00,1.74
8133.00,1.74
8132.00,1.74
8131.00,1.74
8130.00,1.74
8129.00,1.74
8128.00,1.74
8127.00,1.74
8126.00,1.74
8125.00,1.74
8124.00,1.74
8123.00,1.74
8122.00,1.74
8121.00,1.74
8120.00,1.74
8119.00,1.74
8118.00,1.74
8117.00,1.75
8116.00,1.75
8115.00,1.75
8114.00,1.75
8113.00,1.75
8112.00,1.75
8111.00,1.75
8110.00,1.76
8109.00,1.76
8108.00,1.76
8107.00,1.76
8106.00,1.76
8105.00,1.76
8104.00,1.76
8103.00,1.76
8102.00,1.76
8101.00,1.76
8100.00,1.76
8099.00,1.76
8098.00,1.76
8097.00,1.76
8096.00,1.76
8095.00,1.76
8094.00,1.76
8093.00,1.76
8092.00,1.76
8091.00,1.76
8090.00,1.76
8089.00,1.76
8088.00,1.77
8087.00,1.77
8086.00,1.77
8085.00,1.77
8084.00,1.77
8083.00,1.77
8082.00,1.77
8081.00,1.77
8080.00,1.77
8079.00,1.77
8078.00,1.77
8077.00,1.77
8076.00,1.77
8075.00,1.77
8074.00,1.77
8073.00,1.78
8072.00,1.78
8071.00,1.78
8070.00,1.78
8069.00,1.78
8068.00,1.78
8067.00,1.78
8066.00,1.78
8065.00,1.78
8064.00,1.78
8063.00,1.78
8062.00,1.78
8061.00,1.78
8060.00,1.78
8059.00,1.78
8058.00,1.78
8057.00,1.78
8056.00,1.78
8055.00,1.78
8054.00,1.78
8053.00,1.78
8052.00,1.77
8051.00,1.77
8050.00,1.77
8049.00,1.77
8048.00,1.77
8047.00,1.77
8046.00,1.77
8045.00,1.77
8044.00,1.77
8043.00,1.77
8042.00,1.78
8041.00,1.78
8040.00,1.78
8039.00,1.78
8038.00,1.78
8037.00,1.78
8036.00,1.78
8035.00,1.78
8034.00,1.78
8033.00,1.78
8032.00,1.78
8031.00,1.78
8030.00,1.78
8029.00,1.78
8028.00,1.78
8027.00,1.78
8026.00,1.78
8025.00,1.78
8024.00,1.78
8023.00,1.78
8022.00,1.78
8021.00,1.78
8020.00,1.78
8019.00,1.78
8018.00,1.78
8017.00,1.78
8016.00,1.78
8015.00,1.78
8014.00,1.79
8013.00,1.79
8012.00,1.79
8011.00,1.79
8010.00,1.79
8009.00,1.79
8008.00,1.79
8007.00,1.79
8006.00,1.79
8005.00,1.79
8004.00,1.79
8003.00,1.79
8002.00,1.79
8001.00,1.79
8000.00,1.79
7999.00,1.79
7998.00,1.79
7997.00,1.79
7996.00,1.79
7995.00,1.79
7994.00,1.79
7993.00,1.79
7992.00,1.79
7991.00,1.79
7990.00,1.79
7989.00,1.79
7988.00,1.79
7987.00,1.79
7986.00,1.79
7985.00,1.79
7984.00,1.80
7983.00,1.80
7982.00,1.80
7981.00,1.80
7980.00,1.80
7979.00,1.80
7978.00,1.80
7977.00,1.80
7976.00,1.80
7975.00,1.80
7974.00,1.80
7973.00,1.80
7972.00,1.80
7971.00,1.80
7970.00,1.80
7969.00,1.80
7968.00,1.80
7967.00,1.80
7966.00,1.80
7965.00,1.80
7964.00,1.80
7963.00,1.80
7962.00,1.80
7961.00,1.80
7960.00,1.80
7959.00,1.80
7958.00,1.81
7957.00,1.81
7956.00,1.81
7955.00,1.81
7954.00,1.81
7953.00,1.81
7952.00,1.81
7951.00,1.81
7950.00,1.81
7949.00,1.81
7948.00,1.81
7947.00,1.81
7946.00,1.81
7945.00,1.81
7944.00,1.81
7943.00,1.81
7942.00,1.81
7941.00,1.81
7940.00,1.81
7939.00,1.81
7938.00,1.81
7937.00,1.81
7936.00,1.81
7935.00,1.81
7934.00,1.81
7933.00,1.81
7932.00,1.81
7931.00,1.81
7930.00,1.81
7929.00,1.81
7928.00,1.81
7927.00,1.81
7926.00,1.81
7925.00,1.81
7924.00,1.81
7923.00,1.81
7922.00,1.81
7921.00,1.81
7920.00,1.81
7919.00,1.81
7918.00,1.81
7917.00,1.81
7916.00,1.81
7915.00,1.81
7914.00,1.82
7913.00,1.82
7912.00,1.82
7911.00,1.82
7910.00,1.82
7909.00,1.82
7908.00,1.82
7907.00,1.82
7906.00,1.82
7905.00,1.82
7904.00,1.82
7903.00,1.82
7902.00,1.82
7901.00,1.82
7900.00,1.82
7899.00,1.82
7898.00,1.82
7897.00,1.82
7896.00,1.82
7895.00,1.82
7894.00,1.82
7893.00,1.82
7892.00,1.82
7891.00,1.82
7890.00,1.82
7889.00,1.82
7888.00,1.82
7887.00,1.82
7886.00,1.82
7885.00,1.82
7884.00,1.82
7883.00,1.82
7882.00,1.82
7881.00,1.82
7880.00,1.82
7879.00,1.82
7878.00,1.82
7877.00,1.82
7876.00,1.82
7875.00,1.82
7874.00,1.82
7873.00,1.82
7872.00,1.82
7871.00,1.82
7870.00,1.82
7869.00,1.82
7868.00,1.82
7867.00,1.82
7866.00,1.82
7865.00,1.82
7864.00,1.83
7863.00,1.83
7862.00,1.83
7861.00,1.83
7860.00,1.83
7859.00,1.83
7858.00,1.83
7857.00,1.84
7856.00,1.84
7855.00,1.84
7854.00,1.84
7853.00,1.84
7852.00,1.84
7851.00,1.84
7850.00,1.84
7849.00,1.84
7848.00,1.84
7847.00,1.84
7846.00,1.84
7845.00,1.84
7844.00,1.84
7843.00,1.84
7842.00,1.84
7841.00,1.84
7840.00,1.84
7839.00,1.84
7838.00,1.84
7837.00,1.84
7836.00,1.84
7835.00,1.84
7834.00,1.83
7833.00,1.83
7832.00,1.83
7831.00,1.83
7830.00,1.84
7829.00,1.84
7828.00,1.84
7827.00,1.84
7826.00,1.84
7825.00,1.84
7824.00,1.84
7823.00,1.84
7822.00,1.84
7821.00,1.84
7820.00,1.84
7819.00,1.84
7818.00,1.84
7817.00,1.84
7816.00,1.84
7815.00,1.84
7814.00,1.84
7813.00,1.84
7812.00,1.84
7811.00,1.84
7810.00,1.84
7809.00,1.85
7808.00,1.85
7807.00,1.85
7806.00,1.85
7805.00,1.85
7804.00,1.85
7803.00,1.85
7802.00,1.85
7801.00,1.85
7800.00,1.85
7799.00,1.85
7798.00,1.85
7797.00,1.85
7796.00,1.85
7795.00,1.85
7794.00,1.85
7793.00,1.85
7792.00,1.85
7791.00,1.85
7790.00,1.86
7789.00,1.86
7788.00,1.86
7787.00,1.86
7786.00,1.86
7785.00,1.86
7784.00,1.86
7783.00,1.86
7782.00,1.86
7781.00,1.86
7780.00,1.86
7779.00,1.85
7778.00,1.85
7777.00,1.85
7776.00,1.85
7775.00,1.85
7774.00,1.85
7773.00,1.85
7772.00,1.85
7771.00,1.85
7770.00,1.85
7769.00,1.85
7768.00,1.85
7767.00,1.85
7766.00,1.85
7765.00,1.85
7764.00,1.85
7763.00,1.85
7762.00,1.85
7761.00,1.85
7760.00,1.85
7759.00,1.85
7758.00,1.85
7757.00,1.86
7756.00,1.86
7755.00,1.86
7754.00,1.86
7753.00,1.86
7752.00,1.86
7751.00,1.86
7750.00,1.86
7749.00,1.86
7748.00,1.85
7747.00,1.85
7746.00,1.85
7745.00,1.85
7744.00,1.85
7743.00,1.85
7742.00,1.85
7741.00,1.85
7740.00,1.85
7739.00,1.85
7738.00,1.85
7737.00,1.85
7736.00,1.85
7735.00,1.85
7734.00,1.86
7733.00,1.86
7732.00,1.86
7731.00,1.86
7730.00,1.86
7729.00,1.86
7728.00,1.86
7727.00,1.86
7726.00,1.86
7725.00,1.86
7724.00,1.86
7723.00,1.85
7722.00,1.85
7721.00,1.85
7720.00,1.85
7719.00,1.85
7718.00,1.85
7717.00,1.85
7716.00,1.85
7715.00,1.85
7714.00,1.85
7713.00,1.85
7712.00,1.85
7711.00,1.85
7710.00,1.85
7709.00,1.85
7708.00,1.85
7707.00,1.85
7706.00,1.85
7705.00,1.85
7704.00,1.85
7703.00,1.85
7702.00,1.85
7701.00,1.85
7700.00,1.85
7699.00,1.85
7698.00,1.85
7697.00,1.85
7696.00,1.85
7695.00,1.85
7694.00,1.85
7693.00,1.85
7692.00,1.86
7691.00,1.86
7690.00,1.86
7689.00,1.86
7688.00,1.86
7687.00,1.86
7686.00,1.86
7685.00,1.86
7684.00,1.86
7683.00,1.86
7682.00,1.86
7681.00,1.86
7680.00,1.86
7679.00,1.86
7678.00,1.86
7677.00,1.86
7676.00,1.86
7675.00,1.86
7674.00,1.86
7673.00,1.86
7672.00,1.86
7671.00,1.86
7670.00,1.86
7669.00,1.85
7668.00,1.85
7667.00,1.85
7666.00,1.85
7665.00,1.85
7664.00,1.85
7663.00,1.85
7662.00,1.85
7661.00,1.85
7660.00,1.85
7659.00,1.85
7658.00,1.85
7657.00,1.85
7656.00,1.85
7655.00,1.85
7654.00,1.85
7653.00,1.85
7652.00,1.85
7651.00,1.85
7650.00,1.85
7649.00,1.85
7648.00,1.85
7647.00,1.85
7646.00,1.85
7645.00,1.85
7644.00,1.85
7643.00,1.86
7642.00,1.86
7641.00,1.86
7640.00,1.86
7639.00,1.86
7638.00,1.86
7637.00,1.86
7636.00,1.86
7635.00,1.86
7634.00,1.86
7633.00,1.86
7632.00,1.86
7631.00,1.86
7630.00,1.86
7629.00,1.86
7628.00,1.86
7627.00,1.86
7626.00,1.86
7625.00,1.86
7624.00,1.86
7623.00,1.86
7622.00,1.86
7621.00,1.86
7620.00,1.86
7619.00,1.86
7618.00,1.86
7617.00,1.86
7616.00,1.86
7615.00,1.85
7614.00,1.85
7613.00,1.85
7612.00,1.85
7611.00,1.85
7610.00,1.85
7609.00,1.85
7608.00,1.85
7607.00,1.84
7606.00,1.84
7605.00,1.84
7604.00,1.84
7603.00,1.84
7602.00,1.84
7601.00,1.84
7600.00,1.84
7599.00,1.84
7598.00,1.84
7597.00,1.84
7596.00,1.84
7595.00,1.84
7594.00,1.84
7593.00,1.84
7592.00,1.84
7591.00,1.84
7590.00,1.84
7589.00,1.84
7588.00,1.84
7587.00,1.84
7586.00,1.84
7585.00,1.85
7584.00,1.85
7583.00,1.85
7582.00,1.85
7581.00,1.85
7580.00,1.85
7579.00,1.85
7578.00,1.85
7577.00,1.85
7576.00,1.85
7575.00,1.85
7574.00,1.85
7573.00,1.85
7572.00,1.85
7571.00,1.85
7570.00,1.85
7569.00,1.85
7568.00,1.85
7567.00,1.85
7566.00,1.85
7565.00,1.85
7564.00,1.85
7563.00,1.84
7562.00,1.84
7561.00,1.84
7560.00,1.84
7559.00,1.84
7558.00,1.84
7557.00,1.84
7556.00,1.84
7555.00,1.84
7554.00,1.84
7553.00,1.84
7552.00,1.83
7551.00,1.83
7550.00,1.83
7549.00,1.83
7548.00,1.83
7547.00,1.83
7546.00,1.83
7545.00,1.83
7544.00,1.83
7543.00,1.83
7542.00,1.83
7541.00,1.83
7540.00,1.83
7539.00,1.83
7538.00,1.83
7537.00,1.83
7536.00,1.82
7535.00,1.82
7534.00,1.82
7533.00,1.82
7532.00,1.82
7531.00,1.82
7530.00,1.82
7529.00,1.82
7528.00,1.82
7527.00,1.82
7526.00,1.82
7525.00,1.82
7524.00,1.82
7523.00,1.82
7522.00,1.82
7521.00,1.82
7520.00,1.82
7519.00,1.82
7518.00,1.82
7517.00,1.81
7516.00,1.81
7515.00,1.81
7514.00,1.81
7513.00,1.81
7512.00,1.81
7511.00,1.81
7510.00,1.81
7509.00,1.81
7508.00,1.81
7507.00,1.80
7506.00,1.80
7505.00,1.80
7504.00,1.80
7503.00,1.80
7502.00,1.80
7501.00,1.80
7500.00,1.80
7499.00,1.80
7498.00,1.80
7497.00,1.80
7496.00,1.80
7495.00,1.80
7494.00,1.80
7493.00,1.80
7492.00,1.79
7491.00,1.79
7490.00,1.79
7489.00,1.79
7488.00,1.79
7487.00,1.79
7486.00,1.79
7485.00,1.79
7484.00,1.79
7483.00,1.79
7482.00,1.78
7481.00,1.78
7480.00,1.78
7479.00,1.78
7478.00,1.78
7477.00,1.78
7476.00,1.78
7475.00,1.78
7474.00,1.78
7473.00,1.78
7472.00,1.78
7471.00,1.78
7470.00,1.78
7469.00,1.78
7468.00,1.78
7467.00,1.78
7466.00,1.78
7465.00,1.78
7464.00,1.77
7463.00,1.77
7462.00,1.77
7461.00,1.77
7460.00,1.77
7459.00,1.77
7458.00,1.77
7457.00,1.77
7456.00,1.77
7455.00,1.77
7454.00,1.77
7453.00,1.77
7452.00,1.77
7451.00,1.77
7450.00,1.77
7449.00,1.77
7448.00,1.77
7447.00,1.77
7446.00,1.77
7445.00,1.77
7444.00,1.77
7443.00,1.76
7442.00,1.76
7441.00,1.76
7440.00,1.76
7439.00,1.76
7438.00,1.76
7437.00,1.76
7436.00,1.75
7435.00,1.75
7434.00,1.75
7433.00,1.75
7432.00,1.75
7431.00,1.75
7430.00,1.74
7429.00,1.74
7428.00,1.74
7427.00,1.74
7426.00,1.74
7425.00,1.74
7424.00,1.74
7423.00,1.73
7422.00,1.73
7421.00,1.73
7420.00,1.73
7419.00,1.73
7418.00,1.73
7417.00,1.73
7416.00,1.73
7415.00,1.72
7414.00,1.72
7413.00,1.72
7412.00,1.72
7411.00,1.72
7410.00,1.71
7409.00,1.71
7408.00,1.71
7407.00,1.71
7406.00,1.71
7405.00,1.70
7404.00,1.70
7403.00,1.70
7402.00,1.70
7401.00,1.70
7400.00,1.69
7399.00,1.69
7398.00,1.69
7397.00,1.69
7396.00,1.69
7395.00,1.68
7394.00,1.68
7393.00,1.68
7392.00,1.68
7391.00,1.68
7390.00,1.67
7389.00,1.67
7388.00,1.67
7387.00,1.67
7386.00,1.67
7385.00,1.67
7384.00,1.66
7383.00,1.66
7382.00,1.66
7381.00,1.66
7380.00,1.66
7379.00,1.66
7378.00,1.66
7377.00,1.66
7376.00,1.66
7375.00,1.66
7374.00,1.66
7373.00,1.66
7372.00,1.66
7371.00,1.66
7370.00,1.66
7369.00,1.66
7368.00,1.66
7367.00,1.66
7366.00,1.66
7365.00,1.66
7364.00,1.66
7363.00,1.66
7362.00,1.66
7361.00,1.65
7360.00,1.65
7359.00,1.65
7358.00,1.65
7357.00,1.65
7356.00,1.65
7355.00,1.65
7354.00,1.65
7353.00,1.65
7352.00,1.65
7351.00,1.65
7350.00,1.65
7349.00,1.65
7348.00,1.65
7347.00,1.64
7346.00,1.64
7345.00,1.64
7344.00,1.64
7343.00,1.64
7342.00,1.64
7341.00,1.64
7340.00,1.64
7339.00,1.64
7338.00,1.64
7337.00,1.64
7336.00,1.64
7335.00,1.64
7334.00,1.64
7333.00,1.64
7332.00,1.64
7331.00,1.64
7330.00,1.64
7329.00,1.64
7328.00,1.64
7327.00,1.64
7326.00,1.64
7325.00,1.63
7324.00,1.63
7323.00,1.63
7322.00,1.63
7321.00,1.63
7320.00,1.63
7319.00,1.63
7318.00,1.63
7317.00,1.62
7316.00,1.62
7315.00,1.62
7314.00,1.62
7313.00,1.62
7312.00,1.62
7311.00,1.62
7310.00,1.62
7309.00,1.62
7308.00,1.61
7307.00,1.61
7306.00,1.61
7305.00,1.61
7304.00,1.61
7303.00,1.61
7302.00,1.61
7301.00,1.61
7300.00,1.60
7299.00,1.60
7298.00,1.60
7297.00,1.60
7296.00,1.60
7295.00,1.59
7294.00,1.59
7293.00,1.59
7292.00,1.59
7291.00,1.58
7290.00,1.58
7289.00,1.58
7288.00,1.58
7287.00,1.58
7286.00,1.57
7285.00,1.57
7284.00,1.57
7283.00,1.57
7282.00,1.57
7281.00,1.57
7280.00,1.57
7279.00,1.57
7278.00,1.56
7277.00,1.56
7276.00,1.56
7275.00,1.56
7274.00,1.56
7273.00,1.56
7272.00,1.56
7271.00,1.56
7270.00,1.56
7269.00,1.56
7268.00,1.56
7267.00,1.56
7266.00,1.55
7265.00,1.55
7264.00,1.55
7263.00,1.55
7262.00,1.55
7261.00,1.54
7260.00,1.54
7259.00,1.54
7258.00,1.54
7257.00,1.53
7256.00,1.53
7255.00,1.53
7254.00,1.52
7253.00,1.52
7252.00,1.52
7251.00,1.51
7250.00,1.51
7249.00,1.51
7248.00,1.50
7247.00,1.50
7246.00,1.50
7245.00,1.49
7244.00,1.49
7243.00,1.48
7242.00,1.48
7241.00,1.47
7240.00,1.47
7239.00,1.46
7238.00,1.46
7237.00,1.45
7236.00,1.45
7235.00,1.44
7234.00,1.44
7233.00,1.43
7232.00,1.43
7231.00,1.42
7230.00,1.42
7229.00,1.41
7228.00,1.41
7227.00,1.40
7226.00,1.40
7225.00,1.40
7224.00,1.39
7223.00,1.39
7222.00,1.38
7221.00,1.38
7220.00,1.38
7219.00,1.37
7218.00,1.37
7217.00,1.37
7216.00,1.36
7215.00,1.36
7214.00,1.35
7213.00,1.35
7212.00,1.34
7211.00,1.34
7210.00,1.33
7209.00,1.33
7208.00,1.32
7207.00,1.32
7206.00,1.31
7205.00,1.31
7204.00,1.30
7203.00,1.30
7202.00,1.29
7201.00,1.29
7200.00,1.28
7199.00,1.28
7198.00,1.27
7197.00,1.27
7196.00,1.26
7195.00,1.26
7194.00,1.25
7193.00,1.25
7192.00,1.24
7191.00,1.24
7190.00,1.23
7189.00,1.23
7188.00,1.22
7187.00,1.22
7186.00,1.21
7185.00,1.21
7184.00,1.20
7183.00,1.20
7182.00,1.20
7181.00,1.19
7180.00,1.19
7179.00,1.18
7178.00,1.18
7177.00,1.17
7176.00,1.17
7175.00,1.17
7174.00,1.16
7173.00,1.16
7172.00,1.16
7171.00,1.15
7170.00,1.15
7169.00,1.15
7168.00,1.14
7167.00,1.14
7166.00,1.13
7165.00,1.13
7164.00,1.13
7163.00,1.12
7162.00,1.12
7161.00,1.12
7160.00,1.11
7159.00,1.11
7158.00,1.11
7157.00,1.10
7156.00,1.10
7155.00,1.10
7154.00,1.09
7153.00,1.09
7152.00,1.08
7151.00,1.08
7150.00,1.08
7149.00,1.07
7148.00,1.07
7147.00,1.06
7146.00,1.06
7145.00,1.05
7144.00,1.05
7143.00,1.04
7142.00,1.04
7141.00,1.03
7140.00,1.03
7139.00,1.03
7138.00,1.02
7137.00,1.02
7136.00,1.02
7135.00,1.01
7134.00,1.01
7133.00,1.01
7132.00,1.00
7131.00,1.00
7130.00,1.00
7129.00,1.00
7128.00,0.99
7127.00,0.99
7126.00,0.99
7125.00,0.98
7124.00,0.98
7123.00,0.98
7122.00,0.98
7121.00,0.97
7120.00,0.97
7119.00,0.97
7118.00,0.96
7117.00,0.96
7116.00,0.96
7115.00,0.95
7114.00,0.95
7113.00,0.95
7112.00,0.94
7111.00,0.94
7110.00,0.94
7109.00,0.94
7108.00,0.93
7107.00,0.93
7106.00,0.92
7105.00,0.92
7104.00,0.92
7103.00,0.91
7102.00,0.91
7101.00,0.91
7100.00,0.90
7099.00,0.90
7098.00,0.90
7097.00,0.89
7096.00,0.89
7095.00,0.89
7094.00,0.88
7093.00,0.88
7092.00,0.88
7091.00,0.87
7090.00,0.87
7089.00,0.87
7088.00,0.87
7087.00,0.87
7086.00,0.86
7085.00,0.86
7084.00,0.86
7083.00,0.86
7082.00,0.86
7081.00,0.85
7080.00,0.85
7079.00,0.85
7078.00,0.85
7077.00,0.85
7076.00,0.85
7075.00,0.85
7074.00,0.84
7073.00,0.84
7072.00,0.84
7071.00,0.84
7070.00,0.84
7069.00,0.84
7068.00,0.84
7067.00,0.84
7066.00,0.83
7065.00,0.83
7064.00,0.83
7063.00,0.83
7062.00,0.83
7061.00,0.83
7060.00,0.83
7059.00,0.82
7058.00,0.82
7057.00,0.82
7056.00,0.82
7055.00,0.82
7054.00,0.82
7053.00,0.81
7052.00,0.81
7051.00,0.81
7050.00,0.81
7049.00,0.81
7048.00,0.81
7047.00,0.81
7046.00,0.80
7045.00,0.80
7044.00,0.80
7043.00,0.80
7042.00,0.80
7041.00,0.80
7040.00,0.80
7039.00,0.80
7038.00,0.80
7037.00,0.80
7036.00,0.79
7035.00,0.79
7034.00,0.79
7033.00,0.79
7032.00,0.79
7031.00,0.79
7030.00,0.79
7029.00,0.78
7028.00,0.78
7027.00,0.78
7026.00,0.78
7025.00,0.78
7024.00,0.78
7023.00,0.78
7022.00,0.77
7021.00,0.77
7020.00,0.77
7019.00,0.77
7018.00,0.77
7017.00,0.77
7016.00,0.77
7015.00,0.77
7014.00,0.77
7013.00,0.77
7012.00,0.77
7011.00,0.77
7010.00,0.77
7009.00,0.77
7008.00,0.77
7007.00,0.77
7006.00,0.77
7005.00,0.77
7004.00,0.77
7003.00,0.77
7002.00,0.77
7001.00,0.77
7000.00,0.77
6999.00,0.77
6998.00,0.76
6997.00,0.76
6996.00,0.76
6995.00,0.76
6994.00,0.76
6993.00,0.76
6992.00,0.76
6991.00,0.76
6990.00,0.76
6989.00,0.76
6988.00,0.76
6987.00,0.76
6986.00,0.75
6985.00,0.75
6984.00,0.75
6983.00,0.75
6982.00,0.75
6981.00,0.75
6980.00,0.75
6979.00,0.75
6978.00,0.75
6977.00,0.75
6976.00,0.75
6975.00,0.75
6974.00,0.75
6973.00,0.75
6972.00,0.75
6971.00,0.75
6970.00,0.75
6969.00,0.75
6968.00,0.75
6967.00,0.75
6966.00,0.75
6965.00,0.75
6964.00,0.75
6963.00,0.75
6962.00,0.75
6961.00,0.75
6960.00,0.75
6959.00,0.75
6958.00,0.74
6957.00,0.74
6956.00,0.74
6955.00,0.74
6954.00,0.74
6953.00,0.74
6952.00,0.74
6951.00,0.74
6950.00,0.74
6949.00,0.74
6948.00,0.74
6947.00,0.74
6946.00,0.74
6945.00,0.74
6944.00,0.74
6943.00,0.74
6942.00,0.74
6941.00,0.74
6940.00,0.74
6939.00,0.74
6938.00,0.74
6937.00,0.74
6936.00,0.74
6935.00,0.74
6934.00,0.74
6933.00,0.74
6932.00,0.74
6931.00,0.74
6930.00,0.74
6929.00,0.74
6928.00,0.73
6927.00,0.73
6926.00,0.73
6925.00,0.73
6924.00,0.73
6923.00,0.73
6922.00,0.73
6921.00,0.73
6920.00,0.73
6919.00,0.73
6918.00,0.73
6917.00,0.73
6916.00,0.73
6915.00,0.73
6914.00,0.73
6913.00,0.73
6912.00,0.73
6911.00,0.73
6910.00,0.73
6909.00,0.73
6908.00,0.73
6907.00,0.73
6906.00,0.73
6905.00,0.73
6904.00,0.73
6903.00,0.73
6902.00,0.73
6901.00,0.73
6900.00,0.73
6899.00,0.73
6898.00,0.73
6897.00,0.73
6896.00,0.73
6895.00,0.73
6894.00,0.73
6893.00,0.73
6892.00,0.73
6891.00,0.73
6890.00,0.72
6889.00,0.72
6888.00,0.72
6887.00,0.72
6886.00,0.72
6885.00,0.72
6884.00,0.72
6883.00,0.72
6882.00,0.72
6881.00,0.72
6880.00,0.72
6879.00,0.72
6878.00,0.72
6877.00,0.72
6876.00,0.72
6875.00,0.72
6874.00,0.73
6873.00,0.73
6872.00,0.73
6871.00,0.73
6870.00,0.73
6869.00,0.73
6868.00,0.73
6867.00,0.73
6866.00,0.73
6865.00,0.73
6864.00,0.73
6863.00,0.73
6862.00,0.74
6861.00,0.74
6860.00,0.74
6859.00,0.74
6858.00,0.74
6857.00,0.74
6856.00,0.74
6855.00,0.74
6854.00,0.74
6853.00,0.74
6852.00,0.74
6851.00,0.74
6850.00,0.74
6849.00,0.74
6848.00,0.74
6847.00,0.74
6846.00,0.74
6845.00,0.74
6844.00,0.74
6843.00,0.74
6842.00,0.74
6841.00,0.74
6840.00,0.73
6839.00,0.73
6838.00,0.73
6837.00,0.73
6836.00,0.73
6835.00,0.73
6834.00,0.73
6833.00,0.73
6832.00,0.73
6831.00,0.73
6830.00,0.73
6829.00,0.74
6828.00,0.74
6827.00,0.74
6826.00,0.74
6825.00,0.74
6824.00,0.74
6823.00,0.74
6822.00,0.74
6821.00,0.74
6820.00,0.74
6819.00,0.74
6818.00,0.74
6817.00,0.74
6816.00,0.74
6815.00,0.74
6814.00,0.74
6813.00,0.74
6812.00,0.74
6811.00,0.74
6810.00,0.74
6809.00,0.74
6808.00,0.74
6807.00,0.74
6806.00,0.74
6805.00,0.75
6804.00,0.75
6803.00,0.75
6802.00,0.75
6801.00,0.75
6800.00,0.75
6799.00,0.75
6798.00,0.75
6797.00,0.75
6796.00,0.75
6795.00,0.75
6794.00,0.75
6793.00,0.76
6792.00,0.76
6791.00,0.76
6790.00,0.76
6789.00,0.76
6788.00,0.76
6787.00,0.76
6786.00,0.76
6785.00,0.76
6784.00,0.76
6783.00,0.76
6782.00,0.76
6781.00,0.76
6780.00,0.76
6779.00,0.76
6778.00,0.76
6777.00,0.76
6776.00,0.76
6775.00,0.76
6774.00,0.77
6773.00,0.77
6772.00,0.77
6771.00,0.77
6770.00,0.77
6769.00,0.77
6768.00,0.77
6767.00,0.77
6766.00,0.77
6765.00,0.77
6764.00,0.77
6763.00,0.77
6762.00,0.77
6761.00,0.77
6760.00,0.78
6759.00,0.78
6758.00,0.78
6757.00,0.78
6756.00,0.78
6755.00,0.78
6754.00,0.78
6753.00,0.78
6752.00,0.78
6751.00,0.78
6750.00,0.78
6749.00,0.78
6748.00,0.78
6747.00,0.78
6746.00,0.78
6745.00,0.78
6744.00,0.79
6743.00,0.79
6742.00,0.79
6741.00,0.79
6740.00,0.79
6739.00,0.79
6738.00,0.79
6737.00,0.79
6736.00,0.79
6735.00,0.79
6734.00,0.79
6733.00,0.79
6732.00,0.79
6731.00,0.79
6730.00,0.79
6729.00,0.79
6728.00,0.79
6727.00,0.79
6726.00,0.79
6725.00,0.79
6724.00,0.80
6723.00,0.80
6722.00,0.80
6721.00,0.80
6720.00,0.80
6719.00,0.80
6718.00,0.80
6717.00,0.81
6716.00,0.81
6715.00,0.81
6714.00,0.81
6713.00,0.81
6712.00,0.81
6711.00,0.81
6710.00,0.82
6709.00,0.82
6708.00,0.82
6707.00,0.82
6706.00,0.82
6705.00,0.82
6704.00,0.82
6703.00,0.82
6702.00,0.83
6701.00,0.83
6700.00,0.83
6699.00,0.83
6698.00,0.83
6697.00,0.83
6696.00,0.83
6695.00,0.83
6694.00,0.83
6693.00,0.84
6692.00,0.84
6691.00,0.84
6690.00,0.84
6689.00,0.84
6688.00,0.84
6687.00,0.84
6686.00,0.84
6685.00,0.84
6684.00,0.84
6683.00,0.84
6682.00,0.84
6681.00,0.85
6680.00,0.85
6679.00,0.85
6678.00,0.85
6677.00,0.85
6676.00,0.85
6675.00,0.85
6674.00,0.85
6673.00,0.85
6672.00,0.85
6671.00,0.85
6670.00,0.85
6669.00,0.85
6668.00,0.86
6667.00,0.86
6666.00,0.86
6665.00,0.86
6664.00,0.86
6663.00,0.86
6662.00,0.87
6661.00,0.87
6660.00,0.87
6659.00,0.87
6658.00,0.87
6657.00,0.88
6656.00,0.88
6655.00,0.88
6654.00,0.88
6653.00,0.88
6652.00,0.88
6651.00,0.88
6650.00,0.88
6649.00,0.88
6648.00,0.88
6647.00,0.88
6646.00,0.88
6645.00,0.88
6644.00,0.89
6643.00,0.89
6642.00,0.89
6641.00,0.89
6640.00,0.89
6639.00,0.89
6638.00,0.89
6637.00,0.89
6636.00,0.89
6635.00,0.89
6634.00,0.89
6633.00,0.89
6632.00,0.89
6631.00,0.89
6630.00,0.90
6629.00,0.90
6628.00,0.90
6627.00,0.90
6626.00,0.90
6625.00,0.90
6624.00,0.90
6623.00,0.91
6622.00,0.91
6621.00,0.91
6620.00,0.91
6619.00,0.91
6618.00,0.92
6617.00,0.92
6616.00,0.92
6615.00,0.92
6614.00,0.92
6613.00,0.93
6612.00,0.93
6611.00,0.93
6610.00,0.93
6609.00,0.93
6608.00,0.94
6607.00,0.94
6606.00,0.94
6605.00,0.94
6604.00,0.94
6603.00,0.94
6602.00,0.94
6601.00,0.94
6600.00,0.94
6599.00,0.94
6598.00,0.94
6597.00,0.94
6596.00,0.94
6595.00,0.95
6594.00,0.95
6593.00,0.95
6592.00,0.95
6591.00,0.95
6590.00,0.95
6589.00,0.95
6588.00,0.95
6587.00,0.95
6586.00,0.95
6585.00,0.96
6584.00,0.96
6583.00,0.96
6582.00,0.96
6581.00,0.96
6580.00,0.96
6579.00,0.97
6578.00,0.97
6577.00,0.97
6576.00,0.97
6575.00,0.97
6574.00,0.97
6573.00,0.97
6572.00,0.98
6571.00,0.98
6570.00,0.98
6569.00,0.98
6568.00,0.98
6567.00,0.98
6566.00,0.98
6565.00,0.98
6564.00,0.98
6563.00,0.99
6562.00,0.99
6561.00,0.99
6560.00,0.99
6559.00,0.99
6558.00,0.99
6557.00,0.99
6556.00,0.99
6555.00,1.00
6554.00,1.00
6553.00,1.00
6552.00,1.00
6551.00,1.00
6550.00,1.00
6549.00,1.00
6548.00,1.00
6547.00,1.01
6546.00,1.01
6545.00,1.01
6544.00,1.01
6543.00,1.01
6542.00,1.01
6541.00,1.01
6540.00,1.02
6539.00,1.02
6538.00,1.02
6537.00,1.02
6536.00,1.02
6535.00,1.02
6534.00,1.02
6533.00,1.02
6532.00,1.03
6531.00,1.03
6530.00,1.03
6529.00,1.03
6528.00,1.03
6527.00,1.03
6526.00,1.03
6525.00,1.03
6524.00,1.03
6523.00,1.03
6522.00,1.04
6521.00,1.04
6520.00,1.04
6519.00,1.04
6518.00,1.04
6517.00,1.04
6516.00,1.04
6515.00,1.04
6514.00,1.04
6513.00,1.04
6512.00,1.04
6511.00,1.05
6510.00,1.05
6509.00,1.05
6508.00,1.05
6507.00,1.05
6506.00,1.05
6505.00,1.05
6504.00,1.05
6503.00,1.05
6502.00,1.05
6501.00,1.05
6500.00,1.05
6499.00,1.05
6498.00,1.05
6497.00,1.05
6496.00,1.06
6495.00,1.06
6494.00,1.06
6493.00,1.06
6492.00,1.06
6491.00,1.06
6490.00,1.07
6489.00,1.07
6488.00,1.07
6487.00,1.07
6486.00,1.07
6485.00,1.07
6484.00,1.07
6483.00,1.08
6482.00,1.08
6481.00,1.08
6480.00,1.08
6479.00,1.08
6478.00,1.08
6477.00,1.08
6476.00,1.08
6475.00,1.08
6474.00,1.09
6473.00,1.09
6472.00,1.09
6471.00,1.09
6470.00,1.09
6469.00,1.09
6468.00,1.09
6467.00,1.09
6466.00,1.09
6465.00,1.09
6464.00,1.09
6463.00,1.09
6462.00,1.10
6461.00,1.10
6460.00,1.10
6459.00,1.10
6458.00,1.10
6457.00,1.10
6456.00,1.10
6455.00,1.10
6454.00,1.10
6453.00,1.10
6452.00,1.10
6451.00,1.10
6450.00,1.10
6449.00,1.10
6448.00,1.10
6447.00,1.10
6446.00,1.11
6445.00,1.11
6444.00,1.11
6443.00,1.11
6442.00,1.11
6441.00,1.11
6440.00,1.11
6439.00,1.11
6438.00,1.11
6437.00,1.12
6436.00,1.12
6435.00,1.12
6434.00,1.12
6433.00,1.12
6432.00,1.12
6431.00,1.12
6430.00,1.12
6429.00,1.12
6428.00,1.12
6427.00,1.12
6426.00,1.12
6425.00,1.12
6424.00,1.12
6423.00,1.12
6422.00,1.12
6421.00,1.12
6420.00,1.13
6419.00,1.13
6418.00,1.13
6417.00,1.13
6416.00,1.13
6415.00,1.13
6414.00,1.13
6413.00,1.13
6412.00,1.14
6411.00,1.14
6410.00,1.14
6409.00,1.14
6408.00,1.14
6407.00,1.14
6406.00,1.15
6405.00,1.15
6404.00,1.15
6403.00,1.15
6402.00,1.15
6401.00,1.15
6400.00,1.15
6399.00,1.15
6398.00,1.15
6397.00,1.16
6396.00,1.16
6395.00,1.16
6394.00,1.16
6393.00,1.16
6392.00,1.16
6391.00,1.16
6390.00,1.16
6389.00,1.16
6388.00,1.16
6387.00,1.16
6386.00,1.16
6385.00,1.16
6384.00,1.16
6383.00,1.17
6382.00,1.17
6381.00,1.17
6380.00,1.17
6379.00,1.17
6378.00,1.17
6377.00,1.17
6376.00,1.17
6375.00,1.17
6374.00,1.18
6373.00,1.18
6372.00,1.18
6371.00,1.18
6370.00,1.18
6369.00,1.18
6368.00,1.18
6367.00,1.18
6366.00,1.19
6365.00,1.19
6364.00,1.19
6363.00,1.19
6362.00,1.19
6361.00,1.19
6360.00,1.19
6359.00,1.19
6358.00,1.19
6357.00,1.19
6356.00,1.19
6355.00,1.19
6354.00,1.19
6353.00,1.20
6352.00,1.20
6351.00,1.20
6350.00,1.20
6349.00,1.20
6348.00,1.20
6347.00,1.20
6346.00,1.21
6345.00,1.21
6344.00,1.21
6343.00,1.21
6342.00,1.21
6341.00,1.21
6340.00,1.22
6339.00,1.22
6338.00,1.22
6337.00,1.22
6336.00,1.22
6335.00,1.22
6334.00,1.22
6333.00,1.22
6332.00,1.22
6331.00,1.22
6330.00,1.23
6329.00,1.23
6328.00,1.23
6327.00,1.23
6326.00,1.23
6325.00,1.23
6324.00,1.23
6323.00,1.23
6322.00,1.23
6321.00,1.24
6320.00,1.24
6319.00,1.24
6318.00,1.24
6317.00,1.24
6316.00,1.24
6315.00,1.25
6314.00,1.25
6313.00,1.25
6312.00,1.25
6311.00,1.25
6310.00,1.25
6309.00,1.26
6308.00,1.26
6307.00,1.26
6306.00,1.26
6305.00,1.26
6304.00,1.26
6303.00,1.26
6302.00,1.26
6301.00,1.27
6300.00,1.27
6299.00,1.27
6298.00,1.27
6297.00,1.27
6296.00,1.27
6295.00,1.27
6294.00,1.27
6293.00,1.28
6292.00,1.28
6291.00,1.28
6290.00,1.28
6289.00,1.28
6288.00,1.28
6287.00,1.29
6286.00,1.29
6285.00,1.29
6284.00,1.29
6283.00,1.29
6282.00,1.29
6281.00,1.29
6280.00,1.30
6279.00,1.30
6278.00,1.30
6277.00,1.30
6276.00,1.30
6275.00,1.30
6274.00,1.30
6273.00,1.30
6272.00,1.31
6271.00,1.31
6270.00,1.31
6269.00,1.31
6268.00,1.31
6267.00,1.31
6266.00,1.31
6265.00,1.32
6264.00,1.32
6263.00,1.32
6262.00,1.32
6261.00,1.33
6260.00,1.33
6259.00,1.33
6258.00,1.33
6257.00,1.33
6256.00,1.34
6255.00,1.34
6254.00,1.34
6253.00,1.34
6252.00,1.34
6251.00,1.35
6250.00,1.35
6249.00,1.35
6248.00,1.35
6247.00,1.35
6246.00,1.35
6245.00,1.36
6244.00,1.36
6243.00,1.36
6242.00,1.36
6241.00,1.36
6240.00,1.36
6239.00,1.36
6238.00,1.37
6237.00,1.37
6236.00,1.37
6235.00,1.37
6234.00,1.37
6233.00,1.37
6232.00,1.37
6231.00,1.38
6230.00,1.38
6229.00,1.38
6228.00,1.38
6227.00,1.39
6226.00,1.39
6225.00,1.39
6224.00,1.39
6223.00,1.39
6222.00,1.40
6221.00,1.40
6220.00,1.40
6219.00,1.40
6218.00,1.40
6217.00,1.40
6216.00,1.41
6215.00,1.41
6214.00,1.41
6213.00,1.41
6212.00,1.41
6211.00,1.41
6210.00,1.42
6209.00,1.42
6208.00,1.42
6207.00,1.42
6206.00,1.42
6205.00,1.42
6204.00,1.42
6203.00,1.43
6202.00,1.43
6201.00,1.43
6200.00,1.43
6199.00,1.43
6198.00,1.44
6197.00,1.44
6196.00,1.44
6195.00,1.44
6194.00,1.44
6193.00,1.44
6192.00,1.44
6191.00,1.45
6190.00,1.45
6189.00,1.45
6188.00,1.45
6187.00,1.45
6186.00,1.45
6185.00,1.45
6184.00,1.46
6183.00,1.46
6182.00,1.46
6181.00,1.46
6180.00,1.46
6179.00,1.47
6178.00,1.47
6177.00,1.47
6176.00,1.47
6175.00,1.48
6174.00,1.48
6173.00,1.48
6172.00,1.48
6171.00,1.49
6170.00,1.49
6169.00,1.49
6168.00,1.49
6167.00,1.49
6166.00,1.50
6165.00,1.50
6164.00,1.50
6163.00,1.50
6162.00,1.50
6161.00,1.51
6160.00,1.51
6159.00,1.51
6158.00,1.51
6157.00,1.51
6156.00,1.52
6155.00,1.52
6154.00,1.52
6153.00,1.52
6152.00,1.53
6151.00,1.53
6150.00,1.53
6149.00,1.53
6148.00,1.54
6147.00,1.54
6146.00,1.54
6145.00,1.54
6144.00,1.55
6143.00,1.55
6142.00,1.55
6141.00,1.55
6140.00,1.55
6139.00,1.56
6138.00,1.56
6137.00,1.56
6136.00,1.56
6135.00,1.56
6134.00,1.57
6133.00,1.57
6132.00,1.57
6131.00,1.57
6130.00,1.58
6129.00,1.58
6128.00,1.58
6127.00,1.58
6126.00,1.58
6125.00,1.58
6124.00,1.59
6123.00,1.59
6122.00,1.59
6121.00,1.59
6120.00,1.59
6119.00,1.60
6118.00,1.60
6117.00,1.60
6116.00,1.60
6115.00,1.61
6114.00,1.61
6113.00,1.61
6112.00,1.61
6111.00,1.62
6110.00,1.62
6109.00,1.62
6108.00,1.63
6107.00,1.63
6106.00,1.63
6105.00,1.63
6104.00,1.64
6103.00,1.64
6102.00,1.64
6101.00,1.64
6100.00,1.64
6099.00,1.65
6098.00,1.65
6097.00,1.65
6096.00,1.65
6095.00,1.65
6094.00,1.65
6093.00,1.66
6092.00,1.66
6091.00,1.66
6090.00,1.66
6089.00,1.66
6088.00,1.66
6087.00,1.66
6086.00,1.67
6085.00,1.67
6084.00,1.67
6083.00,1.67
6082.00,1.67
6081.00,1.67
6080.00,1.67
6079.00,1.67
6078.00,1.68
6077.00,1.68
6076.00,1.68
6075.00,1.68
6074.00,1.68
6073.00,1.68
6072.00,1.68
6071.00,1.69
6070.00,1.69
6069.00,1.69
6068.00,1.69
6067.00,1.69
6066.00,1.69
6065.00,1.70
6064.00,1.70
6063.00,1.70
6062.00,1.70
6061.00,1.70
6060.00,1.70
6059.00,1.70
6058.00,1.71
6057.00,1.71
6056.00,1.71
6055.00,1.71
6054.00,1.71
6053.00,1.71
6052.00,1.71
6051.00,1.71
6050.00,1.71
6049.00,1.72
6048.00,1.72
6047.00,1.72
6046.00,1.72
6045.00,1.72
6044.00,1.72
6043.00,1.72
6042.00,1.72
6041.00,1.73
6040.00,1.73
6039.00,1.73
6038.00,1.73
6037.00,1.73
6036.00,1.73
6035.00,1.73
6034.00,1.73
6033.00,1.73
6032.00,1.73
6031.00,1.74
6030.00,1.74
6029.00,1.74
6028.00,1.74
6027.00,1.74
6026.00,1.74
6025.00,1.74
6024.00,1.74
6023.00,1.74
6022.00,1.74
6021.00,1.74
6020.00,1.74
6019.00,1.74
6018.00,1.74
6017.00,1.74
6016.00,1.74
6015.00,1.74
6014.00,1.74
6013.00,1.74
6012.00,1.74
6011.00,1.74
6010.00,1.74
6009.00,1.74
6008.00,1.74
6007.00,1.74
6006.00,1.74
6005.00,1.74
6004.00,1.74
6003.00,1.74
6002.00,1.74
6001.00,1.73
6000.00,1.73
5999.00,1.73
5998.00,1.73
5997.00,1.73
5996.00,1.73
5995.00,1.73
5994.00,1.73
5993.00,1.72
5992.00,1.72
5991.00,1.72
5990.00,1.72
5989.00,1.71
5988.00,1.71
5987.00,1.71
5986.00,1.71
5985.00,1.70
5984.00,1.70
5983.00,1.69
5982.00,1.69
5981.00,1.69
5980.00,1.68
5979.00,1.68
5978.00,1.67
5977.00,1.67
5976.00,1.66
5975.00,1.66
5974.00,1.65
5973.00,1.64
5972.00,1.64
5971.00,1.63
5970.00,1.62
5969.00,1.61
5968.00,1.61
5967.00,1.60
5966.00,1.59
5965.00,1.58
5964.00,1.57
5963.00,1.56
5962.00,1.55
5961.00,1.54
5960.00,1.53
5959.00,1.52
5958.00,1.51
5957.00,1.50
5956.00,1.49
5955.00,1.48
5954.00,1.47
5953.00,1.46
5952.00,1.45
5951.00,1.45
5950.00,1.44
5949.00,1.43
5948.00,1.43
5947.00,1.42
5946.00,1.42
5945.00,1.41
5944.00,1.41
5943.00,1.41
5942.00,1.40
5941.00,1.40
5940.00,1.40
5939.00,1.40
5938.00,1.39
5937.00,1.39
5936.00,1.39
5935.00,1.39
5934.00,1.39
5933.00,1.39
5932.00,1.39
5931.00,1.38
5930.00,1.38
5929.00,1.38
5928.00,1.38
5927.00,1.38
5926.00,1.38
5925.00,1.38
5924.00,1.37
5923.00,1.37
5922.00,1.37
5921.00,1.37
5920.00,1.36
5919.00,1.36
5918.00,1.36
5917.00,1.35
5916.00,1.35
5915.00,1.35
5914.00,1.34
5913.00,1.34
5912.00,1.34
5911.00,1.33
5910.00,1.33
5909.00,1.33
5908.00,1.33
5907.00,1.32
5906.00,1.32
5905.00,1.32
5904.00,1.32
5903.00,1.32
5902.00,1.32
5901.00,1.32
5900.00,1.32
5899.00,1.32
5898.00,1.32
5897.00,1.32
5896.00,1.32
5895.00,1.33
5894.00,1.33
5893.00,1.33
5892.00,1.34
5891.00,1.34
5890.00,1.34
5889.00,1.35
5888.00,1.35
5887.00,1.35
5886.00,1.36
5885.00,1.36
5884.00,1.36
5883.00,1.37
5882.00,1.37
5881.00,1.38
5880.00,1.38
5879.00,1.38
5878.00,1.39
5877.00,1.39
5876.00,1.39
5875.00,1.40
5874.00,1.40
5873.00,1.40
5872.00,1.41
5871.00,1.41
5870.00,1.41
5869.00,1.41
5868.00,1.42
5867.00,1.42
5866.00,1.42
5865.00,1.42
5864.00,1.42
5863.00,1.43
5862.00,1.43
5861.00,1.43
5860.00,1.43
5859.00,1.44
5858.00,1.44
5857.00,1.44
5856.00,1.44
5855.00,1.44
5854.00,1.45
5853.00,1.45
5852.00,1.45
5851.00,1.45
5850.00,1.45
5849.00,1.45
5848.00,1.45
5847.00,1.45
5846.00,1.45
5845.00,1.45
5844.00,1.46
5843.00,1.45
5842.00,1.45
5841.00,1.45
5840.00,1.45
5839.00,1.45
5838.00,1.45
5837.00,1.45
5836.00,1.45
5835.00,1.45
5834.00,1.45
5833.00,1.45
5832.00,1.45
5831.00,1.45
5830.00,1.45
5829.00,1.45
5828.00,1.45
5827.00,1.45
5826.00,1.45
5825.00,1.45
5824.00,1.45
5823.00,1.45
5822.00,1.45
5821.00,1.45
5820.00,1.45
5819.00,1.45
5818.00,1.45
5817.00,1.45
5816.00,1.45
5815.00,1.45
5814.00,1.46
5813.00,1.46
5812.00,1.46
5811.00,1.46
5810.00,1.46
5809.00,1.46
5808.00,1.46
5807.00,1.45
5806.00,1.45
5805.00,1.45
5804.00,1.45
5803.00,1.45
5802.00,1.45
5801.00,1.45
5800.00,1.44
5799.00,1.44
5798.00,1.44
5797.00,1.44
5796.00,1.43
5795.00,1.43
5794.00,1.43
5793.00,1.42
5792.00,1.42
5791.00,1.42
5790.00,1.42
5789.00,1.41
5788.00,1.41
5787.00,1.41
5786.00,1.40
5785.00,1.40
5784.00,1.40
5783.00,1.40
5782.00,1.39
5781.00,1.39
5780.00,1.39
5779.00,1.39
5778.00,1.39
5777.00,1.39
5776.00,1.39
5775.00,1.39
5774.00,1.38
5773.00,1.39
5772.00,1.39
5771.00,1.39
5770.00,1.39
5769.00,1.39
5768.00,1.39
5767.00,1.39
5766.00,1.39
5765.00,1.40
5764.00,1.40
5763.00,1.40
5762.00,1.40
5761.00,1.41
5760.00,1.41
5759.00,1.41
5758.00,1.42
5757.00,1.42
5756.00,1.43
5755.00,1.43
5754.00,1.44
5753.00,1.44
5752.00,1.44
5751.00,1.45
5750.00,1.45
5749.00,1.46
5748.00,1.46
5747.00,1.47
5746.00,1.47
5745.00,1.48
5744.00,1.48
5743.00,1.49
5742.00,1.49
5741.00,1.50
5740.00,1.50
5739.00,1.50
5738.00,1.51
5737.00,1.51
5736.00,1.51
5735.00,1.51
5734.00,1.52
5733.00,1.52
5732.00,1.52
5731.00,1.52
5730.00,1.52
5729.00,1.52
5728.00,1.52
5727.00,1.53
5726.00,1.53
5725.00,1.53
5724.00,1.53
5723.00,1.53
5722.00,1.53
5721.00,1.53
5720.00,1.53
5719.00,1.53
5718.00,1.53
5717.00,1.53
5716.00,1.53
5715.00,1.53
5714.00,1.53
5713.00,1.53
5712.00,1.53
5711.00,1.53
5710.00,1.53
5709.00,1.53
5708.00,1.53
5707.00,1.53
5706.00,1.53
5705.00,1.53
5704.00,1.52
5703.00,1.52
5702.00,1.52
5701.00,1.52
5700.00,1.52
5699.00,1.52
5698.00,1.51
5697.00,1.51
5696.00,1.51
5695.00,1.51
5694.00,1.51
5693.00,1.50
5692.00,1.50
5691.00,1.50
5690.00,1.50
5689.00,1.49
5688.00,1.49
5687.00,1.49
5686.00,1.49
5685.00,1.49
5684.00,1.48
5683.00,1.48
5682.00,1.48
5681.00,1.48
5680.00,1.48
5679.00,1.48
5678.00,1.48
5677.00,1.47
5676.00,1.47
5675.00,1.47
5674.00,1.47
5673.00,1.47
5672.00,1.47
5671.00,1.47
5670.00,1.47
5669.00,1.48
5668.00,1.48
5667.00,1.48
5666.00,1.48
5665.00,1.48
5664.00,1.48
5663.00,1.48
5662.00,1.49
5661.00,1.49
5660.00,1.49
5659.00,1.49
5658.00,1.50
5657.00,1.50
5656.00,1.50
5655.00,1.50
5654.00,1.50
5653.00,1.51
5652.00,1.51
5651.00,1.51
5650.00,1.51
5649.00,1.52
5648.00,1.52
5647.00,1.52
5646.00,1.52
5645.00,1.53
5644.00,1.53
5643.00,1.53
5642.00,1.53
5641.00,1.53
5640.00,1.54
5639.00,1.54
5638.00,1.54
5637.00,1.54
5636.00,1.55
5635.00,1.55
5634.00,1.55
5633.00,1.55
5632.00,1.55
5631.00,1.56
5630.00,1.56
5629.00,1.56
5628.00,1.56
5627.00,1.56
5626.00,1.57
5625.00,1.57
5624.00,1.57
5623.00,1.57
5622.00,1.57
5621.00,1.58
5620.00,1.58
5619.00,1.58
5618.00,1.58
5617.00,1.58
5616.00,1.59
5615.00,1.59
5614.00,1.59
5613.00,1.59
5612.00,1.60
5611.00,1.60
5610.00,1.60
5609.00,1.60
5608.00,1.60
5607.00,1.61
5606.00,1.61
5605.00,1.61
5604.00,1.61
5603.00,1.61
5602.00,1.62
5601.00,1.62
5600.00,1.62
5599.00,1.62
5598.00,1.63
5597.00,1.63
5596.00,1.63
5595.00,1.63
5594.00,1.64
5593.00,1.64
5592.00,1.64
5591.00,1.64
5590.00,1.64
5589.00,1.65
5588.00,1.65
5587.00,1.65
5586.00,1.65
5585.00,1.66
5584.00,1.66
5583.00,1.66
5582.00,1.66
5581.00,1.66
5580.00,1.67
5579.00,1.67
5578.00,1.67
5577.00,1.67
5576.00,1.67
5575.00,1.67
5574.00,1.68
5573.00,1.68
5572.00,1.68
5571.00,1.68
5570.00,1.68
5569.00,1.69
5568.00,1.69
5567.00,1.69
5566.00,1.69
5565.00,1.69
5564.00,1.70
5563.00,1.70
5562.00,1.70
5561.00,1.70
5560.00,1.70
5559.00,1.71
5558.00,1.71
5557.00,1.71
5556.00,1.71
5555.00,1.71
5554.00,1.72
5553.00,1.72
5552.00,1.72
5551.00,1.72
5550.00,1.72
5549.00,1.73
5548.00,1.73
5547.00,1.73
5546.00,1.73
5545.00,1.73
5544.00,1.73
5543.00,1.74
5542.00,1.74
5541.00,1.74
5540.00,1.74
5539.00,1.74
5538.00,1.74
5537.00,1.75
5536.00,1.75
5535.00,1.75
5534.00,1.75
5533.00,1.75
5532.00,1.75
5531.00,1.75
5530.00,1.75
5529.00,1.76
5528.00,1.76
5527.00,1.76
5526.00,1.76
5525.00,1.76
5524.00,1.76
5523.00,1.76
5522.00,1.76
5521.00,1.76
5520.00,1.77
5519.00,1.77
5518.00,1.77
5517.00,1.77
5516.00,1.77
5515.00,1.77
5514.00,1.77
5513.00,1.77
5512.00,1.77
5511.00,1.77
5510.00,1.78
5509.00,1.78
5508.00,1.78
5507.00,1.78
5506.00,1.78
5505.00,1.78
5504.00,1.78
5503.00,1.78
5502.00,1.78
5501.00,1.78
5500.00,1.78
5499.00,1.79
5498.00,1.79
5497.00,1.79
5496.00,1.79
5495.00,1.79
5494.00,1.79
5493.00,1.79
5492.00,1.79
5491.00,1.79
5490.00,1.79
5489.00,1.79
5488.00,1.79
5487.00,1.80
5486.00,1.80
5485.00,1.80
5484.00,1.80
5483.00,1.80
5482.00,1.80
5481.00,1.81
5480.00,1.81
5479.00,1.81
5478.00,1.81
5477.00,1.81
5476.00,1.81
5475.00,1.82
5474.00,1.82
5473.00,1.82
5472.00,1.82
5471.00,1.82
5470.00,1.82
5469.00,1.83
5468.00,1.83
5467.00,1.83
5466.00,1.83
5465.00,1.83
5464.00,1.83
5463.00,1.83
5462.00,1.84
5461.00,1.84
5460.00,1.84
5459.00,1.84
5458.00,1.84
5457.00,1.84
5456.00,1.84
5455.00,1.84
5454.00,1.84
5453.00,1.84
5452.00,1.84
5451.00,1.84
5450.00,1.84
5449.00,1.84
5448.00,1.84
5447.00,1.84
5446.00,1.84
5445.00,1.84
5444.00,1.84
5443.00,1.84
5442.00,1.84
5441.00,1.84
5440.00,1.84
5439.00,1.84
5438.00,1.84
5437.00,1.85
5436.00,1.85
5435.00,1.85
5434.00,1.85
5433.00,1.85
5432.00,1.85
5431.00,1.85
5430.00,1.85
5429.00,1.85
5428.00,1.85
5427.00,1.86
5426.00,1.86
5425.00,1.86
5424.00,1.86
5423.00,1.86
5422.00,1.86
5421.00,1.86
5420.00,1.86
5419.00,1.86
5418.00,1.85
5417.00,1.85
5416.00,1.85
5415.00,1.85
5414.00,1.85
5413.00,1.85
5412.00,1.85
5411.00,1.85
5410.00,1.85
5409.00,1.85
5408.00,1.85
5407.00,1.85
5406.00,1.85
5405.00,1.85
5404.00,1.85
5403.00,1.85
5402.00,1.85
5401.00,1.85
5400.00,1.85
5399.00,1.84
5398.00,1.84
5397.00,1.84
5396.00,1.84
5395.00,1.84
5394.00,1.83
5393.00,1.83
5392.00,1.83
5391.00,1.82
5390.00,1.82
5389.00,1.82
5388.00,1.81
5387.00,1.81
5386.00,1.81
5385.00,1.80
5384.00,1.80
5383.00,1.79
5382.00,1.79
5381.00,1.78
5380.00,1.78
5379.00,1.77
5378.00,1.77
5377.00,1.76
5376.00,1.76
5375.00,1.75
5374.00,1.75
5373.00,1.74
5372.00,1.73
5371.00,1.73
5370.00,1.72
5369.00,1.72
5368.00,1.71
5367.00,1.70
5366.00,1.69
5365.00,1.69
5364.00,1.68
5363.00,1.67
5362.00,1.66
5361.00,1.65
5360.00,1.64
5359.00,1.63
5358.00,1.62
5357.00,1.61
5356.00,1.60
5355.00,1.59
5354.00,1.57
5353.00,1.56
5352.00,1.55
5351.00,1.54
5350.00,1.52
5349.00,1.51
5348.00,1.50
5347.00,1.48
5346.00,1.47
5345.00,1.46
5344.00,1.44
5343.00,1.43
5342.00,1.42
5341.00,1.40
5340.00,1.39
5339.00,1.38
5338.00,1.36
5337.00,1.35
5336.00,1.34
5335.00,1.33
5334.00,1.31
5333.00,1.30
5332.00,1.29
5331.00,1.28
5330.00,1.27
5329.00,1.25
5328.00,1.24
5327.00,1.23
5326.00,1.22
5325.00,1.21
5324.00,1.20
5323.00,1.19
5322.00,1.18
5321.00,1.17
5320.00,1.15
5319.00,1.14
5318.00,1.13
5317.00,1.12
5316.00,1.11
5315.00,1.10
5314.00,1.09
5313.00,1.09
5312.00,1.08
5311.00,1.07
5310.00,1.06
5309.00,1.05
5308.00,1.04
5307.00,1.04
5306.00,1.03
5305.00,1.02
5304.00,1.02
5303.00,1.01
5302.00,1.01
5301.00,1.00
5300.00,1.00
5299.00,0.99
5298.00,0.99
5297.00,0.99
5296.00,0.98
5295.00,0.98
5294.00,0.98
5293.00,0.98
5292.00,0.97
5291.00,0.97
5290.00,0.97
5289.00,0.97
5288.00,0.97
5287.00,0.96
5286.00,0.96
5285.00,0.96
5284.00,0.96
5283.00,0.96
5282.00,0.96
5281.00,0.96
5280.00,0.96
5279.00,0.96
5278.00,0.95
5277.00,0.95
5276.00,0.95
5275.00,0.95
5274.00,0.95
5273.00,0.95
5272.00,0.95
5271.00,0.95
5270.00,0.95
5269.00,0.94
5268.00,0.94
5267.00,0.94
5266.00,0.94
5265.00,0.94
5264.00,0.94
5263.00,0.93
5262.00,0.93
5261.00,0.93
5260.00,0.93
5259.00,0.93
5258.00,0.93
5257.00,0.93
5256.00,0.93
5255.00,0.93
5254.00,0.93
5253.00,0.93
5252.00,0.93
5251.00,0.93
5250.00,0.93
5249.00,0.93
5248.00,0.93
5247.00,0.93
5246.00,0.93
5245.00,0.93
5244.00,0.93
5243.00,0.93
5242.00,0.94
5241.00,0.94
5240.00,0.94
5239.00,0.94
5238.00,0.94
5237.00,0.94
5236.00,0.94
5235.00,0.94
5234.00,0.94
5233.00,0.94
5232.00,0.94
5231.00,0.94
5230.00,0.94
5229.00,0.95
5228.00,0.95
5227.00,0.95
5226.00,0.95
5225.00,0.95
5224.00,0.95
5223.00,0.95
5222.00,0.95
5221.00,0.95
5220.00,0.95
5219.00,0.95
5218.00,0.95
5217.00,0.95
5216.00,0.95
5215.00,0.95
5214.00,0.95
5213.00,0.95
5212.00,0.95
5211.00,0.95
5210.00,0.95
5209.00,0.95
5208.00,0.95
5207.00,0.95
5206.00,0.95
5205.00,0.95
5204.00,0.95
5203.00,0.96
5202.00,0.96
5201.00,0.96
5200.00,0.96
5199.00,0.96
5198.00,0.96
5197.00,0.96
5196.00,0.96
5195.00,0.96
5194.00,0.96
5193.00,0.96
5192.00,0.96
5191.00,0.96
5190.00,0.96
5189.00,0.96
5188.00,0.96
5187.00,0.97
5186.00,0.97
5185.00,0.97
5184.00,0.97
5183.00,0.97
5182.00,0.97
5181.00,0.97
5180.00,0.97
5179.00,0.98
5178.00,0.98
5177.00,0.98
5176.00,0.98
5175.00,0.98
5174.00,0.98
5173.00,0.98
5172.00,0.98
5171.00,0.98
5170.00,0.98
5169.00,0.98
5168.00,0.98
5167.00,0.98
5166.00,0.98
5165.00,0.98
5164.00,0.98
5163.00,0.98
5162.00,0.98
5161.00,0.98
5160.00,0.98
5159.00,0.98
5158.00,0.98
5157.00,0.98
5156.00,0.99
5155.00,0.99
5154.00,0.99
5153.00,0.99
5152.00,0.99
5151.00,0.99
5150.00,0.99
5149.00,0.99
5148.00,0.99
5147.00,0.99
5146.00,0.99
5145.00,0.99
5144.00,0.99
5143.00,0.99
5142.00,0.99
5141.00,0.99
5140.00,0.99
5139.00,1.00
5138.00,1.00
5137.00,1.00
5136.00,1.00
5135.00,1.00
5134.00,1.00
5133.00,1.00
5132.00,1.00
5131.00,1.00
5130.00,1.01
5129.00,1.01
5128.00,1.01
5127.00,1.01
5126.00,1.01
5125.00,1.01
5124.00,1.01
5123.00,1.01
5122.00,1.02
5121.00,1.02
5120.00,1.02
5119.00,1.02
5118.00,1.02
5117.00,1.02
5116.00,1.02
5115.00,1.02
5114.00,1.02
5113.00,1.02
5112.00,1.02
5111.00,1.02
5110.00,1.02
5109.00,1.02
5108.00,1.02
5107.00,1.02
5106.00,1.02
5105.00,1.02
5104.00,1.02
5103.00,1.02
5102.00,1.02
5101.00,1.03
5100.00,1.03
5099.00,1.03
5098.00,1.03
5097.00,1.03
5096.00,1.03
5095.00,1.03
5094.00,1.03
5093.00,1.03
5092.00,1.03
5091.00,1.03
5090.00,1.03
5089.00,1.03
5088.00,1.03
5087.00,1.03
5086.00,1.03
5085.00,1.04
5084.00,1.04
5083.00,1.04
5082.00,1.04
5081.00,1.04
5080.00,1.04
5079.00,1.04
5078.00,1.04
5077.00,1.04
5076.00,1.04
5075.00,1.05
5074.00,1.05
5073.00,1.05
5072.00,1.05
5071.00,1.05
5070.00,1.05
5069.00,1.05
5068.00,1.05
5067.00,1.05
5066.00,1.05
5065.00,1.05
5064.00,1.05
5063.00,1.05
5062.00,1.05
5061.00,1.05
5060.00,1.05
5059.00,1.05
5058.00,1.06
5057.00,1.06
5056.00,1.06
5055.00,1.06
5054.00,1.06
5053.00,1.06
5052.00,1.06
5051.00,1.06
5050.00,1.06
5049.00,1.06
5048.00,1.06
5047.00,1.06
5046.00,1.06
5045.00,1.06
5044.00,1.06
5043.00,1.06
5042.00,1.06
5041.00,1.06
5040.00,1.06
5039.00,1.06
5038.00,1.07
5037.00,1.07
5036.00,1.07
5035.00,1.07
5034.00,1.07
5033.00,1.07
5032.00,1.07
5031.00,1.07
5030.00,1.08
5029.00,1.08
5028.00,1.08
5027.00,1.08
5026.00,1.08
5025.00,1.08
5024.00,1.09
5023.00,1.09
5022.00,1.09
5021.00,1.09
5020.00,1.09
5019.00,1.09
5018.00,1.09
5017.00,1.09
5016.00,1.09
5015.00,1.10
5014.00,1.10
5013.00,1.10
5012.00,1.10
5011.00,1.10
5010.00,1.10
5009.00,1.10
5008.00,1.10
5007.00,1.10
5006.00,1.10
5005.00,1.10
5004.00,1.10
5003.00,1.10
5002.00,1.10
5001.00,1.10
5000.00,1.10
4999.00,1.10
4998.00,1.10
4997.00,1.10
4996.00,1.10
4995.00,1.11
4994.00,1.11
4993.00,1.11
4992.00,1.11
4991.00,1.11
4990.00,1.11
4989.00,1.11
4988.00,1.11
4987.00,1.12
4986.00,1.12
4985.00,1.12
4984.00,1.12
4983.00,1.12
4982.00,1.12
4981.00,1.12
4980.00,1.12
4979.00,1.13
4978.00,1.13
4977.00,1.13
4976.00,1.13
4975.00,1.13
4974.00,1.13
4973.00,1.13
4972.00,1.13
4971.00,1.13
4970.00,1.14
4969.00,1.14
4968.00,1.14
4967.00,1.14
4966.00,1.14
4965.00,1.14
4964.00,1.14
4963.00,1.14
4962.00,1.14
4961.00,1.14
4960.00,1.15
4959.00,1.15
4958.00,1.15
4957.00,1.15
4956.00,1.15
4955.00,1.15
4954.00,1.15
4953.00,1.15
4952.00,1.15
4951.00,1.15
4950.00,1.15
4949.00,1.16
4948.00,1.16
4947.00,1.16
4946.00,1.16
4945.00,1.16
4944.00,1.16
4943.00,1.16
4942.00,1.16
4941.00,1.16
4940.00,1.16
4939.00,1.16
4938.00,1.16
4937.00,1.16
4936.00,1.16
4935.00,1.16
4934.00,1.16
4933.00,1.16
4932.00,1.16
4931.00,1.16
4930.00,1.16
4929.00,1.16
4928.00,1.16
4927.00,1.17
4926.00,1.17
4925.00,1.17
4924.00,1.17
4923.00,1.17
4922.00,1.17
4921.00,1.17
4920.00,1.17
4919.00,1.18
4918.00,1.18
4917.00,1.18
4916.00,1.18
4915.00,1.18
4914.00,1.18
4913.00,1.18
4912.00,1.19
4911.00,1.19
4910.00,1.19
4909.00,1.19
4908.00,1.19
4907.00,1.19
4906.00,1.19
4905.00,1.19
4904.00,1.20
4903.00,1.20
4902.00,1.20
4901.00,1.20
4900.00,1.20
4899.00,1.20
4898.00,1.20
4897.00,1.20
4896.00,1.20
4895.00,1.20
4894.00,1.21
4893.00,1.21
4892.00,1.21
4891.00,1.21
4890.00,1.21
4889.00,1.21
4888.00,1.21
4887.00,1.21
4886.00,1.21
4885.00,1.21
4884.00,1.21
4883.00,1.21
4882.00,1.21
4881.00,1.22
4880.00,1.22
4879.00,1.22
4878.00,1.22
4877.00,1.22
4876.00,1.22
4875.00,1.22
4874.00,1.22
4873.00,1.22
4872.00,1.22
4871.00,1.22
4870.00,1.22
4869.00,1.22
4868.00,1.22
4867.00,1.22
4866.00,1.22
4865.00,1.22
4864.00,1.22
4863.00,1.22
4862.00,1.22
4861.00,1.22
4860.00,1.22
4859.00,1.22
4858.00,1.23
4857.00,1.23
4856.00,1.23
4855.00,1.23
4854.00,1.23
4853.00,1.23
4852.00,1.23
4851.00,1.23
4850.00,1.23
4849.00,1.24
4848.00,1.24
4847.00,1.24
4846.00,1.24
4845.00,1.24
4844.00,1.24
4843.00,1.25
4842.00,1.25
4841.00,1.25
4840.00,1.25
4839.00,1.25
4838.00,1.25
4837.00,1.25
4836.00,1.26
4835.00,1.26
4834.00,1.26
4833.00,1.26
4832.00,1.26
4831.00,1.26
4830.00,1.26
4829.00,1.26
4828.00,1.26
4827.00,1.26
4826.00,1.26
4825.00,1.26
4824.00,1.27
4823.00,1.27
4822.00,1.27
4821.00,1.27
4820.00,1.27
4819.00,1.27
4818.00,1.27
4817.00,1.27
4816.00,1.27
4815.00,1.28
4814.00,1.28
4813.00,1.28
4812.00,1.28
4811.00,1.28
4810.00,1.28
4809.00,1.28
4808.00,1.28
4807.00,1.29
4806.00,1.29
4805.00,1.29
4804.00,1.29
4803.00,1.29
4802.00,1.29
4801.00,1.29
4800.00,1.29
4799.00,1.30
4798.00,1.30
4797.00,1.30
4796.00,1.30
4795.00,1.30
4794.00,1.30
4793.00,1.30
4792.00,1.30
4791.00,1.30
4790.00,1.31
4789.00,1.31
4788.00,1.31
4787.00,1.31
4786.00,1.31
4785.00,1.31
4784.00,1.31
4783.00,1.31
4782.00,1.32
4781.00,1.32
4780.00,1.32
4779.00,1.32
4778.00,1.32
4777.00,1.32
4776.00,1.32
4775.00,1.32
4774.00,1.33
4773.00,1.33
4772.00,1.33
4771.00,1.33
4770.00,1.33
4769.00,1.33
4768.00,1.33
4767.00,1.33
4766.00,1.33
4765.00,1.33
4764.00,1.33
4763.00,1.34
4762.00,1.34
4761.00,1.34
4760.00,1.34
4759.00,1.34
4758.00,1.35
4757.00,1.35
4756.00,1.35
4755.00,1.35
4754.00,1.35
4753.00,1.36
4752.00,1.36
4751.00,1.36
4750.00,1.36
4749.00,1.36
4748.00,1.37
4747.00,1.37
4746.00,1.37
4745.00,1.37
4744.00,1.37
4743.00,1.37
4742.00,1.37
4741.00,1.37
4740.00,1.37
4739.00,1.38
4738.00,1.38
4737.00,1.38
4736.00,1.38
4735.00,1.38
4734.00,1.38
4733.00,1.38
4732.00,1.38
4731.00,1.38
4730.00,1.39
4729.00,1.39
4728.00,1.39
4727.00,1.39
4726.00,1.39
4725.00,1.39
4724.00,1.40
4723.00,1.40
4722.00,1.40
4721.00,1.40
4720.00,1.41
4719.00,1.41
4718.00,1.41
4717.00,1.41
4716.00,1.42
4715.00,1.42
4714.00,1.42
4713.00,1.43
4712.00,1.43
4711.00,1.43
4710.00,1.43
4709.00,1.44
4708.00,1.44
4707.00,1.44
4706.00,1.44
4705.00,1.45
4704.00,1.45
4703.00,1.45
4702.00,1.45
4701.00,1.46
4700.00,1.46
4699.00,1.46
4698.00,1.46
4697.00,1.46
4696.00,1.47
4695.00,1.47
4694.00,1.47
4693.00,1.47
4692.00,1.47
4691.00,1.48
4690.00,1.48
4689.00,1.48
4688.00,1.48
4687.00,1.48
4686.00,1.48
4685.00,1.49
4684.00,1.49
4683.00,1.49
4682.00,1.49
4681.00,1.49
4680.00,1.49
4679.00,1.49
4678.00,1.49
4677.00,1.49
4676.00,1.49
4675.00,1.50
4674.00,1.50
4673.00,1.50
4672.00,1.50
4671.00,1.50
4670.00,1.50
4669.00,1.50
4668.00,1.51
4667.00,1.51
4666.00,1.51
4665.00,1.51
4664.00,1.51
4663.00,1.52
4662.00,1.52
4661.00,1.52
4660.00,1.52
4659.00,1.52
4658.00,1.52
4657.00,1.53
4656.00,1.53
4655.00,1.53
4654.00,1.53
4653.00,1.53
4652.00,1.53
4651.00,1.53
4650.00,1.53
4649.00,1.54
4648.00,1.54
4647.00,1.54
4646.00,1.54
4645.00,1.54
4644.00,1.54
4643.00,1.54
4642.00,1.54
4641.00,1.54
4640.00,1.54
4639.00,1.54
4638.00,1.54
4637.00,1.54
4636.00,1.54
4635.00,1.55
4634.00,1.55
4633.00,1.55
4632.00,1.55
4631.00,1.55
4630.00,1.55
4629.00,1.55
4628.00,1.55
4627.00,1.55
4626.00,1.56
4625.00,1.56
4624.00,1.56
4623.00,1.56
4622.00,1.56
4621.00,1.56
4620.00,1.56
4619.00,1.56
4618.00,1.56
4617.00,1.56
4616.00,1.56
4615.00,1.56
4614.00,1.56
4613.00,1.56
4612.00,1.57
4611.00,1.57
4610.00,1.57
4609.00,1.57
4608.00,1.57
4607.00,1.57
4606.00,1.57
4605.00,1.57
4604.00,1.57
4603.00,1.58
4602.00,1.58
4601.00,1.58
4600.00,1.58
4599.00,1.59
4598.00,1.59
4597.00,1.59
4596.00,1.59
4595.00,1.60
4594.00,1.60
4593.00,1.60
4592.00,1.60
4591.00,1.61
4590.00,1.61
4589.00,1.61
4588.00,1.61
4587.00,1.61
4586.00,1.61
4585.00,1.61
4584.00,1.62
4583.00,1.62
4582.00,1.62
4581.00,1.62
4580.00,1.62
4579.00,1.62
4578.00,1.62
4577.00,1.62
4576.00,1.62
4575.00,1.62
4574.00,1.63
4573.00,1.63
4572.00,1.63
4571.00,1.63
4570.00,1.63
4569.00,1.63
4568.00,1.63
4567.00,1.64
4566.00,1.64
4565.00,1.64
4564.00,1.64
4563.00,1.64
4562.00,1.64
4561.00,1.65
4560.00,1.65
4559.00,1.65
4558.00,1.65
4557.00,1.65
4556.00,1.65
4555.00,1.65
4554.00,1.65
4553.00,1.65
4552.00,1.65
4551.00,1.65
4550.00,1.66
4549.00,1.66
4548.00,1.66
4547.00,1.66
4546.00,1.66
4545.00,1.66
4544.00,1.66
4543.00,1.66
4542.00,1.66
4541.00,1.66
4540.00,1.66
4539.00,1.66
4538.00,1.66
4537.00,1.67
4536.00,1.67
4535.00,1.67
4534.00,1.67
4533.00,1.67
4532.00,1.67
4531.00,1.67
4530.00,1.67
4529.00,1.67
4528.00,1.67
4527.00,1.67
4526.00,1.67
4525.00,1.67
4524.00,1.67
4523.00,1.67
4522.00,1.67
4521.00,1.67
4520.00,1.67
4519.00,1.67
4518.00,1.67
4517.00,1.67
4516.00,1.67
4515.00,1.67
4514.00,1.67
4513.00,1.67
4512.00,1.67
4511.00,1.67
4510.00,1.67
4509.00,1.67
4508.00,1.67
4507.00,1.67
4506.00,1.67
4505.00,1.67
4504.00,1.67
4503.00,1.67
4502.00,1.67
4501.00,1.67
4500.00,1.67
4499.00,1.67
4498.00,1.67
4497.00,1.67
4496.00,1.67
4495.00,1.67
4494.00,1.67
4493.00,1.67
4492.00,1.67
4491.00,1.67
4490.00,1.66
4489.00,1.66
4488.00,1.66
4487.00,1.66
4486.00,1.66
4485.00,1.66
4484.00,1.66
4483.00,1.66
4482.00,1.65
4481.00,1.65
4480.00,1.65
4479.00,1.65
4478.00,1.65
4477.00,1.65
4476.00,1.65
4475.00,1.64
4474.00,1.64
4473.00,1.64
4472.00,1.64
4471.00,1.64
4470.00,1.63
4469.00,1.63
4468.00,1.63
4467.00,1.63
4466.00,1.63
4465.00,1.62
4464.00,1.62
4463.00,1.62
4462.00,1.62
4461.00,1.61
4460.00,1.61
4459.00,1.61
4458.00,1.61
4457.00,1.60
4456.00,1.60
4455.00,1.60
4454.00,1.59
4453.00,1.59
4452.00,1.59
4451.00,1.58
4450.00,1.58
4449.00,1.57
4448.00,1.57
4447.00,1.56
4446.00,1.56
4445.00,1.56
4444.00,1.55
4443.00,1.55
4442.00,1.54
4441.00,1.54
4440.00,1.53
4439.00,1.53
4438.00,1.53
4437.00,1.52
4436.00,1.52
4435.00,1.51
4434.00,1.51
4433.00,1.51
4432.00,1.51
4431.00,1.50
4430.00,1.50
4429.00,1.50
4428.00,1.50
4427.00,1.50
4426.00,1.50
4425.00,1.50
4424.00,1.50
4423.00,1.50
4422.00,1.50
4421.00,1.50
4420.00,1.50
4419.00,1.50
4418.00,1.50
4417.00,1.50
4416.00,1.50
4415.00,1.50
4414.00,1.51
4413.00,1.51
4412.00,1.51
4411.00,1.51
4410.00,1.51
4409.00,1.51
4408.00,1.51
4407.00,1.52
4406.00,1.52
4405.00,1.52
4404.00,1.52
4403.00,1.52
4402.00,1.52
4401.00,1.52
4400.00,1.52
4399.00,1.52
4398.00,1.52
4397.00,1.53
4396.00,1.53
4395.00,1.53
4394.00,1.53
4393.00,1.53
4392.00,1.53
4391.00,1.53
4390.00,1.53
4389.00,1.53
4388.00,1.54
4387.00,1.54
4386.00,1.54
4385.00,1.54
4384.00,1.54
4383.00,1.54
4382.00,1.55
4381.00,1.55
4380.00,1.55
4379.00,1.55
4378.00,1.55
4377.00,1.55
4376.00,1.56
4375.00,1.56
4374.00,1.56
4373.00,1.56
4372.00,1.56
4371.00,1.56
4370.00,1.56
4369.00,1.56
4368.00,1.56
4367.00,1.56
4366.00,1.56
4365.00,1.56
4364.00,1.56
4363.00,1.56
4362.00,1.56
4361.00,1.56
4360.00,1.56
4359.00,1.56
4358.00,1.56
4357.00,1.56
4356.00,1.56
4355.00,1.56
4354.00,1.56
4353.00,1.56
4352.00,1.56
4351.00,1.56
4350.00,1.56
4349.00,1.56
4348.00,1.56
4347.00,1.56
4346.00,1.57
4345.00,1.57
4344.00,1.57
4343.00,1.57
4342.00,1.57
4341.00,1.58
4340.00,1.58
4339.00,1.58
4338.00,1.58
4337.00,1.58
4336.00,1.59
4335.00,1.59
4334.00,1.59
4333.00,1.59
4332.00,1.59
4331.00,1.59
4330.00,1.60
4329.00,1.60
4328.00,1.60
4327.00,1.60
4326.00,1.60
4325.00,1.60
4324.00,1.61
4323.00,1.61
4322.00,1.61
4321.00,1.61
4320.00,1.61
4319.00,1.62
4318.00,1.62
4317.00,1.62
4316.00,1.62
4315.00,1.62
4314.00,1.62
4313.00,1.62
4312.00,1.63
4311.00,1.63
4310.00,1.63
4309.00,1.63
4308.00,1.63
4307.00,1.63
4306.00,1.63
4305.00,1.63
4304.00,1.63
4303.00,1.63
4302.00,1.63
4301.00,1.63
4300.00,1.63
4299.00,1.63
4298.00,1.64
4297.00,1.64
4296.00,1.64
4295.00,1.64
4294.00,1.64
4293.00,1.64
4292.00,1.65
4291.00,1.65
4290.00,1.65
4289.00,1.65
4288.00,1.65
4287.00,1.65
4286.00,1.66
4285.00,1.66
4284.00,1.66
4283.00,1.66
4282.00,1.66
4281.00,1.66
4280.00,1.66
4279.00,1.66
4278.00,1.66
4277.00,1.66
4276.00,1.66
4275.00,1.66
4274.00,1.66
4273.00,1.66
4272.00,1.66
4271.00,1.66
4270.00,1.66
4269.00,1.66
4268.00,1.66
4267.00,1.65
4266.00,1.65
4265.00,1.65
4264.00,1.65
4263.00,1.65
4262.00,1.65
4261.00,1.65
4260.00,1.65
4259.00,1.65
4258.00,1.65
4257.00,1.65
4256.00,1.65
4255.00,1.65
4254.00,1.65
4253.00,1.65
4252.00,1.65
4251.00,1.66
4250.00,1.66
4249.00,1.66
4248.00,1.66
4247.00,1.67
4246.00,1.67
4245.00,1.67
4244.00,1.67
4243.00,1.68
4242.00,1.68
4241.00,1.68
4240.00,1.68
4239.00,1.69
4238.00,1.69
4237.00,1.69
4236.00,1.69
4235.00,1.69
4234.00,1.69
4233.00,1.69
4232.00,1.70
4231.00,1.70
4230.00,1.70
4229.00,1.70
4228.00,1.70
4227.00,1.70
4226.00,1.70
4225.00,1.70
4224.00,1.70
4223.00,1.70
4222.00,1.70
4221.00,1.70
4220.00,1.70
4219.00,1.70
4218.00,1.70
4217.00,1.70
4216.00,1.70
4215.00,1.71
4214.00,1.71
4213.00,1.71
4212.00,1.71
4211.00,1.71
4210.00,1.71
4209.00,1.71
4208.00,1.72
4207.00,1.72
4206.00,1.72
4205.00,1.72
4204.00,1.72
4203.00,1.73
4202.00,1.73
4201.00,1.73
4200.00,1.73
4199.00,1.73
4198.00,1.73
4197.00,1.74
4196.00,1.74
4195.00,1.74
4194.00,1.74
4193.00,1.74
4192.00,1.74
4191.00,1.74
4190.00,1.73
4189.00,1.73
4188.00,1.73
4187.00,1.73
4186.00,1.73
4185.00,1.73
4184.00,1.73
4183.00,1.73
4182.00,1.73
4181.00,1.73
4180.00,1.73
4179.00,1.73
4178.00,1.73
4177.00,1.73
4176.00,1.73
4175.00,1.73
4174.00,1.73
4173.00,1.73
4172.00,1.73
4171.00,1.73
4170.00,1.73
4169.00,1.73
4168.00,1.73
4167.00,1.73
4166.00,1.73
4165.00,1.73
4164.00,1.73
4163.00,1.73
4162.00,1.73
4161.00,1.73
4160.00,1.73
4159.00,1.73
4158.00,1.73
4157.00,1.73
4156.00,1.73
4155.00,1.73
4154.00,1.73
4153.00,1.73
4152.00,1.73
4151.00,1.74
4150.00,1.74
4149.00,1.74
4148.00,1.74
4147.00,1.74
4146.00,1.74
4145.00,1.74
4144.00,1.74
4143.00,1.75
4142.00,1.75
4141.00,1.75
4140.00,1.75
4139.00,1.75
4138.00,1.76
4137.00,1.76
4136.00,1.76
4135.00,1.76
4134.00,1.77
4133.00,1.77
4132.00,1.77
4131.00,1.77
4130.00,1.78
4129.00,1.78
4128.00,1.78
4127.00,1.78
4126.00,1.78
4125.00,1.78
4124.00,1.79
4123.00,1.79
4122.00,1.79
4121.00,1.79
4120.00,1.79
4119.00,1.79
4118.00,1.79
4117.00,1.79
4116.00,1.79
4115.00,1.79
4114.00,1.79
4113.00,1.79
4112.00,1.79
4111.00,1.79
4110.00,1.79
4109.00,1.79
4108.00,1.79
4107.00,1.79
4106.00,1.79
4105.00,1.79
4104.00,1.79
4103.00,1.79
4102.00,1.79
4101.00,1.79
4100.00,1.79
4099.00,1.80
4098.00,1.80
4097.00,1.80
4096.00,1.80
4095.00,1.80
4094.00,1.81
4093.00,1.81
4092.00,1.81
4091.00,1.81
4090.00,1.81
4089.00,1.81
4088.00,1.81
4087.00,1.81
4086.00,1.81
4085.00,1.81
4084.00,1.81
4083.00,1.81
4082.00,1.81
4081.00,1.81
4080.00,1.82
4079.00,1.82
4078.00,1.82
4077.00,1.82
4076.00,1.82
4075.00,1.82
4074.00,1.82
4073.00,1.82
4072.00,1.82
4071.00,1.82
4070.00,1.82
4069.00,1.82
4068.00,1.82
4067.00,1.82
4066.00,1.82
4065.00,1.82
4064.00,1.82
4063.00,1.82
4062.00,1.82
4061.00,1.82
4060.00,1.82
4059.00,1.82
4058.00,1.82
4057.00,1.82
4056.00,1.82
4055.00,1.82
4054.00,1.82
4053.00,1.82
4052.00,1.82
4051.00,1.82
4050.00,1.83
4049.00,1.83
4048.00,1.83
4047.00,1.83
4046.00,1.83
4045.00,1.83
4044.00,1.83
4043.00,1.84
4042.00,1.84
4041.00,1.84
4040.00,1.84
4039.00,1.84
4038.00,1.84
4037.00,1.84
4036.00,1.84
4035.00,1.84
4034.00,1.84
4033.00,1.84
4032.00,1.84
4031.00,1.84
4030.00,1.84
4029.00,1.84
4028.00,1.84
4027.00,1.84
4026.00,1.84
4025.00,1.84
4024.00,1.84
4023.00,1.84
4022.00,1.85
4021.00,1.85
4020.00,1.85
4019.00,1.85
4018.00,1.85
4017.00,1.85
4016.00,1.85
4015.00,1.85
4014.00,1.85
4013.00,1.85
4012.00,1.85
4011.00,1.85
4010.00,1.85
4009.00,1.85
4008.00,1.85
4007.00,1.85
4006.00,1.85
4005.00,1.85
4004.00,1.85
4003.00,1.86
4002.00,1.86
4001.00,1.86
4000.00,1.86
