创建为新数据集,样品 534 用户 Administrator 日期 星期一, 七月 16 2018
cm-1,%T
10000.00,1.72
9999.00,1.72
9998.00,1.72
9997.00,1.72
9996.00,1.72
9995.00,1.72
9994.00,1.72
9993.00,1.72
9992.00,1.72
9991.00,1.72
9990.00,1.72
9989.00,1.72
9988.00,1.72
9987.00,1.72
9986.00,1.71
9985.00,1.71
9984.00,1.71
9983.00,1.71
9982.00,1.71
9981.00,1.70
9980.00,1.70
9979.00,1.70
9978.00,1.70
9977.00,1.70
9976.00,1.70
9975.00,1.70
9974.00,1.69
9973.00,1.69
9972.00,1.69
9971.00,1.69
9970.00,1.70
9969.00,1.70
9968.00,1.70
9967.00,1.70
9966.00,1.69
9965.00,1.69
9964.00,1.69
9963.00,1.69
9962.00,1.69
9961.00,1.69
9960.00,1.69
9959.00,1.68
9958.00,1.68
9957.00,1.68
9956.00,1.68
9955.00,1.68
9954.00,1.67
9953.00,1.67
9952.00,1.67
9951.00,1.67
9950.00,1.67
9949.00,1.67
9948.00,1.67
9947.00,1.67
9946.00,1.67
9945.00,1.67
9944.00,1.68
9943.00,1.68
9942.00,1.68
9941.00,1.68
9940.00,1.68
9939.00,1.68
9938.00,1.68
9937.00,1.68
9936.00,1.68
9935.00,1.68
9934.00,1.68
9933.00,1.68
9932.00,1.68
9931.00,1.68
9930.00,1.68
9929.00,1.68
9928.00,1.68
9927.00,1.68
9926.00,1.68
9925.00,1.68
9924.00,1.69
9923.00,1.69
9922.00,1.69
9921.00,1.70
9920.00,1.70
9919.00,1.71
9918.00,1.71
9917.00,1.71
9916.00,1.72
9915.00,1.72
9914.00,1.72
9913.00,1.72
9912.00,1.72
9911.00,1.72
9910.00,1.72
9909.00,1.72
9908.00,1.72
9907.00,1.71
9906.00,1.71
9905.00,1.71
9904.00,1.71
9903.00,1.70
9902.00,1.70
9901.00,1.70
9900.00,1.69
9899.00,1.69
9898.00,1.69
9897.00,1.69
9896.00,1.69
9895.00,1.69
9894.00,1.69
9893.00,1.69
9892.00,1.69
9891.00,1.69
9890.00,1.69
9889.00,1.69
9888.00,1.69
9887.00,1.69
9886.00,1.69
9885.00,1.69
9884.00,1.69
9883.00,1.69
9882.00,1.70
9881.00,1.70
9880.00,1.70
9879.00,1.70
9878.00,1.70
9877.00,1.70
9876.00,1.70
9875.00,1.70
9874.00,1.70
9873.00,1.70
9872.00,1.70
9871.00,1.70
9870.00,1.70
9869.00,1.70
9868.00,1.70
9867.00,1.70
9866.00,1.70
9865.00,1.71
9864.00,1.71
9863.00,1.71
9862.00,1.71
9861.00,1.71
9860.00,1.71
9859.00,1.71
9858.00,1.71
9857.00,1.71
9856.00,1.71
9855.00,1.71
9854.00,1.71
9853.00,1.71
9852.00,1.71
9851.00,1.71
9850.00,1.71
9849.00,1.71
9848.00,1.70
9847.00,1.70
9846.00,1.70
9845.00,1.70
9844.00,1.70
9843.00,1.69
9842.00,1.69
9841.00,1.69
9840.00,1.69
9839.00,1.69
9838.00,1.68
9837.00,1.68
9836.00,1.68
9835.00,1.68
9834.00,1.68
9833.00,1.68
9832.00,1.68
9831.00,1.68
9830.00,1.68
9829.00,1.68
9828.00,1.69
9827.00,1.69
9826.00,1.69
9825.00,1.69
9824.00,1.69
9823.00,1.69
9822.00,1.69
9821.00,1.70
9820.00,1.70
9819.00,1.70
9818.00,1.70
9817.00,1.70
9816.00,1.71
9815.00,1.71
9814.00,1.71
9813.00,1.71
9812.00,1.71
9811.00,1.71
9810.00,1.72
9809.00,1.72
9808.00,1.72
9807.00,1.72
9806.00,1.72
9805.00,1.72
9804.00,1.72
9803.00,1.72
9802.00,1.72
9801.00,1.71
9800.00,1.71
9799.00,1.71
9798.00,1.71
9797.00,1.71
9796.00,1.71
9795.00,1.70
9794.00,1.70
9793.00,1.70
9792.00,1.70
9791.00,1.70
9790.00,1.69
9789.00,1.69
9788.00,1.69
9787.00,1.69
9786.00,1.69
9785.00,1.69
9784.00,1.69
9783.00,1.68
9782.00,1.68
9781.00,1.68
9780.00,1.68
9779.00,1.68
9778.00,1.68
9777.00,1.69
9776.00,1.69
9775.00,1.69
9774.00,1.69
9773.00,1.69
9772.00,1.69
9771.00,1.69
9770.00,1.69
9769.00,1.69
9768.00,1.69
9767.00,1.69
9766.00,1.69
9765.00,1.69
9764.00,1.69
9763.00,1.69
9762.00,1.69
9761.00,1.69
9760.00,1.69
9759.00,1.69
9758.00,1.69
9757.00,1.68
9756.00,1.68
9755.00,1.68
9754.00,1.68
9753.00,1.68
9752.00,1.68
9751.00,1.68
9750.00,1.68
9749.00,1.68
9748.00,1.68
9747.00,1.68
9746.00,1.68
9745.00,1.68
9744.00,1.68
9743.00,1.68
9742.00,1.68
9741.00,1.68
9740.00,1.68
9739.00,1.68
9738.00,1.68
9737.00,1.68
9736.00,1.68
9735.00,1.68
9734.00,1.69
9733.00,1.69
9732.00,1.69
9731.00,1.69
9730.00,1.69
9729.00,1.69
9728.00,1.69
9727.00,1.70
9726.00,1.70
9725.00,1.70
9724.00,1.70
9723.00,1.70
9722.00,1.70
9721.00,1.70
9720.00,1.70
9719.00,1.70
9718.00,1.70
9717.00,1.70
9716.00,1.70
9715.00,1.70
9714.00,1.70
9713.00,1.70
9712.00,1.70
9711.00,1.70
9710.00,1.69
9709.00,1.69
9708.00,1.69
9707.00,1.69
9706.00,1.69
9705.00,1.69
9704.00,1.69
9703.00,1.69
9702.00,1.69
9701.00,1.69
9700.00,1.69
9699.00,1.69
9698.00,1.69
9697.00,1.69
9696.00,1.69
9695.00,1.69
9694.00,1.69
9693.00,1.69
9692.00,1.69
9691.00,1.69
9690.00,1.69
9689.00,1.69
9688.00,1.69
9687.00,1.69
9686.00,1.69
9685.00,1.69
9684.00,1.69
9683.00,1.69
9682.00,1.69
9681.00,1.69
9680.00,1.69
9679.00,1.69
9678.00,1.70
9677.00,1.70
9676.00,1.70
9675.00,1.70
9674.00,1.70
9673.00,1.70
9672.00,1.70
9671.00,1.71
9670.00,1.71
9669.00,1.71
9668.00,1.71
9667.00,1.71
9666.00,1.71
9665.00,1.71
9664.00,1.71
9663.00,1.71
9662.00,1.71
9661.00,1.71
9660.00,1.71
9659.00,1.71
9658.00,1.71
9657.00,1.71
9656.00,1.71
9655.00,1.71
9654.00,1.71
9653.00,1.71
9652.00,1.71
9651.00,1.71
9650.00,1.71
9649.00,1.71
9648.00,1.70
9647.00,1.70
9646.00,1.70
9645.00,1.70
9644.00,1.70
9643.00,1.70
9642.00,1.69
9641.00,1.69
9640.00,1.69
9639.00,1.69
9638.00,1.69
9637.00,1.68
9636.00,1.68
9635.00,1.68
9634.00,1.68
9633.00,1.68
9632.00,1.67
9631.00,1.67
9630.00,1.67
9629.00,1.67
9628.00,1.67
9627.00,1.67
9626.00,1.67
9625.00,1.67
9624.00,1.67
9623.00,1.67
9622.00,1.67
9621.00,1.67
9620.00,1.67
9619.00,1.67
9618.00,1.67
9617.00,1.67
9616.00,1.68
9615.00,1.68
9614.00,1.68
9613.00,1.68
9612.00,1.68
9611.00,1.69
9610.00,1.69
9609.00,1.69
9608.00,1.69
9607.00,1.69
9606.00,1.69
9605.00,1.69
9604.00,1.69
9603.00,1.69
9602.00,1.69
9601.00,1.69
9600.00,1.68
9599.00,1.68
9598.00,1.68
9597.00,1.68
9596.00,1.68
9595.00,1.68
9594.00,1.68
9593.00,1.68
9592.00,1.68
9591.00,1.68
9590.00,1.67
9589.00,1.67
9588.00,1.67
9587.00,1.67
9586.00,1.67
9585.00,1.67
9584.00,1.67
9583.00,1.67
9582.00,1.67
9581.00,1.67
9580.00,1.67
9579.00,1.67
9578.00,1.67
9577.00,1.67
9576.00,1.67
9575.00,1.67
9574.00,1.67
9573.00,1.67
9572.00,1.67
9571.00,1.67
9570.00,1.67
9569.00,1.68
9568.00,1.68
9567.00,1.68
9566.00,1.68
9565.00,1.68
9564.00,1.68
9563.00,1.68
9562.00,1.69
9561.00,1.69
9560.00,1.69
9559.00,1.69
9558.00,1.69
9557.00,1.69
9556.00,1.69
9555.00,1.70
9554.00,1.70
9553.00,1.70
9552.00,1.70
9551.00,1.70
9550.00,1.70
9549.00,1.70
9548.00,1.70
9547.00,1.70
9546.00,1.70
9545.00,1.69
9544.00,1.69
9543.00,1.69
9542.00,1.69
9541.00,1.69
9540.00,1.69
9539.00,1.69
9538.00,1.69
9537.00,1.69
9536.00,1.69
9535.00,1.69
9534.00,1.69
9533.00,1.69
9532.00,1.69
9531.00,1.69
9530.00,1.70
9529.00,1.70
9528.00,1.70
9527.00,1.70
9526.00,1.70
9525.00,1.70
9524.00,1.70
9523.00,1.70
9522.00,1.70
9521.00,1.70
9520.00,1.70
9519.00,1.70
9518.00,1.70
9517.00,1.69
9516.00,1.69
9515.00,1.69
9514.00,1.68
9513.00,1.68
9512.00,1.68
9511.00,1.67
9510.00,1.67
9509.00,1.66
9508.00,1.66
9507.00,1.66
9506.00,1.66
9505.00,1.66
9504.00,1.66
9503.00,1.66
9502.00,1.66
9501.00,1.66
9500.00,1.66
9499.00,1.66
9498.00,1.66
9497.00,1.67
9496.00,1.67
9495.00,1.67
9494.00,1.67
9493.00,1.67
9492.00,1.68
9491.00,1.68
9490.00,1.68
9489.00,1.68
9488.00,1.68
9487.00,1.68
9486.00,1.68
9485.00,1.68
9484.00,1.68
9483.00,1.68
9482.00,1.68
9481.00,1.68
9480.00,1.68
9479.00,1.68
9478.00,1.69
9477.00,1.69
9476.00,1.69
9475.00,1.69
9474.00,1.69
9473.00,1.70
9472.00,1.70
9471.00,1.70
9470.00,1.70
9469.00,1.71
9468.00,1.71
9467.00,1.71
9466.00,1.71
9465.00,1.72
9464.00,1.72
9463.00,1.72
9462.00,1.72
9461.00,1.72
9460.00,1.72
9459.00,1.72
9458.00,1.71
9457.00,1.71
9456.00,1.71
9455.00,1.71
9454.00,1.71
9453.00,1.71
9452.00,1.70
9451.00,1.70
9450.00,1.70
9449.00,1.70
9448.00,1.70
9447.00,1.70
9446.00,1.70
9445.00,1.70
9444.00,1.70
9443.00,1.70
9442.00,1.71
9441.00,1.71
9440.00,1.71
9439.00,1.71
9438.00,1.71
9437.00,1.71
9436.00,1.71
9435.00,1.71
9434.00,1.71
9433.00,1.71
9432.00,1.71
9431.00,1.71
9430.00,1.71
9429.00,1.71
9428.00,1.71
9427.00,1.71
9426.00,1.71
9425.00,1.71
9424.00,1.70
9423.00,1.70
9422.00,1.70
9421.00,1.70
9420.00,1.70
9419.00,1.70
9418.00,1.70
9417.00,1.70
9416.00,1.70
9415.00,1.70
9414.00,1.71
9413.00,1.71
9412.00,1.71
9411.00,1.71
9410.00,1.71
9409.00,1.71
9408.00,1.71
9407.00,1.71
9406.00,1.71
9405.00,1.71
9404.00,1.70
9403.00,1.70
9402.00,1.70
9401.00,1.70
9400.00,1.70
9399.00,1.70
9398.00,1.70
9397.00,1.69
9396.00,1.69
9395.00,1.69
9394.00,1.69
9393.00,1.69
9392.00,1.69
9391.00,1.69
9390.00,1.69
9389.00,1.69
9388.00,1.69
9387.00,1.69
9386.00,1.69
9385.00,1.69
9384.00,1.69
9383.00,1.69
9382.00,1.69
9381.00,1.69
9380.00,1.69
9379.00,1.69
9378.00,1.69
9377.00,1.69
9376.00,1.69
9375.00,1.69
9374.00,1.69
9373.00,1.69
9372.00,1.69
9371.00,1.69
9370.00,1.69
9369.00,1.69
9368.00,1.69
9367.00,1.69
9366.00,1.69
9365.00,1.69
9364.00,1.70
9363.00,1.70
9362.00,1.70
9361.00,1.70
9360.00,1.70
9359.00,1.71
9358.00,1.71
9357.00,1.71
9356.00,1.71
9355.00,1.71
9354.00,1.71
9353.00,1.72
9352.00,1.72
9351.00,1.72
9350.00,1.72
9349.00,1.72
9348.00,1.72
9347.00,1.72
9346.00,1.72
9345.00,1.72
9344.00,1.72
9343.00,1.72
9342.00,1.72
9341.00,1.72
9340.00,1.72
9339.00,1.72
9338.00,1.72
9337.00,1.72
9336.00,1.72
9335.00,1.72
9334.00,1.72
9333.00,1.71
9332.00,1.71
9331.00,1.71
9330.00,1.71
9329.00,1.71
9328.00,1.71
9327.00,1.70
9326.00,1.70
9325.00,1.70
9324.00,1.70
9323.00,1.69
9322.00,1.69
9321.00,1.69
9320.00,1.69
9319.00,1.69
9318.00,1.68
9317.00,1.68
9316.00,1.68
9315.00,1.68
9314.00,1.68
9313.00,1.68
9312.00,1.68
9311.00,1.68
9310.00,1.68
9309.00,1.68
9308.00,1.68
9307.00,1.68
9306.00,1.68
9305.00,1.68
9304.00,1.68
9303.00,1.69
9302.00,1.69
9301.00,1.69
9300.00,1.69
9299.00,1.70
9298.00,1.70
9297.00,1.70
9296.00,1.70
9295.00,1.71
9294.00,1.71
9293.00,1.71
9292.00,1.71
9291.00,1.71
9290.00,1.71
9289.00,1.71
9288.00,1.71
9287.00,1.71
9286.00,1.71
9285.00,1.70
9284.00,1.70
9283.00,1.70
9282.00,1.70
9281.00,1.70
9280.00,1.70
9279.00,1.70
9278.00,1.70
9277.00,1.70
9276.00,1.70
9275.00,1.70
9274.00,1.70
9273.00,1.70
9272.00,1.69
9271.00,1.69
9270.00,1.69
9269.00,1.69
9268.00,1.69
9267.00,1.69
9266.00,1.69
9265.00,1.69
9264.00,1.69
9263.00,1.69
9262.00,1.69
9261.00,1.69
9260.00,1.69
9259.00,1.69
9258.00,1.69
9257.00,1.69
9256.00,1.69
9255.00,1.69
9254.00,1.69
9253.00,1.69
9252.00,1.69
9251.00,1.69
9250.00,1.69
9249.00,1.69
9248.00,1.69
9247.00,1.69
9246.00,1.69
9245.00,1.69
9244.00,1.69
9243.00,1.69
9242.00,1.69
9241.00,1.69
9240.00,1.69
9239.00,1.69
9238.00,1.69
9237.00,1.68
9236.00,1.68
9235.00,1.68
9234.00,1.68
9233.00,1.68
9232.00,1.68
9231.00,1.68
9230.00,1.68
9229.00,1.68
9228.00,1.68
9227.00,1.68
9226.00,1.68
9225.00,1.68
9224.00,1.68
9223.00,1.68
9222.00,1.68
9221.00,1.68
9220.00,1.68
9219.00,1.68
9218.00,1.68
9217.00,1.68
9216.00,1.68
9215.00,1.68
9214.00,1.68
9213.00,1.69
9212.00,1.69
9211.00,1.69
9210.00,1.69
9209.00,1.69
9208.00,1.69
9207.00,1.69
9206.00,1.69
9205.00,1.69
9204.00,1.69
9203.00,1.69
9202.00,1.69
9201.00,1.69
9200.00,1.69
9199.00,1.69
9198.00,1.69
9197.00,1.69
9196.00,1.69
9195.00,1.69
9194.00,1.69
9193.00,1.69
9192.00,1.69
9191.00,1.69
9190.00,1.69
9189.00,1.69
9188.00,1.69
9187.00,1.69
9186.00,1.69
9185.00,1.69
9184.00,1.69
9183.00,1.68
9182.00,1.68
9181.00,1.68
9180.00,1.68
9179.00,1.69
9178.00,1.69
9177.00,1.69
9176.00,1.69
9175.00,1.69
9174.00,1.69
9173.00,1.69
9172.00,1.69
9171.00,1.70
9170.00,1.70
9169.00,1.70
9168.00,1.70
9167.00,1.71
9166.00,1.71
9165.00,1.71
9164.00,1.71
9163.00,1.71
9162.00,1.71
9161.00,1.71
9160.00,1.71
9159.00,1.71
9158.00,1.71
9157.00,1.71
9156.00,1.71
9155.00,1.71
9154.00,1.71
9153.00,1.71
9152.00,1.71
9151.00,1.71
9150.00,1.70
9149.00,1.70
9148.00,1.70
9147.00,1.70
9146.00,1.70
9145.00,1.70
9144.00,1.70
9143.00,1.70
9142.00,1.69
9141.00,1.69
9140.00,1.69
9139.00,1.69
9138.00,1.69
9137.00,1.69
9136.00,1.69
9135.00,1.69
9134.00,1.69
9133.00,1.69
9132.00,1.69
9131.00,1.69
9130.00,1.69
9129.00,1.69
9128.00,1.69
9127.00,1.69
9126.00,1.69
9125.00,1.69
9124.00,1.69
9123.00,1.69
9122.00,1.69
9121.00,1.70
9120.00,1.70
9119.00,1.70
9118.00,1.70
9117.00,1.70
9116.00,1.70
9115.00,1.70
9114.00,1.70
9113.00,1.70
9112.00,1.70
9111.00,1.70
9110.00,1.70
9109.00,1.70
9108.00,1.70
9107.00,1.70
9106.00,1.70
9105.00,1.70
9104.00,1.70
9103.00,1.70
9102.00,1.70
9101.00,1.70
9100.00,1.70
9099.00,1.70
9098.00,1.70
9097.00,1.71
9096.00,1.71
9095.00,1.71
9094.00,1.71
9093.00,1.71
9092.00,1.71
9091.00,1.71
9090.00,1.71
9089.00,1.71
9088.00,1.71
9087.00,1.71
9086.00,1.71
9085.00,1.71
9084.00,1.71
9083.00,1.71
9082.00,1.70
9081.00,1.70
9080.00,1.70
9079.00,1.70
9078.00,1.70
9077.00,1.70
9076.00,1.70
9075.00,1.70
9074.00,1.70
9073.00,1.70
9072.00,1.70
9071.00,1.70
9070.00,1.70
9069.00,1.70
9068.00,1.70
9067.00,1.70
9066.00,1.70
9065.00,1.70
9064.00,1.70
9063.00,1.70
9062.00,1.70
9061.00,1.70
9060.00,1.70
9059.00,1.69
9058.00,1.69
9057.00,1.69
9056.00,1.69
9055.00,1.69
9054.00,1.69
9053.00,1.69
9052.00,1.69
9051.00,1.69
9050.00,1.69
9049.00,1.69
9048.00,1.69
9047.00,1.69
9046.00,1.69
9045.00,1.69
9044.00,1.70
9043.00,1.70
9042.00,1.70
9041.00,1.70
9040.00,1.70
9039.00,1.70
9038.00,1.71
9037.00,1.71
9036.00,1.71
9035.00,1.71
9034.00,1.71
9033.00,1.71
9032.00,1.71
9031.00,1.71
9030.00,1.71
9029.00,1.71
9028.00,1.71
9027.00,1.71
9026.00,1.70
9025.00,1.70
9024.00,1.70
9023.00,1.70
9022.00,1.70
9021.00,1.70
9020.00,1.70
9019.00,1.70
9018.00,1.70
9017.00,1.70
9016.00,1.70
9015.00,1.70
9014.00,1.70
9013.00,1.70
9012.00,1.70
9011.00,1.70
9010.00,1.70
9009.00,1.71
9008.00,1.71
9007.00,1.71
9006.00,1.71
9005.00,1.71
9004.00,1.71
9003.00,1.71
9002.00,1.71
9001.00,1.71
9000.00,1.71
8999.00,1.71
8998.00,1.71
8997.00,1.71
8996.00,1.71
8995.00,1.71
8994.00,1.71
8993.00,1.71
8992.00,1.71
8991.00,1.72
8990.00,1.72
8989.00,1.72
8988.00,1.72
8987.00,1.71
8986.00,1.71
8985.00,1.71
8984.00,1.71
8983.00,1.71
8982.00,1.71
8981.00,1.71
8980.00,1.71
8979.00,1.71
8978.00,1.71
8977.00,1.71
8976.00,1.71
8975.00,1.71
8974.00,1.70
8973.00,1.70
8972.00,1.70
8971.00,1.70
8970.00,1.70
8969.00,1.70
8968.00,1.69
8967.00,1.69
8966.00,1.69
8965.00,1.69
8964.00,1.69
8963.00,1.69
8962.00,1.68
8961.00,1.68
8960.00,1.68
8959.00,1.68
8958.00,1.68
8957.00,1.68
8956.00,1.68
8955.00,1.68
8954.00,1.68
8953.00,1.68
8952.00,1.68
8951.00,1.68
8950.00,1.68
8949.00,1.68
8948.00,1.68
8947.00,1.68
8946.00,1.68
8945.00,1.68
8944.00,1.69
8943.00,1.69
8942.00,1.69
8941.00,1.69
8940.00,1.69
8939.00,1.69
8938.00,1.70
8937.00,1.70
8936.00,1.70
8935.00,1.70
8934.00,1.71
8933.00,1.71
8932.00,1.71
8931.00,1.71
8930.00,1.71
8929.00,1.72
8928.00,1.72
8927.00,1.72
8926.00,1.72
8925.00,1.72
8924.00,1.72
8923.00,1.72
8922.00,1.72
8921.00,1.72
8920.00,1.71
8919.00,1.71
8918.00,1.71
8917.00,1.71
8916.00,1.71
8915.00,1.70
8914.00,1.70
8913.00,1.70
8912.00,1.70
8911.00,1.70
8910.00,1.70
8909.00,1.69
8908.00,1.69
8907.00,1.69
8906.00,1.69
8905.00,1.69
8904.00,1.69
8903.00,1.69
8902.00,1.69
8901.00,1.69
8900.00,1.69
8899.00,1.69
8898.00,1.70
8897.00,1.70
8896.00,1.70
8895.00,1.70
8894.00,1.70
8893.00,1.70
8892.00,1.70
8891.00,1.70
8890.00,1.70
8889.00,1.70
8888.00,1.70
8887.00,1.70
8886.00,1.70
8885.00,1.69
8884.00,1.69
8883.00,1.69
8882.00,1.69
8881.00,1.69
8880.00,1.69
8879.00,1.69
8878.00,1.69
8877.00,1.69
8876.00,1.69
8875.00,1.69
8874.00,1.68
8873.00,1.68
8872.00,1.68
8871.00,1.69
8870.00,1.69
8869.00,1.69
8868.00,1.69
8867.00,1.69
8866.00,1.69
8865.00,1.69
8864.00,1.69
8863.00,1.69
8862.00,1.69
8861.00,1.69
8860.00,1.69
8859.00,1.69
8858.00,1.69
8857.00,1.69
8856.00,1.69
8855.00,1.69
8854.00,1.69
8853.00,1.69
8852.00,1.69
8851.00,1.69
8850.00,1.69
8849.00,1.68
8848.00,1.68
8847.00,1.68
8846.00,1.68
8845.00,1.68
8844.00,1.68
8843.00,1.68
8842.00,1.68
8841.00,1.68
8840.00,1.68
8839.00,1.68
8838.00,1.68
8837.00,1.68
8836.00,1.68
8835.00,1.68
8834.00,1.68
8833.00,1.68
8832.00,1.68
8831.00,1.68
8830.00,1.68
8829.00,1.68
8828.00,1.68
8827.00,1.68
8826.00,1.68
8825.00,1.68
8824.00,1.68
8823.00,1.67
8822.00,1.67
8821.00,1.67
8820.00,1.67
8819.00,1.67
8818.00,1.66
8817.00,1.66
8816.00,1.66
8815.00,1.66
8814.00,1.66
8813.00,1.66
8812.00,1.65
8811.00,1.65
8810.00,1.65
8809.00,1.65
8808.00,1.65
8807.00,1.65
8806.00,1.65
8805.00,1.65
8804.00,1.65
8803.00,1.65
8802.00,1.65
8801.00,1.65
8800.00,1.65
8799.00,1.65
8798.00,1.65
8797.00,1.65
8796.00,1.65
8795.00,1.65
8794.00,1.65
8793.00,1.64
8792.00,1.64
8791.00,1.64
8790.00,1.64
8789.00,1.64
8788.00,1.64
8787.00,1.64
8786.00,1.64
8785.00,1.63
8784.00,1.63
8783.00,1.63
8782.00,1.63
8781.00,1.63
8780.00,1.63
8779.00,1.63
8778.00,1.63
8777.00,1.63
8776.00,1.63
8775.00,1.64
8774.00,1.64
8773.00,1.64
8772.00,1.64
8771.00,1.64
8770.00,1.64
8769.00,1.64
8768.00,1.64
8767.00,1.64
8766.00,1.64
8765.00,1.64
8764.00,1.64
8763.00,1.64
8762.00,1.64
8761.00,1.63
8760.00,1.63
8759.00,1.63
8758.00,1.63
8757.00,1.63
8756.00,1.63
8755.00,1.63
8754.00,1.63
8753.00,1.63
8752.00,1.63
8751.00,1.63
8750.00,1.62
8749.00,1.62
8748.00,1.62
8747.00,1.62
8746.00,1.62
8745.00,1.62
8744.00,1.62
8743.00,1.62
8742.00,1.62
8741.00,1.62
8740.00,1.62
8739.00,1.62
8738.00,1.62
8737.00,1.62
8736.00,1.62
8735.00,1.62
8734.00,1.62
8733.00,1.61
8732.00,1.61
8731.00,1.61
8730.00,1.61
8729.00,1.61
8728.00,1.61
8727.00,1.60
8726.00,1.60
8725.00,1.60
8724.00,1.59
8723.00,1.59
8722.00,1.59
8721.00,1.59
8720.00,1.58
8719.00,1.58
8718.00,1.58
8717.00,1.58
8716.00,1.58
8715.00,1.58
8714.00,1.58
8713.00,1.58
8712.00,1.58
8711.00,1.58
8710.00,1.58
8709.00,1.58
8708.00,1.59
8707.00,1.59
8706.00,1.59
8705.00,1.59
8704.00,1.59
8703.00,1.60
8702.00,1.60
8701.00,1.60
8700.00,1.60
8699.00,1.60
8698.00,1.60
8697.00,1.60
8696.00,1.60
8695.00,1.60
8694.00,1.60
8693.00,1.60
8692.00,1.60
8691.00,1.60
8690.00,1.60
8689.00,1.60
8688.00,1.60
8687.00,1.60
8686.00,1.60
8685.00,1.60
8684.00,1.59
8683.00,1.59
8682.00,1.59
8681.00,1.59
8680.00,1.59
8679.00,1.59
8678.00,1.59
8677.00,1.58
8676.00,1.58
8675.00,1.58
8674.00,1.58
8673.00,1.58
8672.00,1.58
8671.00,1.58
8670.00,1.58
8669.00,1.58
8668.00,1.58
8667.00,1.58
8666.00,1.58
8665.00,1.58
8664.00,1.58
8663.00,1.58
8662.00,1.58
8661.00,1.58
8660.00,1.58
8659.00,1.58
8658.00,1.58
8657.00,1.58
8656.00,1.58
8655.00,1.58
8654.00,1.58
8653.00,1.57
8652.00,1.57
8651.00,1.57
8650.00,1.57
8649.00,1.57
8648.00,1.57
8647.00,1.57
8646.00,1.56
8645.00,1.56
8644.00,1.56
8643.00,1.56
8642.00,1.56
8641.00,1.56
8640.00,1.56
8639.00,1.56
8638.00,1.56
8637.00,1.56
8636.00,1.56
8635.00,1.56
8634.00,1.56
8633.00,1.56
8632.00,1.55
8631.00,1.55
8630.00,1.55
8629.00,1.55
8628.00,1.55
8627.00,1.55
8626.00,1.55
8625.00,1.55
8624.00,1.55
8623.00,1.55
8622.00,1.55
8621.00,1.54
8620.00,1.54
8619.00,1.54
8618.00,1.54
8617.00,1.54
8616.00,1.54
8615.00,1.54
8614.00,1.54
8613.00,1.54
8612.00,1.54
8611.00,1.54
8610.00,1.54
8609.00,1.54
8608.00,1.54
8607.00,1.54
8606.00,1.54
8605.00,1.54
8604.00,1.54
8603.00,1.54
8602.00,1.54
8601.00,1.54
8600.00,1.54
8599.00,1.54
8598.00,1.54
8597.00,1.54
8596.00,1.54
8595.00,1.54
8594.00,1.54
8593.00,1.54
8592.00,1.54
8591.00,1.54
8590.00,1.54
8589.00,1.54
8588.00,1.55
8587.00,1.55
8586.00,1.55
8585.00,1.55
8584.00,1.55
8583.00,1.54
8582.00,1.54
8581.00,1.54
8580.00,1.54
8579.00,1.54
8578.00,1.54
8577.00,1.54
8576.00,1.53
8575.00,1.53
8574.00,1.53
8573.00,1.53
8572.00,1.53
8571.00,1.52
8570.00,1.52
8569.00,1.52
8568.00,1.52
8567.00,1.52
8566.00,1.51
8565.00,1.51
8564.00,1.51
8563.00,1.51
8562.00,1.51
8561.00,1.51
8560.00,1.51
8559.00,1.51
8558.00,1.51
8557.00,1.51
8556.00,1.50
8555.00,1.50
8554.00,1.51
8553.00,1.51
8552.00,1.51
8551.00,1.51
8550.00,1.51
8549.00,1.51
8548.00,1.51
8547.00,1.51
8546.00,1.51
8545.00,1.51
8544.00,1.51
8543.00,1.51
8542.00,1.51
8541.00,1.51
8540.00,1.51
8539.00,1.51
8538.00,1.51
8537.00,1.51
8536.00,1.51
8535.00,1.51
8534.00,1.51
8533.00,1.51
8532.00,1.51
8531.00,1.51
8530.00,1.50
8529.00,1.50
8528.00,1.50
8527.00,1.50
8526.00,1.50
8525.00,1.50
8524.00,1.50
8523.00,1.50
8522.00,1.50
8521.00,1.50
8520.00,1.49
8519.00,1.49
8518.00,1.49
8517.00,1.49
8516.00,1.49
8515.00,1.49
8514.00,1.49
8513.00,1.49
8512.00,1.49
8511.00,1.49
8510.00,1.48
8509.00,1.48
8508.00,1.48
8507.00,1.48
8506.00,1.48
8505.00,1.48
8504.00,1.48
8503.00,1.47
8502.00,1.47
8501.00,1.47
8500.00,1.47
8499.00,1.47
8498.00,1.46
8497.00,1.46
8496.00,1.46
8495.00,1.46
8494.00,1.46
8493.00,1.46
8492.00,1.46
8491.00,1.45
8490.00,1.45
8489.00,1.45
8488.00,1.45
8487.00,1.45
8486.00,1.45
8485.00,1.45
8484.00,1.45
8483.00,1.45
8482.00,1.45
8481.00,1.45
8480.00,1.45
8479.00,1.44
8478.00,1.44
8477.00,1.44
8476.00,1.44
8475.00,1.44
8474.00,1.43
8473.00,1.43
8472.00,1.43
8471.00,1.43
8470.00,1.43
8469.00,1.42
8468.00,1.42
8467.00,1.42
8466.00,1.42
8465.00,1.42
8464.00,1.42
8463.00,1.41
8462.00,1.41
8461.00,1.41
8460.00,1.41
8459.00,1.41
8458.00,1.41
8457.00,1.41
8456.00,1.41
8455.00,1.41
8454.00,1.40
8453.00,1.40
8452.00,1.40
8451.00,1.40
8450.00,1.40
8449.00,1.40
8448.00,1.40
8447.00,1.40
8446.00,1.40
8445.00,1.40
8444.00,1.40
8443.00,1.40
8442.00,1.40
8441.00,1.40
8440.00,1.40
8439.00,1.40
8438.00,1.40
8437.00,1.40
8436.00,1.40
8435.00,1.40
8434.00,1.40
8433.00,1.40
8432.00,1.40
8431.00,1.40
8430.00,1.41
8429.00,1.41
8428.00,1.41
8427.00,1.41
8426.00,1.41
8425.00,1.41
8424.00,1.41
8423.00,1.41
8422.00,1.41
8421.00,1.41
8420.00,1.42
8419.00,1.42
8418.00,1.42
8417.00,1.42
8416.00,1.42
8415.00,1.42
8414.00,1.42
8413.00,1.42
8412.00,1.42
8411.00,1.42
8410.00,1.43
8409.00,1.43
8408.00,1.43
8407.00,1.43
8406.00,1.43
8405.00,1.44
8404.00,1.44
8403.00,1.44
8402.00,1.44
8401.00,1.45
8400.00,1.45
8399.00,1.45
8398.00,1.46
8397.00,1.46
8396.00,1.46
8395.00,1.47
8394.00,1.47
8393.00,1.47
8392.00,1.47
8391.00,1.48
8390.00,1.48
8389.00,1.48
8388.00,1.48
8387.00,1.48
8386.00,1.48
8385.00,1.49
8384.00,1.49
8383.00,1.49
8382.00,1.49
8381.00,1.49
8380.00,1.49
8379.00,1.49
8378.00,1.49
8377.00,1.48
8376.00,1.48
8375.00,1.48
8374.00,1.48
8373.00,1.48
8372.00,1.48
8371.00,1.48
8370.00,1.48
8369.00,1.48
8368.00,1.48
8367.00,1.48
8366.00,1.48
8365.00,1.48
8364.00,1.48
8363.00,1.48
8362.00,1.49
8361.00,1.49
8360.00,1.49
8359.00,1.49
8358.00,1.49
8357.00,1.49
8356.00,1.49
8355.00,1.49
8354.00,1.49
8353.00,1.49
8352.00,1.49
8351.00,1.49
8350.00,1.48
8349.00,1.48
8348.00,1.48
8347.00,1.48
8346.00,1.48
8345.00,1.48
8344.00,1.48
8343.00,1.48
8342.00,1.48
8341.00,1.48
8340.00,1.48
8339.00,1.48
8338.00,1.48
8337.00,1.48
8336.00,1.49
8335.00,1.49
8334.00,1.49
8333.00,1.49
8332.00,1.49
8331.00,1.49
8330.00,1.49
8329.00,1.49
8328.00,1.49
8327.00,1.50
8326.00,1.50
8325.00,1.50
8324.00,1.50
8323.00,1.50
8322.00,1.50
8321.00,1.50
8320.00,1.50
8319.00,1.50
8318.00,1.50
8317.00,1.50
8316.00,1.50
8315.00,1.50
8314.00,1.50
8313.00,1.50
8312.00,1.50
8311.00,1.50
8310.00,1.50
8309.00,1.50
8308.00,1.50
8307.00,1.50
8306.00,1.50
8305.00,1.50
8304.00,1.50
8303.00,1.50
8302.00,1.50
8301.00,1.50
8300.00,1.50
8299.00,1.50
8298.00,1.50
8297.00,1.50
8296.00,1.50
8295.00,1.50
8294.00,1.50
8293.00,1.50
8292.00,1.50
8291.00,1.50
8290.00,1.50
8289.00,1.50
8288.00,1.50
8287.00,1.51
8286.00,1.51
8285.00,1.51
8284.00,1.51
8283.00,1.51
8282.00,1.51
8281.00,1.51
8280.00,1.51
8279.00,1.51
8278.00,1.51
8277.00,1.51
8276.00,1.52
8275.00,1.52
8274.00,1.52
8273.00,1.52
8272.00,1.52
8271.00,1.52
8270.00,1.52
8269.00,1.52
8268.00,1.53
8267.00,1.53
8266.00,1.53
8265.00,1.53
8264.00,1.53
8263.00,1.53
8262.00,1.53
8261.00,1.53
8260.00,1.53
8259.00,1.53
8258.00,1.52
8257.00,1.52
8256.00,1.52
8255.00,1.52
8254.00,1.52
8253.00,1.52
8252.00,1.52
8251.00,1.52
8250.00,1.52
8249.00,1.52
8248.00,1.52
8247.00,1.52
8246.00,1.52
8245.00,1.52
8244.00,1.52
8243.00,1.52
8242.00,1.52
8241.00,1.52
8240.00,1.52
8239.00,1.52
8238.00,1.52
8237.00,1.53
8236.00,1.53
8235.00,1.53
8234.00,1.53
8233.00,1.53
8232.00,1.53
8231.00,1.53
8230.00,1.54
8229.00,1.54
8228.00,1.54
8227.00,1.54
8226.00,1.54
8225.00,1.54
8224.00,1.54
8223.00,1.54
8222.00,1.54
8221.00,1.54
8220.00,1.54
8219.00,1.54
8218.00,1.54
8217.00,1.54
8216.00,1.54
8215.00,1.54
8214.00,1.54
8213.00,1.54
8212.00,1.54
8211.00,1.55
8210.00,1.55
8209.00,1.55
8208.00,1.55
8207.00,1.55
8206.00,1.55
8205.00,1.55
8204.00,1.55
8203.00,1.55
8202.00,1.55
8201.00,1.55
8200.00,1.55
8199.00,1.55
8198.00,1.55
8197.00,1.55
8196.00,1.55
8195.00,1.55
8194.00,1.55
8193.00,1.55
8192.00,1.55
8191.00,1.54
8190.00,1.54
8189.00,1.54
8188.00,1.55
8187.00,1.55
8186.00,1.55
8185.00,1.55
8184.00,1.55
8183.00,1.55
8182.00,1.55
8181.00,1.55
8180.00,1.55
8179.00,1.55
8178.00,1.56
8177.00,1.56
8176.00,1.56
8175.00,1.56
8174.00,1.56
8173.00,1.56
8172.00,1.56
8171.00,1.56
8170.00,1.57
8169.00,1.57
8168.00,1.57
8167.00,1.57
8166.00,1.57
8165.00,1.57
8164.00,1.57
8163.00,1.58
8162.00,1.58
8161.00,1.58
8160.00,1.58
8159.00,1.58
8158.00,1.58
8157.00,1.58
8156.00,1.58
8155.00,1.58
8154.00,1.58
8153.00,1.58
8152.00,1.58
8151.00,1.58
8150.00,1.58
8149.00,1.58
8148.00,1.58
8147.00,1.58
8146.00,1.58
8145.00,1.58
8144.00,1.58
8143.00,1.58
8142.00,1.58
8141.00,1.58
8140.00,1.58
8139.00,1.58
8138.00,1.59
8137.00,1.59
8136.00,1.59
8135.00,1.59
8134.00,1.59
8133.00,1.59
8132.00,1.59
8131.00,1.59
8130.00,1.59
8129.00,1.59
8128.00,1.60
8127.00,1.60
8126.00,1.60
8125.00,1.60
8124.00,1.60
8123.00,1.60
8122.00,1.60
8121.00,1.61
8120.00,1.61
8119.00,1.61
8118.00,1.61
8117.00,1.61
8116.00,1.61
8115.00,1.61
8114.00,1.61
8113.00,1.61
8112.00,1.61
8111.00,1.61
8110.00,1.61
8109.00,1.61
8108.00,1.61
8107.00,1.61
8106.00,1.61
8105.00,1.61
8104.00,1.61
8103.00,1.61
8102.00,1.61
8101.00,1.61
8100.00,1.61
8099.00,1.61
8098.00,1.61
8097.00,1.61
8096.00,1.61
8095.00,1.61
8094.00,1.61
8093.00,1.62
8092.00,1.62
8091.00,1.62
8090.00,1.62
8089.00,1.62
8088.00,1.62
8087.00,1.62
8086.00,1.62
8085.00,1.62
8084.00,1.62
8083.00,1.63
8082.00,1.63
8081.00,1.63
8080.00,1.63
8079.00,1.63
8078.00,1.63
8077.00,1.63
8076.00,1.63
8075.00,1.63
8074.00,1.63
8073.00,1.63
8072.00,1.62
8071.00,1.62
8070.00,1.62
8069.00,1.62
8068.00,1.62
8067.00,1.62
8066.00,1.62
8065.00,1.62
8064.00,1.62
8063.00,1.62
8062.00,1.63
8061.00,1.63
8060.00,1.63
8059.00,1.63
8058.00,1.63
8057.00,1.63
8056.00,1.63
8055.00,1.63
8054.00,1.63
8053.00,1.63
8052.00,1.63
8051.00,1.64
8050.00,1.64
8049.00,1.64
8048.00,1.64
8047.00,1.64
8046.00,1.64
8045.00,1.64
8044.00,1.64
8043.00,1.63
8042.00,1.63
8041.00,1.63
8040.00,1.63
8039.00,1.63
8038.00,1.63
8037.00,1.63
8036.00,1.63
8035.00,1.63
8034.00,1.63
8033.00,1.63
8032.00,1.63
8031.00,1.63
8030.00,1.63
8029.00,1.63
8028.00,1.63
8027.00,1.63
8026.00,1.63
8025.00,1.64
8024.00,1.64
8023.00,1.64
8022.00,1.64
8021.00,1.64
8020.00,1.64
8019.00,1.65
8018.00,1.65
8017.00,1.65
8016.00,1.65
8015.00,1.65
8014.00,1.65
8013.00,1.65
8012.00,1.65
8011.00,1.65
8010.00,1.65
8009.00,1.65
8008.00,1.65
8007.00,1.65
8006.00,1.65
8005.00,1.65
8004.00,1.65
8003.00,1.65
8002.00,1.65
8001.00,1.65
8000.00,1.65
7999.00,1.65
7998.00,1.65
7997.00,1.65
7996.00,1.65
7995.00,1.65
7994.00,1.65
7993.00,1.65
7992.00,1.65
7991.00,1.65
7990.00,1.65
7989.00,1.65
7988.00,1.65
7987.00,1.65
7986.00,1.65
7985.00,1.65
7984.00,1.65
7983.00,1.65
7982.00,1.65
7981.00,1.66
7980.00,1.66
7979.00,1.66
7978.00,1.66
7977.00,1.66
7976.00,1.66
7975.00,1.66
7974.00,1.66
7973.00,1.66
7972.00,1.66
7971.00,1.66
7970.00,1.66
7969.00,1.66
7968.00,1.66
7967.00,1.66
7966.00,1.66
7965.00,1.66
7964.00,1.66
7963.00,1.66
7962.00,1.66
7961.00,1.66
7960.00,1.66
7959.00,1.66
7958.00,1.65
7957.00,1.65
7956.00,1.66
7955.00,1.66
7954.00,1.66
7953.00,1.66
7952.00,1.66
7951.00,1.66
7950.00,1.66
7949.00,1.66
7948.00,1.66
7947.00,1.66
7946.00,1.66
7945.00,1.66
7944.00,1.66
7943.00,1.66
7942.00,1.66
7941.00,1.66
7940.00,1.66
7939.00,1.66
7938.00,1.66
7937.00,1.66
7936.00,1.66
7935.00,1.67
7934.00,1.67
7933.00,1.67
7932.00,1.67
7931.00,1.67
7930.00,1.67
7929.00,1.67
7928.00,1.67
7927.00,1.67
7926.00,1.67
7925.00,1.68
7924.00,1.68
7923.00,1.68
7922.00,1.68
7921.00,1.68
7920.00,1.68
7919.00,1.68
7918.00,1.68
7917.00,1.68
7916.00,1.68
7915.00,1.68
7914.00,1.68
7913.00,1.68
7912.00,1.67
7911.00,1.67
7910.00,1.67
7909.00,1.67
7908.00,1.67
7907.00,1.67
7906.00,1.67
7905.00,1.67
7904.00,1.67
7903.00,1.67
7902.00,1.67
7901.00,1.67
7900.00,1.67
7899.00,1.67
7898.00,1.68
7897.00,1.68
7896.00,1.68
7895.00,1.68
7894.00,1.68
7893.00,1.69
7892.00,1.69
7891.00,1.69
7890.00,1.69
7889.00,1.69
7888.00,1.69
7887.00,1.69
7886.00,1.69
7885.00,1.69
7884.00,1.69
7883.00,1.69
7882.00,1.69
7881.00,1.69
7880.00,1.69
7879.00,1.68
7878.00,1.68
7877.00,1.68
7876.00,1.68
7875.00,1.68
7874.00,1.68
7873.00,1.68
7872.00,1.68
7871.00,1.68
7870.00,1.68
7869.00,1.68
7868.00,1.68
7867.00,1.68
7866.00,1.68
7865.00,1.68
7864.00,1.68
7863.00,1.68
7862.00,1.68
7861.00,1.68
7860.00,1.69
7859.00,1.69
7858.00,1.69
7857.00,1.69
7856.00,1.69
7855.00,1.69
7854.00,1.69
7853.00,1.69
7852.00,1.69
7851.00,1.69
7850.00,1.69
7849.00,1.69
7848.00,1.69
7847.00,1.69
7846.00,1.69
7845.00,1.69
7844.00,1.69
7843.00,1.69
7842.00,1.69
7841.00,1.69
7840.00,1.69
7839.00,1.69
7838.00,1.69
7837.00,1.69
7836.00,1.69
7835.00,1.69
7834.00,1.69
7833.00,1.69
7832.00,1.69
7831.00,1.69
7830.00,1.69
7829.00,1.69
7828.00,1.69
7827.00,1.69
7826.00,1.69
7825.00,1.69
7824.00,1.69
7823.00,1.69
7822.00,1.69
7821.00,1.69
7820.00,1.69
7819.00,1.69
7818.00,1.69
7817.00,1.69
7816.00,1.69
7815.00,1.69
7814.00,1.69
7813.00,1.70
7812.00,1.70
7811.00,1.70
7810.00,1.70
7809.00,1.70
7808.00,1.70
7807.00,1.70
7806.00,1.70
7805.00,1.70
7804.00,1.70
7803.00,1.71
7802.00,1.71
7801.00,1.71
7800.00,1.71
7799.00,1.71
7798.00,1.71
7797.00,1.71
7796.00,1.71
7795.00,1.70
7794.00,1.70
7793.00,1.70
7792.00,1.70
7791.00,1.70
7790.00,1.70
7789.00,1.70
7788.00,1.70
7787.00,1.70
7786.00,1.70
7785.00,1.70
7784.00,1.70
7783.00,1.70
7782.00,1.70
7781.00,1.70
7780.00,1.70
7779.00,1.70
7778.00,1.70
7777.00,1.70
7776.00,1.70
7775.00,1.71
7774.00,1.71
7773.00,1.71
7772.00,1.71
7771.00,1.71
7770.00,1.71
7769.00,1.71
7768.00,1.71
7767.00,1.71
7766.00,1.71
7765.00,1.71
7764.00,1.71
7763.00,1.71
7762.00,1.71
7761.00,1.71
7760.00,1.71
7759.00,1.71
7758.00,1.71
7757.00,1.71
7756.00,1.71
7755.00,1.71
7754.00,1.71
7753.00,1.71
7752.00,1.71
7751.00,1.71
7750.00,1.71
7749.00,1.71
7748.00,1.71
7747.00,1.72
7746.00,1.72
7745.00,1.72
7744.00,1.72
7743.00,1.72
7742.00,1.72
7741.00,1.72
7740.00,1.72
7739.00,1.72
7738.00,1.72
7737.00,1.72
7736.00,1.72
7735.00,1.72
7734.00,1.72
7733.00,1.72
7732.00,1.72
7731.00,1.72
7730.00,1.72
7729.00,1.72
7728.00,1.72
7727.00,1.72
7726.00,1.72
7725.00,1.72
7724.00,1.72
7723.00,1.72
7722.00,1.72
7721.00,1.72
7720.00,1.72
7719.00,1.72
7718.00,1.72
7717.00,1.72
7716.00,1.72
7715.00,1.72
7714.00,1.72
7713.00,1.72
7712.00,1.72
7711.00,1.72
7710.00,1.72
7709.00,1.72
7708.00,1.72
7707.00,1.72
7706.00,1.72
7705.00,1.72
7704.00,1.72
7703.00,1.72
7702.00,1.72
7701.00,1.72
7700.00,1.72
7699.00,1.72
7698.00,1.72
7697.00,1.72
7696.00,1.72
7695.00,1.72
7694.00,1.72
7693.00,1.72
7692.00,1.72
7691.00,1.72
7690.00,1.72
7689.00,1.72
7688.00,1.72
7687.00,1.72
7686.00,1.72
7685.00,1.72
7684.00,1.72
7683.00,1.72
7682.00,1.72
7681.00,1.72
7680.00,1.72
7679.00,1.72
7678.00,1.72
7677.00,1.72
7676.00,1.72
7675.00,1.72
7674.00,1.72
7673.00,1.72
7672.00,1.72
7671.00,1.72
7670.00,1.72
7669.00,1.72
7668.00,1.72
7667.00,1.71
7666.00,1.71
7665.00,1.71
7664.00,1.71
7663.00,1.71
7662.00,1.71
7661.00,1.71
7660.00,1.71
7659.00,1.71
7658.00,1.71
7657.00,1.71
7656.00,1.71
7655.00,1.71
7654.00,1.71
7653.00,1.71
7652.00,1.71
7651.00,1.71
7650.00,1.71
7649.00,1.71
7648.00,1.71
7647.00,1.71
7646.00,1.72
7645.00,1.72
7644.00,1.72
7643.00,1.72
7642.00,1.72
7641.00,1.72
7640.00,1.72
7639.00,1.72
7638.00,1.72
7637.00,1.72
7636.00,1.72
7635.00,1.72
7634.00,1.72
7633.00,1.72
7632.00,1.72
7631.00,1.72
7630.00,1.72
7629.00,1.72
7628.00,1.72
7627.00,1.72
7626.00,1.72
7625.00,1.72
7624.00,1.72
7623.00,1.72
7622.00,1.72
7621.00,1.72
7620.00,1.72
7619.00,1.72
7618.00,1.72
7617.00,1.72
7616.00,1.72
7615.00,1.72
7614.00,1.72
7613.00,1.72
7612.00,1.72
7611.00,1.72
7610.00,1.72
7609.00,1.72
7608.00,1.72
7607.00,1.72
7606.00,1.72
7605.00,1.72
7604.00,1.72
7603.00,1.72
7602.00,1.72
7601.00,1.72
7600.00,1.72
7599.00,1.72
7598.00,1.71
7597.00,1.71
7596.00,1.71
7595.00,1.71
7594.00,1.71
7593.00,1.71
7592.00,1.71
7591.00,1.72
7590.00,1.72
7589.00,1.72
7588.00,1.72
7587.00,1.71
7586.00,1.71
7585.00,1.71
7584.00,1.71
7583.00,1.71
7582.00,1.71
7581.00,1.71
7580.00,1.71
7579.00,1.71
7578.00,1.71
7577.00,1.71
7576.00,1.71
7575.00,1.70
7574.00,1.70
7573.00,1.70
7572.00,1.70
7571.00,1.70
7570.00,1.70
7569.00,1.70
7568.00,1.70
7567.00,1.70
7566.00,1.70
7565.00,1.70
7564.00,1.69
7563.00,1.69
7562.00,1.69
7561.00,1.69
7560.00,1.69
7559.00,1.69
7558.00,1.69
7557.00,1.69
7556.00,1.69
7555.00,1.69
7554.00,1.69
7553.00,1.69
7552.00,1.69
7551.00,1.69
7550.00,1.69
7549.00,1.69
7548.00,1.69
7547.00,1.69
7546.00,1.69
7545.00,1.69
7544.00,1.69
7543.00,1.69
7542.00,1.69
7541.00,1.68
7540.00,1.68
7539.00,1.68
7538.00,1.68
7537.00,1.68
7536.00,1.68
7535.00,1.68
7534.00,1.68
7533.00,1.68
7532.00,1.68
7531.00,1.68
7530.00,1.68
7529.00,1.68
7528.00,1.68
7527.00,1.68
7526.00,1.67
7525.00,1.67
7524.00,1.67
7523.00,1.67
7522.00,1.67
7521.00,1.67
7520.00,1.67
7519.00,1.67
7518.00,1.67
7517.00,1.67
7516.00,1.67
7515.00,1.67
7514.00,1.66
7513.00,1.66
7512.00,1.66
7511.00,1.66
7510.00,1.66
7509.00,1.66
7508.00,1.66
7507.00,1.66
7506.00,1.66
7505.00,1.66
7504.00,1.66
7503.00,1.66
7502.00,1.66
7501.00,1.66
7500.00,1.66
7499.00,1.66
7498.00,1.65
7497.00,1.65
7496.00,1.65
7495.00,1.65
7494.00,1.65
7493.00,1.65
7492.00,1.65
7491.00,1.65
7490.00,1.65
7489.00,1.65
7488.00,1.65
7487.00,1.64
7486.00,1.64
7485.00,1.64
7484.00,1.64
7483.00,1.64
7482.00,1.64
7481.00,1.64
7480.00,1.64
7479.00,1.63
7478.00,1.63
7477.00,1.63
7476.00,1.63
7475.00,1.63
7474.00,1.63
7473.00,1.63
7472.00,1.63
7471.00,1.63
7470.00,1.63
7469.00,1.63
7468.00,1.63
7467.00,1.63
7466.00,1.63
7465.00,1.63
7464.00,1.63
7463.00,1.63
7462.00,1.63
7461.00,1.63
7460.00,1.63
7459.00,1.63
7458.00,1.62
7457.00,1.62
7456.00,1.62
7455.00,1.62
7454.00,1.62
7453.00,1.62
7452.00,1.62
7451.00,1.61
7450.00,1.61
7449.00,1.61
7448.00,1.61
7447.00,1.61
7446.00,1.61
7445.00,1.61
7444.00,1.61
7443.00,1.60
7442.00,1.60
7441.00,1.60
7440.00,1.60
7439.00,1.60
7438.00,1.60
7437.00,1.60
7436.00,1.60
7435.00,1.60
7434.00,1.59
7433.00,1.59
7432.00,1.59
7431.00,1.59
7430.00,1.59
7429.00,1.59
7428.00,1.58
7427.00,1.58
7426.00,1.58
7425.00,1.58
7424.00,1.58
7423.00,1.57
7422.00,1.57
7421.00,1.57
7420.00,1.57
7419.00,1.57
7418.00,1.57
7417.00,1.56
7416.00,1.56
7415.00,1.56
7414.00,1.56
7413.00,1.56
7412.00,1.56
7411.00,1.56
7410.00,1.56
7409.00,1.56
7408.00,1.56
7407.00,1.55
7406.00,1.55
7405.00,1.55
7404.00,1.55
7403.00,1.55
7402.00,1.55
7401.00,1.55
7400.00,1.54
7399.00,1.54
7398.00,1.54
7397.00,1.54
7396.00,1.53
7395.00,1.53
7394.00,1.53
7393.00,1.53
7392.00,1.52
7391.00,1.52
7390.00,1.52
7389.00,1.51
7388.00,1.51
7387.00,1.51
7386.00,1.51
7385.00,1.50
7384.00,1.50
7383.00,1.50
7382.00,1.50
7381.00,1.50
7380.00,1.49
7379.00,1.49
7378.00,1.49
7377.00,1.49
7376.00,1.49
7375.00,1.49
7374.00,1.49
7373.00,1.49
7372.00,1.49
7371.00,1.49
7370.00,1.49
7369.00,1.49
7368.00,1.49
7367.00,1.49
7366.00,1.49
7365.00,1.49
7364.00,1.49
7363.00,1.49
7362.00,1.49
7361.00,1.49
7360.00,1.49
7359.00,1.49
7358.00,1.49
7357.00,1.48
7356.00,1.48
7355.00,1.48
7354.00,1.48
7353.00,1.48
7352.00,1.48
7351.00,1.48
7350.00,1.48
7349.00,1.47
7348.00,1.47
7347.00,1.47
7346.00,1.47
7345.00,1.47
7344.00,1.47
7343.00,1.47
7342.00,1.47
7341.00,1.47
7340.00,1.47
7339.00,1.47
7338.00,1.47
7337.00,1.47
7336.00,1.47
7335.00,1.47
7334.00,1.47
7333.00,1.46
7332.00,1.46
7331.00,1.46
7330.00,1.46
7329.00,1.46
7328.00,1.46
7327.00,1.46
7326.00,1.46
7325.00,1.46
7324.00,1.46
7323.00,1.46
7322.00,1.46
7321.00,1.46
7320.00,1.46
7319.00,1.46
7318.00,1.46
7317.00,1.46
7316.00,1.45
7315.00,1.45
7314.00,1.45
7313.00,1.45
7312.00,1.45
7311.00,1.44
7310.00,1.44
7309.00,1.44
7308.00,1.44
7307.00,1.44
7306.00,1.44
7305.00,1.43
7304.00,1.43
7303.00,1.43
7302.00,1.43
7301.00,1.43
7300.00,1.43
7299.00,1.43
7298.00,1.43
7297.00,1.43
7296.00,1.43
7295.00,1.42
7294.00,1.42
7293.00,1.42
7292.00,1.42
7291.00,1.42
7290.00,1.42
7289.00,1.42
7288.00,1.42
7287.00,1.42
7286.00,1.42
7285.00,1.41
7284.00,1.41
7283.00,1.41
7282.00,1.41
7281.00,1.41
7280.00,1.41
7279.00,1.40
7278.00,1.40
7277.00,1.40
7276.00,1.40
7275.00,1.40
7274.00,1.39
7273.00,1.39
7272.00,1.39
7271.00,1.39
7270.00,1.39
7269.00,1.38
7268.00,1.38
7267.00,1.38
7266.00,1.38
7265.00,1.38
7264.00,1.38
7263.00,1.38
7262.00,1.37
7261.00,1.37
7260.00,1.37
7259.00,1.37
7258.00,1.37
7257.00,1.36
7256.00,1.36
7255.00,1.36
7254.00,1.35
7253.00,1.35
7252.00,1.35
7251.00,1.34
7250.00,1.34
7249.00,1.33
7248.00,1.33
7247.00,1.32
7246.00,1.32
7245.00,1.31
7244.00,1.31
7243.00,1.30
7242.00,1.30
7241.00,1.29
7240.00,1.29
7239.00,1.28
7238.00,1.28
7237.00,1.27
7236.00,1.27
7235.00,1.26
7234.00,1.26
7233.00,1.25
7232.00,1.25
7231.00,1.24
7230.00,1.24
7229.00,1.23
7228.00,1.23
7227.00,1.22
7226.00,1.22
7225.00,1.22
7224.00,1.21
7223.00,1.21
7222.00,1.20
7221.00,1.20
7220.00,1.19
7219.00,1.19
7218.00,1.19
7217.00,1.18
7216.00,1.18
7215.00,1.17
7214.00,1.17
7213.00,1.16
7212.00,1.16
7211.00,1.15
7210.00,1.15
7209.00,1.15
7208.00,1.14
7207.00,1.14
7206.00,1.13
7205.00,1.13
7204.00,1.12
7203.00,1.12
7202.00,1.11
7201.00,1.10
7200.00,1.10
7199.00,1.09
7198.00,1.09
7197.00,1.08
7196.00,1.08
7195.00,1.07
7194.00,1.07
7193.00,1.06
7192.00,1.06
7191.00,1.05
7190.00,1.05
7189.00,1.05
7188.00,1.04
7187.00,1.04
7186.00,1.03
7185.00,1.03
7184.00,1.02
7183.00,1.02
7182.00,1.02
7181.00,1.01
7180.00,1.01
7179.00,1.01
7178.00,1.00
7177.00,1.00
7176.00,0.99
7175.00,0.99
7174.00,0.99
7173.00,0.98
7172.00,0.98
7171.00,0.98
7170.00,0.97
7169.00,0.97
7168.00,0.97
7167.00,0.96
7166.00,0.96
7165.00,0.96
7164.00,0.95
7163.00,0.95
7162.00,0.95
7161.00,0.95
7160.00,0.94
7159.00,0.94
7158.00,0.94
7157.00,0.94
7156.00,0.94
7155.00,0.93
7154.00,0.93
7153.00,0.93
7152.00,0.93
7151.00,0.92
7150.00,0.92
7149.00,0.92
7148.00,0.92
7147.00,0.91
7146.00,0.91
7145.00,0.90
7144.00,0.90
7143.00,0.90
7142.00,0.89
7141.00,0.89
7140.00,0.89
7139.00,0.88
7138.00,0.88
7137.00,0.88
7136.00,0.87
7135.00,0.87
7134.00,0.87
7133.00,0.87
7132.00,0.86
7131.00,0.86
7130.00,0.86
7129.00,0.86
7128.00,0.85
7127.00,0.85
7126.00,0.85
7125.00,0.85
7124.00,0.84
7123.00,0.84
7122.00,0.84
7121.00,0.83
7120.00,0.83
7119.00,0.83
7118.00,0.82
7117.00,0.82
7116.00,0.82
7115.00,0.81
7114.00,0.81
7113.00,0.81
7112.00,0.80
7111.00,0.80
7110.00,0.80
7109.00,0.80
7108.00,0.79
7107.00,0.79
7106.00,0.79
7105.00,0.79
7104.00,0.79
7103.00,0.79
7102.00,0.78
7101.00,0.78
7100.00,0.78
7099.00,0.78
7098.00,0.78
7097.00,0.78
7096.00,0.78
7095.00,0.78
7094.00,0.77
7093.00,0.77
7092.00,0.77
7091.00,0.77
7090.00,0.77
7089.00,0.77
7088.00,0.76
7087.00,0.76
7086.00,0.76
7085.00,0.76
7084.00,0.76
7083.00,0.75
7082.00,0.75
7081.00,0.75
7080.00,0.75
7079.00,0.75
7078.00,0.75
7077.00,0.74
7076.00,0.74
7075.00,0.74
7074.00,0.74
7073.00,0.74
7072.00,0.74
7071.00,0.74
7070.00,0.74
7069.00,0.73
7068.00,0.73
7067.00,0.73
7066.00,0.73
7065.00,0.73
7064.00,0.73
7063.00,0.73
7062.00,0.73
7061.00,0.73
7060.00,0.72
7059.00,0.72
7058.00,0.72
7057.00,0.72
7056.00,0.72
7055.00,0.72
7054.00,0.72
7053.00,0.72
7052.00,0.72
7051.00,0.72
7050.00,0.72
7049.00,0.72
7048.00,0.72
7047.00,0.72
7046.00,0.72
7045.00,0.71
7044.00,0.71
7043.00,0.71
7042.00,0.71
7041.00,0.71
7040.00,0.71
7039.00,0.71
7038.00,0.71
7037.00,0.71
7036.00,0.71
7035.00,0.71
7034.00,0.71
7033.00,0.70
7032.00,0.70
7031.00,0.70
7030.00,0.70
7029.00,0.70
7028.00,0.70
7027.00,0.70
7026.00,0.70
7025.00,0.70
7024.00,0.70
7023.00,0.70
7022.00,0.70
7021.00,0.70
7020.00,0.70
7019.00,0.70
7018.00,0.70
7017.00,0.70
7016.00,0.70
7015.00,0.70
7014.00,0.69
7013.00,0.69
7012.00,0.69
7011.00,0.69
7010.00,0.69
7009.00,0.69
7008.00,0.69
7007.00,0.69
7006.00,0.69
7005.00,0.69
7004.00,0.69
7003.00,0.69
7002.00,0.69
7001.00,0.69
7000.00,0.69
6999.00,0.69
6998.00,0.69
6997.00,0.69
6996.00,0.69
6995.00,0.69
6994.00,0.69
6993.00,0.69
6992.00,0.69
6991.00,0.69
6990.00,0.69
6989.00,0.69
6988.00,0.69
6987.00,0.69
6986.00,0.69
6985.00,0.69
6984.00,0.69
6983.00,0.69
6982.00,0.69
6981.00,0.69
6980.00,0.69
6979.00,0.69
6978.00,0.69
6977.00,0.69
6976.00,0.69
6975.00,0.69
6974.00,0.69
6973.00,0.69
6972.00,0.69
6971.00,0.68
6970.00,0.68
6969.00,0.68
6968.00,0.68
6967.00,0.68
6966.00,0.68
6965.00,0.68
6964.00,0.68
6963.00,0.68
6962.00,0.68
6961.00,0.68
6960.00,0.68
6959.00,0.68
6958.00,0.68
6957.00,0.68
6956.00,0.68
6955.00,0.68
6954.00,0.68
6953.00,0.68
6952.00,0.68
6951.00,0.68
6950.00,0.68
6949.00,0.68
6948.00,0.68
6947.00,0.68
6946.00,0.68
6945.00,0.68
6944.00,0.68
6943.00,0.68
6942.00,0.68
6941.00,0.68
6940.00,0.68
6939.00,0.68
6938.00,0.68
6937.00,0.68
6936.00,0.68
6935.00,0.68
6934.00,0.68
6933.00,0.68
6932.00,0.68
6931.00,0.68
6930.00,0.68
6929.00,0.68
6928.00,0.68
6927.00,0.68
6926.00,0.68
6925.00,0.68
6924.00,0.68
6923.00,0.68
6922.00,0.68
6921.00,0.68
6920.00,0.68
6919.00,0.68
6918.00,0.68
6917.00,0.68
6916.00,0.68
6915.00,0.68
6914.00,0.68
6913.00,0.68
6912.00,0.68
6911.00,0.68
6910.00,0.68
6909.00,0.68
6908.00,0.68
6907.00,0.68
6906.00,0.68
6905.00,0.68
6904.00,0.68
6903.00,0.68
6902.00,0.68
6901.00,0.68
6900.00,0.68
6899.00,0.68
6898.00,0.68
6897.00,0.68
6896.00,0.68
6895.00,0.68
6894.00,0.68
6893.00,0.68
6892.00,0.68
6891.00,0.68
6890.00,0.68
6889.00,0.68
6888.00,0.68
6887.00,0.68
6886.00,0.68
6885.00,0.68
6884.00,0.68
6883.00,0.68
6882.00,0.68
6881.00,0.68
6880.00,0.68
6879.00,0.68
6878.00,0.68
6877.00,0.68
6876.00,0.68
6875.00,0.68
6874.00,0.68
6873.00,0.68
6872.00,0.68
6871.00,0.68
6870.00,0.68
6869.00,0.68
6868.00,0.68
6867.00,0.68
6866.00,0.68
6865.00,0.68
6864.00,0.68
6863.00,0.68
6862.00,0.68
6861.00,0.68
6860.00,0.68
6859.00,0.68
6858.00,0.68
6857.00,0.68
6856.00,0.68
6855.00,0.68
6854.00,0.69
6853.00,0.69
6852.00,0.69
6851.00,0.69
6850.00,0.69
6849.00,0.69
6848.00,0.68
6847.00,0.68
6846.00,0.68
6845.00,0.68
6844.00,0.68
6843.00,0.68
6842.00,0.68
6841.00,0.68
6840.00,0.68
6839.00,0.68
6838.00,0.68
6837.00,0.69
6836.00,0.69
6835.00,0.69
6834.00,0.69
6833.00,0.69
6832.00,0.69
6831.00,0.69
6830.00,0.69
6829.00,0.69
6828.00,0.69
6827.00,0.69
6826.00,0.69
6825.00,0.69
6824.00,0.69
6823.00,0.69
6822.00,0.69
6821.00,0.69
6820.00,0.69
6819.00,0.69
6818.00,0.69
6817.00,0.69
6816.00,0.69
6815.00,0.69
6814.00,0.69
6813.00,0.69
6812.00,0.69
6811.00,0.69
6810.00,0.69
6809.00,0.69
6808.00,0.69
6807.00,0.69
6806.00,0.69
6805.00,0.69
6804.00,0.69
6803.00,0.70
6802.00,0.70
6801.00,0.70
6800.00,0.70
6799.00,0.70
6798.00,0.70
6797.00,0.70
6796.00,0.70
6795.00,0.70
6794.00,0.70
6793.00,0.70
6792.00,0.70
6791.00,0.70
6790.00,0.70
6789.00,0.70
6788.00,0.70
6787.00,0.71
6786.00,0.71
6785.00,0.71
6784.00,0.71
6783.00,0.71
6782.00,0.71
6781.00,0.71
6780.00,0.71
6779.00,0.71
6778.00,0.71
6777.00,0.71
6776.00,0.71
6775.00,0.71
6774.00,0.71
6773.00,0.71
6772.00,0.71
6771.00,0.71
6770.00,0.72
6769.00,0.72
6768.00,0.72
6767.00,0.72
6766.00,0.72
6765.00,0.72
6764.00,0.72
6763.00,0.72
6762.00,0.72
6761.00,0.72
6760.00,0.72
6759.00,0.72
6758.00,0.72
6757.00,0.72
6756.00,0.72
6755.00,0.73
6754.00,0.73
6753.00,0.73
6752.00,0.73
6751.00,0.73
6750.00,0.73
6749.00,0.73
6748.00,0.73
6747.00,0.73
6746.00,0.73
6745.00,0.73
6744.00,0.73
6743.00,0.73
6742.00,0.73
6741.00,0.73
6740.00,0.73
6739.00,0.73
6738.00,0.73
6737.00,0.73
6736.00,0.73
6735.00,0.73
6734.00,0.73
6733.00,0.73
6732.00,0.73
6731.00,0.74
6730.00,0.74
6729.00,0.74
6728.00,0.74
6727.00,0.74
6726.00,0.74
6725.00,0.74
6724.00,0.74
6723.00,0.74
6722.00,0.74
6721.00,0.74
6720.00,0.74
6719.00,0.74
6718.00,0.74
6717.00,0.74
6716.00,0.74
6715.00,0.74
6714.00,0.74
6713.00,0.74
6712.00,0.74
6711.00,0.74
6710.00,0.75
6709.00,0.75
6708.00,0.75
6707.00,0.75
6706.00,0.75
6705.00,0.75
6704.00,0.75
6703.00,0.75
6702.00,0.75
6701.00,0.75
6700.00,0.75
6699.00,0.75
6698.00,0.75
6697.00,0.75
6696.00,0.75
6695.00,0.75
6694.00,0.75
6693.00,0.75
6692.00,0.75
6691.00,0.75
6690.00,0.75
6689.00,0.76
6688.00,0.76
6687.00,0.76
6686.00,0.76
6685.00,0.76
6684.00,0.76
6683.00,0.76
6682.00,0.77
6681.00,0.77
6680.00,0.77
6679.00,0.77
6678.00,0.77
6677.00,0.78
6676.00,0.78
6675.00,0.78
6674.00,0.78
6673.00,0.78
6672.00,0.78
6671.00,0.78
6670.00,0.78
6669.00,0.78
6668.00,0.78
6667.00,0.78
6666.00,0.78
6665.00,0.78
6664.00,0.78
6663.00,0.78
6662.00,0.78
6661.00,0.78
6660.00,0.78
6659.00,0.78
6658.00,0.79
6657.00,0.79
6656.00,0.79
6655.00,0.79
6654.00,0.79
6653.00,0.79
6652.00,0.79
6651.00,0.79
6650.00,0.79
6649.00,0.79
6648.00,0.79
6647.00,0.79
6646.00,0.79
6645.00,0.79
6644.00,0.79
6643.00,0.79
6642.00,0.80
6641.00,0.80
6640.00,0.80
6639.00,0.80
6638.00,0.80
6637.00,0.80
6636.00,0.80
6635.00,0.80
6634.00,0.80
6633.00,0.81
6632.00,0.81
6631.00,0.81
6630.00,0.81
6629.00,0.81
6628.00,0.81
6627.00,0.81
6626.00,0.81
6625.00,0.81
6624.00,0.81
6623.00,0.81
6622.00,0.81
6621.00,0.81
6620.00,0.81
6619.00,0.82
6618.00,0.82
6617.00,0.82
6616.00,0.82
6615.00,0.82
6614.00,0.82
6613.00,0.82
6612.00,0.82
6611.00,0.82
6610.00,0.83
6609.00,0.83
6608.00,0.83
6607.00,0.83
6606.00,0.83
6605.00,0.83
6604.00,0.83
6603.00,0.84
6602.00,0.84
6601.00,0.84
6600.00,0.84
6599.00,0.84
6598.00,0.84
6597.00,0.84
6596.00,0.84
6595.00,0.84
6594.00,0.84
6593.00,0.84
6592.00,0.84
6591.00,0.85
6590.00,0.85
6589.00,0.85
6588.00,0.85
6587.00,0.85
6586.00,0.85
6585.00,0.85
6584.00,0.86
6583.00,0.86
6582.00,0.86
6581.00,0.86
6580.00,0.86
6579.00,0.86
6578.00,0.87
6577.00,0.87
6576.00,0.87
6575.00,0.87
6574.00,0.87
6573.00,0.87
6572.00,0.87
6571.00,0.88
6570.00,0.88
6569.00,0.88
6568.00,0.88
6567.00,0.88
6566.00,0.88
6565.00,0.88
6564.00,0.88
6563.00,0.88
6562.00,0.88
6561.00,0.88
6560.00,0.88
6559.00,0.88
6558.00,0.88
6557.00,0.88
6556.00,0.88
6555.00,0.88
6554.00,0.88
6553.00,0.88
6552.00,0.88
6551.00,0.89
6550.00,0.89
6549.00,0.89
6548.00,0.89
6547.00,0.89
6546.00,0.89
6545.00,0.89
6544.00,0.90
6543.00,0.90
6542.00,0.90
6541.00,0.90
6540.00,0.90
6539.00,0.90
6538.00,0.90
6537.00,0.90
6536.00,0.90
6535.00,0.90
6534.00,0.91
6533.00,0.91
6532.00,0.91
6531.00,0.91
6530.00,0.91
6529.00,0.91
6528.00,0.91
6527.00,0.91
6526.00,0.91
6525.00,0.91
6524.00,0.91
6523.00,0.91
6522.00,0.91
6521.00,0.91
6520.00,0.91
6519.00,0.91
6518.00,0.92
6517.00,0.92
6516.00,0.92
6515.00,0.92
6514.00,0.92
6513.00,0.92
6512.00,0.93
6511.00,0.93
6510.00,0.93
6509.00,0.93
6508.00,0.93
6507.00,0.93
6506.00,0.93
6505.00,0.93
6504.00,0.94
6503.00,0.94
6502.00,0.94
6501.00,0.94
6500.00,0.94
6499.00,0.94
6498.00,0.94
6497.00,0.94
6496.00,0.94
6495.00,0.94
6494.00,0.94
6493.00,0.94
6492.00,0.94
6491.00,0.94
6490.00,0.94
6489.00,0.94
6488.00,0.94
6487.00,0.94
6486.00,0.94
6485.00,0.94
6484.00,0.94
6483.00,0.94
6482.00,0.95
6481.00,0.95
6480.00,0.95
6479.00,0.95
6478.00,0.95
6477.00,0.95
6476.00,0.95
6475.00,0.95
6474.00,0.95
6473.00,0.95
6472.00,0.95
6471.00,0.95
6470.00,0.95
6469.00,0.95
6468.00,0.95
6467.00,0.95
6466.00,0.95
6465.00,0.95
6464.00,0.96
6463.00,0.96
6462.00,0.96
6461.00,0.96
6460.00,0.96
6459.00,0.96
6458.00,0.96
6457.00,0.96
6456.00,0.96
6455.00,0.96
6454.00,0.96
6453.00,0.96
6452.00,0.96
6451.00,0.97
6450.00,0.97
6449.00,0.97
6448.00,0.97
6447.00,0.97
6446.00,0.97
6445.00,0.97
6444.00,0.97
6443.00,0.97
6442.00,0.97
6441.00,0.97
6440.00,0.97
6439.00,0.97
6438.00,0.97
6437.00,0.97
6436.00,0.98
6435.00,0.98
6434.00,0.98
6433.00,0.98
6432.00,0.98
6431.00,0.98
6430.00,0.98
6429.00,0.99
6428.00,0.99
6427.00,0.99
6426.00,0.99
6425.00,0.99
6424.00,0.99
6423.00,0.99
6422.00,0.99
6421.00,0.99
6420.00,0.99
6419.00,0.99
6418.00,0.99
6417.00,0.99
6416.00,0.99
6415.00,0.99
6414.00,0.99
6413.00,0.99
6412.00,1.00
6411.00,1.00
6410.00,1.00
6409.00,1.00
6408.00,1.00
6407.00,1.00
6406.00,1.00
6405.00,1.00
6404.00,1.00
6403.00,1.00
6402.00,1.00
6401.00,1.00
6400.00,1.00
6399.00,1.01
6398.00,1.01
6397.00,1.01
6396.00,1.01
6395.00,1.01
6394.00,1.02
6393.00,1.02
6392.00,1.02
6391.00,1.02
6390.00,1.02
6389.00,1.02
6388.00,1.03
6387.00,1.03
6386.00,1.03
6385.00,1.03
6384.00,1.03
6383.00,1.03
6382.00,1.03
6381.00,1.03
6380.00,1.04
6379.00,1.04
6378.00,1.04
6377.00,1.04
6376.00,1.04
6375.00,1.04
6374.00,1.04
6373.00,1.04
6372.00,1.04
6371.00,1.04
6370.00,1.04
6369.00,1.04
6368.00,1.04
6367.00,1.04
6366.00,1.04
6365.00,1.04
6364.00,1.04
6363.00,1.04
6362.00,1.04
6361.00,1.04
6360.00,1.04
6359.00,1.04
6358.00,1.05
6357.00,1.05
6356.00,1.05
6355.00,1.05
6354.00,1.05
6353.00,1.05
6352.00,1.05
6351.00,1.05
6350.00,1.05
6349.00,1.05
6348.00,1.05
6347.00,1.05
6346.00,1.05
6345.00,1.05
6344.00,1.05
6343.00,1.05
6342.00,1.06
6341.00,1.06
6340.00,1.06
6339.00,1.06
6338.00,1.06
6337.00,1.06
6336.00,1.06
6335.00,1.06
6334.00,1.06
6333.00,1.07
6332.00,1.07
6331.00,1.07
6330.00,1.07
6329.00,1.07
6328.00,1.07
6327.00,1.07
6326.00,1.08
6325.00,1.08
6324.00,1.08
6323.00,1.08
6322.00,1.08
6321.00,1.08
6320.00,1.09
6319.00,1.09
6318.00,1.09
6317.00,1.09
6316.00,1.09
6315.00,1.10
6314.00,1.10
6313.00,1.10
6312.00,1.10
6311.00,1.10
6310.00,1.10
6309.00,1.11
6308.00,1.11
6307.00,1.11
6306.00,1.11
6305.00,1.11
6304.00,1.11
6303.00,1.11
6302.00,1.12
6301.00,1.12
6300.00,1.12
6299.00,1.12
6298.00,1.12
6297.00,1.12
6296.00,1.12
6295.00,1.12
6294.00,1.12
6293.00,1.13
6292.00,1.13
6291.00,1.13
6290.00,1.13
6289.00,1.13
6288.00,1.13
6287.00,1.13
6286.00,1.13
6285.00,1.13
6284.00,1.14
6283.00,1.14
6282.00,1.14
6281.00,1.14
6280.00,1.14
6279.00,1.14
6278.00,1.14
6277.00,1.15
6276.00,1.15
6275.00,1.15
6274.00,1.15
6273.00,1.15
6272.00,1.15
6271.00,1.16
6270.00,1.16
6269.00,1.16
6268.00,1.16
6267.00,1.16
6266.00,1.16
6265.00,1.17
6264.00,1.17
6263.00,1.17
6262.00,1.17
6261.00,1.17
6260.00,1.17
6259.00,1.18
6258.00,1.18
6257.00,1.18
6256.00,1.18
6255.00,1.18
6254.00,1.18
6253.00,1.19
6252.00,1.19
6251.00,1.19
6250.00,1.19
6249.00,1.19
6248.00,1.19
6247.00,1.20
6246.00,1.20
6245.00,1.20
6244.00,1.20
6243.00,1.20
6242.00,1.21
6241.00,1.21
6240.00,1.21
6239.00,1.21
6238.00,1.21
6237.00,1.21
6236.00,1.21
6235.00,1.22
6234.00,1.22
6233.00,1.22
6232.00,1.22
6231.00,1.22
6230.00,1.22
6229.00,1.22
6228.00,1.22
6227.00,1.22
6226.00,1.22
6225.00,1.23
6224.00,1.23
6223.00,1.23
6222.00,1.23
6221.00,1.23
6220.00,1.23
6219.00,1.23
6218.00,1.24
6217.00,1.24
6216.00,1.24
6215.00,1.24
6214.00,1.24
6213.00,1.24
6212.00,1.25
6211.00,1.25
6210.00,1.25
6209.00,1.25
6208.00,1.25
6207.00,1.26
6206.00,1.26
6205.00,1.26
6204.00,1.26
6203.00,1.26
6202.00,1.27
6201.00,1.27
6200.00,1.27
6199.00,1.27
6198.00,1.27
6197.00,1.27
6196.00,1.28
6195.00,1.28
6194.00,1.28
6193.00,1.28
6192.00,1.28
6191.00,1.28
6190.00,1.28
6189.00,1.29
6188.00,1.29
6187.00,1.29
6186.00,1.29
6185.00,1.29
6184.00,1.29
6183.00,1.30
6182.00,1.30
6181.00,1.30
6180.00,1.30
6179.00,1.31
6178.00,1.31
6177.00,1.31
6176.00,1.31
6175.00,1.31
6174.00,1.32
6173.00,1.32
6172.00,1.32
6171.00,1.32
6170.00,1.32
6169.00,1.33
6168.00,1.33
6167.00,1.33
6166.00,1.33
6165.00,1.33
6164.00,1.33
6163.00,1.34
6162.00,1.34
6161.00,1.34
6160.00,1.34
6159.00,1.34
6158.00,1.34
6157.00,1.35
6156.00,1.35
6155.00,1.35
6154.00,1.35
6153.00,1.35
6152.00,1.36
6151.00,1.36
6150.00,1.36
6149.00,1.36
6148.00,1.36
6147.00,1.37
6146.00,1.37
6145.00,1.37
6144.00,1.37
6143.00,1.38
6142.00,1.38
6141.00,1.38
6140.00,1.38
6139.00,1.38
6138.00,1.39
6137.00,1.39
6136.00,1.39
6135.00,1.39
6134.00,1.40
6133.00,1.40
6132.00,1.40
6131.00,1.40
6130.00,1.40
6129.00,1.41
6128.00,1.41
6127.00,1.41
6126.00,1.41
6125.00,1.42
6124.00,1.42
6123.00,1.42
6122.00,1.42
6121.00,1.42
6120.00,1.42
6119.00,1.43
6118.00,1.43
6117.00,1.43
6116.00,1.43
6115.00,1.43
6114.00,1.44
6113.00,1.44
6112.00,1.44
6111.00,1.44
6110.00,1.44
6109.00,1.45
6108.00,1.45
6107.00,1.45
6106.00,1.45
6105.00,1.45
6104.00,1.46
6103.00,1.46
6102.00,1.46
6101.00,1.46
6100.00,1.47
6099.00,1.47
6098.00,1.47
6097.00,1.47
6096.00,1.48
6095.00,1.48
6094.00,1.48
6093.00,1.48
6092.00,1.48
6091.00,1.48
6090.00,1.49
6089.00,1.49
6088.00,1.49
6087.00,1.49
6086.00,1.49
6085.00,1.49
6084.00,1.49
6083.00,1.50
6082.00,1.50
6081.00,1.50
6080.00,1.50
6079.00,1.50
6078.00,1.50
6077.00,1.50
6076.00,1.50
6075.00,1.50
6074.00,1.50
6073.00,1.51
6072.00,1.51
6071.00,1.51
6070.00,1.51
6069.00,1.51
6068.00,1.51
6067.00,1.52
6066.00,1.52
6065.00,1.52
6064.00,1.52
6063.00,1.52
6062.00,1.53
6061.00,1.53
6060.00,1.53
6059.00,1.53
6058.00,1.53
6057.00,1.54
6056.00,1.54
6055.00,1.54
6054.00,1.54
6053.00,1.54
6052.00,1.55
6051.00,1.55
6050.00,1.55
6049.00,1.55
6048.00,1.55
6047.00,1.55
6046.00,1.55
6045.00,1.56
6044.00,1.56
6043.00,1.56
6042.00,1.56
6041.00,1.56
6040.00,1.56
6039.00,1.56
6038.00,1.56
6037.00,1.56
6036.00,1.56
6035.00,1.56
6034.00,1.56
6033.00,1.56
6032.00,1.56
6031.00,1.56
6030.00,1.56
6029.00,1.56
6028.00,1.56
6027.00,1.56
6026.00,1.56
6025.00,1.57
6024.00,1.57
6023.00,1.57
6022.00,1.57
6021.00,1.57
6020.00,1.57
6019.00,1.57
6018.00,1.57
6017.00,1.57
6016.00,1.57
6015.00,1.57
6014.00,1.57
6013.00,1.57
6012.00,1.57
6011.00,1.57
6010.00,1.57
6009.00,1.57
6008.00,1.57
6007.00,1.57
6006.00,1.57
6005.00,1.57
6004.00,1.57
6003.00,1.57
6002.00,1.57
6001.00,1.57
6000.00,1.57
5999.00,1.57
5998.00,1.56
5997.00,1.56
5996.00,1.56
5995.00,1.56
5994.00,1.56
5993.00,1.56
5992.00,1.55
5991.00,1.55
5990.00,1.55
5989.00,1.55
5988.00,1.54
5987.00,1.54
5986.00,1.54
5985.00,1.53
5984.00,1.53
5983.00,1.53
5982.00,1.52
5981.00,1.52
5980.00,1.51
5979.00,1.51
5978.00,1.51
5977.00,1.50
5976.00,1.50
5975.00,1.49
5974.00,1.48
5973.00,1.48
5972.00,1.47
5971.00,1.47
5970.00,1.46
5969.00,1.45
5968.00,1.44
5967.00,1.44
5966.00,1.43
5965.00,1.42
5964.00,1.41
5963.00,1.40
5962.00,1.39
5961.00,1.38
5960.00,1.37
5959.00,1.36
5958.00,1.35
5957.00,1.34
5956.00,1.33
5955.00,1.33
5954.00,1.32
5953.00,1.31
5952.00,1.30
5951.00,1.29
5950.00,1.29
5949.00,1.28
5948.00,1.27
5947.00,1.27
5946.00,1.26
5945.00,1.26
5944.00,1.25
5943.00,1.25
5942.00,1.25
5941.00,1.25
5940.00,1.24
5939.00,1.24
5938.00,1.24
5937.00,1.24
5936.00,1.24
5935.00,1.24
5934.00,1.24
5933.00,1.24
5932.00,1.24
5931.00,1.24
5930.00,1.24
5929.00,1.24
5928.00,1.24
5927.00,1.24
5926.00,1.24
5925.00,1.23
5924.00,1.23
5923.00,1.23
5922.00,1.23
5921.00,1.23
5920.00,1.22
5919.00,1.22
5918.00,1.22
5917.00,1.22
5916.00,1.21
5915.00,1.21
5914.00,1.21
5913.00,1.20
5912.00,1.20
5911.00,1.20
5910.00,1.19
5909.00,1.19
5908.00,1.19
5907.00,1.19
5906.00,1.18
5905.00,1.18
5904.00,1.18
5903.00,1.18
5902.00,1.18
5901.00,1.18
5900.00,1.18
5899.00,1.18
5898.00,1.18
5897.00,1.19
5896.00,1.19
5895.00,1.19
5894.00,1.19
5893.00,1.20
5892.00,1.20
5891.00,1.20
5890.00,1.20
5889.00,1.21
5888.00,1.21
5887.00,1.22
5886.00,1.22
5885.00,1.22
5884.00,1.23
5883.00,1.23
5882.00,1.23
5881.00,1.24
5880.00,1.24
5879.00,1.25
5878.00,1.25
5877.00,1.25
5876.00,1.26
5875.00,1.26
5874.00,1.26
5873.00,1.27
5872.00,1.27
5871.00,1.27
5870.00,1.27
5869.00,1.28
5868.00,1.28
5867.00,1.28
5866.00,1.28
5865.00,1.28
5864.00,1.28
5863.00,1.29
5862.00,1.29
5861.00,1.29
5860.00,1.29
5859.00,1.29
5858.00,1.29
5857.00,1.29
5856.00,1.30
5855.00,1.30
5854.00,1.30
5853.00,1.30
5852.00,1.30
5851.00,1.30
5850.00,1.30
5849.00,1.30
5848.00,1.30
5847.00,1.30
5846.00,1.30
5845.00,1.31
5844.00,1.31
5843.00,1.31
5842.00,1.31
5841.00,1.31
5840.00,1.31
5839.00,1.31
5838.00,1.31
5837.00,1.31
5836.00,1.31
5835.00,1.31
5834.00,1.31
5833.00,1.31
5832.00,1.31
5831.00,1.31
5830.00,1.31
5829.00,1.31
5828.00,1.31
5827.00,1.31
5826.00,1.31
5825.00,1.31
5824.00,1.31
5823.00,1.31
5822.00,1.31
5821.00,1.31
5820.00,1.31
5819.00,1.31
5818.00,1.32
5817.00,1.32
5816.00,1.32
5815.00,1.32
5814.00,1.32
5813.00,1.32
5812.00,1.32
5811.00,1.32
5810.00,1.32
5809.00,1.32
5808.00,1.32
5807.00,1.32
5806.00,1.32
5805.00,1.32
5804.00,1.32
5803.00,1.31
5802.00,1.31
5801.00,1.31
5800.00,1.31
5799.00,1.31
5798.00,1.30
5797.00,1.30
5796.00,1.30
5795.00,1.30
5794.00,1.30
5793.00,1.29
5792.00,1.29
5791.00,1.29
5790.00,1.28
5789.00,1.28
5788.00,1.28
5787.00,1.28
5786.00,1.27
5785.00,1.27
5784.00,1.27
5783.00,1.27
5782.00,1.26
5781.00,1.26
5780.00,1.26
5779.00,1.26
5778.00,1.26
5777.00,1.26
5776.00,1.26
5775.00,1.26
5774.00,1.26
5773.00,1.26
5772.00,1.26
5771.00,1.26
5770.00,1.26
5769.00,1.26
5768.00,1.26
5767.00,1.26
5766.00,1.26
5765.00,1.27
5764.00,1.27
5763.00,1.27
5762.00,1.27
5761.00,1.28
5760.00,1.28
5759.00,1.28
5758.00,1.29
5757.00,1.29
5756.00,1.30
5755.00,1.30
5754.00,1.30
5753.00,1.31
5752.00,1.31
5751.00,1.32
5750.00,1.32
5749.00,1.33
5748.00,1.33
5747.00,1.33
5746.00,1.34
5745.00,1.34
5744.00,1.35
5743.00,1.35
5742.00,1.35
5741.00,1.35
5740.00,1.36
5739.00,1.36
5738.00,1.36
5737.00,1.36
5736.00,1.37
5735.00,1.37
5734.00,1.37
5733.00,1.37
5732.00,1.37
5731.00,1.37
5730.00,1.38
5729.00,1.38
5728.00,1.38
5727.00,1.38
5726.00,1.38
5725.00,1.38
5724.00,1.38
5723.00,1.38
5722.00,1.38
5721.00,1.39
5720.00,1.39
5719.00,1.39
5718.00,1.39
5717.00,1.39
5716.00,1.39
5715.00,1.39
5714.00,1.39
5713.00,1.39
5712.00,1.39
5711.00,1.39
5710.00,1.39
5709.00,1.39
5708.00,1.39
5707.00,1.39
5706.00,1.39
5705.00,1.39
5704.00,1.39
5703.00,1.38
5702.00,1.38
5701.00,1.38
5700.00,1.38
5699.00,1.38
5698.00,1.37
5697.00,1.37
5696.00,1.37
5695.00,1.37
5694.00,1.37
5693.00,1.36
5692.00,1.36
5691.00,1.36
5690.00,1.36
5689.00,1.35
5688.00,1.35
5687.00,1.35
5686.00,1.35
5685.00,1.35
5684.00,1.35
5683.00,1.34
5682.00,1.34
5681.00,1.34
5680.00,1.34
5679.00,1.34
5678.00,1.34
5677.00,1.34
5676.00,1.34
5675.00,1.34
5674.00,1.34
5673.00,1.34
5672.00,1.34
5671.00,1.34
5670.00,1.34
5669.00,1.34
5668.00,1.34
5667.00,1.35
5666.00,1.35
5665.00,1.35
5664.00,1.35
5663.00,1.35
5662.00,1.35
5661.00,1.35
5660.00,1.35
5659.00,1.36
5658.00,1.36
5657.00,1.36
5656.00,1.36
5655.00,1.36
5654.00,1.37
5653.00,1.37
5652.00,1.37
5651.00,1.37
5650.00,1.38
5649.00,1.38
5648.00,1.38
5647.00,1.39
5646.00,1.39
5645.00,1.39
5644.00,1.39
5643.00,1.40
5642.00,1.40
5641.00,1.40
5640.00,1.41
5639.00,1.41
5638.00,1.41
5637.00,1.41
5636.00,1.42
5635.00,1.42
5634.00,1.42
5633.00,1.42
5632.00,1.42
5631.00,1.43
5630.00,1.43
5629.00,1.43
5628.00,1.43
5627.00,1.43
5626.00,1.43
5625.00,1.44
5624.00,1.44
5623.00,1.44
5622.00,1.44
5621.00,1.44
5620.00,1.44
5619.00,1.44
5618.00,1.45
5617.00,1.45
5616.00,1.45
5615.00,1.45
5614.00,1.45
5613.00,1.45
5612.00,1.46
5611.00,1.46
5610.00,1.46
5609.00,1.46
5608.00,1.47
5607.00,1.47
5606.00,1.47
5605.00,1.47
5604.00,1.48
5603.00,1.48
5602.00,1.48
5601.00,1.48
5600.00,1.49
5599.00,1.49
5598.00,1.49
5597.00,1.49
5596.00,1.50
5595.00,1.50
5594.00,1.50
5593.00,1.50
5592.00,1.50
5591.00,1.51
5590.00,1.51
5589.00,1.51
5588.00,1.51
5587.00,1.52
5586.00,1.52
5585.00,1.52
5584.00,1.52
5583.00,1.52
5582.00,1.53
5581.00,1.53
5580.00,1.53
5579.00,1.53
5578.00,1.53
5577.00,1.54
5576.00,1.54
5575.00,1.54
5574.00,1.54
5573.00,1.54
5572.00,1.55
5571.00,1.55
5570.00,1.55
5569.00,1.55
5568.00,1.55
5567.00,1.55
5566.00,1.56
5565.00,1.56
5564.00,1.56
5563.00,1.56
5562.00,1.56
5561.00,1.56
5560.00,1.57
5559.00,1.57
5558.00,1.57
5557.00,1.57
5556.00,1.57
5555.00,1.57
5554.00,1.57
5553.00,1.57
5552.00,1.57
5551.00,1.58
5550.00,1.58
5549.00,1.58
5548.00,1.58
5547.00,1.58
5546.00,1.58
5545.00,1.59
5544.00,1.59
5543.00,1.59
5542.00,1.59
5541.00,1.59
5540.00,1.60
5539.00,1.60
5538.00,1.60
5537.00,1.60
5536.00,1.60
5535.00,1.61
5534.00,1.61
5533.00,1.61
5532.00,1.61
5531.00,1.61
5530.00,1.61
5529.00,1.62
5528.00,1.62
5527.00,1.62
5526.00,1.62
5525.00,1.62
5524.00,1.62
5523.00,1.62
5522.00,1.62
5521.00,1.62
5520.00,1.63
5519.00,1.63
5518.00,1.63
5517.00,1.63
5516.00,1.63
5515.00,1.63
5514.00,1.63
5513.00,1.63
5512.00,1.63
5511.00,1.64
5510.00,1.64
5509.00,1.64
5508.00,1.64
5507.00,1.64
5506.00,1.64
5505.00,1.64
5504.00,1.64
5503.00,1.64
5502.00,1.64
5501.00,1.64
5500.00,1.64
5499.00,1.64
5498.00,1.64
5497.00,1.64
5496.00,1.64
5495.00,1.64
5494.00,1.65
5493.00,1.65
5492.00,1.65
5491.00,1.65
5490.00,1.65
5489.00,1.65
5488.00,1.66
5487.00,1.66
5486.00,1.66
5485.00,1.66
5484.00,1.67
5483.00,1.67
5482.00,1.67
5481.00,1.67
5480.00,1.67
5479.00,1.67
5478.00,1.68
5477.00,1.68
5476.00,1.68
5475.00,1.68
5474.00,1.68
5473.00,1.68
5472.00,1.68
5471.00,1.68
5470.00,1.68
5469.00,1.68
5468.00,1.69
5467.00,1.69
5466.00,1.69
5465.00,1.69
5464.00,1.69
5463.00,1.69
5462.00,1.69
5461.00,1.69
5460.00,1.70
5459.00,1.70
5458.00,1.70
5457.00,1.70
5456.00,1.70
5455.00,1.70
5454.00,1.70
5453.00,1.70
5452.00,1.70
5451.00,1.70
5450.00,1.70
5449.00,1.70
5448.00,1.70
5447.00,1.70
5446.00,1.70
5445.00,1.70
5444.00,1.70
5443.00,1.70
5442.00,1.70
5441.00,1.70
5440.00,1.71
5439.00,1.71
5438.00,1.71
5437.00,1.71
5436.00,1.71
5435.00,1.71
5434.00,1.71
5433.00,1.71
5432.00,1.71
5431.00,1.71
5430.00,1.71
5429.00,1.72
5428.00,1.72
5427.00,1.72
5426.00,1.72
5425.00,1.72
5424.00,1.72
5423.00,1.72
5422.00,1.72
5421.00,1.72
5420.00,1.72
5419.00,1.72
5418.00,1.72
5417.00,1.72
5416.00,1.71
5415.00,1.71
5414.00,1.71
5413.00,1.71
5412.00,1.71
5411.00,1.71
5410.00,1.71
5409.00,1.71
5408.00,1.71
5407.00,1.71
5406.00,1.71
5405.00,1.71
5404.00,1.71
5403.00,1.71
5402.00,1.70
5401.00,1.70
5400.00,1.70
5399.00,1.70
5398.00,1.70
5397.00,1.70
5396.00,1.69
5395.00,1.69
5394.00,1.69
5393.00,1.69
5392.00,1.68
5391.00,1.68
5390.00,1.67
5389.00,1.67
5388.00,1.67
5387.00,1.66
5386.00,1.66
5385.00,1.65
5384.00,1.65
5383.00,1.64
5382.00,1.64
5381.00,1.63
5380.00,1.63
5379.00,1.62
5378.00,1.62
5377.00,1.61
5376.00,1.61
5375.00,1.60
5374.00,1.60
5373.00,1.59
5372.00,1.58
5371.00,1.58
5370.00,1.57
5369.00,1.56
5368.00,1.55
5367.00,1.55
5366.00,1.54
5365.00,1.53
5364.00,1.52
5363.00,1.51
5362.00,1.50
5361.00,1.49
5360.00,1.48
5359.00,1.47
5358.00,1.46
5357.00,1.45
5356.00,1.44
5355.00,1.43
5354.00,1.42
5353.00,1.41
5352.00,1.40
5351.00,1.39
5350.00,1.38
5349.00,1.37
5348.00,1.36
5347.00,1.34
5346.00,1.33
5345.00,1.32
5344.00,1.31
5343.00,1.30
5342.00,1.29
5341.00,1.28
5340.00,1.27
5339.00,1.26
5338.00,1.25
5337.00,1.24
5336.00,1.23
5335.00,1.22
5334.00,1.21
5333.00,1.20
5332.00,1.20
5331.00,1.19
5330.00,1.18
5329.00,1.17
5328.00,1.17
5327.00,1.16
5326.00,1.15
5325.00,1.14
5324.00,1.14
5323.00,1.13
5322.00,1.12
5321.00,1.12
5320.00,1.11
5319.00,1.10
5318.00,1.10
5317.00,1.09
5316.00,1.09
5315.00,1.08
5314.00,1.08
5313.00,1.07
5312.00,1.07
5311.00,1.06
5310.00,1.06
5309.00,1.05
5308.00,1.05
5307.00,1.05
5306.00,1.04
5305.00,1.04
5304.00,1.04
5303.00,1.04
5302.00,1.03
5301.00,1.03
5300.00,1.03
5299.00,1.03
5298.00,1.03
5297.00,1.02
5296.00,1.02
5295.00,1.02
5294.00,1.02
5293.00,1.02
5292.00,1.02
5291.00,1.02
5290.00,1.02
5289.00,1.01
5288.00,1.01
5287.00,1.01
5286.00,1.01
5285.00,1.01
5284.00,1.01
5283.00,1.01
5282.00,1.01
5281.00,1.01
5280.00,1.01
5279.00,1.01
5278.00,1.01
5277.00,1.01
5276.00,1.01
5275.00,1.01
5274.00,1.01
5273.00,1.01
5272.00,1.01
5271.00,1.01
5270.00,1.01
5269.00,1.01
5268.00,1.01
5267.00,1.01
5266.00,1.01
5265.00,1.00
5264.00,1.00
5263.00,1.00
5262.00,1.00
5261.00,1.00
5260.00,1.00
5259.00,1.00
5258.00,1.00
5257.00,1.00
5256.00,1.00
5255.00,1.00
5254.00,1.01
5253.00,1.01
5252.00,1.01
5251.00,1.01
5250.00,1.01
5249.00,1.01
5248.00,1.01
5247.00,1.01
5246.00,1.01
5245.00,1.01
5244.00,1.01
5243.00,1.01
5242.00,1.01
5241.00,1.01
5240.00,1.01
5239.00,1.01
5238.00,1.01
5237.00,1.01
5236.00,1.02
5235.00,1.02
5234.00,1.02
5233.00,1.02
5232.00,1.02
5231.00,1.02
5230.00,1.02
5229.00,1.02
5228.00,1.02
5227.00,1.02
5226.00,1.02
5225.00,1.02
5224.00,1.02
5223.00,1.02
5222.00,1.02
5221.00,1.02
5220.00,1.02
5219.00,1.02
5218.00,1.02
5217.00,1.02
5216.00,1.02
5215.00,1.02
5214.00,1.02
5213.00,1.02
5212.00,1.02
5211.00,1.02
5210.00,1.02
5209.00,1.03
5208.00,1.03
5207.00,1.03
5206.00,1.03
5205.00,1.03
5204.00,1.03
5203.00,1.03
5202.00,1.03
5201.00,1.03
5200.00,1.03
5199.00,1.03
5198.00,1.03
5197.00,1.03
5196.00,1.03
5195.00,1.03
5194.00,1.03
5193.00,1.03
5192.00,1.03
5191.00,1.03
5190.00,1.03
5189.00,1.03
5188.00,1.03
5187.00,1.03
5186.00,1.03
5185.00,1.03
5184.00,1.04
5183.00,1.04
5182.00,1.04
5181.00,1.04
5180.00,1.04
5179.00,1.04
5178.00,1.04
5177.00,1.04
5176.00,1.04
5175.00,1.04
5174.00,1.04
5173.00,1.04
5172.00,1.04
5171.00,1.04
5170.00,1.05
5169.00,1.05
5168.00,1.05
5167.00,1.05
5166.00,1.05
5165.00,1.05
5164.00,1.05
5163.00,1.05
5162.00,1.05
5161.00,1.05
5160.00,1.05
5159.00,1.05
5158.00,1.05
5157.00,1.05
5156.00,1.05
5155.00,1.06
5154.00,1.06
5153.00,1.06
5152.00,1.06
5151.00,1.06
5150.00,1.06
5149.00,1.06
5148.00,1.06
5147.00,1.06
5146.00,1.06
5145.00,1.06
5144.00,1.06
5143.00,1.06
5142.00,1.06
5141.00,1.06
5140.00,1.06
5139.00,1.06
5138.00,1.06
5137.00,1.07
5136.00,1.07
5135.00,1.07
5134.00,1.07
5133.00,1.07
5132.00,1.07
5131.00,1.07
5130.00,1.07
5129.00,1.07
5128.00,1.07
5127.00,1.07
5126.00,1.07
5125.00,1.07
5124.00,1.07
5123.00,1.07
5122.00,1.08
5121.00,1.08
5120.00,1.08
5119.00,1.08
5118.00,1.08
5117.00,1.08
5116.00,1.08
5115.00,1.08
5114.00,1.08
5113.00,1.08
5112.00,1.08
5111.00,1.08
5110.00,1.08
5109.00,1.08
5108.00,1.08
5107.00,1.08
5106.00,1.08
5105.00,1.08
5104.00,1.08
5103.00,1.08
5102.00,1.08
5101.00,1.08
5100.00,1.08
5099.00,1.08
5098.00,1.08
5097.00,1.09
5096.00,1.09
5095.00,1.09
5094.00,1.09
5093.00,1.09
5092.00,1.09
5091.00,1.09
5090.00,1.09
5089.00,1.09
5088.00,1.09
5087.00,1.09
5086.00,1.09
5085.00,1.09
5084.00,1.09
5083.00,1.09
5082.00,1.09
5081.00,1.09
5080.00,1.10
5079.00,1.10
5078.00,1.10
5077.00,1.10
5076.00,1.10
5075.00,1.10
5074.00,1.10
5073.00,1.10
5072.00,1.10
5071.00,1.10
5070.00,1.10
5069.00,1.10
5068.00,1.10
5067.00,1.10
5066.00,1.10
5065.00,1.10
5064.00,1.11
5063.00,1.11
5062.00,1.11
5061.00,1.11
5060.00,1.11
5059.00,1.11
5058.00,1.11
5057.00,1.11
5056.00,1.11
5055.00,1.11
5054.00,1.11
5053.00,1.11
5052.00,1.11
5051.00,1.11
5050.00,1.11
5049.00,1.11
5048.00,1.11
5047.00,1.11
5046.00,1.11
5045.00,1.11
5044.00,1.11
5043.00,1.12
5042.00,1.12
5041.00,1.12
5040.00,1.12
5039.00,1.12
5038.00,1.12
5037.00,1.12
5036.00,1.12
5035.00,1.12
5034.00,1.12
5033.00,1.12
5032.00,1.12
5031.00,1.12
5030.00,1.13
5029.00,1.13
5028.00,1.13
5027.00,1.13
5026.00,1.13
5025.00,1.13
5024.00,1.13
5023.00,1.13
5022.00,1.13
5021.00,1.13
5020.00,1.13
5019.00,1.13
5018.00,1.13
5017.00,1.13
5016.00,1.13
5015.00,1.13
5014.00,1.13
5013.00,1.13
5012.00,1.13
5011.00,1.13
5010.00,1.13
5009.00,1.13
5008.00,1.13
5007.00,1.13
5006.00,1.14
5005.00,1.14
5004.00,1.14
5003.00,1.14
5002.00,1.14
5001.00,1.14
5000.00,1.14
4999.00,1.14
4998.00,1.14
4997.00,1.14
4996.00,1.14
4995.00,1.14
4994.00,1.14
4993.00,1.15
4992.00,1.15
4991.00,1.15
4990.00,1.15
4989.00,1.15
4988.00,1.15
4987.00,1.15
4986.00,1.15
4985.00,1.15
4984.00,1.15
4983.00,1.16
4982.00,1.16
4981.00,1.16
4980.00,1.16
4979.00,1.16
4978.00,1.16
4977.00,1.16
4976.00,1.16
4975.00,1.16
4974.00,1.16
4973.00,1.16
4972.00,1.16
4971.00,1.16
4970.00,1.16
4969.00,1.16
4968.00,1.16
4967.00,1.16
4966.00,1.16
4965.00,1.16
4964.00,1.16
4963.00,1.16
4962.00,1.16
4961.00,1.16
4960.00,1.17
4959.00,1.17
4958.00,1.17
4957.00,1.17
4956.00,1.17
4955.00,1.17
4954.00,1.17
4953.00,1.18
4952.00,1.18
4951.00,1.18
4950.00,1.18
4949.00,1.18
4948.00,1.18
4947.00,1.18
4946.00,1.18
4945.00,1.18
4944.00,1.19
4943.00,1.19
4942.00,1.19
4941.00,1.19
4940.00,1.19
4939.00,1.19
4938.00,1.19
4937.00,1.19
4936.00,1.19
4935.00,1.19
4934.00,1.19
4933.00,1.19
4932.00,1.19
4931.00,1.19
4930.00,1.19
4929.00,1.19
4928.00,1.19
4927.00,1.19
4926.00,1.19
4925.00,1.19
4924.00,1.19
4923.00,1.19
4922.00,1.19
4921.00,1.19
4920.00,1.19
4919.00,1.19
4918.00,1.19
4917.00,1.19
4916.00,1.19
4915.00,1.19
4914.00,1.19
4913.00,1.19
4912.00,1.19
4911.00,1.19
4910.00,1.20
4909.00,1.20
4908.00,1.20
4907.00,1.20
4906.00,1.20
4905.00,1.20
4904.00,1.20
4903.00,1.20
4902.00,1.20
4901.00,1.20
4900.00,1.20
4899.00,1.21
4898.00,1.21
4897.00,1.21
4896.00,1.21
4895.00,1.21
4894.00,1.21
4893.00,1.21
4892.00,1.21
4891.00,1.22
4890.00,1.22
4889.00,1.22
4888.00,1.22
4887.00,1.22
4886.00,1.22
4885.00,1.22
4884.00,1.22
4883.00,1.22
4882.00,1.22
4881.00,1.22
4880.00,1.22
4879.00,1.23
4878.00,1.23
4877.00,1.23
4876.00,1.23
4875.00,1.23
4874.00,1.23
4873.00,1.23
4872.00,1.23
4871.00,1.23
4870.00,1.23
4869.00,1.23
4868.00,1.23
4867.00,1.23
4866.00,1.23
4865.00,1.23
4864.00,1.23
4863.00,1.23
4862.00,1.23
4861.00,1.23
4860.00,1.23
4859.00,1.24
4858.00,1.24
4857.00,1.24
4856.00,1.24
4855.00,1.24
4854.00,1.24
4853.00,1.24
4852.00,1.24
4851.00,1.24
4850.00,1.24
4849.00,1.24
4848.00,1.24
4847.00,1.24
4846.00,1.24
4845.00,1.24
4844.00,1.24
4843.00,1.24
4842.00,1.24
4841.00,1.24
4840.00,1.24
4839.00,1.24
4838.00,1.24
4837.00,1.24
4836.00,1.24
4835.00,1.24
4834.00,1.24
4833.00,1.24
4832.00,1.24
4831.00,1.24
4830.00,1.24
4829.00,1.24
4828.00,1.25
4827.00,1.25
4826.00,1.25
4825.00,1.25
4824.00,1.25
4823.00,1.25
4822.00,1.25
4821.00,1.25
4820.00,1.26
4819.00,1.26
4818.00,1.26
4817.00,1.26
4816.00,1.26
4815.00,1.26
4814.00,1.26
4813.00,1.26
4812.00,1.27
4811.00,1.27
4810.00,1.27
4809.00,1.27
4808.00,1.27
4807.00,1.27
4806.00,1.27
4805.00,1.27
4804.00,1.27
4803.00,1.27
4802.00,1.28
4801.00,1.28
4800.00,1.28
4799.00,1.28
4798.00,1.28
4797.00,1.28
4796.00,1.28
4795.00,1.28
4794.00,1.28
4793.00,1.28
4792.00,1.28
4791.00,1.28
4790.00,1.28
4789.00,1.28
4788.00,1.28
4787.00,1.28
4786.00,1.28
4785.00,1.28
4784.00,1.28
4783.00,1.28
4782.00,1.29
4781.00,1.29
4780.00,1.29
4779.00,1.29
4778.00,1.29
4777.00,1.29
4776.00,1.29
4775.00,1.29
4774.00,1.29
4773.00,1.29
4772.00,1.29
4771.00,1.29
4770.00,1.29
4769.00,1.30
4768.00,1.30
4767.00,1.30
4766.00,1.30
4765.00,1.30
4764.00,1.30
4763.00,1.30
4762.00,1.30
4761.00,1.30
4760.00,1.30
4759.00,1.30
4758.00,1.30
4757.00,1.30
4756.00,1.30
4755.00,1.30
4754.00,1.30
4753.00,1.30
4752.00,1.30
4751.00,1.31
4750.00,1.31
4749.00,1.31
4748.00,1.31
4747.00,1.31
4746.00,1.31
4745.00,1.31
4744.00,1.31
4743.00,1.31
4742.00,1.32
4741.00,1.32
4740.00,1.32
4739.00,1.32
4738.00,1.32
4737.00,1.32
4736.00,1.32
4735.00,1.32
4734.00,1.32
4733.00,1.32
4732.00,1.33
4731.00,1.33
4730.00,1.33
4729.00,1.33
4728.00,1.33
4727.00,1.33
4726.00,1.33
4725.00,1.34
4724.00,1.34
4723.00,1.34
4722.00,1.34
4721.00,1.34
4720.00,1.34
4719.00,1.34
4718.00,1.34
4717.00,1.34
4716.00,1.34
4715.00,1.34
4714.00,1.34
4713.00,1.35
4712.00,1.35
4711.00,1.35
4710.00,1.35
4709.00,1.35
4708.00,1.35
4707.00,1.35
4706.00,1.35
4705.00,1.35
4704.00,1.35
4703.00,1.36
4702.00,1.36
4701.00,1.36
4700.00,1.36
4699.00,1.36
4698.00,1.36
4697.00,1.36
4696.00,1.36
4695.00,1.36
4694.00,1.37
4693.00,1.37
4692.00,1.37
4691.00,1.37
4690.00,1.37
4689.00,1.37
4688.00,1.37
4687.00,1.37
4686.00,1.38
4685.00,1.38
4684.00,1.38
4683.00,1.38
4682.00,1.38
4681.00,1.38
4680.00,1.38
4679.00,1.39
4678.00,1.39
4677.00,1.39
4676.00,1.39
4675.00,1.39
4674.00,1.39
4673.00,1.39
4672.00,1.40
4671.00,1.40
4670.00,1.40
4669.00,1.40
4668.00,1.40
4667.00,1.40
4666.00,1.40
4665.00,1.40
4664.00,1.40
4663.00,1.40
4662.00,1.40
4661.00,1.40
4660.00,1.40
4659.00,1.40
4658.00,1.40
4657.00,1.40
4656.00,1.41
4655.00,1.41
4654.00,1.41
4653.00,1.41
4652.00,1.41
4651.00,1.41
4650.00,1.41
4649.00,1.41
4648.00,1.41
4647.00,1.41
4646.00,1.42
4645.00,1.42
4644.00,1.42
4643.00,1.42
4642.00,1.42
4641.00,1.43
4640.00,1.43
4639.00,1.43
4638.00,1.43
4637.00,1.44
4636.00,1.44
4635.00,1.44
4634.00,1.44
4633.00,1.44
4632.00,1.44
4631.00,1.45
4630.00,1.45
4629.00,1.45
4628.00,1.45
4627.00,1.45
4626.00,1.45
4625.00,1.45
4624.00,1.45
4623.00,1.45
4622.00,1.45
4621.00,1.44
4620.00,1.44
4619.00,1.44
4618.00,1.44
4617.00,1.44
4616.00,1.44
4615.00,1.44
4614.00,1.44
4613.00,1.44
4612.00,1.43
4611.00,1.43
4610.00,1.43
4609.00,1.43
4608.00,1.43
4607.00,1.43
4606.00,1.43
4605.00,1.43
4604.00,1.43
4603.00,1.44
4602.00,1.44
4601.00,1.44
4600.00,1.44
4599.00,1.44
4598.00,1.44
4597.00,1.44
4596.00,1.44
4595.00,1.45
4594.00,1.45
4593.00,1.45
4592.00,1.45
4591.00,1.45
4590.00,1.45
4589.00,1.46
4588.00,1.46
4587.00,1.46
4586.00,1.46
4585.00,1.46
4584.00,1.46
4583.00,1.46
4582.00,1.47
4581.00,1.47
4580.00,1.47
4579.00,1.47
4578.00,1.47
4577.00,1.47
4576.00,1.47
4575.00,1.48
4574.00,1.48
4573.00,1.48
4572.00,1.48
4571.00,1.48
4570.00,1.48
4569.00,1.48
4568.00,1.48
4567.00,1.48
4566.00,1.48
4565.00,1.48
4564.00,1.48
4563.00,1.48
4562.00,1.48
4561.00,1.48
4560.00,1.48
4559.00,1.48
4558.00,1.48
4557.00,1.48
4556.00,1.49
4555.00,1.49
4554.00,1.49
4553.00,1.49
4552.00,1.49
4551.00,1.49
4550.00,1.49
4549.00,1.49
4548.00,1.49
4547.00,1.50
4546.00,1.50
4545.00,1.50
4544.00,1.50
4543.00,1.50
4542.00,1.50
4541.00,1.50
4540.00,1.50
4539.00,1.50
4538.00,1.50
4537.00,1.50
4536.00,1.50
4535.00,1.50
4534.00,1.50
4533.00,1.50
4532.00,1.49
4531.00,1.49
4530.00,1.49
4529.00,1.49
4528.00,1.49
4527.00,1.49
4526.00,1.49
4525.00,1.49
4524.00,1.49
4523.00,1.49
4522.00,1.49
4521.00,1.49
4520.00,1.49
4519.00,1.49
4518.00,1.50
4517.00,1.50
4516.00,1.50
4515.00,1.50
4514.00,1.50
4513.00,1.50
4512.00,1.50
4511.00,1.51
4510.00,1.51
4509.00,1.51
4508.00,1.51
4507.00,1.51
4506.00,1.51
4505.00,1.51
4504.00,1.51
4503.00,1.51
4502.00,1.51
4501.00,1.51
4500.00,1.51
4499.00,1.51
4498.00,1.51
4497.00,1.51
4496.00,1.51
4495.00,1.51
4494.00,1.51
4493.00,1.51
4492.00,1.50
4491.00,1.50
4490.00,1.50
4489.00,1.50
4488.00,1.50
4487.00,1.50
4486.00,1.50
4485.00,1.50
4484.00,1.50
4483.00,1.50
4482.00,1.50
4481.00,1.50
4480.00,1.50
4479.00,1.50
4478.00,1.50
4477.00,1.50
4476.00,1.49
4475.00,1.49
4474.00,1.49
4473.00,1.49
4472.00,1.49
4471.00,1.49
4470.00,1.49
4469.00,1.49
4468.00,1.49
4467.00,1.49
4466.00,1.49
4465.00,1.49
4464.00,1.49
4463.00,1.48
4462.00,1.48
4461.00,1.48
4460.00,1.48
4459.00,1.48
4458.00,1.48
4457.00,1.48
4456.00,1.47
4455.00,1.47
4454.00,1.47
4453.00,1.47
4452.00,1.47
4451.00,1.47
4450.00,1.46
4449.00,1.46
4448.00,1.46
4447.00,1.46
4446.00,1.46
4445.00,1.46
4444.00,1.46
4443.00,1.46
4442.00,1.46
4441.00,1.45
4440.00,1.45
4439.00,1.45
4438.00,1.45
4437.00,1.45
4436.00,1.45
4435.00,1.45
4434.00,1.45
4433.00,1.45
4432.00,1.45
4431.00,1.45
4430.00,1.45
4429.00,1.45
4428.00,1.45
4427.00,1.45
4426.00,1.45
4425.00,1.45
4424.00,1.45
4423.00,1.45
4422.00,1.45
4421.00,1.45
4420.00,1.45
4419.00,1.45
4418.00,1.45
4417.00,1.45
4416.00,1.45
4415.00,1.45
4414.00,1.45
4413.00,1.45
4412.00,1.46
4411.00,1.46
4410.00,1.46
4409.00,1.46
4408.00,1.46
4407.00,1.46
4406.00,1.46
4405.00,1.46
4404.00,1.46
4403.00,1.46
4402.00,1.46
4401.00,1.46
4400.00,1.46
4399.00,1.46
4398.00,1.46
4397.00,1.46
4396.00,1.46
4395.00,1.46
4394.00,1.46
4393.00,1.47
4392.00,1.47
4391.00,1.47
4390.00,1.47
4389.00,1.47
4388.00,1.47
4387.00,1.47
4386.00,1.47
4385.00,1.47
4384.00,1.47
4383.00,1.48
4382.00,1.48
4381.00,1.48
4380.00,1.48
4379.00,1.48
4378.00,1.48
4377.00,1.48
4376.00,1.48
4375.00,1.48
4374.00,1.49
4373.00,1.49
4372.00,1.49
4371.00,1.49
4370.00,1.49
4369.00,1.49
4368.00,1.49
4367.00,1.49
4366.00,1.49
4365.00,1.49
4364.00,1.49
4363.00,1.49
4362.00,1.49
4361.00,1.49
4360.00,1.49
4359.00,1.49
4358.00,1.49
4357.00,1.49
4356.00,1.49
4355.00,1.49
4354.00,1.49
4353.00,1.49
4352.00,1.49
4351.00,1.50
4350.00,1.50
4349.00,1.50
4348.00,1.50
4347.00,1.50
4346.00,1.50
4345.00,1.50
4344.00,1.50
4343.00,1.50
4342.00,1.51
4341.00,1.51
4340.00,1.51
4339.00,1.51
4338.00,1.51
4337.00,1.51
4336.00,1.51
4335.00,1.51
4334.00,1.51
4333.00,1.52
4332.00,1.52
4331.00,1.52
4330.00,1.52
4329.00,1.52
4328.00,1.52
4327.00,1.52
4326.00,1.52
4325.00,1.52
4324.00,1.53
4323.00,1.53
4322.00,1.53
4321.00,1.53
4320.00,1.53
4319.00,1.53
4318.00,1.53
4317.00,1.53
4316.00,1.53
4315.00,1.53
4314.00,1.53
4313.00,1.53
4312.00,1.53
4311.00,1.53
4310.00,1.53
4309.00,1.53
4308.00,1.53
4307.00,1.53
4306.00,1.53
4305.00,1.53
4304.00,1.53
4303.00,1.53
4302.00,1.53
4301.00,1.53
4300.00,1.54
4299.00,1.54
4298.00,1.54
4297.00,1.54
4296.00,1.54
4295.00,1.55
4294.00,1.55
4293.00,1.55
4292.00,1.55
4291.00,1.56
4290.00,1.56
4289.00,1.56
4288.00,1.56
4287.00,1.56
4286.00,1.56
4285.00,1.56
4284.00,1.56
4283.00,1.57
4282.00,1.57
4281.00,1.57
4280.00,1.57
4279.00,1.57
4278.00,1.57
4277.00,1.57
4276.00,1.57
4275.00,1.57
4274.00,1.57
4273.00,1.57
4272.00,1.56
4271.00,1.56
4270.00,1.56
4269.00,1.56
4268.00,1.56
4267.00,1.56
4266.00,1.56
4265.00,1.56
4264.00,1.56
4263.00,1.56
4262.00,1.56
4261.00,1.56
4260.00,1.57
4259.00,1.57
4258.00,1.57
4257.00,1.57
4256.00,1.57
4255.00,1.57
4254.00,1.57
4253.00,1.57
4252.00,1.57
4251.00,1.57
4250.00,1.57
4249.00,1.57
4248.00,1.57
4247.00,1.57
4246.00,1.57
4245.00,1.57
4244.00,1.57
4243.00,1.58
4242.00,1.58
4241.00,1.58
4240.00,1.58
4239.00,1.58
4238.00,1.58
4237.00,1.58
4236.00,1.58
4235.00,1.58
4234.00,1.58
4233.00,1.58
4232.00,1.59
4231.00,1.59
4230.00,1.59
4229.00,1.59
4228.00,1.59
4227.00,1.59
4226.00,1.59
4225.00,1.59
4224.00,1.59
4223.00,1.59
4222.00,1.59
4221.00,1.59
4220.00,1.59
4219.00,1.59
4218.00,1.60
4217.00,1.60
4216.00,1.60
4215.00,1.60
4214.00,1.60
4213.00,1.60
4212.00,1.60
4211.00,1.61
4210.00,1.61
4209.00,1.61
4208.00,1.61
4207.00,1.61
4206.00,1.61
4205.00,1.61
4204.00,1.61
4203.00,1.61
4202.00,1.61
4201.00,1.61
4200.00,1.61
4199.00,1.61
4198.00,1.61
4197.00,1.61
4196.00,1.61
4195.00,1.61
4194.00,1.61
4193.00,1.61
4192.00,1.61
4191.00,1.61
4190.00,1.61
4189.00,1.61
4188.00,1.61
4187.00,1.62
4186.00,1.62
4185.00,1.62
4184.00,1.62
4183.00,1.62
4182.00,1.62
4181.00,1.63
4180.00,1.63
4179.00,1.63
4178.00,1.63
4177.00,1.63
4176.00,1.63
4175.00,1.64
4174.00,1.64
4173.00,1.64
4172.00,1.64
4171.00,1.64
4170.00,1.64
4169.00,1.64
4168.00,1.64
4167.00,1.64
4166.00,1.64
4165.00,1.64
4164.00,1.64
4163.00,1.64
4162.00,1.64
4161.00,1.64
4160.00,1.64
4159.00,1.64
4158.00,1.64
4157.00,1.64
4156.00,1.64
4155.00,1.64
4154.00,1.64
4153.00,1.64
4152.00,1.64
4151.00,1.64
4150.00,1.64
4149.00,1.64
4148.00,1.64
4147.00,1.64
4146.00,1.64
4145.00,1.64
4144.00,1.64
4143.00,1.64
4142.00,1.64
4141.00,1.64
4140.00,1.64
4139.00,1.64
4138.00,1.64
4137.00,1.64
4136.00,1.64
4135.00,1.64
4134.00,1.65
4133.00,1.65
4132.00,1.65
4131.00,1.65
4130.00,1.65
4129.00,1.65
4128.00,1.65
4127.00,1.65
4126.00,1.65
4125.00,1.66
4124.00,1.66
4123.00,1.66
4122.00,1.66
4121.00,1.66
4120.00,1.66
4119.00,1.66
4118.00,1.66
4117.00,1.66
4116.00,1.66
4115.00,1.67
4114.00,1.67
4113.00,1.67
4112.00,1.67
4111.00,1.67
4110.00,1.67
4109.00,1.66
4108.00,1.66
4107.00,1.66
4106.00,1.66
4105.00,1.66
4104.00,1.66
4103.00,1.66
4102.00,1.66
4101.00,1.66
4100.00,1.66
4099.00,1.66
4098.00,1.66
4097.00,1.66
4096.00,1.66
4095.00,1.66
4094.00,1.66
4093.00,1.66
4092.00,1.66
4091.00,1.66
4090.00,1.66
4089.00,1.65
4088.00,1.65
4087.00,1.65
4086.00,1.65
4085.00,1.65
4084.00,1.65
4083.00,1.65
4082.00,1.65
4081.00,1.65
4080.00,1.65
4079.00,1.65
4078.00,1.65
4077.00,1.66
4076.00,1.66
4075.00,1.66
4074.00,1.66
4073.00,1.67
4072.00,1.67
4071.00,1.67
4070.00,1.67
4069.00,1.67
4068.00,1.67
4067.00,1.68
4066.00,1.68
4065.00,1.68
4064.00,1.68
4063.00,1.68
4062.00,1.68
4061.00,1.68
4060.00,1.68
4059.00,1.68
4058.00,1.68
4057.00,1.68
4056.00,1.68
4055.00,1.68
4054.00,1.68
4053.00,1.68
4052.00,1.68
4051.00,1.68
4050.00,1.69
4049.00,1.69
4048.00,1.69
4047.00,1.69
4046.00,1.69
4045.00,1.70
4044.00,1.70
4043.00,1.70
4042.00,1.70
4041.00,1.70
4040.00,1.70
4039.00,1.71
4038.00,1.71
4037.00,1.71
4036.00,1.71
4035.00,1.71
4034.00,1.71
4033.00,1.71
4032.00,1.72
4031.00,1.72
4030.00,1.72
4029.00,1.72
4028.00,1.72
4027.00,1.72
4026.00,1.72
4025.00,1.72
4024.00,1.72
4023.00,1.72
4022.00,1.72
4021.00,1.72
4020.00,1.72
4019.00,1.72
4018.00,1.72
4017.00,1.72
4016.00,1.72
4015.00,1.72
4014.00,1.72
4013.00,1.72
4012.00,1.72
4011.00,1.72
4010.00,1.72
4009.00,1.72
4008.00,1.72
4007.00,1.72
4006.00,1.72
4005.00,1.72
4004.00,1.72
4003.00,1.72
4002.00,1.72
4001.00,1.72
4000.00,1.72
