创建为新数据集,样品 575 用户 Administrator 日期 星期一, 七月 16 2018
cm-1,%T
10000.00,1.59
9999.00,1.59
9998.00,1.59
9997.00,1.59
9996.00,1.59
9995.00,1.59
9994.00,1.59
9993.00,1.59
9992.00,1.59
9991.00,1.59
9990.00,1.59
9989.00,1.59
9988.00,1.59
9987.00,1.59
9986.00,1.59
9985.00,1.59
9984.00,1.59
9983.00,1.59
9982.00,1.59
9981.00,1.59
9980.00,1.59
9979.00,1.59
9978.00,1.59
9977.00,1.58
9976.00,1.58
9975.00,1.58
9974.00,1.58
9973.00,1.58
9972.00,1.58
9971.00,1.58
9970.00,1.58
9969.00,1.58
9968.00,1.58
9967.00,1.58
9966.00,1.58
9965.00,1.58
9964.00,1.58
9963.00,1.58
9962.00,1.57
9961.00,1.57
9960.00,1.57
9959.00,1.57
9958.00,1.57
9957.00,1.57
9956.00,1.57
9955.00,1.56
9954.00,1.56
9953.00,1.56
9952.00,1.56
9951.00,1.56
9950.00,1.55
9949.00,1.55
9948.00,1.55
9947.00,1.55
9946.00,1.55
9945.00,1.55
9944.00,1.55
9943.00,1.55
9942.00,1.55
9941.00,1.56
9940.00,1.56
9939.00,1.56
9938.00,1.56
9937.00,1.57
9936.00,1.57
9935.00,1.57
9934.00,1.57
9933.00,1.57
9932.00,1.57
9931.00,1.58
9930.00,1.58
9929.00,1.58
9928.00,1.58
9927.00,1.58
9926.00,1.58
9925.00,1.58
9924.00,1.58
9923.00,1.58
9922.00,1.57
9921.00,1.57
9920.00,1.57
9919.00,1.57
9918.00,1.57
9917.00,1.57
9916.00,1.57
9915.00,1.57
9914.00,1.57
9913.00,1.57
9912.00,1.58
9911.00,1.58
9910.00,1.58
9909.00,1.58
9908.00,1.58
9907.00,1.58
9906.00,1.58
9905.00,1.58
9904.00,1.58
9903.00,1.58
9902.00,1.58
9901.00,1.58
9900.00,1.58
9899.00,1.58
9898.00,1.58
9897.00,1.58
9896.00,1.58
9895.00,1.58
9894.00,1.58
9893.00,1.58
9892.00,1.58
9891.00,1.58
9890.00,1.58
9889.00,1.58
9888.00,1.57
9887.00,1.57
9886.00,1.57
9885.00,1.57
9884.00,1.57
9883.00,1.57
9882.00,1.57
9881.00,1.57
9880.00,1.57
9879.00,1.57
9878.00,1.57
9877.00,1.57
9876.00,1.57
9875.00,1.57
9874.00,1.57
9873.00,1.57
9872.00,1.57
9871.00,1.57
9870.00,1.57
9869.00,1.57
9868.00,1.57
9867.00,1.57
9866.00,1.57
9865.00,1.57
9864.00,1.57
9863.00,1.57
9862.00,1.57
9861.00,1.57
9860.00,1.57
9859.00,1.57
9858.00,1.57
9857.00,1.57
9856.00,1.58
9855.00,1.58
9854.00,1.58
9853.00,1.58
9852.00,1.58
9851.00,1.58
9850.00,1.58
9849.00,1.58
9848.00,1.58
9847.00,1.58
9846.00,1.58
9845.00,1.57
9844.00,1.57
9843.00,1.57
9842.00,1.57
9841.00,1.57
9840.00,1.57
9839.00,1.57
9838.00,1.56
9837.00,1.56
9836.00,1.56
9835.00,1.56
9834.00,1.56
9833.00,1.56
9832.00,1.56
9831.00,1.56
9830.00,1.56
9829.00,1.56
9828.00,1.56
9827.00,1.56
9826.00,1.56
9825.00,1.56
9824.00,1.56
9823.00,1.57
9822.00,1.57
9821.00,1.57
9820.00,1.57
9819.00,1.57
9818.00,1.57
9817.00,1.57
9816.00,1.58
9815.00,1.58
9814.00,1.58
9813.00,1.58
9812.00,1.58
9811.00,1.58
9810.00,1.58
9809.00,1.57
9808.00,1.57
9807.00,1.57
9806.00,1.57
9805.00,1.57
9804.00,1.57
9803.00,1.57
9802.00,1.57
9801.00,1.57
9800.00,1.57
9799.00,1.57
9798.00,1.57
9797.00,1.57
9796.00,1.57
9795.00,1.57
9794.00,1.57
9793.00,1.57
9792.00,1.57
9791.00,1.57
9790.00,1.57
9789.00,1.57
9788.00,1.57
9787.00,1.57
9786.00,1.57
9785.00,1.57
9784.00,1.57
9783.00,1.57
9782.00,1.58
9781.00,1.58
9780.00,1.58
9779.00,1.58
9778.00,1.58
9777.00,1.59
9776.00,1.59
9775.00,1.59
9774.00,1.59
9773.00,1.59
9772.00,1.59
9771.00,1.59
9770.00,1.59
9769.00,1.59
9768.00,1.58
9767.00,1.58
9766.00,1.58
9765.00,1.58
9764.00,1.58
9763.00,1.58
9762.00,1.58
9761.00,1.58
9760.00,1.58
9759.00,1.58
9758.00,1.58
9757.00,1.58
9756.00,1.58
9755.00,1.58
9754.00,1.58
9753.00,1.58
9752.00,1.58
9751.00,1.58
9750.00,1.58
9749.00,1.58
9748.00,1.58
9747.00,1.58
9746.00,1.58
9745.00,1.58
9744.00,1.58
9743.00,1.58
9742.00,1.58
9741.00,1.58
9740.00,1.58
9739.00,1.58
9738.00,1.58
9737.00,1.58
9736.00,1.58
9735.00,1.58
9734.00,1.58
9733.00,1.58
9732.00,1.58
9731.00,1.58
9730.00,1.58
9729.00,1.58
9728.00,1.58
9727.00,1.58
9726.00,1.58
9725.00,1.58
9724.00,1.58
9723.00,1.58
9722.00,1.57
9721.00,1.57
9720.00,1.57
9719.00,1.57
9718.00,1.57
9717.00,1.57
9716.00,1.57
9715.00,1.57
9714.00,1.57
9713.00,1.57
9712.00,1.57
9711.00,1.57
9710.00,1.57
9709.00,1.56
9708.00,1.56
9707.00,1.56
9706.00,1.56
9705.00,1.56
9704.00,1.56
9703.00,1.56
9702.00,1.56
9701.00,1.56
9700.00,1.56
9699.00,1.56
9698.00,1.56
9697.00,1.56
9696.00,1.56
9695.00,1.56
9694.00,1.56
9693.00,1.56
9692.00,1.56
9691.00,1.56
9690.00,1.56
9689.00,1.56
9688.00,1.56
9687.00,1.56
9686.00,1.56
9685.00,1.56
9684.00,1.56
9683.00,1.56
9682.00,1.56
9681.00,1.56
9680.00,1.56
9679.00,1.56
9678.00,1.56
9677.00,1.56
9676.00,1.56
9675.00,1.56
9674.00,1.56
9673.00,1.56
9672.00,1.56
9671.00,1.56
9670.00,1.56
9669.00,1.56
9668.00,1.55
9667.00,1.55
9666.00,1.55
9665.00,1.55
9664.00,1.55
9663.00,1.55
9662.00,1.55
9661.00,1.55
9660.00,1.55
9659.00,1.56
9658.00,1.56
9657.00,1.56
9656.00,1.56
9655.00,1.56
9654.00,1.57
9653.00,1.57
9652.00,1.57
9651.00,1.57
9650.00,1.58
9649.00,1.58
9648.00,1.58
9647.00,1.58
9646.00,1.58
9645.00,1.59
9644.00,1.59
9643.00,1.59
9642.00,1.59
9641.00,1.59
9640.00,1.59
9639.00,1.59
9638.00,1.59
9637.00,1.59
9636.00,1.58
9635.00,1.58
9634.00,1.58
9633.00,1.58
9632.00,1.58
9631.00,1.57
9630.00,1.57
9629.00,1.57
9628.00,1.57
9627.00,1.56
9626.00,1.56
9625.00,1.56
9624.00,1.56
9623.00,1.55
9622.00,1.55
9621.00,1.55
9620.00,1.55
9619.00,1.55
9618.00,1.54
9617.00,1.54
9616.00,1.54
9615.00,1.54
9614.00,1.54
9613.00,1.54
9612.00,1.54
9611.00,1.55
9610.00,1.55
9609.00,1.55
9608.00,1.55
9607.00,1.55
9606.00,1.55
9605.00,1.55
9604.00,1.55
9603.00,1.55
9602.00,1.56
9601.00,1.56
9600.00,1.56
9599.00,1.56
9598.00,1.56
9597.00,1.56
9596.00,1.56
9595.00,1.56
9594.00,1.56
9593.00,1.56
9592.00,1.56
9591.00,1.56
9590.00,1.56
9589.00,1.55
9588.00,1.55
9587.00,1.55
9586.00,1.55
9585.00,1.55
9584.00,1.55
9583.00,1.55
9582.00,1.55
9581.00,1.55
9580.00,1.55
9579.00,1.55
9578.00,1.55
9577.00,1.55
9576.00,1.55
9575.00,1.55
9574.00,1.55
9573.00,1.55
9572.00,1.56
9571.00,1.56
9570.00,1.56
9569.00,1.56
9568.00,1.56
9567.00,1.56
9566.00,1.56
9565.00,1.56
9564.00,1.56
9563.00,1.56
9562.00,1.56
9561.00,1.56
9560.00,1.56
9559.00,1.56
9558.00,1.56
9557.00,1.56
9556.00,1.56
9555.00,1.56
9554.00,1.57
9553.00,1.57
9552.00,1.57
9551.00,1.57
9550.00,1.57
9549.00,1.57
9548.00,1.57
9547.00,1.57
9546.00,1.57
9545.00,1.58
9544.00,1.58
9543.00,1.58
9542.00,1.58
9541.00,1.58
9540.00,1.58
9539.00,1.59
9538.00,1.59
9537.00,1.59
9536.00,1.59
9535.00,1.59
9534.00,1.59
9533.00,1.59
9532.00,1.59
9531.00,1.58
9530.00,1.58
9529.00,1.58
9528.00,1.58
9527.00,1.58
9526.00,1.57
9525.00,1.57
9524.00,1.57
9523.00,1.57
9522.00,1.57
9521.00,1.56
9520.00,1.56
9519.00,1.56
9518.00,1.56
9517.00,1.56
9516.00,1.56
9515.00,1.56
9514.00,1.56
9513.00,1.56
9512.00,1.56
9511.00,1.56
9510.00,1.56
9509.00,1.56
9508.00,1.56
9507.00,1.56
9506.00,1.56
9505.00,1.56
9504.00,1.56
9503.00,1.56
9502.00,1.56
9501.00,1.56
9500.00,1.57
9499.00,1.57
9498.00,1.57
9497.00,1.57
9496.00,1.57
9495.00,1.57
9494.00,1.57
9493.00,1.57
9492.00,1.57
9491.00,1.57
9490.00,1.57
9489.00,1.58
9488.00,1.58
9487.00,1.58
9486.00,1.58
9485.00,1.58
9484.00,1.58
9483.00,1.57
9482.00,1.57
9481.00,1.57
9480.00,1.57
9479.00,1.57
9478.00,1.57
9477.00,1.57
9476.00,1.57
9475.00,1.57
9474.00,1.57
9473.00,1.57
9472.00,1.57
9471.00,1.57
9470.00,1.57
9469.00,1.57
9468.00,1.57
9467.00,1.57
9466.00,1.57
9465.00,1.57
9464.00,1.57
9463.00,1.57
9462.00,1.57
9461.00,1.57
9460.00,1.57
9459.00,1.57
9458.00,1.57
9457.00,1.57
9456.00,1.57
9455.00,1.57
9454.00,1.57
9453.00,1.57
9452.00,1.57
9451.00,1.57
9450.00,1.57
9449.00,1.57
9448.00,1.57
9447.00,1.57
9446.00,1.57
9445.00,1.57
9444.00,1.58
9443.00,1.58
9442.00,1.58
9441.00,1.58
9440.00,1.58
9439.00,1.58
9438.00,1.58
9437.00,1.58
9436.00,1.58
9435.00,1.58
9434.00,1.58
9433.00,1.58
9432.00,1.58
9431.00,1.58
9430.00,1.58
9429.00,1.58
9428.00,1.58
9427.00,1.57
9426.00,1.57
9425.00,1.57
9424.00,1.57
9423.00,1.57
9422.00,1.57
9421.00,1.57
9420.00,1.57
9419.00,1.57
9418.00,1.57
9417.00,1.57
9416.00,1.57
9415.00,1.57
9414.00,1.57
9413.00,1.57
9412.00,1.57
9411.00,1.57
9410.00,1.57
9409.00,1.57
9408.00,1.57
9407.00,1.57
9406.00,1.57
9405.00,1.57
9404.00,1.57
9403.00,1.57
9402.00,1.57
9401.00,1.58
9400.00,1.58
9399.00,1.58
9398.00,1.58
9397.00,1.58
9396.00,1.58
9395.00,1.58
9394.00,1.58
9393.00,1.58
9392.00,1.58
9391.00,1.58
9390.00,1.58
9389.00,1.58
9388.00,1.58
9387.00,1.58
9386.00,1.58
9385.00,1.58
9384.00,1.58
9383.00,1.58
9382.00,1.58
9381.00,1.57
9380.00,1.57
9379.00,1.57
9378.00,1.57
9377.00,1.58
9376.00,1.58
9375.00,1.58
9374.00,1.58
9373.00,1.58
9372.00,1.58
9371.00,1.58
9370.00,1.58
9369.00,1.58
9368.00,1.58
9367.00,1.58
9366.00,1.58
9365.00,1.58
9364.00,1.58
9363.00,1.58
9362.00,1.57
9361.00,1.57
9360.00,1.57
9359.00,1.57
9358.00,1.57
9357.00,1.57
9356.00,1.57
9355.00,1.57
9354.00,1.57
9353.00,1.57
9352.00,1.57
9351.00,1.57
9350.00,1.57
9349.00,1.57
9348.00,1.57
9347.00,1.57
9346.00,1.57
9345.00,1.57
9344.00,1.57
9343.00,1.57
9342.00,1.57
9341.00,1.57
9340.00,1.58
9339.00,1.58
9338.00,1.58
9337.00,1.58
9336.00,1.58
9335.00,1.58
9334.00,1.58
9333.00,1.58
9332.00,1.58
9331.00,1.58
9330.00,1.58
9329.00,1.58
9328.00,1.58
9327.00,1.58
9326.00,1.58
9325.00,1.58
9324.00,1.58
9323.00,1.58
9322.00,1.58
9321.00,1.58
9320.00,1.58
9319.00,1.58
9318.00,1.57
9317.00,1.57
9316.00,1.57
9315.00,1.57
9314.00,1.57
9313.00,1.57
9312.00,1.57
9311.00,1.57
9310.00,1.57
9309.00,1.57
9308.00,1.57
9307.00,1.57
9306.00,1.57
9305.00,1.57
9304.00,1.57
9303.00,1.57
9302.00,1.57
9301.00,1.57
9300.00,1.57
9299.00,1.57
9298.00,1.57
9297.00,1.57
9296.00,1.57
9295.00,1.57
9294.00,1.58
9293.00,1.58
9292.00,1.58
9291.00,1.58
9290.00,1.58
9289.00,1.58
9288.00,1.58
9287.00,1.58
9286.00,1.58
9285.00,1.58
9284.00,1.58
9283.00,1.58
9282.00,1.58
9281.00,1.58
9280.00,1.58
9279.00,1.58
9278.00,1.58
9277.00,1.58
9276.00,1.58
9275.00,1.58
9274.00,1.58
9273.00,1.57
9272.00,1.57
9271.00,1.57
9270.00,1.57
9269.00,1.57
9268.00,1.57
9267.00,1.57
9266.00,1.57
9265.00,1.57
9264.00,1.57
9263.00,1.57
9262.00,1.56
9261.00,1.56
9260.00,1.57
9259.00,1.57
9258.00,1.57
9257.00,1.57
9256.00,1.57
9255.00,1.57
9254.00,1.57
9253.00,1.57
9252.00,1.57
9251.00,1.57
9250.00,1.57
9249.00,1.57
9248.00,1.57
9247.00,1.57
9246.00,1.57
9245.00,1.57
9244.00,1.57
9243.00,1.57
9242.00,1.57
9241.00,1.57
9240.00,1.57
9239.00,1.57
9238.00,1.57
9237.00,1.57
9236.00,1.57
9235.00,1.57
9234.00,1.57
9233.00,1.57
9232.00,1.57
9231.00,1.58
9230.00,1.58
9229.00,1.58
9228.00,1.58
9227.00,1.58
9226.00,1.58
9225.00,1.58
9224.00,1.58
9223.00,1.58
9222.00,1.59
9221.00,1.59
9220.00,1.59
9219.00,1.59
9218.00,1.59
9217.00,1.59
9216.00,1.59
9215.00,1.59
9214.00,1.59
9213.00,1.59
9212.00,1.59
9211.00,1.59
9210.00,1.59
9209.00,1.59
9208.00,1.59
9207.00,1.59
9206.00,1.59
9205.00,1.59
9204.00,1.58
9203.00,1.58
9202.00,1.58
9201.00,1.58
9200.00,1.58
9199.00,1.58
9198.00,1.58
9197.00,1.58
9196.00,1.58
9195.00,1.57
9194.00,1.57
9193.00,1.57
9192.00,1.57
9191.00,1.57
9190.00,1.57
9189.00,1.57
9188.00,1.57
9187.00,1.57
9186.00,1.57
9185.00,1.57
9184.00,1.57
9183.00,1.57
9182.00,1.57
9181.00,1.57
9180.00,1.57
9179.00,1.57
9178.00,1.57
9177.00,1.57
9176.00,1.57
9175.00,1.57
9174.00,1.57
9173.00,1.56
9172.00,1.56
9171.00,1.56
9170.00,1.56
9169.00,1.56
9168.00,1.56
9167.00,1.56
9166.00,1.56
9165.00,1.56
9164.00,1.56
9163.00,1.56
9162.00,1.56
9161.00,1.56
9160.00,1.57
9159.00,1.57
9158.00,1.57
9157.00,1.57
9156.00,1.57
9155.00,1.57
9154.00,1.57
9153.00,1.57
9152.00,1.57
9151.00,1.57
9150.00,1.58
9149.00,1.58
9148.00,1.58
9147.00,1.58
9146.00,1.58
9145.00,1.58
9144.00,1.58
9143.00,1.58
9142.00,1.58
9141.00,1.57
9140.00,1.57
9139.00,1.57
9138.00,1.57
9137.00,1.57
9136.00,1.57
9135.00,1.57
9134.00,1.57
9133.00,1.57
9132.00,1.57
9131.00,1.58
9130.00,1.58
9129.00,1.58
9128.00,1.58
9127.00,1.58
9126.00,1.58
9125.00,1.58
9124.00,1.58
9123.00,1.58
9122.00,1.58
9121.00,1.58
9120.00,1.58
9119.00,1.58
9118.00,1.58
9117.00,1.58
9116.00,1.58
9115.00,1.58
9114.00,1.58
9113.00,1.58
9112.00,1.58
9111.00,1.57
9110.00,1.57
9109.00,1.57
9108.00,1.57
9107.00,1.57
9106.00,1.57
9105.00,1.57
9104.00,1.57
9103.00,1.57
9102.00,1.57
9101.00,1.57
9100.00,1.57
9099.00,1.57
9098.00,1.57
9097.00,1.57
9096.00,1.57
9095.00,1.57
9094.00,1.57
9093.00,1.57
9092.00,1.57
9091.00,1.56
9090.00,1.56
9089.00,1.56
9088.00,1.56
9087.00,1.56
9086.00,1.56
9085.00,1.56
9084.00,1.56
9083.00,1.56
9082.00,1.56
9081.00,1.56
9080.00,1.56
9079.00,1.55
9078.00,1.55
9077.00,1.55
9076.00,1.55
9075.00,1.55
9074.00,1.55
9073.00,1.55
9072.00,1.56
9071.00,1.56
9070.00,1.56
9069.00,1.56
9068.00,1.56
9067.00,1.56
9066.00,1.56
9065.00,1.56
9064.00,1.56
9063.00,1.56
9062.00,1.56
9061.00,1.56
9060.00,1.57
9059.00,1.57
9058.00,1.57
9057.00,1.57
9056.00,1.57
9055.00,1.57
9054.00,1.57
9053.00,1.57
9052.00,1.57
9051.00,1.57
9050.00,1.57
9049.00,1.57
9048.00,1.58
9047.00,1.58
9046.00,1.58
9045.00,1.58
9044.00,1.58
9043.00,1.58
9042.00,1.58
9041.00,1.58
9040.00,1.58
9039.00,1.58
9038.00,1.59
9037.00,1.59
9036.00,1.59
9035.00,1.59
9034.00,1.59
9033.00,1.59
9032.00,1.59
9031.00,1.59
9030.00,1.59
9029.00,1.58
9028.00,1.58
9027.00,1.58
9026.00,1.58
9025.00,1.58
9024.00,1.58
9023.00,1.58
9022.00,1.58
9021.00,1.58
9020.00,1.58
9019.00,1.58
9018.00,1.58
9017.00,1.58
9016.00,1.58
9015.00,1.58
9014.00,1.58
9013.00,1.58
9012.00,1.57
9011.00,1.57
9010.00,1.57
9009.00,1.57
9008.00,1.57
9007.00,1.57
9006.00,1.57
9005.00,1.57
9004.00,1.57
9003.00,1.57
9002.00,1.57
9001.00,1.57
9000.00,1.57
8999.00,1.57
8998.00,1.57
8997.00,1.57
8996.00,1.57
8995.00,1.57
8994.00,1.57
8993.00,1.57
8992.00,1.57
8991.00,1.57
8990.00,1.57
8989.00,1.57
8988.00,1.58
8987.00,1.58
8986.00,1.58
8985.00,1.58
8984.00,1.58
8983.00,1.58
8982.00,1.58
8981.00,1.58
8980.00,1.58
8979.00,1.58
8978.00,1.58
8977.00,1.58
8976.00,1.58
8975.00,1.58
8974.00,1.58
8973.00,1.58
8972.00,1.58
8971.00,1.58
8970.00,1.58
8969.00,1.58
8968.00,1.58
8967.00,1.58
8966.00,1.58
8965.00,1.58
8964.00,1.58
8963.00,1.58
8962.00,1.58
8961.00,1.58
8960.00,1.58
8959.00,1.58
8958.00,1.58
8957.00,1.58
8956.00,1.58
8955.00,1.58
8954.00,1.58
8953.00,1.58
8952.00,1.58
8951.00,1.58
8950.00,1.58
8949.00,1.58
8948.00,1.58
8947.00,1.58
8946.00,1.58
8945.00,1.58
8944.00,1.58
8943.00,1.58
8942.00,1.58
8941.00,1.58
8940.00,1.58
8939.00,1.58
8938.00,1.58
8937.00,1.58
8936.00,1.58
8935.00,1.58
8934.00,1.58
8933.00,1.57
8932.00,1.57
8931.00,1.57
8930.00,1.57
8929.00,1.57
8928.00,1.57
8927.00,1.57
8926.00,1.57
8925.00,1.57
8924.00,1.57
8923.00,1.57
8922.00,1.57
8921.00,1.57
8920.00,1.57
8919.00,1.57
8918.00,1.57
8917.00,1.57
8916.00,1.57
8915.00,1.57
8914.00,1.57
8913.00,1.57
8912.00,1.57
8911.00,1.57
8910.00,1.57
8909.00,1.57
8908.00,1.57
8907.00,1.57
8906.00,1.57
8905.00,1.57
8904.00,1.57
8903.00,1.57
8902.00,1.57
8901.00,1.57
8900.00,1.57
8899.00,1.57
8898.00,1.57
8897.00,1.57
8896.00,1.57
8895.00,1.57
8894.00,1.57
8893.00,1.57
8892.00,1.57
8891.00,1.57
8890.00,1.57
8889.00,1.58
8888.00,1.58
8887.00,1.58
8886.00,1.58
8885.00,1.58
8884.00,1.58
8883.00,1.58
8882.00,1.58
8881.00,1.58
8880.00,1.58
8879.00,1.58
8878.00,1.58
8877.00,1.58
8876.00,1.58
8875.00,1.58
8874.00,1.58
8873.00,1.58
8872.00,1.58
8871.00,1.58
8870.00,1.58
8869.00,1.57
8868.00,1.57
8867.00,1.57
8866.00,1.57
8865.00,1.57
8864.00,1.56
8863.00,1.56
8862.00,1.56
8861.00,1.56
8860.00,1.56
8859.00,1.56
8858.00,1.56
8857.00,1.56
8856.00,1.56
8855.00,1.55
8854.00,1.55
8853.00,1.55
8852.00,1.56
8851.00,1.56
8850.00,1.56
8849.00,1.56
8848.00,1.56
8847.00,1.56
8846.00,1.56
8845.00,1.56
8844.00,1.56
8843.00,1.57
8842.00,1.57
8841.00,1.57
8840.00,1.57
8839.00,1.57
8838.00,1.57
8837.00,1.57
8836.00,1.57
8835.00,1.57
8834.00,1.57
8833.00,1.57
8832.00,1.57
8831.00,1.57
8830.00,1.57
8829.00,1.57
8828.00,1.57
8827.00,1.56
8826.00,1.56
8825.00,1.56
8824.00,1.56
8823.00,1.56
8822.00,1.56
8821.00,1.56
8820.00,1.56
8819.00,1.56
8818.00,1.56
8817.00,1.55
8816.00,1.55
8815.00,1.55
8814.00,1.55
8813.00,1.55
8812.00,1.55
8811.00,1.55
8810.00,1.55
8809.00,1.55
8808.00,1.55
8807.00,1.54
8806.00,1.54
8805.00,1.54
8804.00,1.54
8803.00,1.54
8802.00,1.54
8801.00,1.54
8800.00,1.54
8799.00,1.54
8798.00,1.54
8797.00,1.54
8796.00,1.54
8795.00,1.54
8794.00,1.54
8793.00,1.54
8792.00,1.54
8791.00,1.54
8790.00,1.54
8789.00,1.54
8788.00,1.54
8787.00,1.54
8786.00,1.54
8785.00,1.54
8784.00,1.54
8783.00,1.54
8782.00,1.54
8781.00,1.54
8780.00,1.53
8779.00,1.53
8778.00,1.53
8777.00,1.53
8776.00,1.53
8775.00,1.53
8774.00,1.53
8773.00,1.53
8772.00,1.53
8771.00,1.53
8770.00,1.53
8769.00,1.52
8768.00,1.52
8767.00,1.52
8766.00,1.52
8765.00,1.52
8764.00,1.52
8763.00,1.52
8762.00,1.52
8761.00,1.52
8760.00,1.52
8759.00,1.52
8758.00,1.52
8757.00,1.52
8756.00,1.52
8755.00,1.52
8754.00,1.52
8753.00,1.52
8752.00,1.52
8751.00,1.52
8750.00,1.52
8749.00,1.52
8748.00,1.52
8747.00,1.52
8746.00,1.52
8745.00,1.52
8744.00,1.52
8743.00,1.52
8742.00,1.52
8741.00,1.52
8740.00,1.52
8739.00,1.52
8738.00,1.52
8737.00,1.52
8736.00,1.52
8735.00,1.51
8734.00,1.51
8733.00,1.51
8732.00,1.51
8731.00,1.51
8730.00,1.51
8729.00,1.51
8728.00,1.51
8727.00,1.51
8726.00,1.51
8725.00,1.51
8724.00,1.51
8723.00,1.51
8722.00,1.51
8721.00,1.51
8720.00,1.51
8719.00,1.51
8718.00,1.51
8717.00,1.51
8716.00,1.51
8715.00,1.51
8714.00,1.52
8713.00,1.52
8712.00,1.52
8711.00,1.52
8710.00,1.52
8709.00,1.52
8708.00,1.52
8707.00,1.52
8706.00,1.52
8705.00,1.52
8704.00,1.52
8703.00,1.51
8702.00,1.51
8701.00,1.51
8700.00,1.51
8699.00,1.51
8698.00,1.51
8697.00,1.51
8696.00,1.51
8695.00,1.51
8694.00,1.51
8693.00,1.51
8692.00,1.51
8691.00,1.51
8690.00,1.51
8689.00,1.51
8688.00,1.51
8687.00,1.51
8686.00,1.51
8685.00,1.51
8684.00,1.51
8683.00,1.51
8682.00,1.51
8681.00,1.51
8680.00,1.51
8679.00,1.51
8678.00,1.51
8677.00,1.51
8676.00,1.51
8675.00,1.51
8674.00,1.51
8673.00,1.51
8672.00,1.51
8671.00,1.51
8670.00,1.51
8669.00,1.51
8668.00,1.51
8667.00,1.51
8666.00,1.50
8665.00,1.50
8664.00,1.50
8663.00,1.50
8662.00,1.50
8661.00,1.50
8660.00,1.50
8659.00,1.50
8658.00,1.51
8657.00,1.51
8656.00,1.51
8655.00,1.51
8654.00,1.51
8653.00,1.51
8652.00,1.51
8651.00,1.51
8650.00,1.51
8649.00,1.51
8648.00,1.51
8647.00,1.50
8646.00,1.50
8645.00,1.50
8644.00,1.50
8643.00,1.50
8642.00,1.50
8641.00,1.50
8640.00,1.49
8639.00,1.49
8638.00,1.49
8637.00,1.49
8636.00,1.48
8635.00,1.48
8634.00,1.48
8633.00,1.48
8632.00,1.48
8631.00,1.47
8630.00,1.47
8629.00,1.47
8628.00,1.47
8627.00,1.47
8626.00,1.47
8625.00,1.47
8624.00,1.47
8623.00,1.47
8622.00,1.47
8621.00,1.47
8620.00,1.47
8619.00,1.47
8618.00,1.47
8617.00,1.48
8616.00,1.48
8615.00,1.48
8614.00,1.48
8613.00,1.48
8612.00,1.49
8611.00,1.49
8610.00,1.49
8609.00,1.49
8608.00,1.49
8607.00,1.49
8606.00,1.49
8605.00,1.49
8604.00,1.50
8603.00,1.50
8602.00,1.50
8601.00,1.49
8600.00,1.49
8599.00,1.49
8598.00,1.49
8597.00,1.49
8596.00,1.49
8595.00,1.49
8594.00,1.49
8593.00,1.49
8592.00,1.49
8591.00,1.49
8590.00,1.49
8589.00,1.49
8588.00,1.48
8587.00,1.48
8586.00,1.48
8585.00,1.48
8584.00,1.48
8583.00,1.48
8582.00,1.47
8581.00,1.47
8580.00,1.47
8579.00,1.47
8578.00,1.47
8577.00,1.46
8576.00,1.46
8575.00,1.46
8574.00,1.46
8573.00,1.46
8572.00,1.46
8571.00,1.45
8570.00,1.45
8569.00,1.45
8568.00,1.45
8567.00,1.45
8566.00,1.45
8565.00,1.45
8564.00,1.45
8563.00,1.45
8562.00,1.45
8561.00,1.45
8560.00,1.45
8559.00,1.45
8558.00,1.45
8557.00,1.44
8556.00,1.44
8555.00,1.44
8554.00,1.44
8553.00,1.44
8552.00,1.44
8551.00,1.44
8550.00,1.44
8549.00,1.44
8548.00,1.44
8547.00,1.44
8546.00,1.44
8545.00,1.44
8544.00,1.43
8543.00,1.43
8542.00,1.43
8541.00,1.43
8540.00,1.43
8539.00,1.43
8538.00,1.43
8537.00,1.43
8536.00,1.43
8535.00,1.43
8534.00,1.43
8533.00,1.43
8532.00,1.43
8531.00,1.43
8530.00,1.43
8529.00,1.43
8528.00,1.44
8527.00,1.44
8526.00,1.44
8525.00,1.44
8524.00,1.44
8523.00,1.44
8522.00,1.44
8521.00,1.44
8520.00,1.44
8519.00,1.44
8518.00,1.44
8517.00,1.44
8516.00,1.44
8515.00,1.44
8514.00,1.44
8513.00,1.44
8512.00,1.44
8511.00,1.44
8510.00,1.44
8509.00,1.44
8508.00,1.44
8507.00,1.44
8506.00,1.44
8505.00,1.43
8504.00,1.43
8503.00,1.43
8502.00,1.43
8501.00,1.43
8500.00,1.43
8499.00,1.43
8498.00,1.43
8497.00,1.43
8496.00,1.43
8495.00,1.43
8494.00,1.43
8493.00,1.43
8492.00,1.43
8491.00,1.43
8490.00,1.43
8489.00,1.42
8488.00,1.42
8487.00,1.42
8486.00,1.42
8485.00,1.42
8484.00,1.42
8483.00,1.42
8482.00,1.42
8481.00,1.42
8480.00,1.42
8479.00,1.42
8478.00,1.42
8477.00,1.42
8476.00,1.42
8475.00,1.42
8474.00,1.42
8473.00,1.41
8472.00,1.41
8471.00,1.41
8470.00,1.41
8469.00,1.41
8468.00,1.41
8467.00,1.41
8466.00,1.41
8465.00,1.40
8464.00,1.40
8463.00,1.40
8462.00,1.40
8461.00,1.40
8460.00,1.40
8459.00,1.40
8458.00,1.40
8457.00,1.40
8456.00,1.40
8455.00,1.40
8454.00,1.40
8453.00,1.40
8452.00,1.40
8451.00,1.40
8450.00,1.40
8449.00,1.40
8448.00,1.40
8447.00,1.40
8446.00,1.40
8445.00,1.40
8444.00,1.40
8443.00,1.40
8442.00,1.39
8441.00,1.39
8440.00,1.39
8439.00,1.39
8438.00,1.39
8437.00,1.39
8436.00,1.39
8435.00,1.39
8434.00,1.39
8433.00,1.39
8432.00,1.39
8431.00,1.39
8430.00,1.39
8429.00,1.38
8428.00,1.38
8427.00,1.38
8426.00,1.38
8425.00,1.38
8424.00,1.38
8423.00,1.38
8422.00,1.38
8421.00,1.38
8420.00,1.38
8419.00,1.39
8418.00,1.39
8417.00,1.39
8416.00,1.39
8415.00,1.39
8414.00,1.39
8413.00,1.39
8412.00,1.39
8411.00,1.39
8410.00,1.40
8409.00,1.40
8408.00,1.40
8407.00,1.40
8406.00,1.40
8405.00,1.40
8404.00,1.40
8403.00,1.41
8402.00,1.41
8401.00,1.41
8400.00,1.41
8399.00,1.41
8398.00,1.41
8397.00,1.41
8396.00,1.41
8395.00,1.42
8394.00,1.42
8393.00,1.42
8392.00,1.42
8391.00,1.42
8390.00,1.42
8389.00,1.42
8388.00,1.42
8387.00,1.42
8386.00,1.42
8385.00,1.42
8384.00,1.42
8383.00,1.42
8382.00,1.42
8381.00,1.42
8380.00,1.42
8379.00,1.42
8378.00,1.42
8377.00,1.43
8376.00,1.43
8375.00,1.43
8374.00,1.43
8373.00,1.43
8372.00,1.43
8371.00,1.43
8370.00,1.44
8369.00,1.44
8368.00,1.44
8367.00,1.44
8366.00,1.44
8365.00,1.44
8364.00,1.44
8363.00,1.44
8362.00,1.44
8361.00,1.44
8360.00,1.44
8359.00,1.44
8358.00,1.44
8357.00,1.44
8356.00,1.44
8355.00,1.44
8354.00,1.44
8353.00,1.44
8352.00,1.44
8351.00,1.44
8350.00,1.44
8349.00,1.44
8348.00,1.44
8347.00,1.44
8346.00,1.44
8345.00,1.44
8344.00,1.44
8343.00,1.44
8342.00,1.44
8341.00,1.44
8340.00,1.44
8339.00,1.44
8338.00,1.44
8337.00,1.44
8336.00,1.44
8335.00,1.44
8334.00,1.44
8333.00,1.44
8332.00,1.44
8331.00,1.44
8330.00,1.44
8329.00,1.44
8328.00,1.44
8327.00,1.44
8326.00,1.44
8325.00,1.44
8324.00,1.44
8323.00,1.43
8322.00,1.43
8321.00,1.43
8320.00,1.43
8319.00,1.43
8318.00,1.43
8317.00,1.43
8316.00,1.43
8315.00,1.43
8314.00,1.44
8313.00,1.44
8312.00,1.44
8311.00,1.44
8310.00,1.44
8309.00,1.44
8308.00,1.44
8307.00,1.44
8306.00,1.44
8305.00,1.44
8304.00,1.44
8303.00,1.44
8302.00,1.44
8301.00,1.44
8300.00,1.44
8299.00,1.44
8298.00,1.44
8297.00,1.44
8296.00,1.44
8295.00,1.44
8294.00,1.44
8293.00,1.44
8292.00,1.44
8291.00,1.44
8290.00,1.44
8289.00,1.44
8288.00,1.44
8287.00,1.44
8286.00,1.44
8285.00,1.44
8284.00,1.44
8283.00,1.44
8282.00,1.44
8281.00,1.44
8280.00,1.44
8279.00,1.44
8278.00,1.44
8277.00,1.44
8276.00,1.44
8275.00,1.45
8274.00,1.45
8273.00,1.45
8272.00,1.45
8271.00,1.45
8270.00,1.45
8269.00,1.45
8268.00,1.45
8267.00,1.45
8266.00,1.45
8265.00,1.45
8264.00,1.45
8263.00,1.45
8262.00,1.45
8261.00,1.45
8260.00,1.45
8259.00,1.45
8258.00,1.45
8257.00,1.45
8256.00,1.45
8255.00,1.45
8254.00,1.45
8253.00,1.45
8252.00,1.45
8251.00,1.45
8250.00,1.45
8249.00,1.45
8248.00,1.45
8247.00,1.45
8246.00,1.46
8245.00,1.46
8244.00,1.46
8243.00,1.46
8242.00,1.46
8241.00,1.46
8240.00,1.46
8239.00,1.47
8238.00,1.47
8237.00,1.47
8236.00,1.47
8235.00,1.47
8234.00,1.47
8233.00,1.47
8232.00,1.47
8231.00,1.47
8230.00,1.47
8229.00,1.47
8228.00,1.47
8227.00,1.47
8226.00,1.47
8225.00,1.47
8224.00,1.47
8223.00,1.47
8222.00,1.47
8221.00,1.47
8220.00,1.47
8219.00,1.46
8218.00,1.46
8217.00,1.46
8216.00,1.46
8215.00,1.46
8214.00,1.46
8213.00,1.46
8212.00,1.46
8211.00,1.46
8210.00,1.46
8209.00,1.46
8208.00,1.46
8207.00,1.46
8206.00,1.46
8205.00,1.47
8204.00,1.47
8203.00,1.47
8202.00,1.47
8201.00,1.47
8200.00,1.47
8199.00,1.47
8198.00,1.47
8197.00,1.47
8196.00,1.47
8195.00,1.47
8194.00,1.47
8193.00,1.47
8192.00,1.47
8191.00,1.48
8190.00,1.48
8189.00,1.48
8188.00,1.48
8187.00,1.48
8186.00,1.48
8185.00,1.48
8184.00,1.48
8183.00,1.48
8182.00,1.48
8181.00,1.48
8180.00,1.48
8179.00,1.48
8178.00,1.48
8177.00,1.48
8176.00,1.48
8175.00,1.48
8174.00,1.48
8173.00,1.48
8172.00,1.48
8171.00,1.49
8170.00,1.49
8169.00,1.49
8168.00,1.49
8167.00,1.49
8166.00,1.49
8165.00,1.49
8164.00,1.49
8163.00,1.49
8162.00,1.49
8161.00,1.49
8160.00,1.49
8159.00,1.49
8158.00,1.49
8157.00,1.49
8156.00,1.49
8155.00,1.49
8154.00,1.49
8153.00,1.49
8152.00,1.49
8151.00,1.49
8150.00,1.49
8149.00,1.49
8148.00,1.49
8147.00,1.49
8146.00,1.49
8145.00,1.49
8144.00,1.49
8143.00,1.49
8142.00,1.49
8141.00,1.49
8140.00,1.49
8139.00,1.49
8138.00,1.49
8137.00,1.49
8136.00,1.49
8135.00,1.49
8134.00,1.50
8133.00,1.50
8132.00,1.50
8131.00,1.50
8130.00,1.50
8129.00,1.50
8128.00,1.50
8127.00,1.50
8126.00,1.50
8125.00,1.50
8124.00,1.50
8123.00,1.50
8122.00,1.50
8121.00,1.50
8120.00,1.50
8119.00,1.51
8118.00,1.51
8117.00,1.51
8116.00,1.51
8115.00,1.51
8114.00,1.51
8113.00,1.51
8112.00,1.51
8111.00,1.51
8110.00,1.51
8109.00,1.51
8108.00,1.51
8107.00,1.51
8106.00,1.51
8105.00,1.51
8104.00,1.51
8103.00,1.51
8102.00,1.51
8101.00,1.51
8100.00,1.51
8099.00,1.52
8098.00,1.52
8097.00,1.52
8096.00,1.52
8095.00,1.52
8094.00,1.52
8093.00,1.52
8092.00,1.52
8091.00,1.52
8090.00,1.52
8089.00,1.52
8088.00,1.52
8087.00,1.52
8086.00,1.52
8085.00,1.52
8084.00,1.52
8083.00,1.52
8082.00,1.52
8081.00,1.52
8080.00,1.52
8079.00,1.52
8078.00,1.52
8077.00,1.52
8076.00,1.52
8075.00,1.52
8074.00,1.52
8073.00,1.52
8072.00,1.52
8071.00,1.52
8070.00,1.52
8069.00,1.52
8068.00,1.52
8067.00,1.53
8066.00,1.53
8065.00,1.53
8064.00,1.53
8063.00,1.53
8062.00,1.53
8061.00,1.53
8060.00,1.53
8059.00,1.53
8058.00,1.53
8057.00,1.53
8056.00,1.53
8055.00,1.53
8054.00,1.53
8053.00,1.53
8052.00,1.53
8051.00,1.53
8050.00,1.53
8049.00,1.53
8048.00,1.53
8047.00,1.53
8046.00,1.54
8045.00,1.54
8044.00,1.54
8043.00,1.54
8042.00,1.54
8041.00,1.54
8040.00,1.54
8039.00,1.54
8038.00,1.54
8037.00,1.54
8036.00,1.54
8035.00,1.54
8034.00,1.54
8033.00,1.54
8032.00,1.54
8031.00,1.54
8030.00,1.54
8029.00,1.54
8028.00,1.54
8027.00,1.54
8026.00,1.54
8025.00,1.54
8024.00,1.54
8023.00,1.54
8022.00,1.54
8021.00,1.54
8020.00,1.54
8019.00,1.54
8018.00,1.54
8017.00,1.54
8016.00,1.54
8015.00,1.54
8014.00,1.54
8013.00,1.54
8012.00,1.54
8011.00,1.54
8010.00,1.54
8009.00,1.54
8008.00,1.54
8007.00,1.54
8006.00,1.54
8005.00,1.54
8004.00,1.54
8003.00,1.54
8002.00,1.54
8001.00,1.54
8000.00,1.54
7999.00,1.54
7998.00,1.54
7997.00,1.54
7996.00,1.54
7995.00,1.54
7994.00,1.54
7993.00,1.54
7992.00,1.54
7991.00,1.54
7990.00,1.54
7989.00,1.54
7988.00,1.54
7987.00,1.54
7986.00,1.55
7985.00,1.55
7984.00,1.55
7983.00,1.55
7982.00,1.55
7981.00,1.55
7980.00,1.55
7979.00,1.55
7978.00,1.55
7977.00,1.55
7976.00,1.55
7975.00,1.55
7974.00,1.55
7973.00,1.55
7972.00,1.55
7971.00,1.55
7970.00,1.55
7969.00,1.55
7968.00,1.55
7967.00,1.55
7966.00,1.55
7965.00,1.55
7964.00,1.55
7963.00,1.55
7962.00,1.55
7961.00,1.55
7960.00,1.55
7959.00,1.54
7958.00,1.54
7957.00,1.54
7956.00,1.54
7955.00,1.55
7954.00,1.55
7953.00,1.55
7952.00,1.55
7951.00,1.55
7950.00,1.55
7949.00,1.55
7948.00,1.55
7947.00,1.55
7946.00,1.55
7945.00,1.55
7944.00,1.55
7943.00,1.55
7942.00,1.55
7941.00,1.55
7940.00,1.55
7939.00,1.55
7938.00,1.55
7937.00,1.55
7936.00,1.55
7935.00,1.55
7934.00,1.55
7933.00,1.55
7932.00,1.55
7931.00,1.56
7930.00,1.56
7929.00,1.56
7928.00,1.56
7927.00,1.56
7926.00,1.56
7925.00,1.56
7924.00,1.56
7923.00,1.56
7922.00,1.56
7921.00,1.56
7920.00,1.56
7919.00,1.56
7918.00,1.56
7917.00,1.56
7916.00,1.56
7915.00,1.56
7914.00,1.56
7913.00,1.56
7912.00,1.56
7911.00,1.56
7910.00,1.56
7909.00,1.56
7908.00,1.56
7907.00,1.56
7906.00,1.56
7905.00,1.56
7904.00,1.56
7903.00,1.56
7902.00,1.56
7901.00,1.56
7900.00,1.56
7899.00,1.56
7898.00,1.56
7897.00,1.56
7896.00,1.56
7895.00,1.56
7894.00,1.55
7893.00,1.55
7892.00,1.55
7891.00,1.55
7890.00,1.55
7889.00,1.55
7888.00,1.55
7887.00,1.55
7886.00,1.55
7885.00,1.55
7884.00,1.55
7883.00,1.55
7882.00,1.55
7881.00,1.56
7880.00,1.56
7879.00,1.56
7878.00,1.56
7877.00,1.56
7876.00,1.56
7875.00,1.56
7874.00,1.56
7873.00,1.56
7872.00,1.56
7871.00,1.56
7870.00,1.56
7869.00,1.56
7868.00,1.56
7867.00,1.56
7866.00,1.56
7865.00,1.56
7864.00,1.56
7863.00,1.56
7862.00,1.56
7861.00,1.56
7860.00,1.56
7859.00,1.56
7858.00,1.56
7857.00,1.56
7856.00,1.56
7855.00,1.56
7854.00,1.56
7853.00,1.56
7852.00,1.56
7851.00,1.56
7850.00,1.56
7849.00,1.56
7848.00,1.57
7847.00,1.57
7846.00,1.57
7845.00,1.57
7844.00,1.57
7843.00,1.57
7842.00,1.57
7841.00,1.57
7840.00,1.57
7839.00,1.57
7838.00,1.57
7837.00,1.57
7836.00,1.57
7835.00,1.57
7834.00,1.57
7833.00,1.57
7832.00,1.57
7831.00,1.57
7830.00,1.57
7829.00,1.57
7828.00,1.57
7827.00,1.57
7826.00,1.57
7825.00,1.57
7824.00,1.57
7823.00,1.57
7822.00,1.57
7821.00,1.57
7820.00,1.57
7819.00,1.57
7818.00,1.57
7817.00,1.57
7816.00,1.57
7815.00,1.57
7814.00,1.57
7813.00,1.57
7812.00,1.57
7811.00,1.57
7810.00,1.57
7809.00,1.58
7808.00,1.58
7807.00,1.58
7806.00,1.58
7805.00,1.58
7804.00,1.58
7803.00,1.58
7802.00,1.58
7801.00,1.58
7800.00,1.58
7799.00,1.58
7798.00,1.58
7797.00,1.58
7796.00,1.58
7795.00,1.58
7794.00,1.58
7793.00,1.58
7792.00,1.58
7791.00,1.58
7790.00,1.58
7789.00,1.58
7788.00,1.59
7787.00,1.59
7786.00,1.59
7785.00,1.59
7784.00,1.59
7783.00,1.59
7782.00,1.59
7781.00,1.59
7780.00,1.59
7779.00,1.59
7778.00,1.59
7777.00,1.59
7776.00,1.59
7775.00,1.59
7774.00,1.59
7773.00,1.59
7772.00,1.59
7771.00,1.59
7770.00,1.58
7769.00,1.58
7768.00,1.58
7767.00,1.58
7766.00,1.58
7765.00,1.58
7764.00,1.58
7763.00,1.58
7762.00,1.58
7761.00,1.58
7760.00,1.58
7759.00,1.58
7758.00,1.58
7757.00,1.58
7756.00,1.58
7755.00,1.58
7754.00,1.58
7753.00,1.58
7752.00,1.58
7751.00,1.58
7750.00,1.58
7749.00,1.58
7748.00,1.58
7747.00,1.58
7746.00,1.58
7745.00,1.58
7744.00,1.58
7743.00,1.58
7742.00,1.58
7741.00,1.58
7740.00,1.58
7739.00,1.58
7738.00,1.58
7737.00,1.58
7736.00,1.58
7735.00,1.58
7734.00,1.58
7733.00,1.58
7732.00,1.58
7731.00,1.58
7730.00,1.58
7729.00,1.58
7728.00,1.58
7727.00,1.58
7726.00,1.58
7725.00,1.58
7724.00,1.58
7723.00,1.58
7722.00,1.58
7721.00,1.58
7720.00,1.58
7719.00,1.58
7718.00,1.58
7717.00,1.58
7716.00,1.58
7715.00,1.58
7714.00,1.58
7713.00,1.58
7712.00,1.58
7711.00,1.58
7710.00,1.58
7709.00,1.58
7708.00,1.58
7707.00,1.58
7706.00,1.58
7705.00,1.58
7704.00,1.58
7703.00,1.58
7702.00,1.58
7701.00,1.58
7700.00,1.58
7699.00,1.58
7698.00,1.58
7697.00,1.58
7696.00,1.58
7695.00,1.58
7694.00,1.58
7693.00,1.58
7692.00,1.58
7691.00,1.58
7690.00,1.58
7689.00,1.59
7688.00,1.59
7687.00,1.59
7686.00,1.59
7685.00,1.59
7684.00,1.59
7683.00,1.59
7682.00,1.59
7681.00,1.59
7680.00,1.59
7679.00,1.59
7678.00,1.59
7677.00,1.59
7676.00,1.59
7675.00,1.59
7674.00,1.59
7673.00,1.59
7672.00,1.59
7671.00,1.59
7670.00,1.59
7669.00,1.59
7668.00,1.59
7667.00,1.59
7666.00,1.59
7665.00,1.59
7664.00,1.59
7663.00,1.59
7662.00,1.59
7661.00,1.59
7660.00,1.59
7659.00,1.59
7658.00,1.59
7657.00,1.59
7656.00,1.59
7655.00,1.59
7654.00,1.59
7653.00,1.59
7652.00,1.59
7651.00,1.59
7650.00,1.58
7649.00,1.58
7648.00,1.58
7647.00,1.58
7646.00,1.58
7645.00,1.58
7644.00,1.58
7643.00,1.58
7642.00,1.58
7641.00,1.58
7640.00,1.58
7639.00,1.58
7638.00,1.58
7637.00,1.59
7636.00,1.59
7635.00,1.59
7634.00,1.59
7633.00,1.59
7632.00,1.59
7631.00,1.59
7630.00,1.59
7629.00,1.59
7628.00,1.59
7627.00,1.59
7626.00,1.59
7625.00,1.59
7624.00,1.59
7623.00,1.59
7622.00,1.58
7621.00,1.58
7620.00,1.58
7619.00,1.58
7618.00,1.58
7617.00,1.58
7616.00,1.58
7615.00,1.58
7614.00,1.58
7613.00,1.58
7612.00,1.58
7611.00,1.58
7610.00,1.58
7609.00,1.58
7608.00,1.58
7607.00,1.58
7606.00,1.58
7605.00,1.58
7604.00,1.58
7603.00,1.58
7602.00,1.58
7601.00,1.58
7600.00,1.58
7599.00,1.58
7598.00,1.58
7597.00,1.58
7596.00,1.58
7595.00,1.58
7594.00,1.58
7593.00,1.58
7592.00,1.58
7591.00,1.58
7590.00,1.58
7589.00,1.58
7588.00,1.58
7587.00,1.58
7586.00,1.58
7585.00,1.58
7584.00,1.58
7583.00,1.58
7582.00,1.58
7581.00,1.58
7580.00,1.58
7579.00,1.58
7578.00,1.58
7577.00,1.58
7576.00,1.58
7575.00,1.58
7574.00,1.58
7573.00,1.58
7572.00,1.58
7571.00,1.58
7570.00,1.58
7569.00,1.58
7568.00,1.58
7567.00,1.58
7566.00,1.58
7565.00,1.58
7564.00,1.58
7563.00,1.58
7562.00,1.58
7561.00,1.58
7560.00,1.58
7559.00,1.58
7558.00,1.58
7557.00,1.58
7556.00,1.58
7555.00,1.58
7554.00,1.58
7553.00,1.58
7552.00,1.58
7551.00,1.58
7550.00,1.58
7549.00,1.58
7548.00,1.58
7547.00,1.58
7546.00,1.58
7545.00,1.58
7544.00,1.58
7543.00,1.57
7542.00,1.57
7541.00,1.57
7540.00,1.57
7539.00,1.57
7538.00,1.57
7537.00,1.57
7536.00,1.57
7535.00,1.57
7534.00,1.57
7533.00,1.57
7532.00,1.57
7531.00,1.57
7530.00,1.57
7529.00,1.57
7528.00,1.57
7527.00,1.57
7526.00,1.57
7525.00,1.57
7524.00,1.57
7523.00,1.57
7522.00,1.57
7521.00,1.57
7520.00,1.57
7519.00,1.57
7518.00,1.57
7517.00,1.57
7516.00,1.57
7515.00,1.57
7514.00,1.57
7513.00,1.57
7512.00,1.57
7511.00,1.57
7510.00,1.57
7509.00,1.57
7508.00,1.57
7507.00,1.57
7506.00,1.57
7505.00,1.57
7504.00,1.57
7503.00,1.57
7502.00,1.57
7501.00,1.57
7500.00,1.57
7499.00,1.57
7498.00,1.56
7497.00,1.56
7496.00,1.56
7495.00,1.56
7494.00,1.56
7493.00,1.56
7492.00,1.56
7491.00,1.56
7490.00,1.56
7489.00,1.56
7488.00,1.56
7487.00,1.56
7486.00,1.56
7485.00,1.56
7484.00,1.55
7483.00,1.55
7482.00,1.55
7481.00,1.55
7480.00,1.55
7479.00,1.55
7478.00,1.55
7477.00,1.55
7476.00,1.55
7475.00,1.55
7474.00,1.55
7473.00,1.55
7472.00,1.55
7471.00,1.55
7470.00,1.54
7469.00,1.54
7468.00,1.54
7467.00,1.54
7466.00,1.54
7465.00,1.54
7464.00,1.54
7463.00,1.54
7462.00,1.54
7461.00,1.54
7460.00,1.54
7459.00,1.54
7458.00,1.54
7457.00,1.54
7456.00,1.53
7455.00,1.53
7454.00,1.53
7453.00,1.53
7452.00,1.53
7451.00,1.53
7450.00,1.53
7449.00,1.53
7448.00,1.53
7447.00,1.53
7446.00,1.53
7445.00,1.53
7444.00,1.53
7443.00,1.53
7442.00,1.53
7441.00,1.53
7440.00,1.53
7439.00,1.53
7438.00,1.53
7437.00,1.53
7436.00,1.53
7435.00,1.53
7434.00,1.53
7433.00,1.53
7432.00,1.53
7431.00,1.52
7430.00,1.52
7429.00,1.52
7428.00,1.52
7427.00,1.52
7426.00,1.52
7425.00,1.52
7424.00,1.52
7423.00,1.52
7422.00,1.52
7421.00,1.52
7420.00,1.52
7419.00,1.51
7418.00,1.51
7417.00,1.51
7416.00,1.51
7415.00,1.51
7414.00,1.51
7413.00,1.51
7412.00,1.51
7411.00,1.50
7410.00,1.50
7409.00,1.50
7408.00,1.50
7407.00,1.50
7406.00,1.50
7405.00,1.50
7404.00,1.50
7403.00,1.50
7402.00,1.49
7401.00,1.49
7400.00,1.49
7399.00,1.49
7398.00,1.49
7397.00,1.49
7396.00,1.49
7395.00,1.49
7394.00,1.48
7393.00,1.48
7392.00,1.48
7391.00,1.48
7390.00,1.48
7389.00,1.47
7388.00,1.47
7387.00,1.47
7386.00,1.47
7385.00,1.47
7384.00,1.47
7383.00,1.46
7382.00,1.46
7381.00,1.46
7380.00,1.46
7379.00,1.46
7378.00,1.46
7377.00,1.45
7376.00,1.45
7375.00,1.45
7374.00,1.45
7373.00,1.45
7372.00,1.45
7371.00,1.45
7370.00,1.45
7369.00,1.45
7368.00,1.45
7367.00,1.45
7366.00,1.45
7365.00,1.45
7364.00,1.45
7363.00,1.45
7362.00,1.45
7361.00,1.45
7360.00,1.45
7359.00,1.45
7358.00,1.45
7357.00,1.45
7356.00,1.45
7355.00,1.45
7354.00,1.45
7353.00,1.45
7352.00,1.45
7351.00,1.45
7350.00,1.45
7349.00,1.45
7348.00,1.45
7347.00,1.44
7346.00,1.44
7345.00,1.44
7344.00,1.44
7343.00,1.44
7342.00,1.44
7341.00,1.44
7340.00,1.44
7339.00,1.44
7338.00,1.44
7337.00,1.44
7336.00,1.44
7335.00,1.43
7334.00,1.43
7333.00,1.43
7332.00,1.43
7331.00,1.43
7330.00,1.43
7329.00,1.43
7328.00,1.43
7327.00,1.43
7326.00,1.43
7325.00,1.43
7324.00,1.43
7323.00,1.43
7322.00,1.43
7321.00,1.43
7320.00,1.43
7319.00,1.43
7318.00,1.43
7317.00,1.43
7316.00,1.42
7315.00,1.42
7314.00,1.42
7313.00,1.42
7312.00,1.42
7311.00,1.42
7310.00,1.42
7309.00,1.42
7308.00,1.42
7307.00,1.41
7306.00,1.41
7305.00,1.41
7304.00,1.41
7303.00,1.41
7302.00,1.41
7301.00,1.41
7300.00,1.41
7299.00,1.41
7298.00,1.41
7297.00,1.41
7296.00,1.41
7295.00,1.41
7294.00,1.41
7293.00,1.40
7292.00,1.40
7291.00,1.40
7290.00,1.40
7289.00,1.40
7288.00,1.40
7287.00,1.40
7286.00,1.40
7285.00,1.40
7284.00,1.40
7283.00,1.40
7282.00,1.40
7281.00,1.40
7280.00,1.40
7279.00,1.39
7278.00,1.39
7277.00,1.39
7276.00,1.39
7275.00,1.39
7274.00,1.39
7273.00,1.38
7272.00,1.38
7271.00,1.38
7270.00,1.38
7269.00,1.38
7268.00,1.38
7267.00,1.37
7266.00,1.37
7265.00,1.37
7264.00,1.37
7263.00,1.37
7262.00,1.37
7261.00,1.36
7260.00,1.36
7259.00,1.36
7258.00,1.36
7257.00,1.36
7256.00,1.36
7255.00,1.35
7254.00,1.35
7253.00,1.35
7252.00,1.35
7251.00,1.35
7250.00,1.34
7249.00,1.34
7248.00,1.34
7247.00,1.33
7246.00,1.33
7245.00,1.33
7244.00,1.32
7243.00,1.32
7242.00,1.32
7241.00,1.31
7240.00,1.31
7239.00,1.31
7238.00,1.30
7237.00,1.30
7236.00,1.30
7235.00,1.29
7234.00,1.29
7233.00,1.28
7232.00,1.28
7231.00,1.28
7230.00,1.27
7229.00,1.27
7228.00,1.26
7227.00,1.26
7226.00,1.26
7225.00,1.25
7224.00,1.25
7223.00,1.24
7222.00,1.24
7221.00,1.24
7220.00,1.23
7219.00,1.23
7218.00,1.22
7217.00,1.22
7216.00,1.22
7215.00,1.21
7214.00,1.21
7213.00,1.20
7212.00,1.20
7211.00,1.20
7210.00,1.19
7209.00,1.19
7208.00,1.19
7207.00,1.18
7206.00,1.18
7205.00,1.17
7204.00,1.17
7203.00,1.17
7202.00,1.16
7201.00,1.16
7200.00,1.15
7199.00,1.15
7198.00,1.15
7197.00,1.14
7196.00,1.14
7195.00,1.14
7194.00,1.13
7193.00,1.13
7192.00,1.13
7191.00,1.12
7190.00,1.12
7189.00,1.12
7188.00,1.11
7187.00,1.11
7186.00,1.10
7185.00,1.10
7184.00,1.10
7183.00,1.09
7182.00,1.09
7181.00,1.09
7180.00,1.08
7179.00,1.08
7178.00,1.08
7177.00,1.07
7176.00,1.07
7175.00,1.07
7174.00,1.07
7173.00,1.06
7172.00,1.06
7171.00,1.06
7170.00,1.05
7169.00,1.05
7168.00,1.05
7167.00,1.04
7166.00,1.04
7165.00,1.04
7164.00,1.04
7163.00,1.03
7162.00,1.03
7161.00,1.03
7160.00,1.03
7159.00,1.02
7158.00,1.02
7157.00,1.02
7156.00,1.02
7155.00,1.01
7154.00,1.01
7153.00,1.01
7152.00,1.00
7151.00,1.00
7150.00,1.00
7149.00,1.00
7148.00,0.99
7147.00,0.99
7146.00,0.98
7145.00,0.98
7144.00,0.98
7143.00,0.97
7142.00,0.97
7141.00,0.97
7140.00,0.96
7139.00,0.96
7138.00,0.95
7137.00,0.95
7136.00,0.95
7135.00,0.94
7134.00,0.94
7133.00,0.94
7132.00,0.93
7131.00,0.93
7130.00,0.93
7129.00,0.93
7128.00,0.92
7127.00,0.92
7126.00,0.92
7125.00,0.91
7124.00,0.91
7123.00,0.91
7122.00,0.90
7121.00,0.90
7120.00,0.90
7119.00,0.89
7118.00,0.89
7117.00,0.89
7116.00,0.88
7115.00,0.88
7114.00,0.88
7113.00,0.87
7112.00,0.87
7111.00,0.87
7110.00,0.87
7109.00,0.86
7108.00,0.86
7107.00,0.86
7106.00,0.86
7105.00,0.85
7104.00,0.85
7103.00,0.85
7102.00,0.85
7101.00,0.85
7100.00,0.85
7099.00,0.84
7098.00,0.84
7097.00,0.84
7096.00,0.84
7095.00,0.84
7094.00,0.84
7093.00,0.83
7092.00,0.83
7091.00,0.83
7090.00,0.83
7089.00,0.83
7088.00,0.82
7087.00,0.82
7086.00,0.82
7085.00,0.82
7084.00,0.82
7083.00,0.81
7082.00,0.81
7081.00,0.81
7080.00,0.81
7079.00,0.80
7078.00,0.80
7077.00,0.80
7076.00,0.80
7075.00,0.79
7074.00,0.79
7073.00,0.79
7072.00,0.79
7071.00,0.78
7070.00,0.78
7069.00,0.78
7068.00,0.78
7067.00,0.78
7066.00,0.78
7065.00,0.77
7064.00,0.77
7063.00,0.77
7062.00,0.77
7061.00,0.77
7060.00,0.77
7059.00,0.77
7058.00,0.76
7057.00,0.76
7056.00,0.76
7055.00,0.76
7054.00,0.76
7053.00,0.76
7052.00,0.75
7051.00,0.75
7050.00,0.75
7049.00,0.75
7048.00,0.75
7047.00,0.75
7046.00,0.75
7045.00,0.75
7044.00,0.74
7043.00,0.74
7042.00,0.74
7041.00,0.74
7040.00,0.74
7039.00,0.74
7038.00,0.74
7037.00,0.74
7036.00,0.74
7035.00,0.74
7034.00,0.73
7033.00,0.73
7032.00,0.73
7031.00,0.73
7030.00,0.73
7029.00,0.73
7028.00,0.73
7027.00,0.73
7026.00,0.73
7025.00,0.73
7024.00,0.73
7023.00,0.72
7022.00,0.72
7021.00,0.72
7020.00,0.72
7019.00,0.72
7018.00,0.72
7017.00,0.72
7016.00,0.72
7015.00,0.72
7014.00,0.72
7013.00,0.72
7012.00,0.71
7011.00,0.71
7010.00,0.71
7009.00,0.71
7008.00,0.71
7007.00,0.71
7006.00,0.71
7005.00,0.70
7004.00,0.70
7003.00,0.70
7002.00,0.70
7001.00,0.70
7000.00,0.70
6999.00,0.69
6998.00,0.69
6997.00,0.69
6996.00,0.69
6995.00,0.69
6994.00,0.69
6993.00,0.69
6992.00,0.69
6991.00,0.69
6990.00,0.68
6989.00,0.68
6988.00,0.68
6987.00,0.68
6986.00,0.68
6985.00,0.68
6984.00,0.68
6983.00,0.68
6982.00,0.68
6981.00,0.68
6980.00,0.68
6979.00,0.68
6978.00,0.68
6977.00,0.68
6976.00,0.68
6975.00,0.68
6974.00,0.68
6973.00,0.68
6972.00,0.68
6971.00,0.68
6970.00,0.68
6969.00,0.68
6968.00,0.68
6967.00,0.68
6966.00,0.68
6965.00,0.68
6964.00,0.68
6963.00,0.68
6962.00,0.68
6961.00,0.68
6960.00,0.68
6959.00,0.68
6958.00,0.68
6957.00,0.68
6956.00,0.68
6955.00,0.68
6954.00,0.68
6953.00,0.68
6952.00,0.68
6951.00,0.68
6950.00,0.67
6949.00,0.67
6948.00,0.67
6947.00,0.67
6946.00,0.67
6945.00,0.67
6944.00,0.67
6943.00,0.67
6942.00,0.67
6941.00,0.67
6940.00,0.67
6939.00,0.67
6938.00,0.67
6937.00,0.67
6936.00,0.67
6935.00,0.67
6934.00,0.67
6933.00,0.67
6932.00,0.67
6931.00,0.67
6930.00,0.67
6929.00,0.67
6928.00,0.67
6927.00,0.67
6926.00,0.67
6925.00,0.67
6924.00,0.67
6923.00,0.67
6922.00,0.67
6921.00,0.67
6920.00,0.67
6919.00,0.67
6918.00,0.67
6917.00,0.67
6916.00,0.67
6915.00,0.67
6914.00,0.67
6913.00,0.67
6912.00,0.66
6911.00,0.66
6910.00,0.66
6909.00,0.66
6908.00,0.66
6907.00,0.66
6906.00,0.66
6905.00,0.66
6904.00,0.66
6903.00,0.66
6902.00,0.66
6901.00,0.66
6900.00,0.66
6899.00,0.66
6898.00,0.66
6897.00,0.66
6896.00,0.66
6895.00,0.66
6894.00,0.66
6893.00,0.66
6892.00,0.66
6891.00,0.66
6890.00,0.66
6889.00,0.66
6888.00,0.66
6887.00,0.66
6886.00,0.66
6885.00,0.66
6884.00,0.66
6883.00,0.66
6882.00,0.66
6881.00,0.66
6880.00,0.66
6879.00,0.66
6878.00,0.66
6877.00,0.66
6876.00,0.66
6875.00,0.66
6874.00,0.66
6873.00,0.66
6872.00,0.66
6871.00,0.66
6870.00,0.66
6869.00,0.66
6868.00,0.66
6867.00,0.66
6866.00,0.66
6865.00,0.66
6864.00,0.66
6863.00,0.66
6862.00,0.66
6861.00,0.66
6860.00,0.66
6859.00,0.66
6858.00,0.66
6857.00,0.66
6856.00,0.66
6855.00,0.66
6854.00,0.66
6853.00,0.66
6852.00,0.66
6851.00,0.66
6850.00,0.66
6849.00,0.66
6848.00,0.66
6847.00,0.66
6846.00,0.67
6845.00,0.67
6844.00,0.67
6843.00,0.67
6842.00,0.67
6841.00,0.67
6840.00,0.67
6839.00,0.67
6838.00,0.67
6837.00,0.67
6836.00,0.67
6835.00,0.67
6834.00,0.67
6833.00,0.67
6832.00,0.67
6831.00,0.67
6830.00,0.67
6829.00,0.67
6828.00,0.67
6827.00,0.67
6826.00,0.67
6825.00,0.67
6824.00,0.67
6823.00,0.67
6822.00,0.67
6821.00,0.67
6820.00,0.68
6819.00,0.68
6818.00,0.68
6817.00,0.68
6816.00,0.68
6815.00,0.68
6814.00,0.68
6813.00,0.68
6812.00,0.68
6811.00,0.68
6810.00,0.68
6809.00,0.68
6808.00,0.68
6807.00,0.68
6806.00,0.68
6805.00,0.68
6804.00,0.68
6803.00,0.68
6802.00,0.68
6801.00,0.68
6800.00,0.68
6799.00,0.68
6798.00,0.68
6797.00,0.68
6796.00,0.68
6795.00,0.68
6794.00,0.68
6793.00,0.68
6792.00,0.68
6791.00,0.68
6790.00,0.68
6789.00,0.68
6788.00,0.68
6787.00,0.68
6786.00,0.69
6785.00,0.69
6784.00,0.69
6783.00,0.69
6782.00,0.69
6781.00,0.69
6780.00,0.69
6779.00,0.69
6778.00,0.69
6777.00,0.69
6776.00,0.69
6775.00,0.69
6774.00,0.69
6773.00,0.69
6772.00,0.69
6771.00,0.69
6770.00,0.70
6769.00,0.70
6768.00,0.70
6767.00,0.70
6766.00,0.70
6765.00,0.70
6764.00,0.70
6763.00,0.70
6762.00,0.70
6761.00,0.70
6760.00,0.70
6759.00,0.70
6758.00,0.70
6757.00,0.70
6756.00,0.70
6755.00,0.70
6754.00,0.70
6753.00,0.71
6752.00,0.71
6751.00,0.71
6750.00,0.71
6749.00,0.71
6748.00,0.71
6747.00,0.71
6746.00,0.71
6745.00,0.71
6744.00,0.71
6743.00,0.71
6742.00,0.72
6741.00,0.72
6740.00,0.72
6739.00,0.72
6738.00,0.72
6737.00,0.72
6736.00,0.72
6735.00,0.72
6734.00,0.73
6733.00,0.73
6732.00,0.73
6731.00,0.73
6730.00,0.73
6729.00,0.73
6728.00,0.73
6727.00,0.73
6726.00,0.73
6725.00,0.73
6724.00,0.73
6723.00,0.73
6722.00,0.73
6721.00,0.74
6720.00,0.74
6719.00,0.74
6718.00,0.74
6717.00,0.74
6716.00,0.74
6715.00,0.74
6714.00,0.74
6713.00,0.74
6712.00,0.74
6711.00,0.74
6710.00,0.75
6709.00,0.75
6708.00,0.75
6707.00,0.75
6706.00,0.75
6705.00,0.75
6704.00,0.75
6703.00,0.75
6702.00,0.75
6701.00,0.76
6700.00,0.76
6699.00,0.76
6698.00,0.76
6697.00,0.76
6696.00,0.76
6695.00,0.76
6694.00,0.76
6693.00,0.77
6692.00,0.77
6691.00,0.77
6690.00,0.77
6689.00,0.77
6688.00,0.77
6687.00,0.77
6686.00,0.77
6685.00,0.78
6684.00,0.78
6683.00,0.78
6682.00,0.78
6681.00,0.78
6680.00,0.78
6679.00,0.78
6678.00,0.78
6677.00,0.78
6676.00,0.78
6675.00,0.79
6674.00,0.79
6673.00,0.79
6672.00,0.79
6671.00,0.79
6670.00,0.79
6669.00,0.79
6668.00,0.79
6667.00,0.79
6666.00,0.79
6665.00,0.79
6664.00,0.79
6663.00,0.80
6662.00,0.80
6661.00,0.80
6660.00,0.80
6659.00,0.80
6658.00,0.80
6657.00,0.80
6656.00,0.80
6655.00,0.81
6654.00,0.81
6653.00,0.81
6652.00,0.81
6651.00,0.81
6650.00,0.81
6649.00,0.81
6648.00,0.82
6647.00,0.82
6646.00,0.82
6645.00,0.82
6644.00,0.82
6643.00,0.82
6642.00,0.82
6641.00,0.82
6640.00,0.83
6639.00,0.83
6638.00,0.83
6637.00,0.83
6636.00,0.83
6635.00,0.83
6634.00,0.83
6633.00,0.83
6632.00,0.84
6631.00,0.84
6630.00,0.84
6629.00,0.84
6628.00,0.84
6627.00,0.84
6626.00,0.84
6625.00,0.85
6624.00,0.85
6623.00,0.85
6622.00,0.85
6621.00,0.85
6620.00,0.85
6619.00,0.85
6618.00,0.85
6617.00,0.85
6616.00,0.85
6615.00,0.86
6614.00,0.86
6613.00,0.86
6612.00,0.86
6611.00,0.86
6610.00,0.86
6609.00,0.86
6608.00,0.86
6607.00,0.86
6606.00,0.86
6605.00,0.86
6604.00,0.86
6603.00,0.87
6602.00,0.87
6601.00,0.87
6600.00,0.87
6599.00,0.87
6598.00,0.87
6597.00,0.87
6596.00,0.88
6595.00,0.88
6594.00,0.88
6593.00,0.88
6592.00,0.88
6591.00,0.88
6590.00,0.88
6589.00,0.88
6588.00,0.89
6587.00,0.89
6586.00,0.89
6585.00,0.89
6584.00,0.89
6583.00,0.89
6582.00,0.89
6581.00,0.89
6580.00,0.89
6579.00,0.89
6578.00,0.90
6577.00,0.90
6576.00,0.90
6575.00,0.90
6574.00,0.90
6573.00,0.90
6572.00,0.90
6571.00,0.90
6570.00,0.90
6569.00,0.90
6568.00,0.90
6567.00,0.90
6566.00,0.90
6565.00,0.90
6564.00,0.91
6563.00,0.91
6562.00,0.91
6561.00,0.91
6560.00,0.91
6559.00,0.91
6558.00,0.91
6557.00,0.91
6556.00,0.92
6555.00,0.92
6554.00,0.92
6553.00,0.92
6552.00,0.92
6551.00,0.92
6550.00,0.92
6549.00,0.92
6548.00,0.92
6547.00,0.92
6546.00,0.93
6545.00,0.93
6544.00,0.93
6543.00,0.93
6542.00,0.93
6541.00,0.93
6540.00,0.93
6539.00,0.93
6538.00,0.93
6537.00,0.93
6536.00,0.94
6535.00,0.94
6534.00,0.94
6533.00,0.94
6532.00,0.94
6531.00,0.94
6530.00,0.94
6529.00,0.94
6528.00,0.95
6527.00,0.95
6526.00,0.95
6525.00,0.95
6524.00,0.95
6523.00,0.95
6522.00,0.95
6521.00,0.95
6520.00,0.95
6519.00,0.96
6518.00,0.96
6517.00,0.96
6516.00,0.96
6515.00,0.96
6514.00,0.96
6513.00,0.96
6512.00,0.96
6511.00,0.96
6510.00,0.96
6509.00,0.96
6508.00,0.96
6507.00,0.96
6506.00,0.96
6505.00,0.96
6504.00,0.96
6503.00,0.96
6502.00,0.96
6501.00,0.96
6500.00,0.96
6499.00,0.97
6498.00,0.97
6497.00,0.97
6496.00,0.97
6495.00,0.97
6494.00,0.97
6493.00,0.97
6492.00,0.97
6491.00,0.97
6490.00,0.97
6489.00,0.97
6488.00,0.98
6487.00,0.98
6486.00,0.98
6485.00,0.98
6484.00,0.98
6483.00,0.98
6482.00,0.98
6481.00,0.98
6480.00,0.98
6479.00,0.99
6478.00,0.99
6477.00,0.99
6476.00,0.99
6475.00,0.99
6474.00,0.99
6473.00,0.99
6472.00,0.99
6471.00,0.99
6470.00,0.99
6469.00,1.00
6468.00,1.00
6467.00,1.00
6466.00,1.00
6465.00,1.00
6464.00,1.00
6463.00,1.00
6462.00,1.00
6461.00,1.00
6460.00,1.00
6459.00,1.00
6458.00,1.00
6457.00,1.00
6456.00,1.00
6455.00,1.01
6454.00,1.01
6453.00,1.01
6452.00,1.01
6451.00,1.01
6450.00,1.01
6449.00,1.01
6448.00,1.01
6447.00,1.01
6446.00,1.01
6445.00,1.01
6444.00,1.01
6443.00,1.01
6442.00,1.01
6441.00,1.01
6440.00,1.01
6439.00,1.01
6438.00,1.01
6437.00,1.01
6436.00,1.01
6435.00,1.02
6434.00,1.02
6433.00,1.02
6432.00,1.02
6431.00,1.02
6430.00,1.02
6429.00,1.02
6428.00,1.02
6427.00,1.02
6426.00,1.03
6425.00,1.03
6424.00,1.03
6423.00,1.03
6422.00,1.03
6421.00,1.03
6420.00,1.03
6419.00,1.03
6418.00,1.03
6417.00,1.03
6416.00,1.03
6415.00,1.03
6414.00,1.03
6413.00,1.04
6412.00,1.04
6411.00,1.04
6410.00,1.04
6409.00,1.04
6408.00,1.04
6407.00,1.04
6406.00,1.04
6405.00,1.04
6404.00,1.04
6403.00,1.04
6402.00,1.04
6401.00,1.04
6400.00,1.04
6399.00,1.04
6398.00,1.05
6397.00,1.05
6396.00,1.05
6395.00,1.05
6394.00,1.05
6393.00,1.05
6392.00,1.05
6391.00,1.05
6390.00,1.05
6389.00,1.05
6388.00,1.05
6387.00,1.05
6386.00,1.05
6385.00,1.05
6384.00,1.05
6383.00,1.05
6382.00,1.05
6381.00,1.06
6380.00,1.06
6379.00,1.06
6378.00,1.06
6377.00,1.06
6376.00,1.06
6375.00,1.06
6374.00,1.06
6373.00,1.06
6372.00,1.07
6371.00,1.07
6370.00,1.07
6369.00,1.07
6368.00,1.07
6367.00,1.07
6366.00,1.07
6365.00,1.07
6364.00,1.07
6363.00,1.07
6362.00,1.07
6361.00,1.07
6360.00,1.07
6359.00,1.07
6358.00,1.08
6357.00,1.08
6356.00,1.08
6355.00,1.08
6354.00,1.08
6353.00,1.08
6352.00,1.08
6351.00,1.08
6350.00,1.08
6349.00,1.08
6348.00,1.08
6347.00,1.08
6346.00,1.08
6345.00,1.08
6344.00,1.08
6343.00,1.08
6342.00,1.09
6341.00,1.09
6340.00,1.09
6339.00,1.09
6338.00,1.09
6337.00,1.09
6336.00,1.09
6335.00,1.10
6334.00,1.10
6333.00,1.10
6332.00,1.10
6331.00,1.10
6330.00,1.10
6329.00,1.11
6328.00,1.11
6327.00,1.11
6326.00,1.11
6325.00,1.11
6324.00,1.11
6323.00,1.12
6322.00,1.12
6321.00,1.12
6320.00,1.12
6319.00,1.12
6318.00,1.12
6317.00,1.12
6316.00,1.12
6315.00,1.13
6314.00,1.13
6313.00,1.13
6312.00,1.13
6311.00,1.13
6310.00,1.13
6309.00,1.13
6308.00,1.13
6307.00,1.13
6306.00,1.13
6305.00,1.14
6304.00,1.14
6303.00,1.14
6302.00,1.14
6301.00,1.14
6300.00,1.14
6299.00,1.14
6298.00,1.14
6297.00,1.15
6296.00,1.15
6295.00,1.15
6294.00,1.15
6293.00,1.15
6292.00,1.15
6291.00,1.15
6290.00,1.16
6289.00,1.16
6288.00,1.16
6287.00,1.16
6286.00,1.16
6285.00,1.16
6284.00,1.16
6283.00,1.16
6282.00,1.17
6281.00,1.17
6280.00,1.17
6279.00,1.17
6278.00,1.17
6277.00,1.17
6276.00,1.17
6275.00,1.17
6274.00,1.17
6273.00,1.17
6272.00,1.17
6271.00,1.17
6270.00,1.17
6269.00,1.17
6268.00,1.18
6267.00,1.18
6266.00,1.18
6265.00,1.18
6264.00,1.18
6263.00,1.18
6262.00,1.18
6261.00,1.19
6260.00,1.19
6259.00,1.19
6258.00,1.19
6257.00,1.19
6256.00,1.19
6255.00,1.20
6254.00,1.20
6253.00,1.20
6252.00,1.20
6251.00,1.20
6250.00,1.20
6249.00,1.21
6248.00,1.21
6247.00,1.21
6246.00,1.21
6245.00,1.21
6244.00,1.21
6243.00,1.22
6242.00,1.22
6241.00,1.22
6240.00,1.22
6239.00,1.22
6238.00,1.22
6237.00,1.23
6236.00,1.23
6235.00,1.23
6234.00,1.23
6233.00,1.23
6232.00,1.23
6231.00,1.24
6230.00,1.24
6229.00,1.24
6228.00,1.24
6227.00,1.24
6226.00,1.24
6225.00,1.24
6224.00,1.24
6223.00,1.25
6222.00,1.25
6221.00,1.25
6220.00,1.25
6219.00,1.25
6218.00,1.25
6217.00,1.25
6216.00,1.25
6215.00,1.26
6214.00,1.26
6213.00,1.26
6212.00,1.26
6211.00,1.26
6210.00,1.26
6209.00,1.26
6208.00,1.27
6207.00,1.27
6206.00,1.27
6205.00,1.27
6204.00,1.27
6203.00,1.27
6202.00,1.28
6201.00,1.28
6200.00,1.28
6199.00,1.28
6198.00,1.28
6197.00,1.28
6196.00,1.28
6195.00,1.29
6194.00,1.29
6193.00,1.29
6192.00,1.29
6191.00,1.29
6190.00,1.29
6189.00,1.30
6188.00,1.30
6187.00,1.30
6186.00,1.30
6185.00,1.30
6184.00,1.30
6183.00,1.31
6182.00,1.31
6181.00,1.31
6180.00,1.31
6179.00,1.31
6178.00,1.32
6177.00,1.32
6176.00,1.32
6175.00,1.32
6174.00,1.32
6173.00,1.32
6172.00,1.33
6171.00,1.33
6170.00,1.33
6169.00,1.33
6168.00,1.33
6167.00,1.33
6166.00,1.34
6165.00,1.34
6164.00,1.34
6163.00,1.34
6162.00,1.34
6161.00,1.34
6160.00,1.34
6159.00,1.35
6158.00,1.35
6157.00,1.35
6156.00,1.35
6155.00,1.35
6154.00,1.35
6153.00,1.36
6152.00,1.36
6151.00,1.36
6150.00,1.36
6149.00,1.36
6148.00,1.37
6147.00,1.37
6146.00,1.37
6145.00,1.37
6144.00,1.37
6143.00,1.37
6142.00,1.38
6141.00,1.38
6140.00,1.38
6139.00,1.38
6138.00,1.38
6137.00,1.39
6136.00,1.39
6135.00,1.39
6134.00,1.39
6133.00,1.39
6132.00,1.39
6131.00,1.40
6130.00,1.40
6129.00,1.40
6128.00,1.40
6127.00,1.40
6126.00,1.40
6125.00,1.41
6124.00,1.41
6123.00,1.41
6122.00,1.41
6121.00,1.41
6120.00,1.41
6119.00,1.42
6118.00,1.42
6117.00,1.42
6116.00,1.42
6115.00,1.42
6114.00,1.42
6113.00,1.42
6112.00,1.43
6111.00,1.43
6110.00,1.43
6109.00,1.43
6108.00,1.43
6107.00,1.43
6106.00,1.44
6105.00,1.44
6104.00,1.44
6103.00,1.44
6102.00,1.44
6101.00,1.45
6100.00,1.45
6099.00,1.45
6098.00,1.45
6097.00,1.45
6096.00,1.45
6095.00,1.46
6094.00,1.46
6093.00,1.46
6092.00,1.46
6091.00,1.46
6090.00,1.46
6089.00,1.46
6088.00,1.47
6087.00,1.47
6086.00,1.47
6085.00,1.47
6084.00,1.47
6083.00,1.47
6082.00,1.47
6081.00,1.47
6080.00,1.48
6079.00,1.48
6078.00,1.48
6077.00,1.48
6076.00,1.48
6075.00,1.48
6074.00,1.48
6073.00,1.48
6072.00,1.48
6071.00,1.48
6070.00,1.49
6069.00,1.49
6068.00,1.49
6067.00,1.49
6066.00,1.49
6065.00,1.49
6064.00,1.49
6063.00,1.49
6062.00,1.49
6061.00,1.49
6060.00,1.49
6059.00,1.49
6058.00,1.50
6057.00,1.50
6056.00,1.50
6055.00,1.50
6054.00,1.50
6053.00,1.50
6052.00,1.50
6051.00,1.50
6050.00,1.50
6049.00,1.50
6048.00,1.51
6047.00,1.51
6046.00,1.51
6045.00,1.51
6044.00,1.51
6043.00,1.51
6042.00,1.51
6041.00,1.51
6040.00,1.51
6039.00,1.51
6038.00,1.51
6037.00,1.51
6036.00,1.51
6035.00,1.51
6034.00,1.51
6033.00,1.51
6032.00,1.52
6031.00,1.52
6030.00,1.52
6029.00,1.52
6028.00,1.52
6027.00,1.52
6026.00,1.52
6025.00,1.52
6024.00,1.52
6023.00,1.52
6022.00,1.52
6021.00,1.52
6020.00,1.52
6019.00,1.52
6018.00,1.52
6017.00,1.52
6016.00,1.52
6015.00,1.52
6014.00,1.52
6013.00,1.52
6012.00,1.52
6011.00,1.52
6010.00,1.52
6009.00,1.52
6008.00,1.52
6007.00,1.52
6006.00,1.52
6005.00,1.52
6004.00,1.52
6003.00,1.52
6002.00,1.52
6001.00,1.52
6000.00,1.52
5999.00,1.52
5998.00,1.52
5997.00,1.51
5996.00,1.51
5995.00,1.51
5994.00,1.51
5993.00,1.51
5992.00,1.51
5991.00,1.51
5990.00,1.50
5989.00,1.50
5988.00,1.50
5987.00,1.50
5986.00,1.49
5985.00,1.49
5984.00,1.49
5983.00,1.48
5982.00,1.48
5981.00,1.48
5980.00,1.47
5979.00,1.47
5978.00,1.46
5977.00,1.46
5976.00,1.45
5975.00,1.45
5974.00,1.44
5973.00,1.43
5972.00,1.43
5971.00,1.42
5970.00,1.42
5969.00,1.41
5968.00,1.40
5967.00,1.39
5966.00,1.39
5965.00,1.38
5964.00,1.37
5963.00,1.36
5962.00,1.36
5961.00,1.35
5960.00,1.34
5959.00,1.33
5958.00,1.32
5957.00,1.32
5956.00,1.31
5955.00,1.30
5954.00,1.29
5953.00,1.29
5952.00,1.28
5951.00,1.27
5950.00,1.27
5949.00,1.26
5948.00,1.25
5947.00,1.25
5946.00,1.24
5945.00,1.24
5944.00,1.24
5943.00,1.23
5942.00,1.23
5941.00,1.23
5940.00,1.23
5939.00,1.23
5938.00,1.22
5937.00,1.22
5936.00,1.22
5935.00,1.22
5934.00,1.22
5933.00,1.22
5932.00,1.22
5931.00,1.22
5930.00,1.22
5929.00,1.22
5928.00,1.22
5927.00,1.21
5926.00,1.21
5925.00,1.21
5924.00,1.21
5923.00,1.21
5922.00,1.20
5921.00,1.20
5920.00,1.20
5919.00,1.20
5918.00,1.19
5917.00,1.19
5916.00,1.19
5915.00,1.18
5914.00,1.18
5913.00,1.18
5912.00,1.17
5911.00,1.17
5910.00,1.17
5909.00,1.17
5908.00,1.16
5907.00,1.16
5906.00,1.16
5905.00,1.16
5904.00,1.16
5903.00,1.16
5902.00,1.16
5901.00,1.16
5900.00,1.15
5899.00,1.16
5898.00,1.16
5897.00,1.16
5896.00,1.16
5895.00,1.16
5894.00,1.16
5893.00,1.16
5892.00,1.17
5891.00,1.17
5890.00,1.17
5889.00,1.17
5888.00,1.18
5887.00,1.18
5886.00,1.18
5885.00,1.19
5884.00,1.19
5883.00,1.20
5882.00,1.20
5881.00,1.20
5880.00,1.21
5879.00,1.21
5878.00,1.21
5877.00,1.22
5876.00,1.22
5875.00,1.22
5874.00,1.23
5873.00,1.23
5872.00,1.23
5871.00,1.23
5870.00,1.24
5869.00,1.24
5868.00,1.24
5867.00,1.24
5866.00,1.24
5865.00,1.25
5864.00,1.25
5863.00,1.25
5862.00,1.25
5861.00,1.25
5860.00,1.25
5859.00,1.25
5858.00,1.26
5857.00,1.26
5856.00,1.26
5855.00,1.26
5854.00,1.26
5853.00,1.26
5852.00,1.26
5851.00,1.26
5850.00,1.26
5849.00,1.26
5848.00,1.27
5847.00,1.27
5846.00,1.27
5845.00,1.27
5844.00,1.27
5843.00,1.27
5842.00,1.27
5841.00,1.27
5840.00,1.27
5839.00,1.26
5838.00,1.26
5837.00,1.26
5836.00,1.26
5835.00,1.26
5834.00,1.26
5833.00,1.26
5832.00,1.26
5831.00,1.26
5830.00,1.26
5829.00,1.26
5828.00,1.26
5827.00,1.26
5826.00,1.26
5825.00,1.26
5824.00,1.26
5823.00,1.26
5822.00,1.26
5821.00,1.26
5820.00,1.26
5819.00,1.26
5818.00,1.26
5817.00,1.26
5816.00,1.26
5815.00,1.26
5814.00,1.26
5813.00,1.26
5812.00,1.26
5811.00,1.26
5810.00,1.26
5809.00,1.26
5808.00,1.26
5807.00,1.26
5806.00,1.26
5805.00,1.26
5804.00,1.26
5803.00,1.26
5802.00,1.26
5801.00,1.26
5800.00,1.26
5799.00,1.25
5798.00,1.25
5797.00,1.25
5796.00,1.25
5795.00,1.25
5794.00,1.24
5793.00,1.24
5792.00,1.24
5791.00,1.24
5790.00,1.23
5789.00,1.23
5788.00,1.23
5787.00,1.23
5786.00,1.22
5785.00,1.22
5784.00,1.22
5783.00,1.21
5782.00,1.21
5781.00,1.21
5780.00,1.21
5779.00,1.21
5778.00,1.20
5777.00,1.20
5776.00,1.20
5775.00,1.20
5774.00,1.20
5773.00,1.20
5772.00,1.20
5771.00,1.20
5770.00,1.20
5769.00,1.20
5768.00,1.21
5767.00,1.21
5766.00,1.21
5765.00,1.21
5764.00,1.21
5763.00,1.22
5762.00,1.22
5761.00,1.22
5760.00,1.23
5759.00,1.23
5758.00,1.23
5757.00,1.24
5756.00,1.24
5755.00,1.24
5754.00,1.25
5753.00,1.25
5752.00,1.26
5751.00,1.26
5750.00,1.26
5749.00,1.27
5748.00,1.27
5747.00,1.28
5746.00,1.28
5745.00,1.28
5744.00,1.29
5743.00,1.29
5742.00,1.29
5741.00,1.30
5740.00,1.30
5739.00,1.30
5738.00,1.31
5737.00,1.31
5736.00,1.31
5735.00,1.31
5734.00,1.31
5733.00,1.32
5732.00,1.32
5731.00,1.32
5730.00,1.32
5729.00,1.32
5728.00,1.32
5727.00,1.32
5726.00,1.32
5725.00,1.32
5724.00,1.32
5723.00,1.32
5722.00,1.33
5721.00,1.33
5720.00,1.33
5719.00,1.33
5718.00,1.33
5717.00,1.33
5716.00,1.33
5715.00,1.33
5714.00,1.33
5713.00,1.33
5712.00,1.33
5711.00,1.33
5710.00,1.33
5709.00,1.33
5708.00,1.33
5707.00,1.33
5706.00,1.33
5705.00,1.33
5704.00,1.33
5703.00,1.32
5702.00,1.32
5701.00,1.32
5700.00,1.32
5699.00,1.32
5698.00,1.32
5697.00,1.32
5696.00,1.32
5695.00,1.31
5694.00,1.31
5693.00,1.31
5692.00,1.31
5691.00,1.31
5690.00,1.31
5689.00,1.30
5688.00,1.30
5687.00,1.30
5686.00,1.30
5685.00,1.30
5684.00,1.29
5683.00,1.29
5682.00,1.29
5681.00,1.29
5680.00,1.29
5679.00,1.29
5678.00,1.29
5677.00,1.28
5676.00,1.28
5675.00,1.28
5674.00,1.28
5673.00,1.28
5672.00,1.28
5671.00,1.28
5670.00,1.28
5669.00,1.28
5668.00,1.28
5667.00,1.28
5666.00,1.29
5665.00,1.29
5664.00,1.29
5663.00,1.29
5662.00,1.29
5661.00,1.29
5660.00,1.30
5659.00,1.30
5658.00,1.30
5657.00,1.30
5656.00,1.30
5655.00,1.31
5654.00,1.31
5653.00,1.31
5652.00,1.31
5651.00,1.31
5650.00,1.32
5649.00,1.32
5648.00,1.32
5647.00,1.32
5646.00,1.32
5645.00,1.32
5644.00,1.33
5643.00,1.33
5642.00,1.33
5641.00,1.33
5640.00,1.33
5639.00,1.33
5638.00,1.34
5637.00,1.34
5636.00,1.34
5635.00,1.34
5634.00,1.34
5633.00,1.35
5632.00,1.35
5631.00,1.35
5630.00,1.35
5629.00,1.35
5628.00,1.36
5627.00,1.36
5626.00,1.36
5625.00,1.36
5624.00,1.36
5623.00,1.37
5622.00,1.37
5621.00,1.37
5620.00,1.37
5619.00,1.37
5618.00,1.38
5617.00,1.38
5616.00,1.38
5615.00,1.38
5614.00,1.38
5613.00,1.38
5612.00,1.39
5611.00,1.39
5610.00,1.39
5609.00,1.39
5608.00,1.39
5607.00,1.39
5606.00,1.40
5605.00,1.40
5604.00,1.40
5603.00,1.40
5602.00,1.40
5601.00,1.40
5600.00,1.41
5599.00,1.41
5598.00,1.41
5597.00,1.41
5596.00,1.41
5595.00,1.42
5594.00,1.42
5593.00,1.42
5592.00,1.42
5591.00,1.42
5590.00,1.43
5589.00,1.43
5588.00,1.43
5587.00,1.43
5586.00,1.43
5585.00,1.43
5584.00,1.44
5583.00,1.44
5582.00,1.44
5581.00,1.44
5580.00,1.44
5579.00,1.44
5578.00,1.44
5577.00,1.45
5576.00,1.45
5575.00,1.45
5574.00,1.45
5573.00,1.45
5572.00,1.45
5571.00,1.46
5570.00,1.46
5569.00,1.46
5568.00,1.46
5567.00,1.46
5566.00,1.46
5565.00,1.46
5564.00,1.47
5563.00,1.47
5562.00,1.47
5561.00,1.47
5560.00,1.47
5559.00,1.47
5558.00,1.47
5557.00,1.48
5556.00,1.48
5555.00,1.48
5554.00,1.48
5553.00,1.48
5552.00,1.48
5551.00,1.48
5550.00,1.49
5549.00,1.49
5548.00,1.49
5547.00,1.49
5546.00,1.49
5545.00,1.49
5544.00,1.49
5543.00,1.49
5542.00,1.50
5541.00,1.50
5540.00,1.50
5539.00,1.50
5538.00,1.50
5537.00,1.50
5536.00,1.50
5535.00,1.51
5534.00,1.51
5533.00,1.51
5532.00,1.51
5531.00,1.51
5530.00,1.51
5529.00,1.51
5528.00,1.51
5527.00,1.51
5526.00,1.51
5525.00,1.51
5524.00,1.52
5523.00,1.52
5522.00,1.52
5521.00,1.52
5520.00,1.52
5519.00,1.52
5518.00,1.52
5517.00,1.52
5516.00,1.52
5515.00,1.52
5514.00,1.52
5513.00,1.52
5512.00,1.52
5511.00,1.52
5510.00,1.52
5509.00,1.53
5508.00,1.53
5507.00,1.53
5506.00,1.53
5505.00,1.53
5504.00,1.53
5503.00,1.53
5502.00,1.53
5501.00,1.53
5500.00,1.53
5499.00,1.53
5498.00,1.53
5497.00,1.53
5496.00,1.53
5495.00,1.53
5494.00,1.53
5493.00,1.53
5492.00,1.53
5491.00,1.53
5490.00,1.54
5489.00,1.54
5488.00,1.54
5487.00,1.54
5486.00,1.54
5485.00,1.54
5484.00,1.54
5483.00,1.54
5482.00,1.55
5481.00,1.55
5480.00,1.55
5479.00,1.55
5478.00,1.55
5477.00,1.55
5476.00,1.55
5475.00,1.56
5474.00,1.56
5473.00,1.56
5472.00,1.56
5471.00,1.56
5470.00,1.56
5469.00,1.56
5468.00,1.56
5467.00,1.56
5466.00,1.57
5465.00,1.57
5464.00,1.57
5463.00,1.57
5462.00,1.57
5461.00,1.57
5460.00,1.57
5459.00,1.57
5458.00,1.58
5457.00,1.58
5456.00,1.58
5455.00,1.58
5454.00,1.58
5453.00,1.58
5452.00,1.58
5451.00,1.58
5450.00,1.58
5449.00,1.58
5448.00,1.58
5447.00,1.58
5446.00,1.58
5445.00,1.58
5444.00,1.58
5443.00,1.58
5442.00,1.58
5441.00,1.58
5440.00,1.58
5439.00,1.58
5438.00,1.58
5437.00,1.58
5436.00,1.58
5435.00,1.58
5434.00,1.58
5433.00,1.58
5432.00,1.59
5431.00,1.59
5430.00,1.59
5429.00,1.59
5428.00,1.59
5427.00,1.59
5426.00,1.59
5425.00,1.59
5424.00,1.59
5423.00,1.59
5422.00,1.59
5421.00,1.59
5420.00,1.59
5419.00,1.59
5418.00,1.59
5417.00,1.59
5416.00,1.59
5415.00,1.59
5414.00,1.59
5413.00,1.59
5412.00,1.59
5411.00,1.59
5410.00,1.59
5409.00,1.59
5408.00,1.59
5407.00,1.59
5406.00,1.59
5405.00,1.59
5404.00,1.59
5403.00,1.59
5402.00,1.59
5401.00,1.59
5400.00,1.59
5399.00,1.59
5398.00,1.59
5397.00,1.59
5396.00,1.58
5395.00,1.58
5394.00,1.58
5393.00,1.58
5392.00,1.58
5391.00,1.58
5390.00,1.57
5389.00,1.57
5388.00,1.57
5387.00,1.57
5386.00,1.57
5385.00,1.56
5384.00,1.56
5383.00,1.56
5382.00,1.56
5381.00,1.55
5380.00,1.55
5379.00,1.55
5378.00,1.54
5377.00,1.54
5376.00,1.53
5375.00,1.53
5374.00,1.53
5373.00,1.52
5372.00,1.52
5371.00,1.51
5370.00,1.51
5369.00,1.50
5368.00,1.50
5367.00,1.49
5366.00,1.48
5365.00,1.48
5364.00,1.47
5363.00,1.46
5362.00,1.46
5361.00,1.45
5360.00,1.44
5359.00,1.43
5358.00,1.42
5357.00,1.42
5356.00,1.41
5355.00,1.40
5354.00,1.39
5353.00,1.38
5352.00,1.37
5351.00,1.36
5350.00,1.35
5349.00,1.34
5348.00,1.32
5347.00,1.31
5346.00,1.30
5345.00,1.29
5344.00,1.28
5343.00,1.27
5342.00,1.26
5341.00,1.25
5340.00,1.23
5339.00,1.22
5338.00,1.21
5337.00,1.20
5336.00,1.19
5335.00,1.17
5334.00,1.16
5333.00,1.15
5332.00,1.14
5331.00,1.13
5330.00,1.11
5329.00,1.10
5328.00,1.09
5327.00,1.08
5326.00,1.07
5325.00,1.05
5324.00,1.04
5323.00,1.03
5322.00,1.02
5321.00,1.01
5320.00,0.99
5319.00,0.98
5318.00,0.97
5317.00,0.96
5316.00,0.95
5315.00,0.94
5314.00,0.93
5313.00,0.91
5312.00,0.90
5311.00,0.89
5310.00,0.88
5309.00,0.87
5308.00,0.86
5307.00,0.85
5306.00,0.85
5305.00,0.84
5304.00,0.83
5303.00,0.82
5302.00,0.81
5301.00,0.81
5300.00,0.80
5299.00,0.79
5298.00,0.79
5297.00,0.78
5296.00,0.78
5295.00,0.77
5294.00,0.77
5293.00,0.76
5292.00,0.76
5291.00,0.75
5290.00,0.75
5289.00,0.75
5288.00,0.74
5287.00,0.74
5286.00,0.74
5285.00,0.74
5284.00,0.73
5283.00,0.73
5282.00,0.73
5281.00,0.73
5280.00,0.72
5279.00,0.72
5278.00,0.72
5277.00,0.72
5276.00,0.72
5275.00,0.72
5274.00,0.72
5273.00,0.71
5272.00,0.71
5271.00,0.71
5270.00,0.71
5269.00,0.71
5268.00,0.71
5267.00,0.71
5266.00,0.71
5265.00,0.70
5264.00,0.70
5263.00,0.70
5262.00,0.70
5261.00,0.70
5260.00,0.70
5259.00,0.70
5258.00,0.70
5257.00,0.70
5256.00,0.69
5255.00,0.69
5254.00,0.69
5253.00,0.69
5252.00,0.69
5251.00,0.69
5250.00,0.69
5249.00,0.69
5248.00,0.69
5247.00,0.69
5246.00,0.69
5245.00,0.69
5244.00,0.69
5243.00,0.69
5242.00,0.69
5241.00,0.70
5240.00,0.70
5239.00,0.70
5238.00,0.70
5237.00,0.70
5236.00,0.70
5235.00,0.70
5234.00,0.70
5233.00,0.70
5232.00,0.69
5231.00,0.69
5230.00,0.69
5229.00,0.69
5228.00,0.69
5227.00,0.69
5226.00,0.69
5225.00,0.69
5224.00,0.69
5223.00,0.69
5222.00,0.70
5221.00,0.70
5220.00,0.70
5219.00,0.70
5218.00,0.70
5217.00,0.70
5216.00,0.70
5215.00,0.70
5214.00,0.70
5213.00,0.70
5212.00,0.70
5211.00,0.70
5210.00,0.70
5209.00,0.70
5208.00,0.70
5207.00,0.70
5206.00,0.70
5205.00,0.70
5204.00,0.70
5203.00,0.70
5202.00,0.70
5201.00,0.70
5200.00,0.71
5199.00,0.71
5198.00,0.71
5197.00,0.71
5196.00,0.71
5195.00,0.71
5194.00,0.71
5193.00,0.71
5192.00,0.71
5191.00,0.71
5190.00,0.71
5189.00,0.71
5188.00,0.71
5187.00,0.72
5186.00,0.72
5185.00,0.72
5184.00,0.72
5183.00,0.72
5182.00,0.72
5181.00,0.72
5180.00,0.72
5179.00,0.72
5178.00,0.72
5177.00,0.72
5176.00,0.72
5175.00,0.72
5174.00,0.72
5173.00,0.72
5172.00,0.72
5171.00,0.72
5170.00,0.72
5169.00,0.72
5168.00,0.72
5167.00,0.73
5166.00,0.73
5165.00,0.73
5164.00,0.73
5163.00,0.73
5162.00,0.73
5161.00,0.73
5160.00,0.73
5159.00,0.73
5158.00,0.73
5157.00,0.73
5156.00,0.73
5155.00,0.73
5154.00,0.73
5153.00,0.73
5152.00,0.73
5151.00,0.73
5150.00,0.73
5149.00,0.73
5148.00,0.73
5147.00,0.73
5146.00,0.73
5145.00,0.73
5144.00,0.73
5143.00,0.73
5142.00,0.74
5141.00,0.74
5140.00,0.74
5139.00,0.74
5138.00,0.74
5137.00,0.74
5136.00,0.74
5135.00,0.74
5134.00,0.74
5133.00,0.74
5132.00,0.74
5131.00,0.74
5130.00,0.75
5129.00,0.75
5128.00,0.75
5127.00,0.75
5126.00,0.75
5125.00,0.75
5124.00,0.75
5123.00,0.75
5122.00,0.75
5121.00,0.75
5120.00,0.75
5119.00,0.75
5118.00,0.75
5117.00,0.75
5116.00,0.75
5115.00,0.75
5114.00,0.75
5113.00,0.75
5112.00,0.75
5111.00,0.75
5110.00,0.75
5109.00,0.75
5108.00,0.76
5107.00,0.76
5106.00,0.76
5105.00,0.76
5104.00,0.76
5103.00,0.76
5102.00,0.76
5101.00,0.76
5100.00,0.76
5099.00,0.76
5098.00,0.76
5097.00,0.76
5096.00,0.76
5095.00,0.76
5094.00,0.76
5093.00,0.76
5092.00,0.77
5091.00,0.77
5090.00,0.77
5089.00,0.77
5088.00,0.77
5087.00,0.77
5086.00,0.77
5085.00,0.77
5084.00,0.77
5083.00,0.77
5082.00,0.77
5081.00,0.78
5080.00,0.78
5079.00,0.78
5078.00,0.78
5077.00,0.78
5076.00,0.78
5075.00,0.78
5074.00,0.78
5073.00,0.78
5072.00,0.78
5071.00,0.79
5070.00,0.79
5069.00,0.79
5068.00,0.79
5067.00,0.79
5066.00,0.79
5065.00,0.79
5064.00,0.79
5063.00,0.79
5062.00,0.79
5061.00,0.80
5060.00,0.80
5059.00,0.80
5058.00,0.80
5057.00,0.80
5056.00,0.80
5055.00,0.80
5054.00,0.80
5053.00,0.80
5052.00,0.80
5051.00,0.81
5050.00,0.81
5049.00,0.81
5048.00,0.81
5047.00,0.81
5046.00,0.81
5045.00,0.81
5044.00,0.81
5043.00,0.81
5042.00,0.81
5041.00,0.81
5040.00,0.81
5039.00,0.82
5038.00,0.82
5037.00,0.82
5036.00,0.82
5035.00,0.82
5034.00,0.82
5033.00,0.82
5032.00,0.82
5031.00,0.82
5030.00,0.82
5029.00,0.82
5028.00,0.82
5027.00,0.82
5026.00,0.82
5025.00,0.82
5024.00,0.83
5023.00,0.83
5022.00,0.83
5021.00,0.83
5020.00,0.83
5019.00,0.83
5018.00,0.83
5017.00,0.84
5016.00,0.84
5015.00,0.84
5014.00,0.84
5013.00,0.84
5012.00,0.84
5011.00,0.85
5010.00,0.85
5009.00,0.85
5008.00,0.85
5007.00,0.85
5006.00,0.85
5005.00,0.85
5004.00,0.85
5003.00,0.85
5002.00,0.86
5001.00,0.86
5000.00,0.86
4999.00,0.86
4998.00,0.86
4997.00,0.86
4996.00,0.86
4995.00,0.86
4994.00,0.86
4993.00,0.86
4992.00,0.86
4991.00,0.87
4990.00,0.87
4989.00,0.87
4988.00,0.87
4987.00,0.87
4986.00,0.87
4985.00,0.87
4984.00,0.88
4983.00,0.88
4982.00,0.88
4981.00,0.88
4980.00,0.88
4979.00,0.88
4978.00,0.88
4977.00,0.89
4976.00,0.89
4975.00,0.89
4974.00,0.89
4973.00,0.89
4972.00,0.89
4971.00,0.90
4970.00,0.90
4969.00,0.90
4968.00,0.90
4967.00,0.90
4966.00,0.90
4965.00,0.90
4964.00,0.91
4963.00,0.91
4962.00,0.91
4961.00,0.91
4960.00,0.91
4959.00,0.91
4958.00,0.91
4957.00,0.91
4956.00,0.92
4955.00,0.92
4954.00,0.92
4953.00,0.92
4952.00,0.92
4951.00,0.92
4950.00,0.92
4949.00,0.92
4948.00,0.92
4947.00,0.92
4946.00,0.92
4945.00,0.92
4944.00,0.93
4943.00,0.93
4942.00,0.93
4941.00,0.93
4940.00,0.93
4939.00,0.93
4938.00,0.93
4937.00,0.93
4936.00,0.93
4935.00,0.93
4934.00,0.93
4933.00,0.93
4932.00,0.94
4931.00,0.94
4930.00,0.94
4929.00,0.94
4928.00,0.94
4927.00,0.94
4926.00,0.94
4925.00,0.94
4924.00,0.94
4923.00,0.94
4922.00,0.95
4921.00,0.95
4920.00,0.95
4919.00,0.95
4918.00,0.95
4917.00,0.95
4916.00,0.95
4915.00,0.95
4914.00,0.95
4913.00,0.95
4912.00,0.96
4911.00,0.96
4910.00,0.96
4909.00,0.96
4908.00,0.96
4907.00,0.96
4906.00,0.96
4905.00,0.96
4904.00,0.96
4903.00,0.96
4902.00,0.96
4901.00,0.97
4900.00,0.97
4899.00,0.97
4898.00,0.97
4897.00,0.97
4896.00,0.97
4895.00,0.97
4894.00,0.97
4893.00,0.97
4892.00,0.98
4891.00,0.98
4890.00,0.98
4889.00,0.98
4888.00,0.98
4887.00,0.98
4886.00,0.98
4885.00,0.98
4884.00,0.98
4883.00,0.98
4882.00,0.98
4881.00,0.98
4880.00,0.98
4879.00,0.98
4878.00,0.98
4877.00,0.98
4876.00,0.98
4875.00,0.99
4874.00,0.99
4873.00,0.99
4872.00,0.99
4871.00,0.99
4870.00,0.99
4869.00,0.99
4868.00,0.99
4867.00,0.99
4866.00,0.99
4865.00,0.99
4864.00,0.99
4863.00,0.99
4862.00,0.99
4861.00,0.99
4860.00,1.00
4859.00,1.00
4858.00,1.00
4857.00,1.00
4856.00,1.00
4855.00,1.00
4854.00,1.00
4853.00,1.00
4852.00,1.00
4851.00,1.01
4850.00,1.01
4849.00,1.01
4848.00,1.01
4847.00,1.01
4846.00,1.01
4845.00,1.01
4844.00,1.01
4843.00,1.01
4842.00,1.01
4841.00,1.02
4840.00,1.02
4839.00,1.02
4838.00,1.02
4837.00,1.02
4836.00,1.02
4835.00,1.02
4834.00,1.02
4833.00,1.02
4832.00,1.02
4831.00,1.02
4830.00,1.03
4829.00,1.03
4828.00,1.03
4827.00,1.03
4826.00,1.03
4825.00,1.03
4824.00,1.03
4823.00,1.03
4822.00,1.04
4821.00,1.04
4820.00,1.04
4819.00,1.04
4818.00,1.04
4817.00,1.04
4816.00,1.04
4815.00,1.05
4814.00,1.05
4813.00,1.05
4812.00,1.05
4811.00,1.05
4810.00,1.05
4809.00,1.05
4808.00,1.05
4807.00,1.05
4806.00,1.06
4805.00,1.06
4804.00,1.06
4803.00,1.06
4802.00,1.06
4801.00,1.06
4800.00,1.06
4799.00,1.06
4798.00,1.06
4797.00,1.06
4796.00,1.06
4795.00,1.06
4794.00,1.07
4793.00,1.07
4792.00,1.07
4791.00,1.07
4790.00,1.07
4789.00,1.07
4788.00,1.08
4787.00,1.08
4786.00,1.08
4785.00,1.08
4784.00,1.09
4783.00,1.09
4782.00,1.09
4781.00,1.09
4780.00,1.09
4779.00,1.10
4778.00,1.10
4777.00,1.10
4776.00,1.10
4775.00,1.11
4774.00,1.11
4773.00,1.11
4772.00,1.11
4771.00,1.11
4770.00,1.12
4769.00,1.12
4768.00,1.12
4767.00,1.12
4766.00,1.12
4765.00,1.12
4764.00,1.13
4763.00,1.13
4762.00,1.13
4761.00,1.13
4760.00,1.13
4759.00,1.13
4758.00,1.14
4757.00,1.14
4756.00,1.14
4755.00,1.14
4754.00,1.14
4753.00,1.14
4752.00,1.15
4751.00,1.15
4750.00,1.15
4749.00,1.15
4748.00,1.15
4747.00,1.15
4746.00,1.16
4745.00,1.16
4744.00,1.16
4743.00,1.16
4742.00,1.17
4741.00,1.17
4740.00,1.17
4739.00,1.17
4738.00,1.17
4737.00,1.18
4736.00,1.18
4735.00,1.18
4734.00,1.18
4733.00,1.19
4732.00,1.19
4731.00,1.19
4730.00,1.19
4729.00,1.19
4728.00,1.20
4727.00,1.20
4726.00,1.20
4725.00,1.20
4724.00,1.20
4723.00,1.21
4722.00,1.21
4721.00,1.21
4720.00,1.21
4719.00,1.22
4718.00,1.22
4717.00,1.22
4716.00,1.22
4715.00,1.23
4714.00,1.23
4713.00,1.23
4712.00,1.23
4711.00,1.24
4710.00,1.24
4709.00,1.24
4708.00,1.24
4707.00,1.25
4706.00,1.25
4705.00,1.25
4704.00,1.25
4703.00,1.26
4702.00,1.26
4701.00,1.26
4700.00,1.26
4699.00,1.26
4698.00,1.27
4697.00,1.27
4696.00,1.27
4695.00,1.27
4694.00,1.27
4693.00,1.28
4692.00,1.28
4691.00,1.28
4690.00,1.28
4689.00,1.28
4688.00,1.28
4687.00,1.29
4686.00,1.29
4685.00,1.29
4684.00,1.29
4683.00,1.30
4682.00,1.30
4681.00,1.30
4680.00,1.30
4679.00,1.30
4678.00,1.31
4677.00,1.31
4676.00,1.31
4675.00,1.31
4674.00,1.31
4673.00,1.32
4672.00,1.32
4671.00,1.32
4670.00,1.32
4669.00,1.32
4668.00,1.33
4667.00,1.33
4666.00,1.33
4665.00,1.33
4664.00,1.33
4663.00,1.34
4662.00,1.34
4661.00,1.34
4660.00,1.34
4659.00,1.34
4658.00,1.34
4657.00,1.35
4656.00,1.35
4655.00,1.35
4654.00,1.35
4653.00,1.35
4652.00,1.36
4651.00,1.36
4650.00,1.36
4649.00,1.36
4648.00,1.36
4647.00,1.36
4646.00,1.36
4645.00,1.37
4644.00,1.37
4643.00,1.37
4642.00,1.37
4641.00,1.37
4640.00,1.37
4639.00,1.37
4638.00,1.38
4637.00,1.38
4636.00,1.38
4635.00,1.38
4634.00,1.38
4633.00,1.38
4632.00,1.38
4631.00,1.38
4630.00,1.39
4629.00,1.39
4628.00,1.39
4627.00,1.39
4626.00,1.39
4625.00,1.39
4624.00,1.39
4623.00,1.40
4622.00,1.40
4621.00,1.40
4620.00,1.40
4619.00,1.40
4618.00,1.40
4617.00,1.40
4616.00,1.40
4615.00,1.41
4614.00,1.41
4613.00,1.41
4612.00,1.41
4611.00,1.41
4610.00,1.42
4609.00,1.42
4608.00,1.42
4607.00,1.42
4606.00,1.42
4605.00,1.42
4604.00,1.43
4603.00,1.43
4602.00,1.43
4601.00,1.43
4600.00,1.43
4599.00,1.43
4598.00,1.43
4597.00,1.43
4596.00,1.44
4595.00,1.44
4594.00,1.44
4593.00,1.44
4592.00,1.44
4591.00,1.44
4590.00,1.44
4589.00,1.45
4588.00,1.45
4587.00,1.45
4586.00,1.45
4585.00,1.45
4584.00,1.45
4583.00,1.45
4582.00,1.46
4581.00,1.46
4580.00,1.46
4579.00,1.46
4578.00,1.46
4577.00,1.46
4576.00,1.46
4575.00,1.46
4574.00,1.47
4573.00,1.47
4572.00,1.47
4571.00,1.47
4570.00,1.47
4569.00,1.47
4568.00,1.47
4567.00,1.48
4566.00,1.48
4565.00,1.48
4564.00,1.48
4563.00,1.48
4562.00,1.48
4561.00,1.48
4560.00,1.48
4559.00,1.49
4558.00,1.49
4557.00,1.49
4556.00,1.49
4555.00,1.49
4554.00,1.49
4553.00,1.49
4552.00,1.49
4551.00,1.49
4550.00,1.50
4549.00,1.50
4548.00,1.50
4547.00,1.50
4546.00,1.50
4545.00,1.50
4544.00,1.50
4543.00,1.50
4542.00,1.50
4541.00,1.50
4540.00,1.50
4539.00,1.50
4538.00,1.50
4537.00,1.50
4536.00,1.50
4535.00,1.50
4534.00,1.51
4533.00,1.51
4532.00,1.51
4531.00,1.51
4530.00,1.51
4529.00,1.51
4528.00,1.51
4527.00,1.51
4526.00,1.51
4525.00,1.51
4524.00,1.52
4523.00,1.52
4522.00,1.52
4521.00,1.52
4520.00,1.52
4519.00,1.52
4518.00,1.52
4517.00,1.52
4516.00,1.52
4515.00,1.52
4514.00,1.52
4513.00,1.52
4512.00,1.52
4511.00,1.52
4510.00,1.52
4509.00,1.52
4508.00,1.52
4507.00,1.52
4506.00,1.52
4505.00,1.52
4504.00,1.52
4503.00,1.52
4502.00,1.52
4501.00,1.51
4500.00,1.51
4499.00,1.51
4498.00,1.51
4497.00,1.51
4496.00,1.51
4495.00,1.51
4494.00,1.51
4493.00,1.51
4492.00,1.51
4491.00,1.51
4490.00,1.51
4489.00,1.51
4488.00,1.50
4487.00,1.50
4486.00,1.50
4485.00,1.50
4484.00,1.50
4483.00,1.50
4482.00,1.49
4481.00,1.49
4480.00,1.49
4479.00,1.49
4478.00,1.49
4477.00,1.48
4476.00,1.48
4475.00,1.48
4474.00,1.47
4473.00,1.47
4472.00,1.47
4471.00,1.46
4470.00,1.46
4469.00,1.46
4468.00,1.45
4467.00,1.45
4466.00,1.45
4465.00,1.44
4464.00,1.44
4463.00,1.44
4462.00,1.43
4461.00,1.43
4460.00,1.42
4459.00,1.42
4458.00,1.41
4457.00,1.41
4456.00,1.40
4455.00,1.40
4454.00,1.39
4453.00,1.39
4452.00,1.38
4451.00,1.37
4450.00,1.37
4449.00,1.36
4448.00,1.36
4447.00,1.35
4446.00,1.34
4445.00,1.34
4444.00,1.33
4443.00,1.33
4442.00,1.32
4441.00,1.32
4440.00,1.31
4439.00,1.30
4438.00,1.30
4437.00,1.29
4436.00,1.29
4435.00,1.28
4434.00,1.27
4433.00,1.27
4432.00,1.26
4431.00,1.26
4430.00,1.25
4429.00,1.25
4428.00,1.24
4427.00,1.24
4426.00,1.24
4425.00,1.23
4424.00,1.23
4423.00,1.23
4422.00,1.22
4421.00,1.22
4420.00,1.22
4419.00,1.22
4418.00,1.22
4417.00,1.22
4416.00,1.22
4415.00,1.22
4414.00,1.22
4413.00,1.22
4412.00,1.22
4411.00,1.22
4410.00,1.22
4409.00,1.22
4408.00,1.22
4407.00,1.22
4406.00,1.22
4405.00,1.23
4404.00,1.23
4403.00,1.23
4402.00,1.23
4401.00,1.23
4400.00,1.23
4399.00,1.23
4398.00,1.23
4397.00,1.23
4396.00,1.24
4395.00,1.24
4394.00,1.24
4393.00,1.24
4392.00,1.24
4391.00,1.25
4390.00,1.25
4389.00,1.25
4388.00,1.25
4387.00,1.26
4386.00,1.26
4385.00,1.26
4384.00,1.26
4383.00,1.27
4382.00,1.27
4381.00,1.27
4380.00,1.27
4379.00,1.28
4378.00,1.28
4377.00,1.28
4376.00,1.28
4375.00,1.28
4374.00,1.28
4373.00,1.29
4372.00,1.29
4371.00,1.29
4370.00,1.29
4369.00,1.29
4368.00,1.29
4367.00,1.29
4366.00,1.29
4365.00,1.28
4364.00,1.28
4363.00,1.28
4362.00,1.28
4361.00,1.28
4360.00,1.28
4359.00,1.28
4358.00,1.28
4357.00,1.28
4356.00,1.28
4355.00,1.28
4354.00,1.28
4353.00,1.28
4352.00,1.27
4351.00,1.27
4350.00,1.27
4349.00,1.27
4348.00,1.27
4347.00,1.27
4346.00,1.27
4345.00,1.27
4344.00,1.27
4343.00,1.27
4342.00,1.27
4341.00,1.27
4340.00,1.27
4339.00,1.27
4338.00,1.27
4337.00,1.27
4336.00,1.27
4335.00,1.27
4334.00,1.27
4333.00,1.28
4332.00,1.28
4331.00,1.28
4330.00,1.28
4329.00,1.28
4328.00,1.28
4327.00,1.28
4326.00,1.29
4325.00,1.29
4324.00,1.29
4323.00,1.29
4322.00,1.30
4321.00,1.30
4320.00,1.30
4319.00,1.30
4318.00,1.31
4317.00,1.31
4316.00,1.31
4315.00,1.32
4314.00,1.32
4313.00,1.32
4312.00,1.33
4311.00,1.33
4310.00,1.33
4309.00,1.34
4308.00,1.34
4307.00,1.34
4306.00,1.35
4305.00,1.35
4304.00,1.35
4303.00,1.36
4302.00,1.36
4301.00,1.36
4300.00,1.37
4299.00,1.37
4298.00,1.37
4297.00,1.38
4296.00,1.38
4295.00,1.38
4294.00,1.38
4293.00,1.39
4292.00,1.39
4291.00,1.39
4290.00,1.39
4289.00,1.39
4288.00,1.40
4287.00,1.40
4286.00,1.40
4285.00,1.40
4284.00,1.40
4283.00,1.40
4282.00,1.40
4281.00,1.40
4280.00,1.40
4279.00,1.40
4278.00,1.40
4277.00,1.40
4276.00,1.40
4275.00,1.40
4274.00,1.40
4273.00,1.39
4272.00,1.39
4271.00,1.39
4270.00,1.39
4269.00,1.39
4268.00,1.38
4267.00,1.38
4266.00,1.38
4265.00,1.38
4264.00,1.38
4263.00,1.38
4262.00,1.38
4261.00,1.38
4260.00,1.37
4259.00,1.37
4258.00,1.37
4257.00,1.37
4256.00,1.37
4255.00,1.38
4254.00,1.38
4253.00,1.38
4252.00,1.38
4251.00,1.38
4250.00,1.38
4249.00,1.38
4248.00,1.39
4247.00,1.39
4246.00,1.39
4245.00,1.39
4244.00,1.39
4243.00,1.40
4242.00,1.40
4241.00,1.40
4240.00,1.40
4239.00,1.41
4238.00,1.41
4237.00,1.41
4236.00,1.41
4235.00,1.41
4234.00,1.42
4233.00,1.42
4232.00,1.42
4231.00,1.42
4230.00,1.42
4229.00,1.42
4228.00,1.43
4227.00,1.43
4226.00,1.43
4225.00,1.43
4224.00,1.43
4223.00,1.43
4222.00,1.44
4221.00,1.44
4220.00,1.44
4219.00,1.44
4218.00,1.44
4217.00,1.44
4216.00,1.44
4215.00,1.45
4214.00,1.45
4213.00,1.45
4212.00,1.45
4211.00,1.45
4210.00,1.45
4209.00,1.45
4208.00,1.45
4207.00,1.45
4206.00,1.45
4205.00,1.45
4204.00,1.45
4203.00,1.45
4202.00,1.45
4201.00,1.45
4200.00,1.45
4199.00,1.45
4198.00,1.45
4197.00,1.45
4196.00,1.45
4195.00,1.45
4194.00,1.45
4193.00,1.45
4192.00,1.45
4191.00,1.45
4190.00,1.45
4189.00,1.45
4188.00,1.45
4187.00,1.45
4186.00,1.45
4185.00,1.45
4184.00,1.45
4183.00,1.45
4182.00,1.45
4181.00,1.45
4180.00,1.45
4179.00,1.45
4178.00,1.46
4177.00,1.46
4176.00,1.46
4175.00,1.46
4174.00,1.46
4173.00,1.46
4172.00,1.46
4171.00,1.46
4170.00,1.46
4169.00,1.46
4168.00,1.47
4167.00,1.47
4166.00,1.47
4165.00,1.47
4164.00,1.47
4163.00,1.47
4162.00,1.47
4161.00,1.47
4160.00,1.47
4159.00,1.47
4158.00,1.47
4157.00,1.46
4156.00,1.46
4155.00,1.46
4154.00,1.46
4153.00,1.46
4152.00,1.46
4151.00,1.46
4150.00,1.46
4149.00,1.46
4148.00,1.46
4147.00,1.46
4146.00,1.46
4145.00,1.46
4144.00,1.46
4143.00,1.46
4142.00,1.46
4141.00,1.46
4140.00,1.46
4139.00,1.46
4138.00,1.46
4137.00,1.46
4136.00,1.46
4135.00,1.47
4134.00,1.47
4133.00,1.47
4132.00,1.47
4131.00,1.47
4130.00,1.47
4129.00,1.47
4128.00,1.48
4127.00,1.48
4126.00,1.48
4125.00,1.48
4124.00,1.48
4123.00,1.48
4122.00,1.48
4121.00,1.48
4120.00,1.48
4119.00,1.48
4118.00,1.48
4117.00,1.48
4116.00,1.48
4115.00,1.48
4114.00,1.48
4113.00,1.48
4112.00,1.48
4111.00,1.48
4110.00,1.48
4109.00,1.48
4108.00,1.48
4107.00,1.48
4106.00,1.48
4105.00,1.48
4104.00,1.48
4103.00,1.48
4102.00,1.48
4101.00,1.48
4100.00,1.49
4099.00,1.49
4098.00,1.49
4097.00,1.49
4096.00,1.49
4095.00,1.49
4094.00,1.49
4093.00,1.49
4092.00,1.49
4091.00,1.49
4090.00,1.49
4089.00,1.49
4088.00,1.49
4087.00,1.49
4086.00,1.49
4085.00,1.49
4084.00,1.49
4083.00,1.49
4082.00,1.49
4081.00,1.49
4080.00,1.49
4079.00,1.49
4078.00,1.49
4077.00,1.49
4076.00,1.49
4075.00,1.49
4074.00,1.50
4073.00,1.50
4072.00,1.50
4071.00,1.50
4070.00,1.50
4069.00,1.50
4068.00,1.50
4067.00,1.50
4066.00,1.50
4065.00,1.50
4064.00,1.50
4063.00,1.50
4062.00,1.50
4061.00,1.50
4060.00,1.50
4059.00,1.50
4058.00,1.50
4057.00,1.50
4056.00,1.51
4055.00,1.51
4054.00,1.51
4053.00,1.51
4052.00,1.51
4051.00,1.51
4050.00,1.52
4049.00,1.52
4048.00,1.52
4047.00,1.52
4046.00,1.52
4045.00,1.53
4044.00,1.53
4043.00,1.53
4042.00,1.53
4041.00,1.53
4040.00,1.53
4039.00,1.53
4038.00,1.54
4037.00,1.54
4036.00,1.54
4035.00,1.54
4034.00,1.54
4033.00,1.54
4032.00,1.54
4031.00,1.54
4030.00,1.54
4029.00,1.55
4028.00,1.55
4027.00,1.55
4026.00,1.55
4025.00,1.55
4024.00,1.55
4023.00,1.55
4022.00,1.55
4021.00,1.55
4020.00,1.56
4019.00,1.56
4018.00,1.56
4017.00,1.56
4016.00,1.56
4015.00,1.56
4014.00,1.56
4013.00,1.56
4012.00,1.56
4011.00,1.57
4010.00,1.57
4009.00,1.57
4008.00,1.57
4007.00,1.57
4006.00,1.58
4005.00,1.58
4004.00,1.58
4003.00,1.58
4002.00,1.59
4001.00,1.59
4000.00,1.59
