创建为新数据集,样品 578 用户 Administrator 日期 星期一, 七月 16 2018
cm-1,%T
10000.00,1.14
9999.00,1.14
9998.00,1.14
9997.00,1.14
9996.00,1.14
9995.00,1.14
9994.00,1.14
9993.00,1.14
9992.00,1.14
9991.00,1.14
9990.00,1.14
9989.00,1.14
9988.00,1.14
9987.00,1.14
9986.00,1.14
9985.00,1.14
9984.00,1.14
9983.00,1.14
9982.00,1.14
9981.00,1.14
9980.00,1.14
9979.00,1.14
9978.00,1.14
9977.00,1.14
9976.00,1.13
9975.00,1.13
9974.00,1.13
9973.00,1.13
9972.00,1.13
9971.00,1.13
9970.00,1.12
9969.00,1.12
9968.00,1.12
9967.00,1.12
9966.00,1.12
9965.00,1.12
9964.00,1.12
9963.00,1.12
9962.00,1.12
9961.00,1.12
9960.00,1.12
9959.00,1.12
9958.00,1.12
9957.00,1.12
9956.00,1.12
9955.00,1.12
9954.00,1.12
9953.00,1.11
9952.00,1.11
9951.00,1.11
9950.00,1.11
9949.00,1.11
9948.00,1.11
9947.00,1.11
9946.00,1.11
9945.00,1.11
9944.00,1.11
9943.00,1.11
9942.00,1.11
9941.00,1.11
9940.00,1.11
9939.00,1.11
9938.00,1.11
9937.00,1.11
9936.00,1.11
9935.00,1.11
9934.00,1.11
9933.00,1.12
9932.00,1.12
9931.00,1.12
9930.00,1.12
9929.00,1.12
9928.00,1.12
9927.00,1.13
9926.00,1.13
9925.00,1.13
9924.00,1.13
9923.00,1.13
9922.00,1.13
9921.00,1.13
9920.00,1.13
9919.00,1.13
9918.00,1.12
9917.00,1.12
9916.00,1.12
9915.00,1.12
9914.00,1.12
9913.00,1.12
9912.00,1.12
9911.00,1.11
9910.00,1.11
9909.00,1.11
9908.00,1.11
9907.00,1.11
9906.00,1.11
9905.00,1.11
9904.00,1.11
9903.00,1.11
9902.00,1.11
9901.00,1.11
9900.00,1.11
9899.00,1.11
9898.00,1.11
9897.00,1.11
9896.00,1.11
9895.00,1.11
9894.00,1.11
9893.00,1.11
9892.00,1.11
9891.00,1.11
9890.00,1.11
9889.00,1.11
9888.00,1.11
9887.00,1.12
9886.00,1.12
9885.00,1.12
9884.00,1.12
9883.00,1.12
9882.00,1.12
9881.00,1.12
9880.00,1.12
9879.00,1.11
9878.00,1.11
9877.00,1.11
9876.00,1.11
9875.00,1.11
9874.00,1.11
9873.00,1.11
9872.00,1.11
9871.00,1.11
9870.00,1.11
9869.00,1.11
9868.00,1.11
9867.00,1.11
9866.00,1.11
9865.00,1.11
9864.00,1.11
9863.00,1.11
9862.00,1.11
9861.00,1.11
9860.00,1.11
9859.00,1.11
9858.00,1.11
9857.00,1.11
9856.00,1.11
9855.00,1.11
9854.00,1.11
9853.00,1.11
9852.00,1.11
9851.00,1.11
9850.00,1.11
9849.00,1.11
9848.00,1.11
9847.00,1.11
9846.00,1.12
9845.00,1.12
9844.00,1.12
9843.00,1.12
9842.00,1.12
9841.00,1.12
9840.00,1.12
9839.00,1.12
9838.00,1.12
9837.00,1.12
9836.00,1.12
9835.00,1.12
9834.00,1.12
9833.00,1.12
9832.00,1.12
9831.00,1.12
9830.00,1.12
9829.00,1.12
9828.00,1.12
9827.00,1.12
9826.00,1.12
9825.00,1.12
9824.00,1.11
9823.00,1.11
9822.00,1.11
9821.00,1.11
9820.00,1.11
9819.00,1.11
9818.00,1.12
9817.00,1.12
9816.00,1.12
9815.00,1.12
9814.00,1.12
9813.00,1.12
9812.00,1.12
9811.00,1.12
9810.00,1.12
9809.00,1.12
9808.00,1.12
9807.00,1.12
9806.00,1.12
9805.00,1.12
9804.00,1.13
9803.00,1.13
9802.00,1.13
9801.00,1.13
9800.00,1.13
9799.00,1.13
9798.00,1.13
9797.00,1.14
9796.00,1.14
9795.00,1.14
9794.00,1.14
9793.00,1.14
9792.00,1.14
9791.00,1.14
9790.00,1.14
9789.00,1.14
9788.00,1.14
9787.00,1.14
9786.00,1.14
9785.00,1.14
9784.00,1.14
9783.00,1.13
9782.00,1.13
9781.00,1.13
9780.00,1.13
9779.00,1.13
9778.00,1.13
9777.00,1.13
9776.00,1.13
9775.00,1.13
9774.00,1.13
9773.00,1.13
9772.00,1.13
9771.00,1.13
9770.00,1.13
9769.00,1.13
9768.00,1.13
9767.00,1.13
9766.00,1.13
9765.00,1.13
9764.00,1.13
9763.00,1.13
9762.00,1.13
9761.00,1.13
9760.00,1.13
9759.00,1.13
9758.00,1.13
9757.00,1.13
9756.00,1.13
9755.00,1.12
9754.00,1.12
9753.00,1.12
9752.00,1.12
9751.00,1.12
9750.00,1.12
9749.00,1.12
9748.00,1.11
9747.00,1.11
9746.00,1.11
9745.00,1.11
9744.00,1.11
9743.00,1.11
9742.00,1.11
9741.00,1.10
9740.00,1.10
9739.00,1.10
9738.00,1.10
9737.00,1.10
9736.00,1.10
9735.00,1.10
9734.00,1.10
9733.00,1.10
9732.00,1.10
9731.00,1.10
9730.00,1.10
9729.00,1.10
9728.00,1.10
9727.00,1.10
9726.00,1.10
9725.00,1.10
9724.00,1.10
9723.00,1.10
9722.00,1.10
9721.00,1.10
9720.00,1.10
9719.00,1.10
9718.00,1.10
9717.00,1.10
9716.00,1.10
9715.00,1.10
9714.00,1.11
9713.00,1.11
9712.00,1.11
9711.00,1.11
9710.00,1.11
9709.00,1.11
9708.00,1.11
9707.00,1.11
9706.00,1.10
9705.00,1.10
9704.00,1.10
9703.00,1.10
9702.00,1.10
9701.00,1.10
9700.00,1.10
9699.00,1.10
9698.00,1.10
9697.00,1.10
9696.00,1.10
9695.00,1.10
9694.00,1.10
9693.00,1.10
9692.00,1.10
9691.00,1.10
9690.00,1.10
9689.00,1.10
9688.00,1.10
9687.00,1.10
9686.00,1.10
9685.00,1.10
9684.00,1.11
9683.00,1.11
9682.00,1.11
9681.00,1.11
9680.00,1.11
9679.00,1.11
9678.00,1.11
9677.00,1.11
9676.00,1.12
9675.00,1.12
9674.00,1.12
9673.00,1.12
9672.00,1.12
9671.00,1.12
9670.00,1.12
9669.00,1.12
9668.00,1.12
9667.00,1.12
9666.00,1.12
9665.00,1.12
9664.00,1.12
9663.00,1.12
9662.00,1.12
9661.00,1.12
9660.00,1.12
9659.00,1.12
9658.00,1.12
9657.00,1.12
9656.00,1.12
9655.00,1.12
9654.00,1.12
9653.00,1.12
9652.00,1.12
9651.00,1.11
9650.00,1.11
9649.00,1.11
9648.00,1.11
9647.00,1.11
9646.00,1.11
9645.00,1.11
9644.00,1.11
9643.00,1.10
9642.00,1.10
9641.00,1.10
9640.00,1.10
9639.00,1.10
9638.00,1.10
9637.00,1.10
9636.00,1.10
9635.00,1.10
9634.00,1.10
9633.00,1.10
9632.00,1.10
9631.00,1.10
9630.00,1.10
9629.00,1.10
9628.00,1.11
9627.00,1.11
9626.00,1.11
9625.00,1.11
9624.00,1.11
9623.00,1.11
9622.00,1.11
9621.00,1.11
9620.00,1.11
9619.00,1.11
9618.00,1.12
9617.00,1.12
9616.00,1.12
9615.00,1.12
9614.00,1.12
9613.00,1.12
9612.00,1.12
9611.00,1.12
9610.00,1.12
9609.00,1.12
9608.00,1.12
9607.00,1.12
9606.00,1.12
9605.00,1.12
9604.00,1.12
9603.00,1.12
9602.00,1.12
9601.00,1.12
9600.00,1.12
9599.00,1.12
9598.00,1.12
9597.00,1.12
9596.00,1.12
9595.00,1.12
9594.00,1.12
9593.00,1.12
9592.00,1.12
9591.00,1.12
9590.00,1.12
9589.00,1.12
9588.00,1.13
9587.00,1.13
9586.00,1.13
9585.00,1.13
9584.00,1.13
9583.00,1.13
9582.00,1.13
9581.00,1.13
9580.00,1.13
9579.00,1.13
9578.00,1.13
9577.00,1.13
9576.00,1.13
9575.00,1.13
9574.00,1.13
9573.00,1.13
9572.00,1.14
9571.00,1.14
9570.00,1.14
9569.00,1.14
9568.00,1.14
9567.00,1.14
9566.00,1.14
9565.00,1.14
9564.00,1.14
9563.00,1.14
9562.00,1.14
9561.00,1.14
9560.00,1.14
9559.00,1.14
9558.00,1.14
9557.00,1.14
9556.00,1.14
9555.00,1.14
9554.00,1.14
9553.00,1.14
9552.00,1.13
9551.00,1.13
9550.00,1.13
9549.00,1.13
9548.00,1.12
9547.00,1.12
9546.00,1.12
9545.00,1.12
9544.00,1.11
9543.00,1.11
9542.00,1.11
9541.00,1.11
9540.00,1.10
9539.00,1.10
9538.00,1.10
9537.00,1.10
9536.00,1.10
9535.00,1.10
9534.00,1.10
9533.00,1.10
9532.00,1.10
9531.00,1.10
9530.00,1.10
9529.00,1.10
9528.00,1.10
9527.00,1.10
9526.00,1.10
9525.00,1.10
9524.00,1.10
9523.00,1.11
9522.00,1.11
9521.00,1.11
9520.00,1.11
9519.00,1.11
9518.00,1.11
9517.00,1.11
9516.00,1.11
9515.00,1.11
9514.00,1.11
9513.00,1.11
9512.00,1.11
9511.00,1.11
9510.00,1.12
9509.00,1.12
9508.00,1.12
9507.00,1.12
9506.00,1.12
9505.00,1.13
9504.00,1.13
9503.00,1.13
9502.00,1.13
9501.00,1.13
9500.00,1.13
9499.00,1.13
9498.00,1.13
9497.00,1.13
9496.00,1.13
9495.00,1.13
9494.00,1.13
9493.00,1.13
9492.00,1.13
9491.00,1.12
9490.00,1.12
9489.00,1.12
9488.00,1.12
9487.00,1.12
9486.00,1.12
9485.00,1.12
9484.00,1.11
9483.00,1.11
9482.00,1.11
9481.00,1.11
9480.00,1.11
9479.00,1.11
9478.00,1.11
9477.00,1.10
9476.00,1.10
9475.00,1.10
9474.00,1.10
9473.00,1.10
9472.00,1.10
9471.00,1.10
9470.00,1.10
9469.00,1.10
9468.00,1.10
9467.00,1.10
9466.00,1.10
9465.00,1.10
9464.00,1.10
9463.00,1.10
9462.00,1.10
9461.00,1.11
9460.00,1.11
9459.00,1.11
9458.00,1.11
9457.00,1.11
9456.00,1.12
9455.00,1.12
9454.00,1.12
9453.00,1.12
9452.00,1.12
9451.00,1.12
9450.00,1.12
9449.00,1.12
9448.00,1.12
9447.00,1.12
9446.00,1.12
9445.00,1.12
9444.00,1.12
9443.00,1.12
9442.00,1.12
9441.00,1.12
9440.00,1.12
9439.00,1.12
9438.00,1.12
9437.00,1.12
9436.00,1.12
9435.00,1.12
9434.00,1.12
9433.00,1.12
9432.00,1.12
9431.00,1.12
9430.00,1.12
9429.00,1.12
9428.00,1.12
9427.00,1.12
9426.00,1.12
9425.00,1.12
9424.00,1.12
9423.00,1.12
9422.00,1.12
9421.00,1.12
9420.00,1.12
9419.00,1.12
9418.00,1.12
9417.00,1.12
9416.00,1.12
9415.00,1.12
9414.00,1.12
9413.00,1.12
9412.00,1.12
9411.00,1.12
9410.00,1.12
9409.00,1.11
9408.00,1.11
9407.00,1.11
9406.00,1.11
9405.00,1.11
9404.00,1.10
9403.00,1.10
9402.00,1.10
9401.00,1.10
9400.00,1.10
9399.00,1.10
9398.00,1.10
9397.00,1.10
9396.00,1.10
9395.00,1.10
9394.00,1.10
9393.00,1.10
9392.00,1.10
9391.00,1.10
9390.00,1.11
9389.00,1.11
9388.00,1.11
9387.00,1.11
9386.00,1.11
9385.00,1.11
9384.00,1.11
9383.00,1.12
9382.00,1.12
9381.00,1.12
9380.00,1.12
9379.00,1.12
9378.00,1.12
9377.00,1.12
9376.00,1.12
9375.00,1.12
9374.00,1.12
9373.00,1.12
9372.00,1.12
9371.00,1.13
9370.00,1.13
9369.00,1.13
9368.00,1.13
9367.00,1.13
9366.00,1.13
9365.00,1.14
9364.00,1.14
9363.00,1.14
9362.00,1.14
9361.00,1.14
9360.00,1.14
9359.00,1.14
9358.00,1.14
9357.00,1.14
9356.00,1.14
9355.00,1.14
9354.00,1.14
9353.00,1.13
9352.00,1.13
9351.00,1.13
9350.00,1.13
9349.00,1.13
9348.00,1.13
9347.00,1.13
9346.00,1.12
9345.00,1.12
9344.00,1.12
9343.00,1.12
9342.00,1.12
9341.00,1.12
9340.00,1.12
9339.00,1.12
9338.00,1.12
9337.00,1.12
9336.00,1.12
9335.00,1.12
9334.00,1.12
9333.00,1.12
9332.00,1.12
9331.00,1.12
9330.00,1.12
9329.00,1.12
9328.00,1.12
9327.00,1.12
9326.00,1.12
9325.00,1.12
9324.00,1.12
9323.00,1.12
9322.00,1.12
9321.00,1.12
9320.00,1.12
9319.00,1.12
9318.00,1.12
9317.00,1.12
9316.00,1.12
9315.00,1.12
9314.00,1.12
9313.00,1.13
9312.00,1.13
9311.00,1.13
9310.00,1.13
9309.00,1.13
9308.00,1.13
9307.00,1.13
9306.00,1.13
9305.00,1.13
9304.00,1.13
9303.00,1.13
9302.00,1.13
9301.00,1.13
9300.00,1.13
9299.00,1.13
9298.00,1.13
9297.00,1.13
9296.00,1.13
9295.00,1.13
9294.00,1.13
9293.00,1.13
9292.00,1.13
9291.00,1.13
9290.00,1.13
9289.00,1.13
9288.00,1.13
9287.00,1.13
9286.00,1.13
9285.00,1.13
9284.00,1.13
9283.00,1.13
9282.00,1.13
9281.00,1.13
9280.00,1.13
9279.00,1.13
9278.00,1.12
9277.00,1.12
9276.00,1.12
9275.00,1.12
9274.00,1.12
9273.00,1.12
9272.00,1.12
9271.00,1.12
9270.00,1.12
9269.00,1.12
9268.00,1.12
9267.00,1.12
9266.00,1.12
9265.00,1.12
9264.00,1.12
9263.00,1.11
9262.00,1.11
9261.00,1.11
9260.00,1.11
9259.00,1.11
9258.00,1.11
9257.00,1.11
9256.00,1.11
9255.00,1.11
9254.00,1.11
9253.00,1.11
9252.00,1.11
9251.00,1.11
9250.00,1.11
9249.00,1.11
9248.00,1.11
9247.00,1.11
9246.00,1.11
9245.00,1.11
9244.00,1.11
9243.00,1.11
9242.00,1.11
9241.00,1.11
9240.00,1.11
9239.00,1.11
9238.00,1.12
9237.00,1.12
9236.00,1.12
9235.00,1.12
9234.00,1.12
9233.00,1.12
9232.00,1.12
9231.00,1.11
9230.00,1.11
9229.00,1.11
9228.00,1.11
9227.00,1.11
9226.00,1.12
9225.00,1.12
9224.00,1.12
9223.00,1.12
9222.00,1.12
9221.00,1.12
9220.00,1.12
9219.00,1.12
9218.00,1.12
9217.00,1.12
9216.00,1.12
9215.00,1.12
9214.00,1.12
9213.00,1.13
9212.00,1.13
9211.00,1.13
9210.00,1.13
9209.00,1.13
9208.00,1.13
9207.00,1.13
9206.00,1.13
9205.00,1.13
9204.00,1.13
9203.00,1.13
9202.00,1.13
9201.00,1.13
9200.00,1.13
9199.00,1.13
9198.00,1.13
9197.00,1.13
9196.00,1.13
9195.00,1.13
9194.00,1.13
9193.00,1.13
9192.00,1.13
9191.00,1.13
9190.00,1.13
9189.00,1.13
9188.00,1.13
9187.00,1.13
9186.00,1.13
9185.00,1.13
9184.00,1.13
9183.00,1.13
9182.00,1.13
9181.00,1.13
9180.00,1.13
9179.00,1.13
9178.00,1.13
9177.00,1.13
9176.00,1.13
9175.00,1.13
9174.00,1.13
9173.00,1.13
9172.00,1.13
9171.00,1.13
9170.00,1.12
9169.00,1.12
9168.00,1.12
9167.00,1.12
9166.00,1.12
9165.00,1.12
9164.00,1.11
9163.00,1.11
9162.00,1.11
9161.00,1.11
9160.00,1.11
9159.00,1.11
9158.00,1.11
9157.00,1.11
9156.00,1.11
9155.00,1.11
9154.00,1.11
9153.00,1.11
9152.00,1.11
9151.00,1.11
9150.00,1.11
9149.00,1.11
9148.00,1.11
9147.00,1.11
9146.00,1.11
9145.00,1.11
9144.00,1.12
9143.00,1.12
9142.00,1.12
9141.00,1.12
9140.00,1.12
9139.00,1.12
9138.00,1.12
9137.00,1.12
9136.00,1.12
9135.00,1.12
9134.00,1.12
9133.00,1.12
9132.00,1.12
9131.00,1.12
9130.00,1.12
9129.00,1.12
9128.00,1.12
9127.00,1.12
9126.00,1.12
9125.00,1.12
9124.00,1.12
9123.00,1.12
9122.00,1.12
9121.00,1.12
9120.00,1.12
9119.00,1.12
9118.00,1.12
9117.00,1.12
9116.00,1.12
9115.00,1.12
9114.00,1.12
9113.00,1.12
9112.00,1.12
9111.00,1.12
9110.00,1.12
9109.00,1.12
9108.00,1.12
9107.00,1.12
9106.00,1.12
9105.00,1.12
9104.00,1.12
9103.00,1.12
9102.00,1.12
9101.00,1.12
9100.00,1.12
9099.00,1.12
9098.00,1.13
9097.00,1.13
9096.00,1.13
9095.00,1.13
9094.00,1.13
9093.00,1.13
9092.00,1.13
9091.00,1.13
9090.00,1.13
9089.00,1.13
9088.00,1.13
9087.00,1.13
9086.00,1.13
9085.00,1.13
9084.00,1.13
9083.00,1.13
9082.00,1.13
9081.00,1.13
9080.00,1.13
9079.00,1.13
9078.00,1.13
9077.00,1.13
9076.00,1.13
9075.00,1.13
9074.00,1.13
9073.00,1.13
9072.00,1.13
9071.00,1.13
9070.00,1.13
9069.00,1.13
9068.00,1.13
9067.00,1.13
9066.00,1.13
9065.00,1.13
9064.00,1.13
9063.00,1.13
9062.00,1.13
9061.00,1.13
9060.00,1.13
9059.00,1.13
9058.00,1.13
9057.00,1.13
9056.00,1.13
9055.00,1.13
9054.00,1.13
9053.00,1.13
9052.00,1.13
9051.00,1.13
9050.00,1.13
9049.00,1.13
9048.00,1.13
9047.00,1.13
9046.00,1.13
9045.00,1.13
9044.00,1.13
9043.00,1.13
9042.00,1.13
9041.00,1.13
9040.00,1.13
9039.00,1.13
9038.00,1.13
9037.00,1.13
9036.00,1.13
9035.00,1.13
9034.00,1.13
9033.00,1.13
9032.00,1.13
9031.00,1.13
9030.00,1.13
9029.00,1.13
9028.00,1.13
9027.00,1.13
9026.00,1.13
9025.00,1.12
9024.00,1.12
9023.00,1.12
9022.00,1.12
9021.00,1.12
9020.00,1.12
9019.00,1.12
9018.00,1.12
9017.00,1.12
9016.00,1.12
9015.00,1.12
9014.00,1.12
9013.00,1.12
9012.00,1.12
9011.00,1.13
9010.00,1.13
9009.00,1.13
9008.00,1.13
9007.00,1.13
9006.00,1.13
9005.00,1.13
9004.00,1.13
9003.00,1.13
9002.00,1.13
9001.00,1.13
9000.00,1.13
8999.00,1.13
8998.00,1.13
8997.00,1.13
8996.00,1.13
8995.00,1.13
8994.00,1.13
8993.00,1.13
8992.00,1.13
8991.00,1.13
8990.00,1.13
8989.00,1.13
8988.00,1.13
8987.00,1.14
8986.00,1.14
8985.00,1.14
8984.00,1.14
8983.00,1.14
8982.00,1.14
8981.00,1.14
8980.00,1.14
8979.00,1.14
8978.00,1.14
8977.00,1.13
8976.00,1.13
8975.00,1.13
8974.00,1.13
8973.00,1.13
8972.00,1.13
8971.00,1.13
8970.00,1.13
8969.00,1.13
8968.00,1.13
8967.00,1.13
8966.00,1.13
8965.00,1.13
8964.00,1.13
8963.00,1.13
8962.00,1.13
8961.00,1.13
8960.00,1.13
8959.00,1.13
8958.00,1.13
8957.00,1.13
8956.00,1.13
8955.00,1.13
8954.00,1.13
8953.00,1.13
8952.00,1.13
8951.00,1.13
8950.00,1.13
8949.00,1.13
8948.00,1.13
8947.00,1.13
8946.00,1.13
8945.00,1.13
8944.00,1.13
8943.00,1.13
8942.00,1.13
8941.00,1.13
8940.00,1.13
8939.00,1.13
8938.00,1.13
8937.00,1.13
8936.00,1.13
8935.00,1.13
8934.00,1.13
8933.00,1.13
8932.00,1.13
8931.00,1.13
8930.00,1.13
8929.00,1.13
8928.00,1.13
8927.00,1.13
8926.00,1.13
8925.00,1.13
8924.00,1.13
8923.00,1.13
8922.00,1.13
8921.00,1.13
8920.00,1.13
8919.00,1.13
8918.00,1.13
8917.00,1.13
8916.00,1.13
8915.00,1.13
8914.00,1.13
8913.00,1.13
8912.00,1.13
8911.00,1.13
8910.00,1.13
8909.00,1.13
8908.00,1.13
8907.00,1.13
8906.00,1.13
8905.00,1.13
8904.00,1.13
8903.00,1.13
8902.00,1.12
8901.00,1.12
8900.00,1.12
8899.00,1.12
8898.00,1.12
8897.00,1.12
8896.00,1.12
8895.00,1.12
8894.00,1.12
8893.00,1.12
8892.00,1.12
8891.00,1.12
8890.00,1.12
8889.00,1.12
8888.00,1.12
8887.00,1.13
8886.00,1.13
8885.00,1.13
8884.00,1.13
8883.00,1.13
8882.00,1.13
8881.00,1.13
8880.00,1.13
8879.00,1.13
8878.00,1.13
8877.00,1.13
8876.00,1.13
8875.00,1.13
8874.00,1.13
8873.00,1.13
8872.00,1.13
8871.00,1.13
8870.00,1.13
8869.00,1.13
8868.00,1.13
8867.00,1.14
8866.00,1.14
8865.00,1.14
8864.00,1.14
8863.00,1.14
8862.00,1.14
8861.00,1.14
8860.00,1.14
8859.00,1.14
8858.00,1.14
8857.00,1.14
8856.00,1.14
8855.00,1.14
8854.00,1.14
8853.00,1.14
8852.00,1.14
8851.00,1.14
8850.00,1.14
8849.00,1.13
8848.00,1.13
8847.00,1.13
8846.00,1.13
8845.00,1.13
8844.00,1.13
8843.00,1.13
8842.00,1.13
8841.00,1.13
8840.00,1.13
8839.00,1.12
8838.00,1.12
8837.00,1.12
8836.00,1.12
8835.00,1.12
8834.00,1.12
8833.00,1.11
8832.00,1.11
8831.00,1.11
8830.00,1.11
8829.00,1.11
8828.00,1.11
8827.00,1.11
8826.00,1.11
8825.00,1.11
8824.00,1.11
8823.00,1.11
8822.00,1.11
8821.00,1.11
8820.00,1.11
8819.00,1.11
8818.00,1.11
8817.00,1.11
8816.00,1.11
8815.00,1.11
8814.00,1.11
8813.00,1.11
8812.00,1.11
8811.00,1.11
8810.00,1.11
8809.00,1.11
8808.00,1.11
8807.00,1.11
8806.00,1.11
8805.00,1.11
8804.00,1.11
8803.00,1.10
8802.00,1.10
8801.00,1.10
8800.00,1.10
8799.00,1.10
8798.00,1.10
8797.00,1.10
8796.00,1.10
8795.00,1.10
8794.00,1.10
8793.00,1.10
8792.00,1.10
8791.00,1.10
8790.00,1.10
8789.00,1.10
8788.00,1.10
8787.00,1.10
8786.00,1.10
8785.00,1.10
8784.00,1.10
8783.00,1.10
8782.00,1.10
8781.00,1.10
8780.00,1.10
8779.00,1.10
8778.00,1.10
8777.00,1.10
8776.00,1.10
8775.00,1.10
8774.00,1.10
8773.00,1.10
8772.00,1.10
8771.00,1.10
8770.00,1.10
8769.00,1.10
8768.00,1.10
8767.00,1.10
8766.00,1.09
8765.00,1.09
8764.00,1.09
8763.00,1.09
8762.00,1.09
8761.00,1.09
8760.00,1.09
8759.00,1.09
8758.00,1.09
8757.00,1.09
8756.00,1.09
8755.00,1.09
8754.00,1.09
8753.00,1.09
8752.00,1.09
8751.00,1.09
8750.00,1.09
8749.00,1.09
8748.00,1.09
8747.00,1.09
8746.00,1.09
8745.00,1.09
8744.00,1.09
8743.00,1.09
8742.00,1.09
8741.00,1.08
8740.00,1.08
8739.00,1.08
8738.00,1.08
8737.00,1.08
8736.00,1.08
8735.00,1.08
8734.00,1.08
8733.00,1.08
8732.00,1.08
8731.00,1.08
8730.00,1.08
8729.00,1.08
8728.00,1.08
8727.00,1.08
8726.00,1.08
8725.00,1.08
8724.00,1.08
8723.00,1.08
8722.00,1.08
8721.00,1.08
8720.00,1.08
8719.00,1.08
8718.00,1.08
8717.00,1.08
8716.00,1.08
8715.00,1.08
8714.00,1.08
8713.00,1.08
8712.00,1.08
8711.00,1.08
8710.00,1.08
8709.00,1.08
8708.00,1.08
8707.00,1.07
8706.00,1.07
8705.00,1.07
8704.00,1.07
8703.00,1.07
8702.00,1.07
8701.00,1.06
8700.00,1.06
8699.00,1.06
8698.00,1.06
8697.00,1.06
8696.00,1.05
8695.00,1.05
8694.00,1.05
8693.00,1.05
8692.00,1.05
8691.00,1.05
8690.00,1.05
8689.00,1.05
8688.00,1.05
8687.00,1.05
8686.00,1.05
8685.00,1.05
8684.00,1.05
8683.00,1.05
8682.00,1.05
8681.00,1.05
8680.00,1.06
8679.00,1.06
8678.00,1.06
8677.00,1.06
8676.00,1.06
8675.00,1.06
8674.00,1.06
8673.00,1.06
8672.00,1.07
8671.00,1.07
8670.00,1.07
8669.00,1.07
8668.00,1.07
8667.00,1.07
8666.00,1.07
8665.00,1.07
8664.00,1.07
8663.00,1.07
8662.00,1.07
8661.00,1.07
8660.00,1.07
8659.00,1.07
8658.00,1.07
8657.00,1.07
8656.00,1.07
8655.00,1.07
8654.00,1.07
8653.00,1.07
8652.00,1.07
8651.00,1.07
8650.00,1.07
8649.00,1.07
8648.00,1.07
8647.00,1.07
8646.00,1.07
8645.00,1.07
8644.00,1.07
8643.00,1.07
8642.00,1.07
8641.00,1.07
8640.00,1.07
8639.00,1.07
8638.00,1.07
8637.00,1.07
8636.00,1.07
8635.00,1.07
8634.00,1.06
8633.00,1.06
8632.00,1.06
8631.00,1.06
8630.00,1.06
8629.00,1.06
8628.00,1.06
8627.00,1.06
8626.00,1.06
8625.00,1.06
8624.00,1.06
8623.00,1.06
8622.00,1.06
8621.00,1.06
8620.00,1.06
8619.00,1.06
8618.00,1.06
8617.00,1.06
8616.00,1.06
8615.00,1.06
8614.00,1.05
8613.00,1.05
8612.00,1.05
8611.00,1.05
8610.00,1.05
8609.00,1.05
8608.00,1.05
8607.00,1.05
8606.00,1.05
8605.00,1.05
8604.00,1.05
8603.00,1.05
8602.00,1.05
8601.00,1.05
8600.00,1.05
8599.00,1.05
8598.00,1.05
8597.00,1.05
8596.00,1.05
8595.00,1.05
8594.00,1.05
8593.00,1.05
8592.00,1.05
8591.00,1.05
8590.00,1.05
8589.00,1.05
8588.00,1.05
8587.00,1.05
8586.00,1.05
8585.00,1.06
8584.00,1.06
8583.00,1.06
8582.00,1.06
8581.00,1.06
8580.00,1.06
8579.00,1.06
8578.00,1.06
8577.00,1.06
8576.00,1.06
8575.00,1.06
8574.00,1.06
8573.00,1.06
8572.00,1.06
8571.00,1.06
8570.00,1.06
8569.00,1.06
8568.00,1.06
8567.00,1.06
8566.00,1.06
8565.00,1.05
8564.00,1.05
8563.00,1.05
8562.00,1.05
8561.00,1.05
8560.00,1.05
8559.00,1.05
8558.00,1.05
8557.00,1.05
8556.00,1.05
8555.00,1.05
8554.00,1.05
8553.00,1.05
8552.00,1.05
8551.00,1.05
8550.00,1.05
8549.00,1.05
8548.00,1.04
8547.00,1.04
8546.00,1.04
8545.00,1.04
8544.00,1.04
8543.00,1.04
8542.00,1.04
8541.00,1.04
8540.00,1.03
8539.00,1.03
8538.00,1.03
8537.00,1.03
8536.00,1.03
8535.00,1.03
8534.00,1.02
8533.00,1.02
8532.00,1.02
8531.00,1.02
8530.00,1.02
8529.00,1.02
8528.00,1.02
8527.00,1.02
8526.00,1.02
8525.00,1.02
8524.00,1.02
8523.00,1.02
8522.00,1.02
8521.00,1.02
8520.00,1.02
8519.00,1.02
8518.00,1.02
8517.00,1.02
8516.00,1.02
8515.00,1.02
8514.00,1.02
8513.00,1.02
8512.00,1.02
8511.00,1.02
8510.00,1.02
8509.00,1.02
8508.00,1.02
8507.00,1.02
8506.00,1.02
8505.00,1.02
8504.00,1.02
8503.00,1.02
8502.00,1.02
8501.00,1.02
8500.00,1.01
8499.00,1.01
8498.00,1.01
8497.00,1.01
8496.00,1.01
8495.00,1.01
8494.00,1.00
8493.00,1.00
8492.00,1.00
8491.00,1.00
8490.00,1.00
8489.00,1.00
8488.00,1.00
8487.00,0.99
8486.00,0.99
8485.00,0.99
8484.00,0.99
8483.00,0.99
8482.00,0.99
8481.00,0.99
8480.00,0.99
8479.00,0.99
8478.00,0.99
8477.00,0.99
8476.00,0.99
8475.00,0.99
8474.00,0.99
8473.00,0.99
8472.00,0.99
8471.00,0.99
8470.00,0.99
8469.00,0.99
8468.00,0.99
8467.00,0.99
8466.00,0.99
8465.00,0.99
8464.00,0.99
8463.00,0.99
8462.00,0.98
8461.00,0.98
8460.00,0.98
8459.00,0.98
8458.00,0.98
8457.00,0.98
8456.00,0.98
8455.00,0.98
8454.00,0.98
8453.00,0.98
8452.00,0.98
8451.00,0.98
8450.00,0.98
8449.00,0.98
8448.00,0.98
8447.00,0.98
8446.00,0.98
8445.00,0.98
8444.00,0.98
8443.00,0.99
8442.00,0.99
8441.00,0.99
8440.00,0.99
8439.00,0.99
8438.00,0.99
8437.00,0.99
8436.00,0.99
8435.00,0.99
8434.00,0.99
8433.00,0.99
8432.00,0.99
8431.00,0.99
8430.00,0.99
8429.00,0.99
8428.00,0.99
8427.00,0.99
8426.00,0.99
8425.00,0.99
8424.00,0.99
8423.00,0.99
8422.00,0.99
8421.00,0.99
8420.00,0.99
8419.00,0.99
8418.00,0.99
8417.00,0.99
8416.00,0.99
8415.00,0.99
8414.00,0.99
8413.00,0.99
8412.00,0.99
8411.00,0.99
8410.00,1.00
8409.00,1.00
8408.00,1.00
8407.00,1.00
8406.00,1.01
8405.00,1.01
8404.00,1.01
8403.00,1.01
8402.00,1.01
8401.00,1.01
8400.00,1.01
8399.00,1.02
8398.00,1.02
8397.00,1.02
8396.00,1.02
8395.00,1.02
8394.00,1.02
8393.00,1.02
8392.00,1.02
8391.00,1.01
8390.00,1.01
8389.00,1.01
8388.00,1.01
8387.00,1.01
8386.00,1.01
8385.00,1.01
8384.00,1.01
8383.00,1.01
8382.00,1.01
8381.00,1.01
8380.00,1.01
8379.00,1.01
8378.00,1.01
8377.00,1.01
8376.00,1.01
8375.00,1.01
8374.00,1.01
8373.00,1.01
8372.00,1.01
8371.00,1.01
8370.00,1.01
8369.00,1.01
8368.00,1.01
8367.00,1.02
8366.00,1.02
8365.00,1.02
8364.00,1.02
8363.00,1.02
8362.00,1.02
8361.00,1.02
8360.00,1.02
8359.00,1.02
8358.00,1.03
8357.00,1.03
8356.00,1.03
8355.00,1.03
8354.00,1.03
8353.00,1.03
8352.00,1.03
8351.00,1.03
8350.00,1.03
8349.00,1.03
8348.00,1.03
8347.00,1.03
8346.00,1.03
8345.00,1.03
8344.00,1.03
8343.00,1.03
8342.00,1.03
8341.00,1.03
8340.00,1.03
8339.00,1.03
8338.00,1.03
8337.00,1.03
8336.00,1.03
8335.00,1.03
8334.00,1.03
8333.00,1.03
8332.00,1.03
8331.00,1.03
8330.00,1.03
8329.00,1.03
8328.00,1.03
8327.00,1.03
8326.00,1.03
8325.00,1.03
8324.00,1.03
8323.00,1.03
8322.00,1.03
8321.00,1.03
8320.00,1.03
8319.00,1.03
8318.00,1.03
8317.00,1.03
8316.00,1.03
8315.00,1.04
8314.00,1.04
8313.00,1.04
8312.00,1.04
8311.00,1.04
8310.00,1.04
8309.00,1.04
8308.00,1.04
8307.00,1.04
8306.00,1.04
8305.00,1.04
8304.00,1.04
8303.00,1.04
8302.00,1.04
8301.00,1.04
8300.00,1.04
8299.00,1.04
8298.00,1.04
8297.00,1.04
8296.00,1.04
8295.00,1.04
8294.00,1.04
8293.00,1.04
8292.00,1.04
8291.00,1.04
8290.00,1.03
8289.00,1.03
8288.00,1.03
8287.00,1.03
8286.00,1.03
8285.00,1.03
8284.00,1.03
8283.00,1.03
8282.00,1.03
8281.00,1.03
8280.00,1.03
8279.00,1.03
8278.00,1.03
8277.00,1.03
8276.00,1.02
8275.00,1.02
8274.00,1.02
8273.00,1.03
8272.00,1.03
8271.00,1.03
8270.00,1.03
8269.00,1.03
8268.00,1.03
8267.00,1.03
8266.00,1.03
8265.00,1.03
8264.00,1.03
8263.00,1.04
8262.00,1.04
8261.00,1.04
8260.00,1.04
8259.00,1.04
8258.00,1.04
8257.00,1.04
8256.00,1.04
8255.00,1.04
8254.00,1.04
8253.00,1.04
8252.00,1.04
8251.00,1.04
8250.00,1.04
8249.00,1.04
8248.00,1.04
8247.00,1.04
8246.00,1.04
8245.00,1.04
8244.00,1.04
8243.00,1.04
8242.00,1.05
8241.00,1.05
8240.00,1.05
8239.00,1.05
8238.00,1.05
8237.00,1.05
8236.00,1.05
8235.00,1.05
8234.00,1.05
8233.00,1.05
8232.00,1.05
8231.00,1.05
8230.00,1.05
8229.00,1.05
8228.00,1.05
8227.00,1.05
8226.00,1.05
8225.00,1.05
8224.00,1.05
8223.00,1.05
8222.00,1.05
8221.00,1.05
8220.00,1.05
8219.00,1.05
8218.00,1.04
8217.00,1.04
8216.00,1.04
8215.00,1.04
8214.00,1.04
8213.00,1.04
8212.00,1.04
8211.00,1.04
8210.00,1.04
8209.00,1.04
8208.00,1.04
8207.00,1.04
8206.00,1.04
8205.00,1.04
8204.00,1.04
8203.00,1.04
8202.00,1.04
8201.00,1.04
8200.00,1.04
8199.00,1.04
8198.00,1.04
8197.00,1.04
8196.00,1.04
8195.00,1.04
8194.00,1.05
8193.00,1.05
8192.00,1.05
8191.00,1.05
8190.00,1.05
8189.00,1.05
8188.00,1.06
8187.00,1.06
8186.00,1.06
8185.00,1.06
8184.00,1.06
8183.00,1.06
8182.00,1.06
8181.00,1.06
8180.00,1.06
8179.00,1.07
8178.00,1.07
8177.00,1.07
8176.00,1.07
8175.00,1.07
8174.00,1.07
8173.00,1.07
8172.00,1.07
8171.00,1.07
8170.00,1.07
8169.00,1.07
8168.00,1.07
8167.00,1.07
8166.00,1.07
8165.00,1.07
8164.00,1.07
8163.00,1.07
8162.00,1.07
8161.00,1.07
8160.00,1.07
8159.00,1.07
8158.00,1.07
8157.00,1.07
8156.00,1.07
8155.00,1.07
8154.00,1.07
8153.00,1.07
8152.00,1.07
8151.00,1.07
8150.00,1.07
8149.00,1.07
8148.00,1.07
8147.00,1.07
8146.00,1.07
8145.00,1.07
8144.00,1.07
8143.00,1.07
8142.00,1.07
8141.00,1.07
8140.00,1.07
8139.00,1.07
8138.00,1.07
8137.00,1.07
8136.00,1.07
8135.00,1.07
8134.00,1.07
8133.00,1.07
8132.00,1.07
8131.00,1.07
8130.00,1.08
8129.00,1.08
8128.00,1.08
8127.00,1.08
8126.00,1.08
8125.00,1.08
8124.00,1.08
8123.00,1.08
8122.00,1.08
8121.00,1.08
8120.00,1.08
8119.00,1.08
8118.00,1.08
8117.00,1.08
8116.00,1.08
8115.00,1.08
8114.00,1.08
8113.00,1.09
8112.00,1.09
8111.00,1.09
8110.00,1.09
8109.00,1.09
8108.00,1.09
8107.00,1.09
8106.00,1.09
8105.00,1.09
8104.00,1.08
8103.00,1.08
8102.00,1.08
8101.00,1.08
8100.00,1.08
8099.00,1.08
8098.00,1.08
8097.00,1.08
8096.00,1.09
8095.00,1.09
8094.00,1.09
8093.00,1.09
8092.00,1.09
8091.00,1.09
8090.00,1.09
8089.00,1.09
8088.00,1.09
8087.00,1.09
8086.00,1.09
8085.00,1.09
8084.00,1.09
8083.00,1.09
8082.00,1.09
8081.00,1.09
8080.00,1.09
8079.00,1.09
8078.00,1.09
8077.00,1.09
8076.00,1.09
8075.00,1.09
8074.00,1.09
8073.00,1.09
8072.00,1.09
8071.00,1.09
8070.00,1.09
8069.00,1.09
8068.00,1.09
8067.00,1.09
8066.00,1.09
8065.00,1.09
8064.00,1.09
8063.00,1.09
8062.00,1.09
8061.00,1.09
8060.00,1.09
8059.00,1.09
8058.00,1.10
8057.00,1.10
8056.00,1.10
8055.00,1.10
8054.00,1.10
8053.00,1.10
8052.00,1.10
8051.00,1.10
8050.00,1.10
8049.00,1.10
8048.00,1.10
8047.00,1.10
8046.00,1.10
8045.00,1.10
8044.00,1.10
8043.00,1.10
8042.00,1.10
8041.00,1.10
8040.00,1.10
8039.00,1.10
8038.00,1.10
8037.00,1.10
8036.00,1.10
8035.00,1.10
8034.00,1.10
8033.00,1.10
8032.00,1.10
8031.00,1.10
8030.00,1.10
8029.00,1.10
8028.00,1.10
8027.00,1.10
8026.00,1.10
8025.00,1.10
8024.00,1.10
8023.00,1.10
8022.00,1.10
8021.00,1.10
8020.00,1.10
8019.00,1.11
8018.00,1.11
8017.00,1.11
8016.00,1.11
8015.00,1.11
8014.00,1.11
8013.00,1.11
8012.00,1.11
8011.00,1.11
8010.00,1.11
8009.00,1.11
8008.00,1.11
8007.00,1.11
8006.00,1.11
8005.00,1.11
8004.00,1.11
8003.00,1.11
8002.00,1.11
8001.00,1.11
8000.00,1.11
7999.00,1.11
7998.00,1.11
7997.00,1.11
7996.00,1.11
7995.00,1.11
7994.00,1.11
7993.00,1.11
7992.00,1.11
7991.00,1.11
7990.00,1.11
7989.00,1.11
7988.00,1.11
7987.00,1.11
7986.00,1.11
7985.00,1.11
7984.00,1.11
7983.00,1.11
7982.00,1.11
7981.00,1.11
7980.00,1.11
7979.00,1.11
7978.00,1.11
7977.00,1.11
7976.00,1.11
7975.00,1.11
7974.00,1.11
7973.00,1.11
7972.00,1.11
7971.00,1.11
7970.00,1.11
7969.00,1.12
7968.00,1.12
7967.00,1.12
7966.00,1.12
7965.00,1.12
7964.00,1.12
7963.00,1.12
7962.00,1.12
7961.00,1.12
7960.00,1.12
7959.00,1.12
7958.00,1.12
7957.00,1.12
7956.00,1.12
7955.00,1.12
7954.00,1.12
7953.00,1.12
7952.00,1.12
7951.00,1.12
7950.00,1.13
7949.00,1.13
7948.00,1.13
7947.00,1.13
7946.00,1.13
7945.00,1.13
7944.00,1.13
7943.00,1.13
7942.00,1.13
7941.00,1.13
7940.00,1.13
7939.00,1.13
7938.00,1.13
7937.00,1.13
7936.00,1.13
7935.00,1.13
7934.00,1.13
7933.00,1.13
7932.00,1.13
7931.00,1.13
7930.00,1.13
7929.00,1.13
7928.00,1.13
7927.00,1.13
7926.00,1.13
7925.00,1.13
7924.00,1.13
7923.00,1.13
7922.00,1.13
7921.00,1.13
7920.00,1.13
7919.00,1.13
7918.00,1.13
7917.00,1.13
7916.00,1.13
7915.00,1.13
7914.00,1.13
7913.00,1.13
7912.00,1.13
7911.00,1.13
7910.00,1.13
7909.00,1.13
7908.00,1.13
7907.00,1.13
7906.00,1.13
7905.00,1.13
7904.00,1.13
7903.00,1.13
7902.00,1.12
7901.00,1.12
7900.00,1.12
7899.00,1.12
7898.00,1.12
7897.00,1.12
7896.00,1.12
7895.00,1.12
7894.00,1.12
7893.00,1.12
7892.00,1.12
7891.00,1.12
7890.00,1.12
7889.00,1.12
7888.00,1.12
7887.00,1.12
7886.00,1.12
7885.00,1.12
7884.00,1.12
7883.00,1.12
7882.00,1.12
7881.00,1.12
7880.00,1.12
7879.00,1.12
7878.00,1.12
7877.00,1.12
7876.00,1.12
7875.00,1.12
7874.00,1.12
7873.00,1.12
7872.00,1.12
7871.00,1.12
7870.00,1.12
7869.00,1.12
7868.00,1.12
7867.00,1.12
7866.00,1.12
7865.00,1.12
7864.00,1.12
7863.00,1.12
7862.00,1.12
7861.00,1.13
7860.00,1.13
7859.00,1.13
7858.00,1.13
7857.00,1.13
7856.00,1.13
7855.00,1.13
7854.00,1.13
7853.00,1.13
7852.00,1.13
7851.00,1.13
7850.00,1.13
7849.00,1.13
7848.00,1.13
7847.00,1.13
7846.00,1.13
7845.00,1.13
7844.00,1.13
7843.00,1.13
7842.00,1.13
7841.00,1.13
7840.00,1.13
7839.00,1.13
7838.00,1.13
7837.00,1.13
7836.00,1.13
7835.00,1.13
7834.00,1.13
7833.00,1.13
7832.00,1.13
7831.00,1.13
7830.00,1.14
7829.00,1.14
7828.00,1.14
7827.00,1.14
7826.00,1.14
7825.00,1.14
7824.00,1.14
7823.00,1.14
7822.00,1.14
7821.00,1.14
7820.00,1.14
7819.00,1.14
7818.00,1.14
7817.00,1.14
7816.00,1.14
7815.00,1.14
7814.00,1.14
7813.00,1.14
7812.00,1.14
7811.00,1.14
7810.00,1.14
7809.00,1.14
7808.00,1.14
7807.00,1.14
7806.00,1.14
7805.00,1.14
7804.00,1.14
7803.00,1.14
7802.00,1.14
7801.00,1.14
7800.00,1.14
7799.00,1.14
7798.00,1.14
7797.00,1.14
7796.00,1.14
7795.00,1.14
7794.00,1.14
7793.00,1.14
7792.00,1.14
7791.00,1.14
7790.00,1.14
7789.00,1.14
7788.00,1.14
7787.00,1.14
7786.00,1.14
7785.00,1.14
7784.00,1.14
7783.00,1.14
7782.00,1.14
7781.00,1.14
7780.00,1.14
7779.00,1.14
7778.00,1.14
7777.00,1.14
7776.00,1.14
7775.00,1.14
7774.00,1.14
7773.00,1.14
7772.00,1.14
7771.00,1.14
7770.00,1.14
7769.00,1.14
7768.00,1.13
7767.00,1.13
7766.00,1.13
7765.00,1.13
7764.00,1.13
7763.00,1.13
7762.00,1.13
7761.00,1.13
7760.00,1.13
7759.00,1.13
7758.00,1.14
7757.00,1.14
7756.00,1.14
7755.00,1.14
7754.00,1.14
7753.00,1.14
7752.00,1.14
7751.00,1.14
7750.00,1.14
7749.00,1.14
7748.00,1.14
7747.00,1.14
7746.00,1.14
7745.00,1.14
7744.00,1.14
7743.00,1.14
7742.00,1.14
7741.00,1.13
7740.00,1.13
7739.00,1.13
7738.00,1.13
7737.00,1.13
7736.00,1.13
7735.00,1.13
7734.00,1.13
7733.00,1.13
7732.00,1.13
7731.00,1.13
7730.00,1.13
7729.00,1.13
7728.00,1.13
7727.00,1.13
7726.00,1.13
7725.00,1.13
7724.00,1.13
7723.00,1.13
7722.00,1.13
7721.00,1.13
7720.00,1.13
7719.00,1.13
7718.00,1.13
7717.00,1.13
7716.00,1.13
7715.00,1.13
7714.00,1.13
7713.00,1.13
7712.00,1.13
7711.00,1.13
7710.00,1.13
7709.00,1.13
7708.00,1.13
7707.00,1.13
7706.00,1.13
7705.00,1.13
7704.00,1.13
7703.00,1.13
7702.00,1.13
7701.00,1.13
7700.00,1.13
7699.00,1.13
7698.00,1.13
7697.00,1.13
7696.00,1.13
7695.00,1.13
7694.00,1.13
7693.00,1.13
7692.00,1.13
7691.00,1.13
7690.00,1.13
7689.00,1.13
7688.00,1.13
7687.00,1.13
7686.00,1.13
7685.00,1.13
7684.00,1.13
7683.00,1.13
7682.00,1.13
7681.00,1.13
7680.00,1.13
7679.00,1.13
7678.00,1.13
7677.00,1.13
7676.00,1.13
7675.00,1.13
7674.00,1.13
7673.00,1.13
7672.00,1.13
7671.00,1.13
7670.00,1.13
7669.00,1.13
7668.00,1.14
7667.00,1.14
7666.00,1.14
7665.00,1.14
7664.00,1.14
7663.00,1.14
7662.00,1.14
7661.00,1.14
7660.00,1.14
7659.00,1.14
7658.00,1.14
7657.00,1.14
7656.00,1.14
7655.00,1.14
7654.00,1.14
7653.00,1.14
7652.00,1.14
7651.00,1.14
7650.00,1.14
7649.00,1.14
7648.00,1.14
7647.00,1.14
7646.00,1.14
7645.00,1.14
7644.00,1.14
7643.00,1.13
7642.00,1.13
7641.00,1.13
7640.00,1.13
7639.00,1.13
7638.00,1.13
7637.00,1.13
7636.00,1.13
7635.00,1.13
7634.00,1.13
7633.00,1.12
7632.00,1.12
7631.00,1.12
7630.00,1.12
7629.00,1.12
7628.00,1.12
7627.00,1.13
7626.00,1.13
7625.00,1.13
7624.00,1.13
7623.00,1.13
7622.00,1.13
7621.00,1.13
7620.00,1.13
7619.00,1.13
7618.00,1.13
7617.00,1.13
7616.00,1.13
7615.00,1.13
7614.00,1.13
7613.00,1.13
7612.00,1.13
7611.00,1.14
7610.00,1.14
7609.00,1.14
7608.00,1.14
7607.00,1.14
7606.00,1.14
7605.00,1.14
7604.00,1.14
7603.00,1.14
7602.00,1.14
7601.00,1.14
7600.00,1.14
7599.00,1.14
7598.00,1.14
7597.00,1.13
7596.00,1.13
7595.00,1.13
7594.00,1.13
7593.00,1.13
7592.00,1.13
7591.00,1.13
7590.00,1.13
7589.00,1.13
7588.00,1.13
7587.00,1.13
7586.00,1.13
7585.00,1.13
7584.00,1.13
7583.00,1.13
7582.00,1.13
7581.00,1.13
7580.00,1.13
7579.00,1.13
7578.00,1.13
7577.00,1.13
7576.00,1.13
7575.00,1.13
7574.00,1.13
7573.00,1.13
7572.00,1.13
7571.00,1.13
7570.00,1.13
7569.00,1.13
7568.00,1.13
7567.00,1.13
7566.00,1.13
7565.00,1.13
7564.00,1.13
7563.00,1.13
7562.00,1.13
7561.00,1.13
7560.00,1.13
7559.00,1.13
7558.00,1.13
7557.00,1.13
7556.00,1.13
7555.00,1.13
7554.00,1.13
7553.00,1.13
7552.00,1.13
7551.00,1.13
7550.00,1.13
7549.00,1.13
7548.00,1.13
7547.00,1.13
7546.00,1.13
7545.00,1.13
7544.00,1.13
7543.00,1.13
7542.00,1.13
7541.00,1.13
7540.00,1.13
7539.00,1.13
7538.00,1.13
7537.00,1.13
7536.00,1.13
7535.00,1.13
7534.00,1.12
7533.00,1.12
7532.00,1.12
7531.00,1.12
7530.00,1.12
7529.00,1.12
7528.00,1.12
7527.00,1.12
7526.00,1.12
7525.00,1.12
7524.00,1.12
7523.00,1.12
7522.00,1.12
7521.00,1.12
7520.00,1.12
7519.00,1.11
7518.00,1.11
7517.00,1.11
7516.00,1.11
7515.00,1.11
7514.00,1.11
7513.00,1.11
7512.00,1.11
7511.00,1.11
7510.00,1.11
7509.00,1.10
7508.00,1.10
7507.00,1.10
7506.00,1.10
7505.00,1.10
7504.00,1.10
7503.00,1.10
7502.00,1.10
7501.00,1.10
7500.00,1.10
7499.00,1.10
7498.00,1.10
7497.00,1.10
7496.00,1.10
7495.00,1.10
7494.00,1.10
7493.00,1.10
7492.00,1.10
7491.00,1.10
7490.00,1.10
7489.00,1.10
7488.00,1.10
7487.00,1.10
7486.00,1.10
7485.00,1.10
7484.00,1.10
7483.00,1.10
7482.00,1.10
7481.00,1.10
7480.00,1.10
7479.00,1.10
7478.00,1.10
7477.00,1.10
7476.00,1.10
7475.00,1.10
7474.00,1.10
7473.00,1.10
7472.00,1.09
7471.00,1.09
7470.00,1.09
7469.00,1.09
7468.00,1.09
7467.00,1.09
7466.00,1.09
7465.00,1.09
7464.00,1.09
7463.00,1.09
7462.00,1.09
7461.00,1.09
7460.00,1.09
7459.00,1.09
7458.00,1.09
7457.00,1.09
7456.00,1.09
7455.00,1.09
7454.00,1.08
7453.00,1.08
7452.00,1.08
7451.00,1.08
7450.00,1.08
7449.00,1.08
7448.00,1.08
7447.00,1.08
7446.00,1.08
7445.00,1.08
7444.00,1.08
7443.00,1.08
7442.00,1.08
7441.00,1.08
7440.00,1.08
7439.00,1.08
7438.00,1.08
7437.00,1.08
7436.00,1.08
7435.00,1.08
7434.00,1.08
7433.00,1.08
7432.00,1.08
7431.00,1.08
7430.00,1.08
7429.00,1.08
7428.00,1.08
7427.00,1.07
7426.00,1.07
7425.00,1.07
7424.00,1.07
7423.00,1.07
7422.00,1.07
7421.00,1.07
7420.00,1.07
7419.00,1.07
7418.00,1.07
7417.00,1.07
7416.00,1.06
7415.00,1.06
7414.00,1.06
7413.00,1.06
7412.00,1.06
7411.00,1.06
7410.00,1.06
7409.00,1.06
7408.00,1.05
7407.00,1.05
7406.00,1.05
7405.00,1.05
7404.00,1.05
7403.00,1.05
7402.00,1.05
7401.00,1.05
7400.00,1.05
7399.00,1.05
7398.00,1.05
7397.00,1.04
7396.00,1.04
7395.00,1.04
7394.00,1.04
7393.00,1.04
7392.00,1.04
7391.00,1.04
7390.00,1.04
7389.00,1.04
7388.00,1.04
7387.00,1.04
7386.00,1.04
7385.00,1.04
7384.00,1.04
7383.00,1.04
7382.00,1.04
7381.00,1.04
7380.00,1.04
7379.00,1.03
7378.00,1.03
7377.00,1.03
7376.00,1.03
7375.00,1.03
7374.00,1.03
7373.00,1.03
7372.00,1.03
7371.00,1.02
7370.00,1.02
7369.00,1.02
7368.00,1.02
7367.00,1.02
7366.00,1.02
7365.00,1.02
7364.00,1.02
7363.00,1.02
7362.00,1.02
7361.00,1.02
7360.00,1.02
7359.00,1.01
7358.00,1.01
7357.00,1.01
7356.00,1.01
7355.00,1.01
7354.00,1.01
7353.00,1.01
7352.00,1.01
7351.00,1.01
7350.00,1.01
7349.00,1.01
7348.00,1.01
7347.00,1.01
7346.00,1.01
7345.00,1.01
7344.00,1.01
7343.00,1.01
7342.00,1.01
7341.00,1.01
7340.00,1.01
7339.00,1.01
7338.00,1.01
7337.00,1.01
7336.00,1.01
7335.00,1.01
7334.00,1.01
7333.00,1.01
7332.00,1.01
7331.00,1.01
7330.00,1.01
7329.00,1.01
7328.00,1.01
7327.00,1.01
7326.00,1.01
7325.00,1.01
7324.00,1.01
7323.00,1.01
7322.00,1.01
7321.00,1.01
7320.00,1.01
7319.00,1.01
7318.00,1.01
7317.00,1.01
7316.00,1.01
7315.00,1.01
7314.00,1.01
7313.00,1.01
7312.00,1.01
7311.00,1.01
7310.00,1.01
7309.00,1.00
7308.00,1.00
7307.00,1.00
7306.00,1.00
7305.00,1.00
7304.00,1.00
7303.00,1.00
7302.00,1.00
7301.00,1.00
7300.00,1.00
7299.00,1.00
7298.00,0.99
7297.00,0.99
7296.00,0.99
7295.00,0.99
7294.00,0.99
7293.00,0.99
7292.00,0.99
7291.00,0.99
7290.00,0.99
7289.00,0.98
7288.00,0.98
7287.00,0.98
7286.00,0.98
7285.00,0.98
7284.00,0.98
7283.00,0.98
7282.00,0.98
7281.00,0.97
7280.00,0.97
7279.00,0.97
7278.00,0.97
7277.00,0.97
7276.00,0.97
7275.00,0.97
7274.00,0.97
7273.00,0.97
7272.00,0.97
7271.00,0.96
7270.00,0.96
7269.00,0.96
7268.00,0.96
7267.00,0.96
7266.00,0.96
7265.00,0.96
7264.00,0.96
7263.00,0.96
7262.00,0.95
7261.00,0.95
7260.00,0.95
7259.00,0.95
7258.00,0.95
7257.00,0.95
7256.00,0.94
7255.00,0.94
7254.00,0.94
7253.00,0.94
7252.00,0.94
7251.00,0.94
7250.00,0.93
7249.00,0.93
7248.00,0.93
7247.00,0.93
7246.00,0.93
7245.00,0.92
7244.00,0.92
7243.00,0.92
7242.00,0.92
7241.00,0.91
7240.00,0.91
7239.00,0.91
7238.00,0.90
7237.00,0.90
7236.00,0.90
7235.00,0.89
7234.00,0.89
7233.00,0.89
7232.00,0.88
7231.00,0.88
7230.00,0.88
7229.00,0.88
7228.00,0.87
7227.00,0.87
7226.00,0.87
7225.00,0.87
7224.00,0.86
7223.00,0.86
7222.00,0.86
7221.00,0.86
7220.00,0.85
7219.00,0.85
7218.00,0.85
7217.00,0.85
7216.00,0.85
7215.00,0.84
7214.00,0.84
7213.00,0.84
7212.00,0.84
7211.00,0.83
7210.00,0.83
7209.00,0.83
7208.00,0.83
7207.00,0.82
7206.00,0.82
7205.00,0.82
7204.00,0.82
7203.00,0.81
7202.00,0.81
7201.00,0.81
7200.00,0.81
7199.00,0.80
7198.00,0.80
7197.00,0.80
7196.00,0.80
7195.00,0.80
7194.00,0.79
7193.00,0.79
7192.00,0.79
7191.00,0.79
7190.00,0.78
7189.00,0.78
7188.00,0.78
7187.00,0.78
7186.00,0.77
7185.00,0.77
7184.00,0.77
7183.00,0.77
7182.00,0.76
7181.00,0.76
7180.00,0.76
7179.00,0.75
7178.00,0.75
7177.00,0.75
7176.00,0.75
7175.00,0.74
7174.00,0.74
7173.00,0.74
7172.00,0.74
7171.00,0.74
7170.00,0.73
7169.00,0.73
7168.00,0.73
7167.00,0.73
7166.00,0.73
7165.00,0.73
7164.00,0.72
7163.00,0.72
7162.00,0.72
7161.00,0.72
7160.00,0.72
7159.00,0.72
7158.00,0.71
7157.00,0.71
7156.00,0.71
7155.00,0.71
7154.00,0.71
7153.00,0.71
7152.00,0.70
7151.00,0.70
7150.00,0.70
7149.00,0.70
7148.00,0.70
7147.00,0.69
7146.00,0.69
7145.00,0.69
7144.00,0.69
7143.00,0.69
7142.00,0.68
7141.00,0.68
7140.00,0.68
7139.00,0.68
7138.00,0.68
7137.00,0.67
7136.00,0.67
7135.00,0.67
7134.00,0.67
7133.00,0.67
7132.00,0.67
7131.00,0.67
7130.00,0.66
7129.00,0.66
7128.00,0.66
7127.00,0.66
7126.00,0.66
7125.00,0.65
7124.00,0.65
7123.00,0.65
7122.00,0.65
7121.00,0.65
7120.00,0.64
7119.00,0.64
7118.00,0.64
7117.00,0.64
7116.00,0.63
7115.00,0.63
7114.00,0.63
7113.00,0.63
7112.00,0.63
7111.00,0.62
7110.00,0.62
7109.00,0.62
7108.00,0.62
7107.00,0.62
7106.00,0.62
7105.00,0.62
7104.00,0.61
7103.00,0.61
7102.00,0.61
7101.00,0.61
7100.00,0.61
7099.00,0.61
7098.00,0.61
7097.00,0.60
7096.00,0.60
7095.00,0.60
7094.00,0.60
7093.00,0.60
7092.00,0.60
7091.00,0.60
7090.00,0.59
7089.00,0.59
7088.00,0.59
7087.00,0.59
7086.00,0.59
7085.00,0.59
7084.00,0.59
7083.00,0.59
7082.00,0.59
7081.00,0.59
7080.00,0.59
7079.00,0.59
7078.00,0.59
7077.00,0.59
7076.00,0.58
7075.00,0.58
7074.00,0.58
7073.00,0.58
7072.00,0.58
7071.00,0.58
7070.00,0.58
7069.00,0.58
7068.00,0.58
7067.00,0.58
7066.00,0.57
7065.00,0.57
7064.00,0.57
7063.00,0.57
7062.00,0.57
7061.00,0.57
7060.00,0.57
7059.00,0.57
7058.00,0.56
7057.00,0.56
7056.00,0.56
7055.00,0.56
7054.00,0.56
7053.00,0.56
7052.00,0.56
7051.00,0.56
7050.00,0.55
7049.00,0.55
7048.00,0.55
7047.00,0.55
7046.00,0.55
7045.00,0.55
7044.00,0.55
7043.00,0.55
7042.00,0.55
7041.00,0.55
7040.00,0.55
7039.00,0.55
7038.00,0.55
7037.00,0.55
7036.00,0.55
7035.00,0.55
7034.00,0.55
7033.00,0.55
7032.00,0.55
7031.00,0.55
7030.00,0.55
7029.00,0.55
7028.00,0.55
7027.00,0.55
7026.00,0.55
7025.00,0.54
7024.00,0.54
7023.00,0.54
7022.00,0.54
7021.00,0.54
7020.00,0.54
7019.00,0.54
7018.00,0.54
7017.00,0.54
7016.00,0.54
7015.00,0.54
7014.00,0.54
7013.00,0.54
7012.00,0.53
7011.00,0.53
7010.00,0.53
7009.00,0.53
7008.00,0.53
7007.00,0.53
7006.00,0.53
7005.00,0.53
7004.00,0.53
7003.00,0.53
7002.00,0.53
7001.00,0.53
7000.00,0.53
6999.00,0.53
6998.00,0.53
6997.00,0.53
6996.00,0.53
6995.00,0.53
6994.00,0.53
6993.00,0.53
6992.00,0.53
6991.00,0.53
6990.00,0.53
6989.00,0.53
6988.00,0.53
6987.00,0.53
6986.00,0.53
6985.00,0.53
6984.00,0.53
6983.00,0.53
6982.00,0.53
6981.00,0.53
6980.00,0.53
6979.00,0.53
6978.00,0.53
6977.00,0.53
6976.00,0.53
6975.00,0.53
6974.00,0.53
6973.00,0.53
6972.00,0.53
6971.00,0.52
6970.00,0.52
6969.00,0.52
6968.00,0.52
6967.00,0.52
6966.00,0.53
6965.00,0.53
6964.00,0.53
6963.00,0.53
6962.00,0.53
6961.00,0.53
6960.00,0.53
6959.00,0.53
6958.00,0.53
6957.00,0.53
6956.00,0.53
6955.00,0.53
6954.00,0.53
6953.00,0.53
6952.00,0.53
6951.00,0.53
6950.00,0.53
6949.00,0.53
6948.00,0.53
6947.00,0.52
6946.00,0.52
6945.00,0.52
6944.00,0.52
6943.00,0.52
6942.00,0.52
6941.00,0.52
6940.00,0.52
6939.00,0.52
6938.00,0.52
6937.00,0.52
6936.00,0.52
6935.00,0.52
6934.00,0.52
6933.00,0.52
6932.00,0.52
6931.00,0.52
6930.00,0.52
6929.00,0.52
6928.00,0.52
6927.00,0.52
6926.00,0.52
6925.00,0.52
6924.00,0.52
6923.00,0.52
6922.00,0.52
6921.00,0.52
6920.00,0.52
6919.00,0.52
6918.00,0.52
6917.00,0.52
6916.00,0.52
6915.00,0.52
6914.00,0.52
6913.00,0.52
6912.00,0.52
6911.00,0.52
6910.00,0.52
6909.00,0.51
6908.00,0.51
6907.00,0.51
6906.00,0.51
6905.00,0.51
6904.00,0.51
6903.00,0.51
6902.00,0.51
6901.00,0.51
6900.00,0.51
6899.00,0.52
6898.00,0.52
6897.00,0.52
6896.00,0.52
6895.00,0.52
6894.00,0.52
6893.00,0.52
6892.00,0.52
6891.00,0.51
6890.00,0.51
6889.00,0.51
6888.00,0.51
6887.00,0.51
6886.00,0.51
6885.00,0.51
6884.00,0.51
6883.00,0.51
6882.00,0.51
6881.00,0.51
6880.00,0.51
6879.00,0.51
6878.00,0.51
6877.00,0.51
6876.00,0.51
6875.00,0.51
6874.00,0.51
6873.00,0.51
6872.00,0.52
6871.00,0.52
6870.00,0.52
6869.00,0.52
6868.00,0.52
6867.00,0.52
6866.00,0.52
6865.00,0.52
6864.00,0.52
6863.00,0.52
6862.00,0.52
6861.00,0.52
6860.00,0.52
6859.00,0.52
6858.00,0.52
6857.00,0.52
6856.00,0.52
6855.00,0.52
6854.00,0.52
6853.00,0.52
6852.00,0.52
6851.00,0.52
6850.00,0.52
6849.00,0.52
6848.00,0.52
6847.00,0.52
6846.00,0.52
6845.00,0.52
6844.00,0.52
6843.00,0.52
6842.00,0.52
6841.00,0.52
6840.00,0.52
6839.00,0.52
6838.00,0.52
6837.00,0.52
6836.00,0.52
6835.00,0.52
6834.00,0.52
6833.00,0.52
6832.00,0.52
6831.00,0.52
6830.00,0.52
6829.00,0.52
6828.00,0.52
6827.00,0.52
6826.00,0.52
6825.00,0.52
6824.00,0.52
6823.00,0.52
6822.00,0.52
6821.00,0.52
6820.00,0.52
6819.00,0.52
6818.00,0.52
6817.00,0.52
6816.00,0.52
6815.00,0.52
6814.00,0.52
6813.00,0.52
6812.00,0.52
6811.00,0.52
6810.00,0.52
6809.00,0.52
6808.00,0.52
6807.00,0.52
6806.00,0.52
6805.00,0.53
6804.00,0.53
6803.00,0.53
6802.00,0.53
6801.00,0.53
6800.00,0.53
6799.00,0.53
6798.00,0.53
6797.00,0.53
6796.00,0.53
6795.00,0.53
6794.00,0.53
6793.00,0.53
6792.00,0.53
6791.00,0.53
6790.00,0.53
6789.00,0.53
6788.00,0.53
6787.00,0.53
6786.00,0.53
6785.00,0.53
6784.00,0.53
6783.00,0.53
6782.00,0.53
6781.00,0.53
6780.00,0.53
6779.00,0.53
6778.00,0.53
6777.00,0.53
6776.00,0.53
6775.00,0.53
6774.00,0.53
6773.00,0.53
6772.00,0.53
6771.00,0.53
6770.00,0.53
6769.00,0.53
6768.00,0.54
6767.00,0.54
6766.00,0.54
6765.00,0.54
6764.00,0.54
6763.00,0.54
6762.00,0.54
6761.00,0.54
6760.00,0.54
6759.00,0.54
6758.00,0.54
6757.00,0.55
6756.00,0.55
6755.00,0.55
6754.00,0.55
6753.00,0.55
6752.00,0.55
6751.00,0.55
6750.00,0.55
6749.00,0.55
6748.00,0.55
6747.00,0.55
6746.00,0.55
6745.00,0.55
6744.00,0.55
6743.00,0.55
6742.00,0.55
6741.00,0.55
6740.00,0.55
6739.00,0.55
6738.00,0.55
6737.00,0.55
6736.00,0.55
6735.00,0.56
6734.00,0.56
6733.00,0.56
6732.00,0.56
6731.00,0.56
6730.00,0.56
6729.00,0.56
6728.00,0.56
6727.00,0.56
6726.00,0.56
6725.00,0.56
6724.00,0.56
6723.00,0.56
6722.00,0.56
6721.00,0.56
6720.00,0.56
6719.00,0.56
6718.00,0.56
6717.00,0.56
6716.00,0.56
6715.00,0.56
6714.00,0.56
6713.00,0.56
6712.00,0.56
6711.00,0.57
6710.00,0.57
6709.00,0.57
6708.00,0.57
6707.00,0.57
6706.00,0.57
6705.00,0.57
6704.00,0.57
6703.00,0.57
6702.00,0.57
6701.00,0.57
6700.00,0.57
6699.00,0.57
6698.00,0.58
6697.00,0.58
6696.00,0.58
6695.00,0.58
6694.00,0.58
6693.00,0.58
6692.00,0.58
6691.00,0.58
6690.00,0.58
6689.00,0.58
6688.00,0.58
6687.00,0.58
6686.00,0.58
6685.00,0.58
6684.00,0.58
6683.00,0.58
6682.00,0.58
6681.00,0.59
6680.00,0.59
6679.00,0.59
6678.00,0.59
6677.00,0.59
6676.00,0.59
6675.00,0.59
6674.00,0.59
6673.00,0.59
6672.00,0.59
6671.00,0.59
6670.00,0.59
6669.00,0.59
6668.00,0.59
6667.00,0.59
6666.00,0.59
6665.00,0.59
6664.00,0.59
6663.00,0.59
6662.00,0.59
6661.00,0.59
6660.00,0.59
6659.00,0.59
6658.00,0.59
6657.00,0.60
6656.00,0.60
6655.00,0.60
6654.00,0.60
6653.00,0.60
6652.00,0.60
6651.00,0.60
6650.00,0.60
6649.00,0.60
6648.00,0.60
6647.00,0.61
6646.00,0.61
6645.00,0.61
6644.00,0.61
6643.00,0.61
6642.00,0.61
6641.00,0.61
6640.00,0.61
6639.00,0.61
6638.00,0.61
6637.00,0.61
6636.00,0.61
6635.00,0.61
6634.00,0.61
6633.00,0.61
6632.00,0.61
6631.00,0.61
6630.00,0.61
6629.00,0.61
6628.00,0.62
6627.00,0.62
6626.00,0.62
6625.00,0.62
6624.00,0.62
6623.00,0.62
6622.00,0.62
6621.00,0.62
6620.00,0.62
6619.00,0.62
6618.00,0.62
6617.00,0.62
6616.00,0.62
6615.00,0.62
6614.00,0.62
6613.00,0.62
6612.00,0.63
6611.00,0.63
6610.00,0.63
6609.00,0.63
6608.00,0.63
6607.00,0.63
6606.00,0.63
6605.00,0.63
6604.00,0.64
6603.00,0.64
6602.00,0.64
6601.00,0.64
6600.00,0.64
6599.00,0.64
6598.00,0.64
6597.00,0.64
6596.00,0.64
6595.00,0.64
6594.00,0.64
6593.00,0.65
6592.00,0.65
6591.00,0.65
6590.00,0.65
6589.00,0.65
6588.00,0.65
6587.00,0.65
6586.00,0.65
6585.00,0.65
6584.00,0.65
6583.00,0.65
6582.00,0.65
6581.00,0.65
6580.00,0.65
6579.00,0.65
6578.00,0.65
6577.00,0.65
6576.00,0.65
6575.00,0.65
6574.00,0.65
6573.00,0.65
6572.00,0.65
6571.00,0.65
6570.00,0.65
6569.00,0.65
6568.00,0.65
6567.00,0.66
6566.00,0.66
6565.00,0.66
6564.00,0.66
6563.00,0.66
6562.00,0.66
6561.00,0.66
6560.00,0.66
6559.00,0.66
6558.00,0.66
6557.00,0.66
6556.00,0.66
6555.00,0.66
6554.00,0.66
6553.00,0.67
6552.00,0.67
6551.00,0.67
6550.00,0.67
6549.00,0.67
6548.00,0.67
6547.00,0.67
6546.00,0.67
6545.00,0.67
6544.00,0.67
6543.00,0.67
6542.00,0.67
6541.00,0.67
6540.00,0.67
6539.00,0.67
6538.00,0.68
6537.00,0.68
6536.00,0.68
6535.00,0.68
6534.00,0.68
6533.00,0.68
6532.00,0.68
6531.00,0.68
6530.00,0.68
6529.00,0.68
6528.00,0.68
6527.00,0.68
6526.00,0.68
6525.00,0.68
6524.00,0.68
6523.00,0.68
6522.00,0.68
6521.00,0.68
6520.00,0.69
6519.00,0.69
6518.00,0.69
6517.00,0.69
6516.00,0.69
6515.00,0.69
6514.00,0.69
6513.00,0.69
6512.00,0.69
6511.00,0.69
6510.00,0.69
6509.00,0.70
6508.00,0.70
6507.00,0.70
6506.00,0.70
6505.00,0.70
6504.00,0.70
6503.00,0.70
6502.00,0.70
6501.00,0.70
6500.00,0.70
6499.00,0.70
6498.00,0.70
6497.00,0.70
6496.00,0.70
6495.00,0.70
6494.00,0.70
6493.00,0.70
6492.00,0.70
6491.00,0.70
6490.00,0.70
6489.00,0.70
6488.00,0.71
6487.00,0.71
6486.00,0.71
6485.00,0.71
6484.00,0.71
6483.00,0.71
6482.00,0.71
6481.00,0.71
6480.00,0.71
6479.00,0.71
6478.00,0.71
6477.00,0.71
6476.00,0.71
6475.00,0.71
6474.00,0.71
6473.00,0.71
6472.00,0.71
6471.00,0.71
6470.00,0.71
6469.00,0.71
6468.00,0.71
6467.00,0.71
6466.00,0.71
6465.00,0.71
6464.00,0.71
6463.00,0.72
6462.00,0.72
6461.00,0.72
6460.00,0.72
6459.00,0.72
6458.00,0.72
6457.00,0.72
6456.00,0.72
6455.00,0.72
6454.00,0.72
6453.00,0.72
6452.00,0.72
6451.00,0.72
6450.00,0.72
6449.00,0.72
6448.00,0.72
6447.00,0.72
6446.00,0.72
6445.00,0.72
6444.00,0.72
6443.00,0.72
6442.00,0.73
6441.00,0.73
6440.00,0.73
6439.00,0.73
6438.00,0.73
6437.00,0.73
6436.00,0.73
6435.00,0.73
6434.00,0.73
6433.00,0.73
6432.00,0.73
6431.00,0.73
6430.00,0.73
6429.00,0.73
6428.00,0.73
6427.00,0.73
6426.00,0.73
6425.00,0.73
6424.00,0.73
6423.00,0.74
6422.00,0.74
6421.00,0.74
6420.00,0.74
6419.00,0.74
6418.00,0.74
6417.00,0.74
6416.00,0.74
6415.00,0.74
6414.00,0.74
6413.00,0.74
6412.00,0.74
6411.00,0.74
6410.00,0.74
6409.00,0.74
6408.00,0.74
6407.00,0.74
6406.00,0.74
6405.00,0.74
6404.00,0.74
6403.00,0.74
6402.00,0.74
6401.00,0.75
6400.00,0.75
6399.00,0.75
6398.00,0.75
6397.00,0.75
6396.00,0.75
6395.00,0.75
6394.00,0.75
6393.00,0.75
6392.00,0.75
6391.00,0.75
6390.00,0.75
6389.00,0.75
6388.00,0.75
6387.00,0.75
6386.00,0.75
6385.00,0.75
6384.00,0.75
6383.00,0.75
6382.00,0.75
6381.00,0.75
6380.00,0.75
6379.00,0.75
6378.00,0.75
6377.00,0.75
6376.00,0.76
6375.00,0.76
6374.00,0.76
6373.00,0.76
6372.00,0.76
6371.00,0.76
6370.00,0.76
6369.00,0.76
6368.00,0.76
6367.00,0.76
6366.00,0.76
6365.00,0.76
6364.00,0.76
6363.00,0.76
6362.00,0.76
6361.00,0.76
6360.00,0.76
6359.00,0.76
6358.00,0.76
6357.00,0.76
6356.00,0.76
6355.00,0.77
6354.00,0.77
6353.00,0.77
6352.00,0.77
6351.00,0.77
6350.00,0.77
6349.00,0.77
6348.00,0.77
6347.00,0.77
6346.00,0.77
6345.00,0.78
6344.00,0.78
6343.00,0.78
6342.00,0.78
6341.00,0.78
6340.00,0.78
6339.00,0.78
6338.00,0.78
6337.00,0.78
6336.00,0.78
6335.00,0.78
6334.00,0.78
6333.00,0.78
6332.00,0.78
6331.00,0.78
6330.00,0.78
6329.00,0.78
6328.00,0.78
6327.00,0.79
6326.00,0.79
6325.00,0.79
6324.00,0.79
6323.00,0.79
6322.00,0.79
6321.00,0.79
6320.00,0.79
6319.00,0.79
6318.00,0.79
6317.00,0.79
6316.00,0.80
6315.00,0.80
6314.00,0.80
6313.00,0.80
6312.00,0.80
6311.00,0.80
6310.00,0.80
6309.00,0.80
6308.00,0.80
6307.00,0.80
6306.00,0.80
6305.00,0.80
6304.00,0.80
6303.00,0.81
6302.00,0.81
6301.00,0.81
6300.00,0.81
6299.00,0.81
6298.00,0.81
6297.00,0.81
6296.00,0.81
6295.00,0.81
6294.00,0.81
6293.00,0.81
6292.00,0.81
6291.00,0.81
6290.00,0.81
6289.00,0.82
6288.00,0.82
6287.00,0.82
6286.00,0.82
6285.00,0.82
6284.00,0.82
6283.00,0.82
6282.00,0.82
6281.00,0.82
6280.00,0.82
6279.00,0.82
6278.00,0.82
6277.00,0.82
6276.00,0.83
6275.00,0.83
6274.00,0.83
6273.00,0.83
6272.00,0.83
6271.00,0.83
6270.00,0.83
6269.00,0.83
6268.00,0.83
6267.00,0.83
6266.00,0.84
6265.00,0.84
6264.00,0.84
6263.00,0.84
6262.00,0.84
6261.00,0.84
6260.00,0.84
6259.00,0.84
6258.00,0.84
6257.00,0.84
6256.00,0.85
6255.00,0.85
6254.00,0.85
6253.00,0.85
6252.00,0.85
6251.00,0.85
6250.00,0.85
6249.00,0.85
6248.00,0.85
6247.00,0.85
6246.00,0.85
6245.00,0.85
6244.00,0.85
6243.00,0.86
6242.00,0.86
6241.00,0.86
6240.00,0.86
6239.00,0.86
6238.00,0.86
6237.00,0.86
6236.00,0.86
6235.00,0.86
6234.00,0.86
6233.00,0.86
6232.00,0.87
6231.00,0.87
6230.00,0.87
6229.00,0.87
6228.00,0.87
6227.00,0.87
6226.00,0.87
6225.00,0.87
6224.00,0.87
6223.00,0.87
6222.00,0.87
6221.00,0.87
6220.00,0.87
6219.00,0.87
6218.00,0.88
6217.00,0.88
6216.00,0.88
6215.00,0.88
6214.00,0.88
6213.00,0.88
6212.00,0.88
6211.00,0.88
6210.00,0.89
6209.00,0.89
6208.00,0.89
6207.00,0.89
6206.00,0.89
6205.00,0.89
6204.00,0.89
6203.00,0.89
6202.00,0.90
6201.00,0.90
6200.00,0.90
6199.00,0.90
6198.00,0.90
6197.00,0.90
6196.00,0.90
6195.00,0.90
6194.00,0.90
6193.00,0.91
6192.00,0.91
6191.00,0.91
6190.00,0.91
6189.00,0.91
6188.00,0.91
6187.00,0.91
6186.00,0.91
6185.00,0.91
6184.00,0.92
6183.00,0.92
6182.00,0.92
6181.00,0.92
6180.00,0.92
6179.00,0.92
6178.00,0.92
6177.00,0.92
6176.00,0.92
6175.00,0.92
6174.00,0.93
6173.00,0.93
6172.00,0.93
6171.00,0.93
6170.00,0.93
6169.00,0.93
6168.00,0.93
6167.00,0.93
6166.00,0.93
6165.00,0.93
6164.00,0.93
6163.00,0.93
6162.00,0.93
6161.00,0.93
6160.00,0.93
6159.00,0.94
6158.00,0.94
6157.00,0.94
6156.00,0.94
6155.00,0.94
6154.00,0.94
6153.00,0.94
6152.00,0.95
6151.00,0.95
6150.00,0.95
6149.00,0.95
6148.00,0.95
6147.00,0.95
6146.00,0.96
6145.00,0.96
6144.00,0.96
6143.00,0.96
6142.00,0.96
6141.00,0.96
6140.00,0.97
6139.00,0.97
6138.00,0.97
6137.00,0.97
6136.00,0.97
6135.00,0.97
6134.00,0.97
6133.00,0.97
6132.00,0.98
6131.00,0.98
6130.00,0.98
6129.00,0.98
6128.00,0.98
6127.00,0.98
6126.00,0.98
6125.00,0.98
6124.00,0.98
6123.00,0.98
6122.00,0.98
6121.00,0.98
6120.00,0.98
6119.00,0.98
6118.00,0.99
6117.00,0.99
6116.00,0.99
6115.00,0.99
6114.00,0.99
6113.00,0.99
6112.00,0.99
6111.00,0.99
6110.00,0.99
6109.00,0.99
6108.00,0.99
6107.00,1.00
6106.00,1.00
6105.00,1.00
6104.00,1.00
6103.00,1.00
6102.00,1.00
6101.00,1.00
6100.00,1.00
6099.00,1.00
6098.00,1.01
6097.00,1.01
6096.00,1.01
6095.00,1.01
6094.00,1.01
6093.00,1.01
6092.00,1.01
6091.00,1.01
6090.00,1.02
6089.00,1.02
6088.00,1.02
6087.00,1.02
6086.00,1.02
6085.00,1.02
6084.00,1.02
6083.00,1.03
6082.00,1.03
6081.00,1.03
6080.00,1.03
6079.00,1.03
6078.00,1.03
6077.00,1.03
6076.00,1.03
6075.00,1.03
6074.00,1.04
6073.00,1.04
6072.00,1.04
6071.00,1.04
6070.00,1.04
6069.00,1.04
6068.00,1.04
6067.00,1.04
6066.00,1.04
6065.00,1.04
6064.00,1.05
6063.00,1.05
6062.00,1.05
6061.00,1.05
6060.00,1.05
6059.00,1.05
6058.00,1.05
6057.00,1.05
6056.00,1.05
6055.00,1.05
6054.00,1.05
6053.00,1.06
6052.00,1.06
6051.00,1.06
6050.00,1.06
6049.00,1.06
6048.00,1.06
6047.00,1.06
6046.00,1.06
6045.00,1.06
6044.00,1.06
6043.00,1.06
6042.00,1.06
6041.00,1.06
6040.00,1.06
6039.00,1.06
6038.00,1.06
6037.00,1.06
6036.00,1.06
6035.00,1.06
6034.00,1.06
6033.00,1.06
6032.00,1.06
6031.00,1.06
6030.00,1.06
6029.00,1.06
6028.00,1.06
6027.00,1.06
6026.00,1.07
6025.00,1.07
6024.00,1.07
6023.00,1.07
6022.00,1.07
6021.00,1.07
6020.00,1.07
6019.00,1.07
6018.00,1.07
6017.00,1.07
6016.00,1.07
6015.00,1.07
6014.00,1.07
6013.00,1.07
6012.00,1.07
6011.00,1.07
6010.00,1.07
6009.00,1.07
6008.00,1.07
6007.00,1.07
6006.00,1.07
6005.00,1.06
6004.00,1.06
6003.00,1.06
6002.00,1.06
6001.00,1.06
6000.00,1.06
5999.00,1.06
5998.00,1.06
5997.00,1.06
5996.00,1.06
5995.00,1.06
5994.00,1.06
5993.00,1.06
5992.00,1.05
5991.00,1.05
5990.00,1.05
5989.00,1.05
5988.00,1.05
5987.00,1.05
5986.00,1.05
5985.00,1.05
5984.00,1.04
5983.00,1.04
5982.00,1.04
5981.00,1.04
5980.00,1.03
5979.00,1.03
5978.00,1.03
5977.00,1.02
5976.00,1.02
5975.00,1.02
5974.00,1.01
5973.00,1.01
5972.00,1.01
5971.00,1.00
5970.00,1.00
5969.00,0.99
5968.00,0.99
5967.00,0.98
5966.00,0.98
5965.00,0.97
5964.00,0.97
5963.00,0.96
5962.00,0.96
5961.00,0.95
5960.00,0.95
5959.00,0.94
5958.00,0.94
5957.00,0.93
5956.00,0.93
5955.00,0.92
5954.00,0.92
5953.00,0.91
5952.00,0.91
5951.00,0.91
5950.00,0.90
5949.00,0.90
5948.00,0.89
5947.00,0.89
5946.00,0.89
5945.00,0.89
5944.00,0.88
5943.00,0.88
5942.00,0.88
5941.00,0.88
5940.00,0.88
5939.00,0.87
5938.00,0.87
5937.00,0.87
5936.00,0.87
5935.00,0.87
5934.00,0.87
5933.00,0.87
5932.00,0.87
5931.00,0.87
5930.00,0.87
5929.00,0.87
5928.00,0.87
5927.00,0.87
5926.00,0.87
5925.00,0.86
5924.00,0.86
5923.00,0.86
5922.00,0.86
5921.00,0.86
5920.00,0.86
5919.00,0.86
5918.00,0.86
5917.00,0.85
5916.00,0.85
5915.00,0.85
5914.00,0.85
5913.00,0.85
5912.00,0.85
5911.00,0.84
5910.00,0.84
5909.00,0.84
5908.00,0.84
5907.00,0.84
5906.00,0.84
5905.00,0.84
5904.00,0.83
5903.00,0.83
5902.00,0.83
5901.00,0.83
5900.00,0.83
5899.00,0.83
5898.00,0.83
5897.00,0.83
5896.00,0.84
5895.00,0.84
5894.00,0.84
5893.00,0.84
5892.00,0.84
5891.00,0.84
5890.00,0.84
5889.00,0.85
5888.00,0.85
5887.00,0.85
5886.00,0.85
5885.00,0.86
5884.00,0.86
5883.00,0.86
5882.00,0.86
5881.00,0.87
5880.00,0.87
5879.00,0.87
5878.00,0.87
5877.00,0.87
5876.00,0.88
5875.00,0.88
5874.00,0.88
5873.00,0.88
5872.00,0.88
5871.00,0.89
5870.00,0.89
5869.00,0.89
5868.00,0.89
5867.00,0.89
5866.00,0.89
5865.00,0.89
5864.00,0.90
5863.00,0.90
5862.00,0.90
5861.00,0.90
5860.00,0.90
5859.00,0.90
5858.00,0.90
5857.00,0.90
5856.00,0.91
5855.00,0.91
5854.00,0.91
5853.00,0.91
5852.00,0.91
5851.00,0.91
5850.00,0.91
5849.00,0.91
5848.00,0.91
5847.00,0.91
5846.00,0.91
5845.00,0.91
5844.00,0.91
5843.00,0.91
5842.00,0.91
5841.00,0.91
5840.00,0.91
5839.00,0.91
5838.00,0.91
5837.00,0.91
5836.00,0.91
5835.00,0.91
5834.00,0.91
5833.00,0.91
5832.00,0.91
5831.00,0.91
5830.00,0.91
5829.00,0.91
5828.00,0.91
5827.00,0.91
5826.00,0.91
5825.00,0.91
5824.00,0.91
5823.00,0.91
5822.00,0.91
5821.00,0.91
5820.00,0.91
5819.00,0.91
5818.00,0.91
5817.00,0.91
5816.00,0.91
5815.00,0.91
5814.00,0.91
5813.00,0.91
5812.00,0.91
5811.00,0.91
5810.00,0.91
5809.00,0.91
5808.00,0.91
5807.00,0.91
5806.00,0.91
5805.00,0.91
5804.00,0.91
5803.00,0.91
5802.00,0.91
5801.00,0.91
5800.00,0.91
5799.00,0.91
5798.00,0.91
5797.00,0.91
5796.00,0.90
5795.00,0.90
5794.00,0.90
5793.00,0.90
5792.00,0.90
5791.00,0.89
5790.00,0.89
5789.00,0.89
5788.00,0.89
5787.00,0.88
5786.00,0.88
5785.00,0.88
5784.00,0.88
5783.00,0.88
5782.00,0.88
5781.00,0.87
5780.00,0.87
5779.00,0.87
5778.00,0.87
5777.00,0.87
5776.00,0.87
5775.00,0.87
5774.00,0.87
5773.00,0.87
5772.00,0.87
5771.00,0.87
5770.00,0.87
5769.00,0.87
5768.00,0.87
5767.00,0.88
5766.00,0.88
5765.00,0.88
5764.00,0.88
5763.00,0.88
5762.00,0.88
5761.00,0.89
5760.00,0.89
5759.00,0.89
5758.00,0.89
5757.00,0.90
5756.00,0.90
5755.00,0.90
5754.00,0.90
5753.00,0.90
5752.00,0.91
5751.00,0.91
5750.00,0.91
5749.00,0.91
5748.00,0.92
5747.00,0.92
5746.00,0.92
5745.00,0.92
5744.00,0.93
5743.00,0.93
5742.00,0.93
5741.00,0.93
5740.00,0.94
5739.00,0.94
5738.00,0.94
5737.00,0.94
5736.00,0.94
5735.00,0.94
5734.00,0.95
5733.00,0.95
5732.00,0.95
5731.00,0.95
5730.00,0.95
5729.00,0.95
5728.00,0.95
5727.00,0.95
5726.00,0.95
5725.00,0.95
5724.00,0.95
5723.00,0.95
5722.00,0.95
5721.00,0.95
5720.00,0.95
5719.00,0.95
5718.00,0.95
5717.00,0.95
5716.00,0.95
5715.00,0.95
5714.00,0.95
5713.00,0.95
5712.00,0.95
5711.00,0.95
5710.00,0.95
5709.00,0.95
5708.00,0.95
5707.00,0.95
5706.00,0.95
5705.00,0.95
5704.00,0.95
5703.00,0.95
5702.00,0.95
5701.00,0.95
5700.00,0.95
5699.00,0.95
5698.00,0.94
5697.00,0.94
5696.00,0.94
5695.00,0.94
5694.00,0.94
5693.00,0.94
5692.00,0.94
5691.00,0.94
5690.00,0.94
5689.00,0.94
5688.00,0.94
5687.00,0.93
5686.00,0.93
5685.00,0.93
5684.00,0.93
5683.00,0.93
5682.00,0.93
5681.00,0.93
5680.00,0.93
5679.00,0.93
5678.00,0.93
5677.00,0.93
5676.00,0.93
5675.00,0.93
5674.00,0.93
5673.00,0.93
5672.00,0.93
5671.00,0.93
5670.00,0.93
5669.00,0.93
5668.00,0.93
5667.00,0.93
5666.00,0.93
5665.00,0.94
5664.00,0.94
5663.00,0.94
5662.00,0.94
5661.00,0.94
5660.00,0.94
5659.00,0.94
5658.00,0.94
5657.00,0.94
5656.00,0.94
5655.00,0.95
5654.00,0.95
5653.00,0.95
5652.00,0.95
5651.00,0.95
5650.00,0.95
5649.00,0.95
5648.00,0.96
5647.00,0.96
5646.00,0.96
5645.00,0.96
5644.00,0.96
5643.00,0.96
5642.00,0.96
5641.00,0.96
5640.00,0.97
5639.00,0.97
5638.00,0.97
5637.00,0.97
5636.00,0.97
5635.00,0.97
5634.00,0.97
5633.00,0.97
5632.00,0.97
5631.00,0.98
5630.00,0.98
5629.00,0.98
5628.00,0.98
5627.00,0.98
5626.00,0.98
5625.00,0.98
5624.00,0.99
5623.00,0.99
5622.00,0.99
5621.00,0.99
5620.00,0.99
5619.00,0.99
5618.00,0.99
5617.00,0.99
5616.00,1.00
5615.00,1.00
5614.00,1.00
5613.00,1.00
5612.00,1.00
5611.00,1.00
5610.00,1.00
5609.00,1.00
5608.00,1.00
5607.00,1.01
5606.00,1.01
5605.00,1.01
5604.00,1.01
5603.00,1.01
5602.00,1.01
5601.00,1.01
5600.00,1.01
5599.00,1.02
5598.00,1.02
5597.00,1.02
5596.00,1.02
5595.00,1.02
5594.00,1.02
5593.00,1.02
5592.00,1.02
5591.00,1.03
5590.00,1.03
5589.00,1.03
5588.00,1.03
5587.00,1.03
5586.00,1.03
5585.00,1.03
5584.00,1.03
5583.00,1.03
5582.00,1.03
5581.00,1.03
5580.00,1.03
5579.00,1.04
5578.00,1.04
5577.00,1.04
5576.00,1.04
5575.00,1.04
5574.00,1.04
5573.00,1.04
5572.00,1.04
5571.00,1.04
5570.00,1.05
5569.00,1.05
5568.00,1.05
5567.00,1.05
5566.00,1.05
5565.00,1.05
5564.00,1.05
5563.00,1.05
5562.00,1.05
5561.00,1.05
5560.00,1.06
5559.00,1.06
5558.00,1.06
5557.00,1.06
5556.00,1.06
5555.00,1.06
5554.00,1.06
5553.00,1.06
5552.00,1.06
5551.00,1.06
5550.00,1.06
5549.00,1.06
5548.00,1.06
5547.00,1.06
5546.00,1.06
5545.00,1.07
5544.00,1.07
5543.00,1.07
5542.00,1.07
5541.00,1.07
5540.00,1.07
5539.00,1.07
5538.00,1.07
5537.00,1.07
5536.00,1.07
5535.00,1.07
5534.00,1.07
5533.00,1.08
5532.00,1.08
5531.00,1.08
5530.00,1.08
5529.00,1.08
5528.00,1.08
5527.00,1.08
5526.00,1.08
5525.00,1.08
5524.00,1.09
5523.00,1.09
5522.00,1.09
5521.00,1.09
5520.00,1.09
5519.00,1.09
5518.00,1.09
5517.00,1.09
5516.00,1.09
5515.00,1.09
5514.00,1.09
5513.00,1.09
5512.00,1.09
5511.00,1.09
5510.00,1.09
5509.00,1.10
5508.00,1.10
5507.00,1.10
5506.00,1.10
5505.00,1.10
5504.00,1.10
5503.00,1.10
5502.00,1.10
5501.00,1.10
5500.00,1.10
5499.00,1.10
5498.00,1.10
5497.00,1.10
5496.00,1.10
5495.00,1.10
5494.00,1.10
5493.00,1.10
5492.00,1.10
5491.00,1.10
5490.00,1.10
5489.00,1.10
5488.00,1.10
5487.00,1.11
5486.00,1.11
5485.00,1.11
5484.00,1.11
5483.00,1.11
5482.00,1.11
5481.00,1.11
5480.00,1.11
5479.00,1.11
5478.00,1.11
5477.00,1.11
5476.00,1.12
5475.00,1.12
5474.00,1.12
5473.00,1.12
5472.00,1.12
5471.00,1.12
5470.00,1.12
5469.00,1.12
5468.00,1.12
5467.00,1.12
5466.00,1.12
5465.00,1.12
5464.00,1.12
5463.00,1.13
5462.00,1.13
5461.00,1.13
5460.00,1.13
5459.00,1.13
5458.00,1.13
5457.00,1.13
5456.00,1.13
5455.00,1.13
5454.00,1.14
5453.00,1.14
5452.00,1.14
5451.00,1.14
5450.00,1.14
5449.00,1.14
5448.00,1.14
5447.00,1.14
5446.00,1.14
5445.00,1.14
5444.00,1.14
5443.00,1.14
5442.00,1.14
5441.00,1.14
5440.00,1.14
5439.00,1.14
5438.00,1.14
5437.00,1.14
5436.00,1.14
5435.00,1.14
5434.00,1.14
5433.00,1.14
5432.00,1.14
5431.00,1.14
5430.00,1.14
5429.00,1.14
5428.00,1.14
5427.00,1.14
5426.00,1.14
5425.00,1.14
5424.00,1.14
5423.00,1.14
5422.00,1.14
5421.00,1.14
5420.00,1.14
5419.00,1.14
5418.00,1.14
5417.00,1.14
5416.00,1.14
5415.00,1.14
5414.00,1.14
5413.00,1.14
5412.00,1.14
5411.00,1.14
5410.00,1.14
5409.00,1.14
5408.00,1.14
5407.00,1.14
5406.00,1.14
5405.00,1.14
5404.00,1.14
5403.00,1.14
5402.00,1.14
5401.00,1.14
5400.00,1.14
5399.00,1.13
5398.00,1.13
5397.00,1.13
5396.00,1.13
5395.00,1.13
5394.00,1.13
5393.00,1.13
5392.00,1.13
5391.00,1.12
5390.00,1.12
5389.00,1.12
5388.00,1.12
5387.00,1.12
5386.00,1.11
5385.00,1.11
5384.00,1.11
5383.00,1.11
5382.00,1.10
5381.00,1.10
5380.00,1.10
5379.00,1.09
5378.00,1.09
5377.00,1.09
5376.00,1.09
5375.00,1.08
5374.00,1.08
5373.00,1.08
5372.00,1.07
5371.00,1.07
5370.00,1.07
5369.00,1.06
5368.00,1.06
5367.00,1.05
5366.00,1.05
5365.00,1.04
5364.00,1.04
5363.00,1.03
5362.00,1.03
5361.00,1.02
5360.00,1.02
5359.00,1.01
5358.00,1.01
5357.00,1.00
5356.00,1.00
5355.00,0.99
5354.00,0.98
5353.00,0.98
5352.00,0.97
5351.00,0.97
5350.00,0.96
5349.00,0.95
5348.00,0.95
5347.00,0.94
5346.00,0.93
5345.00,0.93
5344.00,0.92
5343.00,0.91
5342.00,0.91
5341.00,0.90
5340.00,0.89
5339.00,0.89
5338.00,0.88
5337.00,0.87
5336.00,0.87
5335.00,0.86
5334.00,0.85
5333.00,0.85
5332.00,0.84
5331.00,0.83
5330.00,0.83
5329.00,0.82
5328.00,0.82
5327.00,0.81
5326.00,0.80
5325.00,0.80
5324.00,0.79
5323.00,0.79
5322.00,0.78
5321.00,0.78
5320.00,0.77
5319.00,0.76
5318.00,0.76
5317.00,0.75
5316.00,0.75
5315.00,0.74
5314.00,0.74
5313.00,0.73
5312.00,0.73
5311.00,0.73
5310.00,0.72
5309.00,0.72
5308.00,0.71
5307.00,0.71
5306.00,0.71
5305.00,0.70
5304.00,0.70
5303.00,0.70
5302.00,0.70
5301.00,0.69
5300.00,0.69
5299.00,0.69
5298.00,0.69
5297.00,0.69
5296.00,0.69
5295.00,0.69
5294.00,0.68
5293.00,0.68
5292.00,0.68
5291.00,0.68
5290.00,0.68
5289.00,0.68
5288.00,0.68
5287.00,0.68
5286.00,0.68
5285.00,0.68
5284.00,0.68
5283.00,0.68
5282.00,0.68
5281.00,0.68
5280.00,0.68
5279.00,0.68
5278.00,0.68
5277.00,0.68
5276.00,0.68
5275.00,0.67
5274.00,0.67
5273.00,0.67
5272.00,0.67
5271.00,0.67
5270.00,0.67
5269.00,0.67
5268.00,0.67
5267.00,0.67
5266.00,0.67
5265.00,0.67
5264.00,0.67
5263.00,0.67
5262.00,0.67
5261.00,0.67
5260.00,0.67
5259.00,0.67
5258.00,0.67
5257.00,0.67
5256.00,0.67
5255.00,0.67
5254.00,0.67
5253.00,0.67
5252.00,0.67
5251.00,0.67
5250.00,0.67
5249.00,0.67
5248.00,0.67
5247.00,0.67
5246.00,0.67
5245.00,0.67
5244.00,0.67
5243.00,0.67
5242.00,0.67
5241.00,0.67
5240.00,0.67
5239.00,0.67
5238.00,0.67
5237.00,0.67
5236.00,0.67
5235.00,0.67
5234.00,0.67
5233.00,0.67
5232.00,0.67
5231.00,0.67
5230.00,0.67
5229.00,0.67
5228.00,0.67
5227.00,0.67
5226.00,0.67
5225.00,0.67
5224.00,0.67
5223.00,0.68
5222.00,0.68
5221.00,0.68
5220.00,0.68
5219.00,0.68
5218.00,0.68
5217.00,0.68
5216.00,0.68
5215.00,0.68
5214.00,0.68
5213.00,0.68
5212.00,0.68
5211.00,0.68
5210.00,0.68
5209.00,0.68
5208.00,0.68
5207.00,0.68
5206.00,0.68
5205.00,0.68
5204.00,0.68
5203.00,0.68
5202.00,0.68
5201.00,0.68
5200.00,0.68
5199.00,0.68
5198.00,0.68
5197.00,0.68
5196.00,0.68
5195.00,0.68
5194.00,0.68
5193.00,0.68
5192.00,0.68
5191.00,0.68
5190.00,0.68
5189.00,0.69
5188.00,0.69
5187.00,0.69
5186.00,0.69
5185.00,0.69
5184.00,0.69
5183.00,0.69
5182.00,0.69
5181.00,0.69
5180.00,0.69
5179.00,0.69
5178.00,0.69
5177.00,0.69
5176.00,0.69
5175.00,0.69
5174.00,0.69
5173.00,0.69
5172.00,0.69
5171.00,0.69
5170.00,0.69
5169.00,0.69
5168.00,0.69
5167.00,0.69
5166.00,0.70
5165.00,0.70
5164.00,0.70
5163.00,0.70
5162.00,0.70
5161.00,0.70
5160.00,0.70
5159.00,0.70
5158.00,0.70
5157.00,0.70
5156.00,0.70
5155.00,0.70
5154.00,0.70
5153.00,0.70
5152.00,0.70
5151.00,0.70
5150.00,0.70
5149.00,0.70
5148.00,0.70
5147.00,0.70
5146.00,0.70
5145.00,0.70
5144.00,0.70
5143.00,0.70
5142.00,0.70
5141.00,0.71
5140.00,0.71
5139.00,0.71
5138.00,0.71
5137.00,0.71
5136.00,0.71
5135.00,0.71
5134.00,0.71
5133.00,0.71
5132.00,0.71
5131.00,0.71
5130.00,0.71
5129.00,0.71
5128.00,0.71
5127.00,0.71
5126.00,0.71
5125.00,0.71
5124.00,0.71
5123.00,0.71
5122.00,0.71
5121.00,0.71
5120.00,0.71
5119.00,0.71
5118.00,0.71
5117.00,0.71
5116.00,0.71
5115.00,0.71
5114.00,0.71
5113.00,0.71
5112.00,0.71
5111.00,0.71
5110.00,0.71
5109.00,0.71
5108.00,0.71
5107.00,0.71
5106.00,0.71
5105.00,0.71
5104.00,0.71
5103.00,0.71
5102.00,0.72
5101.00,0.72
5100.00,0.72
5099.00,0.72
5098.00,0.72
5097.00,0.72
5096.00,0.72
5095.00,0.72
5094.00,0.72
5093.00,0.72
5092.00,0.72
5091.00,0.72
5090.00,0.72
5089.00,0.72
5088.00,0.72
5087.00,0.72
5086.00,0.72
5085.00,0.72
5084.00,0.73
5083.00,0.73
5082.00,0.73
5081.00,0.73
5080.00,0.73
5079.00,0.73
5078.00,0.73
5077.00,0.73
5076.00,0.73
5075.00,0.73
5074.00,0.73
5073.00,0.73
5072.00,0.73
5071.00,0.73
5070.00,0.73
5069.00,0.73
5068.00,0.73
5067.00,0.73
5066.00,0.73
5065.00,0.73
5064.00,0.73
5063.00,0.73
5062.00,0.73
5061.00,0.73
5060.00,0.73
5059.00,0.73
5058.00,0.73
5057.00,0.73
5056.00,0.73
5055.00,0.73
5054.00,0.73
5053.00,0.73
5052.00,0.73
5051.00,0.73
5050.00,0.73
5049.00,0.73
5048.00,0.73
5047.00,0.73
5046.00,0.73
5045.00,0.73
5044.00,0.73
5043.00,0.73
5042.00,0.73
5041.00,0.73
5040.00,0.73
5039.00,0.73
5038.00,0.73
5037.00,0.73
5036.00,0.74
5035.00,0.74
5034.00,0.74
5033.00,0.74
5032.00,0.74
5031.00,0.74
5030.00,0.74
5029.00,0.74
5028.00,0.74
5027.00,0.74
5026.00,0.74
5025.00,0.74
5024.00,0.74
5023.00,0.74
5022.00,0.75
5021.00,0.75
5020.00,0.75
5019.00,0.75
5018.00,0.75
5017.00,0.75
5016.00,0.75
5015.00,0.75
5014.00,0.75
5013.00,0.75
5012.00,0.75
5011.00,0.75
5010.00,0.75
5009.00,0.75
5008.00,0.75
5007.00,0.75
5006.00,0.75
5005.00,0.75
5004.00,0.75
5003.00,0.75
5002.00,0.75
5001.00,0.75
5000.00,0.75
4999.00,0.75
4998.00,0.75
4997.00,0.76
4996.00,0.76
4995.00,0.76
4994.00,0.76
4993.00,0.76
4992.00,0.76
4991.00,0.76
4990.00,0.76
4989.00,0.76
4988.00,0.76
4987.00,0.76
4986.00,0.76
4985.00,0.76
4984.00,0.76
4983.00,0.76
4982.00,0.76
4981.00,0.76
4980.00,0.76
4979.00,0.76
4978.00,0.77
4977.00,0.77
4976.00,0.77
4975.00,0.77
4974.00,0.77
4973.00,0.77
4972.00,0.77
4971.00,0.77
4970.00,0.77
4969.00,0.77
4968.00,0.77
4967.00,0.77
4966.00,0.77
4965.00,0.77
4964.00,0.77
4963.00,0.77
4962.00,0.77
4961.00,0.77
4960.00,0.77
4959.00,0.77
4958.00,0.77
4957.00,0.77
4956.00,0.77
4955.00,0.77
4954.00,0.78
4953.00,0.78
4952.00,0.78
4951.00,0.78
4950.00,0.78
4949.00,0.78
4948.00,0.78
4947.00,0.78
4946.00,0.78
4945.00,0.78
4944.00,0.78
4943.00,0.78
4942.00,0.78
4941.00,0.78
4940.00,0.78
4939.00,0.78
4938.00,0.78
4937.00,0.78
4936.00,0.78
4935.00,0.78
4934.00,0.79
4933.00,0.79
4932.00,0.79
4931.00,0.79
4930.00,0.79
4929.00,0.79
4928.00,0.79
4927.00,0.79
4926.00,0.79
4925.00,0.79
4924.00,0.79
4923.00,0.79
4922.00,0.79
4921.00,0.79
4920.00,0.79
4919.00,0.79
4918.00,0.79
4917.00,0.79
4916.00,0.79
4915.00,0.79
4914.00,0.79
4913.00,0.79
4912.00,0.79
4911.00,0.79
4910.00,0.79
4909.00,0.79
4908.00,0.79
4907.00,0.79
4906.00,0.79
4905.00,0.79
4904.00,0.79
4903.00,0.79
4902.00,0.79
4901.00,0.79
4900.00,0.80
4899.00,0.80
4898.00,0.80
4897.00,0.80
4896.00,0.80
4895.00,0.80
4894.00,0.80
4893.00,0.80
4892.00,0.80
4891.00,0.80
4890.00,0.80
4889.00,0.81
4888.00,0.81
4887.00,0.81
4886.00,0.81
4885.00,0.81
4884.00,0.81
4883.00,0.81
4882.00,0.81
4881.00,0.81
4880.00,0.81
4879.00,0.81
4878.00,0.81
4877.00,0.81
4876.00,0.81
4875.00,0.81
4874.00,0.81
4873.00,0.81
4872.00,0.81
4871.00,0.81
4870.00,0.81
4869.00,0.81
4868.00,0.81
4867.00,0.81
4866.00,0.81
4865.00,0.81
4864.00,0.81
4863.00,0.81
4862.00,0.81
4861.00,0.81
4860.00,0.81
4859.00,0.81
4858.00,0.81
4857.00,0.81
4856.00,0.81
4855.00,0.81
4854.00,0.81
4853.00,0.81
4852.00,0.81
4851.00,0.81
4850.00,0.81
4849.00,0.82
4848.00,0.82
4847.00,0.82
4846.00,0.82
4845.00,0.82
4844.00,0.82
4843.00,0.82
4842.00,0.82
4841.00,0.82
4840.00,0.82
4839.00,0.82
4838.00,0.82
4837.00,0.82
4836.00,0.82
4835.00,0.82
4834.00,0.82
4833.00,0.82
4832.00,0.82
4831.00,0.82
4830.00,0.82
4829.00,0.82
4828.00,0.83
4827.00,0.83
4826.00,0.83
4825.00,0.83
4824.00,0.83
4823.00,0.83
4822.00,0.83
4821.00,0.83
4820.00,0.83
4819.00,0.83
4818.00,0.83
4817.00,0.83
4816.00,0.83
4815.00,0.83
4814.00,0.83
4813.00,0.83
4812.00,0.83
4811.00,0.83
4810.00,0.83
4809.00,0.83
4808.00,0.83
4807.00,0.83
4806.00,0.84
4805.00,0.84
4804.00,0.84
4803.00,0.84
4802.00,0.84
4801.00,0.84
4800.00,0.84
4799.00,0.84
4798.00,0.84
4797.00,0.84
4796.00,0.84
4795.00,0.84
4794.00,0.85
4793.00,0.85
4792.00,0.85
4791.00,0.85
4790.00,0.85
4789.00,0.85
4788.00,0.85
4787.00,0.85
4786.00,0.85
4785.00,0.86
4784.00,0.86
4783.00,0.86
4782.00,0.86
4781.00,0.86
4780.00,0.86
4779.00,0.86
4778.00,0.86
4777.00,0.86
4776.00,0.86
4775.00,0.86
4774.00,0.86
4773.00,0.86
4772.00,0.86
4771.00,0.86
4770.00,0.86
4769.00,0.86
4768.00,0.86
4767.00,0.86
4766.00,0.86
4765.00,0.86
4764.00,0.86
4763.00,0.86
4762.00,0.86
4761.00,0.86
4760.00,0.86
4759.00,0.86
4758.00,0.86
4757.00,0.86
4756.00,0.87
4755.00,0.87
4754.00,0.87
4753.00,0.87
4752.00,0.87
4751.00,0.87
4750.00,0.87
4749.00,0.87
4748.00,0.88
4747.00,0.88
4746.00,0.88
4745.00,0.88
4744.00,0.88
4743.00,0.88
4742.00,0.88
4741.00,0.88
4740.00,0.88
4739.00,0.88
4738.00,0.88
4737.00,0.89
4736.00,0.89
4735.00,0.89
4734.00,0.89
4733.00,0.89
4732.00,0.89
4731.00,0.89
4730.00,0.89
4729.00,0.89
4728.00,0.89
4727.00,0.90
4726.00,0.90
4725.00,0.90
4724.00,0.90
4723.00,0.90
4722.00,0.90
4721.00,0.90
4720.00,0.90
4719.00,0.90
4718.00,0.90
4717.00,0.90
4716.00,0.90
4715.00,0.90
4714.00,0.90
4713.00,0.90
4712.00,0.90
4711.00,0.90
4710.00,0.90
4709.00,0.90
4708.00,0.90
4707.00,0.90
4706.00,0.91
4705.00,0.91
4704.00,0.91
4703.00,0.91
4702.00,0.91
4701.00,0.91
4700.00,0.91
4699.00,0.91
4698.00,0.91
4697.00,0.92
4696.00,0.92
4695.00,0.92
4694.00,0.92
4693.00,0.92
4692.00,0.92
4691.00,0.92
4690.00,0.92
4689.00,0.93
4688.00,0.93
4687.00,0.93
4686.00,0.93
4685.00,0.93
4684.00,0.93
4683.00,0.93
4682.00,0.93
4681.00,0.93
4680.00,0.93
4679.00,0.93
4678.00,0.93
4677.00,0.93
4676.00,0.93
4675.00,0.94
4674.00,0.94
4673.00,0.94
4672.00,0.94
4671.00,0.94
4670.00,0.94
4669.00,0.94
4668.00,0.94
4667.00,0.94
4666.00,0.94
4665.00,0.94
4664.00,0.94
4663.00,0.94
4662.00,0.94
4661.00,0.94
4660.00,0.94
4659.00,0.94
4658.00,0.94
4657.00,0.94
4656.00,0.94
4655.00,0.95
4654.00,0.95
4653.00,0.95
4652.00,0.95
4651.00,0.95
4650.00,0.95
4649.00,0.95
4648.00,0.95
4647.00,0.95
4646.00,0.95
4645.00,0.96
4644.00,0.96
4643.00,0.96
4642.00,0.96
4641.00,0.96
4640.00,0.96
4639.00,0.96
4638.00,0.96
4637.00,0.96
4636.00,0.97
4635.00,0.97
4634.00,0.97
4633.00,0.97
4632.00,0.97
4631.00,0.97
4630.00,0.97
4629.00,0.97
4628.00,0.97
4627.00,0.97
4626.00,0.97
4625.00,0.97
4624.00,0.97
4623.00,0.97
4622.00,0.97
4621.00,0.97
4620.00,0.97
4619.00,0.97
4618.00,0.97
4617.00,0.97
4616.00,0.97
4615.00,0.97
4614.00,0.97
4613.00,0.97
4612.00,0.97
4611.00,0.97
4610.00,0.97
4609.00,0.97
4608.00,0.97
4607.00,0.97
4606.00,0.97
4605.00,0.97
4604.00,0.97
4603.00,0.97
4602.00,0.98
4601.00,0.98
4600.00,0.98
4599.00,0.98
4598.00,0.98
4597.00,0.98
4596.00,0.98
4595.00,0.98
4594.00,0.98
4593.00,0.98
4592.00,0.99
4591.00,0.99
4590.00,0.99
4589.00,0.99
4588.00,0.99
4587.00,0.99
4586.00,0.99
4585.00,0.99
4584.00,0.99
4583.00,0.99
4582.00,0.99
4581.00,0.99
4580.00,0.99
4579.00,0.99
4578.00,0.99
4577.00,1.00
4576.00,1.00
4575.00,1.00
4574.00,1.00
4573.00,1.00
4572.00,1.00
4571.00,1.00
4570.00,1.00
4569.00,1.00
4568.00,1.00
4567.00,1.00
4566.00,1.00
4565.00,1.00
4564.00,1.00
4563.00,1.00
4562.00,1.00
4561.00,1.00
4560.00,1.00
4559.00,1.01
4558.00,1.01
4557.00,1.01
4556.00,1.01
4555.00,1.01
4554.00,1.01
4553.00,1.01
4552.00,1.01
4551.00,1.01
4550.00,1.01
4549.00,1.01
4548.00,1.01
4547.00,1.01
4546.00,1.01
4545.00,1.01
4544.00,1.01
4543.00,1.01
4542.00,1.01
4541.00,1.01
4540.00,1.01
4539.00,1.01
4538.00,1.01
4537.00,1.01
4536.00,1.01
4535.00,1.01
4534.00,1.01
4533.00,1.01
4532.00,1.01
4531.00,1.01
4530.00,1.01
4529.00,1.01
4528.00,1.01
4527.00,1.01
4526.00,1.01
4525.00,1.01
4524.00,1.02
4523.00,1.02
4522.00,1.02
4521.00,1.02
4520.00,1.02
4519.00,1.02
4518.00,1.02
4517.00,1.02
4516.00,1.02
4515.00,1.02
4514.00,1.02
4513.00,1.02
4512.00,1.02
4511.00,1.02
4510.00,1.02
4509.00,1.02
4508.00,1.02
4507.00,1.02
4506.00,1.02
4505.00,1.02
4504.00,1.02
4503.00,1.02
4502.00,1.02
4501.00,1.02
4500.00,1.02
4499.00,1.01
4498.00,1.01
4497.00,1.01
4496.00,1.01
4495.00,1.01
4494.00,1.01
4493.00,1.01
4492.00,1.01
4491.00,1.01
4490.00,1.01
4489.00,1.01
4488.00,1.01
4487.00,1.01
4486.00,1.01
4485.00,1.00
4484.00,1.00
4483.00,1.00
4482.00,1.00
4481.00,1.00
4480.00,1.00
4479.00,1.00
4478.00,1.00
4477.00,1.00
4476.00,1.00
4475.00,1.00
4474.00,1.00
4473.00,1.00
4472.00,1.00
4471.00,1.00
4470.00,1.00
4469.00,0.99
4468.00,0.99
4467.00,0.99
4466.00,0.99
4465.00,0.99
4464.00,0.99
4463.00,0.99
4462.00,0.99
4461.00,0.99
4460.00,0.99
4459.00,0.99
4458.00,0.99
4457.00,0.98
4456.00,0.98
4455.00,0.98
4454.00,0.98
4453.00,0.98
4452.00,0.98
4451.00,0.98
4450.00,0.98
4449.00,0.97
4448.00,0.97
4447.00,0.97
4446.00,0.97
4445.00,0.97
4444.00,0.96
4443.00,0.96
4442.00,0.96
4441.00,0.96
4440.00,0.96
4439.00,0.96
4438.00,0.95
4437.00,0.95
4436.00,0.95
4435.00,0.95
4434.00,0.95
4433.00,0.95
4432.00,0.95
4431.00,0.95
4430.00,0.95
4429.00,0.95
4428.00,0.95
4427.00,0.95
4426.00,0.95
4425.00,0.95
4424.00,0.95
4423.00,0.95
4422.00,0.95
4421.00,0.95
4420.00,0.95
4419.00,0.95
4418.00,0.95
4417.00,0.95
4416.00,0.95
4415.00,0.95
4414.00,0.95
4413.00,0.95
4412.00,0.95
4411.00,0.95
4410.00,0.95
4409.00,0.95
4408.00,0.96
4407.00,0.96
4406.00,0.96
4405.00,0.96
4404.00,0.96
4403.00,0.96
4402.00,0.96
4401.00,0.96
4400.00,0.96
4399.00,0.96
4398.00,0.96
4397.00,0.96
4396.00,0.96
4395.00,0.96
4394.00,0.96
4393.00,0.96
4392.00,0.96
4391.00,0.96
4390.00,0.96
4389.00,0.96
4388.00,0.96
4387.00,0.96
4386.00,0.96
4385.00,0.96
4384.00,0.96
4383.00,0.96
4382.00,0.96
4381.00,0.96
4380.00,0.96
4379.00,0.96
4378.00,0.96
4377.00,0.96
4376.00,0.96
4375.00,0.96
4374.00,0.96
4373.00,0.96
4372.00,0.96
4371.00,0.96
4370.00,0.96
4369.00,0.96
4368.00,0.96
4367.00,0.97
4366.00,0.97
4365.00,0.97
4364.00,0.97
4363.00,0.97
4362.00,0.97
4361.00,0.97
4360.00,0.97
4359.00,0.97
4358.00,0.97
4357.00,0.97
4356.00,0.97
4355.00,0.97
4354.00,0.97
4353.00,0.97
4352.00,0.97
4351.00,0.97
4350.00,0.97
4349.00,0.97
4348.00,0.97
4347.00,0.97
4346.00,0.97
4345.00,0.97
4344.00,0.97
4343.00,0.97
4342.00,0.97
4341.00,0.97
4340.00,0.97
4339.00,0.97
4338.00,0.97
4337.00,0.97
4336.00,0.97
4335.00,0.97
4334.00,0.97
4333.00,0.98
4332.00,0.98
4331.00,0.98
4330.00,0.98
4329.00,0.98
4328.00,0.98
4327.00,0.98
4326.00,0.98
4325.00,0.98
4324.00,0.98
4323.00,0.98
4322.00,0.98
4321.00,0.98
4320.00,0.99
4319.00,0.99
4318.00,0.99
4317.00,0.99
4316.00,0.99
4315.00,0.99
4314.00,0.99
4313.00,0.99
4312.00,0.99
4311.00,0.99
4310.00,0.99
4309.00,0.99
4308.00,1.00
4307.00,1.00
4306.00,1.00
4305.00,1.00
4304.00,1.00
4303.00,1.00
4302.00,1.00
4301.00,1.00
4300.00,1.00
4299.00,1.00
4298.00,1.00
4297.00,1.01
4296.00,1.01
4295.00,1.01
4294.00,1.01
4293.00,1.01
4292.00,1.01
4291.00,1.01
4290.00,1.02
4289.00,1.02
4288.00,1.02
4287.00,1.02
4286.00,1.02
4285.00,1.02
4284.00,1.02
4283.00,1.02
4282.00,1.02
4281.00,1.02
4280.00,1.02
4279.00,1.02
4278.00,1.02
4277.00,1.02
4276.00,1.02
4275.00,1.02
4274.00,1.02
4273.00,1.02
4272.00,1.02
4271.00,1.02
4270.00,1.02
4269.00,1.02
4268.00,1.02
4267.00,1.02
4266.00,1.02
4265.00,1.02
4264.00,1.02
4263.00,1.02
4262.00,1.02
4261.00,1.02
4260.00,1.02
4259.00,1.02
4258.00,1.02
4257.00,1.02
4256.00,1.02
4255.00,1.02
4254.00,1.02
4253.00,1.02
4252.00,1.02
4251.00,1.02
4250.00,1.02
4249.00,1.02
4248.00,1.02
4247.00,1.02
4246.00,1.02
4245.00,1.02
4244.00,1.02
4243.00,1.02
4242.00,1.02
4241.00,1.02
4240.00,1.02
4239.00,1.03
4238.00,1.03
4237.00,1.03
4236.00,1.03
4235.00,1.03
4234.00,1.03
4233.00,1.03
4232.00,1.03
4231.00,1.03
4230.00,1.03
4229.00,1.03
4228.00,1.03
4227.00,1.03
4226.00,1.03
4225.00,1.03
4224.00,1.03
4223.00,1.03
4222.00,1.03
4221.00,1.03
4220.00,1.03
4219.00,1.03
4218.00,1.03
4217.00,1.03
4216.00,1.03
4215.00,1.03
4214.00,1.03
4213.00,1.03
4212.00,1.04
4211.00,1.04
4210.00,1.04
4209.00,1.04
4208.00,1.04
4207.00,1.04
4206.00,1.04
4205.00,1.04
4204.00,1.04
4203.00,1.04
4202.00,1.04
4201.00,1.04
4200.00,1.04
4199.00,1.04
4198.00,1.04
4197.00,1.04
4196.00,1.04
4195.00,1.04
4194.00,1.04
4193.00,1.04
4192.00,1.04
4191.00,1.04
4190.00,1.04
4189.00,1.04
4188.00,1.04
4187.00,1.04
4186.00,1.04
4185.00,1.04
4184.00,1.04
4183.00,1.04
4182.00,1.04
4181.00,1.04
4180.00,1.04
4179.00,1.04
4178.00,1.04
4177.00,1.04
4176.00,1.04
4175.00,1.04
4174.00,1.04
4173.00,1.04
4172.00,1.05
4171.00,1.05
4170.00,1.05
4169.00,1.05
4168.00,1.05
4167.00,1.05
4166.00,1.05
4165.00,1.06
4164.00,1.06
4163.00,1.06
4162.00,1.06
4161.00,1.06
4160.00,1.06
4159.00,1.06
4158.00,1.06
4157.00,1.06
4156.00,1.06
4155.00,1.07
4154.00,1.07
4153.00,1.07
4152.00,1.07
4151.00,1.07
4150.00,1.07
4149.00,1.07
4148.00,1.07
4147.00,1.07
4146.00,1.07
4145.00,1.07
4144.00,1.07
4143.00,1.07
4142.00,1.07
4141.00,1.06
4140.00,1.06
4139.00,1.06
4138.00,1.06
4137.00,1.06
4136.00,1.06
4135.00,1.06
4134.00,1.06
4133.00,1.06
4132.00,1.06
4131.00,1.06
4130.00,1.06
4129.00,1.06
4128.00,1.06
4127.00,1.06
4126.00,1.06
4125.00,1.06
4124.00,1.06
4123.00,1.07
4122.00,1.07
4121.00,1.07
4120.00,1.07
4119.00,1.07
4118.00,1.07
4117.00,1.07
4116.00,1.07
4115.00,1.07
4114.00,1.07
4113.00,1.08
4112.00,1.08
4111.00,1.08
4110.00,1.08
4109.00,1.08
4108.00,1.08
4107.00,1.08
4106.00,1.08
4105.00,1.08
4104.00,1.08
4103.00,1.08
4102.00,1.08
4101.00,1.08
4100.00,1.08
4099.00,1.08
4098.00,1.08
4097.00,1.08
4096.00,1.08
4095.00,1.08
4094.00,1.08
4093.00,1.08
4092.00,1.08
4091.00,1.08
4090.00,1.08
4089.00,1.08
4088.00,1.08
4087.00,1.08
4086.00,1.08
4085.00,1.09
4084.00,1.09
4083.00,1.09
4082.00,1.09
4081.00,1.09
4080.00,1.09
4079.00,1.09
4078.00,1.09
4077.00,1.09
4076.00,1.09
4075.00,1.09
4074.00,1.09
4073.00,1.09
4072.00,1.09
4071.00,1.09
4070.00,1.09
4069.00,1.09
4068.00,1.09
4067.00,1.09
4066.00,1.08
4065.00,1.08
4064.00,1.08
4063.00,1.08
4062.00,1.08
4061.00,1.08
4060.00,1.08
4059.00,1.08
4058.00,1.08
4057.00,1.09
4056.00,1.09
4055.00,1.09
4054.00,1.09
4053.00,1.09
4052.00,1.09
4051.00,1.09
4050.00,1.09
4049.00,1.09
4048.00,1.09
4047.00,1.09
4046.00,1.09
4045.00,1.09
4044.00,1.09
4043.00,1.09
4042.00,1.09
4041.00,1.09
4040.00,1.09
4039.00,1.09
4038.00,1.09
4037.00,1.09
4036.00,1.09
4035.00,1.09
4034.00,1.09
4033.00,1.09
4032.00,1.09
4031.00,1.09
4030.00,1.09
4029.00,1.09
4028.00,1.10
4027.00,1.10
4026.00,1.10
4025.00,1.10
4024.00,1.10
4023.00,1.11
4022.00,1.11
4021.00,1.11
4020.00,1.11
4019.00,1.12
4018.00,1.12
4017.00,1.12
4016.00,1.12
4015.00,1.13
4014.00,1.13
4013.00,1.13
4012.00,1.13
4011.00,1.13
4010.00,1.14
4009.00,1.14
4008.00,1.14
4007.00,1.14
4006.00,1.14
4005.00,1.14
4004.00,1.14
4003.00,1.14
4002.00,1.14
4001.00,1.14
4000.00,1.14
