创建为新数据集,样品 587 用户 Administrator 日期 星期一, 七月 16 2018
cm-1,%T
10000.00,1.29
9999.00,1.29
9998.00,1.29
9997.00,1.29
9996.00,1.29
9995.00,1.29
9994.00,1.29
9993.00,1.29
9992.00,1.29
9991.00,1.29
9990.00,1.29
9989.00,1.29
9988.00,1.29
9987.00,1.29
9986.00,1.29
9985.00,1.29
9984.00,1.29
9983.00,1.29
9982.00,1.29
9981.00,1.29
9980.00,1.29
9979.00,1.29
9978.00,1.29
9977.00,1.29
9976.00,1.29
9975.00,1.29
9974.00,1.29
9973.00,1.29
9972.00,1.29
9971.00,1.29
9970.00,1.29
9969.00,1.29
9968.00,1.29
9967.00,1.29
9966.00,1.29
9965.00,1.29
9964.00,1.29
9963.00,1.29
9962.00,1.29
9961.00,1.29
9960.00,1.29
9959.00,1.29
9958.00,1.29
9957.00,1.29
9956.00,1.29
9955.00,1.29
9954.00,1.29
9953.00,1.29
9952.00,1.29
9951.00,1.29
9950.00,1.28
9949.00,1.28
9948.00,1.28
9947.00,1.28
9946.00,1.27
9945.00,1.27
9944.00,1.27
9943.00,1.27
9942.00,1.26
9941.00,1.26
9940.00,1.26
9939.00,1.26
9938.00,1.26
9937.00,1.26
9936.00,1.26
9935.00,1.26
9934.00,1.26
9933.00,1.26
9932.00,1.26
9931.00,1.26
9930.00,1.26
9929.00,1.26
9928.00,1.26
9927.00,1.26
9926.00,1.26
9925.00,1.26
9924.00,1.26
9923.00,1.26
9922.00,1.27
9921.00,1.27
9920.00,1.27
9919.00,1.27
9918.00,1.27
9917.00,1.27
9916.00,1.27
9915.00,1.27
9914.00,1.28
9913.00,1.28
9912.00,1.28
9911.00,1.28
9910.00,1.28
9909.00,1.28
9908.00,1.28
9907.00,1.28
9906.00,1.27
9905.00,1.27
9904.00,1.27
9903.00,1.27
9902.00,1.27
9901.00,1.27
9900.00,1.27
9899.00,1.26
9898.00,1.26
9897.00,1.26
9896.00,1.26
9895.00,1.26
9894.00,1.26
9893.00,1.26
9892.00,1.26
9891.00,1.26
9890.00,1.26
9889.00,1.26
9888.00,1.27
9887.00,1.27
9886.00,1.27
9885.00,1.27
9884.00,1.27
9883.00,1.28
9882.00,1.28
9881.00,1.28
9880.00,1.28
9879.00,1.28
9878.00,1.28
9877.00,1.29
9876.00,1.29
9875.00,1.29
9874.00,1.29
9873.00,1.29
9872.00,1.29
9871.00,1.29
9870.00,1.29
9869.00,1.29
9868.00,1.29
9867.00,1.29
9866.00,1.29
9865.00,1.29
9864.00,1.29
9863.00,1.29
9862.00,1.29
9861.00,1.29
9860.00,1.29
9859.00,1.29
9858.00,1.29
9857.00,1.29
9856.00,1.29
9855.00,1.29
9854.00,1.29
9853.00,1.29
9852.00,1.29
9851.00,1.29
9850.00,1.29
9849.00,1.29
9848.00,1.29
9847.00,1.29
9846.00,1.29
9845.00,1.29
9844.00,1.28
9843.00,1.28
9842.00,1.28
9841.00,1.28
9840.00,1.28
9839.00,1.28
9838.00,1.28
9837.00,1.28
9836.00,1.27
9835.00,1.27
9834.00,1.27
9833.00,1.27
9832.00,1.27
9831.00,1.27
9830.00,1.27
9829.00,1.27
9828.00,1.27
9827.00,1.27
9826.00,1.27
9825.00,1.27
9824.00,1.27
9823.00,1.27
9822.00,1.27
9821.00,1.27
9820.00,1.27
9819.00,1.27
9818.00,1.27
9817.00,1.28
9816.00,1.28
9815.00,1.28
9814.00,1.28
9813.00,1.28
9812.00,1.28
9811.00,1.28
9810.00,1.28
9809.00,1.28
9808.00,1.29
9807.00,1.29
9806.00,1.29
9805.00,1.29
9804.00,1.29
9803.00,1.29
9802.00,1.29
9801.00,1.29
9800.00,1.29
9799.00,1.28
9798.00,1.28
9797.00,1.28
9796.00,1.28
9795.00,1.28
9794.00,1.28
9793.00,1.27
9792.00,1.27
9791.00,1.27
9790.00,1.27
9789.00,1.27
9788.00,1.27
9787.00,1.27
9786.00,1.27
9785.00,1.27
9784.00,1.27
9783.00,1.27
9782.00,1.27
9781.00,1.28
9780.00,1.28
9779.00,1.28
9778.00,1.28
9777.00,1.29
9776.00,1.29
9775.00,1.29
9774.00,1.29
9773.00,1.29
9772.00,1.29
9771.00,1.29
9770.00,1.29
9769.00,1.29
9768.00,1.29
9767.00,1.29
9766.00,1.29
9765.00,1.29
9764.00,1.28
9763.00,1.28
9762.00,1.28
9761.00,1.28
9760.00,1.28
9759.00,1.27
9758.00,1.27
9757.00,1.27
9756.00,1.27
9755.00,1.27
9754.00,1.27
9753.00,1.27
9752.00,1.27
9751.00,1.27
9750.00,1.27
9749.00,1.27
9748.00,1.28
9747.00,1.28
9746.00,1.28
9745.00,1.28
9744.00,1.28
9743.00,1.28
9742.00,1.28
9741.00,1.28
9740.00,1.28
9739.00,1.28
9738.00,1.28
9737.00,1.28
9736.00,1.28
9735.00,1.28
9734.00,1.28
9733.00,1.28
9732.00,1.28
9731.00,1.28
9730.00,1.28
9729.00,1.28
9728.00,1.28
9727.00,1.28
9726.00,1.28
9725.00,1.27
9724.00,1.27
9723.00,1.27
9722.00,1.27
9721.00,1.27
9720.00,1.26
9719.00,1.26
9718.00,1.26
9717.00,1.26
9716.00,1.26
9715.00,1.25
9714.00,1.25
9713.00,1.25
9712.00,1.25
9711.00,1.25
9710.00,1.25
9709.00,1.25
9708.00,1.25
9707.00,1.25
9706.00,1.25
9705.00,1.25
9704.00,1.25
9703.00,1.25
9702.00,1.25
9701.00,1.25
9700.00,1.26
9699.00,1.26
9698.00,1.26
9697.00,1.26
9696.00,1.26
9695.00,1.26
9694.00,1.26
9693.00,1.26
9692.00,1.26
9691.00,1.26
9690.00,1.26
9689.00,1.26
9688.00,1.26
9687.00,1.26
9686.00,1.26
9685.00,1.26
9684.00,1.26
9683.00,1.26
9682.00,1.26
9681.00,1.26
9680.00,1.27
9679.00,1.27
9678.00,1.27
9677.00,1.27
9676.00,1.27
9675.00,1.27
9674.00,1.27
9673.00,1.27
9672.00,1.27
9671.00,1.27
9670.00,1.27
9669.00,1.27
9668.00,1.27
9667.00,1.27
9666.00,1.27
9665.00,1.27
9664.00,1.27
9663.00,1.27
9662.00,1.27
9661.00,1.27
9660.00,1.27
9659.00,1.28
9658.00,1.28
9657.00,1.28
9656.00,1.28
9655.00,1.28
9654.00,1.29
9653.00,1.29
9652.00,1.29
9651.00,1.29
9650.00,1.29
9649.00,1.29
9648.00,1.29
9647.00,1.29
9646.00,1.29
9645.00,1.29
9644.00,1.29
9643.00,1.29
9642.00,1.29
9641.00,1.29
9640.00,1.29
9639.00,1.29
9638.00,1.29
9637.00,1.28
9636.00,1.28
9635.00,1.28
9634.00,1.28
9633.00,1.28
9632.00,1.28
9631.00,1.28
9630.00,1.27
9629.00,1.27
9628.00,1.27
9627.00,1.27
9626.00,1.27
9625.00,1.27
9624.00,1.27
9623.00,1.27
9622.00,1.27
9621.00,1.27
9620.00,1.27
9619.00,1.27
9618.00,1.27
9617.00,1.27
9616.00,1.27
9615.00,1.27
9614.00,1.27
9613.00,1.27
9612.00,1.27
9611.00,1.27
9610.00,1.27
9609.00,1.27
9608.00,1.27
9607.00,1.26
9606.00,1.26
9605.00,1.26
9604.00,1.26
9603.00,1.26
9602.00,1.26
9601.00,1.26
9600.00,1.26
9599.00,1.26
9598.00,1.26
9597.00,1.27
9596.00,1.27
9595.00,1.27
9594.00,1.27
9593.00,1.27
9592.00,1.27
9591.00,1.27
9590.00,1.27
9589.00,1.27
9588.00,1.27
9587.00,1.27
9586.00,1.27
9585.00,1.27
9584.00,1.27
9583.00,1.27
9582.00,1.27
9581.00,1.27
9580.00,1.27
9579.00,1.27
9578.00,1.27
9577.00,1.27
9576.00,1.27
9575.00,1.27
9574.00,1.27
9573.00,1.27
9572.00,1.26
9571.00,1.26
9570.00,1.26
9569.00,1.26
9568.00,1.26
9567.00,1.26
9566.00,1.26
9565.00,1.26
9564.00,1.26
9563.00,1.26
9562.00,1.26
9561.00,1.26
9560.00,1.26
9559.00,1.26
9558.00,1.26
9557.00,1.27
9556.00,1.27
9555.00,1.27
9554.00,1.27
9553.00,1.27
9552.00,1.27
9551.00,1.27
9550.00,1.27
9549.00,1.27
9548.00,1.27
9547.00,1.27
9546.00,1.27
9545.00,1.27
9544.00,1.27
9543.00,1.27
9542.00,1.27
9541.00,1.27
9540.00,1.27
9539.00,1.27
9538.00,1.27
9537.00,1.27
9536.00,1.27
9535.00,1.27
9534.00,1.27
9533.00,1.27
9532.00,1.26
9531.00,1.26
9530.00,1.26
9529.00,1.26
9528.00,1.26
9527.00,1.26
9526.00,1.25
9525.00,1.25
9524.00,1.25
9523.00,1.25
9522.00,1.25
9521.00,1.25
9520.00,1.25
9519.00,1.24
9518.00,1.24
9517.00,1.24
9516.00,1.24
9515.00,1.24
9514.00,1.24
9513.00,1.24
9512.00,1.24
9511.00,1.25
9510.00,1.25
9509.00,1.25
9508.00,1.25
9507.00,1.25
9506.00,1.25
9505.00,1.25
9504.00,1.26
9503.00,1.26
9502.00,1.26
9501.00,1.26
9500.00,1.26
9499.00,1.26
9498.00,1.26
9497.00,1.26
9496.00,1.26
9495.00,1.26
9494.00,1.26
9493.00,1.26
9492.00,1.26
9491.00,1.26
9490.00,1.26
9489.00,1.26
9488.00,1.26
9487.00,1.26
9486.00,1.26
9485.00,1.26
9484.00,1.26
9483.00,1.26
9482.00,1.26
9481.00,1.26
9480.00,1.26
9479.00,1.27
9478.00,1.27
9477.00,1.27
9476.00,1.27
9475.00,1.27
9474.00,1.27
9473.00,1.27
9472.00,1.27
9471.00,1.27
9470.00,1.27
9469.00,1.27
9468.00,1.27
9467.00,1.27
9466.00,1.27
9465.00,1.27
9464.00,1.27
9463.00,1.27
9462.00,1.27
9461.00,1.27
9460.00,1.27
9459.00,1.27
9458.00,1.27
9457.00,1.27
9456.00,1.27
9455.00,1.27
9454.00,1.27
9453.00,1.27
9452.00,1.27
9451.00,1.27
9450.00,1.27
9449.00,1.28
9448.00,1.28
9447.00,1.28
9446.00,1.28
9445.00,1.28
9444.00,1.28
9443.00,1.28
9442.00,1.28
9441.00,1.28
9440.00,1.28
9439.00,1.28
9438.00,1.28
9437.00,1.28
9436.00,1.28
9435.00,1.28
9434.00,1.28
9433.00,1.28
9432.00,1.28
9431.00,1.28
9430.00,1.28
9429.00,1.28
9428.00,1.27
9427.00,1.27
9426.00,1.27
9425.00,1.27
9424.00,1.27
9423.00,1.27
9422.00,1.27
9421.00,1.27
9420.00,1.27
9419.00,1.27
9418.00,1.27
9417.00,1.27
9416.00,1.27
9415.00,1.27
9414.00,1.27
9413.00,1.27
9412.00,1.27
9411.00,1.27
9410.00,1.27
9409.00,1.27
9408.00,1.27
9407.00,1.27
9406.00,1.27
9405.00,1.27
9404.00,1.27
9403.00,1.27
9402.00,1.27
9401.00,1.27
9400.00,1.27
9399.00,1.27
9398.00,1.27
9397.00,1.27
9396.00,1.27
9395.00,1.27
9394.00,1.27
9393.00,1.27
9392.00,1.27
9391.00,1.27
9390.00,1.27
9389.00,1.27
9388.00,1.27
9387.00,1.27
9386.00,1.28
9385.00,1.28
9384.00,1.28
9383.00,1.28
9382.00,1.28
9381.00,1.28
9380.00,1.28
9379.00,1.29
9378.00,1.29
9377.00,1.29
9376.00,1.29
9375.00,1.29
9374.00,1.29
9373.00,1.29
9372.00,1.29
9371.00,1.29
9370.00,1.29
9369.00,1.29
9368.00,1.29
9367.00,1.29
9366.00,1.29
9365.00,1.29
9364.00,1.29
9363.00,1.29
9362.00,1.29
9361.00,1.29
9360.00,1.29
9359.00,1.29
9358.00,1.29
9357.00,1.29
9356.00,1.29
9355.00,1.29
9354.00,1.28
9353.00,1.28
9352.00,1.28
9351.00,1.28
9350.00,1.28
9349.00,1.28
9348.00,1.27
9347.00,1.27
9346.00,1.27
9345.00,1.27
9344.00,1.27
9343.00,1.27
9342.00,1.27
9341.00,1.27
9340.00,1.27
9339.00,1.27
9338.00,1.27
9337.00,1.27
9336.00,1.27
9335.00,1.27
9334.00,1.27
9333.00,1.27
9332.00,1.27
9331.00,1.27
9330.00,1.27
9329.00,1.27
9328.00,1.27
9327.00,1.27
9326.00,1.27
9325.00,1.27
9324.00,1.27
9323.00,1.27
9322.00,1.27
9321.00,1.28
9320.00,1.28
9319.00,1.28
9318.00,1.28
9317.00,1.28
9316.00,1.28
9315.00,1.28
9314.00,1.28
9313.00,1.28
9312.00,1.28
9311.00,1.27
9310.00,1.27
9309.00,1.27
9308.00,1.27
9307.00,1.27
9306.00,1.27
9305.00,1.27
9304.00,1.27
9303.00,1.27
9302.00,1.27
9301.00,1.26
9300.00,1.26
9299.00,1.26
9298.00,1.26
9297.00,1.26
9296.00,1.26
9295.00,1.26
9294.00,1.26
9293.00,1.26
9292.00,1.26
9291.00,1.26
9290.00,1.27
9289.00,1.27
9288.00,1.27
9287.00,1.27
9286.00,1.27
9285.00,1.27
9284.00,1.27
9283.00,1.27
9282.00,1.27
9281.00,1.27
9280.00,1.27
9279.00,1.27
9278.00,1.27
9277.00,1.27
9276.00,1.27
9275.00,1.27
9274.00,1.27
9273.00,1.27
9272.00,1.26
9271.00,1.26
9270.00,1.26
9269.00,1.26
9268.00,1.26
9267.00,1.26
9266.00,1.26
9265.00,1.26
9264.00,1.26
9263.00,1.26
9262.00,1.27
9261.00,1.27
9260.00,1.27
9259.00,1.27
9258.00,1.27
9257.00,1.27
9256.00,1.27
9255.00,1.27
9254.00,1.27
9253.00,1.27
9252.00,1.28
9251.00,1.28
9250.00,1.28
9249.00,1.28
9248.00,1.28
9247.00,1.28
9246.00,1.28
9245.00,1.28
9244.00,1.28
9243.00,1.28
9242.00,1.28
9241.00,1.28
9240.00,1.28
9239.00,1.28
9238.00,1.28
9237.00,1.28
9236.00,1.27
9235.00,1.27
9234.00,1.27
9233.00,1.27
9232.00,1.27
9231.00,1.27
9230.00,1.27
9229.00,1.27
9228.00,1.27
9227.00,1.27
9226.00,1.27
9225.00,1.27
9224.00,1.26
9223.00,1.26
9222.00,1.26
9221.00,1.26
9220.00,1.26
9219.00,1.26
9218.00,1.26
9217.00,1.26
9216.00,1.26
9215.00,1.27
9214.00,1.27
9213.00,1.27
9212.00,1.27
9211.00,1.27
9210.00,1.27
9209.00,1.27
9208.00,1.27
9207.00,1.27
9206.00,1.28
9205.00,1.28
9204.00,1.28
9203.00,1.28
9202.00,1.28
9201.00,1.28
9200.00,1.28
9199.00,1.28
9198.00,1.28
9197.00,1.28
9196.00,1.28
9195.00,1.28
9194.00,1.28
9193.00,1.28
9192.00,1.28
9191.00,1.28
9190.00,1.28
9189.00,1.28
9188.00,1.28
9187.00,1.28
9186.00,1.28
9185.00,1.28
9184.00,1.28
9183.00,1.28
9182.00,1.28
9181.00,1.28
9180.00,1.28
9179.00,1.28
9178.00,1.27
9177.00,1.27
9176.00,1.27
9175.00,1.27
9174.00,1.27
9173.00,1.27
9172.00,1.27
9171.00,1.27
9170.00,1.27
9169.00,1.27
9168.00,1.27
9167.00,1.27
9166.00,1.27
9165.00,1.28
9164.00,1.28
9163.00,1.28
9162.00,1.28
9161.00,1.28
9160.00,1.28
9159.00,1.29
9158.00,1.29
9157.00,1.29
9156.00,1.29
9155.00,1.29
9154.00,1.29
9153.00,1.29
9152.00,1.29
9151.00,1.29
9150.00,1.29
9149.00,1.29
9148.00,1.29
9147.00,1.29
9146.00,1.29
9145.00,1.29
9144.00,1.29
9143.00,1.28
9142.00,1.28
9141.00,1.28
9140.00,1.28
9139.00,1.28
9138.00,1.27
9137.00,1.27
9136.00,1.27
9135.00,1.27
9134.00,1.27
9133.00,1.27
9132.00,1.27
9131.00,1.27
9130.00,1.26
9129.00,1.26
9128.00,1.26
9127.00,1.26
9126.00,1.26
9125.00,1.26
9124.00,1.26
9123.00,1.26
9122.00,1.26
9121.00,1.26
9120.00,1.26
9119.00,1.26
9118.00,1.26
9117.00,1.26
9116.00,1.26
9115.00,1.25
9114.00,1.25
9113.00,1.25
9112.00,1.25
9111.00,1.25
9110.00,1.25
9109.00,1.25
9108.00,1.25
9107.00,1.25
9106.00,1.25
9105.00,1.26
9104.00,1.26
9103.00,1.26
9102.00,1.26
9101.00,1.26
9100.00,1.26
9099.00,1.27
9098.00,1.27
9097.00,1.27
9096.00,1.27
9095.00,1.27
9094.00,1.27
9093.00,1.27
9092.00,1.27
9091.00,1.27
9090.00,1.27
9089.00,1.27
9088.00,1.27
9087.00,1.27
9086.00,1.27
9085.00,1.27
9084.00,1.27
9083.00,1.27
9082.00,1.27
9081.00,1.27
9080.00,1.27
9079.00,1.27
9078.00,1.27
9077.00,1.27
9076.00,1.27
9075.00,1.27
9074.00,1.27
9073.00,1.27
9072.00,1.27
9071.00,1.27
9070.00,1.27
9069.00,1.27
9068.00,1.27
9067.00,1.27
9066.00,1.27
9065.00,1.27
9064.00,1.28
9063.00,1.28
9062.00,1.28
9061.00,1.28
9060.00,1.28
9059.00,1.28
9058.00,1.28
9057.00,1.28
9056.00,1.28
9055.00,1.28
9054.00,1.28
9053.00,1.28
9052.00,1.28
9051.00,1.27
9050.00,1.27
9049.00,1.27
9048.00,1.27
9047.00,1.27
9046.00,1.27
9045.00,1.28
9044.00,1.28
9043.00,1.28
9042.00,1.28
9041.00,1.28
9040.00,1.28
9039.00,1.28
9038.00,1.28
9037.00,1.28
9036.00,1.28
9035.00,1.28
9034.00,1.28
9033.00,1.28
9032.00,1.28
9031.00,1.28
9030.00,1.28
9029.00,1.28
9028.00,1.28
9027.00,1.28
9026.00,1.27
9025.00,1.27
9024.00,1.27
9023.00,1.27
9022.00,1.27
9021.00,1.27
9020.00,1.27
9019.00,1.27
9018.00,1.27
9017.00,1.26
9016.00,1.26
9015.00,1.26
9014.00,1.26
9013.00,1.26
9012.00,1.26
9011.00,1.26
9010.00,1.26
9009.00,1.27
9008.00,1.27
9007.00,1.27
9006.00,1.27
9005.00,1.27
9004.00,1.27
9003.00,1.26
9002.00,1.26
9001.00,1.26
9000.00,1.26
8999.00,1.26
8998.00,1.26
8997.00,1.26
8996.00,1.26
8995.00,1.26
8994.00,1.26
8993.00,1.26
8992.00,1.26
8991.00,1.26
8990.00,1.26
8989.00,1.26
8988.00,1.26
8987.00,1.27
8986.00,1.27
8985.00,1.27
8984.00,1.27
8983.00,1.27
8982.00,1.27
8981.00,1.27
8980.00,1.27
8979.00,1.27
8978.00,1.27
8977.00,1.27
8976.00,1.27
8975.00,1.27
8974.00,1.27
8973.00,1.27
8972.00,1.27
8971.00,1.28
8970.00,1.28
8969.00,1.28
8968.00,1.28
8967.00,1.28
8966.00,1.28
8965.00,1.28
8964.00,1.28
8963.00,1.28
8962.00,1.28
8961.00,1.28
8960.00,1.28
8959.00,1.28
8958.00,1.28
8957.00,1.28
8956.00,1.28
8955.00,1.28
8954.00,1.28
8953.00,1.28
8952.00,1.28
8951.00,1.28
8950.00,1.28
8949.00,1.28
8948.00,1.28
8947.00,1.28
8946.00,1.28
8945.00,1.28
8944.00,1.28
8943.00,1.28
8942.00,1.28
8941.00,1.28
8940.00,1.28
8939.00,1.28
8938.00,1.28
8937.00,1.28
8936.00,1.28
8935.00,1.28
8934.00,1.28
8933.00,1.28
8932.00,1.28
8931.00,1.28
8930.00,1.28
8929.00,1.28
8928.00,1.27
8927.00,1.27
8926.00,1.27
8925.00,1.27
8924.00,1.27
8923.00,1.27
8922.00,1.27
8921.00,1.27
8920.00,1.27
8919.00,1.27
8918.00,1.27
8917.00,1.27
8916.00,1.27
8915.00,1.27
8914.00,1.27
8913.00,1.27
8912.00,1.27
8911.00,1.27
8910.00,1.27
8909.00,1.27
8908.00,1.27
8907.00,1.27
8906.00,1.27
8905.00,1.27
8904.00,1.27
8903.00,1.27
8902.00,1.27
8901.00,1.27
8900.00,1.27
8899.00,1.27
8898.00,1.27
8897.00,1.27
8896.00,1.27
8895.00,1.27
8894.00,1.27
8893.00,1.27
8892.00,1.27
8891.00,1.27
8890.00,1.27
8889.00,1.27
8888.00,1.27
8887.00,1.27
8886.00,1.27
8885.00,1.27
8884.00,1.27
8883.00,1.28
8882.00,1.28
8881.00,1.28
8880.00,1.28
8879.00,1.28
8878.00,1.28
8877.00,1.28
8876.00,1.28
8875.00,1.28
8874.00,1.28
8873.00,1.28
8872.00,1.28
8871.00,1.28
8870.00,1.28
8869.00,1.28
8868.00,1.28
8867.00,1.27
8866.00,1.27
8865.00,1.27
8864.00,1.27
8863.00,1.27
8862.00,1.27
8861.00,1.27
8860.00,1.27
8859.00,1.27
8858.00,1.27
8857.00,1.27
8856.00,1.26
8855.00,1.26
8854.00,1.26
8853.00,1.26
8852.00,1.26
8851.00,1.26
8850.00,1.26
8849.00,1.26
8848.00,1.26
8847.00,1.27
8846.00,1.27
8845.00,1.27
8844.00,1.27
8843.00,1.27
8842.00,1.27
8841.00,1.27
8840.00,1.27
8839.00,1.27
8838.00,1.27
8837.00,1.27
8836.00,1.27
8835.00,1.27
8834.00,1.27
8833.00,1.27
8832.00,1.26
8831.00,1.26
8830.00,1.26
8829.00,1.26
8828.00,1.26
8827.00,1.26
8826.00,1.26
8825.00,1.26
8824.00,1.26
8823.00,1.26
8822.00,1.26
8821.00,1.26
8820.00,1.26
8819.00,1.26
8818.00,1.26
8817.00,1.25
8816.00,1.25
8815.00,1.25
8814.00,1.25
8813.00,1.25
8812.00,1.25
8811.00,1.25
8810.00,1.25
8809.00,1.25
8808.00,1.25
8807.00,1.25
8806.00,1.25
8805.00,1.25
8804.00,1.25
8803.00,1.25
8802.00,1.25
8801.00,1.25
8800.00,1.25
8799.00,1.25
8798.00,1.25
8797.00,1.25
8796.00,1.25
8795.00,1.25
8794.00,1.25
8793.00,1.25
8792.00,1.25
8791.00,1.24
8790.00,1.24
8789.00,1.24
8788.00,1.24
8787.00,1.24
8786.00,1.24
8785.00,1.23
8784.00,1.23
8783.00,1.23
8782.00,1.23
8781.00,1.23
8780.00,1.23
8779.00,1.23
8778.00,1.23
8777.00,1.23
8776.00,1.23
8775.00,1.22
8774.00,1.22
8773.00,1.22
8772.00,1.22
8771.00,1.22
8770.00,1.22
8769.00,1.22
8768.00,1.22
8767.00,1.22
8766.00,1.22
8765.00,1.22
8764.00,1.22
8763.00,1.22
8762.00,1.22
8761.00,1.22
8760.00,1.22
8759.00,1.22
8758.00,1.22
8757.00,1.22
8756.00,1.22
8755.00,1.22
8754.00,1.22
8753.00,1.22
8752.00,1.22
8751.00,1.23
8750.00,1.23
8749.00,1.23
8748.00,1.23
8747.00,1.23
8746.00,1.22
8745.00,1.22
8744.00,1.22
8743.00,1.22
8742.00,1.22
8741.00,1.22
8740.00,1.22
8739.00,1.22
8738.00,1.22
8737.00,1.22
8736.00,1.22
8735.00,1.22
8734.00,1.21
8733.00,1.21
8732.00,1.21
8731.00,1.21
8730.00,1.21
8729.00,1.21
8728.00,1.21
8727.00,1.21
8726.00,1.20
8725.00,1.20
8724.00,1.20
8723.00,1.20
8722.00,1.20
8721.00,1.20
8720.00,1.20
8719.00,1.20
8718.00,1.20
8717.00,1.20
8716.00,1.20
8715.00,1.20
8714.00,1.20
8713.00,1.20
8712.00,1.21
8711.00,1.21
8710.00,1.21
8709.00,1.21
8708.00,1.21
8707.00,1.21
8706.00,1.21
8705.00,1.21
8704.00,1.21
8703.00,1.21
8702.00,1.21
8701.00,1.21
8700.00,1.21
8699.00,1.21
8698.00,1.21
8697.00,1.21
8696.00,1.21
8695.00,1.21
8694.00,1.21
8693.00,1.21
8692.00,1.21
8691.00,1.21
8690.00,1.21
8689.00,1.21
8688.00,1.21
8687.00,1.21
8686.00,1.21
8685.00,1.21
8684.00,1.20
8683.00,1.20
8682.00,1.21
8681.00,1.21
8680.00,1.21
8679.00,1.21
8678.00,1.21
8677.00,1.21
8676.00,1.21
8675.00,1.21
8674.00,1.21
8673.00,1.21
8672.00,1.21
8671.00,1.21
8670.00,1.21
8669.00,1.21
8668.00,1.21
8667.00,1.21
8666.00,1.21
8665.00,1.21
8664.00,1.21
8663.00,1.21
8662.00,1.20
8661.00,1.20
8660.00,1.20
8659.00,1.20
8658.00,1.20
8657.00,1.19
8656.00,1.19
8655.00,1.19
8654.00,1.19
8653.00,1.19
8652.00,1.19
8651.00,1.19
8650.00,1.19
8649.00,1.19
8648.00,1.19
8647.00,1.19
8646.00,1.19
8645.00,1.19
8644.00,1.19
8643.00,1.19
8642.00,1.19
8641.00,1.19
8640.00,1.19
8639.00,1.19
8638.00,1.19
8637.00,1.19
8636.00,1.20
8635.00,1.20
8634.00,1.20
8633.00,1.20
8632.00,1.20
8631.00,1.20
8630.00,1.20
8629.00,1.20
8628.00,1.19
8627.00,1.19
8626.00,1.19
8625.00,1.19
8624.00,1.19
8623.00,1.19
8622.00,1.19
8621.00,1.19
8620.00,1.19
8619.00,1.18
8618.00,1.18
8617.00,1.18
8616.00,1.18
8615.00,1.18
8614.00,1.18
8613.00,1.18
8612.00,1.18
8611.00,1.18
8610.00,1.18
8609.00,1.19
8608.00,1.19
8607.00,1.19
8606.00,1.19
8605.00,1.19
8604.00,1.19
8603.00,1.19
8602.00,1.19
8601.00,1.19
8600.00,1.19
8599.00,1.19
8598.00,1.19
8597.00,1.19
8596.00,1.19
8595.00,1.19
8594.00,1.19
8593.00,1.19
8592.00,1.19
8591.00,1.19
8590.00,1.19
8589.00,1.19
8588.00,1.19
8587.00,1.18
8586.00,1.18
8585.00,1.18
8584.00,1.18
8583.00,1.18
8582.00,1.18
8581.00,1.18
8580.00,1.18
8579.00,1.18
8578.00,1.18
8577.00,1.18
8576.00,1.18
8575.00,1.18
8574.00,1.18
8573.00,1.17
8572.00,1.17
8571.00,1.17
8570.00,1.17
8569.00,1.17
8568.00,1.17
8567.00,1.17
8566.00,1.17
8565.00,1.17
8564.00,1.17
8563.00,1.16
8562.00,1.16
8561.00,1.16
8560.00,1.16
8559.00,1.16
8558.00,1.16
8557.00,1.16
8556.00,1.16
8555.00,1.16
8554.00,1.16
8553.00,1.16
8552.00,1.16
8551.00,1.16
8550.00,1.16
8549.00,1.16
8548.00,1.16
8547.00,1.16
8546.00,1.16
8545.00,1.16
8544.00,1.16
8543.00,1.16
8542.00,1.16
8541.00,1.16
8540.00,1.16
8539.00,1.16
8538.00,1.16
8537.00,1.16
8536.00,1.16
8535.00,1.16
8534.00,1.16
8533.00,1.16
8532.00,1.16
8531.00,1.16
8530.00,1.16
8529.00,1.16
8528.00,1.16
8527.00,1.16
8526.00,1.16
8525.00,1.16
8524.00,1.16
8523.00,1.16
8522.00,1.16
8521.00,1.16
8520.00,1.16
8519.00,1.15
8518.00,1.15
8517.00,1.15
8516.00,1.15
8515.00,1.15
8514.00,1.15
8513.00,1.15
8512.00,1.15
8511.00,1.15
8510.00,1.15
8509.00,1.14
8508.00,1.14
8507.00,1.14
8506.00,1.14
8505.00,1.14
8504.00,1.14
8503.00,1.14
8502.00,1.14
8501.00,1.14
8500.00,1.14
8499.00,1.14
8498.00,1.14
8497.00,1.13
8496.00,1.13
8495.00,1.13
8494.00,1.13
8493.00,1.13
8492.00,1.13
8491.00,1.13
8490.00,1.13
8489.00,1.13
8488.00,1.13
8487.00,1.13
8486.00,1.13
8485.00,1.13
8484.00,1.13
8483.00,1.13
8482.00,1.13
8481.00,1.13
8480.00,1.12
8479.00,1.12
8478.00,1.12
8477.00,1.12
8476.00,1.12
8475.00,1.12
8474.00,1.12
8473.00,1.12
8472.00,1.12
8471.00,1.11
8470.00,1.11
8469.00,1.11
8468.00,1.11
8467.00,1.11
8466.00,1.11
8465.00,1.10
8464.00,1.10
8463.00,1.10
8462.00,1.10
8461.00,1.10
8460.00,1.10
8459.00,1.09
8458.00,1.09
8457.00,1.09
8456.00,1.09
8455.00,1.09
8454.00,1.09
8453.00,1.09
8452.00,1.09
8451.00,1.09
8450.00,1.09
8449.00,1.09
8448.00,1.09
8447.00,1.09
8446.00,1.09
8445.00,1.09
8444.00,1.09
8443.00,1.09
8442.00,1.09
8441.00,1.09
8440.00,1.09
8439.00,1.09
8438.00,1.09
8437.00,1.09
8436.00,1.09
8435.00,1.09
8434.00,1.09
8433.00,1.09
8432.00,1.09
8431.00,1.09
8430.00,1.10
8429.00,1.10
8428.00,1.10
8427.00,1.10
8426.00,1.10
8425.00,1.10
8424.00,1.10
8423.00,1.10
8422.00,1.10
8421.00,1.11
8420.00,1.11
8419.00,1.11
8418.00,1.11
8417.00,1.11
8416.00,1.11
8415.00,1.11
8414.00,1.11
8413.00,1.12
8412.00,1.12
8411.00,1.12
8410.00,1.12
8409.00,1.12
8408.00,1.12
8407.00,1.12
8406.00,1.12
8405.00,1.12
8404.00,1.12
8403.00,1.12
8402.00,1.12
8401.00,1.12
8400.00,1.12
8399.00,1.12
8398.00,1.12
8397.00,1.12
8396.00,1.12
8395.00,1.12
8394.00,1.12
8393.00,1.12
8392.00,1.13
8391.00,1.13
8390.00,1.13
8389.00,1.13
8388.00,1.13
8387.00,1.13
8386.00,1.13
8385.00,1.13
8384.00,1.13
8383.00,1.13
8382.00,1.14
8381.00,1.14
8380.00,1.14
8379.00,1.14
8378.00,1.14
8377.00,1.14
8376.00,1.14
8375.00,1.14
8374.00,1.14
8373.00,1.14
8372.00,1.14
8371.00,1.14
8370.00,1.14
8369.00,1.14
8368.00,1.14
8367.00,1.14
8366.00,1.15
8365.00,1.15
8364.00,1.15
8363.00,1.15
8362.00,1.15
8361.00,1.15
8360.00,1.15
8359.00,1.15
8358.00,1.15
8357.00,1.15
8356.00,1.15
8355.00,1.15
8354.00,1.15
8353.00,1.15
8352.00,1.15
8351.00,1.15
8350.00,1.15
8349.00,1.15
8348.00,1.15
8347.00,1.14
8346.00,1.14
8345.00,1.14
8344.00,1.14
8343.00,1.14
8342.00,1.14
8341.00,1.14
8340.00,1.14
8339.00,1.14
8338.00,1.14
8337.00,1.14
8336.00,1.14
8335.00,1.14
8334.00,1.14
8333.00,1.14
8332.00,1.14
8331.00,1.14
8330.00,1.14
8329.00,1.14
8328.00,1.14
8327.00,1.14
8326.00,1.14
8325.00,1.14
8324.00,1.14
8323.00,1.14
8322.00,1.15
8321.00,1.15
8320.00,1.15
8319.00,1.15
8318.00,1.15
8317.00,1.15
8316.00,1.15
8315.00,1.15
8314.00,1.15
8313.00,1.15
8312.00,1.15
8311.00,1.16
8310.00,1.16
8309.00,1.16
8308.00,1.16
8307.00,1.16
8306.00,1.16
8305.00,1.16
8304.00,1.16
8303.00,1.16
8302.00,1.16
8301.00,1.16
8300.00,1.16
8299.00,1.16
8298.00,1.16
8297.00,1.16
8296.00,1.16
8295.00,1.16
8294.00,1.16
8293.00,1.16
8292.00,1.16
8291.00,1.16
8290.00,1.16
8289.00,1.16
8288.00,1.16
8287.00,1.16
8286.00,1.16
8285.00,1.16
8284.00,1.16
8283.00,1.16
8282.00,1.16
8281.00,1.16
8280.00,1.16
8279.00,1.16
8278.00,1.16
8277.00,1.16
8276.00,1.16
8275.00,1.16
8274.00,1.16
8273.00,1.16
8272.00,1.16
8271.00,1.16
8270.00,1.16
8269.00,1.16
8268.00,1.15
8267.00,1.15
8266.00,1.15
8265.00,1.15
8264.00,1.15
8263.00,1.15
8262.00,1.15
8261.00,1.15
8260.00,1.15
8259.00,1.15
8258.00,1.16
8257.00,1.16
8256.00,1.16
8255.00,1.16
8254.00,1.16
8253.00,1.16
8252.00,1.16
8251.00,1.16
8250.00,1.17
8249.00,1.17
8248.00,1.17
8247.00,1.17
8246.00,1.17
8245.00,1.17
8244.00,1.17
8243.00,1.17
8242.00,1.17
8241.00,1.17
8240.00,1.17
8239.00,1.17
8238.00,1.17
8237.00,1.17
8236.00,1.17
8235.00,1.17
8234.00,1.17
8233.00,1.17
8232.00,1.17
8231.00,1.17
8230.00,1.17
8229.00,1.17
8228.00,1.17
8227.00,1.17
8226.00,1.17
8225.00,1.17
8224.00,1.17
8223.00,1.17
8222.00,1.17
8221.00,1.17
8220.00,1.18
8219.00,1.18
8218.00,1.18
8217.00,1.18
8216.00,1.18
8215.00,1.18
8214.00,1.18
8213.00,1.18
8212.00,1.18
8211.00,1.18
8210.00,1.18
8209.00,1.18
8208.00,1.18
8207.00,1.18
8206.00,1.18
8205.00,1.18
8204.00,1.18
8203.00,1.18
8202.00,1.18
8201.00,1.18
8200.00,1.18
8199.00,1.18
8198.00,1.18
8197.00,1.18
8196.00,1.18
8195.00,1.18
8194.00,1.18
8193.00,1.18
8192.00,1.18
8191.00,1.18
8190.00,1.18
8189.00,1.18
8188.00,1.18
8187.00,1.18
8186.00,1.18
8185.00,1.18
8184.00,1.19
8183.00,1.19
8182.00,1.19
8181.00,1.19
8180.00,1.19
8179.00,1.19
8178.00,1.19
8177.00,1.19
8176.00,1.19
8175.00,1.19
8174.00,1.19
8173.00,1.19
8172.00,1.19
8171.00,1.19
8170.00,1.19
8169.00,1.19
8168.00,1.19
8167.00,1.19
8166.00,1.19
8165.00,1.19
8164.00,1.19
8163.00,1.19
8162.00,1.19
8161.00,1.19
8160.00,1.19
8159.00,1.20
8158.00,1.20
8157.00,1.20
8156.00,1.20
8155.00,1.20
8154.00,1.20
8153.00,1.20
8152.00,1.20
8151.00,1.20
8150.00,1.20
8149.00,1.20
8148.00,1.20
8147.00,1.21
8146.00,1.21
8145.00,1.21
8144.00,1.21
8143.00,1.21
8142.00,1.21
8141.00,1.21
8140.00,1.21
8139.00,1.21
8138.00,1.21
8137.00,1.21
8136.00,1.21
8135.00,1.21
8134.00,1.21
8133.00,1.22
8132.00,1.22
8131.00,1.22
8130.00,1.22
8129.00,1.22
8128.00,1.22
8127.00,1.22
8126.00,1.22
8125.00,1.22
8124.00,1.22
8123.00,1.22
8122.00,1.22
8121.00,1.22
8120.00,1.22
8119.00,1.22
8118.00,1.22
8117.00,1.22
8116.00,1.22
8115.00,1.22
8114.00,1.22
8113.00,1.22
8112.00,1.22
8111.00,1.22
8110.00,1.22
8109.00,1.22
8108.00,1.22
8107.00,1.22
8106.00,1.22
8105.00,1.22
8104.00,1.22
8103.00,1.22
8102.00,1.22
8101.00,1.22
8100.00,1.22
8099.00,1.22
8098.00,1.22
8097.00,1.22
8096.00,1.22
8095.00,1.23
8094.00,1.23
8093.00,1.23
8092.00,1.23
8091.00,1.23
8090.00,1.23
8089.00,1.23
8088.00,1.23
8087.00,1.23
8086.00,1.23
8085.00,1.23
8084.00,1.23
8083.00,1.23
8082.00,1.23
8081.00,1.23
8080.00,1.23
8079.00,1.23
8078.00,1.23
8077.00,1.23
8076.00,1.23
8075.00,1.23
8074.00,1.23
8073.00,1.23
8072.00,1.23
8071.00,1.23
8070.00,1.23
8069.00,1.23
8068.00,1.22
8067.00,1.22
8066.00,1.22
8065.00,1.22
8064.00,1.22
8063.00,1.22
8062.00,1.22
8061.00,1.22
8060.00,1.22
8059.00,1.23
8058.00,1.23
8057.00,1.23
8056.00,1.23
8055.00,1.23
8054.00,1.23
8053.00,1.23
8052.00,1.23
8051.00,1.23
8050.00,1.23
8049.00,1.23
8048.00,1.23
8047.00,1.23
8046.00,1.23
8045.00,1.23
8044.00,1.23
8043.00,1.23
8042.00,1.23
8041.00,1.23
8040.00,1.23
8039.00,1.23
8038.00,1.23
8037.00,1.24
8036.00,1.24
8035.00,1.24
8034.00,1.24
8033.00,1.24
8032.00,1.24
8031.00,1.24
8030.00,1.24
8029.00,1.24
8028.00,1.24
8027.00,1.24
8026.00,1.24
8025.00,1.25
8024.00,1.25
8023.00,1.25
8022.00,1.25
8021.00,1.25
8020.00,1.25
8019.00,1.25
8018.00,1.25
8017.00,1.25
8016.00,1.24
8015.00,1.24
8014.00,1.24
8013.00,1.24
8012.00,1.24
8011.00,1.24
8010.00,1.24
8009.00,1.24
8008.00,1.24
8007.00,1.24
8006.00,1.24
8005.00,1.24
8004.00,1.24
8003.00,1.23
8002.00,1.23
8001.00,1.23
8000.00,1.23
7999.00,1.23
7998.00,1.23
7997.00,1.23
7996.00,1.23
7995.00,1.24
7994.00,1.24
7993.00,1.24
7992.00,1.24
7991.00,1.24
7990.00,1.24
7989.00,1.24
7988.00,1.24
7987.00,1.25
7986.00,1.25
7985.00,1.25
7984.00,1.25
7983.00,1.25
7982.00,1.25
7981.00,1.25
7980.00,1.25
7979.00,1.25
7978.00,1.25
7977.00,1.25
7976.00,1.25
7975.00,1.25
7974.00,1.25
7973.00,1.25
7972.00,1.25
7971.00,1.25
7970.00,1.25
7969.00,1.25
7968.00,1.25
7967.00,1.25
7966.00,1.25
7965.00,1.25
7964.00,1.25
7963.00,1.25
7962.00,1.25
7961.00,1.25
7960.00,1.25
7959.00,1.25
7958.00,1.25
7957.00,1.25
7956.00,1.25
7955.00,1.25
7954.00,1.25
7953.00,1.25
7952.00,1.25
7951.00,1.26
7950.00,1.26
7949.00,1.26
7948.00,1.26
7947.00,1.26
7946.00,1.26
7945.00,1.26
7944.00,1.26
7943.00,1.26
7942.00,1.26
7941.00,1.26
7940.00,1.26
7939.00,1.26
7938.00,1.26
7937.00,1.26
7936.00,1.26
7935.00,1.26
7934.00,1.26
7933.00,1.26
7932.00,1.26
7931.00,1.26
7930.00,1.26
7929.00,1.26
7928.00,1.26
7927.00,1.26
7926.00,1.26
7925.00,1.26
7924.00,1.26
7923.00,1.26
7922.00,1.26
7921.00,1.26
7920.00,1.26
7919.00,1.26
7918.00,1.26
7917.00,1.26
7916.00,1.26
7915.00,1.26
7914.00,1.26
7913.00,1.26
7912.00,1.26
7911.00,1.26
7910.00,1.26
7909.00,1.26
7908.00,1.26
7907.00,1.26
7906.00,1.26
7905.00,1.26
7904.00,1.26
7903.00,1.26
7902.00,1.26
7901.00,1.26
7900.00,1.26
7899.00,1.26
7898.00,1.26
7897.00,1.26
7896.00,1.26
7895.00,1.27
7894.00,1.27
7893.00,1.27
7892.00,1.27
7891.00,1.27
7890.00,1.27
7889.00,1.27
7888.00,1.27
7887.00,1.27
7886.00,1.27
7885.00,1.27
7884.00,1.27
7883.00,1.27
7882.00,1.27
7881.00,1.28
7880.00,1.28
7879.00,1.28
7878.00,1.28
7877.00,1.28
7876.00,1.28
7875.00,1.28
7874.00,1.28
7873.00,1.28
7872.00,1.28
7871.00,1.28
7870.00,1.28
7869.00,1.28
7868.00,1.28
7867.00,1.28
7866.00,1.28
7865.00,1.28
7864.00,1.28
7863.00,1.27
7862.00,1.27
7861.00,1.27
7860.00,1.27
7859.00,1.27
7858.00,1.27
7857.00,1.27
7856.00,1.27
7855.00,1.27
7854.00,1.27
7853.00,1.28
7852.00,1.28
7851.00,1.28
7850.00,1.28
7849.00,1.28
7848.00,1.28
7847.00,1.28
7846.00,1.28
7845.00,1.28
7844.00,1.28
7843.00,1.28
7842.00,1.28
7841.00,1.28
7840.00,1.28
7839.00,1.28
7838.00,1.28
7837.00,1.28
7836.00,1.28
7835.00,1.28
7834.00,1.28
7833.00,1.28
7832.00,1.28
7831.00,1.28
7830.00,1.28
7829.00,1.28
7828.00,1.28
7827.00,1.28
7826.00,1.28
7825.00,1.28
7824.00,1.28
7823.00,1.28
7822.00,1.28
7821.00,1.28
7820.00,1.28
7819.00,1.28
7818.00,1.28
7817.00,1.28
7816.00,1.28
7815.00,1.28
7814.00,1.28
7813.00,1.28
7812.00,1.28
7811.00,1.28
7810.00,1.28
7809.00,1.28
7808.00,1.28
7807.00,1.28
7806.00,1.28
7805.00,1.28
7804.00,1.28
7803.00,1.28
7802.00,1.28
7801.00,1.28
7800.00,1.28
7799.00,1.28
7798.00,1.28
7797.00,1.28
7796.00,1.28
7795.00,1.28
7794.00,1.28
7793.00,1.28
7792.00,1.28
7791.00,1.28
7790.00,1.28
7789.00,1.28
7788.00,1.28
7787.00,1.28
7786.00,1.28
7785.00,1.28
7784.00,1.28
7783.00,1.28
7782.00,1.28
7781.00,1.28
7780.00,1.28
7779.00,1.29
7778.00,1.29
7777.00,1.29
7776.00,1.29
7775.00,1.29
7774.00,1.29
7773.00,1.29
7772.00,1.29
7771.00,1.29
7770.00,1.29
7769.00,1.29
7768.00,1.29
7767.00,1.29
7766.00,1.29
7765.00,1.29
7764.00,1.29
7763.00,1.29
7762.00,1.29
7761.00,1.29
7760.00,1.29
7759.00,1.29
7758.00,1.29
7757.00,1.29
7756.00,1.29
7755.00,1.29
7754.00,1.29
7753.00,1.29
7752.00,1.29
7751.00,1.29
7750.00,1.29
7749.00,1.29
7748.00,1.29
7747.00,1.29
7746.00,1.29
7745.00,1.29
7744.00,1.29
7743.00,1.29
7742.00,1.29
7741.00,1.29
7740.00,1.29
7739.00,1.29
7738.00,1.29
7737.00,1.29
7736.00,1.29
7735.00,1.29
7734.00,1.29
7733.00,1.29
7732.00,1.29
7731.00,1.29
7730.00,1.29
7729.00,1.29
7728.00,1.29
7727.00,1.29
7726.00,1.29
7725.00,1.29
7724.00,1.29
7723.00,1.29
7722.00,1.29
7721.00,1.29
7720.00,1.29
7719.00,1.29
7718.00,1.29
7717.00,1.29
7716.00,1.29
7715.00,1.29
7714.00,1.29
7713.00,1.29
7712.00,1.29
7711.00,1.29
7710.00,1.29
7709.00,1.29
7708.00,1.29
7707.00,1.29
7706.00,1.29
7705.00,1.29
7704.00,1.29
7703.00,1.29
7702.00,1.29
7701.00,1.29
7700.00,1.29
7699.00,1.29
7698.00,1.29
7697.00,1.29
7696.00,1.29
7695.00,1.29
7694.00,1.29
7693.00,1.29
7692.00,1.29
7691.00,1.29
7690.00,1.29
7689.00,1.29
7688.00,1.29
7687.00,1.29
7686.00,1.29
7685.00,1.29
7684.00,1.29
7683.00,1.29
7682.00,1.29
7681.00,1.29
7680.00,1.29
7679.00,1.29
7678.00,1.29
7677.00,1.29
7676.00,1.29
7675.00,1.29
7674.00,1.29
7673.00,1.29
7672.00,1.29
7671.00,1.29
7670.00,1.29
7669.00,1.29
7668.00,1.29
7667.00,1.29
7666.00,1.29
7665.00,1.29
7664.00,1.29
7663.00,1.29
7662.00,1.29
7661.00,1.29
7660.00,1.29
7659.00,1.29
7658.00,1.29
7657.00,1.29
7656.00,1.29
7655.00,1.29
7654.00,1.29
7653.00,1.29
7652.00,1.29
7651.00,1.29
7650.00,1.29
7649.00,1.29
7648.00,1.29
7647.00,1.29
7646.00,1.29
7645.00,1.29
7644.00,1.29
7643.00,1.29
7642.00,1.29
7641.00,1.29
7640.00,1.29
7639.00,1.29
7638.00,1.29
7637.00,1.29
7636.00,1.29
7635.00,1.29
7634.00,1.29
7633.00,1.29
7632.00,1.29
7631.00,1.29
7630.00,1.29
7629.00,1.29
7628.00,1.29
7627.00,1.29
7626.00,1.29
7625.00,1.29
7624.00,1.29
7623.00,1.29
7622.00,1.29
7621.00,1.29
7620.00,1.29
7619.00,1.29
7618.00,1.29
7617.00,1.29
7616.00,1.29
7615.00,1.29
7614.00,1.29
7613.00,1.29
7612.00,1.29
7611.00,1.29
7610.00,1.29
7609.00,1.29
7608.00,1.29
7607.00,1.29
7606.00,1.29
7605.00,1.29
7604.00,1.28
7603.00,1.28
7602.00,1.28
7601.00,1.28
7600.00,1.28
7599.00,1.28
7598.00,1.28
7597.00,1.28
7596.00,1.28
7595.00,1.28
7594.00,1.29
7593.00,1.29
7592.00,1.29
7591.00,1.29
7590.00,1.29
7589.00,1.29
7588.00,1.29
7587.00,1.29
7586.00,1.29
7585.00,1.29
7584.00,1.29
7583.00,1.29
7582.00,1.29
7581.00,1.29
7580.00,1.29
7579.00,1.29
7578.00,1.29
7577.00,1.29
7576.00,1.29
7575.00,1.29
7574.00,1.29
7573.00,1.29
7572.00,1.29
7571.00,1.29
7570.00,1.29
7569.00,1.29
7568.00,1.29
7567.00,1.29
7566.00,1.29
7565.00,1.29
7564.00,1.29
7563.00,1.29
7562.00,1.29
7561.00,1.29
7560.00,1.29
7559.00,1.28
7558.00,1.28
7557.00,1.28
7556.00,1.28
7555.00,1.28
7554.00,1.28
7553.00,1.28
7552.00,1.28
7551.00,1.28
7550.00,1.28
7549.00,1.28
7548.00,1.28
7547.00,1.28
7546.00,1.28
7545.00,1.28
7544.00,1.28
7543.00,1.28
7542.00,1.28
7541.00,1.28
7540.00,1.28
7539.00,1.28
7538.00,1.28
7537.00,1.28
7536.00,1.28
7535.00,1.28
7534.00,1.28
7533.00,1.28
7532.00,1.28
7531.00,1.28
7530.00,1.28
7529.00,1.28
7528.00,1.28
7527.00,1.27
7526.00,1.27
7525.00,1.27
7524.00,1.27
7523.00,1.27
7522.00,1.27
7521.00,1.27
7520.00,1.27
7519.00,1.27
7518.00,1.27
7517.00,1.27
7516.00,1.27
7515.00,1.27
7514.00,1.27
7513.00,1.27
7512.00,1.27
7511.00,1.27
7510.00,1.27
7509.00,1.27
7508.00,1.27
7507.00,1.27
7506.00,1.27
7505.00,1.27
7504.00,1.26
7503.00,1.26
7502.00,1.26
7501.00,1.26
7500.00,1.26
7499.00,1.26
7498.00,1.26
7497.00,1.26
7496.00,1.26
7495.00,1.26
7494.00,1.25
7493.00,1.25
7492.00,1.25
7491.00,1.25
7490.00,1.25
7489.00,1.25
7488.00,1.25
7487.00,1.25
7486.00,1.25
7485.00,1.24
7484.00,1.24
7483.00,1.24
7482.00,1.24
7481.00,1.24
7480.00,1.24
7479.00,1.24
7478.00,1.24
7477.00,1.24
7476.00,1.24
7475.00,1.24
7474.00,1.24
7473.00,1.24
7472.00,1.24
7471.00,1.24
7470.00,1.24
7469.00,1.24
7468.00,1.24
7467.00,1.24
7466.00,1.24
7465.00,1.24
7464.00,1.24
7463.00,1.24
7462.00,1.24
7461.00,1.24
7460.00,1.24
7459.00,1.23
7458.00,1.23
7457.00,1.23
7456.00,1.23
7455.00,1.23
7454.00,1.23
7453.00,1.23
7452.00,1.23
7451.00,1.23
7450.00,1.23
7449.00,1.23
7448.00,1.22
7447.00,1.22
7446.00,1.22
7445.00,1.22
7444.00,1.22
7443.00,1.22
7442.00,1.22
7441.00,1.22
7440.00,1.22
7439.00,1.22
7438.00,1.22
7437.00,1.22
7436.00,1.22
7435.00,1.22
7434.00,1.22
7433.00,1.22
7432.00,1.22
7431.00,1.22
7430.00,1.22
7429.00,1.21
7428.00,1.21
7427.00,1.21
7426.00,1.21
7425.00,1.21
7424.00,1.21
7423.00,1.21
7422.00,1.21
7421.00,1.21
7420.00,1.20
7419.00,1.20
7418.00,1.20
7417.00,1.20
7416.00,1.20
7415.00,1.20
7414.00,1.20
7413.00,1.20
7412.00,1.20
7411.00,1.20
7410.00,1.20
7409.00,1.20
7408.00,1.20
7407.00,1.19
7406.00,1.19
7405.00,1.19
7404.00,1.19
7403.00,1.19
7402.00,1.19
7401.00,1.19
7400.00,1.18
7399.00,1.18
7398.00,1.18
7397.00,1.18
7396.00,1.18
7395.00,1.18
7394.00,1.18
7393.00,1.17
7392.00,1.17
7391.00,1.17
7390.00,1.17
7389.00,1.17
7388.00,1.17
7387.00,1.17
7386.00,1.17
7385.00,1.17
7384.00,1.17
7383.00,1.16
7382.00,1.16
7381.00,1.16
7380.00,1.16
7379.00,1.16
7378.00,1.16
7377.00,1.16
7376.00,1.16
7375.00,1.16
7374.00,1.16
7373.00,1.16
7372.00,1.16
7371.00,1.16
7370.00,1.16
7369.00,1.16
7368.00,1.16
7367.00,1.16
7366.00,1.16
7365.00,1.16
7364.00,1.16
7363.00,1.16
7362.00,1.16
7361.00,1.16
7360.00,1.16
7359.00,1.16
7358.00,1.16
7357.00,1.16
7356.00,1.16
7355.00,1.16
7354.00,1.16
7353.00,1.16
7352.00,1.15
7351.00,1.15
7350.00,1.15
7349.00,1.15
7348.00,1.15
7347.00,1.15
7346.00,1.15
7345.00,1.15
7344.00,1.15
7343.00,1.14
7342.00,1.14
7341.00,1.14
7340.00,1.14
7339.00,1.14
7338.00,1.14
7337.00,1.14
7336.00,1.14
7335.00,1.14
7334.00,1.14
7333.00,1.14
7332.00,1.14
7331.00,1.14
7330.00,1.14
7329.00,1.14
7328.00,1.14
7327.00,1.14
7326.00,1.14
7325.00,1.14
7324.00,1.14
7323.00,1.14
7322.00,1.14
7321.00,1.14
7320.00,1.14
7319.00,1.14
7318.00,1.14
7317.00,1.14
7316.00,1.14
7315.00,1.14
7314.00,1.13
7313.00,1.13
7312.00,1.13
7311.00,1.13
7310.00,1.13
7309.00,1.13
7308.00,1.13
7307.00,1.13
7306.00,1.13
7305.00,1.13
7304.00,1.13
7303.00,1.13
7302.00,1.13
7301.00,1.12
7300.00,1.12
7299.00,1.12
7298.00,1.12
7297.00,1.12
7296.00,1.12
7295.00,1.12
7294.00,1.11
7293.00,1.11
7292.00,1.11
7291.00,1.11
7290.00,1.11
7289.00,1.11
7288.00,1.11
7287.00,1.10
7286.00,1.10
7285.00,1.10
7284.00,1.10
7283.00,1.10
7282.00,1.10
7281.00,1.10
7280.00,1.10
7279.00,1.10
7278.00,1.10
7277.00,1.10
7276.00,1.10
7275.00,1.09
7274.00,1.09
7273.00,1.09
7272.00,1.09
7271.00,1.09
7270.00,1.09
7269.00,1.09
7268.00,1.09
7267.00,1.08
7266.00,1.08
7265.00,1.08
7264.00,1.08
7263.00,1.08
7262.00,1.08
7261.00,1.08
7260.00,1.07
7259.00,1.07
7258.00,1.07
7257.00,1.07
7256.00,1.07
7255.00,1.06
7254.00,1.06
7253.00,1.06
7252.00,1.06
7251.00,1.06
7250.00,1.05
7249.00,1.05
7248.00,1.05
7247.00,1.05
7246.00,1.04
7245.00,1.04
7244.00,1.04
7243.00,1.04
7242.00,1.03
7241.00,1.03
7240.00,1.03
7239.00,1.02
7238.00,1.02
7237.00,1.02
7236.00,1.01
7235.00,1.01
7234.00,1.01
7233.00,1.00
7232.00,1.00
7231.00,1.00
7230.00,1.00
7229.00,0.99
7228.00,0.99
7227.00,0.99
7226.00,0.98
7225.00,0.98
7224.00,0.98
7223.00,0.98
7222.00,0.97
7221.00,0.97
7220.00,0.97
7219.00,0.96
7218.00,0.96
7217.00,0.96
7216.00,0.96
7215.00,0.95
7214.00,0.95
7213.00,0.95
7212.00,0.94
7211.00,0.94
7210.00,0.94
7209.00,0.93
7208.00,0.93
7207.00,0.93
7206.00,0.92
7205.00,0.92
7204.00,0.92
7203.00,0.91
7202.00,0.91
7201.00,0.91
7200.00,0.90
7199.00,0.90
7198.00,0.90
7197.00,0.90
7196.00,0.89
7195.00,0.89
7194.00,0.89
7193.00,0.88
7192.00,0.88
7191.00,0.88
7190.00,0.88
7189.00,0.87
7188.00,0.87
7187.00,0.87
7186.00,0.87
7185.00,0.86
7184.00,0.86
7183.00,0.86
7182.00,0.86
7181.00,0.85
7180.00,0.85
7179.00,0.85
7178.00,0.85
7177.00,0.84
7176.00,0.84
7175.00,0.84
7174.00,0.84
7173.00,0.83
7172.00,0.83
7171.00,0.83
7170.00,0.83
7169.00,0.82
7168.00,0.82
7167.00,0.82
7166.00,0.82
7165.00,0.81
7164.00,0.81
7163.00,0.81
7162.00,0.81
7161.00,0.81
7160.00,0.80
7159.00,0.80
7158.00,0.80
7157.00,0.80
7156.00,0.80
7155.00,0.80
7154.00,0.80
7153.00,0.80
7152.00,0.79
7151.00,0.79
7150.00,0.79
7149.00,0.79
7148.00,0.79
7147.00,0.78
7146.00,0.78
7145.00,0.78
7144.00,0.78
7143.00,0.77
7142.00,0.77
7141.00,0.77
7140.00,0.76
7139.00,0.76
7138.00,0.76
7137.00,0.76
7136.00,0.75
7135.00,0.75
7134.00,0.75
7133.00,0.75
7132.00,0.75
7131.00,0.75
7130.00,0.75
7129.00,0.74
7128.00,0.74
7127.00,0.74
7126.00,0.74
7125.00,0.74
7124.00,0.74
7123.00,0.74
7122.00,0.74
7121.00,0.74
7120.00,0.73
7119.00,0.73
7118.00,0.73
7117.00,0.73
7116.00,0.72
7115.00,0.72
7114.00,0.72
7113.00,0.72
7112.00,0.71
7111.00,0.71
7110.00,0.71
7109.00,0.71
7108.00,0.70
7107.00,0.70
7106.00,0.70
7105.00,0.70
7104.00,0.69
7103.00,0.69
7102.00,0.69
7101.00,0.69
7100.00,0.69
7099.00,0.69
7098.00,0.69
7097.00,0.68
7096.00,0.68
7095.00,0.68
7094.00,0.68
7093.00,0.68
7092.00,0.68
7091.00,0.68
7090.00,0.68
7089.00,0.68
7088.00,0.68
7087.00,0.68
7086.00,0.68
7085.00,0.68
7084.00,0.68
7083.00,0.68
7082.00,0.68
7081.00,0.68
7080.00,0.68
7079.00,0.68
7078.00,0.68
7077.00,0.67
7076.00,0.67
7075.00,0.67
7074.00,0.67
7073.00,0.67
7072.00,0.67
7071.00,0.67
7070.00,0.67
7069.00,0.67
7068.00,0.66
7067.00,0.66
7066.00,0.66
7065.00,0.66
7064.00,0.66
7063.00,0.66
7062.00,0.66
7061.00,0.66
7060.00,0.66
7059.00,0.65
7058.00,0.65
7057.00,0.65
7056.00,0.65
7055.00,0.65
7054.00,0.65
7053.00,0.65
7052.00,0.65
7051.00,0.65
7050.00,0.65
7049.00,0.64
7048.00,0.64
7047.00,0.64
7046.00,0.64
7045.00,0.64
7044.00,0.64
7043.00,0.64
7042.00,0.64
7041.00,0.64
7040.00,0.64
7039.00,0.64
7038.00,0.64
7037.00,0.64
7036.00,0.64
7035.00,0.63
7034.00,0.63
7033.00,0.63
7032.00,0.63
7031.00,0.63
7030.00,0.63
7029.00,0.63
7028.00,0.63
7027.00,0.63
7026.00,0.63
7025.00,0.63
7024.00,0.63
7023.00,0.63
7022.00,0.63
7021.00,0.63
7020.00,0.63
7019.00,0.63
7018.00,0.63
7017.00,0.63
7016.00,0.63
7015.00,0.63
7014.00,0.63
7013.00,0.63
7012.00,0.63
7011.00,0.63
7010.00,0.63
7009.00,0.63
7008.00,0.63
7007.00,0.63
7006.00,0.63
7005.00,0.63
7004.00,0.63
7003.00,0.62
7002.00,0.62
7001.00,0.62
7000.00,0.62
6999.00,0.62
6998.00,0.62
6997.00,0.62
6996.00,0.62
6995.00,0.62
6994.00,0.62
6993.00,0.62
6992.00,0.62
6991.00,0.62
6990.00,0.62
6989.00,0.62
6988.00,0.62
6987.00,0.62
6986.00,0.62
6985.00,0.62
6984.00,0.62
6983.00,0.62
6982.00,0.62
6981.00,0.62
6980.00,0.62
6979.00,0.62
6978.00,0.62
6977.00,0.62
6976.00,0.62
6975.00,0.62
6974.00,0.62
6973.00,0.62
6972.00,0.62
6971.00,0.62
6970.00,0.62
6969.00,0.62
6968.00,0.62
6967.00,0.62
6966.00,0.62
6965.00,0.62
6964.00,0.62
6963.00,0.62
6962.00,0.62
6961.00,0.62
6960.00,0.62
6959.00,0.62
6958.00,0.62
6957.00,0.62
6956.00,0.62
6955.00,0.62
6954.00,0.62
6953.00,0.62
6952.00,0.62
6951.00,0.62
6950.00,0.62
6949.00,0.62
6948.00,0.62
6947.00,0.62
6946.00,0.62
6945.00,0.62
6944.00,0.62
6943.00,0.62
6942.00,0.61
6941.00,0.61
6940.00,0.61
6939.00,0.61
6938.00,0.61
6937.00,0.61
6936.00,0.61
6935.00,0.61
6934.00,0.61
6933.00,0.61
6932.00,0.61
6931.00,0.61
6930.00,0.61
6929.00,0.61
6928.00,0.61
6927.00,0.61
6926.00,0.61
6925.00,0.61
6924.00,0.61
6923.00,0.61
6922.00,0.61
6921.00,0.61
6920.00,0.61
6919.00,0.61
6918.00,0.61
6917.00,0.61
6916.00,0.61
6915.00,0.61
6914.00,0.61
6913.00,0.61
6912.00,0.61
6911.00,0.62
6910.00,0.62
6909.00,0.62
6908.00,0.62
6907.00,0.62
6906.00,0.62
6905.00,0.62
6904.00,0.62
6903.00,0.62
6902.00,0.62
6901.00,0.62
6900.00,0.62
6899.00,0.62
6898.00,0.62
6897.00,0.62
6896.00,0.62
6895.00,0.62
6894.00,0.62
6893.00,0.62
6892.00,0.62
6891.00,0.62
6890.00,0.62
6889.00,0.62
6888.00,0.62
6887.00,0.62
6886.00,0.62
6885.00,0.62
6884.00,0.62
6883.00,0.62
6882.00,0.62
6881.00,0.62
6880.00,0.62
6879.00,0.62
6878.00,0.62
6877.00,0.62
6876.00,0.62
6875.00,0.62
6874.00,0.62
6873.00,0.62
6872.00,0.62
6871.00,0.62
6870.00,0.62
6869.00,0.62
6868.00,0.62
6867.00,0.62
6866.00,0.62
6865.00,0.62
6864.00,0.62
6863.00,0.62
6862.00,0.62
6861.00,0.62
6860.00,0.62
6859.00,0.62
6858.00,0.62
6857.00,0.62
6856.00,0.62
6855.00,0.62
6854.00,0.62
6853.00,0.62
6852.00,0.62
6851.00,0.62
6850.00,0.62
6849.00,0.62
6848.00,0.62
6847.00,0.62
6846.00,0.62
6845.00,0.62
6844.00,0.62
6843.00,0.62
6842.00,0.62
6841.00,0.62
6840.00,0.62
6839.00,0.62
6838.00,0.62
6837.00,0.62
6836.00,0.62
6835.00,0.62
6834.00,0.62
6833.00,0.62
6832.00,0.62
6831.00,0.62
6830.00,0.62
6829.00,0.62
6828.00,0.62
6827.00,0.62
6826.00,0.62
6825.00,0.62
6824.00,0.62
6823.00,0.62
6822.00,0.62
6821.00,0.62
6820.00,0.63
6819.00,0.63
6818.00,0.63
6817.00,0.63
6816.00,0.63
6815.00,0.63
6814.00,0.63
6813.00,0.63
6812.00,0.63
6811.00,0.63
6810.00,0.63
6809.00,0.63
6808.00,0.63
6807.00,0.63
6806.00,0.63
6805.00,0.63
6804.00,0.63
6803.00,0.63
6802.00,0.63
6801.00,0.63
6800.00,0.63
6799.00,0.63
6798.00,0.63
6797.00,0.63
6796.00,0.63
6795.00,0.63
6794.00,0.63
6793.00,0.63
6792.00,0.63
6791.00,0.63
6790.00,0.63
6789.00,0.63
6788.00,0.63
6787.00,0.63
6786.00,0.63
6785.00,0.63
6784.00,0.64
6783.00,0.64
6782.00,0.64
6781.00,0.64
6780.00,0.64
6779.00,0.64
6778.00,0.64
6777.00,0.64
6776.00,0.64
6775.00,0.64
6774.00,0.65
6773.00,0.65
6772.00,0.65
6771.00,0.65
6770.00,0.65
6769.00,0.65
6768.00,0.65
6767.00,0.65
6766.00,0.65
6765.00,0.65
6764.00,0.65
6763.00,0.65
6762.00,0.65
6761.00,0.65
6760.00,0.65
6759.00,0.65
6758.00,0.65
6757.00,0.65
6756.00,0.65
6755.00,0.65
6754.00,0.65
6753.00,0.65
6752.00,0.65
6751.00,0.65
6750.00,0.65
6749.00,0.65
6748.00,0.65
6747.00,0.65
6746.00,0.65
6745.00,0.65
6744.00,0.65
6743.00,0.65
6742.00,0.65
6741.00,0.65
6740.00,0.65
6739.00,0.65
6738.00,0.65
6737.00,0.65
6736.00,0.65
6735.00,0.65
6734.00,0.65
6733.00,0.65
6732.00,0.65
6731.00,0.65
6730.00,0.65
6729.00,0.65
6728.00,0.65
6727.00,0.65
6726.00,0.65
6725.00,0.65
6724.00,0.65
6723.00,0.65
6722.00,0.65
6721.00,0.66
6720.00,0.66
6719.00,0.66
6718.00,0.66
6717.00,0.66
6716.00,0.66
6715.00,0.66
6714.00,0.66
6713.00,0.66
6712.00,0.66
6711.00,0.66
6710.00,0.66
6709.00,0.66
6708.00,0.67
6707.00,0.67
6706.00,0.67
6705.00,0.67
6704.00,0.67
6703.00,0.67
6702.00,0.67
6701.00,0.67
6700.00,0.67
6699.00,0.67
6698.00,0.67
6697.00,0.67
6696.00,0.67
6695.00,0.67
6694.00,0.67
6693.00,0.67
6692.00,0.67
6691.00,0.67
6690.00,0.67
6689.00,0.67
6688.00,0.67
6687.00,0.67
6686.00,0.67
6685.00,0.68
6684.00,0.68
6683.00,0.68
6682.00,0.68
6681.00,0.68
6680.00,0.68
6679.00,0.68
6678.00,0.68
6677.00,0.68
6676.00,0.68
6675.00,0.68
6674.00,0.69
6673.00,0.69
6672.00,0.69
6671.00,0.69
6670.00,0.69
6669.00,0.69
6668.00,0.69
6667.00,0.69
6666.00,0.69
6665.00,0.69
6664.00,0.70
6663.00,0.70
6662.00,0.70
6661.00,0.70
6660.00,0.70
6659.00,0.70
6658.00,0.70
6657.00,0.70
6656.00,0.70
6655.00,0.70
6654.00,0.70
6653.00,0.70
6652.00,0.70
6651.00,0.70
6650.00,0.70
6649.00,0.70
6648.00,0.70
6647.00,0.70
6646.00,0.70
6645.00,0.70
6644.00,0.70
6643.00,0.70
6642.00,0.70
6641.00,0.70
6640.00,0.70
6639.00,0.70
6638.00,0.71
6637.00,0.71
6636.00,0.71
6635.00,0.71
6634.00,0.71
6633.00,0.71
6632.00,0.71
6631.00,0.71
6630.00,0.71
6629.00,0.72
6628.00,0.72
6627.00,0.72
6626.00,0.72
6625.00,0.72
6624.00,0.72
6623.00,0.72
6622.00,0.72
6621.00,0.73
6620.00,0.73
6619.00,0.73
6618.00,0.73
6617.00,0.73
6616.00,0.73
6615.00,0.73
6614.00,0.73
6613.00,0.73
6612.00,0.74
6611.00,0.74
6610.00,0.74
6609.00,0.74
6608.00,0.74
6607.00,0.74
6606.00,0.74
6605.00,0.74
6604.00,0.74
6603.00,0.74
6602.00,0.74
6601.00,0.74
6600.00,0.74
6599.00,0.74
6598.00,0.74
6597.00,0.74
6596.00,0.74
6595.00,0.74
6594.00,0.74
6593.00,0.75
6592.00,0.75
6591.00,0.75
6590.00,0.75
6589.00,0.75
6588.00,0.75
6587.00,0.75
6586.00,0.75
6585.00,0.75
6584.00,0.75
6583.00,0.75
6582.00,0.75
6581.00,0.75
6580.00,0.75
6579.00,0.75
6578.00,0.75
6577.00,0.75
6576.00,0.75
6575.00,0.75
6574.00,0.75
6573.00,0.75
6572.00,0.75
6571.00,0.75
6570.00,0.75
6569.00,0.76
6568.00,0.76
6567.00,0.76
6566.00,0.76
6565.00,0.76
6564.00,0.76
6563.00,0.76
6562.00,0.76
6561.00,0.76
6560.00,0.76
6559.00,0.76
6558.00,0.77
6557.00,0.77
6556.00,0.77
6555.00,0.77
6554.00,0.77
6553.00,0.77
6552.00,0.77
6551.00,0.77
6550.00,0.77
6549.00,0.77
6548.00,0.77
6547.00,0.77
6546.00,0.78
6545.00,0.78
6544.00,0.78
6543.00,0.78
6542.00,0.78
6541.00,0.78
6540.00,0.78
6539.00,0.78
6538.00,0.78
6537.00,0.78
6536.00,0.78
6535.00,0.78
6534.00,0.78
6533.00,0.78
6532.00,0.78
6531.00,0.78
6530.00,0.78
6529.00,0.78
6528.00,0.78
6527.00,0.78
6526.00,0.79
6525.00,0.79
6524.00,0.79
6523.00,0.79
6522.00,0.79
6521.00,0.79
6520.00,0.79
6519.00,0.79
6518.00,0.79
6517.00,0.79
6516.00,0.79
6515.00,0.79
6514.00,0.79
6513.00,0.79
6512.00,0.79
6511.00,0.79
6510.00,0.79
6509.00,0.79
6508.00,0.79
6507.00,0.79
6506.00,0.79
6505.00,0.79
6504.00,0.79
6503.00,0.79
6502.00,0.79
6501.00,0.80
6500.00,0.80
6499.00,0.80
6498.00,0.80
6497.00,0.80
6496.00,0.80
6495.00,0.80
6494.00,0.80
6493.00,0.80
6492.00,0.80
6491.00,0.81
6490.00,0.81
6489.00,0.81
6488.00,0.81
6487.00,0.81
6486.00,0.81
6485.00,0.81
6484.00,0.81
6483.00,0.81
6482.00,0.82
6481.00,0.82
6480.00,0.82
6479.00,0.82
6478.00,0.82
6477.00,0.82
6476.00,0.82
6475.00,0.82
6474.00,0.82
6473.00,0.82
6472.00,0.82
6471.00,0.82
6470.00,0.82
6469.00,0.82
6468.00,0.82
6467.00,0.82
6466.00,0.82
6465.00,0.82
6464.00,0.82
6463.00,0.82
6462.00,0.82
6461.00,0.82
6460.00,0.82
6459.00,0.82
6458.00,0.82
6457.00,0.82
6456.00,0.82
6455.00,0.82
6454.00,0.82
6453.00,0.82
6452.00,0.82
6451.00,0.82
6450.00,0.82
6449.00,0.82
6448.00,0.82
6447.00,0.82
6446.00,0.82
6445.00,0.82
6444.00,0.82
6443.00,0.82
6442.00,0.82
6441.00,0.83
6440.00,0.83
6439.00,0.83
6438.00,0.83
6437.00,0.83
6436.00,0.83
6435.00,0.83
6434.00,0.83
6433.00,0.83
6432.00,0.83
6431.00,0.83
6430.00,0.83
6429.00,0.83
6428.00,0.83
6427.00,0.83
6426.00,0.83
6425.00,0.83
6424.00,0.83
6423.00,0.83
6422.00,0.83
6421.00,0.83
6420.00,0.83
6419.00,0.84
6418.00,0.84
6417.00,0.84
6416.00,0.84
6415.00,0.84
6414.00,0.84
6413.00,0.84
6412.00,0.84
6411.00,0.84
6410.00,0.84
6409.00,0.84
6408.00,0.84
6407.00,0.84
6406.00,0.84
6405.00,0.84
6404.00,0.84
6403.00,0.84
6402.00,0.84
6401.00,0.84
6400.00,0.84
6399.00,0.84
6398.00,0.84
6397.00,0.84
6396.00,0.85
6395.00,0.85
6394.00,0.85
6393.00,0.85
6392.00,0.85
6391.00,0.85
6390.00,0.85
6389.00,0.85
6388.00,0.85
6387.00,0.85
6386.00,0.86
6385.00,0.86
6384.00,0.86
6383.00,0.86
6382.00,0.86
6381.00,0.86
6380.00,0.86
6379.00,0.86
6378.00,0.86
6377.00,0.86
6376.00,0.86
6375.00,0.86
6374.00,0.86
6373.00,0.87
6372.00,0.87
6371.00,0.87
6370.00,0.87
6369.00,0.87
6368.00,0.87
6367.00,0.87
6366.00,0.87
6365.00,0.87
6364.00,0.87
6363.00,0.88
6362.00,0.88
6361.00,0.88
6360.00,0.88
6359.00,0.88
6358.00,0.88
6357.00,0.88
6356.00,0.88
6355.00,0.88
6354.00,0.89
6353.00,0.89
6352.00,0.89
6351.00,0.89
6350.00,0.89
6349.00,0.89
6348.00,0.89
6347.00,0.89
6346.00,0.89
6345.00,0.89
6344.00,0.89
6343.00,0.89
6342.00,0.89
6341.00,0.89
6340.00,0.89
6339.00,0.89
6338.00,0.89
6337.00,0.89
6336.00,0.89
6335.00,0.89
6334.00,0.89
6333.00,0.89
6332.00,0.89
6331.00,0.89
6330.00,0.90
6329.00,0.90
6328.00,0.90
6327.00,0.90
6326.00,0.90
6325.00,0.90
6324.00,0.90
6323.00,0.90
6322.00,0.90
6321.00,0.90
6320.00,0.90
6319.00,0.90
6318.00,0.90
6317.00,0.90
6316.00,0.90
6315.00,0.91
6314.00,0.91
6313.00,0.91
6312.00,0.91
6311.00,0.91
6310.00,0.91
6309.00,0.91
6308.00,0.91
6307.00,0.91
6306.00,0.92
6305.00,0.92
6304.00,0.92
6303.00,0.92
6302.00,0.92
6301.00,0.92
6300.00,0.92
6299.00,0.92
6298.00,0.92
6297.00,0.92
6296.00,0.93
6295.00,0.93
6294.00,0.93
6293.00,0.93
6292.00,0.93
6291.00,0.93
6290.00,0.93
6289.00,0.93
6288.00,0.93
6287.00,0.93
6286.00,0.93
6285.00,0.93
6284.00,0.93
6283.00,0.93
6282.00,0.93
6281.00,0.94
6280.00,0.94
6279.00,0.94
6278.00,0.94
6277.00,0.94
6276.00,0.94
6275.00,0.94
6274.00,0.95
6273.00,0.95
6272.00,0.95
6271.00,0.95
6270.00,0.95
6269.00,0.95
6268.00,0.95
6267.00,0.95
6266.00,0.95
6265.00,0.95
6264.00,0.95
6263.00,0.96
6262.00,0.96
6261.00,0.96
6260.00,0.96
6259.00,0.96
6258.00,0.96
6257.00,0.96
6256.00,0.96
6255.00,0.96
6254.00,0.96
6253.00,0.96
6252.00,0.96
6251.00,0.97
6250.00,0.97
6249.00,0.97
6248.00,0.97
6247.00,0.97
6246.00,0.97
6245.00,0.97
6244.00,0.97
6243.00,0.97
6242.00,0.97
6241.00,0.98
6240.00,0.98
6239.00,0.98
6238.00,0.98
6237.00,0.98
6236.00,0.98
6235.00,0.99
6234.00,0.99
6233.00,0.99
6232.00,0.99
6231.00,0.99
6230.00,0.99
6229.00,0.99
6228.00,0.99
6227.00,1.00
6226.00,1.00
6225.00,1.00
6224.00,1.00
6223.00,1.00
6222.00,1.00
6221.00,1.00
6220.00,1.00
6219.00,1.00
6218.00,1.00
6217.00,1.01
6216.00,1.01
6215.00,1.01
6214.00,1.01
6213.00,1.01
6212.00,1.01
6211.00,1.01
6210.00,1.01
6209.00,1.01
6208.00,1.01
6207.00,1.01
6206.00,1.02
6205.00,1.02
6204.00,1.02
6203.00,1.02
6202.00,1.02
6201.00,1.02
6200.00,1.02
6199.00,1.02
6198.00,1.02
6197.00,1.02
6196.00,1.03
6195.00,1.03
6194.00,1.03
6193.00,1.03
6192.00,1.03
6191.00,1.03
6190.00,1.03
6189.00,1.03
6188.00,1.03
6187.00,1.03
6186.00,1.04
6185.00,1.04
6184.00,1.04
6183.00,1.04
6182.00,1.04
6181.00,1.04
6180.00,1.04
6179.00,1.04
6178.00,1.04
6177.00,1.05
6176.00,1.05
6175.00,1.05
6174.00,1.05
6173.00,1.05
6172.00,1.05
6171.00,1.05
6170.00,1.05
6169.00,1.06
6168.00,1.06
6167.00,1.06
6166.00,1.06
6165.00,1.06
6164.00,1.06
6163.00,1.06
6162.00,1.07
6161.00,1.07
6160.00,1.07
6159.00,1.07
6158.00,1.07
6157.00,1.07
6156.00,1.07
6155.00,1.07
6154.00,1.08
6153.00,1.08
6152.00,1.08
6151.00,1.08
6150.00,1.08
6149.00,1.08
6148.00,1.08
6147.00,1.08
6146.00,1.08
6145.00,1.09
6144.00,1.09
6143.00,1.09
6142.00,1.09
6141.00,1.09
6140.00,1.09
6139.00,1.09
6138.00,1.09
6137.00,1.09
6136.00,1.10
6135.00,1.10
6134.00,1.10
6133.00,1.10
6132.00,1.10
6131.00,1.10
6130.00,1.10
6129.00,1.10
6128.00,1.11
6127.00,1.11
6126.00,1.11
6125.00,1.11
6124.00,1.11
6123.00,1.11
6122.00,1.11
6121.00,1.11
6120.00,1.11
6119.00,1.12
6118.00,1.12
6117.00,1.12
6116.00,1.12
6115.00,1.12
6114.00,1.12
6113.00,1.12
6112.00,1.13
6111.00,1.13
6110.00,1.13
6109.00,1.13
6108.00,1.13
6107.00,1.13
6106.00,1.13
6105.00,1.14
6104.00,1.14
6103.00,1.14
6102.00,1.14
6101.00,1.14
6100.00,1.14
6099.00,1.14
6098.00,1.14
6097.00,1.15
6096.00,1.15
6095.00,1.15
6094.00,1.15
6093.00,1.15
6092.00,1.15
6091.00,1.15
6090.00,1.15
6089.00,1.16
6088.00,1.16
6087.00,1.16
6086.00,1.16
6085.00,1.16
6084.00,1.16
6083.00,1.16
6082.00,1.16
6081.00,1.17
6080.00,1.17
6079.00,1.17
6078.00,1.17
6077.00,1.17
6076.00,1.17
6075.00,1.17
6074.00,1.17
6073.00,1.17
6072.00,1.17
6071.00,1.17
6070.00,1.17
6069.00,1.17
6068.00,1.17
6067.00,1.17
6066.00,1.17
6065.00,1.18
6064.00,1.18
6063.00,1.18
6062.00,1.18
6061.00,1.18
6060.00,1.18
6059.00,1.18
6058.00,1.18
6057.00,1.18
6056.00,1.19
6055.00,1.19
6054.00,1.19
6053.00,1.19
6052.00,1.19
6051.00,1.19
6050.00,1.19
6049.00,1.19
6048.00,1.19
6047.00,1.20
6046.00,1.20
6045.00,1.20
6044.00,1.20
6043.00,1.20
6042.00,1.20
6041.00,1.20
6040.00,1.20
6039.00,1.20
6038.00,1.20
6037.00,1.20
6036.00,1.20
6035.00,1.20
6034.00,1.20
6033.00,1.20
6032.00,1.20
6031.00,1.20
6030.00,1.20
6029.00,1.20
6028.00,1.20
6027.00,1.20
6026.00,1.20
6025.00,1.20
6024.00,1.20
6023.00,1.20
6022.00,1.20
6021.00,1.20
6020.00,1.20
6019.00,1.20
6018.00,1.20
6017.00,1.20
6016.00,1.20
6015.00,1.20
6014.00,1.20
6013.00,1.20
6012.00,1.20
6011.00,1.20
6010.00,1.20
6009.00,1.20
6008.00,1.20
6007.00,1.20
6006.00,1.20
6005.00,1.20
6004.00,1.20
6003.00,1.20
6002.00,1.20
6001.00,1.20
6000.00,1.20
5999.00,1.20
5998.00,1.20
5997.00,1.20
5996.00,1.20
5995.00,1.20
5994.00,1.20
5993.00,1.20
5992.00,1.20
5991.00,1.19
5990.00,1.19
5989.00,1.19
5988.00,1.19
5987.00,1.19
5986.00,1.19
5985.00,1.18
5984.00,1.18
5983.00,1.18
5982.00,1.18
5981.00,1.17
5980.00,1.17
5979.00,1.17
5978.00,1.17
5977.00,1.16
5976.00,1.16
5975.00,1.16
5974.00,1.15
5973.00,1.15
5972.00,1.14
5971.00,1.14
5970.00,1.13
5969.00,1.13
5968.00,1.12
5967.00,1.12
5966.00,1.11
5965.00,1.11
5964.00,1.10
5963.00,1.09
5962.00,1.09
5961.00,1.08
5960.00,1.07
5959.00,1.07
5958.00,1.06
5957.00,1.06
5956.00,1.05
5955.00,1.04
5954.00,1.04
5953.00,1.03
5952.00,1.03
5951.00,1.02
5950.00,1.02
5949.00,1.01
5948.00,1.01
5947.00,1.01
5946.00,1.00
5945.00,1.00
5944.00,1.00
5943.00,0.99
5942.00,0.99
5941.00,0.99
5940.00,0.99
5939.00,0.99
5938.00,0.99
5937.00,0.98
5936.00,0.98
5935.00,0.98
5934.00,0.98
5933.00,0.98
5932.00,0.98
5931.00,0.98
5930.00,0.98
5929.00,0.98
5928.00,0.98
5927.00,0.98
5926.00,0.98
5925.00,0.98
5924.00,0.98
5923.00,0.97
5922.00,0.97
5921.00,0.97
5920.00,0.97
5919.00,0.97
5918.00,0.97
5917.00,0.97
5916.00,0.96
5915.00,0.96
5914.00,0.96
5913.00,0.96
5912.00,0.96
5911.00,0.96
5910.00,0.96
5909.00,0.95
5908.00,0.95
5907.00,0.95
5906.00,0.95
5905.00,0.95
5904.00,0.95
5903.00,0.95
5902.00,0.95
5901.00,0.95
5900.00,0.95
5899.00,0.95
5898.00,0.95
5897.00,0.95
5896.00,0.95
5895.00,0.95
5894.00,0.95
5893.00,0.95
5892.00,0.96
5891.00,0.96
5890.00,0.96
5889.00,0.96
5888.00,0.96
5887.00,0.96
5886.00,0.97
5885.00,0.97
5884.00,0.97
5883.00,0.97
5882.00,0.98
5881.00,0.98
5880.00,0.98
5879.00,0.98
5878.00,0.99
5877.00,0.99
5876.00,0.99
5875.00,1.00
5874.00,1.00
5873.00,1.00
5872.00,1.00
5871.00,1.00
5870.00,1.01
5869.00,1.01
5868.00,1.01
5867.00,1.01
5866.00,1.01
5865.00,1.02
5864.00,1.02
5863.00,1.02
5862.00,1.02
5861.00,1.02
5860.00,1.02
5859.00,1.02
5858.00,1.02
5857.00,1.02
5856.00,1.03
5855.00,1.03
5854.00,1.03
5853.00,1.03
5852.00,1.03
5851.00,1.03
5850.00,1.03
5849.00,1.03
5848.00,1.03
5847.00,1.03
5846.00,1.03
5845.00,1.03
5844.00,1.03
5843.00,1.03
5842.00,1.03
5841.00,1.03
5840.00,1.03
5839.00,1.03
5838.00,1.03
5837.00,1.03
5836.00,1.03
5835.00,1.03
5834.00,1.03
5833.00,1.03
5832.00,1.03
5831.00,1.03
5830.00,1.03
5829.00,1.03
5828.00,1.03
5827.00,1.03
5826.00,1.03
5825.00,1.03
5824.00,1.03
5823.00,1.03
5822.00,1.03
5821.00,1.03
5820.00,1.03
5819.00,1.03
5818.00,1.03
5817.00,1.03
5816.00,1.03
5815.00,1.03
5814.00,1.03
5813.00,1.04
5812.00,1.04
5811.00,1.04
5810.00,1.04
5809.00,1.04
5808.00,1.04
5807.00,1.03
5806.00,1.03
5805.00,1.03
5804.00,1.03
5803.00,1.03
5802.00,1.03
5801.00,1.03
5800.00,1.03
5799.00,1.03
5798.00,1.03
5797.00,1.03
5796.00,1.03
5795.00,1.02
5794.00,1.02
5793.00,1.02
5792.00,1.02
5791.00,1.02
5790.00,1.01
5789.00,1.01
5788.00,1.01
5787.00,1.01
5786.00,1.01
5785.00,1.01
5784.00,1.00
5783.00,1.00
5782.00,1.00
5781.00,1.00
5780.00,1.00
5779.00,1.00
5778.00,1.00
5777.00,1.00
5776.00,1.00
5775.00,1.00
5774.00,1.00
5773.00,1.00
5772.00,1.00
5771.00,1.00
5770.00,1.00
5769.00,1.00
5768.00,1.00
5767.00,1.00
5766.00,1.00
5765.00,1.00
5764.00,1.00
5763.00,1.00
5762.00,1.00
5761.00,1.01
5760.00,1.01
5759.00,1.01
5758.00,1.01
5757.00,1.01
5756.00,1.02
5755.00,1.02
5754.00,1.02
5753.00,1.02
5752.00,1.02
5751.00,1.03
5750.00,1.03
5749.00,1.03
5748.00,1.04
5747.00,1.04
5746.00,1.04
5745.00,1.04
5744.00,1.05
5743.00,1.05
5742.00,1.05
5741.00,1.06
5740.00,1.06
5739.00,1.06
5738.00,1.06
5737.00,1.07
5736.00,1.07
5735.00,1.07
5734.00,1.07
5733.00,1.07
5732.00,1.08
5731.00,1.08
5730.00,1.08
5729.00,1.08
5728.00,1.08
5727.00,1.08
5726.00,1.09
5725.00,1.09
5724.00,1.09
5723.00,1.09
5722.00,1.09
5721.00,1.09
5720.00,1.09
5719.00,1.09
5718.00,1.09
5717.00,1.09
5716.00,1.09
5715.00,1.09
5714.00,1.09
5713.00,1.09
5712.00,1.09
5711.00,1.09
5710.00,1.09
5709.00,1.09
5708.00,1.09
5707.00,1.09
5706.00,1.09
5705.00,1.08
5704.00,1.08
5703.00,1.08
5702.00,1.08
5701.00,1.08
5700.00,1.08
5699.00,1.08
5698.00,1.08
5697.00,1.08
5696.00,1.08
5695.00,1.08
5694.00,1.07
5693.00,1.07
5692.00,1.07
5691.00,1.07
5690.00,1.07
5689.00,1.07
5688.00,1.07
5687.00,1.06
5686.00,1.06
5685.00,1.06
5684.00,1.06
5683.00,1.06
5682.00,1.06
5681.00,1.05
5680.00,1.05
5679.00,1.05
5678.00,1.05
5677.00,1.05
5676.00,1.05
5675.00,1.05
5674.00,1.05
5673.00,1.05
5672.00,1.05
5671.00,1.05
5670.00,1.05
5669.00,1.05
5668.00,1.05
5667.00,1.05
5666.00,1.06
5665.00,1.06
5664.00,1.06
5663.00,1.06
5662.00,1.06
5661.00,1.06
5660.00,1.06
5659.00,1.07
5658.00,1.07
5657.00,1.07
5656.00,1.07
5655.00,1.07
5654.00,1.07
5653.00,1.07
5652.00,1.08
5651.00,1.08
5650.00,1.08
5649.00,1.08
5648.00,1.08
5647.00,1.08
5646.00,1.08
5645.00,1.08
5644.00,1.08
5643.00,1.09
5642.00,1.09
5641.00,1.09
5640.00,1.09
5639.00,1.09
5638.00,1.09
5637.00,1.09
5636.00,1.10
5635.00,1.10
5634.00,1.10
5633.00,1.10
5632.00,1.10
5631.00,1.10
5630.00,1.11
5629.00,1.11
5628.00,1.11
5627.00,1.11
5626.00,1.11
5625.00,1.11
5624.00,1.12
5623.00,1.12
5622.00,1.12
5621.00,1.12
5620.00,1.12
5619.00,1.12
5618.00,1.12
5617.00,1.13
5616.00,1.13
5615.00,1.13
5614.00,1.13
5613.00,1.13
5612.00,1.13
5611.00,1.13
5610.00,1.14
5609.00,1.14
5608.00,1.14
5607.00,1.14
5606.00,1.14
5605.00,1.14
5604.00,1.14
5603.00,1.15
5602.00,1.15
5601.00,1.15
5600.00,1.15
5599.00,1.15
5598.00,1.15
5597.00,1.15
5596.00,1.16
5595.00,1.16
5594.00,1.16
5593.00,1.16
5592.00,1.16
5591.00,1.16
5590.00,1.16
5589.00,1.16
5588.00,1.17
5587.00,1.17
5586.00,1.17
5585.00,1.17
5584.00,1.17
5583.00,1.17
5582.00,1.17
5581.00,1.17
5580.00,1.17
5579.00,1.17
5578.00,1.18
5577.00,1.18
5576.00,1.18
5575.00,1.18
5574.00,1.18
5573.00,1.18
5572.00,1.18
5571.00,1.18
5570.00,1.19
5569.00,1.19
5568.00,1.19
5567.00,1.19
5566.00,1.19
5565.00,1.19
5564.00,1.19
5563.00,1.20
5562.00,1.20
5561.00,1.20
5560.00,1.20
5559.00,1.20
5558.00,1.20
5557.00,1.20
5556.00,1.20
5555.00,1.21
5554.00,1.21
5553.00,1.21
5552.00,1.21
5551.00,1.21
5550.00,1.21
5549.00,1.21
5548.00,1.21
5547.00,1.21
5546.00,1.22
5545.00,1.22
5544.00,1.22
5543.00,1.22
5542.00,1.22
5541.00,1.22
5540.00,1.22
5539.00,1.23
5538.00,1.23
5537.00,1.23
5536.00,1.23
5535.00,1.23
5534.00,1.23
5533.00,1.23
5532.00,1.23
5531.00,1.23
5530.00,1.23
5529.00,1.23
5528.00,1.23
5527.00,1.23
5526.00,1.23
5525.00,1.23
5524.00,1.23
5523.00,1.24
5522.00,1.24
5521.00,1.24
5520.00,1.24
5519.00,1.24
5518.00,1.24
5517.00,1.24
5516.00,1.24
5515.00,1.24
5514.00,1.24
5513.00,1.24
5512.00,1.24
5511.00,1.24
5510.00,1.24
5509.00,1.24
5508.00,1.24
5507.00,1.24
5506.00,1.24
5505.00,1.24
5504.00,1.24
5503.00,1.24
5502.00,1.25
5501.00,1.25
5500.00,1.25
5499.00,1.25
5498.00,1.25
5497.00,1.25
5496.00,1.25
5495.00,1.25
5494.00,1.25
5493.00,1.25
5492.00,1.25
5491.00,1.25
5490.00,1.25
5489.00,1.26
5488.00,1.26
5487.00,1.26
5486.00,1.26
5485.00,1.26
5484.00,1.26
5483.00,1.26
5482.00,1.27
5481.00,1.27
5480.00,1.27
5479.00,1.27
5478.00,1.27
5477.00,1.27
5476.00,1.27
5475.00,1.27
5474.00,1.28
5473.00,1.28
5472.00,1.28
5471.00,1.28
5470.00,1.28
5469.00,1.28
5468.00,1.28
5467.00,1.28
5466.00,1.28
5465.00,1.28
5464.00,1.28
5463.00,1.28
5462.00,1.28
5461.00,1.29
5460.00,1.29
5459.00,1.29
5458.00,1.29
5457.00,1.29
5456.00,1.29
5455.00,1.29
5454.00,1.29
5453.00,1.29
5452.00,1.29
5451.00,1.29
5450.00,1.29
5449.00,1.29
5448.00,1.29
5447.00,1.29
5446.00,1.29
5445.00,1.29
5444.00,1.29
5443.00,1.29
5442.00,1.29
5441.00,1.29
5440.00,1.29
5439.00,1.29
5438.00,1.29
5437.00,1.29
5436.00,1.29
5435.00,1.29
5434.00,1.29
5433.00,1.29
5432.00,1.29
5431.00,1.29
5430.00,1.29
5429.00,1.29
5428.00,1.29
5427.00,1.29
5426.00,1.29
5425.00,1.29
5424.00,1.29
5423.00,1.29
5422.00,1.29
5421.00,1.29
5420.00,1.29
5419.00,1.29
5418.00,1.29
5417.00,1.29
5416.00,1.29
5415.00,1.29
5414.00,1.29
5413.00,1.29
5412.00,1.29
5411.00,1.29
5410.00,1.29
5409.00,1.29
5408.00,1.29
5407.00,1.29
5406.00,1.29
5405.00,1.29
5404.00,1.29
5403.00,1.29
5402.00,1.29
5401.00,1.29
5400.00,1.29
5399.00,1.29
5398.00,1.28
5397.00,1.28
5396.00,1.28
5395.00,1.28
5394.00,1.28
5393.00,1.28
5392.00,1.28
5391.00,1.27
5390.00,1.27
5389.00,1.27
5388.00,1.27
5387.00,1.27
5386.00,1.26
5385.00,1.26
5384.00,1.26
5383.00,1.25
5382.00,1.25
5381.00,1.25
5380.00,1.25
5379.00,1.24
5378.00,1.24
5377.00,1.24
5376.00,1.23
5375.00,1.23
5374.00,1.23
5373.00,1.22
5372.00,1.22
5371.00,1.22
5370.00,1.21
5369.00,1.21
5368.00,1.20
5367.00,1.20
5366.00,1.19
5365.00,1.19
5364.00,1.19
5363.00,1.18
5362.00,1.18
5361.00,1.17
5360.00,1.16
5359.00,1.16
5358.00,1.15
5357.00,1.15
5356.00,1.14
5355.00,1.13
5354.00,1.13
5353.00,1.12
5352.00,1.11
5351.00,1.10
5350.00,1.09
5349.00,1.09
5348.00,1.08
5347.00,1.07
5346.00,1.06
5345.00,1.05
5344.00,1.05
5343.00,1.04
5342.00,1.03
5341.00,1.02
5340.00,1.01
5339.00,1.01
5338.00,1.00
5337.00,0.99
5336.00,0.99
5335.00,0.98
5334.00,0.97
5333.00,0.97
5332.00,0.96
5331.00,0.95
5330.00,0.95
5329.00,0.94
5328.00,0.94
5327.00,0.93
5326.00,0.93
5325.00,0.92
5324.00,0.92
5323.00,0.91
5322.00,0.91
5321.00,0.90
5320.00,0.90
5319.00,0.89
5318.00,0.89
5317.00,0.88
5316.00,0.88
5315.00,0.88
5314.00,0.87
5313.00,0.87
5312.00,0.86
5311.00,0.86
5310.00,0.86
5309.00,0.85
5308.00,0.85
5307.00,0.85
5306.00,0.84
5305.00,0.84
5304.00,0.84
5303.00,0.84
5302.00,0.84
5301.00,0.83
5300.00,0.83
5299.00,0.83
5298.00,0.83
5297.00,0.83
5296.00,0.83
5295.00,0.83
5294.00,0.83
5293.00,0.83
5292.00,0.82
5291.00,0.82
5290.00,0.82
5289.00,0.82
5288.00,0.82
5287.00,0.82
5286.00,0.82
5285.00,0.82
5284.00,0.82
5283.00,0.82
5282.00,0.82
5281.00,0.82
5280.00,0.82
5279.00,0.81
5278.00,0.81
5277.00,0.81
5276.00,0.81
5275.00,0.81
5274.00,0.81
5273.00,0.81
5272.00,0.81
5271.00,0.81
5270.00,0.81
5269.00,0.81
5268.00,0.81
5267.00,0.81
5266.00,0.81
5265.00,0.81
5264.00,0.81
5263.00,0.81
5262.00,0.81
5261.00,0.81
5260.00,0.81
5259.00,0.81
5258.00,0.81
5257.00,0.81
5256.00,0.81
5255.00,0.81
5254.00,0.81
5253.00,0.81
5252.00,0.81
5251.00,0.81
5250.00,0.81
5249.00,0.81
5248.00,0.81
5247.00,0.81
5246.00,0.81
5245.00,0.81
5244.00,0.81
5243.00,0.81
5242.00,0.81
5241.00,0.82
5240.00,0.82
5239.00,0.82
5238.00,0.82
5237.00,0.82
5236.00,0.82
5235.00,0.82
5234.00,0.82
5233.00,0.82
5232.00,0.82
5231.00,0.82
5230.00,0.82
5229.00,0.82
5228.00,0.82
5227.00,0.82
5226.00,0.82
5225.00,0.82
5224.00,0.82
5223.00,0.82
5222.00,0.82
5221.00,0.82
5220.00,0.82
5219.00,0.82
5218.00,0.82
5217.00,0.82
5216.00,0.82
5215.00,0.82
5214.00,0.82
5213.00,0.82
5212.00,0.82
5211.00,0.82
5210.00,0.82
5209.00,0.82
5208.00,0.82
5207.00,0.82
5206.00,0.82
5205.00,0.83
5204.00,0.83
5203.00,0.83
5202.00,0.83
5201.00,0.83
5200.00,0.83
5199.00,0.83
5198.00,0.83
5197.00,0.83
5196.00,0.83
5195.00,0.83
5194.00,0.83
5193.00,0.83
5192.00,0.83
5191.00,0.84
5190.00,0.84
5189.00,0.84
5188.00,0.84
5187.00,0.84
5186.00,0.84
5185.00,0.84
5184.00,0.84
5183.00,0.84
5182.00,0.84
5181.00,0.84
5180.00,0.84
5179.00,0.84
5178.00,0.84
5177.00,0.84
5176.00,0.84
5175.00,0.84
5174.00,0.84
5173.00,0.84
5172.00,0.84
5171.00,0.84
5170.00,0.84
5169.00,0.84
5168.00,0.84
5167.00,0.84
5166.00,0.85
5165.00,0.85
5164.00,0.85
5163.00,0.84
5162.00,0.84
5161.00,0.84
5160.00,0.84
5159.00,0.84
5158.00,0.85
5157.00,0.85
5156.00,0.85
5155.00,0.85
5154.00,0.85
5153.00,0.85
5152.00,0.85
5151.00,0.85
5150.00,0.85
5149.00,0.85
5148.00,0.85
5147.00,0.85
5146.00,0.85
5145.00,0.85
5144.00,0.85
5143.00,0.85
5142.00,0.86
5141.00,0.86
5140.00,0.86
5139.00,0.86
5138.00,0.86
5137.00,0.86
5136.00,0.86
5135.00,0.86
5134.00,0.86
5133.00,0.86
5132.00,0.86
5131.00,0.86
5130.00,0.86
5129.00,0.86
5128.00,0.86
5127.00,0.86
5126.00,0.86
5125.00,0.86
5124.00,0.86
5123.00,0.86
5122.00,0.86
5121.00,0.86
5120.00,0.86
5119.00,0.86
5118.00,0.86
5117.00,0.86
5116.00,0.86
5115.00,0.86
5114.00,0.86
5113.00,0.86
5112.00,0.86
5111.00,0.86
5110.00,0.86
5109.00,0.86
5108.00,0.86
5107.00,0.86
5106.00,0.86
5105.00,0.86
5104.00,0.86
5103.00,0.86
5102.00,0.86
5101.00,0.86
5100.00,0.86
5099.00,0.86
5098.00,0.87
5097.00,0.87
5096.00,0.87
5095.00,0.87
5094.00,0.87
5093.00,0.87
5092.00,0.87
5091.00,0.87
5090.00,0.87
5089.00,0.87
5088.00,0.87
5087.00,0.87
5086.00,0.87
5085.00,0.87
5084.00,0.87
5083.00,0.87
5082.00,0.87
5081.00,0.87
5080.00,0.87
5079.00,0.87
5078.00,0.87
5077.00,0.87
5076.00,0.87
5075.00,0.87
5074.00,0.87
5073.00,0.88
5072.00,0.88
5071.00,0.88
5070.00,0.88
5069.00,0.88
5068.00,0.88
5067.00,0.88
5066.00,0.88
5065.00,0.88
5064.00,0.88
5063.00,0.88
5062.00,0.88
5061.00,0.88
5060.00,0.88
5059.00,0.88
5058.00,0.88
5057.00,0.88
5056.00,0.88
5055.00,0.88
5054.00,0.88
5053.00,0.88
5052.00,0.89
5051.00,0.89
5050.00,0.89
5049.00,0.89
5048.00,0.89
5047.00,0.89
5046.00,0.89
5045.00,0.89
5044.00,0.89
5043.00,0.89
5042.00,0.89
5041.00,0.89
5040.00,0.89
5039.00,0.89
5038.00,0.89
5037.00,0.89
5036.00,0.89
5035.00,0.89
5034.00,0.89
5033.00,0.89
5032.00,0.89
5031.00,0.89
5030.00,0.89
5029.00,0.89
5028.00,0.89
5027.00,0.89
5026.00,0.89
5025.00,0.89
5024.00,0.89
5023.00,0.89
5022.00,0.89
5021.00,0.89
5020.00,0.89
5019.00,0.89
5018.00,0.89
5017.00,0.90
5016.00,0.90
5015.00,0.90
5014.00,0.90
5013.00,0.90
5012.00,0.90
5011.00,0.90
5010.00,0.90
5009.00,0.90
5008.00,0.90
5007.00,0.90
5006.00,0.90
5005.00,0.90
5004.00,0.90
5003.00,0.90
5002.00,0.90
5001.00,0.90
5000.00,0.90
4999.00,0.91
4998.00,0.91
4997.00,0.91
4996.00,0.91
4995.00,0.91
4994.00,0.91
4993.00,0.91
4992.00,0.91
4991.00,0.91
4990.00,0.91
4989.00,0.91
4988.00,0.91
4987.00,0.91
4986.00,0.91
4985.00,0.91
4984.00,0.91
4983.00,0.91
4982.00,0.91
4981.00,0.91
4980.00,0.91
4979.00,0.92
4978.00,0.92
4977.00,0.92
4976.00,0.92
4975.00,0.92
4974.00,0.92
4973.00,0.92
4972.00,0.92
4971.00,0.92
4970.00,0.92
4969.00,0.92
4968.00,0.92
4967.00,0.92
4966.00,0.92
4965.00,0.92
4964.00,0.93
4963.00,0.93
4962.00,0.93
4961.00,0.93
4960.00,0.93
4959.00,0.93
4958.00,0.93
4957.00,0.93
4956.00,0.93
4955.00,0.93
4954.00,0.93
4953.00,0.93
4952.00,0.93
4951.00,0.93
4950.00,0.94
4949.00,0.94
4948.00,0.94
4947.00,0.94
4946.00,0.94
4945.00,0.94
4944.00,0.94
4943.00,0.94
4942.00,0.94
4941.00,0.94
4940.00,0.94
4939.00,0.94
4938.00,0.94
4937.00,0.94
4936.00,0.94
4935.00,0.94
4934.00,0.94
4933.00,0.94
4932.00,0.94
4931.00,0.94
4930.00,0.94
4929.00,0.94
4928.00,0.94
4927.00,0.94
4926.00,0.94
4925.00,0.94
4924.00,0.94
4923.00,0.94
4922.00,0.94
4921.00,0.94
4920.00,0.94
4919.00,0.94
4918.00,0.94
4917.00,0.94
4916.00,0.94
4915.00,0.94
4914.00,0.94
4913.00,0.94
4912.00,0.94
4911.00,0.95
4910.00,0.95
4909.00,0.95
4908.00,0.95
4907.00,0.95
4906.00,0.95
4905.00,0.95
4904.00,0.95
4903.00,0.95
4902.00,0.95
4901.00,0.95
4900.00,0.95
4899.00,0.95
4898.00,0.95
4897.00,0.95
4896.00,0.95
4895.00,0.95
4894.00,0.95
4893.00,0.95
4892.00,0.95
4891.00,0.95
4890.00,0.95
4889.00,0.96
4888.00,0.96
4887.00,0.96
4886.00,0.96
4885.00,0.96
4884.00,0.96
4883.00,0.96
4882.00,0.96
4881.00,0.96
4880.00,0.96
4879.00,0.96
4878.00,0.96
4877.00,0.96
4876.00,0.96
4875.00,0.96
4874.00,0.96
4873.00,0.97
4872.00,0.97
4871.00,0.97
4870.00,0.97
4869.00,0.97
4868.00,0.97
4867.00,0.97
4866.00,0.97
4865.00,0.97
4864.00,0.97
4863.00,0.97
4862.00,0.97
4861.00,0.97
4860.00,0.97
4859.00,0.97
4858.00,0.97
4857.00,0.97
4856.00,0.97
4855.00,0.97
4854.00,0.97
4853.00,0.97
4852.00,0.97
4851.00,0.97
4850.00,0.97
4849.00,0.97
4848.00,0.97
4847.00,0.97
4846.00,0.97
4845.00,0.97
4844.00,0.98
4843.00,0.98
4842.00,0.98
4841.00,0.98
4840.00,0.98
4839.00,0.98
4838.00,0.98
4837.00,0.98
4836.00,0.98
4835.00,0.98
4834.00,0.98
4833.00,0.98
4832.00,0.98
4831.00,0.98
4830.00,0.98
4829.00,0.98
4828.00,0.99
4827.00,0.99
4826.00,0.99
4825.00,0.99
4824.00,0.99
4823.00,0.99
4822.00,0.99
4821.00,0.99
4820.00,0.99
4819.00,0.99
4818.00,0.99
4817.00,0.99
4816.00,0.99
4815.00,0.99
4814.00,0.99
4813.00,0.99
4812.00,0.99
4811.00,0.99
4810.00,0.99
4809.00,0.99
4808.00,0.99
4807.00,0.99
4806.00,0.99
4805.00,0.99
4804.00,0.99
4803.00,0.99
4802.00,0.99
4801.00,0.99
4800.00,0.99
4799.00,0.99
4798.00,1.00
4797.00,1.00
4796.00,1.00
4795.00,1.00
4794.00,1.00
4793.00,1.00
4792.00,1.00
4791.00,1.00
4790.00,1.00
4789.00,1.00
4788.00,1.00
4787.00,1.00
4786.00,1.00
4785.00,1.00
4784.00,1.00
4783.00,1.00
4782.00,1.00
4781.00,1.00
4780.00,1.00
4779.00,1.00
4778.00,1.00
4777.00,1.00
4776.00,1.01
4775.00,1.01
4774.00,1.01
4773.00,1.01
4772.00,1.01
4771.00,1.01
4770.00,1.01
4769.00,1.01
4768.00,1.01
4767.00,1.01
4766.00,1.01
4765.00,1.02
4764.00,1.02
4763.00,1.02
4762.00,1.02
4761.00,1.02
4760.00,1.02
4759.00,1.02
4758.00,1.02
4757.00,1.02
4756.00,1.02
4755.00,1.02
4754.00,1.02
4753.00,1.02
4752.00,1.02
4751.00,1.02
4750.00,1.02
4749.00,1.02
4748.00,1.02
4747.00,1.02
4746.00,1.02
4745.00,1.03
4744.00,1.03
4743.00,1.03
4742.00,1.03
4741.00,1.03
4740.00,1.03
4739.00,1.03
4738.00,1.03
4737.00,1.03
4736.00,1.03
4735.00,1.04
4734.00,1.04
4733.00,1.04
4732.00,1.04
4731.00,1.04
4730.00,1.04
4729.00,1.04
4728.00,1.04
4727.00,1.04
4726.00,1.04
4725.00,1.04
4724.00,1.04
4723.00,1.05
4722.00,1.05
4721.00,1.05
4720.00,1.05
4719.00,1.05
4718.00,1.05
4717.00,1.05
4716.00,1.05
4715.00,1.05
4714.00,1.05
4713.00,1.06
4712.00,1.06
4711.00,1.06
4710.00,1.06
4709.00,1.06
4708.00,1.06
4707.00,1.06
4706.00,1.06
4705.00,1.06
4704.00,1.06
4703.00,1.06
4702.00,1.07
4701.00,1.07
4700.00,1.07
4699.00,1.07
4698.00,1.07
4697.00,1.07
4696.00,1.07
4695.00,1.07
4694.00,1.07
4693.00,1.07
4692.00,1.07
4691.00,1.07
4690.00,1.08
4689.00,1.08
4688.00,1.08
4687.00,1.08
4686.00,1.08
4685.00,1.08
4684.00,1.08
4683.00,1.08
4682.00,1.08
4681.00,1.08
4680.00,1.09
4679.00,1.09
4678.00,1.09
4677.00,1.09
4676.00,1.09
4675.00,1.09
4674.00,1.09
4673.00,1.09
4672.00,1.09
4671.00,1.09
4670.00,1.09
4669.00,1.09
4668.00,1.09
4667.00,1.09
4666.00,1.09
4665.00,1.09
4664.00,1.09
4663.00,1.09
4662.00,1.09
4661.00,1.09
4660.00,1.10
4659.00,1.10
4658.00,1.10
4657.00,1.10
4656.00,1.10
4655.00,1.10
4654.00,1.10
4653.00,1.10
4652.00,1.10
4651.00,1.10
4650.00,1.10
4649.00,1.10
4648.00,1.10
4647.00,1.10
4646.00,1.10
4645.00,1.10
4644.00,1.10
4643.00,1.10
4642.00,1.10
4641.00,1.11
4640.00,1.11
4639.00,1.11
4638.00,1.11
4637.00,1.11
4636.00,1.11
4635.00,1.11
4634.00,1.11
4633.00,1.11
4632.00,1.11
4631.00,1.11
4630.00,1.11
4629.00,1.11
4628.00,1.11
4627.00,1.11
4626.00,1.11
4625.00,1.12
4624.00,1.12
4623.00,1.12
4622.00,1.12
4621.00,1.12
4620.00,1.12
4619.00,1.12
4618.00,1.12
4617.00,1.12
4616.00,1.12
4615.00,1.12
4614.00,1.12
4613.00,1.12
4612.00,1.12
4611.00,1.12
4610.00,1.13
4609.00,1.13
4608.00,1.13
4607.00,1.13
4606.00,1.13
4605.00,1.13
4604.00,1.13
4603.00,1.13
4602.00,1.13
4601.00,1.13
4600.00,1.13
4599.00,1.13
4598.00,1.14
4597.00,1.14
4596.00,1.14
4595.00,1.14
4594.00,1.14
4593.00,1.14
4592.00,1.14
4591.00,1.14
4590.00,1.14
4589.00,1.14
4588.00,1.14
4587.00,1.14
4586.00,1.14
4585.00,1.14
4584.00,1.14
4583.00,1.14
4582.00,1.14
4581.00,1.14
4580.00,1.14
4579.00,1.14
4578.00,1.14
4577.00,1.14
4576.00,1.14
4575.00,1.14
4574.00,1.14
4573.00,1.14
4572.00,1.15
4571.00,1.15
4570.00,1.15
4569.00,1.15
4568.00,1.15
4567.00,1.15
4566.00,1.15
4565.00,1.15
4564.00,1.15
4563.00,1.15
4562.00,1.15
4561.00,1.15
4560.00,1.15
4559.00,1.15
4558.00,1.15
4557.00,1.15
4556.00,1.15
4555.00,1.15
4554.00,1.15
4553.00,1.15
4552.00,1.15
4551.00,1.15
4550.00,1.15
4549.00,1.15
4548.00,1.15
4547.00,1.15
4546.00,1.15
4545.00,1.15
4544.00,1.15
4543.00,1.15
4542.00,1.15
4541.00,1.15
4540.00,1.15
4539.00,1.16
4538.00,1.16
4537.00,1.16
4536.00,1.16
4535.00,1.16
4534.00,1.16
4533.00,1.16
4532.00,1.16
4531.00,1.16
4530.00,1.16
4529.00,1.16
4528.00,1.16
4527.00,1.16
4526.00,1.16
4525.00,1.16
4524.00,1.16
4523.00,1.16
4522.00,1.16
4521.00,1.16
4520.00,1.17
4519.00,1.17
4518.00,1.17
4517.00,1.17
4516.00,1.17
4515.00,1.17
4514.00,1.17
4513.00,1.17
4512.00,1.17
4511.00,1.17
4510.00,1.17
4509.00,1.17
4508.00,1.17
4507.00,1.17
4506.00,1.17
4505.00,1.17
4504.00,1.17
4503.00,1.17
4502.00,1.17
4501.00,1.17
4500.00,1.17
4499.00,1.17
4498.00,1.17
4497.00,1.17
4496.00,1.17
4495.00,1.17
4494.00,1.17
4493.00,1.17
4492.00,1.17
4491.00,1.16
4490.00,1.16
4489.00,1.16
4488.00,1.16
4487.00,1.16
4486.00,1.16
4485.00,1.16
4484.00,1.16
4483.00,1.16
4482.00,1.16
4481.00,1.16
4480.00,1.15
4479.00,1.15
4478.00,1.15
4477.00,1.15
4476.00,1.15
4475.00,1.15
4474.00,1.15
4473.00,1.15
4472.00,1.15
4471.00,1.15
4470.00,1.15
4469.00,1.15
4468.00,1.15
4467.00,1.15
4466.00,1.14
4465.00,1.14
4464.00,1.14
4463.00,1.14
4462.00,1.14
4461.00,1.14
4460.00,1.14
4459.00,1.14
4458.00,1.14
4457.00,1.14
4456.00,1.14
4455.00,1.14
4454.00,1.13
4453.00,1.13
4452.00,1.13
4451.00,1.13
4450.00,1.13
4449.00,1.13
4448.00,1.13
4447.00,1.13
4446.00,1.12
4445.00,1.12
4444.00,1.12
4443.00,1.12
4442.00,1.12
4441.00,1.12
4440.00,1.12
4439.00,1.11
4438.00,1.11
4437.00,1.11
4436.00,1.11
4435.00,1.11
4434.00,1.11
4433.00,1.11
4432.00,1.11
4431.00,1.11
4430.00,1.11
4429.00,1.11
4428.00,1.11
4427.00,1.11
4426.00,1.11
4425.00,1.11
4424.00,1.11
4423.00,1.11
4422.00,1.11
4421.00,1.11
4420.00,1.11
4419.00,1.11
4418.00,1.11
4417.00,1.11
4416.00,1.11
4415.00,1.11
4414.00,1.11
4413.00,1.11
4412.00,1.11
4411.00,1.12
4410.00,1.12
4409.00,1.12
4408.00,1.12
4407.00,1.12
4406.00,1.12
4405.00,1.12
4404.00,1.12
4403.00,1.12
4402.00,1.12
4401.00,1.12
4400.00,1.12
4399.00,1.12
4398.00,1.12
4397.00,1.12
4396.00,1.13
4395.00,1.13
4394.00,1.13
4393.00,1.13
4392.00,1.13
4391.00,1.13
4390.00,1.13
4389.00,1.13
4388.00,1.13
4387.00,1.13
4386.00,1.13
4385.00,1.13
4384.00,1.13
4383.00,1.13
4382.00,1.13
4381.00,1.13
4380.00,1.13
4379.00,1.13
4378.00,1.13
4377.00,1.13
4376.00,1.13
4375.00,1.13
4374.00,1.13
4373.00,1.13
4372.00,1.13
4371.00,1.13
4370.00,1.13
4369.00,1.13
4368.00,1.13
4367.00,1.13
4366.00,1.13
4365.00,1.14
4364.00,1.14
4363.00,1.14
4362.00,1.14
4361.00,1.14
4360.00,1.14
4359.00,1.14
4358.00,1.14
4357.00,1.14
4356.00,1.14
4355.00,1.14
4354.00,1.14
4353.00,1.14
4352.00,1.14
4351.00,1.14
4350.00,1.14
4349.00,1.14
4348.00,1.14
4347.00,1.14
4346.00,1.14
4345.00,1.14
4344.00,1.14
4343.00,1.14
4342.00,1.14
4341.00,1.14
4340.00,1.14
4339.00,1.14
4338.00,1.14
4337.00,1.14
4336.00,1.14
4335.00,1.14
4334.00,1.14
4333.00,1.15
4332.00,1.15
4331.00,1.15
4330.00,1.15
4329.00,1.15
4328.00,1.15
4327.00,1.15
4326.00,1.15
4325.00,1.15
4324.00,1.15
4323.00,1.16
4322.00,1.16
4321.00,1.16
4320.00,1.16
4319.00,1.16
4318.00,1.16
4317.00,1.16
4316.00,1.16
4315.00,1.16
4314.00,1.16
4313.00,1.16
4312.00,1.16
4311.00,1.16
4310.00,1.16
4309.00,1.16
4308.00,1.16
4307.00,1.16
4306.00,1.16
4305.00,1.16
4304.00,1.16
4303.00,1.16
4302.00,1.16
4301.00,1.16
4300.00,1.17
4299.00,1.17
4298.00,1.17
4297.00,1.17
4296.00,1.17
4295.00,1.17
4294.00,1.17
4293.00,1.18
4292.00,1.18
4291.00,1.18
4290.00,1.18
4289.00,1.18
4288.00,1.18
4287.00,1.18
4286.00,1.18
4285.00,1.18
4284.00,1.19
4283.00,1.19
4282.00,1.19
4281.00,1.19
4280.00,1.19
4279.00,1.19
4278.00,1.19
4277.00,1.19
4276.00,1.19
4275.00,1.19
4274.00,1.19
4273.00,1.19
4272.00,1.19
4271.00,1.19
4270.00,1.19
4269.00,1.19
4268.00,1.19
4267.00,1.19
4266.00,1.19
4265.00,1.19
4264.00,1.19
4263.00,1.19
4262.00,1.19
4261.00,1.19
4260.00,1.19
4259.00,1.19
4258.00,1.19
4257.00,1.19
4256.00,1.20
4255.00,1.20
4254.00,1.20
4253.00,1.20
4252.00,1.20
4251.00,1.20
4250.00,1.20
4249.00,1.20
4248.00,1.20
4247.00,1.20
4246.00,1.20
4245.00,1.20
4244.00,1.20
4243.00,1.20
4242.00,1.20
4241.00,1.20
4240.00,1.20
4239.00,1.20
4238.00,1.20
4237.00,1.20
4236.00,1.20
4235.00,1.20
4234.00,1.20
4233.00,1.20
4232.00,1.20
4231.00,1.20
4230.00,1.20
4229.00,1.20
4228.00,1.20
4227.00,1.21
4226.00,1.21
4225.00,1.21
4224.00,1.21
4223.00,1.21
4222.00,1.21
4221.00,1.21
4220.00,1.21
4219.00,1.20
4218.00,1.20
4217.00,1.20
4216.00,1.20
4215.00,1.20
4214.00,1.20
4213.00,1.20
4212.00,1.20
4211.00,1.20
4210.00,1.20
4209.00,1.20
4208.00,1.20
4207.00,1.20
4206.00,1.20
4205.00,1.20
4204.00,1.20
4203.00,1.20
4202.00,1.20
4201.00,1.20
4200.00,1.21
4199.00,1.21
4198.00,1.21
4197.00,1.21
4196.00,1.21
4195.00,1.21
4194.00,1.21
4193.00,1.21
4192.00,1.21
4191.00,1.22
4190.00,1.22
4189.00,1.22
4188.00,1.22
4187.00,1.22
4186.00,1.22
4185.00,1.22
4184.00,1.22
4183.00,1.22
4182.00,1.22
4181.00,1.22
4180.00,1.22
4179.00,1.22
4178.00,1.22
4177.00,1.22
4176.00,1.22
4175.00,1.22
4174.00,1.22
4173.00,1.22
4172.00,1.22
4171.00,1.22
4170.00,1.22
4169.00,1.23
4168.00,1.23
4167.00,1.23
4166.00,1.23
4165.00,1.23
4164.00,1.23
4163.00,1.23
4162.00,1.23
4161.00,1.23
4160.00,1.23
4159.00,1.23
4158.00,1.23
4157.00,1.23
4156.00,1.23
4155.00,1.23
4154.00,1.23
4153.00,1.23
4152.00,1.23
4151.00,1.23
4150.00,1.24
4149.00,1.24
4148.00,1.24
4147.00,1.24
4146.00,1.24
4145.00,1.24
4144.00,1.24
4143.00,1.24
4142.00,1.24
4141.00,1.24
4140.00,1.24
4139.00,1.24
4138.00,1.24
4137.00,1.24
4136.00,1.24
4135.00,1.24
4134.00,1.24
4133.00,1.24
4132.00,1.24
4131.00,1.24
4130.00,1.24
4129.00,1.24
4128.00,1.24
4127.00,1.24
4126.00,1.24
4125.00,1.24
4124.00,1.24
4123.00,1.24
4122.00,1.24
4121.00,1.24
4120.00,1.24
4119.00,1.24
4118.00,1.24
4117.00,1.24
4116.00,1.25
4115.00,1.25
4114.00,1.25
4113.00,1.25
4112.00,1.25
4111.00,1.25
4110.00,1.25
4109.00,1.25
4108.00,1.25
4107.00,1.25
4106.00,1.25
4105.00,1.25
4104.00,1.25
4103.00,1.25
4102.00,1.25
4101.00,1.25
4100.00,1.25
4099.00,1.25
4098.00,1.25
4097.00,1.25
4096.00,1.25
4095.00,1.25
4094.00,1.25
4093.00,1.25
4092.00,1.25
4091.00,1.25
4090.00,1.25
4089.00,1.25
4088.00,1.25
4087.00,1.25
4086.00,1.26
4085.00,1.26
4084.00,1.26
4083.00,1.26
4082.00,1.26
4081.00,1.26
4080.00,1.26
4079.00,1.26
4078.00,1.26
4077.00,1.27
4076.00,1.27
4075.00,1.27
4074.00,1.27
4073.00,1.27
4072.00,1.27
4071.00,1.27
4070.00,1.27
4069.00,1.27
4068.00,1.27
4067.00,1.27
4066.00,1.27
4065.00,1.27
4064.00,1.27
4063.00,1.27
4062.00,1.27
4061.00,1.27
4060.00,1.27
4059.00,1.27
4058.00,1.27
4057.00,1.27
4056.00,1.28
4055.00,1.28
4054.00,1.28
4053.00,1.28
4052.00,1.28
4051.00,1.28
4050.00,1.28
4049.00,1.28
4048.00,1.28
4047.00,1.28
4046.00,1.28
4045.00,1.28
4044.00,1.28
4043.00,1.28
4042.00,1.28
4041.00,1.28
4040.00,1.28
4039.00,1.28
4038.00,1.28
4037.00,1.28
4036.00,1.28
4035.00,1.28
4034.00,1.28
4033.00,1.28
4032.00,1.28
4031.00,1.28
4030.00,1.28
4029.00,1.28
4028.00,1.28
4027.00,1.28
4026.00,1.28
4025.00,1.28
4024.00,1.28
4023.00,1.28
4022.00,1.28
4021.00,1.28
4020.00,1.28
4019.00,1.28
4018.00,1.29
4017.00,1.29
4016.00,1.29
4015.00,1.29
4014.00,1.29
4013.00,1.29
4012.00,1.29
4011.00,1.29
4010.00,1.29
4009.00,1.29
4008.00,1.29
4007.00,1.29
4006.00,1.29
4005.00,1.29
4004.00,1.29
4003.00,1.29
4002.00,1.29
4001.00,1.29
4000.00,1.29
