创建为新数据集,样品 597 用户 Administrator 日期 星期一, 七月 16 2018
cm-1,%T
10000.00,1.26
9999.00,1.26
9998.00,1.26
9997.00,1.26
9996.00,1.26
9995.00,1.26
9994.00,1.26
9993.00,1.26
9992.00,1.26
9991.00,1.26
9990.00,1.26
9989.00,1.26
9988.00,1.26
9987.00,1.26
9986.00,1.26
9985.00,1.26
9984.00,1.26
9983.00,1.26
9982.00,1.26
9981.00,1.26
9980.00,1.26
9979.00,1.26
9978.00,1.26
9977.00,1.26
9976.00,1.26
9975.00,1.26
9974.00,1.26
9973.00,1.26
9972.00,1.26
9971.00,1.26
9970.00,1.26
9969.00,1.26
9968.00,1.26
9967.00,1.26
9966.00,1.26
9965.00,1.26
9964.00,1.26
9963.00,1.26
9962.00,1.26
9961.00,1.26
9960.00,1.26
9959.00,1.26
9958.00,1.26
9957.00,1.26
9956.00,1.26
9955.00,1.26
9954.00,1.26
9953.00,1.26
9952.00,1.25
9951.00,1.25
9950.00,1.25
9949.00,1.25
9948.00,1.25
9947.00,1.25
9946.00,1.25
9945.00,1.25
9944.00,1.25
9943.00,1.25
9942.00,1.25
9941.00,1.25
9940.00,1.25
9939.00,1.25
9938.00,1.25
9937.00,1.25
9936.00,1.25
9935.00,1.25
9934.00,1.25
9933.00,1.25
9932.00,1.25
9931.00,1.25
9930.00,1.25
9929.00,1.25
9928.00,1.25
9927.00,1.25
9926.00,1.25
9925.00,1.25
9924.00,1.24
9923.00,1.24
9922.00,1.24
9921.00,1.24
9920.00,1.24
9919.00,1.23
9918.00,1.23
9917.00,1.23
9916.00,1.23
9915.00,1.23
9914.00,1.23
9913.00,1.23
9912.00,1.23
9911.00,1.23
9910.00,1.23
9909.00,1.23
9908.00,1.23
9907.00,1.23
9906.00,1.24
9905.00,1.24
9904.00,1.24
9903.00,1.24
9902.00,1.24
9901.00,1.25
9900.00,1.25
9899.00,1.25
9898.00,1.25
9897.00,1.25
9896.00,1.25
9895.00,1.26
9894.00,1.26
9893.00,1.26
9892.00,1.26
9891.00,1.26
9890.00,1.26
9889.00,1.26
9888.00,1.25
9887.00,1.25
9886.00,1.25
9885.00,1.25
9884.00,1.25
9883.00,1.25
9882.00,1.24
9881.00,1.24
9880.00,1.24
9879.00,1.24
9878.00,1.24
9877.00,1.23
9876.00,1.23
9875.00,1.23
9874.00,1.23
9873.00,1.23
9872.00,1.23
9871.00,1.24
9870.00,1.24
9869.00,1.24
9868.00,1.24
9867.00,1.24
9866.00,1.24
9865.00,1.24
9864.00,1.24
9863.00,1.24
9862.00,1.24
9861.00,1.24
9860.00,1.24
9859.00,1.24
9858.00,1.24
9857.00,1.24
9856.00,1.24
9855.00,1.24
9854.00,1.24
9853.00,1.24
9852.00,1.24
9851.00,1.24
9850.00,1.23
9849.00,1.23
9848.00,1.23
9847.00,1.23
9846.00,1.23
9845.00,1.23
9844.00,1.23
9843.00,1.23
9842.00,1.23
9841.00,1.24
9840.00,1.24
9839.00,1.24
9838.00,1.24
9837.00,1.24
9836.00,1.24
9835.00,1.25
9834.00,1.25
9833.00,1.25
9832.00,1.25
9831.00,1.25
9830.00,1.25
9829.00,1.25
9828.00,1.25
9827.00,1.25
9826.00,1.25
9825.00,1.25
9824.00,1.25
9823.00,1.25
9822.00,1.25
9821.00,1.25
9820.00,1.25
9819.00,1.25
9818.00,1.25
9817.00,1.25
9816.00,1.24
9815.00,1.24
9814.00,1.24
9813.00,1.24
9812.00,1.24
9811.00,1.24
9810.00,1.24
9809.00,1.24
9808.00,1.24
9807.00,1.24
9806.00,1.24
9805.00,1.24
9804.00,1.24
9803.00,1.24
9802.00,1.24
9801.00,1.24
9800.00,1.24
9799.00,1.24
9798.00,1.24
9797.00,1.24
9796.00,1.24
9795.00,1.24
9794.00,1.24
9793.00,1.24
9792.00,1.24
9791.00,1.24
9790.00,1.24
9789.00,1.24
9788.00,1.24
9787.00,1.24
9786.00,1.24
9785.00,1.23
9784.00,1.23
9783.00,1.23
9782.00,1.23
9781.00,1.23
9780.00,1.23
9779.00,1.23
9778.00,1.23
9777.00,1.23
9776.00,1.23
9775.00,1.23
9774.00,1.23
9773.00,1.22
9772.00,1.22
9771.00,1.22
9770.00,1.22
9769.00,1.22
9768.00,1.22
9767.00,1.22
9766.00,1.23
9765.00,1.23
9764.00,1.23
9763.00,1.23
9762.00,1.23
9761.00,1.23
9760.00,1.24
9759.00,1.24
9758.00,1.24
9757.00,1.24
9756.00,1.25
9755.00,1.25
9754.00,1.25
9753.00,1.25
9752.00,1.26
9751.00,1.26
9750.00,1.26
9749.00,1.26
9748.00,1.26
9747.00,1.26
9746.00,1.26
9745.00,1.26
9744.00,1.26
9743.00,1.26
9742.00,1.26
9741.00,1.26
9740.00,1.26
9739.00,1.26
9738.00,1.26
9737.00,1.26
9736.00,1.26
9735.00,1.26
9734.00,1.26
9733.00,1.26
9732.00,1.25
9731.00,1.25
9730.00,1.25
9729.00,1.25
9728.00,1.25
9727.00,1.25
9726.00,1.25
9725.00,1.25
9724.00,1.25
9723.00,1.25
9722.00,1.25
9721.00,1.24
9720.00,1.24
9719.00,1.24
9718.00,1.24
9717.00,1.24
9716.00,1.24
9715.00,1.24
9714.00,1.23
9713.00,1.23
9712.00,1.23
9711.00,1.23
9710.00,1.23
9709.00,1.23
9708.00,1.23
9707.00,1.23
9706.00,1.23
9705.00,1.24
9704.00,1.24
9703.00,1.24
9702.00,1.24
9701.00,1.24
9700.00,1.24
9699.00,1.24
9698.00,1.24
9697.00,1.24
9696.00,1.24
9695.00,1.24
9694.00,1.24
9693.00,1.24
9692.00,1.24
9691.00,1.24
9690.00,1.24
9689.00,1.24
9688.00,1.24
9687.00,1.24
9686.00,1.25
9685.00,1.25
9684.00,1.25
9683.00,1.25
9682.00,1.25
9681.00,1.25
9680.00,1.25
9679.00,1.25
9678.00,1.25
9677.00,1.25
9676.00,1.25
9675.00,1.24
9674.00,1.24
9673.00,1.24
9672.00,1.24
9671.00,1.24
9670.00,1.24
9669.00,1.24
9668.00,1.23
9667.00,1.23
9666.00,1.23
9665.00,1.23
9664.00,1.23
9663.00,1.23
9662.00,1.23
9661.00,1.23
9660.00,1.23
9659.00,1.23
9658.00,1.23
9657.00,1.23
9656.00,1.23
9655.00,1.23
9654.00,1.23
9653.00,1.23
9652.00,1.23
9651.00,1.23
9650.00,1.23
9649.00,1.24
9648.00,1.24
9647.00,1.24
9646.00,1.24
9645.00,1.24
9644.00,1.24
9643.00,1.24
9642.00,1.24
9641.00,1.24
9640.00,1.24
9639.00,1.24
9638.00,1.24
9637.00,1.24
9636.00,1.24
9635.00,1.24
9634.00,1.24
9633.00,1.24
9632.00,1.24
9631.00,1.24
9630.00,1.24
9629.00,1.24
9628.00,1.24
9627.00,1.24
9626.00,1.24
9625.00,1.24
9624.00,1.24
9623.00,1.24
9622.00,1.24
9621.00,1.24
9620.00,1.23
9619.00,1.23
9618.00,1.23
9617.00,1.23
9616.00,1.23
9615.00,1.23
9614.00,1.23
9613.00,1.23
9612.00,1.23
9611.00,1.23
9610.00,1.23
9609.00,1.23
9608.00,1.23
9607.00,1.23
9606.00,1.23
9605.00,1.23
9604.00,1.23
9603.00,1.23
9602.00,1.23
9601.00,1.23
9600.00,1.23
9599.00,1.23
9598.00,1.23
9597.00,1.23
9596.00,1.23
9595.00,1.23
9594.00,1.23
9593.00,1.23
9592.00,1.23
9591.00,1.23
9590.00,1.23
9589.00,1.23
9588.00,1.23
9587.00,1.23
9586.00,1.23
9585.00,1.23
9584.00,1.23
9583.00,1.23
9582.00,1.23
9581.00,1.23
9580.00,1.23
9579.00,1.23
9578.00,1.23
9577.00,1.23
9576.00,1.23
9575.00,1.23
9574.00,1.23
9573.00,1.23
9572.00,1.23
9571.00,1.23
9570.00,1.23
9569.00,1.23
9568.00,1.23
9567.00,1.23
9566.00,1.23
9565.00,1.23
9564.00,1.23
9563.00,1.23
9562.00,1.23
9561.00,1.23
9560.00,1.23
9559.00,1.23
9558.00,1.23
9557.00,1.23
9556.00,1.23
9555.00,1.23
9554.00,1.23
9553.00,1.23
9552.00,1.23
9551.00,1.23
9550.00,1.23
9549.00,1.24
9548.00,1.24
9547.00,1.24
9546.00,1.24
9545.00,1.24
9544.00,1.24
9543.00,1.24
9542.00,1.24
9541.00,1.24
9540.00,1.24
9539.00,1.24
9538.00,1.25
9537.00,1.25
9536.00,1.25
9535.00,1.25
9534.00,1.25
9533.00,1.25
9532.00,1.25
9531.00,1.25
9530.00,1.25
9529.00,1.25
9528.00,1.25
9527.00,1.25
9526.00,1.25
9525.00,1.25
9524.00,1.25
9523.00,1.25
9522.00,1.25
9521.00,1.25
9520.00,1.25
9519.00,1.25
9518.00,1.25
9517.00,1.25
9516.00,1.25
9515.00,1.25
9514.00,1.25
9513.00,1.25
9512.00,1.25
9511.00,1.25
9510.00,1.25
9509.00,1.25
9508.00,1.25
9507.00,1.24
9506.00,1.24
9505.00,1.24
9504.00,1.24
9503.00,1.24
9502.00,1.24
9501.00,1.24
9500.00,1.24
9499.00,1.24
9498.00,1.24
9497.00,1.24
9496.00,1.23
9495.00,1.23
9494.00,1.23
9493.00,1.23
9492.00,1.23
9491.00,1.23
9490.00,1.23
9489.00,1.23
9488.00,1.23
9487.00,1.22
9486.00,1.22
9485.00,1.22
9484.00,1.22
9483.00,1.22
9482.00,1.22
9481.00,1.22
9480.00,1.21
9479.00,1.21
9478.00,1.21
9477.00,1.21
9476.00,1.21
9475.00,1.21
9474.00,1.21
9473.00,1.21
9472.00,1.21
9471.00,1.21
9470.00,1.21
9469.00,1.21
9468.00,1.21
9467.00,1.22
9466.00,1.22
9465.00,1.22
9464.00,1.22
9463.00,1.22
9462.00,1.22
9461.00,1.23
9460.00,1.23
9459.00,1.23
9458.00,1.23
9457.00,1.23
9456.00,1.23
9455.00,1.23
9454.00,1.23
9453.00,1.23
9452.00,1.23
9451.00,1.23
9450.00,1.24
9449.00,1.24
9448.00,1.24
9447.00,1.24
9446.00,1.24
9445.00,1.24
9444.00,1.24
9443.00,1.24
9442.00,1.24
9441.00,1.24
9440.00,1.24
9439.00,1.24
9438.00,1.24
9437.00,1.24
9436.00,1.24
9435.00,1.24
9434.00,1.24
9433.00,1.24
9432.00,1.24
9431.00,1.24
9430.00,1.24
9429.00,1.24
9428.00,1.25
9427.00,1.25
9426.00,1.25
9425.00,1.25
9424.00,1.25
9423.00,1.25
9422.00,1.25
9421.00,1.26
9420.00,1.26
9419.00,1.26
9418.00,1.26
9417.00,1.26
9416.00,1.26
9415.00,1.26
9414.00,1.26
9413.00,1.26
9412.00,1.26
9411.00,1.26
9410.00,1.26
9409.00,1.26
9408.00,1.25
9407.00,1.25
9406.00,1.25
9405.00,1.25
9404.00,1.24
9403.00,1.24
9402.00,1.24
9401.00,1.24
9400.00,1.23
9399.00,1.23
9398.00,1.23
9397.00,1.23
9396.00,1.23
9395.00,1.23
9394.00,1.23
9393.00,1.23
9392.00,1.23
9391.00,1.23
9390.00,1.23
9389.00,1.23
9388.00,1.23
9387.00,1.23
9386.00,1.23
9385.00,1.23
9384.00,1.23
9383.00,1.23
9382.00,1.23
9381.00,1.23
9380.00,1.23
9379.00,1.23
9378.00,1.23
9377.00,1.23
9376.00,1.23
9375.00,1.23
9374.00,1.23
9373.00,1.23
9372.00,1.23
9371.00,1.23
9370.00,1.23
9369.00,1.24
9368.00,1.24
9367.00,1.24
9366.00,1.24
9365.00,1.24
9364.00,1.24
9363.00,1.24
9362.00,1.24
9361.00,1.24
9360.00,1.24
9359.00,1.24
9358.00,1.24
9357.00,1.24
9356.00,1.24
9355.00,1.24
9354.00,1.24
9353.00,1.24
9352.00,1.24
9351.00,1.24
9350.00,1.24
9349.00,1.24
9348.00,1.24
9347.00,1.24
9346.00,1.24
9345.00,1.24
9344.00,1.24
9343.00,1.24
9342.00,1.24
9341.00,1.24
9340.00,1.24
9339.00,1.24
9338.00,1.24
9337.00,1.24
9336.00,1.24
9335.00,1.24
9334.00,1.24
9333.00,1.24
9332.00,1.24
9331.00,1.24
9330.00,1.24
9329.00,1.24
9328.00,1.24
9327.00,1.24
9326.00,1.24
9325.00,1.24
9324.00,1.24
9323.00,1.24
9322.00,1.24
9321.00,1.24
9320.00,1.24
9319.00,1.24
9318.00,1.24
9317.00,1.23
9316.00,1.23
9315.00,1.23
9314.00,1.23
9313.00,1.23
9312.00,1.23
9311.00,1.23
9310.00,1.23
9309.00,1.23
9308.00,1.24
9307.00,1.24
9306.00,1.24
9305.00,1.24
9304.00,1.24
9303.00,1.24
9302.00,1.24
9301.00,1.24
9300.00,1.23
9299.00,1.23
9298.00,1.23
9297.00,1.23
9296.00,1.23
9295.00,1.23
9294.00,1.23
9293.00,1.23
9292.00,1.23
9291.00,1.23
9290.00,1.23
9289.00,1.23
9288.00,1.22
9287.00,1.22
9286.00,1.22
9285.00,1.22
9284.00,1.22
9283.00,1.22
9282.00,1.23
9281.00,1.23
9280.00,1.23
9279.00,1.23
9278.00,1.23
9277.00,1.23
9276.00,1.23
9275.00,1.23
9274.00,1.23
9273.00,1.23
9272.00,1.23
9271.00,1.23
9270.00,1.23
9269.00,1.23
9268.00,1.24
9267.00,1.24
9266.00,1.24
9265.00,1.24
9264.00,1.24
9263.00,1.24
9262.00,1.24
9261.00,1.24
9260.00,1.24
9259.00,1.24
9258.00,1.24
9257.00,1.25
9256.00,1.25
9255.00,1.25
9254.00,1.25
9253.00,1.25
9252.00,1.25
9251.00,1.25
9250.00,1.25
9249.00,1.25
9248.00,1.26
9247.00,1.26
9246.00,1.26
9245.00,1.26
9244.00,1.26
9243.00,1.25
9242.00,1.25
9241.00,1.25
9240.00,1.25
9239.00,1.25
9238.00,1.25
9237.00,1.25
9236.00,1.25
9235.00,1.25
9234.00,1.25
9233.00,1.25
9232.00,1.25
9231.00,1.25
9230.00,1.25
9229.00,1.25
9228.00,1.25
9227.00,1.25
9226.00,1.25
9225.00,1.25
9224.00,1.25
9223.00,1.25
9222.00,1.25
9221.00,1.25
9220.00,1.25
9219.00,1.25
9218.00,1.25
9217.00,1.25
9216.00,1.25
9215.00,1.24
9214.00,1.24
9213.00,1.24
9212.00,1.24
9211.00,1.24
9210.00,1.24
9209.00,1.24
9208.00,1.24
9207.00,1.24
9206.00,1.24
9205.00,1.24
9204.00,1.24
9203.00,1.24
9202.00,1.24
9201.00,1.24
9200.00,1.24
9199.00,1.24
9198.00,1.24
9197.00,1.24
9196.00,1.24
9195.00,1.24
9194.00,1.24
9193.00,1.24
9192.00,1.24
9191.00,1.24
9190.00,1.24
9189.00,1.24
9188.00,1.24
9187.00,1.24
9186.00,1.24
9185.00,1.24
9184.00,1.24
9183.00,1.24
9182.00,1.24
9181.00,1.24
9180.00,1.24
9179.00,1.24
9178.00,1.24
9177.00,1.24
9176.00,1.24
9175.00,1.24
9174.00,1.24
9173.00,1.24
9172.00,1.24
9171.00,1.24
9170.00,1.24
9169.00,1.24
9168.00,1.24
9167.00,1.24
9166.00,1.24
9165.00,1.24
9164.00,1.24
9163.00,1.24
9162.00,1.24
9161.00,1.24
9160.00,1.24
9159.00,1.24
9158.00,1.24
9157.00,1.24
9156.00,1.24
9155.00,1.24
9154.00,1.24
9153.00,1.24
9152.00,1.24
9151.00,1.24
9150.00,1.24
9149.00,1.24
9148.00,1.24
9147.00,1.24
9146.00,1.24
9145.00,1.24
9144.00,1.24
9143.00,1.24
9142.00,1.24
9141.00,1.24
9140.00,1.24
9139.00,1.24
9138.00,1.24
9137.00,1.24
9136.00,1.24
9135.00,1.24
9134.00,1.24
9133.00,1.24
9132.00,1.24
9131.00,1.24
9130.00,1.24
9129.00,1.24
9128.00,1.24
9127.00,1.24
9126.00,1.24
9125.00,1.24
9124.00,1.23
9123.00,1.23
9122.00,1.23
9121.00,1.23
9120.00,1.23
9119.00,1.23
9118.00,1.23
9117.00,1.23
9116.00,1.23
9115.00,1.23
9114.00,1.23
9113.00,1.23
9112.00,1.23
9111.00,1.23
9110.00,1.23
9109.00,1.23
9108.00,1.23
9107.00,1.23
9106.00,1.24
9105.00,1.24
9104.00,1.24
9103.00,1.24
9102.00,1.24
9101.00,1.24
9100.00,1.24
9099.00,1.24
9098.00,1.24
9097.00,1.24
9096.00,1.24
9095.00,1.25
9094.00,1.25
9093.00,1.25
9092.00,1.25
9091.00,1.25
9090.00,1.25
9089.00,1.25
9088.00,1.25
9087.00,1.25
9086.00,1.25
9085.00,1.25
9084.00,1.25
9083.00,1.25
9082.00,1.25
9081.00,1.25
9080.00,1.25
9079.00,1.26
9078.00,1.26
9077.00,1.26
9076.00,1.26
9075.00,1.26
9074.00,1.26
9073.00,1.26
9072.00,1.26
9071.00,1.26
9070.00,1.26
9069.00,1.26
9068.00,1.25
9067.00,1.25
9066.00,1.25
9065.00,1.25
9064.00,1.25
9063.00,1.25
9062.00,1.25
9061.00,1.25
9060.00,1.25
9059.00,1.24
9058.00,1.24
9057.00,1.24
9056.00,1.24
9055.00,1.24
9054.00,1.24
9053.00,1.24
9052.00,1.24
9051.00,1.24
9050.00,1.25
9049.00,1.25
9048.00,1.25
9047.00,1.25
9046.00,1.25
9045.00,1.25
9044.00,1.25
9043.00,1.25
9042.00,1.25
9041.00,1.25
9040.00,1.25
9039.00,1.25
9038.00,1.25
9037.00,1.25
9036.00,1.25
9035.00,1.25
9034.00,1.25
9033.00,1.25
9032.00,1.25
9031.00,1.25
9030.00,1.25
9029.00,1.25
9028.00,1.25
9027.00,1.25
9026.00,1.25
9025.00,1.25
9024.00,1.25
9023.00,1.25
9022.00,1.25
9021.00,1.25
9020.00,1.25
9019.00,1.25
9018.00,1.25
9017.00,1.25
9016.00,1.24
9015.00,1.24
9014.00,1.24
9013.00,1.24
9012.00,1.24
9011.00,1.24
9010.00,1.24
9009.00,1.24
9008.00,1.24
9007.00,1.24
9006.00,1.24
9005.00,1.24
9004.00,1.24
9003.00,1.24
9002.00,1.24
9001.00,1.24
9000.00,1.24
8999.00,1.24
8998.00,1.24
8997.00,1.24
8996.00,1.24
8995.00,1.24
8994.00,1.24
8993.00,1.24
8992.00,1.24
8991.00,1.24
8990.00,1.24
8989.00,1.24
8988.00,1.24
8987.00,1.24
8986.00,1.24
8985.00,1.24
8984.00,1.24
8983.00,1.24
8982.00,1.24
8981.00,1.24
8980.00,1.24
8979.00,1.24
8978.00,1.24
8977.00,1.24
8976.00,1.24
8975.00,1.24
8974.00,1.24
8973.00,1.24
8972.00,1.24
8971.00,1.24
8970.00,1.24
8969.00,1.24
8968.00,1.24
8967.00,1.24
8966.00,1.24
8965.00,1.24
8964.00,1.24
8963.00,1.24
8962.00,1.24
8961.00,1.24
8960.00,1.24
8959.00,1.25
8958.00,1.25
8957.00,1.25
8956.00,1.25
8955.00,1.25
8954.00,1.25
8953.00,1.25
8952.00,1.25
8951.00,1.25
8950.00,1.25
8949.00,1.25
8948.00,1.25
8947.00,1.24
8946.00,1.24
8945.00,1.24
8944.00,1.24
8943.00,1.24
8942.00,1.24
8941.00,1.24
8940.00,1.24
8939.00,1.24
8938.00,1.24
8937.00,1.24
8936.00,1.24
8935.00,1.24
8934.00,1.24
8933.00,1.24
8932.00,1.24
8931.00,1.24
8930.00,1.24
8929.00,1.24
8928.00,1.24
8927.00,1.24
8926.00,1.24
8925.00,1.24
8924.00,1.24
8923.00,1.24
8922.00,1.24
8921.00,1.24
8920.00,1.24
8919.00,1.24
8918.00,1.24
8917.00,1.24
8916.00,1.24
8915.00,1.24
8914.00,1.24
8913.00,1.24
8912.00,1.24
8911.00,1.24
8910.00,1.24
8909.00,1.25
8908.00,1.25
8907.00,1.25
8906.00,1.25
8905.00,1.25
8904.00,1.25
8903.00,1.25
8902.00,1.25
8901.00,1.25
8900.00,1.25
8899.00,1.25
8898.00,1.25
8897.00,1.25
8896.00,1.25
8895.00,1.25
8894.00,1.25
8893.00,1.25
8892.00,1.25
8891.00,1.25
8890.00,1.25
8889.00,1.25
8888.00,1.24
8887.00,1.24
8886.00,1.24
8885.00,1.24
8884.00,1.24
8883.00,1.24
8882.00,1.24
8881.00,1.24
8880.00,1.24
8879.00,1.24
8878.00,1.24
8877.00,1.24
8876.00,1.24
8875.00,1.24
8874.00,1.24
8873.00,1.24
8872.00,1.24
8871.00,1.24
8870.00,1.24
8869.00,1.24
8868.00,1.25
8867.00,1.25
8866.00,1.25
8865.00,1.25
8864.00,1.25
8863.00,1.25
8862.00,1.25
8861.00,1.25
8860.00,1.25
8859.00,1.25
8858.00,1.24
8857.00,1.24
8856.00,1.24
8855.00,1.24
8854.00,1.24
8853.00,1.24
8852.00,1.24
8851.00,1.24
8850.00,1.24
8849.00,1.24
8848.00,1.23
8847.00,1.23
8846.00,1.23
8845.00,1.23
8844.00,1.23
8843.00,1.23
8842.00,1.23
8841.00,1.23
8840.00,1.24
8839.00,1.24
8838.00,1.24
8837.00,1.24
8836.00,1.24
8835.00,1.24
8834.00,1.24
8833.00,1.24
8832.00,1.24
8831.00,1.24
8830.00,1.24
8829.00,1.24
8828.00,1.24
8827.00,1.24
8826.00,1.24
8825.00,1.24
8824.00,1.24
8823.00,1.24
8822.00,1.24
8821.00,1.24
8820.00,1.24
8819.00,1.24
8818.00,1.23
8817.00,1.23
8816.00,1.23
8815.00,1.23
8814.00,1.23
8813.00,1.23
8812.00,1.23
8811.00,1.22
8810.00,1.22
8809.00,1.22
8808.00,1.22
8807.00,1.22
8806.00,1.22
8805.00,1.22
8804.00,1.22
8803.00,1.22
8802.00,1.22
8801.00,1.22
8800.00,1.22
8799.00,1.22
8798.00,1.21
8797.00,1.21
8796.00,1.21
8795.00,1.21
8794.00,1.21
8793.00,1.21
8792.00,1.21
8791.00,1.21
8790.00,1.21
8789.00,1.21
8788.00,1.21
8787.00,1.21
8786.00,1.22
8785.00,1.22
8784.00,1.22
8783.00,1.22
8782.00,1.22
8781.00,1.22
8780.00,1.22
8779.00,1.22
8778.00,1.22
8777.00,1.22
8776.00,1.22
8775.00,1.22
8774.00,1.22
8773.00,1.22
8772.00,1.22
8771.00,1.22
8770.00,1.22
8769.00,1.22
8768.00,1.21
8767.00,1.21
8766.00,1.21
8765.00,1.21
8764.00,1.21
8763.00,1.21
8762.00,1.21
8761.00,1.21
8760.00,1.21
8759.00,1.21
8758.00,1.21
8757.00,1.21
8756.00,1.21
8755.00,1.21
8754.00,1.21
8753.00,1.21
8752.00,1.21
8751.00,1.21
8750.00,1.21
8749.00,1.21
8748.00,1.22
8747.00,1.22
8746.00,1.22
8745.00,1.22
8744.00,1.22
8743.00,1.22
8742.00,1.22
8741.00,1.23
8740.00,1.23
8739.00,1.23
8738.00,1.23
8737.00,1.23
8736.00,1.23
8735.00,1.23
8734.00,1.23
8733.00,1.22
8732.00,1.22
8731.00,1.22
8730.00,1.22
8729.00,1.22
8728.00,1.21
8727.00,1.21
8726.00,1.21
8725.00,1.21
8724.00,1.21
8723.00,1.20
8722.00,1.20
8721.00,1.20
8720.00,1.20
8719.00,1.20
8718.00,1.20
8717.00,1.20
8716.00,1.19
8715.00,1.19
8714.00,1.19
8713.00,1.19
8712.00,1.19
8711.00,1.19
8710.00,1.19
8709.00,1.19
8708.00,1.20
8707.00,1.20
8706.00,1.20
8705.00,1.20
8704.00,1.20
8703.00,1.20
8702.00,1.20
8701.00,1.20
8700.00,1.21
8699.00,1.21
8698.00,1.21
8697.00,1.21
8696.00,1.21
8695.00,1.21
8694.00,1.22
8693.00,1.22
8692.00,1.22
8691.00,1.22
8690.00,1.22
8689.00,1.22
8688.00,1.22
8687.00,1.22
8686.00,1.22
8685.00,1.21
8684.00,1.21
8683.00,1.21
8682.00,1.21
8681.00,1.21
8680.00,1.21
8679.00,1.21
8678.00,1.21
8677.00,1.21
8676.00,1.21
8675.00,1.21
8674.00,1.21
8673.00,1.21
8672.00,1.21
8671.00,1.21
8670.00,1.21
8669.00,1.21
8668.00,1.21
8667.00,1.21
8666.00,1.20
8665.00,1.20
8664.00,1.20
8663.00,1.20
8662.00,1.20
8661.00,1.20
8660.00,1.20
8659.00,1.20
8658.00,1.20
8657.00,1.20
8656.00,1.20
8655.00,1.20
8654.00,1.20
8653.00,1.20
8652.00,1.19
8651.00,1.19
8650.00,1.19
8649.00,1.19
8648.00,1.20
8647.00,1.20
8646.00,1.20
8645.00,1.20
8644.00,1.20
8643.00,1.20
8642.00,1.20
8641.00,1.20
8640.00,1.20
8639.00,1.20
8638.00,1.20
8637.00,1.20
8636.00,1.20
8635.00,1.20
8634.00,1.20
8633.00,1.20
8632.00,1.20
8631.00,1.20
8630.00,1.20
8629.00,1.20
8628.00,1.20
8627.00,1.20
8626.00,1.20
8625.00,1.20
8624.00,1.20
8623.00,1.20
8622.00,1.20
8621.00,1.20
8620.00,1.19
8619.00,1.19
8618.00,1.19
8617.00,1.19
8616.00,1.19
8615.00,1.19
8614.00,1.19
8613.00,1.19
8612.00,1.19
8611.00,1.19
8610.00,1.18
8609.00,1.18
8608.00,1.18
8607.00,1.18
8606.00,1.18
8605.00,1.18
8604.00,1.18
8603.00,1.18
8602.00,1.18
8601.00,1.18
8600.00,1.18
8599.00,1.18
8598.00,1.18
8597.00,1.19
8596.00,1.19
8595.00,1.19
8594.00,1.19
8593.00,1.19
8592.00,1.19
8591.00,1.19
8590.00,1.19
8589.00,1.19
8588.00,1.19
8587.00,1.19
8586.00,1.19
8585.00,1.19
8584.00,1.19
8583.00,1.19
8582.00,1.19
8581.00,1.19
8580.00,1.19
8579.00,1.19
8578.00,1.19
8577.00,1.19
8576.00,1.19
8575.00,1.19
8574.00,1.19
8573.00,1.18
8572.00,1.18
8571.00,1.18
8570.00,1.18
8569.00,1.18
8568.00,1.18
8567.00,1.18
8566.00,1.18
8565.00,1.18
8564.00,1.18
8563.00,1.18
8562.00,1.18
8561.00,1.18
8560.00,1.18
8559.00,1.18
8558.00,1.18
8557.00,1.18
8556.00,1.18
8555.00,1.17
8554.00,1.17
8553.00,1.17
8552.00,1.17
8551.00,1.17
8550.00,1.17
8549.00,1.17
8548.00,1.17
8547.00,1.17
8546.00,1.17
8545.00,1.17
8544.00,1.17
8543.00,1.17
8542.00,1.17
8541.00,1.17
8540.00,1.17
8539.00,1.18
8538.00,1.18
8537.00,1.18
8536.00,1.18
8535.00,1.18
8534.00,1.18
8533.00,1.18
8532.00,1.18
8531.00,1.18
8530.00,1.18
8529.00,1.18
8528.00,1.18
8527.00,1.18
8526.00,1.18
8525.00,1.18
8524.00,1.18
8523.00,1.18
8522.00,1.18
8521.00,1.17
8520.00,1.17
8519.00,1.17
8518.00,1.17
8517.00,1.17
8516.00,1.17
8515.00,1.17
8514.00,1.17
8513.00,1.17
8512.00,1.17
8511.00,1.17
8510.00,1.17
8509.00,1.17
8508.00,1.17
8507.00,1.17
8506.00,1.17
8505.00,1.17
8504.00,1.17
8503.00,1.17
8502.00,1.17
8501.00,1.17
8500.00,1.17
8499.00,1.17
8498.00,1.17
8497.00,1.17
8496.00,1.17
8495.00,1.17
8494.00,1.16
8493.00,1.16
8492.00,1.16
8491.00,1.16
8490.00,1.16
8489.00,1.16
8488.00,1.16
8487.00,1.16
8486.00,1.16
8485.00,1.16
8484.00,1.16
8483.00,1.16
8482.00,1.16
8481.00,1.16
8480.00,1.16
8479.00,1.16
8478.00,1.16
8477.00,1.16
8476.00,1.15
8475.00,1.15
8474.00,1.15
8473.00,1.15
8472.00,1.15
8471.00,1.15
8470.00,1.15
8469.00,1.15
8468.00,1.15
8467.00,1.15
8466.00,1.15
8465.00,1.15
8464.00,1.15
8463.00,1.15
8462.00,1.15
8461.00,1.15
8460.00,1.15
8459.00,1.15
8458.00,1.15
8457.00,1.15
8456.00,1.15
8455.00,1.15
8454.00,1.15
8453.00,1.15
8452.00,1.14
8451.00,1.14
8450.00,1.14
8449.00,1.14
8448.00,1.14
8447.00,1.14
8446.00,1.14
8445.00,1.14
8444.00,1.14
8443.00,1.14
8442.00,1.14
8441.00,1.14
8440.00,1.14
8439.00,1.14
8438.00,1.14
8437.00,1.14
8436.00,1.14
8435.00,1.14
8434.00,1.14
8433.00,1.14
8432.00,1.14
8431.00,1.14
8430.00,1.14
8429.00,1.14
8428.00,1.14
8427.00,1.14
8426.00,1.14
8425.00,1.14
8424.00,1.14
8423.00,1.14
8422.00,1.14
8421.00,1.14
8420.00,1.14
8419.00,1.14
8418.00,1.14
8417.00,1.14
8416.00,1.14
8415.00,1.14
8414.00,1.14
8413.00,1.14
8412.00,1.14
8411.00,1.14
8410.00,1.14
8409.00,1.14
8408.00,1.14
8407.00,1.14
8406.00,1.14
8405.00,1.14
8404.00,1.14
8403.00,1.14
8402.00,1.14
8401.00,1.14
8400.00,1.14
8399.00,1.14
8398.00,1.14
8397.00,1.14
8396.00,1.14
8395.00,1.14
8394.00,1.14
8393.00,1.14
8392.00,1.14
8391.00,1.14
8390.00,1.14
8389.00,1.14
8388.00,1.14
8387.00,1.14
8386.00,1.15
8385.00,1.15
8384.00,1.15
8383.00,1.15
8382.00,1.15
8381.00,1.15
8380.00,1.15
8379.00,1.15
8378.00,1.15
8377.00,1.15
8376.00,1.15
8375.00,1.16
8374.00,1.16
8373.00,1.16
8372.00,1.16
8371.00,1.16
8370.00,1.16
8369.00,1.17
8368.00,1.17
8367.00,1.17
8366.00,1.17
8365.00,1.17
8364.00,1.17
8363.00,1.17
8362.00,1.18
8361.00,1.18
8360.00,1.18
8359.00,1.18
8358.00,1.18
8357.00,1.18
8356.00,1.18
8355.00,1.18
8354.00,1.18
8353.00,1.18
8352.00,1.18
8351.00,1.18
8350.00,1.18
8349.00,1.18
8348.00,1.18
8347.00,1.18
8346.00,1.18
8345.00,1.18
8344.00,1.18
8343.00,1.18
8342.00,1.19
8341.00,1.19
8340.00,1.19
8339.00,1.19
8338.00,1.19
8337.00,1.19
8336.00,1.18
8335.00,1.18
8334.00,1.18
8333.00,1.18
8332.00,1.18
8331.00,1.18
8330.00,1.18
8329.00,1.18
8328.00,1.18
8327.00,1.18
8326.00,1.17
8325.00,1.17
8324.00,1.17
8323.00,1.17
8322.00,1.17
8321.00,1.17
8320.00,1.17
8319.00,1.17
8318.00,1.17
8317.00,1.17
8316.00,1.17
8315.00,1.17
8314.00,1.17
8313.00,1.17
8312.00,1.17
8311.00,1.17
8310.00,1.17
8309.00,1.17
8308.00,1.17
8307.00,1.17
8306.00,1.16
8305.00,1.16
8304.00,1.16
8303.00,1.16
8302.00,1.16
8301.00,1.16
8300.00,1.16
8299.00,1.16
8298.00,1.16
8297.00,1.16
8296.00,1.16
8295.00,1.16
8294.00,1.16
8293.00,1.17
8292.00,1.17
8291.00,1.17
8290.00,1.17
8289.00,1.17
8288.00,1.17
8287.00,1.17
8286.00,1.18
8285.00,1.18
8284.00,1.18
8283.00,1.18
8282.00,1.18
8281.00,1.18
8280.00,1.19
8279.00,1.19
8278.00,1.19
8277.00,1.19
8276.00,1.19
8275.00,1.19
8274.00,1.19
8273.00,1.19
8272.00,1.19
8271.00,1.19
8270.00,1.19
8269.00,1.19
8268.00,1.19
8267.00,1.19
8266.00,1.19
8265.00,1.19
8264.00,1.19
8263.00,1.19
8262.00,1.18
8261.00,1.18
8260.00,1.18
8259.00,1.18
8258.00,1.18
8257.00,1.18
8256.00,1.18
8255.00,1.18
8254.00,1.18
8253.00,1.18
8252.00,1.18
8251.00,1.18
8250.00,1.18
8249.00,1.18
8248.00,1.18
8247.00,1.18
8246.00,1.18
8245.00,1.18
8244.00,1.18
8243.00,1.18
8242.00,1.18
8241.00,1.18
8240.00,1.18
8239.00,1.18
8238.00,1.18
8237.00,1.18
8236.00,1.18
8235.00,1.18
8234.00,1.19
8233.00,1.19
8232.00,1.19
8231.00,1.19
8230.00,1.19
8229.00,1.19
8228.00,1.19
8227.00,1.19
8226.00,1.20
8225.00,1.20
8224.00,1.20
8223.00,1.20
8222.00,1.20
8221.00,1.20
8220.00,1.20
8219.00,1.20
8218.00,1.20
8217.00,1.20
8216.00,1.20
8215.00,1.20
8214.00,1.20
8213.00,1.20
8212.00,1.20
8211.00,1.20
8210.00,1.20
8209.00,1.20
8208.00,1.20
8207.00,1.20
8206.00,1.20
8205.00,1.20
8204.00,1.20
8203.00,1.20
8202.00,1.20
8201.00,1.20
8200.00,1.20
8199.00,1.20
8198.00,1.20
8197.00,1.21
8196.00,1.21
8195.00,1.21
8194.00,1.21
8193.00,1.21
8192.00,1.21
8191.00,1.21
8190.00,1.21
8189.00,1.21
8188.00,1.21
8187.00,1.21
8186.00,1.21
8185.00,1.21
8184.00,1.21
8183.00,1.21
8182.00,1.21
8181.00,1.21
8180.00,1.21
8179.00,1.21
8178.00,1.21
8177.00,1.21
8176.00,1.21
8175.00,1.21
8174.00,1.21
8173.00,1.21
8172.00,1.21
8171.00,1.21
8170.00,1.21
8169.00,1.21
8168.00,1.21
8167.00,1.21
8166.00,1.21
8165.00,1.20
8164.00,1.20
8163.00,1.20
8162.00,1.20
8161.00,1.20
8160.00,1.20
8159.00,1.20
8158.00,1.20
8157.00,1.20
8156.00,1.20
8155.00,1.20
8154.00,1.20
8153.00,1.20
8152.00,1.20
8151.00,1.20
8150.00,1.20
8149.00,1.20
8148.00,1.20
8147.00,1.20
8146.00,1.20
8145.00,1.20
8144.00,1.20
8143.00,1.20
8142.00,1.21
8141.00,1.21
8140.00,1.21
8139.00,1.21
8138.00,1.21
8137.00,1.21
8136.00,1.21
8135.00,1.21
8134.00,1.21
8133.00,1.21
8132.00,1.21
8131.00,1.21
8130.00,1.21
8129.00,1.21
8128.00,1.21
8127.00,1.21
8126.00,1.21
8125.00,1.21
8124.00,1.21
8123.00,1.21
8122.00,1.21
8121.00,1.21
8120.00,1.22
8119.00,1.22
8118.00,1.22
8117.00,1.22
8116.00,1.22
8115.00,1.22
8114.00,1.22
8113.00,1.22
8112.00,1.22
8111.00,1.22
8110.00,1.22
8109.00,1.22
8108.00,1.22
8107.00,1.21
8106.00,1.21
8105.00,1.21
8104.00,1.21
8103.00,1.21
8102.00,1.21
8101.00,1.21
8100.00,1.21
8099.00,1.21
8098.00,1.21
8097.00,1.21
8096.00,1.21
8095.00,1.21
8094.00,1.21
8093.00,1.21
8092.00,1.21
8091.00,1.22
8090.00,1.22
8089.00,1.22
8088.00,1.22
8087.00,1.22
8086.00,1.22
8085.00,1.22
8084.00,1.22
8083.00,1.22
8082.00,1.22
8081.00,1.22
8080.00,1.22
8079.00,1.22
8078.00,1.22
8077.00,1.22
8076.00,1.22
8075.00,1.22
8074.00,1.22
8073.00,1.22
8072.00,1.22
8071.00,1.22
8070.00,1.22
8069.00,1.22
8068.00,1.22
8067.00,1.22
8066.00,1.22
8065.00,1.22
8064.00,1.22
8063.00,1.22
8062.00,1.22
8061.00,1.22
8060.00,1.22
8059.00,1.22
8058.00,1.22
8057.00,1.22
8056.00,1.22
8055.00,1.22
8054.00,1.22
8053.00,1.22
8052.00,1.22
8051.00,1.22
8050.00,1.22
8049.00,1.22
8048.00,1.22
8047.00,1.22
8046.00,1.22
8045.00,1.22
8044.00,1.22
8043.00,1.22
8042.00,1.22
8041.00,1.22
8040.00,1.22
8039.00,1.22
8038.00,1.22
8037.00,1.22
8036.00,1.22
8035.00,1.22
8034.00,1.22
8033.00,1.23
8032.00,1.23
8031.00,1.23
8030.00,1.23
8029.00,1.23
8028.00,1.23
8027.00,1.23
8026.00,1.23
8025.00,1.24
8024.00,1.24
8023.00,1.24
8022.00,1.24
8021.00,1.24
8020.00,1.24
8019.00,1.24
8018.00,1.24
8017.00,1.24
8016.00,1.24
8015.00,1.24
8014.00,1.24
8013.00,1.24
8012.00,1.24
8011.00,1.24
8010.00,1.24
8009.00,1.24
8008.00,1.24
8007.00,1.24
8006.00,1.24
8005.00,1.24
8004.00,1.24
8003.00,1.24
8002.00,1.24
8001.00,1.24
8000.00,1.24
7999.00,1.24
7998.00,1.24
7997.00,1.24
7996.00,1.24
7995.00,1.24
7994.00,1.24
7993.00,1.24
7992.00,1.24
7991.00,1.24
7990.00,1.24
7989.00,1.24
7988.00,1.24
7987.00,1.24
7986.00,1.24
7985.00,1.24
7984.00,1.24
7983.00,1.23
7982.00,1.23
7981.00,1.23
7980.00,1.23
7979.00,1.23
7978.00,1.23
7977.00,1.23
7976.00,1.23
7975.00,1.23
7974.00,1.23
7973.00,1.23
7972.00,1.23
7971.00,1.23
7970.00,1.23
7969.00,1.23
7968.00,1.23
7967.00,1.23
7966.00,1.24
7965.00,1.24
7964.00,1.24
7963.00,1.24
7962.00,1.24
7961.00,1.24
7960.00,1.24
7959.00,1.24
7958.00,1.24
7957.00,1.24
7956.00,1.24
7955.00,1.24
7954.00,1.25
7953.00,1.25
7952.00,1.25
7951.00,1.25
7950.00,1.25
7949.00,1.25
7948.00,1.24
7947.00,1.24
7946.00,1.24
7945.00,1.24
7944.00,1.24
7943.00,1.24
7942.00,1.24
7941.00,1.24
7940.00,1.24
7939.00,1.24
7938.00,1.24
7937.00,1.24
7936.00,1.24
7935.00,1.24
7934.00,1.24
7933.00,1.24
7932.00,1.24
7931.00,1.24
7930.00,1.24
7929.00,1.24
7928.00,1.24
7927.00,1.24
7926.00,1.24
7925.00,1.24
7924.00,1.24
7923.00,1.24
7922.00,1.24
7921.00,1.24
7920.00,1.24
7919.00,1.24
7918.00,1.24
7917.00,1.24
7916.00,1.24
7915.00,1.24
7914.00,1.24
7913.00,1.24
7912.00,1.24
7911.00,1.24
7910.00,1.24
7909.00,1.24
7908.00,1.24
7907.00,1.24
7906.00,1.24
7905.00,1.24
7904.00,1.24
7903.00,1.24
7902.00,1.24
7901.00,1.24
7900.00,1.24
7899.00,1.24
7898.00,1.25
7897.00,1.25
7896.00,1.25
7895.00,1.25
7894.00,1.25
7893.00,1.25
7892.00,1.25
7891.00,1.25
7890.00,1.25
7889.00,1.25
7888.00,1.26
7887.00,1.26
7886.00,1.26
7885.00,1.26
7884.00,1.26
7883.00,1.26
7882.00,1.26
7881.00,1.26
7880.00,1.26
7879.00,1.26
7878.00,1.26
7877.00,1.26
7876.00,1.25
7875.00,1.25
7874.00,1.25
7873.00,1.25
7872.00,1.25
7871.00,1.25
7870.00,1.25
7869.00,1.25
7868.00,1.25
7867.00,1.25
7866.00,1.25
7865.00,1.24
7864.00,1.24
7863.00,1.24
7862.00,1.24
7861.00,1.24
7860.00,1.24
7859.00,1.24
7858.00,1.24
7857.00,1.24
7856.00,1.24
7855.00,1.24
7854.00,1.24
7853.00,1.24
7852.00,1.24
7851.00,1.24
7850.00,1.24
7849.00,1.24
7848.00,1.24
7847.00,1.24
7846.00,1.24
7845.00,1.24
7844.00,1.24
7843.00,1.24
7842.00,1.24
7841.00,1.24
7840.00,1.24
7839.00,1.24
7838.00,1.24
7837.00,1.25
7836.00,1.25
7835.00,1.25
7834.00,1.25
7833.00,1.25
7832.00,1.25
7831.00,1.25
7830.00,1.25
7829.00,1.25
7828.00,1.25
7827.00,1.25
7826.00,1.25
7825.00,1.25
7824.00,1.25
7823.00,1.25
7822.00,1.25
7821.00,1.26
7820.00,1.26
7819.00,1.25
7818.00,1.25
7817.00,1.25
7816.00,1.25
7815.00,1.25
7814.00,1.25
7813.00,1.25
7812.00,1.26
7811.00,1.26
7810.00,1.26
7809.00,1.26
7808.00,1.26
7807.00,1.26
7806.00,1.26
7805.00,1.26
7804.00,1.26
7803.00,1.26
7802.00,1.26
7801.00,1.26
7800.00,1.26
7799.00,1.26
7798.00,1.26
7797.00,1.26
7796.00,1.26
7795.00,1.26
7794.00,1.26
7793.00,1.26
7792.00,1.26
7791.00,1.26
7790.00,1.26
7789.00,1.26
7788.00,1.26
7787.00,1.26
7786.00,1.26
7785.00,1.26
7784.00,1.26
7783.00,1.26
7782.00,1.26
7781.00,1.26
7780.00,1.26
7779.00,1.26
7778.00,1.26
7777.00,1.26
7776.00,1.26
7775.00,1.26
7774.00,1.26
7773.00,1.26
7772.00,1.26
7771.00,1.26
7770.00,1.26
7769.00,1.26
7768.00,1.26
7767.00,1.26
7766.00,1.26
7765.00,1.26
7764.00,1.25
7763.00,1.25
7762.00,1.25
7761.00,1.25
7760.00,1.25
7759.00,1.25
7758.00,1.25
7757.00,1.25
7756.00,1.25
7755.00,1.25
7754.00,1.25
7753.00,1.25
7752.00,1.25
7751.00,1.26
7750.00,1.26
7749.00,1.26
7748.00,1.26
7747.00,1.26
7746.00,1.26
7745.00,1.26
7744.00,1.26
7743.00,1.26
7742.00,1.26
7741.00,1.26
7740.00,1.26
7739.00,1.26
7738.00,1.26
7737.00,1.26
7736.00,1.26
7735.00,1.26
7734.00,1.26
7733.00,1.26
7732.00,1.26
7731.00,1.26
7730.00,1.26
7729.00,1.26
7728.00,1.26
7727.00,1.26
7726.00,1.26
7725.00,1.26
7724.00,1.26
7723.00,1.26
7722.00,1.26
7721.00,1.26
7720.00,1.26
7719.00,1.26
7718.00,1.26
7717.00,1.26
7716.00,1.26
7715.00,1.26
7714.00,1.26
7713.00,1.26
7712.00,1.26
7711.00,1.26
7710.00,1.26
7709.00,1.26
7708.00,1.26
7707.00,1.26
7706.00,1.26
7705.00,1.26
7704.00,1.26
7703.00,1.26
7702.00,1.26
7701.00,1.26
7700.00,1.26
7699.00,1.26
7698.00,1.26
7697.00,1.26
7696.00,1.26
7695.00,1.26
7694.00,1.26
7693.00,1.26
7692.00,1.26
7691.00,1.26
7690.00,1.26
7689.00,1.26
7688.00,1.26
7687.00,1.26
7686.00,1.26
7685.00,1.26
7684.00,1.26
7683.00,1.26
7682.00,1.26
7681.00,1.26
7680.00,1.26
7679.00,1.26
7678.00,1.26
7677.00,1.26
7676.00,1.26
7675.00,1.26
7674.00,1.26
7673.00,1.26
7672.00,1.26
7671.00,1.26
7670.00,1.26
7669.00,1.26
7668.00,1.26
7667.00,1.26
7666.00,1.26
7665.00,1.26
7664.00,1.26
7663.00,1.26
7662.00,1.26
7661.00,1.26
7660.00,1.26
7659.00,1.26
7658.00,1.26
7657.00,1.26
7656.00,1.26
7655.00,1.26
7654.00,1.26
7653.00,1.26
7652.00,1.26
7651.00,1.26
7650.00,1.26
7649.00,1.26
7648.00,1.26
7647.00,1.26
7646.00,1.26
7645.00,1.26
7644.00,1.26
7643.00,1.26
7642.00,1.26
7641.00,1.26
7640.00,1.26
7639.00,1.26
7638.00,1.26
7637.00,1.26
7636.00,1.26
7635.00,1.26
7634.00,1.26
7633.00,1.26
7632.00,1.26
7631.00,1.26
7630.00,1.26
7629.00,1.26
7628.00,1.26
7627.00,1.26
7626.00,1.26
7625.00,1.26
7624.00,1.26
7623.00,1.26
7622.00,1.26
7621.00,1.26
7620.00,1.26
7619.00,1.26
7618.00,1.26
7617.00,1.26
7616.00,1.26
7615.00,1.26
7614.00,1.26
7613.00,1.26
7612.00,1.26
7611.00,1.26
7610.00,1.26
7609.00,1.26
7608.00,1.26
7607.00,1.26
7606.00,1.26
7605.00,1.26
7604.00,1.26
7603.00,1.26
7602.00,1.26
7601.00,1.26
7600.00,1.26
7599.00,1.26
7598.00,1.26
7597.00,1.26
7596.00,1.26
7595.00,1.26
7594.00,1.26
7593.00,1.26
7592.00,1.26
7591.00,1.26
7590.00,1.26
7589.00,1.26
7588.00,1.26
7587.00,1.26
7586.00,1.26
7585.00,1.26
7584.00,1.26
7583.00,1.26
7582.00,1.26
7581.00,1.26
7580.00,1.26
7579.00,1.26
7578.00,1.26
7577.00,1.26
7576.00,1.26
7575.00,1.26
7574.00,1.26
7573.00,1.26
7572.00,1.26
7571.00,1.26
7570.00,1.26
7569.00,1.26
7568.00,1.26
7567.00,1.26
7566.00,1.26
7565.00,1.26
7564.00,1.26
7563.00,1.26
7562.00,1.26
7561.00,1.26
7560.00,1.26
7559.00,1.26
7558.00,1.26
7557.00,1.26
7556.00,1.26
7555.00,1.26
7554.00,1.26
7553.00,1.26
7552.00,1.26
7551.00,1.26
7550.00,1.26
7549.00,1.26
7548.00,1.26
7547.00,1.26
7546.00,1.26
7545.00,1.26
7544.00,1.26
7543.00,1.26
7542.00,1.26
7541.00,1.26
7540.00,1.26
7539.00,1.26
7538.00,1.26
7537.00,1.26
7536.00,1.26
7535.00,1.26
7534.00,1.26
7533.00,1.26
7532.00,1.26
7531.00,1.26
7530.00,1.26
7529.00,1.26
7528.00,1.26
7527.00,1.26
7526.00,1.26
7525.00,1.26
7524.00,1.26
7523.00,1.26
7522.00,1.26
7521.00,1.26
7520.00,1.26
7519.00,1.26
7518.00,1.26
7517.00,1.26
7516.00,1.26
7515.00,1.26
7514.00,1.26
7513.00,1.26
7512.00,1.26
7511.00,1.26
7510.00,1.26
7509.00,1.26
7508.00,1.25
7507.00,1.25
7506.00,1.25
7505.00,1.25
7504.00,1.25
7503.00,1.25
7502.00,1.25
7501.00,1.25
7500.00,1.25
7499.00,1.25
7498.00,1.25
7497.00,1.24
7496.00,1.24
7495.00,1.24
7494.00,1.24
7493.00,1.24
7492.00,1.24
7491.00,1.24
7490.00,1.24
7489.00,1.24
7488.00,1.24
7487.00,1.24
7486.00,1.24
7485.00,1.24
7484.00,1.24
7483.00,1.24
7482.00,1.24
7481.00,1.24
7480.00,1.24
7479.00,1.24
7478.00,1.24
7477.00,1.24
7476.00,1.24
7475.00,1.24
7474.00,1.24
7473.00,1.24
7472.00,1.24
7471.00,1.24
7470.00,1.24
7469.00,1.23
7468.00,1.23
7467.00,1.23
7466.00,1.23
7465.00,1.23
7464.00,1.23
7463.00,1.23
7462.00,1.23
7461.00,1.23
7460.00,1.23
7459.00,1.23
7458.00,1.23
7457.00,1.23
7456.00,1.23
7455.00,1.23
7454.00,1.23
7453.00,1.23
7452.00,1.23
7451.00,1.23
7450.00,1.23
7449.00,1.23
7448.00,1.23
7447.00,1.23
7446.00,1.23
7445.00,1.23
7444.00,1.23
7443.00,1.23
7442.00,1.23
7441.00,1.23
7440.00,1.23
7439.00,1.23
7438.00,1.23
7437.00,1.23
7436.00,1.22
7435.00,1.22
7434.00,1.22
7433.00,1.22
7432.00,1.22
7431.00,1.22
7430.00,1.22
7429.00,1.22
7428.00,1.22
7427.00,1.22
7426.00,1.22
7425.00,1.22
7424.00,1.22
7423.00,1.22
7422.00,1.22
7421.00,1.21
7420.00,1.21
7419.00,1.21
7418.00,1.21
7417.00,1.21
7416.00,1.21
7415.00,1.21
7414.00,1.21
7413.00,1.21
7412.00,1.21
7411.00,1.21
7410.00,1.21
7409.00,1.20
7408.00,1.20
7407.00,1.20
7406.00,1.20
7405.00,1.20
7404.00,1.20
7403.00,1.20
7402.00,1.20
7401.00,1.20
7400.00,1.20
7399.00,1.20
7398.00,1.20
7397.00,1.20
7396.00,1.20
7395.00,1.20
7394.00,1.20
7393.00,1.20
7392.00,1.20
7391.00,1.20
7390.00,1.19
7389.00,1.19
7388.00,1.19
7387.00,1.19
7386.00,1.19
7385.00,1.19
7384.00,1.19
7383.00,1.19
7382.00,1.18
7381.00,1.18
7380.00,1.18
7379.00,1.18
7378.00,1.18
7377.00,1.18
7376.00,1.18
7375.00,1.18
7374.00,1.18
7373.00,1.18
7372.00,1.18
7371.00,1.18
7370.00,1.18
7369.00,1.18
7368.00,1.18
7367.00,1.18
7366.00,1.18
7365.00,1.18
7364.00,1.18
7363.00,1.18
7362.00,1.18
7361.00,1.18
7360.00,1.18
7359.00,1.18
7358.00,1.18
7357.00,1.18
7356.00,1.17
7355.00,1.17
7354.00,1.17
7353.00,1.17
7352.00,1.17
7351.00,1.17
7350.00,1.17
7349.00,1.17
7348.00,1.17
7347.00,1.17
7346.00,1.17
7345.00,1.17
7344.00,1.16
7343.00,1.16
7342.00,1.16
7341.00,1.16
7340.00,1.16
7339.00,1.16
7338.00,1.16
7337.00,1.16
7336.00,1.16
7335.00,1.16
7334.00,1.16
7333.00,1.16
7332.00,1.16
7331.00,1.16
7330.00,1.16
7329.00,1.16
7328.00,1.16
7327.00,1.16
7326.00,1.16
7325.00,1.16
7324.00,1.16
7323.00,1.16
7322.00,1.16
7321.00,1.16
7320.00,1.16
7319.00,1.16
7318.00,1.16
7317.00,1.16
7316.00,1.16
7315.00,1.16
7314.00,1.16
7313.00,1.16
7312.00,1.16
7311.00,1.16
7310.00,1.16
7309.00,1.16
7308.00,1.16
7307.00,1.16
7306.00,1.16
7305.00,1.16
7304.00,1.16
7303.00,1.16
7302.00,1.16
7301.00,1.16
7300.00,1.16
7299.00,1.16
7298.00,1.16
7297.00,1.16
7296.00,1.16
7295.00,1.16
7294.00,1.16
7293.00,1.15
7292.00,1.15
7291.00,1.15
7290.00,1.15
7289.00,1.15
7288.00,1.15
7287.00,1.15
7286.00,1.15
7285.00,1.15
7284.00,1.15
7283.00,1.15
7282.00,1.14
7281.00,1.14
7280.00,1.14
7279.00,1.14
7278.00,1.14
7277.00,1.14
7276.00,1.14
7275.00,1.14
7274.00,1.14
7273.00,1.14
7272.00,1.14
7271.00,1.14
7270.00,1.14
7269.00,1.14
7268.00,1.13
7267.00,1.13
7266.00,1.13
7265.00,1.13
7264.00,1.13
7263.00,1.13
7262.00,1.13
7261.00,1.13
7260.00,1.13
7259.00,1.12
7258.00,1.12
7257.00,1.12
7256.00,1.12
7255.00,1.12
7254.00,1.12
7253.00,1.12
7252.00,1.11
7251.00,1.11
7250.00,1.11
7249.00,1.11
7248.00,1.11
7247.00,1.10
7246.00,1.10
7245.00,1.10
7244.00,1.10
7243.00,1.10
7242.00,1.09
7241.00,1.09
7240.00,1.09
7239.00,1.08
7238.00,1.08
7237.00,1.08
7236.00,1.08
7235.00,1.07
7234.00,1.07
7233.00,1.07
7232.00,1.07
7231.00,1.07
7230.00,1.06
7229.00,1.06
7228.00,1.06
7227.00,1.06
7226.00,1.06
7225.00,1.06
7224.00,1.05
7223.00,1.05
7222.00,1.05
7221.00,1.05
7220.00,1.05
7219.00,1.05
7218.00,1.05
7217.00,1.04
7216.00,1.04
7215.00,1.04
7214.00,1.04
7213.00,1.04
7212.00,1.03
7211.00,1.03
7210.00,1.03
7209.00,1.03
7208.00,1.02
7207.00,1.02
7206.00,1.02
7205.00,1.01
7204.00,1.01
7203.00,1.01
7202.00,1.01
7201.00,1.00
7200.00,1.00
7199.00,1.00
7198.00,1.00
7197.00,0.99
7196.00,0.99
7195.00,0.99
7194.00,0.99
7193.00,0.98
7192.00,0.98
7191.00,0.98
7190.00,0.98
7189.00,0.98
7188.00,0.97
7187.00,0.97
7186.00,0.97
7185.00,0.97
7184.00,0.96
7183.00,0.96
7182.00,0.96
7181.00,0.96
7180.00,0.96
7179.00,0.95
7178.00,0.95
7177.00,0.95
7176.00,0.95
7175.00,0.95
7174.00,0.95
7173.00,0.94
7172.00,0.94
7171.00,0.94
7170.00,0.94
7169.00,0.94
7168.00,0.93
7167.00,0.93
7166.00,0.93
7165.00,0.93
7164.00,0.93
7163.00,0.92
7162.00,0.92
7161.00,0.92
7160.00,0.92
7159.00,0.91
7158.00,0.91
7157.00,0.91
7156.00,0.91
7155.00,0.91
7154.00,0.91
7153.00,0.90
7152.00,0.90
7151.00,0.90
7150.00,0.90
7149.00,0.89
7148.00,0.89
7147.00,0.89
7146.00,0.89
7145.00,0.89
7144.00,0.88
7143.00,0.88
7142.00,0.88
7141.00,0.88
7140.00,0.88
7139.00,0.87
7138.00,0.87
7137.00,0.87
7136.00,0.87
7135.00,0.87
7134.00,0.87
7133.00,0.86
7132.00,0.86
7131.00,0.86
7130.00,0.86
7129.00,0.86
7128.00,0.85
7127.00,0.85
7126.00,0.85
7125.00,0.85
7124.00,0.85
7123.00,0.84
7122.00,0.84
7121.00,0.84
7120.00,0.84
7119.00,0.84
7118.00,0.83
7117.00,0.83
7116.00,0.83
7115.00,0.83
7114.00,0.83
7113.00,0.82
7112.00,0.82
7111.00,0.82
7110.00,0.82
7109.00,0.82
7108.00,0.81
7107.00,0.81
7106.00,0.81
7105.00,0.81
7104.00,0.81
7103.00,0.81
7102.00,0.80
7101.00,0.80
7100.00,0.80
7099.00,0.80
7098.00,0.80
7097.00,0.79
7096.00,0.79
7095.00,0.79
7094.00,0.79
7093.00,0.79
7092.00,0.78
7091.00,0.78
7090.00,0.78
7089.00,0.78
7088.00,0.78
7087.00,0.78
7086.00,0.77
7085.00,0.77
7084.00,0.77
7083.00,0.77
7082.00,0.77
7081.00,0.77
7080.00,0.76
7079.00,0.76
7078.00,0.76
7077.00,0.76
7076.00,0.76
7075.00,0.76
7074.00,0.75
7073.00,0.75
7072.00,0.75
7071.00,0.75
7070.00,0.75
7069.00,0.75
7068.00,0.75
7067.00,0.75
7066.00,0.75
7065.00,0.75
7064.00,0.74
7063.00,0.74
7062.00,0.74
7061.00,0.74
7060.00,0.74
7059.00,0.74
7058.00,0.74
7057.00,0.74
7056.00,0.74
7055.00,0.74
7054.00,0.74
7053.00,0.73
7052.00,0.73
7051.00,0.73
7050.00,0.73
7049.00,0.73
7048.00,0.73
7047.00,0.73
7046.00,0.73
7045.00,0.72
7044.00,0.72
7043.00,0.72
7042.00,0.72
7041.00,0.72
7040.00,0.72
7039.00,0.72
7038.00,0.72
7037.00,0.72
7036.00,0.72
7035.00,0.72
7034.00,0.72
7033.00,0.72
7032.00,0.72
7031.00,0.72
7030.00,0.72
7029.00,0.72
7028.00,0.72
7027.00,0.72
7026.00,0.72
7025.00,0.72
7024.00,0.72
7023.00,0.72
7022.00,0.72
7021.00,0.71
7020.00,0.71
7019.00,0.71
7018.00,0.71
7017.00,0.71
7016.00,0.71
7015.00,0.71
7014.00,0.71
7013.00,0.70
7012.00,0.70
7011.00,0.70
7010.00,0.70
7009.00,0.70
7008.00,0.70
7007.00,0.70
7006.00,0.70
7005.00,0.70
7004.00,0.70
7003.00,0.70
7002.00,0.69
7001.00,0.69
7000.00,0.69
6999.00,0.69
6998.00,0.69
6997.00,0.69
6996.00,0.69
6995.00,0.69
6994.00,0.69
6993.00,0.69
6992.00,0.69
6991.00,0.69
6990.00,0.69
6989.00,0.69
6988.00,0.69
6987.00,0.69
6986.00,0.69
6985.00,0.69
6984.00,0.69
6983.00,0.69
6982.00,0.69
6981.00,0.69
6980.00,0.69
6979.00,0.69
6978.00,0.68
6977.00,0.68
6976.00,0.68
6975.00,0.68
6974.00,0.68
6973.00,0.68
6972.00,0.68
6971.00,0.68
6970.00,0.68
6969.00,0.68
6968.00,0.68
6967.00,0.68
6966.00,0.68
6965.00,0.68
6964.00,0.68
6963.00,0.68
6962.00,0.68
6961.00,0.67
6960.00,0.67
6959.00,0.67
6958.00,0.67
6957.00,0.67
6956.00,0.67
6955.00,0.67
6954.00,0.67
6953.00,0.67
6952.00,0.67
6951.00,0.67
6950.00,0.67
6949.00,0.67
6948.00,0.67
6947.00,0.67
6946.00,0.66
6945.00,0.66
6944.00,0.66
6943.00,0.66
6942.00,0.66
6941.00,0.66
6940.00,0.66
6939.00,0.66
6938.00,0.66
6937.00,0.66
6936.00,0.66
6935.00,0.66
6934.00,0.66
6933.00,0.66
6932.00,0.66
6931.00,0.66
6930.00,0.66
6929.00,0.66
6928.00,0.66
6927.00,0.66
6926.00,0.66
6925.00,0.66
6924.00,0.66
6923.00,0.66
6922.00,0.66
6921.00,0.66
6920.00,0.66
6919.00,0.67
6918.00,0.67
6917.00,0.67
6916.00,0.67
6915.00,0.67
6914.00,0.67
6913.00,0.67
6912.00,0.67
6911.00,0.67
6910.00,0.67
6909.00,0.67
6908.00,0.67
6907.00,0.67
6906.00,0.67
6905.00,0.66
6904.00,0.66
6903.00,0.66
6902.00,0.66
6901.00,0.66
6900.00,0.66
6899.00,0.66
6898.00,0.66
6897.00,0.66
6896.00,0.66
6895.00,0.66
6894.00,0.66
6893.00,0.66
6892.00,0.66
6891.00,0.66
6890.00,0.66
6889.00,0.66
6888.00,0.66
6887.00,0.65
6886.00,0.65
6885.00,0.65
6884.00,0.65
6883.00,0.65
6882.00,0.65
6881.00,0.65
6880.00,0.65
6879.00,0.65
6878.00,0.65
6877.00,0.65
6876.00,0.65
6875.00,0.65
6874.00,0.65
6873.00,0.65
6872.00,0.65
6871.00,0.65
6870.00,0.65
6869.00,0.65
6868.00,0.65
6867.00,0.65
6866.00,0.65
6865.00,0.65
6864.00,0.65
6863.00,0.65
6862.00,0.65
6861.00,0.65
6860.00,0.65
6859.00,0.65
6858.00,0.65
6857.00,0.65
6856.00,0.65
6855.00,0.65
6854.00,0.65
6853.00,0.65
6852.00,0.65
6851.00,0.65
6850.00,0.65
6849.00,0.65
6848.00,0.65
6847.00,0.65
6846.00,0.65
6845.00,0.65
6844.00,0.65
6843.00,0.65
6842.00,0.65
6841.00,0.65
6840.00,0.65
6839.00,0.65
6838.00,0.65
6837.00,0.65
6836.00,0.65
6835.00,0.65
6834.00,0.65
6833.00,0.65
6832.00,0.65
6831.00,0.65
6830.00,0.65
6829.00,0.66
6828.00,0.66
6827.00,0.66
6826.00,0.66
6825.00,0.66
6824.00,0.66
6823.00,0.66
6822.00,0.66
6821.00,0.66
6820.00,0.66
6819.00,0.66
6818.00,0.66
6817.00,0.66
6816.00,0.66
6815.00,0.66
6814.00,0.66
6813.00,0.66
6812.00,0.66
6811.00,0.66
6810.00,0.66
6809.00,0.66
6808.00,0.67
6807.00,0.67
6806.00,0.67
6805.00,0.67
6804.00,0.67
6803.00,0.67
6802.00,0.67
6801.00,0.67
6800.00,0.67
6799.00,0.68
6798.00,0.68
6797.00,0.68
6796.00,0.68
6795.00,0.68
6794.00,0.68
6793.00,0.68
6792.00,0.68
6791.00,0.69
6790.00,0.69
6789.00,0.69
6788.00,0.69
6787.00,0.69
6786.00,0.69
6785.00,0.69
6784.00,0.69
6783.00,0.69
6782.00,0.69
6781.00,0.69
6780.00,0.69
6779.00,0.69
6778.00,0.69
6777.00,0.69
6776.00,0.69
6775.00,0.69
6774.00,0.69
6773.00,0.69
6772.00,0.69
6771.00,0.69
6770.00,0.69
6769.00,0.69
6768.00,0.69
6767.00,0.69
6766.00,0.69
6765.00,0.69
6764.00,0.69
6763.00,0.69
6762.00,0.69
6761.00,0.69
6760.00,0.69
6759.00,0.69
6758.00,0.69
6757.00,0.69
6756.00,0.69
6755.00,0.69
6754.00,0.69
6753.00,0.69
6752.00,0.69
6751.00,0.69
6750.00,0.70
6749.00,0.70
6748.00,0.70
6747.00,0.70
6746.00,0.70
6745.00,0.70
6744.00,0.70
6743.00,0.70
6742.00,0.70
6741.00,0.70
6740.00,0.70
6739.00,0.70
6738.00,0.70
6737.00,0.70
6736.00,0.70
6735.00,0.70
6734.00,0.70
6733.00,0.71
6732.00,0.71
6731.00,0.71
6730.00,0.71
6729.00,0.71
6728.00,0.71
6727.00,0.71
6726.00,0.71
6725.00,0.71
6724.00,0.72
6723.00,0.72
6722.00,0.72
6721.00,0.72
6720.00,0.72
6719.00,0.72
6718.00,0.72
6717.00,0.72
6716.00,0.72
6715.00,0.72
6714.00,0.73
6713.00,0.73
6712.00,0.73
6711.00,0.73
6710.00,0.73
6709.00,0.73
6708.00,0.73
6707.00,0.73
6706.00,0.73
6705.00,0.73
6704.00,0.73
6703.00,0.73
6702.00,0.73
6701.00,0.74
6700.00,0.74
6699.00,0.74
6698.00,0.74
6697.00,0.74
6696.00,0.74
6695.00,0.74
6694.00,0.74
6693.00,0.74
6692.00,0.74
6691.00,0.74
6690.00,0.74
6689.00,0.74
6688.00,0.75
6687.00,0.75
6686.00,0.75
6685.00,0.75
6684.00,0.75
6683.00,0.75
6682.00,0.75
6681.00,0.75
6680.00,0.76
6679.00,0.76
6678.00,0.76
6677.00,0.76
6676.00,0.76
6675.00,0.76
6674.00,0.76
6673.00,0.76
6672.00,0.76
6671.00,0.76
6670.00,0.76
6669.00,0.76
6668.00,0.77
6667.00,0.77
6666.00,0.77
6665.00,0.77
6664.00,0.77
6663.00,0.77
6662.00,0.77
6661.00,0.77
6660.00,0.77
6659.00,0.77
6658.00,0.77
6657.00,0.77
6656.00,0.77
6655.00,0.78
6654.00,0.78
6653.00,0.78
6652.00,0.78
6651.00,0.78
6650.00,0.78
6649.00,0.78
6648.00,0.78
6647.00,0.78
6646.00,0.78
6645.00,0.78
6644.00,0.78
6643.00,0.78
6642.00,0.78
6641.00,0.78
6640.00,0.78
6639.00,0.78
6638.00,0.78
6637.00,0.78
6636.00,0.78
6635.00,0.78
6634.00,0.79
6633.00,0.79
6632.00,0.79
6631.00,0.79
6630.00,0.79
6629.00,0.79
6628.00,0.79
6627.00,0.79
6626.00,0.79
6625.00,0.79
6624.00,0.79
6623.00,0.79
6622.00,0.79
6621.00,0.80
6620.00,0.80
6619.00,0.80
6618.00,0.80
6617.00,0.80
6616.00,0.80
6615.00,0.80
6614.00,0.80
6613.00,0.80
6612.00,0.80
6611.00,0.81
6610.00,0.81
6609.00,0.81
6608.00,0.81
6607.00,0.81
6606.00,0.81
6605.00,0.81
6604.00,0.81
6603.00,0.81
6602.00,0.81
6601.00,0.81
6600.00,0.81
6599.00,0.81
6598.00,0.82
6597.00,0.82
6596.00,0.82
6595.00,0.82
6594.00,0.82
6593.00,0.82
6592.00,0.82
6591.00,0.82
6590.00,0.82
6589.00,0.82
6588.00,0.82
6587.00,0.82
6586.00,0.82
6585.00,0.82
6584.00,0.82
6583.00,0.82
6582.00,0.83
6581.00,0.83
6580.00,0.83
6579.00,0.83
6578.00,0.83
6577.00,0.83
6576.00,0.83
6575.00,0.83
6574.00,0.83
6573.00,0.83
6572.00,0.84
6571.00,0.84
6570.00,0.84
6569.00,0.84
6568.00,0.84
6567.00,0.84
6566.00,0.84
6565.00,0.84
6564.00,0.84
6563.00,0.84
6562.00,0.84
6561.00,0.84
6560.00,0.84
6559.00,0.84
6558.00,0.85
6557.00,0.85
6556.00,0.85
6555.00,0.85
6554.00,0.85
6553.00,0.85
6552.00,0.85
6551.00,0.85
6550.00,0.85
6549.00,0.85
6548.00,0.85
6547.00,0.86
6546.00,0.86
6545.00,0.86
6544.00,0.86
6543.00,0.86
6542.00,0.86
6541.00,0.86
6540.00,0.86
6539.00,0.86
6538.00,0.86
6537.00,0.86
6536.00,0.86
6535.00,0.86
6534.00,0.86
6533.00,0.86
6532.00,0.86
6531.00,0.86
6530.00,0.86
6529.00,0.87
6528.00,0.87
6527.00,0.87
6526.00,0.87
6525.00,0.87
6524.00,0.87
6523.00,0.87
6522.00,0.87
6521.00,0.87
6520.00,0.87
6519.00,0.87
6518.00,0.87
6517.00,0.87
6516.00,0.87
6515.00,0.88
6514.00,0.88
6513.00,0.88
6512.00,0.88
6511.00,0.88
6510.00,0.88
6509.00,0.88
6508.00,0.88
6507.00,0.88
6506.00,0.88
6505.00,0.88
6504.00,0.88
6503.00,0.88
6502.00,0.88
6501.00,0.88
6500.00,0.88
6499.00,0.88
6498.00,0.88
6497.00,0.88
6496.00,0.89
6495.00,0.89
6494.00,0.89
6493.00,0.89
6492.00,0.89
6491.00,0.89
6490.00,0.89
6489.00,0.89
6488.00,0.89
6487.00,0.89
6486.00,0.89
6485.00,0.89
6484.00,0.89
6483.00,0.89
6482.00,0.89
6481.00,0.89
6480.00,0.89
6479.00,0.90
6478.00,0.90
6477.00,0.90
6476.00,0.90
6475.00,0.90
6474.00,0.90
6473.00,0.90
6472.00,0.90
6471.00,0.90
6470.00,0.90
6469.00,0.90
6468.00,0.90
6467.00,0.90
6466.00,0.90
6465.00,0.90
6464.00,0.90
6463.00,0.90
6462.00,0.90
6461.00,0.90
6460.00,0.91
6459.00,0.91
6458.00,0.91
6457.00,0.91
6456.00,0.91
6455.00,0.91
6454.00,0.91
6453.00,0.91
6452.00,0.91
6451.00,0.91
6450.00,0.91
6449.00,0.91
6448.00,0.91
6447.00,0.91
6446.00,0.91
6445.00,0.91
6444.00,0.91
6443.00,0.91
6442.00,0.91
6441.00,0.91
6440.00,0.91
6439.00,0.91
6438.00,0.91
6437.00,0.91
6436.00,0.91
6435.00,0.91
6434.00,0.91
6433.00,0.91
6432.00,0.91
6431.00,0.92
6430.00,0.92
6429.00,0.92
6428.00,0.92
6427.00,0.92
6426.00,0.92
6425.00,0.92
6424.00,0.92
6423.00,0.92
6422.00,0.92
6421.00,0.92
6420.00,0.92
6419.00,0.92
6418.00,0.92
6417.00,0.92
6416.00,0.93
6415.00,0.93
6414.00,0.93
6413.00,0.93
6412.00,0.93
6411.00,0.93
6410.00,0.93
6409.00,0.93
6408.00,0.93
6407.00,0.93
6406.00,0.93
6405.00,0.93
6404.00,0.93
6403.00,0.93
6402.00,0.93
6401.00,0.93
6400.00,0.93
6399.00,0.93
6398.00,0.93
6397.00,0.93
6396.00,0.93
6395.00,0.93
6394.00,0.93
6393.00,0.93
6392.00,0.93
6391.00,0.93
6390.00,0.93
6389.00,0.93
6388.00,0.93
6387.00,0.93
6386.00,0.93
6385.00,0.93
6384.00,0.93
6383.00,0.93
6382.00,0.93
6381.00,0.94
6380.00,0.94
6379.00,0.94
6378.00,0.94
6377.00,0.94
6376.00,0.94
6375.00,0.94
6374.00,0.94
6373.00,0.94
6372.00,0.94
6371.00,0.94
6370.00,0.94
6369.00,0.95
6368.00,0.95
6367.00,0.95
6366.00,0.95
6365.00,0.95
6364.00,0.95
6363.00,0.95
6362.00,0.95
6361.00,0.95
6360.00,0.95
6359.00,0.95
6358.00,0.95
6357.00,0.95
6356.00,0.95
6355.00,0.96
6354.00,0.96
6353.00,0.96
6352.00,0.96
6351.00,0.96
6350.00,0.96
6349.00,0.96
6348.00,0.96
6347.00,0.96
6346.00,0.96
6345.00,0.96
6344.00,0.96
6343.00,0.96
6342.00,0.96
6341.00,0.96
6340.00,0.96
6339.00,0.96
6338.00,0.96
6337.00,0.96
6336.00,0.96
6335.00,0.96
6334.00,0.96
6333.00,0.97
6332.00,0.97
6331.00,0.97
6330.00,0.97
6329.00,0.97
6328.00,0.97
6327.00,0.97
6326.00,0.97
6325.00,0.97
6324.00,0.97
6323.00,0.97
6322.00,0.98
6321.00,0.98
6320.00,0.98
6319.00,0.98
6318.00,0.98
6317.00,0.98
6316.00,0.98
6315.00,0.98
6314.00,0.98
6313.00,0.98
6312.00,0.98
6311.00,0.98
6310.00,0.98
6309.00,0.98
6308.00,0.99
6307.00,0.99
6306.00,0.99
6305.00,0.99
6304.00,0.99
6303.00,0.99
6302.00,0.99
6301.00,0.99
6300.00,0.99
6299.00,0.99
6298.00,0.99
6297.00,0.99
6296.00,0.99
6295.00,0.99
6294.00,1.00
6293.00,1.00
6292.00,1.00
6291.00,1.00
6290.00,1.00
6289.00,1.00
6288.00,1.00
6287.00,1.00
6286.00,1.00
6285.00,1.01
6284.00,1.01
6283.00,1.01
6282.00,1.01
6281.00,1.01
6280.00,1.01
6279.00,1.01
6278.00,1.01
6277.00,1.01
6276.00,1.01
6275.00,1.02
6274.00,1.02
6273.00,1.02
6272.00,1.02
6271.00,1.02
6270.00,1.02
6269.00,1.02
6268.00,1.02
6267.00,1.02
6266.00,1.02
6265.00,1.02
6264.00,1.02
6263.00,1.02
6262.00,1.02
6261.00,1.02
6260.00,1.02
6259.00,1.03
6258.00,1.03
6257.00,1.03
6256.00,1.03
6255.00,1.03
6254.00,1.03
6253.00,1.03
6252.00,1.03
6251.00,1.03
6250.00,1.03
6249.00,1.04
6248.00,1.04
6247.00,1.04
6246.00,1.04
6245.00,1.04
6244.00,1.04
6243.00,1.04
6242.00,1.04
6241.00,1.05
6240.00,1.05
6239.00,1.05
6238.00,1.05
6237.00,1.05
6236.00,1.05
6235.00,1.05
6234.00,1.05
6233.00,1.05
6232.00,1.05
6231.00,1.05
6230.00,1.06
6229.00,1.06
6228.00,1.06
6227.00,1.06
6226.00,1.06
6225.00,1.06
6224.00,1.06
6223.00,1.06
6222.00,1.06
6221.00,1.06
6220.00,1.06
6219.00,1.06
6218.00,1.06
6217.00,1.06
6216.00,1.06
6215.00,1.06
6214.00,1.06
6213.00,1.06
6212.00,1.06
6211.00,1.07
6210.00,1.07
6209.00,1.07
6208.00,1.07
6207.00,1.07
6206.00,1.07
6205.00,1.07
6204.00,1.07
6203.00,1.07
6202.00,1.07
6201.00,1.07
6200.00,1.08
6199.00,1.08
6198.00,1.08
6197.00,1.08
6196.00,1.08
6195.00,1.08
6194.00,1.08
6193.00,1.08
6192.00,1.08
6191.00,1.08
6190.00,1.09
6189.00,1.09
6188.00,1.09
6187.00,1.09
6186.00,1.09
6185.00,1.09
6184.00,1.09
6183.00,1.09
6182.00,1.09
6181.00,1.10
6180.00,1.10
6179.00,1.10
6178.00,1.10
6177.00,1.10
6176.00,1.10
6175.00,1.10
6174.00,1.11
6173.00,1.11
6172.00,1.11
6171.00,1.11
6170.00,1.11
6169.00,1.11
6168.00,1.11
6167.00,1.11
6166.00,1.11
6165.00,1.11
6164.00,1.11
6163.00,1.11
6162.00,1.11
6161.00,1.12
6160.00,1.12
6159.00,1.12
6158.00,1.12
6157.00,1.12
6156.00,1.12
6155.00,1.12
6154.00,1.12
6153.00,1.12
6152.00,1.12
6151.00,1.13
6150.00,1.13
6149.00,1.13
6148.00,1.13
6147.00,1.13
6146.00,1.13
6145.00,1.13
6144.00,1.14
6143.00,1.14
6142.00,1.14
6141.00,1.14
6140.00,1.14
6139.00,1.14
6138.00,1.14
6137.00,1.14
6136.00,1.14
6135.00,1.15
6134.00,1.15
6133.00,1.15
6132.00,1.15
6131.00,1.15
6130.00,1.15
6129.00,1.15
6128.00,1.15
6127.00,1.15
6126.00,1.15
6125.00,1.16
6124.00,1.16
6123.00,1.16
6122.00,1.16
6121.00,1.16
6120.00,1.16
6119.00,1.16
6118.00,1.16
6117.00,1.16
6116.00,1.16
6115.00,1.16
6114.00,1.16
6113.00,1.16
6112.00,1.16
6111.00,1.16
6110.00,1.17
6109.00,1.17
6108.00,1.17
6107.00,1.17
6106.00,1.17
6105.00,1.17
6104.00,1.17
6103.00,1.17
6102.00,1.17
6101.00,1.17
6100.00,1.17
6099.00,1.17
6098.00,1.18
6097.00,1.18
6096.00,1.18
6095.00,1.18
6094.00,1.18
6093.00,1.18
6092.00,1.18
6091.00,1.18
6090.00,1.18
6089.00,1.18
6088.00,1.18
6087.00,1.18
6086.00,1.18
6085.00,1.18
6084.00,1.19
6083.00,1.19
6082.00,1.19
6081.00,1.19
6080.00,1.19
6079.00,1.19
6078.00,1.19
6077.00,1.19
6076.00,1.19
6075.00,1.19
6074.00,1.19
6073.00,1.19
6072.00,1.19
6071.00,1.19
6070.00,1.20
6069.00,1.20
6068.00,1.20
6067.00,1.20
6066.00,1.20
6065.00,1.20
6064.00,1.20
6063.00,1.20
6062.00,1.20
6061.00,1.21
6060.00,1.21
6059.00,1.21
6058.00,1.21
6057.00,1.21
6056.00,1.21
6055.00,1.21
6054.00,1.21
6053.00,1.21
6052.00,1.21
6051.00,1.21
6050.00,1.22
6049.00,1.22
6048.00,1.22
6047.00,1.22
6046.00,1.22
6045.00,1.22
6044.00,1.22
6043.00,1.22
6042.00,1.22
6041.00,1.22
6040.00,1.22
6039.00,1.22
6038.00,1.22
6037.00,1.22
6036.00,1.22
6035.00,1.22
6034.00,1.22
6033.00,1.22
6032.00,1.22
6031.00,1.22
6030.00,1.22
6029.00,1.22
6028.00,1.22
6027.00,1.22
6026.00,1.22
6025.00,1.22
6024.00,1.22
6023.00,1.22
6022.00,1.22
6021.00,1.22
6020.00,1.22
6019.00,1.22
6018.00,1.22
6017.00,1.22
6016.00,1.22
6015.00,1.22
6014.00,1.22
6013.00,1.22
6012.00,1.22
6011.00,1.22
6010.00,1.22
6009.00,1.22
6008.00,1.22
6007.00,1.22
6006.00,1.22
6005.00,1.22
6004.00,1.22
6003.00,1.22
6002.00,1.22
6001.00,1.22
6000.00,1.22
5999.00,1.22
5998.00,1.22
5997.00,1.22
5996.00,1.22
5995.00,1.22
5994.00,1.22
5993.00,1.22
5992.00,1.21
5991.00,1.21
5990.00,1.21
5989.00,1.21
5988.00,1.21
5987.00,1.21
5986.00,1.21
5985.00,1.20
5984.00,1.20
5983.00,1.20
5982.00,1.20
5981.00,1.19
5980.00,1.19
5979.00,1.19
5978.00,1.19
5977.00,1.18
5976.00,1.18
5975.00,1.18
5974.00,1.17
5973.00,1.17
5972.00,1.17
5971.00,1.16
5970.00,1.16
5969.00,1.15
5968.00,1.15
5967.00,1.15
5966.00,1.14
5965.00,1.14
5964.00,1.13
5963.00,1.13
5962.00,1.12
5961.00,1.12
5960.00,1.11
5959.00,1.11
5958.00,1.10
5957.00,1.10
5956.00,1.09
5955.00,1.09
5954.00,1.08
5953.00,1.08
5952.00,1.07
5951.00,1.07
5950.00,1.06
5949.00,1.06
5948.00,1.06
5947.00,1.06
5946.00,1.05
5945.00,1.05
5944.00,1.05
5943.00,1.05
5942.00,1.04
5941.00,1.04
5940.00,1.04
5939.00,1.04
5938.00,1.04
5937.00,1.04
5936.00,1.04
5935.00,1.04
5934.00,1.04
5933.00,1.04
5932.00,1.03
5931.00,1.03
5930.00,1.03
5929.00,1.03
5928.00,1.03
5927.00,1.03
5926.00,1.03
5925.00,1.03
5924.00,1.03
5923.00,1.02
5922.00,1.02
5921.00,1.02
5920.00,1.02
5919.00,1.02
5918.00,1.02
5917.00,1.01
5916.00,1.01
5915.00,1.01
5914.00,1.01
5913.00,1.01
5912.00,1.00
5911.00,1.00
5910.00,1.00
5909.00,1.00
5908.00,1.00
5907.00,1.00
5906.00,1.00
5905.00,0.99
5904.00,0.99
5903.00,0.99
5902.00,0.99
5901.00,0.99
5900.00,0.99
5899.00,0.99
5898.00,1.00
5897.00,1.00
5896.00,1.00
5895.00,1.00
5894.00,1.00
5893.00,1.00
5892.00,1.00
5891.00,1.01
5890.00,1.01
5889.00,1.01
5888.00,1.01
5887.00,1.02
5886.00,1.02
5885.00,1.02
5884.00,1.02
5883.00,1.03
5882.00,1.03
5881.00,1.03
5880.00,1.03
5879.00,1.03
5878.00,1.04
5877.00,1.04
5876.00,1.04
5875.00,1.04
5874.00,1.04
5873.00,1.04
5872.00,1.05
5871.00,1.05
5870.00,1.05
5869.00,1.05
5868.00,1.05
5867.00,1.05
5866.00,1.05
5865.00,1.05
5864.00,1.05
5863.00,1.06
5862.00,1.06
5861.00,1.06
5860.00,1.06
5859.00,1.06
5858.00,1.06
5857.00,1.06
5856.00,1.06
5855.00,1.06
5854.00,1.06
5853.00,1.06
5852.00,1.06
5851.00,1.06
5850.00,1.06
5849.00,1.07
5848.00,1.07
5847.00,1.07
5846.00,1.07
5845.00,1.07
5844.00,1.07
5843.00,1.07
5842.00,1.07
5841.00,1.07
5840.00,1.07
5839.00,1.07
5838.00,1.07
5837.00,1.07
5836.00,1.07
5835.00,1.07
5834.00,1.07
5833.00,1.07
5832.00,1.07
5831.00,1.07
5830.00,1.07
5829.00,1.07
5828.00,1.07
5827.00,1.06
5826.00,1.06
5825.00,1.06
5824.00,1.06
5823.00,1.06
5822.00,1.06
5821.00,1.06
5820.00,1.06
5819.00,1.06
5818.00,1.06
5817.00,1.06
5816.00,1.06
5815.00,1.06
5814.00,1.06
5813.00,1.06
5812.00,1.06
5811.00,1.06
5810.00,1.06
5809.00,1.06
5808.00,1.06
5807.00,1.06
5806.00,1.06
5805.00,1.06
5804.00,1.06
5803.00,1.06
5802.00,1.06
5801.00,1.06
5800.00,1.06
5799.00,1.06
5798.00,1.06
5797.00,1.06
5796.00,1.05
5795.00,1.05
5794.00,1.05
5793.00,1.05
5792.00,1.05
5791.00,1.05
5790.00,1.05
5789.00,1.05
5788.00,1.04
5787.00,1.04
5786.00,1.04
5785.00,1.04
5784.00,1.04
5783.00,1.04
5782.00,1.04
5781.00,1.04
5780.00,1.04
5779.00,1.03
5778.00,1.03
5777.00,1.03
5776.00,1.03
5775.00,1.03
5774.00,1.03
5773.00,1.03
5772.00,1.03
5771.00,1.03
5770.00,1.03
5769.00,1.03
5768.00,1.03
5767.00,1.04
5766.00,1.04
5765.00,1.04
5764.00,1.04
5763.00,1.04
5762.00,1.04
5761.00,1.04
5760.00,1.05
5759.00,1.05
5758.00,1.05
5757.00,1.05
5756.00,1.06
5755.00,1.06
5754.00,1.06
5753.00,1.06
5752.00,1.07
5751.00,1.07
5750.00,1.07
5749.00,1.07
5748.00,1.07
5747.00,1.08
5746.00,1.08
5745.00,1.08
5744.00,1.08
5743.00,1.09
5742.00,1.09
5741.00,1.09
5740.00,1.09
5739.00,1.09
5738.00,1.10
5737.00,1.10
5736.00,1.10
5735.00,1.10
5734.00,1.10
5733.00,1.10
5732.00,1.10
5731.00,1.11
5730.00,1.11
5729.00,1.11
5728.00,1.11
5727.00,1.11
5726.00,1.11
5725.00,1.11
5724.00,1.11
5723.00,1.11
5722.00,1.11
5721.00,1.11
5720.00,1.11
5719.00,1.11
5718.00,1.11
5717.00,1.11
5716.00,1.11
5715.00,1.11
5714.00,1.11
5713.00,1.11
5712.00,1.11
5711.00,1.11
5710.00,1.11
5709.00,1.11
5708.00,1.11
5707.00,1.11
5706.00,1.11
5705.00,1.11
5704.00,1.11
5703.00,1.11
5702.00,1.11
5701.00,1.11
5700.00,1.11
5699.00,1.11
5698.00,1.10
5697.00,1.10
5696.00,1.10
5695.00,1.10
5694.00,1.10
5693.00,1.10
5692.00,1.10
5691.00,1.10
5690.00,1.10
5689.00,1.10
5688.00,1.09
5687.00,1.09
5686.00,1.09
5685.00,1.09
5684.00,1.09
5683.00,1.09
5682.00,1.09
5681.00,1.09
5680.00,1.09
5679.00,1.09
5678.00,1.09
5677.00,1.08
5676.00,1.08
5675.00,1.08
5674.00,1.08
5673.00,1.08
5672.00,1.08
5671.00,1.08
5670.00,1.08
5669.00,1.08
5668.00,1.08
5667.00,1.08
5666.00,1.08
5665.00,1.08
5664.00,1.09
5663.00,1.09
5662.00,1.09
5661.00,1.09
5660.00,1.09
5659.00,1.09
5658.00,1.09
5657.00,1.09
5656.00,1.10
5655.00,1.10
5654.00,1.10
5653.00,1.10
5652.00,1.10
5651.00,1.10
5650.00,1.11
5649.00,1.11
5648.00,1.11
5647.00,1.11
5646.00,1.11
5645.00,1.11
5644.00,1.12
5643.00,1.12
5642.00,1.12
5641.00,1.12
5640.00,1.12
5639.00,1.12
5638.00,1.12
5637.00,1.12
5636.00,1.12
5635.00,1.13
5634.00,1.13
5633.00,1.13
5632.00,1.13
5631.00,1.13
5630.00,1.13
5629.00,1.13
5628.00,1.13
5627.00,1.13
5626.00,1.13
5625.00,1.14
5624.00,1.14
5623.00,1.14
5622.00,1.14
5621.00,1.14
5620.00,1.14
5619.00,1.14
5618.00,1.14
5617.00,1.15
5616.00,1.15
5615.00,1.15
5614.00,1.15
5613.00,1.15
5612.00,1.15
5611.00,1.15
5610.00,1.15
5609.00,1.15
5608.00,1.15
5607.00,1.15
5606.00,1.16
5605.00,1.16
5604.00,1.16
5603.00,1.16
5602.00,1.16
5601.00,1.16
5600.00,1.16
5599.00,1.16
5598.00,1.16
5597.00,1.16
5596.00,1.17
5595.00,1.17
5594.00,1.17
5593.00,1.17
5592.00,1.17
5591.00,1.17
5590.00,1.17
5589.00,1.17
5588.00,1.17
5587.00,1.17
5586.00,1.18
5585.00,1.18
5584.00,1.18
5583.00,1.18
5582.00,1.18
5581.00,1.18
5580.00,1.18
5579.00,1.18
5578.00,1.18
5577.00,1.18
5576.00,1.19
5575.00,1.19
5574.00,1.19
5573.00,1.19
5572.00,1.19
5571.00,1.19
5570.00,1.19
5569.00,1.19
5568.00,1.19
5567.00,1.19
5566.00,1.20
5565.00,1.20
5564.00,1.20
5563.00,1.20
5562.00,1.20
5561.00,1.20
5560.00,1.20
5559.00,1.20
5558.00,1.20
5557.00,1.20
5556.00,1.20
5555.00,1.20
5554.00,1.20
5553.00,1.21
5552.00,1.21
5551.00,1.21
5550.00,1.21
5549.00,1.21
5548.00,1.21
5547.00,1.21
5546.00,1.21
5545.00,1.21
5544.00,1.21
5543.00,1.21
5542.00,1.21
5541.00,1.21
5540.00,1.22
5539.00,1.22
5538.00,1.22
5537.00,1.22
5536.00,1.22
5535.00,1.22
5534.00,1.22
5533.00,1.22
5532.00,1.22
5531.00,1.22
5530.00,1.22
5529.00,1.22
5528.00,1.22
5527.00,1.23
5526.00,1.23
5525.00,1.23
5524.00,1.23
5523.00,1.23
5522.00,1.23
5521.00,1.23
5520.00,1.23
5519.00,1.23
5518.00,1.23
5517.00,1.23
5516.00,1.23
5515.00,1.23
5514.00,1.23
5513.00,1.23
5512.00,1.23
5511.00,1.23
5510.00,1.23
5509.00,1.23
5508.00,1.23
5507.00,1.23
5506.00,1.23
5505.00,1.23
5504.00,1.23
5503.00,1.23
5502.00,1.23
5501.00,1.23
5500.00,1.23
5499.00,1.23
5498.00,1.23
5497.00,1.23
5496.00,1.23
5495.00,1.23
5494.00,1.23
5493.00,1.23
5492.00,1.24
5491.00,1.24
5490.00,1.24
5489.00,1.24
5488.00,1.24
5487.00,1.24
5486.00,1.24
5485.00,1.24
5484.00,1.24
5483.00,1.24
5482.00,1.25
5481.00,1.25
5480.00,1.25
5479.00,1.25
5478.00,1.25
5477.00,1.25
5476.00,1.25
5475.00,1.25
5474.00,1.25
5473.00,1.25
5472.00,1.25
5471.00,1.25
5470.00,1.25
5469.00,1.25
5468.00,1.25
5467.00,1.26
5466.00,1.26
5465.00,1.26
5464.00,1.26
5463.00,1.26
5462.00,1.26
5461.00,1.26
5460.00,1.26
5459.00,1.26
5458.00,1.26
5457.00,1.26
5456.00,1.26
5455.00,1.26
5454.00,1.26
5453.00,1.26
5452.00,1.26
5451.00,1.26
5450.00,1.26
5449.00,1.26
5448.00,1.26
5447.00,1.26
5446.00,1.26
5445.00,1.26
5444.00,1.26
5443.00,1.26
5442.00,1.26
5441.00,1.26
5440.00,1.26
5439.00,1.26
5438.00,1.26
5437.00,1.26
5436.00,1.26
5435.00,1.26
5434.00,1.26
5433.00,1.26
5432.00,1.26
5431.00,1.26
5430.00,1.26
5429.00,1.26
5428.00,1.26
5427.00,1.26
5426.00,1.26
5425.00,1.26
5424.00,1.26
5423.00,1.26
5422.00,1.26
5421.00,1.26
5420.00,1.26
5419.00,1.26
5418.00,1.26
5417.00,1.26
5416.00,1.26
5415.00,1.26
5414.00,1.26
5413.00,1.26
5412.00,1.26
5411.00,1.26
5410.00,1.26
5409.00,1.26
5408.00,1.26
5407.00,1.26
5406.00,1.26
5405.00,1.26
5404.00,1.26
5403.00,1.26
5402.00,1.26
5401.00,1.26
5400.00,1.26
5399.00,1.26
5398.00,1.26
5397.00,1.26
5396.00,1.26
5395.00,1.26
5394.00,1.26
5393.00,1.26
5392.00,1.26
5391.00,1.26
5390.00,1.26
5389.00,1.25
5388.00,1.25
5387.00,1.25
5386.00,1.25
5385.00,1.25
5384.00,1.25
5383.00,1.24
5382.00,1.24
5381.00,1.24
5380.00,1.24
5379.00,1.24
5378.00,1.23
5377.00,1.23
5376.00,1.23
5375.00,1.23
5374.00,1.22
5373.00,1.22
5372.00,1.22
5371.00,1.21
5370.00,1.21
5369.00,1.21
5368.00,1.21
5367.00,1.20
5366.00,1.20
5365.00,1.19
5364.00,1.19
5363.00,1.19
5362.00,1.18
5361.00,1.18
5360.00,1.17
5359.00,1.17
5358.00,1.16
5357.00,1.16
5356.00,1.15
5355.00,1.14
5354.00,1.14
5353.00,1.13
5352.00,1.12
5351.00,1.12
5350.00,1.11
5349.00,1.10
5348.00,1.10
5347.00,1.09
5346.00,1.08
5345.00,1.08
5344.00,1.07
5343.00,1.06
5342.00,1.05
5341.00,1.05
5340.00,1.04
5339.00,1.03
5338.00,1.02
5337.00,1.02
5336.00,1.01
5335.00,1.00
5334.00,0.99
5333.00,0.99
5332.00,0.98
5331.00,0.97
5330.00,0.96
5329.00,0.96
5328.00,0.95
5327.00,0.94
5326.00,0.93
5325.00,0.92
5324.00,0.92
5323.00,0.91
5322.00,0.90
5321.00,0.89
5320.00,0.89
5319.00,0.88
5318.00,0.87
5317.00,0.86
5316.00,0.85
5315.00,0.85
5314.00,0.84
5313.00,0.83
5312.00,0.82
5311.00,0.81
5310.00,0.81
5309.00,0.80
5308.00,0.79
5307.00,0.78
5306.00,0.78
5305.00,0.77
5304.00,0.76
5303.00,0.76
5302.00,0.75
5301.00,0.74
5300.00,0.74
5299.00,0.73
5298.00,0.73
5297.00,0.72
5296.00,0.72
5295.00,0.72
5294.00,0.71
5293.00,0.71
5292.00,0.70
5291.00,0.70
5290.00,0.70
5289.00,0.69
5288.00,0.69
5287.00,0.69
5286.00,0.69
5285.00,0.68
5284.00,0.68
5283.00,0.68
5282.00,0.68
5281.00,0.68
5280.00,0.67
5279.00,0.67
5278.00,0.67
5277.00,0.67
5276.00,0.67
5275.00,0.67
5274.00,0.67
5273.00,0.66
5272.00,0.66
5271.00,0.66
5270.00,0.66
5269.00,0.66
5268.00,0.66
5267.00,0.66
5266.00,0.65
5265.00,0.65
5264.00,0.65
5263.00,0.65
5262.00,0.65
5261.00,0.65
5260.00,0.65
5259.00,0.65
5258.00,0.65
5257.00,0.65
5256.00,0.64
5255.00,0.64
5254.00,0.64
5253.00,0.64
5252.00,0.64
5251.00,0.64
5250.00,0.64
5249.00,0.64
5248.00,0.64
5247.00,0.64
5246.00,0.64
5245.00,0.64
5244.00,0.64
5243.00,0.64
5242.00,0.64
5241.00,0.64
5240.00,0.64
5239.00,0.64
5238.00,0.64
5237.00,0.64
5236.00,0.64
5235.00,0.64
5234.00,0.64
5233.00,0.64
5232.00,0.64
5231.00,0.64
5230.00,0.64
5229.00,0.64
5228.00,0.64
5227.00,0.64
5226.00,0.64
5225.00,0.64
5224.00,0.64
5223.00,0.64
5222.00,0.64
5221.00,0.64
5220.00,0.64
5219.00,0.64
5218.00,0.64
5217.00,0.64
5216.00,0.64
5215.00,0.64
5214.00,0.64
5213.00,0.64
5212.00,0.64
5211.00,0.64
5210.00,0.64
5209.00,0.64
5208.00,0.64
5207.00,0.64
5206.00,0.64
5205.00,0.64
5204.00,0.64
5203.00,0.64
5202.00,0.65
5201.00,0.65
5200.00,0.65
5199.00,0.65
5198.00,0.65
5197.00,0.65
5196.00,0.65
5195.00,0.65
5194.00,0.65
5193.00,0.65
5192.00,0.65
5191.00,0.65
5190.00,0.65
5189.00,0.65
5188.00,0.65
5187.00,0.65
5186.00,0.65
5185.00,0.65
5184.00,0.65
5183.00,0.66
5182.00,0.66
5181.00,0.66
5180.00,0.66
5179.00,0.66
5178.00,0.66
5177.00,0.66
5176.00,0.66
5175.00,0.66
5174.00,0.66
5173.00,0.66
5172.00,0.66
5171.00,0.66
5170.00,0.66
5169.00,0.66
5168.00,0.66
5167.00,0.66
5166.00,0.66
5165.00,0.66
5164.00,0.66
5163.00,0.66
5162.00,0.66
5161.00,0.66
5160.00,0.66
5159.00,0.66
5158.00,0.66
5157.00,0.66
5156.00,0.66
5155.00,0.66
5154.00,0.66
5153.00,0.66
5152.00,0.67
5151.00,0.67
5150.00,0.67
5149.00,0.67
5148.00,0.67
5147.00,0.67
5146.00,0.67
5145.00,0.67
5144.00,0.67
5143.00,0.67
5142.00,0.67
5141.00,0.67
5140.00,0.67
5139.00,0.67
5138.00,0.67
5137.00,0.68
5136.00,0.68
5135.00,0.68
5134.00,0.68
5133.00,0.68
5132.00,0.68
5131.00,0.68
5130.00,0.68
5129.00,0.68
5128.00,0.68
5127.00,0.68
5126.00,0.68
5125.00,0.68
5124.00,0.68
5123.00,0.68
5122.00,0.68
5121.00,0.68
5120.00,0.69
5119.00,0.69
5118.00,0.69
5117.00,0.69
5116.00,0.69
5115.00,0.69
5114.00,0.69
5113.00,0.69
5112.00,0.69
5111.00,0.69
5110.00,0.69
5109.00,0.69
5108.00,0.69
5107.00,0.69
5106.00,0.69
5105.00,0.69
5104.00,0.70
5103.00,0.70
5102.00,0.70
5101.00,0.70
5100.00,0.70
5099.00,0.70
5098.00,0.70
5097.00,0.70
5096.00,0.70
5095.00,0.70
5094.00,0.70
5093.00,0.70
5092.00,0.70
5091.00,0.70
5090.00,0.70
5089.00,0.70
5088.00,0.70
5087.00,0.70
5086.00,0.70
5085.00,0.70
5084.00,0.71
5083.00,0.71
5082.00,0.71
5081.00,0.71
5080.00,0.71
5079.00,0.71
5078.00,0.71
5077.00,0.71
5076.00,0.71
5075.00,0.71
5074.00,0.71
5073.00,0.71
5072.00,0.71
5071.00,0.71
5070.00,0.71
5069.00,0.72
5068.00,0.72
5067.00,0.72
5066.00,0.72
5065.00,0.72
5064.00,0.72
5063.00,0.72
5062.00,0.72
5061.00,0.72
5060.00,0.72
5059.00,0.72
5058.00,0.72
5057.00,0.72
5056.00,0.72
5055.00,0.72
5054.00,0.72
5053.00,0.72
5052.00,0.72
5051.00,0.73
5050.00,0.73
5049.00,0.73
5048.00,0.73
5047.00,0.73
5046.00,0.73
5045.00,0.73
5044.00,0.73
5043.00,0.73
5042.00,0.73
5041.00,0.73
5040.00,0.74
5039.00,0.74
5038.00,0.74
5037.00,0.74
5036.00,0.74
5035.00,0.74
5034.00,0.74
5033.00,0.74
5032.00,0.74
5031.00,0.74
5030.00,0.74
5029.00,0.74
5028.00,0.75
5027.00,0.75
5026.00,0.75
5025.00,0.75
5024.00,0.75
5023.00,0.75
5022.00,0.75
5021.00,0.75
5020.00,0.75
5019.00,0.75
5018.00,0.76
5017.00,0.76
5016.00,0.76
5015.00,0.76
5014.00,0.76
5013.00,0.76
5012.00,0.76
5011.00,0.76
5010.00,0.76
5009.00,0.76
5008.00,0.76
5007.00,0.77
5006.00,0.77
5005.00,0.77
5004.00,0.77
5003.00,0.77
5002.00,0.77
5001.00,0.77
5000.00,0.77
4999.00,0.77
4998.00,0.77
4997.00,0.78
4996.00,0.78
4995.00,0.78
4994.00,0.78
4993.00,0.78
4992.00,0.78
4991.00,0.78
4990.00,0.78
4989.00,0.78
4988.00,0.78
4987.00,0.79
4986.00,0.79
4985.00,0.79
4984.00,0.79
4983.00,0.79
4982.00,0.79
4981.00,0.79
4980.00,0.79
4979.00,0.79
4978.00,0.80
4977.00,0.80
4976.00,0.80
4975.00,0.80
4974.00,0.80
4973.00,0.80
4972.00,0.80
4971.00,0.80
4970.00,0.80
4969.00,0.80
4968.00,0.81
4967.00,0.81
4966.00,0.81
4965.00,0.81
4964.00,0.81
4963.00,0.81
4962.00,0.81
4961.00,0.81
4960.00,0.81
4959.00,0.81
4958.00,0.81
4957.00,0.81
4956.00,0.82
4955.00,0.82
4954.00,0.82
4953.00,0.82
4952.00,0.82
4951.00,0.82
4950.00,0.82
4949.00,0.82
4948.00,0.82
4947.00,0.82
4946.00,0.82
4945.00,0.83
4944.00,0.83
4943.00,0.83
4942.00,0.83
4941.00,0.83
4940.00,0.83
4939.00,0.83
4938.00,0.83
4937.00,0.83
4936.00,0.83
4935.00,0.83
4934.00,0.84
4933.00,0.84
4932.00,0.84
4931.00,0.84
4930.00,0.84
4929.00,0.84
4928.00,0.84
4927.00,0.84
4926.00,0.84
4925.00,0.84
4924.00,0.84
4923.00,0.84
4922.00,0.84
4921.00,0.85
4920.00,0.85
4919.00,0.85
4918.00,0.85
4917.00,0.85
4916.00,0.85
4915.00,0.85
4914.00,0.85
4913.00,0.85
4912.00,0.85
4911.00,0.85
4910.00,0.86
4909.00,0.86
4908.00,0.86
4907.00,0.86
4906.00,0.86
4905.00,0.86
4904.00,0.86
4903.00,0.86
4902.00,0.86
4901.00,0.86
4900.00,0.86
4899.00,0.87
4898.00,0.87
4897.00,0.87
4896.00,0.87
4895.00,0.87
4894.00,0.87
4893.00,0.87
4892.00,0.87
4891.00,0.87
4890.00,0.87
4889.00,0.87
4888.00,0.87
4887.00,0.87
4886.00,0.87
4885.00,0.87
4884.00,0.87
4883.00,0.87
4882.00,0.87
4881.00,0.87
4880.00,0.87
4879.00,0.87
4878.00,0.87
4877.00,0.87
4876.00,0.88
4875.00,0.88
4874.00,0.88
4873.00,0.88
4872.00,0.88
4871.00,0.88
4870.00,0.88
4869.00,0.88
4868.00,0.88
4867.00,0.88
4866.00,0.88
4865.00,0.88
4864.00,0.88
4863.00,0.88
4862.00,0.88
4861.00,0.88
4860.00,0.89
4859.00,0.89
4858.00,0.89
4857.00,0.89
4856.00,0.89
4855.00,0.89
4854.00,0.89
4853.00,0.89
4852.00,0.89
4851.00,0.89
4850.00,0.89
4849.00,0.89
4848.00,0.89
4847.00,0.89
4846.00,0.89
4845.00,0.89
4844.00,0.89
4843.00,0.89
4842.00,0.89
4841.00,0.89
4840.00,0.89
4839.00,0.90
4838.00,0.90
4837.00,0.90
4836.00,0.90
4835.00,0.90
4834.00,0.90
4833.00,0.90
4832.00,0.90
4831.00,0.90
4830.00,0.90
4829.00,0.90
4828.00,0.90
4827.00,0.91
4826.00,0.91
4825.00,0.91
4824.00,0.91
4823.00,0.91
4822.00,0.91
4821.00,0.91
4820.00,0.91
4819.00,0.91
4818.00,0.92
4817.00,0.92
4816.00,0.92
4815.00,0.92
4814.00,0.92
4813.00,0.92
4812.00,0.92
4811.00,0.92
4810.00,0.92
4809.00,0.92
4808.00,0.92
4807.00,0.92
4806.00,0.92
4805.00,0.92
4804.00,0.92
4803.00,0.93
4802.00,0.93
4801.00,0.93
4800.00,0.93
4799.00,0.93
4798.00,0.93
4797.00,0.93
4796.00,0.93
4795.00,0.94
4794.00,0.94
4793.00,0.94
4792.00,0.94
4791.00,0.94
4790.00,0.94
4789.00,0.95
4788.00,0.95
4787.00,0.95
4786.00,0.95
4785.00,0.95
4784.00,0.96
4783.00,0.96
4782.00,0.96
4781.00,0.96
4780.00,0.96
4779.00,0.96
4778.00,0.96
4777.00,0.96
4776.00,0.97
4775.00,0.97
4774.00,0.97
4773.00,0.97
4772.00,0.97
4771.00,0.97
4770.00,0.97
4769.00,0.97
4768.00,0.97
4767.00,0.97
4766.00,0.97
4765.00,0.97
4764.00,0.98
4763.00,0.98
4762.00,0.98
4761.00,0.98
4760.00,0.98
4759.00,0.98
4758.00,0.98
4757.00,0.99
4756.00,0.99
4755.00,0.99
4754.00,0.99
4753.00,0.99
4752.00,0.99
4751.00,1.00
4750.00,1.00
4749.00,1.00
4748.00,1.00
4747.00,1.00
4746.00,1.00
4745.00,1.00
4744.00,1.01
4743.00,1.01
4742.00,1.01
4741.00,1.01
4740.00,1.01
4739.00,1.01
4738.00,1.01
4737.00,1.02
4736.00,1.02
4735.00,1.02
4734.00,1.02
4733.00,1.02
4732.00,1.03
4731.00,1.03
4730.00,1.03
4729.00,1.03
4728.00,1.04
4727.00,1.04
4726.00,1.04
4725.00,1.04
4724.00,1.04
4723.00,1.05
4722.00,1.05
4721.00,1.05
4720.00,1.05
4719.00,1.05
4718.00,1.06
4717.00,1.06
4716.00,1.06
4715.00,1.06
4714.00,1.06
4713.00,1.07
4712.00,1.07
4711.00,1.07
4710.00,1.07
4709.00,1.07
4708.00,1.07
4707.00,1.08
4706.00,1.08
4705.00,1.08
4704.00,1.08
4703.00,1.08
4702.00,1.08
4701.00,1.09
4700.00,1.09
4699.00,1.09
4698.00,1.09
4697.00,1.09
4696.00,1.09
4695.00,1.09
4694.00,1.10
4693.00,1.10
4692.00,1.10
4691.00,1.10
4690.00,1.10
4689.00,1.10
4688.00,1.10
4687.00,1.10
4686.00,1.10
4685.00,1.11
4684.00,1.11
4683.00,1.11
4682.00,1.11
4681.00,1.11
4680.00,1.11
4679.00,1.11
4678.00,1.12
4677.00,1.12
4676.00,1.12
4675.00,1.12
4674.00,1.12
4673.00,1.13
4672.00,1.13
4671.00,1.13
4670.00,1.13
4669.00,1.13
4668.00,1.13
4667.00,1.14
4666.00,1.14
4665.00,1.14
4664.00,1.14
4663.00,1.14
4662.00,1.14
4661.00,1.14
4660.00,1.14
4659.00,1.14
4658.00,1.15
4657.00,1.15
4656.00,1.15
4655.00,1.15
4654.00,1.15
4653.00,1.15
4652.00,1.15
4651.00,1.15
4650.00,1.15
4649.00,1.15
4648.00,1.15
4647.00,1.15
4646.00,1.16
4645.00,1.16
4644.00,1.16
4643.00,1.16
4642.00,1.16
4641.00,1.16
4640.00,1.16
4639.00,1.16
4638.00,1.16
4637.00,1.17
4636.00,1.17
4635.00,1.17
4634.00,1.17
4633.00,1.17
4632.00,1.17
4631.00,1.17
4630.00,1.17
4629.00,1.18
4628.00,1.18
4627.00,1.18
4626.00,1.18
4625.00,1.18
4624.00,1.18
4623.00,1.18
4622.00,1.18
4621.00,1.18
4620.00,1.18
4619.00,1.19
4618.00,1.19
4617.00,1.19
4616.00,1.19
4615.00,1.19
4614.00,1.19
4613.00,1.19
4612.00,1.19
4611.00,1.19
4610.00,1.20
4609.00,1.20
4608.00,1.20
4607.00,1.20
4606.00,1.20
4605.00,1.20
4604.00,1.20
4603.00,1.20
4602.00,1.20
4601.00,1.21
4600.00,1.21
4599.00,1.21
4598.00,1.21
4597.00,1.21
4596.00,1.21
4595.00,1.21
4594.00,1.21
4593.00,1.21
4592.00,1.21
4591.00,1.21
4590.00,1.21
4589.00,1.21
4588.00,1.22
4587.00,1.22
4586.00,1.22
4585.00,1.22
4584.00,1.22
4583.00,1.22
4582.00,1.22
4581.00,1.22
4580.00,1.22
4579.00,1.22
4578.00,1.23
4577.00,1.23
4576.00,1.23
4575.00,1.23
4574.00,1.23
4573.00,1.23
4572.00,1.23
4571.00,1.23
4570.00,1.23
4569.00,1.23
4568.00,1.23
4567.00,1.23
4566.00,1.23
4565.00,1.23
4564.00,1.24
4563.00,1.24
4562.00,1.24
4561.00,1.24
4560.00,1.24
4559.00,1.24
4558.00,1.24
4557.00,1.24
4556.00,1.24
4555.00,1.24
4554.00,1.25
4553.00,1.25
4552.00,1.25
4551.00,1.25
4550.00,1.25
4549.00,1.25
4548.00,1.25
4547.00,1.25
4546.00,1.25
4545.00,1.25
4544.00,1.25
4543.00,1.25
4542.00,1.25
4541.00,1.25
4540.00,1.26
4539.00,1.26
4538.00,1.26
4537.00,1.26
4536.00,1.26
4535.00,1.26
4534.00,1.26
4533.00,1.26
4532.00,1.26
4531.00,1.26
4530.00,1.26
4529.00,1.26
4528.00,1.26
4527.00,1.26
4526.00,1.26
4525.00,1.26
4524.00,1.26
4523.00,1.26
4522.00,1.26
4521.00,1.26
4520.00,1.26
4519.00,1.26
4518.00,1.26
4517.00,1.26
4516.00,1.26
4515.00,1.26
4514.00,1.26
4513.00,1.26
4512.00,1.26
4511.00,1.26
4510.00,1.26
4509.00,1.26
4508.00,1.26
4507.00,1.26
4506.00,1.26
4505.00,1.26
4504.00,1.26
4503.00,1.26
4502.00,1.26
4501.00,1.26
4500.00,1.26
4499.00,1.26
4498.00,1.26
4497.00,1.26
4496.00,1.26
4495.00,1.26
4494.00,1.26
4493.00,1.26
4492.00,1.26
4491.00,1.25
4490.00,1.25
4489.00,1.25
4488.00,1.25
4487.00,1.25
4486.00,1.25
4485.00,1.25
4484.00,1.25
4483.00,1.25
4482.00,1.24
4481.00,1.24
4480.00,1.24
4479.00,1.24
4478.00,1.24
4477.00,1.24
4476.00,1.23
4475.00,1.23
4474.00,1.23
4473.00,1.23
4472.00,1.22
4471.00,1.22
4470.00,1.22
4469.00,1.21
4468.00,1.21
4467.00,1.21
4466.00,1.21
4465.00,1.20
4464.00,1.20
4463.00,1.20
4462.00,1.19
4461.00,1.19
4460.00,1.19
4459.00,1.19
4458.00,1.18
4457.00,1.18
4456.00,1.18
4455.00,1.17
4454.00,1.17
4453.00,1.16
4452.00,1.16
4451.00,1.16
4450.00,1.15
4449.00,1.15
4448.00,1.14
4447.00,1.14
4446.00,1.13
4445.00,1.13
4444.00,1.12
4443.00,1.12
4442.00,1.11
4441.00,1.11
4440.00,1.10
4439.00,1.10
4438.00,1.09
4437.00,1.09
4436.00,1.08
4435.00,1.08
4434.00,1.07
4433.00,1.07
4432.00,1.06
4431.00,1.06
4430.00,1.05
4429.00,1.05
4428.00,1.04
4427.00,1.04
4426.00,1.04
4425.00,1.03
4424.00,1.03
4423.00,1.03
4422.00,1.02
4421.00,1.02
4420.00,1.02
4419.00,1.02
4418.00,1.02
4417.00,1.02
4416.00,1.02
4415.00,1.02
4414.00,1.02
4413.00,1.01
4412.00,1.01
4411.00,1.02
4410.00,1.02
4409.00,1.02
4408.00,1.02
4407.00,1.02
4406.00,1.02
4405.00,1.02
4404.00,1.02
4403.00,1.02
4402.00,1.02
4401.00,1.02
4400.00,1.02
4399.00,1.02
4398.00,1.03
4397.00,1.03
4396.00,1.03
4395.00,1.03
4394.00,1.03
4393.00,1.03
4392.00,1.04
4391.00,1.04
4390.00,1.04
4389.00,1.04
4388.00,1.04
4387.00,1.05
4386.00,1.05
4385.00,1.05
4384.00,1.05
4383.00,1.05
4382.00,1.06
4381.00,1.06
4380.00,1.06
4379.00,1.06
4378.00,1.06
4377.00,1.06
4376.00,1.06
4375.00,1.06
4374.00,1.06
4373.00,1.06
4372.00,1.07
4371.00,1.07
4370.00,1.07
4369.00,1.07
4368.00,1.07
4367.00,1.07
4366.00,1.07
4365.00,1.07
4364.00,1.06
4363.00,1.06
4362.00,1.06
4361.00,1.06
4360.00,1.06
4359.00,1.06
4358.00,1.06
4357.00,1.06
4356.00,1.06
4355.00,1.06
4354.00,1.06
4353.00,1.06
4352.00,1.06
4351.00,1.06
4350.00,1.06
4349.00,1.06
4348.00,1.06
4347.00,1.06
4346.00,1.06
4345.00,1.06
4344.00,1.06
4343.00,1.06
4342.00,1.06
4341.00,1.06
4340.00,1.06
4339.00,1.06
4338.00,1.06
4337.00,1.06
4336.00,1.06
4335.00,1.06
4334.00,1.06
4333.00,1.06
4332.00,1.06
4331.00,1.07
4330.00,1.07
4329.00,1.07
4328.00,1.07
4327.00,1.07
4326.00,1.07
4325.00,1.07
4324.00,1.08
4323.00,1.08
4322.00,1.08
4321.00,1.08
4320.00,1.09
4319.00,1.09
4318.00,1.09
4317.00,1.09
4316.00,1.10
4315.00,1.10
4314.00,1.10
4313.00,1.10
4312.00,1.11
4311.00,1.11
4310.00,1.11
4309.00,1.11
4308.00,1.12
4307.00,1.12
4306.00,1.12
4305.00,1.12
4304.00,1.12
4303.00,1.13
4302.00,1.13
4301.00,1.13
4300.00,1.13
4299.00,1.13
4298.00,1.13
4297.00,1.13
4296.00,1.14
4295.00,1.14
4294.00,1.14
4293.00,1.14
4292.00,1.14
4291.00,1.14
4290.00,1.14
4289.00,1.14
4288.00,1.14
4287.00,1.15
4286.00,1.15
4285.00,1.15
4284.00,1.15
4283.00,1.15
4282.00,1.15
4281.00,1.15
4280.00,1.15
4279.00,1.15
4278.00,1.15
4277.00,1.15
4276.00,1.15
4275.00,1.15
4274.00,1.15
4273.00,1.15
4272.00,1.15
4271.00,1.15
4270.00,1.15
4269.00,1.15
4268.00,1.15
4267.00,1.15
4266.00,1.15
4265.00,1.15
4264.00,1.15
4263.00,1.15
4262.00,1.15
4261.00,1.15
4260.00,1.14
4259.00,1.14
4258.00,1.14
4257.00,1.14
4256.00,1.14
4255.00,1.14
4254.00,1.14
4253.00,1.14
4252.00,1.14
4251.00,1.14
4250.00,1.15
4249.00,1.15
4248.00,1.15
4247.00,1.15
4246.00,1.15
4245.00,1.15
4244.00,1.16
4243.00,1.16
4242.00,1.16
4241.00,1.16
4240.00,1.17
4239.00,1.17
4238.00,1.17
4237.00,1.17
4236.00,1.18
4235.00,1.18
4234.00,1.18
4233.00,1.18
4232.00,1.18
4231.00,1.19
4230.00,1.19
4229.00,1.19
4228.00,1.19
4227.00,1.19
4226.00,1.19
4225.00,1.19
4224.00,1.19
4223.00,1.19
4222.00,1.19
4221.00,1.19
4220.00,1.20
4219.00,1.20
4218.00,1.20
4217.00,1.20
4216.00,1.20
4215.00,1.20
4214.00,1.20
4213.00,1.20
4212.00,1.20
4211.00,1.20
4210.00,1.20
4209.00,1.20
4208.00,1.20
4207.00,1.20
4206.00,1.20
4205.00,1.20
4204.00,1.20
4203.00,1.20
4202.00,1.20
4201.00,1.20
4200.00,1.20
4199.00,1.20
4198.00,1.20
4197.00,1.20
4196.00,1.20
4195.00,1.20
4194.00,1.20
4193.00,1.20
4192.00,1.20
4191.00,1.20
4190.00,1.20
4189.00,1.20
4188.00,1.20
4187.00,1.20
4186.00,1.20
4185.00,1.20
4184.00,1.20
4183.00,1.20
4182.00,1.20
4181.00,1.20
4180.00,1.20
4179.00,1.20
4178.00,1.20
4177.00,1.20
4176.00,1.20
4175.00,1.20
4174.00,1.20
4173.00,1.20
4172.00,1.20
4171.00,1.20
4170.00,1.20
4169.00,1.20
4168.00,1.20
4167.00,1.20
4166.00,1.20
4165.00,1.20
4164.00,1.20
4163.00,1.20
4162.00,1.20
4161.00,1.20
4160.00,1.21
4159.00,1.21
4158.00,1.21
4157.00,1.21
4156.00,1.21
4155.00,1.21
4154.00,1.20
4153.00,1.20
4152.00,1.20
4151.00,1.20
4150.00,1.20
4149.00,1.20
4148.00,1.20
4147.00,1.20
4146.00,1.20
4145.00,1.20
4144.00,1.20
4143.00,1.20
4142.00,1.20
4141.00,1.20
4140.00,1.21
4139.00,1.21
4138.00,1.21
4137.00,1.21
4136.00,1.21
4135.00,1.21
4134.00,1.21
4133.00,1.22
4132.00,1.22
4131.00,1.22
4130.00,1.22
4129.00,1.22
4128.00,1.22
4127.00,1.22
4126.00,1.22
4125.00,1.22
4124.00,1.22
4123.00,1.22
4122.00,1.22
4121.00,1.22
4120.00,1.22
4119.00,1.22
4118.00,1.22
4117.00,1.22
4116.00,1.22
4115.00,1.22
4114.00,1.22
4113.00,1.22
4112.00,1.22
4111.00,1.22
4110.00,1.22
4109.00,1.22
4108.00,1.21
4107.00,1.21
4106.00,1.21
4105.00,1.21
4104.00,1.21
4103.00,1.21
4102.00,1.21
4101.00,1.21
4100.00,1.21
4099.00,1.21
4098.00,1.21
4097.00,1.21
4096.00,1.21
4095.00,1.22
4094.00,1.22
4093.00,1.22
4092.00,1.22
4091.00,1.22
4090.00,1.22
4089.00,1.22
4088.00,1.22
4087.00,1.22
4086.00,1.22
4085.00,1.22
4084.00,1.22
4083.00,1.22
4082.00,1.22
4081.00,1.22
4080.00,1.22
4079.00,1.22
4078.00,1.22
4077.00,1.22
4076.00,1.22
4075.00,1.23
4074.00,1.23
4073.00,1.23
4072.00,1.23
4071.00,1.23
4070.00,1.23
4069.00,1.23
4068.00,1.23
4067.00,1.23
4066.00,1.23
4065.00,1.23
4064.00,1.23
4063.00,1.23
4062.00,1.23
4061.00,1.23
4060.00,1.23
4059.00,1.23
4058.00,1.23
4057.00,1.23
4056.00,1.23
4055.00,1.23
4054.00,1.23
4053.00,1.23
4052.00,1.23
4051.00,1.23
4050.00,1.23
4049.00,1.22
4048.00,1.22
4047.00,1.22
4046.00,1.22
4045.00,1.22
4044.00,1.22
4043.00,1.22
4042.00,1.22
4041.00,1.22
4040.00,1.22
4039.00,1.22
4038.00,1.22
4037.00,1.22
4036.00,1.23
4035.00,1.23
4034.00,1.23
4033.00,1.23
4032.00,1.23
4031.00,1.23
4030.00,1.23
4029.00,1.23
4028.00,1.24
4027.00,1.24
4026.00,1.24
4025.00,1.24
4024.00,1.24
4023.00,1.25
4022.00,1.25
4021.00,1.25
4020.00,1.25
4019.00,1.25
4018.00,1.26
4017.00,1.26
4016.00,1.26
4015.00,1.26
4014.00,1.26
4013.00,1.26
4012.00,1.26
4011.00,1.26
4010.00,1.26
4009.00,1.26
4008.00,1.26
4007.00,1.26
4006.00,1.26
4005.00,1.26
4004.00,1.26
4003.00,1.26
4002.00,1.26
4001.00,1.26
4000.00,1.26
