创建为新数据集,样品 600 用户 Administrator 日期 星期一, 七月 16 2018
cm-1,%T
10000.00,1.45
9999.00,1.45
9998.00,1.45
9997.00,1.45
9996.00,1.45
9995.00,1.45
9994.00,1.45
9993.00,1.45
9992.00,1.45
9991.00,1.45
9990.00,1.45
9989.00,1.45
9988.00,1.45
9987.00,1.45
9986.00,1.45
9985.00,1.45
9984.00,1.45
9983.00,1.45
9982.00,1.45
9981.00,1.45
9980.00,1.45
9979.00,1.45
9978.00,1.45
9977.00,1.45
9976.00,1.45
9975.00,1.45
9974.00,1.45
9973.00,1.45
9972.00,1.45
9971.00,1.44
9970.00,1.44
9969.00,1.44
9968.00,1.44
9967.00,1.44
9966.00,1.43
9965.00,1.43
9964.00,1.43
9963.00,1.43
9962.00,1.42
9961.00,1.42
9960.00,1.42
9959.00,1.42
9958.00,1.42
9957.00,1.42
9956.00,1.42
9955.00,1.42
9954.00,1.42
9953.00,1.42
9952.00,1.42
9951.00,1.42
9950.00,1.42
9949.00,1.42
9948.00,1.42
9947.00,1.43
9946.00,1.43
9945.00,1.43
9944.00,1.43
9943.00,1.43
9942.00,1.44
9941.00,1.44
9940.00,1.44
9939.00,1.44
9938.00,1.44
9937.00,1.44
9936.00,1.44
9935.00,1.44
9934.00,1.44
9933.00,1.44
9932.00,1.44
9931.00,1.44
9930.00,1.44
9929.00,1.44
9928.00,1.44
9927.00,1.44
9926.00,1.44
9925.00,1.44
9924.00,1.44
9923.00,1.44
9922.00,1.44
9921.00,1.44
9920.00,1.44
9919.00,1.45
9918.00,1.45
9917.00,1.45
9916.00,1.45
9915.00,1.45
9914.00,1.45
9913.00,1.45
9912.00,1.45
9911.00,1.45
9910.00,1.45
9909.00,1.45
9908.00,1.45
9907.00,1.45
9906.00,1.44
9905.00,1.44
9904.00,1.44
9903.00,1.44
9902.00,1.43
9901.00,1.43
9900.00,1.43
9899.00,1.42
9898.00,1.42
9897.00,1.42
9896.00,1.42
9895.00,1.41
9894.00,1.41
9893.00,1.41
9892.00,1.41
9891.00,1.41
9890.00,1.41
9889.00,1.41
9888.00,1.41
9887.00,1.41
9886.00,1.41
9885.00,1.41
9884.00,1.41
9883.00,1.41
9882.00,1.41
9881.00,1.41
9880.00,1.41
9879.00,1.41
9878.00,1.42
9877.00,1.42
9876.00,1.42
9875.00,1.42
9874.00,1.42
9873.00,1.42
9872.00,1.42
9871.00,1.43
9870.00,1.43
9869.00,1.43
9868.00,1.43
9867.00,1.43
9866.00,1.43
9865.00,1.43
9864.00,1.44
9863.00,1.44
9862.00,1.44
9861.00,1.44
9860.00,1.44
9859.00,1.44
9858.00,1.44
9857.00,1.44
9856.00,1.43
9855.00,1.43
9854.00,1.43
9853.00,1.43
9852.00,1.43
9851.00,1.43
9850.00,1.43
9849.00,1.43
9848.00,1.43
9847.00,1.43
9846.00,1.43
9845.00,1.43
9844.00,1.43
9843.00,1.43
9842.00,1.43
9841.00,1.43
9840.00,1.43
9839.00,1.43
9838.00,1.43
9837.00,1.43
9836.00,1.43
9835.00,1.43
9834.00,1.43
9833.00,1.43
9832.00,1.43
9831.00,1.43
9830.00,1.43
9829.00,1.43
9828.00,1.43
9827.00,1.43
9826.00,1.43
9825.00,1.43
9824.00,1.43
9823.00,1.43
9822.00,1.43
9821.00,1.43
9820.00,1.43
9819.00,1.43
9818.00,1.43
9817.00,1.43
9816.00,1.43
9815.00,1.43
9814.00,1.43
9813.00,1.43
9812.00,1.44
9811.00,1.44
9810.00,1.44
9809.00,1.44
9808.00,1.44
9807.00,1.44
9806.00,1.44
9805.00,1.45
9804.00,1.45
9803.00,1.45
9802.00,1.45
9801.00,1.45
9800.00,1.45
9799.00,1.45
9798.00,1.45
9797.00,1.45
9796.00,1.45
9795.00,1.45
9794.00,1.45
9793.00,1.45
9792.00,1.45
9791.00,1.44
9790.00,1.44
9789.00,1.44
9788.00,1.44
9787.00,1.43
9786.00,1.43
9785.00,1.43
9784.00,1.43
9783.00,1.42
9782.00,1.42
9781.00,1.42
9780.00,1.42
9779.00,1.42
9778.00,1.42
9777.00,1.42
9776.00,1.42
9775.00,1.42
9774.00,1.42
9773.00,1.42
9772.00,1.42
9771.00,1.42
9770.00,1.42
9769.00,1.42
9768.00,1.43
9767.00,1.43
9766.00,1.43
9765.00,1.43
9764.00,1.43
9763.00,1.43
9762.00,1.43
9761.00,1.43
9760.00,1.43
9759.00,1.43
9758.00,1.43
9757.00,1.43
9756.00,1.43
9755.00,1.43
9754.00,1.43
9753.00,1.43
9752.00,1.43
9751.00,1.43
9750.00,1.43
9749.00,1.43
9748.00,1.43
9747.00,1.43
9746.00,1.43
9745.00,1.43
9744.00,1.43
9743.00,1.43
9742.00,1.43
9741.00,1.43
9740.00,1.43
9739.00,1.44
9738.00,1.44
9737.00,1.44
9736.00,1.44
9735.00,1.44
9734.00,1.44
9733.00,1.44
9732.00,1.44
9731.00,1.44
9730.00,1.44
9729.00,1.44
9728.00,1.43
9727.00,1.43
9726.00,1.43
9725.00,1.43
9724.00,1.43
9723.00,1.43
9722.00,1.43
9721.00,1.43
9720.00,1.43
9719.00,1.43
9718.00,1.43
9717.00,1.43
9716.00,1.43
9715.00,1.43
9714.00,1.43
9713.00,1.43
9712.00,1.44
9711.00,1.44
9710.00,1.44
9709.00,1.44
9708.00,1.44
9707.00,1.44
9706.00,1.44
9705.00,1.44
9704.00,1.44
9703.00,1.44
9702.00,1.44
9701.00,1.45
9700.00,1.45
9699.00,1.45
9698.00,1.45
9697.00,1.45
9696.00,1.45
9695.00,1.45
9694.00,1.45
9693.00,1.45
9692.00,1.45
9691.00,1.45
9690.00,1.45
9689.00,1.45
9688.00,1.45
9687.00,1.45
9686.00,1.45
9685.00,1.45
9684.00,1.45
9683.00,1.45
9682.00,1.45
9681.00,1.45
9680.00,1.45
9679.00,1.44
9678.00,1.44
9677.00,1.44
9676.00,1.44
9675.00,1.44
9674.00,1.44
9673.00,1.44
9672.00,1.44
9671.00,1.44
9670.00,1.45
9669.00,1.45
9668.00,1.45
9667.00,1.45
9666.00,1.45
9665.00,1.45
9664.00,1.45
9663.00,1.45
9662.00,1.45
9661.00,1.45
9660.00,1.45
9659.00,1.45
9658.00,1.45
9657.00,1.45
9656.00,1.45
9655.00,1.45
9654.00,1.45
9653.00,1.45
9652.00,1.45
9651.00,1.45
9650.00,1.45
9649.00,1.45
9648.00,1.44
9647.00,1.44
9646.00,1.44
9645.00,1.44
9644.00,1.44
9643.00,1.44
9642.00,1.44
9641.00,1.44
9640.00,1.44
9639.00,1.44
9638.00,1.43
9637.00,1.43
9636.00,1.43
9635.00,1.43
9634.00,1.43
9633.00,1.43
9632.00,1.42
9631.00,1.42
9630.00,1.42
9629.00,1.42
9628.00,1.42
9627.00,1.42
9626.00,1.42
9625.00,1.42
9624.00,1.42
9623.00,1.42
9622.00,1.42
9621.00,1.42
9620.00,1.42
9619.00,1.42
9618.00,1.42
9617.00,1.42
9616.00,1.42
9615.00,1.42
9614.00,1.42
9613.00,1.43
9612.00,1.43
9611.00,1.43
9610.00,1.43
9609.00,1.43
9608.00,1.43
9607.00,1.43
9606.00,1.43
9605.00,1.43
9604.00,1.43
9603.00,1.43
9602.00,1.43
9601.00,1.43
9600.00,1.43
9599.00,1.43
9598.00,1.43
9597.00,1.43
9596.00,1.43
9595.00,1.43
9594.00,1.43
9593.00,1.43
9592.00,1.43
9591.00,1.43
9590.00,1.43
9589.00,1.43
9588.00,1.43
9587.00,1.43
9586.00,1.43
9585.00,1.43
9584.00,1.43
9583.00,1.43
9582.00,1.43
9581.00,1.43
9580.00,1.43
9579.00,1.44
9578.00,1.44
9577.00,1.44
9576.00,1.44
9575.00,1.44
9574.00,1.44
9573.00,1.44
9572.00,1.44
9571.00,1.44
9570.00,1.44
9569.00,1.44
9568.00,1.43
9567.00,1.43
9566.00,1.43
9565.00,1.43
9564.00,1.43
9563.00,1.43
9562.00,1.43
9561.00,1.42
9560.00,1.42
9559.00,1.42
9558.00,1.42
9557.00,1.42
9556.00,1.42
9555.00,1.42
9554.00,1.42
9553.00,1.42
9552.00,1.42
9551.00,1.42
9550.00,1.42
9549.00,1.42
9548.00,1.42
9547.00,1.42
9546.00,1.42
9545.00,1.42
9544.00,1.42
9543.00,1.42
9542.00,1.41
9541.00,1.41
9540.00,1.41
9539.00,1.41
9538.00,1.41
9537.00,1.41
9536.00,1.41
9535.00,1.41
9534.00,1.41
9533.00,1.41
9532.00,1.41
9531.00,1.42
9530.00,1.42
9529.00,1.42
9528.00,1.42
9527.00,1.42
9526.00,1.43
9525.00,1.43
9524.00,1.43
9523.00,1.43
9522.00,1.43
9521.00,1.43
9520.00,1.43
9519.00,1.43
9518.00,1.43
9517.00,1.44
9516.00,1.44
9515.00,1.44
9514.00,1.43
9513.00,1.43
9512.00,1.43
9511.00,1.43
9510.00,1.43
9509.00,1.43
9508.00,1.43
9507.00,1.43
9506.00,1.43
9505.00,1.43
9504.00,1.43
9503.00,1.43
9502.00,1.44
9501.00,1.44
9500.00,1.44
9499.00,1.44
9498.00,1.44
9497.00,1.44
9496.00,1.44
9495.00,1.44
9494.00,1.45
9493.00,1.45
9492.00,1.45
9491.00,1.45
9490.00,1.45
9489.00,1.45
9488.00,1.45
9487.00,1.45
9486.00,1.45
9485.00,1.45
9484.00,1.45
9483.00,1.45
9482.00,1.45
9481.00,1.45
9480.00,1.45
9479.00,1.45
9478.00,1.45
9477.00,1.45
9476.00,1.45
9475.00,1.45
9474.00,1.45
9473.00,1.45
9472.00,1.45
9471.00,1.45
9470.00,1.45
9469.00,1.45
9468.00,1.45
9467.00,1.44
9466.00,1.44
9465.00,1.44
9464.00,1.44
9463.00,1.44
9462.00,1.44
9461.00,1.44
9460.00,1.44
9459.00,1.44
9458.00,1.44
9457.00,1.43
9456.00,1.43
9455.00,1.43
9454.00,1.43
9453.00,1.43
9452.00,1.43
9451.00,1.43
9450.00,1.42
9449.00,1.42
9448.00,1.42
9447.00,1.42
9446.00,1.42
9445.00,1.42
9444.00,1.42
9443.00,1.42
9442.00,1.42
9441.00,1.42
9440.00,1.43
9439.00,1.43
9438.00,1.43
9437.00,1.43
9436.00,1.43
9435.00,1.43
9434.00,1.43
9433.00,1.43
9432.00,1.43
9431.00,1.43
9430.00,1.43
9429.00,1.43
9428.00,1.43
9427.00,1.43
9426.00,1.43
9425.00,1.43
9424.00,1.43
9423.00,1.43
9422.00,1.43
9421.00,1.43
9420.00,1.43
9419.00,1.43
9418.00,1.43
9417.00,1.43
9416.00,1.44
9415.00,1.44
9414.00,1.44
9413.00,1.44
9412.00,1.44
9411.00,1.44
9410.00,1.44
9409.00,1.44
9408.00,1.44
9407.00,1.44
9406.00,1.44
9405.00,1.44
9404.00,1.44
9403.00,1.44
9402.00,1.44
9401.00,1.44
9400.00,1.44
9399.00,1.44
9398.00,1.44
9397.00,1.44
9396.00,1.44
9395.00,1.44
9394.00,1.44
9393.00,1.44
9392.00,1.44
9391.00,1.44
9390.00,1.44
9389.00,1.44
9388.00,1.44
9387.00,1.44
9386.00,1.44
9385.00,1.44
9384.00,1.44
9383.00,1.44
9382.00,1.44
9381.00,1.43
9380.00,1.43
9379.00,1.43
9378.00,1.43
9377.00,1.43
9376.00,1.43
9375.00,1.43
9374.00,1.43
9373.00,1.43
9372.00,1.43
9371.00,1.43
9370.00,1.43
9369.00,1.43
9368.00,1.43
9367.00,1.43
9366.00,1.43
9365.00,1.43
9364.00,1.42
9363.00,1.42
9362.00,1.42
9361.00,1.42
9360.00,1.42
9359.00,1.42
9358.00,1.42
9357.00,1.42
9356.00,1.42
9355.00,1.42
9354.00,1.42
9353.00,1.43
9352.00,1.43
9351.00,1.43
9350.00,1.43
9349.00,1.43
9348.00,1.43
9347.00,1.43
9346.00,1.43
9345.00,1.43
9344.00,1.43
9343.00,1.43
9342.00,1.43
9341.00,1.43
9340.00,1.43
9339.00,1.43
9338.00,1.43
9337.00,1.43
9336.00,1.43
9335.00,1.43
9334.00,1.43
9333.00,1.43
9332.00,1.43
9331.00,1.44
9330.00,1.44
9329.00,1.44
9328.00,1.44
9327.00,1.44
9326.00,1.44
9325.00,1.44
9324.00,1.44
9323.00,1.44
9322.00,1.44
9321.00,1.44
9320.00,1.44
9319.00,1.44
9318.00,1.44
9317.00,1.44
9316.00,1.44
9315.00,1.44
9314.00,1.44
9313.00,1.44
9312.00,1.44
9311.00,1.44
9310.00,1.43
9309.00,1.43
9308.00,1.43
9307.00,1.43
9306.00,1.43
9305.00,1.42
9304.00,1.42
9303.00,1.42
9302.00,1.42
9301.00,1.42
9300.00,1.42
9299.00,1.42
9298.00,1.42
9297.00,1.42
9296.00,1.42
9295.00,1.42
9294.00,1.42
9293.00,1.42
9292.00,1.42
9291.00,1.42
9290.00,1.42
9289.00,1.42
9288.00,1.42
9287.00,1.43
9286.00,1.43
9285.00,1.43
9284.00,1.43
9283.00,1.43
9282.00,1.43
9281.00,1.43
9280.00,1.43
9279.00,1.43
9278.00,1.43
9277.00,1.43
9276.00,1.43
9275.00,1.43
9274.00,1.43
9273.00,1.43
9272.00,1.43
9271.00,1.43
9270.00,1.43
9269.00,1.44
9268.00,1.44
9267.00,1.44
9266.00,1.44
9265.00,1.44
9264.00,1.44
9263.00,1.44
9262.00,1.44
9261.00,1.44
9260.00,1.44
9259.00,1.44
9258.00,1.44
9257.00,1.44
9256.00,1.44
9255.00,1.44
9254.00,1.44
9253.00,1.44
9252.00,1.44
9251.00,1.44
9250.00,1.44
9249.00,1.44
9248.00,1.44
9247.00,1.45
9246.00,1.45
9245.00,1.45
9244.00,1.45
9243.00,1.45
9242.00,1.45
9241.00,1.45
9240.00,1.45
9239.00,1.45
9238.00,1.45
9237.00,1.45
9236.00,1.45
9235.00,1.45
9234.00,1.45
9233.00,1.45
9232.00,1.45
9231.00,1.44
9230.00,1.44
9229.00,1.44
9228.00,1.44
9227.00,1.44
9226.00,1.44
9225.00,1.44
9224.00,1.44
9223.00,1.44
9222.00,1.44
9221.00,1.44
9220.00,1.44
9219.00,1.44
9218.00,1.44
9217.00,1.44
9216.00,1.44
9215.00,1.44
9214.00,1.44
9213.00,1.44
9212.00,1.44
9211.00,1.44
9210.00,1.44
9209.00,1.44
9208.00,1.44
9207.00,1.44
9206.00,1.44
9205.00,1.44
9204.00,1.44
9203.00,1.44
9202.00,1.44
9201.00,1.44
9200.00,1.44
9199.00,1.44
9198.00,1.44
9197.00,1.44
9196.00,1.44
9195.00,1.44
9194.00,1.44
9193.00,1.44
9192.00,1.44
9191.00,1.44
9190.00,1.44
9189.00,1.44
9188.00,1.44
9187.00,1.44
9186.00,1.44
9185.00,1.44
9184.00,1.44
9183.00,1.44
9182.00,1.44
9181.00,1.45
9180.00,1.45
9179.00,1.45
9178.00,1.45
9177.00,1.45
9176.00,1.44
9175.00,1.44
9174.00,1.44
9173.00,1.44
9172.00,1.44
9171.00,1.44
9170.00,1.44
9169.00,1.44
9168.00,1.44
9167.00,1.43
9166.00,1.43
9165.00,1.43
9164.00,1.43
9163.00,1.43
9162.00,1.43
9161.00,1.43
9160.00,1.43
9159.00,1.43
9158.00,1.43
9157.00,1.43
9156.00,1.43
9155.00,1.44
9154.00,1.44
9153.00,1.44
9152.00,1.44
9151.00,1.44
9150.00,1.45
9149.00,1.45
9148.00,1.45
9147.00,1.45
9146.00,1.45
9145.00,1.45
9144.00,1.45
9143.00,1.45
9142.00,1.45
9141.00,1.45
9140.00,1.45
9139.00,1.45
9138.00,1.45
9137.00,1.45
9136.00,1.45
9135.00,1.45
9134.00,1.45
9133.00,1.45
9132.00,1.45
9131.00,1.45
9130.00,1.45
9129.00,1.45
9128.00,1.45
9127.00,1.45
9126.00,1.45
9125.00,1.44
9124.00,1.44
9123.00,1.44
9122.00,1.44
9121.00,1.44
9120.00,1.44
9119.00,1.44
9118.00,1.44
9117.00,1.44
9116.00,1.44
9115.00,1.43
9114.00,1.43
9113.00,1.43
9112.00,1.43
9111.00,1.43
9110.00,1.43
9109.00,1.43
9108.00,1.43
9107.00,1.43
9106.00,1.42
9105.00,1.42
9104.00,1.42
9103.00,1.42
9102.00,1.42
9101.00,1.42
9100.00,1.42
9099.00,1.42
9098.00,1.42
9097.00,1.42
9096.00,1.42
9095.00,1.42
9094.00,1.42
9093.00,1.42
9092.00,1.42
9091.00,1.43
9090.00,1.43
9089.00,1.43
9088.00,1.43
9087.00,1.43
9086.00,1.43
9085.00,1.43
9084.00,1.43
9083.00,1.43
9082.00,1.43
9081.00,1.43
9080.00,1.43
9079.00,1.43
9078.00,1.44
9077.00,1.44
9076.00,1.44
9075.00,1.44
9074.00,1.44
9073.00,1.43
9072.00,1.43
9071.00,1.43
9070.00,1.43
9069.00,1.43
9068.00,1.43
9067.00,1.43
9066.00,1.43
9065.00,1.43
9064.00,1.43
9063.00,1.43
9062.00,1.43
9061.00,1.43
9060.00,1.43
9059.00,1.43
9058.00,1.43
9057.00,1.43
9056.00,1.43
9055.00,1.44
9054.00,1.44
9053.00,1.44
9052.00,1.44
9051.00,1.44
9050.00,1.44
9049.00,1.44
9048.00,1.44
9047.00,1.44
9046.00,1.45
9045.00,1.45
9044.00,1.45
9043.00,1.45
9042.00,1.45
9041.00,1.45
9040.00,1.45
9039.00,1.45
9038.00,1.45
9037.00,1.45
9036.00,1.45
9035.00,1.45
9034.00,1.45
9033.00,1.45
9032.00,1.45
9031.00,1.45
9030.00,1.45
9029.00,1.45
9028.00,1.45
9027.00,1.45
9026.00,1.45
9025.00,1.45
9024.00,1.45
9023.00,1.45
9022.00,1.45
9021.00,1.45
9020.00,1.45
9019.00,1.45
9018.00,1.45
9017.00,1.45
9016.00,1.45
9015.00,1.45
9014.00,1.45
9013.00,1.45
9012.00,1.45
9011.00,1.45
9010.00,1.45
9009.00,1.45
9008.00,1.45
9007.00,1.45
9006.00,1.45
9005.00,1.45
9004.00,1.45
9003.00,1.45
9002.00,1.45
9001.00,1.45
9000.00,1.44
8999.00,1.44
8998.00,1.44
8997.00,1.44
8996.00,1.44
8995.00,1.44
8994.00,1.44
8993.00,1.44
8992.00,1.44
8991.00,1.44
8990.00,1.44
8989.00,1.44
8988.00,1.44
8987.00,1.44
8986.00,1.44
8985.00,1.44
8984.00,1.44
8983.00,1.44
8982.00,1.44
8981.00,1.44
8980.00,1.44
8979.00,1.44
8978.00,1.44
8977.00,1.44
8976.00,1.44
8975.00,1.44
8974.00,1.44
8973.00,1.44
8972.00,1.44
8971.00,1.45
8970.00,1.45
8969.00,1.45
8968.00,1.45
8967.00,1.45
8966.00,1.45
8965.00,1.45
8964.00,1.44
8963.00,1.44
8962.00,1.44
8961.00,1.44
8960.00,1.44
8959.00,1.44
8958.00,1.44
8957.00,1.44
8956.00,1.44
8955.00,1.44
8954.00,1.44
8953.00,1.44
8952.00,1.44
8951.00,1.44
8950.00,1.44
8949.00,1.44
8948.00,1.44
8947.00,1.44
8946.00,1.44
8945.00,1.44
8944.00,1.44
8943.00,1.44
8942.00,1.44
8941.00,1.44
8940.00,1.44
8939.00,1.44
8938.00,1.44
8937.00,1.44
8936.00,1.44
8935.00,1.43
8934.00,1.43
8933.00,1.43
8932.00,1.43
8931.00,1.43
8930.00,1.43
8929.00,1.43
8928.00,1.43
8927.00,1.43
8926.00,1.43
8925.00,1.43
8924.00,1.43
8923.00,1.43
8922.00,1.43
8921.00,1.43
8920.00,1.43
8919.00,1.43
8918.00,1.43
8917.00,1.43
8916.00,1.43
8915.00,1.43
8914.00,1.43
8913.00,1.44
8912.00,1.44
8911.00,1.44
8910.00,1.44
8909.00,1.44
8908.00,1.44
8907.00,1.44
8906.00,1.45
8905.00,1.45
8904.00,1.45
8903.00,1.45
8902.00,1.45
8901.00,1.45
8900.00,1.45
8899.00,1.45
8898.00,1.45
8897.00,1.45
8896.00,1.45
8895.00,1.45
8894.00,1.44
8893.00,1.44
8892.00,1.44
8891.00,1.44
8890.00,1.44
8889.00,1.44
8888.00,1.43
8887.00,1.43
8886.00,1.43
8885.00,1.43
8884.00,1.43
8883.00,1.43
8882.00,1.43
8881.00,1.43
8880.00,1.43
8879.00,1.43
8878.00,1.43
8877.00,1.43
8876.00,1.43
8875.00,1.43
8874.00,1.43
8873.00,1.44
8872.00,1.44
8871.00,1.44
8870.00,1.44
8869.00,1.44
8868.00,1.44
8867.00,1.44
8866.00,1.44
8865.00,1.44
8864.00,1.45
8863.00,1.45
8862.00,1.45
8861.00,1.45
8860.00,1.45
8859.00,1.45
8858.00,1.44
8857.00,1.44
8856.00,1.44
8855.00,1.44
8854.00,1.44
8853.00,1.44
8852.00,1.44
8851.00,1.44
8850.00,1.44
8849.00,1.43
8848.00,1.43
8847.00,1.43
8846.00,1.43
8845.00,1.43
8844.00,1.43
8843.00,1.43
8842.00,1.42
8841.00,1.42
8840.00,1.42
8839.00,1.42
8838.00,1.42
8837.00,1.42
8836.00,1.42
8835.00,1.42
8834.00,1.42
8833.00,1.42
8832.00,1.42
8831.00,1.42
8830.00,1.42
8829.00,1.42
8828.00,1.42
8827.00,1.42
8826.00,1.42
8825.00,1.42
8824.00,1.42
8823.00,1.42
8822.00,1.42
8821.00,1.42
8820.00,1.42
8819.00,1.42
8818.00,1.42
8817.00,1.42
8816.00,1.42
8815.00,1.42
8814.00,1.42
8813.00,1.42
8812.00,1.42
8811.00,1.42
8810.00,1.42
8809.00,1.42
8808.00,1.42
8807.00,1.42
8806.00,1.42
8805.00,1.42
8804.00,1.42
8803.00,1.42
8802.00,1.42
8801.00,1.42
8800.00,1.42
8799.00,1.42
8798.00,1.42
8797.00,1.42
8796.00,1.42
8795.00,1.42
8794.00,1.42
8793.00,1.42
8792.00,1.41
8791.00,1.41
8790.00,1.41
8789.00,1.41
8788.00,1.41
8787.00,1.41
8786.00,1.41
8785.00,1.41
8784.00,1.41
8783.00,1.41
8782.00,1.41
8781.00,1.41
8780.00,1.41
8779.00,1.41
8778.00,1.41
8777.00,1.41
8776.00,1.41
8775.00,1.41
8774.00,1.41
8773.00,1.41
8772.00,1.40
8771.00,1.40
8770.00,1.40
8769.00,1.40
8768.00,1.40
8767.00,1.40
8766.00,1.40
8765.00,1.40
8764.00,1.40
8763.00,1.40
8762.00,1.40
8761.00,1.40
8760.00,1.40
8759.00,1.40
8758.00,1.40
8757.00,1.40
8756.00,1.40
8755.00,1.40
8754.00,1.40
8753.00,1.40
8752.00,1.40
8751.00,1.40
8750.00,1.40
8749.00,1.40
8748.00,1.39
8747.00,1.39
8746.00,1.39
8745.00,1.39
8744.00,1.39
8743.00,1.39
8742.00,1.39
8741.00,1.38
8740.00,1.38
8739.00,1.38
8738.00,1.38
8737.00,1.38
8736.00,1.38
8735.00,1.38
8734.00,1.37
8733.00,1.37
8732.00,1.37
8731.00,1.37
8730.00,1.37
8729.00,1.37
8728.00,1.37
8727.00,1.37
8726.00,1.37
8725.00,1.37
8724.00,1.37
8723.00,1.37
8722.00,1.37
8721.00,1.37
8720.00,1.37
8719.00,1.37
8718.00,1.37
8717.00,1.37
8716.00,1.37
8715.00,1.37
8714.00,1.37
8713.00,1.37
8712.00,1.38
8711.00,1.38
8710.00,1.38
8709.00,1.38
8708.00,1.38
8707.00,1.38
8706.00,1.38
8705.00,1.38
8704.00,1.38
8703.00,1.38
8702.00,1.38
8701.00,1.38
8700.00,1.38
8699.00,1.38
8698.00,1.38
8697.00,1.38
8696.00,1.38
8695.00,1.38
8694.00,1.38
8693.00,1.38
8692.00,1.38
8691.00,1.38
8690.00,1.38
8689.00,1.38
8688.00,1.38
8687.00,1.38
8686.00,1.38
8685.00,1.38
8684.00,1.37
8683.00,1.37
8682.00,1.37
8681.00,1.37
8680.00,1.37
8679.00,1.37
8678.00,1.37
8677.00,1.37
8676.00,1.37
8675.00,1.37
8674.00,1.37
8673.00,1.37
8672.00,1.37
8671.00,1.37
8670.00,1.37
8669.00,1.37
8668.00,1.37
8667.00,1.37
8666.00,1.37
8665.00,1.37
8664.00,1.37
8663.00,1.37
8662.00,1.37
8661.00,1.37
8660.00,1.37
8659.00,1.37
8658.00,1.37
8657.00,1.37
8656.00,1.37
8655.00,1.37
8654.00,1.37
8653.00,1.37
8652.00,1.37
8651.00,1.37
8650.00,1.37
8649.00,1.37
8648.00,1.37
8647.00,1.37
8646.00,1.38
8645.00,1.38
8644.00,1.38
8643.00,1.38
8642.00,1.38
8641.00,1.38
8640.00,1.38
8639.00,1.38
8638.00,1.38
8637.00,1.38
8636.00,1.38
8635.00,1.38
8634.00,1.38
8633.00,1.38
8632.00,1.38
8631.00,1.37
8630.00,1.37
8629.00,1.37
8628.00,1.37
8627.00,1.37
8626.00,1.37
8625.00,1.36
8624.00,1.36
8623.00,1.36
8622.00,1.36
8621.00,1.36
8620.00,1.36
8619.00,1.36
8618.00,1.36
8617.00,1.36
8616.00,1.36
8615.00,1.35
8614.00,1.35
8613.00,1.35
8612.00,1.35
8611.00,1.35
8610.00,1.35
8609.00,1.35
8608.00,1.35
8607.00,1.35
8606.00,1.35
8605.00,1.35
8604.00,1.35
8603.00,1.35
8602.00,1.35
8601.00,1.35
8600.00,1.34
8599.00,1.34
8598.00,1.34
8597.00,1.34
8596.00,1.34
8595.00,1.34
8594.00,1.34
8593.00,1.34
8592.00,1.34
8591.00,1.34
8590.00,1.34
8589.00,1.34
8588.00,1.34
8587.00,1.34
8586.00,1.35
8585.00,1.35
8584.00,1.35
8583.00,1.35
8582.00,1.35
8581.00,1.35
8580.00,1.35
8579.00,1.35
8578.00,1.35
8577.00,1.35
8576.00,1.35
8575.00,1.35
8574.00,1.34
8573.00,1.34
8572.00,1.34
8571.00,1.34
8570.00,1.34
8569.00,1.34
8568.00,1.34
8567.00,1.34
8566.00,1.34
8565.00,1.34
8564.00,1.33
8563.00,1.33
8562.00,1.33
8561.00,1.33
8560.00,1.33
8559.00,1.33
8558.00,1.33
8557.00,1.33
8556.00,1.33
8555.00,1.33
8554.00,1.33
8553.00,1.33
8552.00,1.33
8551.00,1.33
8550.00,1.33
8549.00,1.32
8548.00,1.32
8547.00,1.32
8546.00,1.32
8545.00,1.32
8544.00,1.32
8543.00,1.32
8542.00,1.32
8541.00,1.32
8540.00,1.32
8539.00,1.32
8538.00,1.32
8537.00,1.32
8536.00,1.32
8535.00,1.32
8534.00,1.32
8533.00,1.32
8532.00,1.32
8531.00,1.32
8530.00,1.32
8529.00,1.32
8528.00,1.32
8527.00,1.33
8526.00,1.33
8525.00,1.33
8524.00,1.33
8523.00,1.32
8522.00,1.32
8521.00,1.32
8520.00,1.32
8519.00,1.32
8518.00,1.32
8517.00,1.32
8516.00,1.32
8515.00,1.32
8514.00,1.32
8513.00,1.32
8512.00,1.32
8511.00,1.31
8510.00,1.31
8509.00,1.31
8508.00,1.31
8507.00,1.31
8506.00,1.31
8505.00,1.31
8504.00,1.31
8503.00,1.31
8502.00,1.31
8501.00,1.31
8500.00,1.31
8499.00,1.31
8498.00,1.31
8497.00,1.31
8496.00,1.31
8495.00,1.31
8494.00,1.31
8493.00,1.31
8492.00,1.31
8491.00,1.30
8490.00,1.30
8489.00,1.30
8488.00,1.30
8487.00,1.30
8486.00,1.29
8485.00,1.29
8484.00,1.29
8483.00,1.29
8482.00,1.29
8481.00,1.28
8480.00,1.28
8479.00,1.28
8478.00,1.28
8477.00,1.28
8476.00,1.28
8475.00,1.28
8474.00,1.27
8473.00,1.27
8472.00,1.27
8471.00,1.27
8470.00,1.27
8469.00,1.27
8468.00,1.27
8467.00,1.27
8466.00,1.27
8465.00,1.27
8464.00,1.27
8463.00,1.27
8462.00,1.27
8461.00,1.27
8460.00,1.26
8459.00,1.26
8458.00,1.26
8457.00,1.26
8456.00,1.26
8455.00,1.26
8454.00,1.26
8453.00,1.26
8452.00,1.26
8451.00,1.26
8450.00,1.26
8449.00,1.26
8448.00,1.26
8447.00,1.26
8446.00,1.26
8445.00,1.26
8444.00,1.26
8443.00,1.26
8442.00,1.26
8441.00,1.26
8440.00,1.26
8439.00,1.26
8438.00,1.26
8437.00,1.26
8436.00,1.26
8435.00,1.26
8434.00,1.26
8433.00,1.26
8432.00,1.26
8431.00,1.27
8430.00,1.27
8429.00,1.27
8428.00,1.27
8427.00,1.27
8426.00,1.27
8425.00,1.27
8424.00,1.27
8423.00,1.27
8422.00,1.27
8421.00,1.27
8420.00,1.27
8419.00,1.27
8418.00,1.27
8417.00,1.27
8416.00,1.27
8415.00,1.27
8414.00,1.27
8413.00,1.27
8412.00,1.27
8411.00,1.27
8410.00,1.27
8409.00,1.27
8408.00,1.27
8407.00,1.28
8406.00,1.28
8405.00,1.28
8404.00,1.28
8403.00,1.28
8402.00,1.28
8401.00,1.28
8400.00,1.29
8399.00,1.29
8398.00,1.29
8397.00,1.29
8396.00,1.29
8395.00,1.29
8394.00,1.29
8393.00,1.29
8392.00,1.29
8391.00,1.29
8390.00,1.29
8389.00,1.29
8388.00,1.29
8387.00,1.29
8386.00,1.29
8385.00,1.29
8384.00,1.29
8383.00,1.29
8382.00,1.29
8381.00,1.29
8380.00,1.29
8379.00,1.30
8378.00,1.30
8377.00,1.30
8376.00,1.30
8375.00,1.30
8374.00,1.30
8373.00,1.30
8372.00,1.30
8371.00,1.30
8370.00,1.30
8369.00,1.30
8368.00,1.31
8367.00,1.31
8366.00,1.31
8365.00,1.31
8364.00,1.31
8363.00,1.31
8362.00,1.31
8361.00,1.31
8360.00,1.31
8359.00,1.31
8358.00,1.31
8357.00,1.31
8356.00,1.31
8355.00,1.31
8354.00,1.31
8353.00,1.31
8352.00,1.31
8351.00,1.31
8350.00,1.31
8349.00,1.31
8348.00,1.31
8347.00,1.31
8346.00,1.31
8345.00,1.30
8344.00,1.30
8343.00,1.30
8342.00,1.30
8341.00,1.30
8340.00,1.30
8339.00,1.30
8338.00,1.30
8337.00,1.30
8336.00,1.30
8335.00,1.31
8334.00,1.31
8333.00,1.31
8332.00,1.31
8331.00,1.31
8330.00,1.31
8329.00,1.31
8328.00,1.31
8327.00,1.31
8326.00,1.31
8325.00,1.31
8324.00,1.31
8323.00,1.31
8322.00,1.31
8321.00,1.31
8320.00,1.31
8319.00,1.31
8318.00,1.31
8317.00,1.31
8316.00,1.31
8315.00,1.31
8314.00,1.31
8313.00,1.32
8312.00,1.32
8311.00,1.32
8310.00,1.32
8309.00,1.32
8308.00,1.32
8307.00,1.32
8306.00,1.32
8305.00,1.32
8304.00,1.32
8303.00,1.32
8302.00,1.32
8301.00,1.32
8300.00,1.32
8299.00,1.32
8298.00,1.32
8297.00,1.32
8296.00,1.32
8295.00,1.32
8294.00,1.33
8293.00,1.33
8292.00,1.33
8291.00,1.33
8290.00,1.33
8289.00,1.33
8288.00,1.33
8287.00,1.33
8286.00,1.33
8285.00,1.33
8284.00,1.33
8283.00,1.33
8282.00,1.33
8281.00,1.33
8280.00,1.33
8279.00,1.33
8278.00,1.33
8277.00,1.33
8276.00,1.33
8275.00,1.33
8274.00,1.33
8273.00,1.33
8272.00,1.33
8271.00,1.33
8270.00,1.33
8269.00,1.33
8268.00,1.33
8267.00,1.33
8266.00,1.33
8265.00,1.33
8264.00,1.33
8263.00,1.33
8262.00,1.33
8261.00,1.33
8260.00,1.33
8259.00,1.33
8258.00,1.33
8257.00,1.33
8256.00,1.33
8255.00,1.33
8254.00,1.33
8253.00,1.33
8252.00,1.33
8251.00,1.33
8250.00,1.33
8249.00,1.33
8248.00,1.33
8247.00,1.33
8246.00,1.33
8245.00,1.33
8244.00,1.33
8243.00,1.33
8242.00,1.33
8241.00,1.33
8240.00,1.33
8239.00,1.33
8238.00,1.33
8237.00,1.33
8236.00,1.33
8235.00,1.33
8234.00,1.33
8233.00,1.33
8232.00,1.33
8231.00,1.33
8230.00,1.33
8229.00,1.33
8228.00,1.33
8227.00,1.33
8226.00,1.33
8225.00,1.34
8224.00,1.34
8223.00,1.34
8222.00,1.34
8221.00,1.34
8220.00,1.34
8219.00,1.34
8218.00,1.34
8217.00,1.34
8216.00,1.34
8215.00,1.34
8214.00,1.34
8213.00,1.35
8212.00,1.35
8211.00,1.35
8210.00,1.35
8209.00,1.35
8208.00,1.35
8207.00,1.35
8206.00,1.35
8205.00,1.35
8204.00,1.36
8203.00,1.36
8202.00,1.36
8201.00,1.36
8200.00,1.36
8199.00,1.36
8198.00,1.36
8197.00,1.36
8196.00,1.36
8195.00,1.36
8194.00,1.35
8193.00,1.35
8192.00,1.35
8191.00,1.35
8190.00,1.35
8189.00,1.35
8188.00,1.35
8187.00,1.35
8186.00,1.35
8185.00,1.35
8184.00,1.35
8183.00,1.35
8182.00,1.35
8181.00,1.35
8180.00,1.35
8179.00,1.35
8178.00,1.35
8177.00,1.35
8176.00,1.35
8175.00,1.35
8174.00,1.35
8173.00,1.35
8172.00,1.35
8171.00,1.35
8170.00,1.36
8169.00,1.36
8168.00,1.36
8167.00,1.36
8166.00,1.36
8165.00,1.36
8164.00,1.36
8163.00,1.36
8162.00,1.36
8161.00,1.36
8160.00,1.36
8159.00,1.36
8158.00,1.36
8157.00,1.36
8156.00,1.36
8155.00,1.36
8154.00,1.37
8153.00,1.37
8152.00,1.37
8151.00,1.37
8150.00,1.37
8149.00,1.37
8148.00,1.37
8147.00,1.37
8146.00,1.37
8145.00,1.37
8144.00,1.37
8143.00,1.37
8142.00,1.37
8141.00,1.37
8140.00,1.37
8139.00,1.37
8138.00,1.37
8137.00,1.38
8136.00,1.38
8135.00,1.38
8134.00,1.38
8133.00,1.38
8132.00,1.38
8131.00,1.38
8130.00,1.38
8129.00,1.38
8128.00,1.38
8127.00,1.38
8126.00,1.38
8125.00,1.38
8124.00,1.38
8123.00,1.38
8122.00,1.38
8121.00,1.38
8120.00,1.38
8119.00,1.38
8118.00,1.38
8117.00,1.38
8116.00,1.38
8115.00,1.38
8114.00,1.38
8113.00,1.38
8112.00,1.38
8111.00,1.38
8110.00,1.38
8109.00,1.38
8108.00,1.38
8107.00,1.38
8106.00,1.38
8105.00,1.38
8104.00,1.39
8103.00,1.39
8102.00,1.39
8101.00,1.39
8100.00,1.39
8099.00,1.39
8098.00,1.39
8097.00,1.39
8096.00,1.39
8095.00,1.39
8094.00,1.39
8093.00,1.39
8092.00,1.39
8091.00,1.39
8090.00,1.39
8089.00,1.39
8088.00,1.39
8087.00,1.39
8086.00,1.39
8085.00,1.39
8084.00,1.39
8083.00,1.39
8082.00,1.39
8081.00,1.39
8080.00,1.39
8079.00,1.39
8078.00,1.39
8077.00,1.39
8076.00,1.39
8075.00,1.39
8074.00,1.39
8073.00,1.39
8072.00,1.39
8071.00,1.39
8070.00,1.39
8069.00,1.39
8068.00,1.39
8067.00,1.39
8066.00,1.40
8065.00,1.40
8064.00,1.40
8063.00,1.40
8062.00,1.40
8061.00,1.40
8060.00,1.40
8059.00,1.40
8058.00,1.40
8057.00,1.40
8056.00,1.40
8055.00,1.40
8054.00,1.40
8053.00,1.40
8052.00,1.40
8051.00,1.40
8050.00,1.40
8049.00,1.40
8048.00,1.40
8047.00,1.40
8046.00,1.40
8045.00,1.41
8044.00,1.41
8043.00,1.41
8042.00,1.41
8041.00,1.41
8040.00,1.41
8039.00,1.41
8038.00,1.42
8037.00,1.42
8036.00,1.42
8035.00,1.42
8034.00,1.42
8033.00,1.42
8032.00,1.42
8031.00,1.42
8030.00,1.42
8029.00,1.42
8028.00,1.42
8027.00,1.42
8026.00,1.42
8025.00,1.42
8024.00,1.42
8023.00,1.42
8022.00,1.42
8021.00,1.42
8020.00,1.42
8019.00,1.42
8018.00,1.42
8017.00,1.42
8016.00,1.42
8015.00,1.42
8014.00,1.42
8013.00,1.42
8012.00,1.42
8011.00,1.42
8010.00,1.42
8009.00,1.42
8008.00,1.42
8007.00,1.42
8006.00,1.42
8005.00,1.42
8004.00,1.42
8003.00,1.42
8002.00,1.42
8001.00,1.42
8000.00,1.42
7999.00,1.42
7998.00,1.42
7997.00,1.42
7996.00,1.42
7995.00,1.42
7994.00,1.42
7993.00,1.42
7992.00,1.42
7991.00,1.42
7990.00,1.42
7989.00,1.42
7988.00,1.42
7987.00,1.42
7986.00,1.42
7985.00,1.42
7984.00,1.42
7983.00,1.42
7982.00,1.42
7981.00,1.42
7980.00,1.42
7979.00,1.42
7978.00,1.42
7977.00,1.42
7976.00,1.42
7975.00,1.42
7974.00,1.42
7973.00,1.42
7972.00,1.42
7971.00,1.42
7970.00,1.42
7969.00,1.42
7968.00,1.42
7967.00,1.42
7966.00,1.42
7965.00,1.42
7964.00,1.42
7963.00,1.43
7962.00,1.43
7961.00,1.43
7960.00,1.43
7959.00,1.43
7958.00,1.43
7957.00,1.43
7956.00,1.43
7955.00,1.42
7954.00,1.42
7953.00,1.42
7952.00,1.42
7951.00,1.42
7950.00,1.42
7949.00,1.42
7948.00,1.42
7947.00,1.42
7946.00,1.42
7945.00,1.42
7944.00,1.42
7943.00,1.42
7942.00,1.42
7941.00,1.42
7940.00,1.42
7939.00,1.42
7938.00,1.42
7937.00,1.42
7936.00,1.42
7935.00,1.42
7934.00,1.42
7933.00,1.42
7932.00,1.42
7931.00,1.42
7930.00,1.42
7929.00,1.43
7928.00,1.43
7927.00,1.43
7926.00,1.43
7925.00,1.43
7924.00,1.43
7923.00,1.43
7922.00,1.42
7921.00,1.42
7920.00,1.42
7919.00,1.42
7918.00,1.42
7917.00,1.42
7916.00,1.42
7915.00,1.42
7914.00,1.42
7913.00,1.42
7912.00,1.42
7911.00,1.42
7910.00,1.42
7909.00,1.42
7908.00,1.42
7907.00,1.42
7906.00,1.42
7905.00,1.42
7904.00,1.43
7903.00,1.43
7902.00,1.43
7901.00,1.43
7900.00,1.43
7899.00,1.43
7898.00,1.43
7897.00,1.43
7896.00,1.43
7895.00,1.43
7894.00,1.43
7893.00,1.43
7892.00,1.43
7891.00,1.42
7890.00,1.42
7889.00,1.42
7888.00,1.42
7887.00,1.42
7886.00,1.42
7885.00,1.42
7884.00,1.42
7883.00,1.42
7882.00,1.43
7881.00,1.43
7880.00,1.43
7879.00,1.43
7878.00,1.43
7877.00,1.43
7876.00,1.43
7875.00,1.43
7874.00,1.43
7873.00,1.43
7872.00,1.43
7871.00,1.43
7870.00,1.43
7869.00,1.43
7868.00,1.43
7867.00,1.43
7866.00,1.43
7865.00,1.43
7864.00,1.43
7863.00,1.43
7862.00,1.43
7861.00,1.43
7860.00,1.43
7859.00,1.43
7858.00,1.44
7857.00,1.44
7856.00,1.44
7855.00,1.44
7854.00,1.44
7853.00,1.44
7852.00,1.44
7851.00,1.44
7850.00,1.44
7849.00,1.44
7848.00,1.44
7847.00,1.44
7846.00,1.44
7845.00,1.44
7844.00,1.44
7843.00,1.44
7842.00,1.44
7841.00,1.44
7840.00,1.44
7839.00,1.44
7838.00,1.44
7837.00,1.44
7836.00,1.44
7835.00,1.44
7834.00,1.44
7833.00,1.44
7832.00,1.44
7831.00,1.44
7830.00,1.44
7829.00,1.44
7828.00,1.44
7827.00,1.44
7826.00,1.44
7825.00,1.44
7824.00,1.44
7823.00,1.44
7822.00,1.44
7821.00,1.44
7820.00,1.44
7819.00,1.44
7818.00,1.44
7817.00,1.44
7816.00,1.44
7815.00,1.44
7814.00,1.44
7813.00,1.44
7812.00,1.44
7811.00,1.44
7810.00,1.44
7809.00,1.44
7808.00,1.44
7807.00,1.44
7806.00,1.44
7805.00,1.44
7804.00,1.44
7803.00,1.44
7802.00,1.44
7801.00,1.44
7800.00,1.44
7799.00,1.44
7798.00,1.44
7797.00,1.44
7796.00,1.44
7795.00,1.44
7794.00,1.44
7793.00,1.44
7792.00,1.44
7791.00,1.44
7790.00,1.44
7789.00,1.44
7788.00,1.45
7787.00,1.45
7786.00,1.45
7785.00,1.45
7784.00,1.45
7783.00,1.45
7782.00,1.45
7781.00,1.45
7780.00,1.45
7779.00,1.45
7778.00,1.45
7777.00,1.45
7776.00,1.45
7775.00,1.45
7774.00,1.44
7773.00,1.44
7772.00,1.44
7771.00,1.44
7770.00,1.44
7769.00,1.44
7768.00,1.44
7767.00,1.44
7766.00,1.44
7765.00,1.44
7764.00,1.44
7763.00,1.44
7762.00,1.44
7761.00,1.44
7760.00,1.44
7759.00,1.44
7758.00,1.44
7757.00,1.45
7756.00,1.45
7755.00,1.45
7754.00,1.45
7753.00,1.45
7752.00,1.45
7751.00,1.45
7750.00,1.45
7749.00,1.45
7748.00,1.45
7747.00,1.45
7746.00,1.45
7745.00,1.45
7744.00,1.45
7743.00,1.45
7742.00,1.45
7741.00,1.45
7740.00,1.45
7739.00,1.45
7738.00,1.45
7737.00,1.45
7736.00,1.45
7735.00,1.45
7734.00,1.45
7733.00,1.45
7732.00,1.45
7731.00,1.45
7730.00,1.45
7729.00,1.45
7728.00,1.44
7727.00,1.44
7726.00,1.44
7725.00,1.44
7724.00,1.44
7723.00,1.44
7722.00,1.44
7721.00,1.44
7720.00,1.44
7719.00,1.44
7718.00,1.44
7717.00,1.44
7716.00,1.44
7715.00,1.44
7714.00,1.44
7713.00,1.44
7712.00,1.44
7711.00,1.44
7710.00,1.44
7709.00,1.45
7708.00,1.45
7707.00,1.45
7706.00,1.45
7705.00,1.45
7704.00,1.45
7703.00,1.45
7702.00,1.45
7701.00,1.45
7700.00,1.45
7699.00,1.45
7698.00,1.45
7697.00,1.45
7696.00,1.45
7695.00,1.45
7694.00,1.45
7693.00,1.45
7692.00,1.45
7691.00,1.45
7690.00,1.45
7689.00,1.45
7688.00,1.45
7687.00,1.45
7686.00,1.45
7685.00,1.45
7684.00,1.45
7683.00,1.45
7682.00,1.45
7681.00,1.45
7680.00,1.45
7679.00,1.45
7678.00,1.45
7677.00,1.45
7676.00,1.45
7675.00,1.45
7674.00,1.45
7673.00,1.45
7672.00,1.45
7671.00,1.45
7670.00,1.45
7669.00,1.45
7668.00,1.45
7667.00,1.45
7666.00,1.45
7665.00,1.45
7664.00,1.45
7663.00,1.45
7662.00,1.45
7661.00,1.45
7660.00,1.45
7659.00,1.45
7658.00,1.45
7657.00,1.45
7656.00,1.45
7655.00,1.45
7654.00,1.45
7653.00,1.45
7652.00,1.45
7651.00,1.45
7650.00,1.45
7649.00,1.45
7648.00,1.45
7647.00,1.45
7646.00,1.45
7645.00,1.45
7644.00,1.45
7643.00,1.45
7642.00,1.45
7641.00,1.45
7640.00,1.45
7639.00,1.45
7638.00,1.45
7637.00,1.45
7636.00,1.45
7635.00,1.45
7634.00,1.45
7633.00,1.45
7632.00,1.45
7631.00,1.45
7630.00,1.45
7629.00,1.45
7628.00,1.45
7627.00,1.45
7626.00,1.45
7625.00,1.45
7624.00,1.45
7623.00,1.45
7622.00,1.45
7621.00,1.45
7620.00,1.45
7619.00,1.45
7618.00,1.45
7617.00,1.45
7616.00,1.45
7615.00,1.45
7614.00,1.45
7613.00,1.45
7612.00,1.45
7611.00,1.45
7610.00,1.45
7609.00,1.45
7608.00,1.45
7607.00,1.45
7606.00,1.45
7605.00,1.45
7604.00,1.45
7603.00,1.45
7602.00,1.45
7601.00,1.45
7600.00,1.45
7599.00,1.45
7598.00,1.45
7597.00,1.45
7596.00,1.45
7595.00,1.45
7594.00,1.45
7593.00,1.45
7592.00,1.45
7591.00,1.45
7590.00,1.45
7589.00,1.45
7588.00,1.45
7587.00,1.45
7586.00,1.45
7585.00,1.45
7584.00,1.45
7583.00,1.45
7582.00,1.45
7581.00,1.45
7580.00,1.45
7579.00,1.45
7578.00,1.45
7577.00,1.45
7576.00,1.45
7575.00,1.45
7574.00,1.45
7573.00,1.45
7572.00,1.45
7571.00,1.45
7570.00,1.45
7569.00,1.45
7568.00,1.45
7567.00,1.45
7566.00,1.45
7565.00,1.44
7564.00,1.44
7563.00,1.44
7562.00,1.44
7561.00,1.44
7560.00,1.44
7559.00,1.44
7558.00,1.44
7557.00,1.44
7556.00,1.44
7555.00,1.44
7554.00,1.44
7553.00,1.44
7552.00,1.44
7551.00,1.44
7550.00,1.44
7549.00,1.44
7548.00,1.44
7547.00,1.44
7546.00,1.44
7545.00,1.44
7544.00,1.44
7543.00,1.44
7542.00,1.44
7541.00,1.44
7540.00,1.44
7539.00,1.44
7538.00,1.44
7537.00,1.44
7536.00,1.44
7535.00,1.44
7534.00,1.44
7533.00,1.44
7532.00,1.44
7531.00,1.44
7530.00,1.44
7529.00,1.44
7528.00,1.44
7527.00,1.44
7526.00,1.44
7525.00,1.44
7524.00,1.44
7523.00,1.44
7522.00,1.44
7521.00,1.44
7520.00,1.43
7519.00,1.43
7518.00,1.43
7517.00,1.43
7516.00,1.43
7515.00,1.43
7514.00,1.43
7513.00,1.43
7512.00,1.43
7511.00,1.43
7510.00,1.43
7509.00,1.43
7508.00,1.43
7507.00,1.43
7506.00,1.43
7505.00,1.43
7504.00,1.43
7503.00,1.43
7502.00,1.43
7501.00,1.43
7500.00,1.43
7499.00,1.43
7498.00,1.43
7497.00,1.43
7496.00,1.43
7495.00,1.42
7494.00,1.42
7493.00,1.42
7492.00,1.42
7491.00,1.42
7490.00,1.42
7489.00,1.42
7488.00,1.42
7487.00,1.42
7486.00,1.42
7485.00,1.42
7484.00,1.42
7483.00,1.42
7482.00,1.42
7481.00,1.42
7480.00,1.42
7479.00,1.42
7478.00,1.42
7477.00,1.42
7476.00,1.42
7475.00,1.42
7474.00,1.42
7473.00,1.42
7472.00,1.42
7471.00,1.41
7470.00,1.41
7469.00,1.41
7468.00,1.41
7467.00,1.41
7466.00,1.41
7465.00,1.41
7464.00,1.41
7463.00,1.41
7462.00,1.41
7461.00,1.41
7460.00,1.41
7459.00,1.41
7458.00,1.41
7457.00,1.41
7456.00,1.41
7455.00,1.41
7454.00,1.41
7453.00,1.41
7452.00,1.41
7451.00,1.41
7450.00,1.41
7449.00,1.41
7448.00,1.41
7447.00,1.41
7446.00,1.41
7445.00,1.40
7444.00,1.40
7443.00,1.40
7442.00,1.40
7441.00,1.40
7440.00,1.40
7439.00,1.40
7438.00,1.40
7437.00,1.40
7436.00,1.40
7435.00,1.40
7434.00,1.40
7433.00,1.39
7432.00,1.39
7431.00,1.39
7430.00,1.39
7429.00,1.39
7428.00,1.39
7427.00,1.39
7426.00,1.39
7425.00,1.39
7424.00,1.39
7423.00,1.39
7422.00,1.39
7421.00,1.38
7420.00,1.38
7419.00,1.38
7418.00,1.38
7417.00,1.38
7416.00,1.38
7415.00,1.38
7414.00,1.38
7413.00,1.38
7412.00,1.37
7411.00,1.37
7410.00,1.37
7409.00,1.37
7408.00,1.37
7407.00,1.36
7406.00,1.36
7405.00,1.36
7404.00,1.36
7403.00,1.36
7402.00,1.36
7401.00,1.35
7400.00,1.35
7399.00,1.35
7398.00,1.35
7397.00,1.35
7396.00,1.35
7395.00,1.35
7394.00,1.34
7393.00,1.34
7392.00,1.34
7391.00,1.34
7390.00,1.34
7389.00,1.34
7388.00,1.34
7387.00,1.34
7386.00,1.33
7385.00,1.33
7384.00,1.33
7383.00,1.33
7382.00,1.33
7381.00,1.33
7380.00,1.33
7379.00,1.33
7378.00,1.33
7377.00,1.33
7376.00,1.32
7375.00,1.32
7374.00,1.32
7373.00,1.32
7372.00,1.32
7371.00,1.32
7370.00,1.32
7369.00,1.32
7368.00,1.32
7367.00,1.32
7366.00,1.32
7365.00,1.32
7364.00,1.32
7363.00,1.32
7362.00,1.32
7361.00,1.32
7360.00,1.32
7359.00,1.32
7358.00,1.32
7357.00,1.32
7356.00,1.32
7355.00,1.32
7354.00,1.32
7353.00,1.32
7352.00,1.31
7351.00,1.31
7350.00,1.31
7349.00,1.31
7348.00,1.31
7347.00,1.31
7346.00,1.31
7345.00,1.31
7344.00,1.30
7343.00,1.30
7342.00,1.30
7341.00,1.30
7340.00,1.30
7339.00,1.30
7338.00,1.30
7337.00,1.30
7336.00,1.30
7335.00,1.30
7334.00,1.30
7333.00,1.30
7332.00,1.30
7331.00,1.30
7330.00,1.30
7329.00,1.30
7328.00,1.30
7327.00,1.30
7326.00,1.30
7325.00,1.30
7324.00,1.30
7323.00,1.30
7322.00,1.30
7321.00,1.30
7320.00,1.30
7319.00,1.30
7318.00,1.30
7317.00,1.30
7316.00,1.30
7315.00,1.30
7314.00,1.30
7313.00,1.30
7312.00,1.30
7311.00,1.30
7310.00,1.30
7309.00,1.30
7308.00,1.30
7307.00,1.30
7306.00,1.30
7305.00,1.29
7304.00,1.29
7303.00,1.29
7302.00,1.29
7301.00,1.29
7300.00,1.28
7299.00,1.28
7298.00,1.28
7297.00,1.28
7296.00,1.28
7295.00,1.28
7294.00,1.28
7293.00,1.27
7292.00,1.27
7291.00,1.27
7290.00,1.27
7289.00,1.27
7288.00,1.27
7287.00,1.27
7286.00,1.27
7285.00,1.27
7284.00,1.27
7283.00,1.27
7282.00,1.27
7281.00,1.27
7280.00,1.27
7279.00,1.27
7278.00,1.27
7277.00,1.27
7276.00,1.26
7275.00,1.26
7274.00,1.26
7273.00,1.26
7272.00,1.26
7271.00,1.26
7270.00,1.26
7269.00,1.26
7268.00,1.25
7267.00,1.25
7266.00,1.25
7265.00,1.25
7264.00,1.25
7263.00,1.25
7262.00,1.24
7261.00,1.24
7260.00,1.24
7259.00,1.24
7258.00,1.24
7257.00,1.24
7256.00,1.23
7255.00,1.23
7254.00,1.23
7253.00,1.23
7252.00,1.23
7251.00,1.22
7250.00,1.22
7249.00,1.22
7248.00,1.22
7247.00,1.21
7246.00,1.21
7245.00,1.21
7244.00,1.20
7243.00,1.20
7242.00,1.20
7241.00,1.19
7240.00,1.19
7239.00,1.19
7238.00,1.18
7237.00,1.18
7236.00,1.18
7235.00,1.17
7234.00,1.17
7233.00,1.17
7232.00,1.16
7231.00,1.16
7230.00,1.16
7229.00,1.15
7228.00,1.15
7227.00,1.15
7226.00,1.14
7225.00,1.14
7224.00,1.14
7223.00,1.13
7222.00,1.13
7221.00,1.13
7220.00,1.13
7219.00,1.12
7218.00,1.12
7217.00,1.12
7216.00,1.11
7215.00,1.11
7214.00,1.11
7213.00,1.11
7212.00,1.10
7211.00,1.10
7210.00,1.10
7209.00,1.10
7208.00,1.09
7207.00,1.09
7206.00,1.09
7205.00,1.09
7204.00,1.08
7203.00,1.08
7202.00,1.08
7201.00,1.08
7200.00,1.07
7199.00,1.07
7198.00,1.07
7197.00,1.07
7196.00,1.06
7195.00,1.06
7194.00,1.06
7193.00,1.05
7192.00,1.05
7191.00,1.05
7190.00,1.05
7189.00,1.04
7188.00,1.04
7187.00,1.04
7186.00,1.03
7185.00,1.03
7184.00,1.02
7183.00,1.02
7182.00,1.02
7181.00,1.02
7180.00,1.01
7179.00,1.01
7178.00,1.01
7177.00,1.00
7176.00,1.00
7175.00,1.00
7174.00,1.00
7173.00,0.99
7172.00,0.99
7171.00,0.99
7170.00,0.99
7169.00,0.98
7168.00,0.98
7167.00,0.98
7166.00,0.98
7165.00,0.97
7164.00,0.97
7163.00,0.97
7162.00,0.97
7161.00,0.96
7160.00,0.96
7159.00,0.96
7158.00,0.96
7157.00,0.95
7156.00,0.95
7155.00,0.95
7154.00,0.95
7153.00,0.95
7152.00,0.94
7151.00,0.94
7150.00,0.94
7149.00,0.94
7148.00,0.93
7147.00,0.93
7146.00,0.93
7145.00,0.93
7144.00,0.92
7143.00,0.92
7142.00,0.92
7141.00,0.92
7140.00,0.91
7139.00,0.91
7138.00,0.91
7137.00,0.91
7136.00,0.90
7135.00,0.90
7134.00,0.90
7133.00,0.90
7132.00,0.89
7131.00,0.89
7130.00,0.89
7129.00,0.89
7128.00,0.88
7127.00,0.88
7126.00,0.88
7125.00,0.88
7124.00,0.88
7123.00,0.87
7122.00,0.87
7121.00,0.87
7120.00,0.87
7119.00,0.86
7118.00,0.86
7117.00,0.86
7116.00,0.86
7115.00,0.86
7114.00,0.85
7113.00,0.85
7112.00,0.85
7111.00,0.85
7110.00,0.84
7109.00,0.84
7108.00,0.84
7107.00,0.84
7106.00,0.84
7105.00,0.83
7104.00,0.83
7103.00,0.83
7102.00,0.83
7101.00,0.82
7100.00,0.82
7099.00,0.82
7098.00,0.82
7097.00,0.82
7096.00,0.82
7095.00,0.82
7094.00,0.81
7093.00,0.81
7092.00,0.81
7091.00,0.81
7090.00,0.81
7089.00,0.81
7088.00,0.81
7087.00,0.81
7086.00,0.81
7085.00,0.81
7084.00,0.81
7083.00,0.81
7082.00,0.81
7081.00,0.81
7080.00,0.80
7079.00,0.80
7078.00,0.80
7077.00,0.80
7076.00,0.80
7075.00,0.80
7074.00,0.80
7073.00,0.80
7072.00,0.80
7071.00,0.79
7070.00,0.79
7069.00,0.79
7068.00,0.79
7067.00,0.79
7066.00,0.79
7065.00,0.79
7064.00,0.79
7063.00,0.79
7062.00,0.79
7061.00,0.79
7060.00,0.78
7059.00,0.78
7058.00,0.78
7057.00,0.78
7056.00,0.78
7055.00,0.78
7054.00,0.78
7053.00,0.78
7052.00,0.78
7051.00,0.78
7050.00,0.77
7049.00,0.77
7048.00,0.77
7047.00,0.77
7046.00,0.77
7045.00,0.77
7044.00,0.77
7043.00,0.77
7042.00,0.76
7041.00,0.76
7040.00,0.76
7039.00,0.76
7038.00,0.76
7037.00,0.76
7036.00,0.76
7035.00,0.76
7034.00,0.75
7033.00,0.75
7032.00,0.75
7031.00,0.75
7030.00,0.75
7029.00,0.75
7028.00,0.75
7027.00,0.74
7026.00,0.74
7025.00,0.74
7024.00,0.74
7023.00,0.74
7022.00,0.74
7021.00,0.74
7020.00,0.74
7019.00,0.74
7018.00,0.74
7017.00,0.74
7016.00,0.74
7015.00,0.74
7014.00,0.74
7013.00,0.74
7012.00,0.74
7011.00,0.74
7010.00,0.74
7009.00,0.74
7008.00,0.74
7007.00,0.74
7006.00,0.74
7005.00,0.74
7004.00,0.74
7003.00,0.74
7002.00,0.74
7001.00,0.74
7000.00,0.74
6999.00,0.74
6998.00,0.74
6997.00,0.74
6996.00,0.74
6995.00,0.74
6994.00,0.74
6993.00,0.74
6992.00,0.74
6991.00,0.74
6990.00,0.74
6989.00,0.74
6988.00,0.74
6987.00,0.74
6986.00,0.74
6985.00,0.74
6984.00,0.74
6983.00,0.74
6982.00,0.74
6981.00,0.74
6980.00,0.74
6979.00,0.74
6978.00,0.74
6977.00,0.74
6976.00,0.74
6975.00,0.74
6974.00,0.74
6973.00,0.74
6972.00,0.74
6971.00,0.74
6970.00,0.74
6969.00,0.74
6968.00,0.74
6967.00,0.74
6966.00,0.74
6965.00,0.73
6964.00,0.73
6963.00,0.73
6962.00,0.73
6961.00,0.73
6960.00,0.73
6959.00,0.73
6958.00,0.73
6957.00,0.73
6956.00,0.73
6955.00,0.73
6954.00,0.73
6953.00,0.73
6952.00,0.73
6951.00,0.73
6950.00,0.73
6949.00,0.72
6948.00,0.72
6947.00,0.72
6946.00,0.72
6945.00,0.72
6944.00,0.72
6943.00,0.72
6942.00,0.72
6941.00,0.72
6940.00,0.72
6939.00,0.72
6938.00,0.72
6937.00,0.72
6936.00,0.72
6935.00,0.72
6934.00,0.72
6933.00,0.72
6932.00,0.72
6931.00,0.72
6930.00,0.72
6929.00,0.72
6928.00,0.72
6927.00,0.72
6926.00,0.72
6925.00,0.72
6924.00,0.72
6923.00,0.72
6922.00,0.72
6921.00,0.72
6920.00,0.72
6919.00,0.72
6918.00,0.72
6917.00,0.72
6916.00,0.72
6915.00,0.72
6914.00,0.72
6913.00,0.72
6912.00,0.72
6911.00,0.72
6910.00,0.72
6909.00,0.72
6908.00,0.72
6907.00,0.72
6906.00,0.72
6905.00,0.72
6904.00,0.72
6903.00,0.72
6902.00,0.72
6901.00,0.72
6900.00,0.72
6899.00,0.72
6898.00,0.72
6897.00,0.72
6896.00,0.72
6895.00,0.72
6894.00,0.72
6893.00,0.72
6892.00,0.72
6891.00,0.72
6890.00,0.72
6889.00,0.72
6888.00,0.72
6887.00,0.72
6886.00,0.73
6885.00,0.73
6884.00,0.73
6883.00,0.72
6882.00,0.72
6881.00,0.72
6880.00,0.72
6879.00,0.72
6878.00,0.72
6877.00,0.72
6876.00,0.72
6875.00,0.72
6874.00,0.72
6873.00,0.72
6872.00,0.72
6871.00,0.72
6870.00,0.72
6869.00,0.72
6868.00,0.72
6867.00,0.72
6866.00,0.72
6865.00,0.72
6864.00,0.72
6863.00,0.72
6862.00,0.72
6861.00,0.72
6860.00,0.72
6859.00,0.72
6858.00,0.72
6857.00,0.72
6856.00,0.72
6855.00,0.72
6854.00,0.72
6853.00,0.72
6852.00,0.72
6851.00,0.72
6850.00,0.72
6849.00,0.72
6848.00,0.72
6847.00,0.72
6846.00,0.72
6845.00,0.72
6844.00,0.72
6843.00,0.72
6842.00,0.72
6841.00,0.72
6840.00,0.73
6839.00,0.73
6838.00,0.73
6837.00,0.73
6836.00,0.73
6835.00,0.73
6834.00,0.73
6833.00,0.73
6832.00,0.73
6831.00,0.73
6830.00,0.73
6829.00,0.73
6828.00,0.73
6827.00,0.73
6826.00,0.73
6825.00,0.73
6824.00,0.73
6823.00,0.73
6822.00,0.73
6821.00,0.73
6820.00,0.73
6819.00,0.73
6818.00,0.73
6817.00,0.73
6816.00,0.73
6815.00,0.73
6814.00,0.73
6813.00,0.73
6812.00,0.73
6811.00,0.73
6810.00,0.73
6809.00,0.73
6808.00,0.73
6807.00,0.73
6806.00,0.73
6805.00,0.73
6804.00,0.73
6803.00,0.73
6802.00,0.73
6801.00,0.73
6800.00,0.73
6799.00,0.73
6798.00,0.73
6797.00,0.73
6796.00,0.73
6795.00,0.74
6794.00,0.74
6793.00,0.74
6792.00,0.74
6791.00,0.74
6790.00,0.74
6789.00,0.74
6788.00,0.74
6787.00,0.74
6786.00,0.74
6785.00,0.74
6784.00,0.75
6783.00,0.75
6782.00,0.75
6781.00,0.75
6780.00,0.75
6779.00,0.75
6778.00,0.75
6777.00,0.75
6776.00,0.75
6775.00,0.76
6774.00,0.76
6773.00,0.76
6772.00,0.76
6771.00,0.76
6770.00,0.76
6769.00,0.76
6768.00,0.76
6767.00,0.76
6766.00,0.76
6765.00,0.76
6764.00,0.76
6763.00,0.76
6762.00,0.76
6761.00,0.76
6760.00,0.76
6759.00,0.76
6758.00,0.76
6757.00,0.76
6756.00,0.76
6755.00,0.76
6754.00,0.76
6753.00,0.76
6752.00,0.76
6751.00,0.76
6750.00,0.76
6749.00,0.77
6748.00,0.77
6747.00,0.77
6746.00,0.77
6745.00,0.77
6744.00,0.77
6743.00,0.77
6742.00,0.77
6741.00,0.77
6740.00,0.77
6739.00,0.77
6738.00,0.77
6737.00,0.77
6736.00,0.77
6735.00,0.77
6734.00,0.77
6733.00,0.77
6732.00,0.77
6731.00,0.77
6730.00,0.77
6729.00,0.77
6728.00,0.77
6727.00,0.77
6726.00,0.77
6725.00,0.77
6724.00,0.78
6723.00,0.78
6722.00,0.78
6721.00,0.78
6720.00,0.78
6719.00,0.78
6718.00,0.78
6717.00,0.78
6716.00,0.78
6715.00,0.78
6714.00,0.78
6713.00,0.78
6712.00,0.79
6711.00,0.79
6710.00,0.79
6709.00,0.79
6708.00,0.79
6707.00,0.79
6706.00,0.79
6705.00,0.79
6704.00,0.79
6703.00,0.79
6702.00,0.80
6701.00,0.80
6700.00,0.80
6699.00,0.80
6698.00,0.80
6697.00,0.80
6696.00,0.80
6695.00,0.80
6694.00,0.80
6693.00,0.80
6692.00,0.80
6691.00,0.80
6690.00,0.80
6689.00,0.80
6688.00,0.80
6687.00,0.80
6686.00,0.80
6685.00,0.80
6684.00,0.80
6683.00,0.80
6682.00,0.80
6681.00,0.81
6680.00,0.81
6679.00,0.81
6678.00,0.81
6677.00,0.81
6676.00,0.81
6675.00,0.81
6674.00,0.81
6673.00,0.81
6672.00,0.81
6671.00,0.81
6670.00,0.81
6669.00,0.82
6668.00,0.82
6667.00,0.82
6666.00,0.82
6665.00,0.82
6664.00,0.82
6663.00,0.82
6662.00,0.82
6661.00,0.82
6660.00,0.82
6659.00,0.82
6658.00,0.82
6657.00,0.83
6656.00,0.83
6655.00,0.83
6654.00,0.83
6653.00,0.83
6652.00,0.83
6651.00,0.83
6650.00,0.83
6649.00,0.83
6648.00,0.83
6647.00,0.83
6646.00,0.84
6645.00,0.84
6644.00,0.84
6643.00,0.84
6642.00,0.84
6641.00,0.84
6640.00,0.84
6639.00,0.84
6638.00,0.84
6637.00,0.84
6636.00,0.84
6635.00,0.84
6634.00,0.85
6633.00,0.85
6632.00,0.85
6631.00,0.85
6630.00,0.85
6629.00,0.85
6628.00,0.85
6627.00,0.85
6626.00,0.85
6625.00,0.85
6624.00,0.86
6623.00,0.86
6622.00,0.86
6621.00,0.86
6620.00,0.86
6619.00,0.86
6618.00,0.86
6617.00,0.86
6616.00,0.86
6615.00,0.86
6614.00,0.86
6613.00,0.86
6612.00,0.86
6611.00,0.86
6610.00,0.86
6609.00,0.86
6608.00,0.87
6607.00,0.87
6606.00,0.87
6605.00,0.87
6604.00,0.87
6603.00,0.87
6602.00,0.87
6601.00,0.87
6600.00,0.87
6599.00,0.87
6598.00,0.87
6597.00,0.87
6596.00,0.87
6595.00,0.87
6594.00,0.87
6593.00,0.87
6592.00,0.88
6591.00,0.88
6590.00,0.88
6589.00,0.88
6588.00,0.88
6587.00,0.88
6586.00,0.88
6585.00,0.88
6584.00,0.89
6583.00,0.89
6582.00,0.89
6581.00,0.89
6580.00,0.89
6579.00,0.89
6578.00,0.89
6577.00,0.89
6576.00,0.89
6575.00,0.90
6574.00,0.90
6573.00,0.90
6572.00,0.90
6571.00,0.90
6570.00,0.90
6569.00,0.90
6568.00,0.90
6567.00,0.90
6566.00,0.90
6565.00,0.90
6564.00,0.90
6563.00,0.90
6562.00,0.90
6561.00,0.90
6560.00,0.90
6559.00,0.90
6558.00,0.90
6557.00,0.90
6556.00,0.91
6555.00,0.91
6554.00,0.91
6553.00,0.91
6552.00,0.91
6551.00,0.91
6550.00,0.91
6549.00,0.91
6548.00,0.91
6547.00,0.91
6546.00,0.91
6545.00,0.91
6544.00,0.91
6543.00,0.91
6542.00,0.91
6541.00,0.91
6540.00,0.92
6539.00,0.92
6538.00,0.92
6537.00,0.92
6536.00,0.92
6535.00,0.92
6534.00,0.92
6533.00,0.92
6532.00,0.93
6531.00,0.93
6530.00,0.93
6529.00,0.93
6528.00,0.93
6527.00,0.93
6526.00,0.93
6525.00,0.93
6524.00,0.93
6523.00,0.93
6522.00,0.93
6521.00,0.93
6520.00,0.93
6519.00,0.93
6518.00,0.93
6517.00,0.93
6516.00,0.93
6515.00,0.93
6514.00,0.93
6513.00,0.94
6512.00,0.94
6511.00,0.94
6510.00,0.94
6509.00,0.94
6508.00,0.94
6507.00,0.94
6506.00,0.94
6505.00,0.94
6504.00,0.94
6503.00,0.94
6502.00,0.94
6501.00,0.94
6500.00,0.95
6499.00,0.95
6498.00,0.95
6497.00,0.95
6496.00,0.95
6495.00,0.95
6494.00,0.95
6493.00,0.95
6492.00,0.95
6491.00,0.95
6490.00,0.96
6489.00,0.96
6488.00,0.96
6487.00,0.96
6486.00,0.96
6485.00,0.96
6484.00,0.96
6483.00,0.96
6482.00,0.96
6481.00,0.96
6480.00,0.96
6479.00,0.96
6478.00,0.96
6477.00,0.96
6476.00,0.96
6475.00,0.96
6474.00,0.96
6473.00,0.96
6472.00,0.96
6471.00,0.96
6470.00,0.96
6469.00,0.97
6468.00,0.97
6467.00,0.97
6466.00,0.97
6465.00,0.97
6464.00,0.97
6463.00,0.97
6462.00,0.97
6461.00,0.97
6460.00,0.97
6459.00,0.97
6458.00,0.97
6457.00,0.97
6456.00,0.97
6455.00,0.97
6454.00,0.98
6453.00,0.98
6452.00,0.98
6451.00,0.98
6450.00,0.98
6449.00,0.98
6448.00,0.98
6447.00,0.98
6446.00,0.98
6445.00,0.98
6444.00,0.98
6443.00,0.98
6442.00,0.98
6441.00,0.98
6440.00,0.98
6439.00,0.98
6438.00,0.98
6437.00,0.98
6436.00,0.98
6435.00,0.98
6434.00,0.98
6433.00,0.98
6432.00,0.98
6431.00,0.98
6430.00,0.98
6429.00,0.98
6428.00,0.98
6427.00,0.98
6426.00,0.98
6425.00,0.98
6424.00,0.98
6423.00,0.99
6422.00,0.99
6421.00,0.99
6420.00,0.99
6419.00,0.99
6418.00,0.99
6417.00,0.99
6416.00,0.99
6415.00,0.99
6414.00,0.99
6413.00,0.99
6412.00,0.99
6411.00,0.99
6410.00,0.99
6409.00,0.99
6408.00,0.99
6407.00,0.99
6406.00,1.00
6405.00,1.00
6404.00,1.00
6403.00,1.00
6402.00,1.00
6401.00,1.00
6400.00,1.00
6399.00,1.00
6398.00,1.00
6397.00,1.00
6396.00,1.00
6395.00,1.00
6394.00,1.00
6393.00,1.00
6392.00,1.00
6391.00,1.00
6390.00,1.00
6389.00,1.00
6388.00,1.00
6387.00,1.00
6386.00,1.00
6385.00,1.00
6384.00,1.00
6383.00,1.00
6382.00,1.00
6381.00,1.01
6380.00,1.01
6379.00,1.01
6378.00,1.01
6377.00,1.01
6376.00,1.01
6375.00,1.01
6374.00,1.02
6373.00,1.02
6372.00,1.02
6371.00,1.02
6370.00,1.02
6369.00,1.02
6368.00,1.02
6367.00,1.02
6366.00,1.03
6365.00,1.03
6364.00,1.03
6363.00,1.03
6362.00,1.03
6361.00,1.03
6360.00,1.03
6359.00,1.03
6358.00,1.03
6357.00,1.03
6356.00,1.03
6355.00,1.03
6354.00,1.03
6353.00,1.03
6352.00,1.03
6351.00,1.03
6350.00,1.03
6349.00,1.03
6348.00,1.03
6347.00,1.04
6346.00,1.04
6345.00,1.04
6344.00,1.04
6343.00,1.04
6342.00,1.04
6341.00,1.04
6340.00,1.04
6339.00,1.04
6338.00,1.04
6337.00,1.04
6336.00,1.04
6335.00,1.04
6334.00,1.04
6333.00,1.05
6332.00,1.05
6331.00,1.05
6330.00,1.05
6329.00,1.05
6328.00,1.05
6327.00,1.05
6326.00,1.06
6325.00,1.06
6324.00,1.06
6323.00,1.06
6322.00,1.06
6321.00,1.06
6320.00,1.06
6319.00,1.06
6318.00,1.07
6317.00,1.07
6316.00,1.07
6315.00,1.07
6314.00,1.07
6313.00,1.07
6312.00,1.07
6311.00,1.07
6310.00,1.07
6309.00,1.07
6308.00,1.07
6307.00,1.07
6306.00,1.07
6305.00,1.07
6304.00,1.08
6303.00,1.08
6302.00,1.08
6301.00,1.08
6300.00,1.08
6299.00,1.08
6298.00,1.08
6297.00,1.08
6296.00,1.08
6295.00,1.08
6294.00,1.09
6293.00,1.09
6292.00,1.09
6291.00,1.09
6290.00,1.09
6289.00,1.09
6288.00,1.09
6287.00,1.09
6286.00,1.09
6285.00,1.10
6284.00,1.10
6283.00,1.10
6282.00,1.10
6281.00,1.10
6280.00,1.10
6279.00,1.10
6278.00,1.10
6277.00,1.10
6276.00,1.11
6275.00,1.11
6274.00,1.11
6273.00,1.11
6272.00,1.11
6271.00,1.11
6270.00,1.11
6269.00,1.11
6268.00,1.11
6267.00,1.11
6266.00,1.11
6265.00,1.11
6264.00,1.11
6263.00,1.12
6262.00,1.12
6261.00,1.12
6260.00,1.12
6259.00,1.12
6258.00,1.12
6257.00,1.12
6256.00,1.12
6255.00,1.12
6254.00,1.13
6253.00,1.13
6252.00,1.13
6251.00,1.13
6250.00,1.13
6249.00,1.13
6248.00,1.13
6247.00,1.13
6246.00,1.13
6245.00,1.13
6244.00,1.14
6243.00,1.14
6242.00,1.14
6241.00,1.14
6240.00,1.14
6239.00,1.14
6238.00,1.14
6237.00,1.14
6236.00,1.15
6235.00,1.15
6234.00,1.15
6233.00,1.15
6232.00,1.15
6231.00,1.15
6230.00,1.15
6229.00,1.16
6228.00,1.16
6227.00,1.16
6226.00,1.16
6225.00,1.16
6224.00,1.16
6223.00,1.16
6222.00,1.16
6221.00,1.16
6220.00,1.17
6219.00,1.17
6218.00,1.17
6217.00,1.17
6216.00,1.17
6215.00,1.17
6214.00,1.17
6213.00,1.17
6212.00,1.17
6211.00,1.18
6210.00,1.18
6209.00,1.18
6208.00,1.18
6207.00,1.18
6206.00,1.18
6205.00,1.18
6204.00,1.18
6203.00,1.18
6202.00,1.19
6201.00,1.19
6200.00,1.19
6199.00,1.19
6198.00,1.19
6197.00,1.19
6196.00,1.19
6195.00,1.19
6194.00,1.20
6193.00,1.20
6192.00,1.20
6191.00,1.20
6190.00,1.20
6189.00,1.20
6188.00,1.20
6187.00,1.20
6186.00,1.21
6185.00,1.21
6184.00,1.21
6183.00,1.21
6182.00,1.21
6181.00,1.21
6180.00,1.21
6179.00,1.21
6178.00,1.22
6177.00,1.22
6176.00,1.22
6175.00,1.22
6174.00,1.22
6173.00,1.22
6172.00,1.22
6171.00,1.22
6170.00,1.23
6169.00,1.23
6168.00,1.23
6167.00,1.23
6166.00,1.23
6165.00,1.23
6164.00,1.23
6163.00,1.24
6162.00,1.24
6161.00,1.24
6160.00,1.24
6159.00,1.24
6158.00,1.24
6157.00,1.24
6156.00,1.25
6155.00,1.25
6154.00,1.25
6153.00,1.25
6152.00,1.25
6151.00,1.25
6150.00,1.25
6149.00,1.26
6148.00,1.26
6147.00,1.26
6146.00,1.26
6145.00,1.26
6144.00,1.26
6143.00,1.26
6142.00,1.26
6141.00,1.26
6140.00,1.26
6139.00,1.26
6138.00,1.27
6137.00,1.27
6136.00,1.27
6135.00,1.27
6134.00,1.27
6133.00,1.27
6132.00,1.27
6131.00,1.27
6130.00,1.28
6129.00,1.28
6128.00,1.28
6127.00,1.28
6126.00,1.28
6125.00,1.28
6124.00,1.29
6123.00,1.29
6122.00,1.29
6121.00,1.29
6120.00,1.29
6119.00,1.29
6118.00,1.29
6117.00,1.30
6116.00,1.30
6115.00,1.30
6114.00,1.30
6113.00,1.30
6112.00,1.30
6111.00,1.30
6110.00,1.30
6109.00,1.31
6108.00,1.31
6107.00,1.31
6106.00,1.31
6105.00,1.31
6104.00,1.31
6103.00,1.31
6102.00,1.32
6101.00,1.32
6100.00,1.32
6099.00,1.32
6098.00,1.32
6097.00,1.32
6096.00,1.32
6095.00,1.33
6094.00,1.33
6093.00,1.33
6092.00,1.33
6091.00,1.33
6090.00,1.33
6089.00,1.34
6088.00,1.34
6087.00,1.34
6086.00,1.34
6085.00,1.34
6084.00,1.34
6083.00,1.35
6082.00,1.35
6081.00,1.35
6080.00,1.35
6079.00,1.35
6078.00,1.35
6077.00,1.35
6076.00,1.35
6075.00,1.35
6074.00,1.35
6073.00,1.36
6072.00,1.36
6071.00,1.36
6070.00,1.36
6069.00,1.36
6068.00,1.36
6067.00,1.36
6066.00,1.36
6065.00,1.36
6064.00,1.36
6063.00,1.36
6062.00,1.36
6061.00,1.36
6060.00,1.37
6059.00,1.37
6058.00,1.37
6057.00,1.37
6056.00,1.37
6055.00,1.37
6054.00,1.37
6053.00,1.37
6052.00,1.37
6051.00,1.37
6050.00,1.38
6049.00,1.38
6048.00,1.38
6047.00,1.38
6046.00,1.38
6045.00,1.38
6044.00,1.38
6043.00,1.38
6042.00,1.38
6041.00,1.38
6040.00,1.38
6039.00,1.38
6038.00,1.39
6037.00,1.39
6036.00,1.39
6035.00,1.39
6034.00,1.39
6033.00,1.39
6032.00,1.39
6031.00,1.39
6030.00,1.39
6029.00,1.39
6028.00,1.39
6027.00,1.39
6026.00,1.39
6025.00,1.39
6024.00,1.39
6023.00,1.39
6022.00,1.39
6021.00,1.39
6020.00,1.39
6019.00,1.39
6018.00,1.39
6017.00,1.39
6016.00,1.39
6015.00,1.39
6014.00,1.39
6013.00,1.39
6012.00,1.39
6011.00,1.39
6010.00,1.39
6009.00,1.39
6008.00,1.39
6007.00,1.38
6006.00,1.38
6005.00,1.38
6004.00,1.38
6003.00,1.38
6002.00,1.38
6001.00,1.38
6000.00,1.38
5999.00,1.38
5998.00,1.38
5997.00,1.38
5996.00,1.38
5995.00,1.38
5994.00,1.38
5993.00,1.37
5992.00,1.37
5991.00,1.37
5990.00,1.37
5989.00,1.37
5988.00,1.37
5987.00,1.36
5986.00,1.36
5985.00,1.36
5984.00,1.36
5983.00,1.35
5982.00,1.35
5981.00,1.35
5980.00,1.35
5979.00,1.34
5978.00,1.34
5977.00,1.33
5976.00,1.33
5975.00,1.33
5974.00,1.32
5973.00,1.32
5972.00,1.31
5971.00,1.31
5970.00,1.30
5969.00,1.30
5968.00,1.29
5967.00,1.29
5966.00,1.28
5965.00,1.28
5964.00,1.27
5963.00,1.26
5962.00,1.26
5961.00,1.25
5960.00,1.25
5959.00,1.24
5958.00,1.23
5957.00,1.23
5956.00,1.22
5955.00,1.21
5954.00,1.21
5953.00,1.20
5952.00,1.20
5951.00,1.19
5950.00,1.19
5949.00,1.18
5948.00,1.18
5947.00,1.17
5946.00,1.17
5945.00,1.17
5944.00,1.16
5943.00,1.16
5942.00,1.16
5941.00,1.16
5940.00,1.16
5939.00,1.15
5938.00,1.15
5937.00,1.15
5936.00,1.15
5935.00,1.15
5934.00,1.15
5933.00,1.15
5932.00,1.15
5931.00,1.15
5930.00,1.14
5929.00,1.14
5928.00,1.14
5927.00,1.14
5926.00,1.14
5925.00,1.14
5924.00,1.14
5923.00,1.13
5922.00,1.13
5921.00,1.13
5920.00,1.13
5919.00,1.13
5918.00,1.12
5917.00,1.12
5916.00,1.12
5915.00,1.12
5914.00,1.12
5913.00,1.11
5912.00,1.11
5911.00,1.11
5910.00,1.11
5909.00,1.11
5908.00,1.10
5907.00,1.10
5906.00,1.10
5905.00,1.10
5904.00,1.10
5903.00,1.10
5902.00,1.10
5901.00,1.10
5900.00,1.10
5899.00,1.10
5898.00,1.10
5897.00,1.10
5896.00,1.10
5895.00,1.10
5894.00,1.10
5893.00,1.10
5892.00,1.11
5891.00,1.11
5890.00,1.11
5889.00,1.11
5888.00,1.12
5887.00,1.12
5886.00,1.12
5885.00,1.12
5884.00,1.13
5883.00,1.13
5882.00,1.13
5881.00,1.13
5880.00,1.14
5879.00,1.14
5878.00,1.14
5877.00,1.14
5876.00,1.15
5875.00,1.15
5874.00,1.15
5873.00,1.15
5872.00,1.16
5871.00,1.16
5870.00,1.16
5869.00,1.16
5868.00,1.16
5867.00,1.16
5866.00,1.17
5865.00,1.17
5864.00,1.17
5863.00,1.17
5862.00,1.17
5861.00,1.17
5860.00,1.18
5859.00,1.18
5858.00,1.18
5857.00,1.18
5856.00,1.18
5855.00,1.18
5854.00,1.18
5853.00,1.19
5852.00,1.19
5851.00,1.19
5850.00,1.19
5849.00,1.19
5848.00,1.19
5847.00,1.19
5846.00,1.19
5845.00,1.19
5844.00,1.19
5843.00,1.19
5842.00,1.19
5841.00,1.19
5840.00,1.19
5839.00,1.19
5838.00,1.19
5837.00,1.19
5836.00,1.18
5835.00,1.18
5834.00,1.18
5833.00,1.18
5832.00,1.18
5831.00,1.18
5830.00,1.18
5829.00,1.18
5828.00,1.18
5827.00,1.18
5826.00,1.18
5825.00,1.18
5824.00,1.18
5823.00,1.18
5822.00,1.18
5821.00,1.18
5820.00,1.18
5819.00,1.18
5818.00,1.18
5817.00,1.18
5816.00,1.18
5815.00,1.18
5814.00,1.18
5813.00,1.18
5812.00,1.18
5811.00,1.18
5810.00,1.18
5809.00,1.18
5808.00,1.18
5807.00,1.18
5806.00,1.18
5805.00,1.18
5804.00,1.18
5803.00,1.18
5802.00,1.18
5801.00,1.18
5800.00,1.18
5799.00,1.18
5798.00,1.18
5797.00,1.18
5796.00,1.18
5795.00,1.18
5794.00,1.17
5793.00,1.17
5792.00,1.17
5791.00,1.17
5790.00,1.17
5789.00,1.17
5788.00,1.16
5787.00,1.16
5786.00,1.16
5785.00,1.16
5784.00,1.16
5783.00,1.16
5782.00,1.15
5781.00,1.15
5780.00,1.15
5779.00,1.15
5778.00,1.15
5777.00,1.15
5776.00,1.15
5775.00,1.15
5774.00,1.14
5773.00,1.14
5772.00,1.14
5771.00,1.14
5770.00,1.14
5769.00,1.15
5768.00,1.15
5767.00,1.15
5766.00,1.15
5765.00,1.15
5764.00,1.15
5763.00,1.15
5762.00,1.16
5761.00,1.16
5760.00,1.16
5759.00,1.16
5758.00,1.17
5757.00,1.17
5756.00,1.17
5755.00,1.18
5754.00,1.18
5753.00,1.18
5752.00,1.18
5751.00,1.19
5750.00,1.19
5749.00,1.19
5748.00,1.20
5747.00,1.20
5746.00,1.20
5745.00,1.21
5744.00,1.21
5743.00,1.21
5742.00,1.21
5741.00,1.21
5740.00,1.22
5739.00,1.22
5738.00,1.22
5737.00,1.22
5736.00,1.22
5735.00,1.23
5734.00,1.23
5733.00,1.23
5732.00,1.23
5731.00,1.23
5730.00,1.23
5729.00,1.23
5728.00,1.23
5727.00,1.24
5726.00,1.24
5725.00,1.24
5724.00,1.24
5723.00,1.24
5722.00,1.24
5721.00,1.24
5720.00,1.24
5719.00,1.24
5718.00,1.24
5717.00,1.24
5716.00,1.24
5715.00,1.24
5714.00,1.24
5713.00,1.24
5712.00,1.24
5711.00,1.24
5710.00,1.24
5709.00,1.24
5708.00,1.24
5707.00,1.24
5706.00,1.24
5705.00,1.24
5704.00,1.24
5703.00,1.24
5702.00,1.24
5701.00,1.24
5700.00,1.24
5699.00,1.24
5698.00,1.23
5697.00,1.23
5696.00,1.23
5695.00,1.23
5694.00,1.23
5693.00,1.23
5692.00,1.23
5691.00,1.23
5690.00,1.22
5689.00,1.22
5688.00,1.22
5687.00,1.22
5686.00,1.22
5685.00,1.22
5684.00,1.22
5683.00,1.22
5682.00,1.21
5681.00,1.21
5680.00,1.21
5679.00,1.21
5678.00,1.21
5677.00,1.21
5676.00,1.21
5675.00,1.21
5674.00,1.21
5673.00,1.21
5672.00,1.21
5671.00,1.21
5670.00,1.21
5669.00,1.21
5668.00,1.21
5667.00,1.21
5666.00,1.22
5665.00,1.22
5664.00,1.22
5663.00,1.22
5662.00,1.22
5661.00,1.22
5660.00,1.22
5659.00,1.22
5658.00,1.22
5657.00,1.23
5656.00,1.23
5655.00,1.23
5654.00,1.23
5653.00,1.23
5652.00,1.23
5651.00,1.23
5650.00,1.24
5649.00,1.24
5648.00,1.24
5647.00,1.24
5646.00,1.24
5645.00,1.24
5644.00,1.24
5643.00,1.25
5642.00,1.25
5641.00,1.25
5640.00,1.25
5639.00,1.25
5638.00,1.25
5637.00,1.25
5636.00,1.26
5635.00,1.26
5634.00,1.26
5633.00,1.26
5632.00,1.26
5631.00,1.26
5630.00,1.27
5629.00,1.27
5628.00,1.27
5627.00,1.27
5626.00,1.27
5625.00,1.27
5624.00,1.27
5623.00,1.27
5622.00,1.28
5621.00,1.28
5620.00,1.28
5619.00,1.28
5618.00,1.28
5617.00,1.28
5616.00,1.28
5615.00,1.29
5614.00,1.29
5613.00,1.29
5612.00,1.29
5611.00,1.29
5610.00,1.29
5609.00,1.30
5608.00,1.30
5607.00,1.30
5606.00,1.30
5605.00,1.30
5604.00,1.30
5603.00,1.30
5602.00,1.31
5601.00,1.31
5600.00,1.31
5599.00,1.31
5598.00,1.31
5597.00,1.31
5596.00,1.32
5595.00,1.32
5594.00,1.32
5593.00,1.32
5592.00,1.32
5591.00,1.32
5590.00,1.32
5589.00,1.33
5588.00,1.33
5587.00,1.33
5586.00,1.33
5585.00,1.33
5584.00,1.33
5583.00,1.33
5582.00,1.34
5581.00,1.34
5580.00,1.34
5579.00,1.34
5578.00,1.34
5577.00,1.34
5576.00,1.34
5575.00,1.34
5574.00,1.35
5573.00,1.35
5572.00,1.35
5571.00,1.35
5570.00,1.35
5569.00,1.35
5568.00,1.35
5567.00,1.35
5566.00,1.35
5565.00,1.36
5564.00,1.36
5563.00,1.36
5562.00,1.36
5561.00,1.36
5560.00,1.36
5559.00,1.36
5558.00,1.36
5557.00,1.36
5556.00,1.36
5555.00,1.36
5554.00,1.36
5553.00,1.37
5552.00,1.37
5551.00,1.37
5550.00,1.37
5549.00,1.37
5548.00,1.37
5547.00,1.37
5546.00,1.38
5545.00,1.38
5544.00,1.38
5543.00,1.38
5542.00,1.38
5541.00,1.38
5540.00,1.39
5539.00,1.39
5538.00,1.39
5537.00,1.39
5536.00,1.39
5535.00,1.39
5534.00,1.39
5533.00,1.39
5532.00,1.39
5531.00,1.39
5530.00,1.39
5529.00,1.40
5528.00,1.40
5527.00,1.40
5526.00,1.40
5525.00,1.40
5524.00,1.40
5523.00,1.40
5522.00,1.40
5521.00,1.40
5520.00,1.40
5519.00,1.40
5518.00,1.40
5517.00,1.40
5516.00,1.40
5515.00,1.40
5514.00,1.40
5513.00,1.40
5512.00,1.40
5511.00,1.40
5510.00,1.40
5509.00,1.41
5508.00,1.41
5507.00,1.41
5506.00,1.41
5505.00,1.41
5504.00,1.41
5503.00,1.41
5502.00,1.41
5501.00,1.41
5500.00,1.41
5499.00,1.41
5498.00,1.41
5497.00,1.41
5496.00,1.41
5495.00,1.41
5494.00,1.41
5493.00,1.41
5492.00,1.41
5491.00,1.41
5490.00,1.41
5489.00,1.41
5488.00,1.41
5487.00,1.41
5486.00,1.42
5485.00,1.42
5484.00,1.42
5483.00,1.42
5482.00,1.42
5481.00,1.42
5480.00,1.42
5479.00,1.42
5478.00,1.42
5477.00,1.42
5476.00,1.43
5475.00,1.43
5474.00,1.43
5473.00,1.43
5472.00,1.43
5471.00,1.43
5470.00,1.43
5469.00,1.43
5468.00,1.43
5467.00,1.44
5466.00,1.44
5465.00,1.44
5464.00,1.44
5463.00,1.44
5462.00,1.44
5461.00,1.44
5460.00,1.44
5459.00,1.44
5458.00,1.44
5457.00,1.44
5456.00,1.44
5455.00,1.44
5454.00,1.44
5453.00,1.44
5452.00,1.44
5451.00,1.44
5450.00,1.44
5449.00,1.44
5448.00,1.44
5447.00,1.44
5446.00,1.44
5445.00,1.44
5444.00,1.44
5443.00,1.44
5442.00,1.44
5441.00,1.44
5440.00,1.44
5439.00,1.44
5438.00,1.44
5437.00,1.44
5436.00,1.45
5435.00,1.45
5434.00,1.45
5433.00,1.45
5432.00,1.45
5431.00,1.45
5430.00,1.45
5429.00,1.45
5428.00,1.45
5427.00,1.45
5426.00,1.45
5425.00,1.45
5424.00,1.45
5423.00,1.45
5422.00,1.45
5421.00,1.45
5420.00,1.45
5419.00,1.45
5418.00,1.45
5417.00,1.45
5416.00,1.45
5415.00,1.45
5414.00,1.45
5413.00,1.45
5412.00,1.45
5411.00,1.45
5410.00,1.45
5409.00,1.45
5408.00,1.45
5407.00,1.45
5406.00,1.45
5405.00,1.45
5404.00,1.45
5403.00,1.45
5402.00,1.45
5401.00,1.45
5400.00,1.45
5399.00,1.45
5398.00,1.45
5397.00,1.45
5396.00,1.44
5395.00,1.44
5394.00,1.44
5393.00,1.44
5392.00,1.44
5391.00,1.44
5390.00,1.43
5389.00,1.43
5388.00,1.43
5387.00,1.43
5386.00,1.42
5385.00,1.42
5384.00,1.42
5383.00,1.42
5382.00,1.41
5381.00,1.41
5380.00,1.41
5379.00,1.41
5378.00,1.40
5377.00,1.40
5376.00,1.40
5375.00,1.39
5374.00,1.39
5373.00,1.39
5372.00,1.38
5371.00,1.38
5370.00,1.38
5369.00,1.37
5368.00,1.37
5367.00,1.36
5366.00,1.36
5365.00,1.35
5364.00,1.35
5363.00,1.34
5362.00,1.34
5361.00,1.33
5360.00,1.32
5359.00,1.32
5358.00,1.31
5357.00,1.30
5356.00,1.30
5355.00,1.29
5354.00,1.28
5353.00,1.27
5352.00,1.26
5351.00,1.26
5350.00,1.25
5349.00,1.24
5348.00,1.23
5347.00,1.22
5346.00,1.21
5345.00,1.20
5344.00,1.20
5343.00,1.19
5342.00,1.18
5341.00,1.17
5340.00,1.16
5339.00,1.15
5338.00,1.15
5337.00,1.14
5336.00,1.13
5335.00,1.12
5334.00,1.12
5333.00,1.11
5332.00,1.10
5331.00,1.10
5330.00,1.09
5329.00,1.08
5328.00,1.07
5327.00,1.07
5326.00,1.06
5325.00,1.05
5324.00,1.05
5323.00,1.04
5322.00,1.03
5321.00,1.02
5320.00,1.02
5319.00,1.01
5318.00,1.00
5317.00,1.00
5316.00,0.99
5315.00,0.98
5314.00,0.98
5313.00,0.97
5312.00,0.97
5311.00,0.96
5310.00,0.95
5309.00,0.95
5308.00,0.94
5307.00,0.94
5306.00,0.93
5305.00,0.93
5304.00,0.93
5303.00,0.92
5302.00,0.92
5301.00,0.91
5300.00,0.91
5299.00,0.91
5298.00,0.91
5297.00,0.90
5296.00,0.90
5295.00,0.90
5294.00,0.90
5293.00,0.89
5292.00,0.89
5291.00,0.89
5290.00,0.89
5289.00,0.89
5288.00,0.89
5287.00,0.88
5286.00,0.88
5285.00,0.88
5284.00,0.88
5283.00,0.88
5282.00,0.88
5281.00,0.88
5280.00,0.88
5279.00,0.88
5278.00,0.88
5277.00,0.88
5276.00,0.87
5275.00,0.87
5274.00,0.87
5273.00,0.87
5272.00,0.87
5271.00,0.87
5270.00,0.87
5269.00,0.87
5268.00,0.87
5267.00,0.87
5266.00,0.87
5265.00,0.87
5264.00,0.87
5263.00,0.87
5262.00,0.87
5261.00,0.87
5260.00,0.87
5259.00,0.87
5258.00,0.87
5257.00,0.87
5256.00,0.87
5255.00,0.87
5254.00,0.87
5253.00,0.87
5252.00,0.87
5251.00,0.87
5250.00,0.87
5249.00,0.87
5248.00,0.87
5247.00,0.87
5246.00,0.87
5245.00,0.87
5244.00,0.87
5243.00,0.87
5242.00,0.87
5241.00,0.87
5240.00,0.87
5239.00,0.87
5238.00,0.87
5237.00,0.87
5236.00,0.87
5235.00,0.87
5234.00,0.87
5233.00,0.87
5232.00,0.87
5231.00,0.87
5230.00,0.87
5229.00,0.87
5228.00,0.87
5227.00,0.87
5226.00,0.87
5225.00,0.87
5224.00,0.87
5223.00,0.87
5222.00,0.87
5221.00,0.87
5220.00,0.87
5219.00,0.87
5218.00,0.87
5217.00,0.88
5216.00,0.88
5215.00,0.88
5214.00,0.88
5213.00,0.88
5212.00,0.88
5211.00,0.88
5210.00,0.88
5209.00,0.88
5208.00,0.88
5207.00,0.88
5206.00,0.88
5205.00,0.88
5204.00,0.89
5203.00,0.89
5202.00,0.89
5201.00,0.89
5200.00,0.89
5199.00,0.89
5198.00,0.89
5197.00,0.89
5196.00,0.89
5195.00,0.89
5194.00,0.89
5193.00,0.89
5192.00,0.89
5191.00,0.89
5190.00,0.89
5189.00,0.89
5188.00,0.89
5187.00,0.89
5186.00,0.89
5185.00,0.89
5184.00,0.89
5183.00,0.89
5182.00,0.89
5181.00,0.89
5180.00,0.89
5179.00,0.90
5178.00,0.90
5177.00,0.90
5176.00,0.90
5175.00,0.90
5174.00,0.90
5173.00,0.90
5172.00,0.90
5171.00,0.90
5170.00,0.90
5169.00,0.90
5168.00,0.90
5167.00,0.90
5166.00,0.90
5165.00,0.90
5164.00,0.90
5163.00,0.90
5162.00,0.90
5161.00,0.90
5160.00,0.90
5159.00,0.90
5158.00,0.90
5157.00,0.90
5156.00,0.90
5155.00,0.90
5154.00,0.90
5153.00,0.90
5152.00,0.90
5151.00,0.91
5150.00,0.91
5149.00,0.91
5148.00,0.91
5147.00,0.91
5146.00,0.91
5145.00,0.91
5144.00,0.91
5143.00,0.91
5142.00,0.91
5141.00,0.91
5140.00,0.91
5139.00,0.91
5138.00,0.91
5137.00,0.91
5136.00,0.91
5135.00,0.91
5134.00,0.92
5133.00,0.92
5132.00,0.92
5131.00,0.92
5130.00,0.92
5129.00,0.92
5128.00,0.92
5127.00,0.92
5126.00,0.92
5125.00,0.92
5124.00,0.92
5123.00,0.92
5122.00,0.92
5121.00,0.92
5120.00,0.92
5119.00,0.92
5118.00,0.92
5117.00,0.92
5116.00,0.93
5115.00,0.93
5114.00,0.93
5113.00,0.93
5112.00,0.93
5111.00,0.93
5110.00,0.93
5109.00,0.93
5108.00,0.93
5107.00,0.93
5106.00,0.93
5105.00,0.93
5104.00,0.93
5103.00,0.93
5102.00,0.93
5101.00,0.93
5100.00,0.93
5099.00,0.94
5098.00,0.94
5097.00,0.94
5096.00,0.94
5095.00,0.94
5094.00,0.94
5093.00,0.94
5092.00,0.94
5091.00,0.94
5090.00,0.94
5089.00,0.94
5088.00,0.94
5087.00,0.94
5086.00,0.95
5085.00,0.95
5084.00,0.95
5083.00,0.95
5082.00,0.95
5081.00,0.95
5080.00,0.95
5079.00,0.95
5078.00,0.95
5077.00,0.95
5076.00,0.95
5075.00,0.95
5074.00,0.95
5073.00,0.95
5072.00,0.95
5071.00,0.95
5070.00,0.95
5069.00,0.95
5068.00,0.95
5067.00,0.95
5066.00,0.95
5065.00,0.95
5064.00,0.95
5063.00,0.95
5062.00,0.95
5061.00,0.95
5060.00,0.95
5059.00,0.95
5058.00,0.95
5057.00,0.95
5056.00,0.95
5055.00,0.95
5054.00,0.95
5053.00,0.95
5052.00,0.96
5051.00,0.96
5050.00,0.96
5049.00,0.96
5048.00,0.96
5047.00,0.96
5046.00,0.96
5045.00,0.96
5044.00,0.96
5043.00,0.96
5042.00,0.96
5041.00,0.96
5040.00,0.96
5039.00,0.97
5038.00,0.97
5037.00,0.97
5036.00,0.97
5035.00,0.97
5034.00,0.97
5033.00,0.97
5032.00,0.97
5031.00,0.97
5030.00,0.97
5029.00,0.97
5028.00,0.97
5027.00,0.97
5026.00,0.97
5025.00,0.97
5024.00,0.97
5023.00,0.97
5022.00,0.97
5021.00,0.97
5020.00,0.98
5019.00,0.98
5018.00,0.98
5017.00,0.98
5016.00,0.98
5015.00,0.98
5014.00,0.98
5013.00,0.98
5012.00,0.98
5011.00,0.98
5010.00,0.98
5009.00,0.98
5008.00,0.98
5007.00,0.98
5006.00,0.98
5005.00,0.98
5004.00,0.98
5003.00,0.98
5002.00,0.98
5001.00,0.99
5000.00,0.99
4999.00,0.99
4998.00,0.99
4997.00,0.99
4996.00,0.99
4995.00,0.99
4994.00,0.99
4993.00,0.99
4992.00,0.99
4991.00,0.99
4990.00,0.99
4989.00,0.99
4988.00,0.99
4987.00,0.99
4986.00,0.99
4985.00,0.99
4984.00,1.00
4983.00,1.00
4982.00,1.00
4981.00,1.00
4980.00,1.00
4979.00,1.00
4978.00,1.00
4977.00,1.00
4976.00,1.00
4975.00,1.00
4974.00,1.00
4973.00,1.00
4972.00,1.00
4971.00,1.00
4970.00,1.00
4969.00,1.00
4968.00,1.01
4967.00,1.01
4966.00,1.01
4965.00,1.01
4964.00,1.01
4963.00,1.01
4962.00,1.01
4961.00,1.01
4960.00,1.01
4959.00,1.01
4958.00,1.01
4957.00,1.01
4956.00,1.01
4955.00,1.01
4954.00,1.02
4953.00,1.02
4952.00,1.02
4951.00,1.02
4950.00,1.02
4949.00,1.02
4948.00,1.02
4947.00,1.02
4946.00,1.02
4945.00,1.02
4944.00,1.03
4943.00,1.03
4942.00,1.03
4941.00,1.03
4940.00,1.03
4939.00,1.03
4938.00,1.03
4937.00,1.03
4936.00,1.03
4935.00,1.03
4934.00,1.03
4933.00,1.03
4932.00,1.03
4931.00,1.03
4930.00,1.03
4929.00,1.04
4928.00,1.04
4927.00,1.04
4926.00,1.04
4925.00,1.04
4924.00,1.04
4923.00,1.04
4922.00,1.04
4921.00,1.04
4920.00,1.04
4919.00,1.04
4918.00,1.04
4917.00,1.04
4916.00,1.04
4915.00,1.04
4914.00,1.04
4913.00,1.04
4912.00,1.04
4911.00,1.04
4910.00,1.04
4909.00,1.04
4908.00,1.04
4907.00,1.04
4906.00,1.05
4905.00,1.05
4904.00,1.05
4903.00,1.05
4902.00,1.05
4901.00,1.05
4900.00,1.05
4899.00,1.05
4898.00,1.05
4897.00,1.05
4896.00,1.05
4895.00,1.05
4894.00,1.05
4893.00,1.05
4892.00,1.05
4891.00,1.05
4890.00,1.05
4889.00,1.05
4888.00,1.05
4887.00,1.05
4886.00,1.05
4885.00,1.05
4884.00,1.05
4883.00,1.05
4882.00,1.05
4881.00,1.05
4880.00,1.06
4879.00,1.06
4878.00,1.06
4877.00,1.06
4876.00,1.06
4875.00,1.06
4874.00,1.06
4873.00,1.06
4872.00,1.06
4871.00,1.06
4870.00,1.06
4869.00,1.06
4868.00,1.06
4867.00,1.06
4866.00,1.06
4865.00,1.06
4864.00,1.06
4863.00,1.06
4862.00,1.06
4861.00,1.07
4860.00,1.07
4859.00,1.07
4858.00,1.07
4857.00,1.07
4856.00,1.07
4855.00,1.07
4854.00,1.07
4853.00,1.07
4852.00,1.07
4851.00,1.07
4850.00,1.08
4849.00,1.08
4848.00,1.08
4847.00,1.08
4846.00,1.08
4845.00,1.08
4844.00,1.08
4843.00,1.08
4842.00,1.08
4841.00,1.08
4840.00,1.08
4839.00,1.08
4838.00,1.08
4837.00,1.08
4836.00,1.08
4835.00,1.08
4834.00,1.08
4833.00,1.08
4832.00,1.08
4831.00,1.08
4830.00,1.08
4829.00,1.09
4828.00,1.09
4827.00,1.09
4826.00,1.09
4825.00,1.09
4824.00,1.09
4823.00,1.09
4822.00,1.09
4821.00,1.09
4820.00,1.09
4819.00,1.09
4818.00,1.09
4817.00,1.09
4816.00,1.09
4815.00,1.09
4814.00,1.09
4813.00,1.09
4812.00,1.09
4811.00,1.09
4810.00,1.09
4809.00,1.09
4808.00,1.09
4807.00,1.09
4806.00,1.09
4805.00,1.10
4804.00,1.10
4803.00,1.10
4802.00,1.10
4801.00,1.10
4800.00,1.10
4799.00,1.10
4798.00,1.10
4797.00,1.10
4796.00,1.10
4795.00,1.10
4794.00,1.10
4793.00,1.11
4792.00,1.11
4791.00,1.11
4790.00,1.11
4789.00,1.11
4788.00,1.11
4787.00,1.11
4786.00,1.12
4785.00,1.12
4784.00,1.12
4783.00,1.12
4782.00,1.12
4781.00,1.12
4780.00,1.12
4779.00,1.13
4778.00,1.13
4777.00,1.13
4776.00,1.13
4775.00,1.13
4774.00,1.13
4773.00,1.13
4772.00,1.13
4771.00,1.13
4770.00,1.13
4769.00,1.13
4768.00,1.13
4767.00,1.13
4766.00,1.13
4765.00,1.13
4764.00,1.13
4763.00,1.13
4762.00,1.13
4761.00,1.13
4760.00,1.14
4759.00,1.14
4758.00,1.14
4757.00,1.14
4756.00,1.14
4755.00,1.14
4754.00,1.14
4753.00,1.14
4752.00,1.14
4751.00,1.14
4750.00,1.15
4749.00,1.15
4748.00,1.15
4747.00,1.15
4746.00,1.15
4745.00,1.15
4744.00,1.15
4743.00,1.15
4742.00,1.16
4741.00,1.16
4740.00,1.16
4739.00,1.16
4738.00,1.16
4737.00,1.16
4736.00,1.16
4735.00,1.16
4734.00,1.16
4733.00,1.17
4732.00,1.17
4731.00,1.17
4730.00,1.17
4729.00,1.17
4728.00,1.17
4727.00,1.17
4726.00,1.17
4725.00,1.17
4724.00,1.17
4723.00,1.18
4722.00,1.18
4721.00,1.18
4720.00,1.18
4719.00,1.18
4718.00,1.18
4717.00,1.18
4716.00,1.18
4715.00,1.19
4714.00,1.19
4713.00,1.19
4712.00,1.19
4711.00,1.19
4710.00,1.19
4709.00,1.19
4708.00,1.19
4707.00,1.20
4706.00,1.20
4705.00,1.20
4704.00,1.20
4703.00,1.20
4702.00,1.20
4701.00,1.20
4700.00,1.20
4699.00,1.20
4698.00,1.20
4697.00,1.20
4696.00,1.20
4695.00,1.21
4694.00,1.21
4693.00,1.21
4692.00,1.21
4691.00,1.21
4690.00,1.21
4689.00,1.21
4688.00,1.21
4687.00,1.21
4686.00,1.22
4685.00,1.22
4684.00,1.22
4683.00,1.22
4682.00,1.22
4681.00,1.22
4680.00,1.23
4679.00,1.23
4678.00,1.23
4677.00,1.23
4676.00,1.23
4675.00,1.23
4674.00,1.23
4673.00,1.24
4672.00,1.24
4671.00,1.24
4670.00,1.24
4669.00,1.24
4668.00,1.24
4667.00,1.24
4666.00,1.24
4665.00,1.25
4664.00,1.25
4663.00,1.25
4662.00,1.25
4661.00,1.25
4660.00,1.25
4659.00,1.25
4658.00,1.25
4657.00,1.25
4656.00,1.25
4655.00,1.25
4654.00,1.25
4653.00,1.25
4652.00,1.25
4651.00,1.25
4650.00,1.25
4649.00,1.25
4648.00,1.25
4647.00,1.25
4646.00,1.25
4645.00,1.25
4644.00,1.26
4643.00,1.26
4642.00,1.26
4641.00,1.26
4640.00,1.26
4639.00,1.26
4638.00,1.26
4637.00,1.26
4636.00,1.26
4635.00,1.26
4634.00,1.26
4633.00,1.26
4632.00,1.27
4631.00,1.27
4630.00,1.27
4629.00,1.27
4628.00,1.27
4627.00,1.27
4626.00,1.27
4625.00,1.27
4624.00,1.27
4623.00,1.27
4622.00,1.28
4621.00,1.28
4620.00,1.28
4619.00,1.28
4618.00,1.28
4617.00,1.28
4616.00,1.28
4615.00,1.28
4614.00,1.28
4613.00,1.28
4612.00,1.28
4611.00,1.28
4610.00,1.28
4609.00,1.28
4608.00,1.28
4607.00,1.28
4606.00,1.28
4605.00,1.28
4604.00,1.28
4603.00,1.28
4602.00,1.28
4601.00,1.28
4600.00,1.29
4599.00,1.29
4598.00,1.29
4597.00,1.29
4596.00,1.29
4595.00,1.29
4594.00,1.29
4593.00,1.29
4592.00,1.29
4591.00,1.29
4590.00,1.29
4589.00,1.29
4588.00,1.29
4587.00,1.29
4586.00,1.29
4585.00,1.29
4584.00,1.29
4583.00,1.30
4582.00,1.30
4581.00,1.30
4580.00,1.30
4579.00,1.30
4578.00,1.30
4577.00,1.30
4576.00,1.30
4575.00,1.31
4574.00,1.31
4573.00,1.31
4572.00,1.31
4571.00,1.31
4570.00,1.31
4569.00,1.32
4568.00,1.32
4567.00,1.32
4566.00,1.32
4565.00,1.32
4564.00,1.32
4563.00,1.32
4562.00,1.32
4561.00,1.32
4560.00,1.32
4559.00,1.32
4558.00,1.32
4557.00,1.32
4556.00,1.32
4555.00,1.33
4554.00,1.33
4553.00,1.33
4552.00,1.33
4551.00,1.33
4550.00,1.33
4549.00,1.33
4548.00,1.33
4547.00,1.33
4546.00,1.33
4545.00,1.33
4544.00,1.33
4543.00,1.33
4542.00,1.33
4541.00,1.33
4540.00,1.33
4539.00,1.33
4538.00,1.33
4537.00,1.33
4536.00,1.33
4535.00,1.33
4534.00,1.33
4533.00,1.34
4532.00,1.34
4531.00,1.34
4530.00,1.34
4529.00,1.34
4528.00,1.34
4527.00,1.34
4526.00,1.34
4525.00,1.34
4524.00,1.34
4523.00,1.34
4522.00,1.34
4521.00,1.34
4520.00,1.34
4519.00,1.34
4518.00,1.34
4517.00,1.34
4516.00,1.34
4515.00,1.34
4514.00,1.34
4513.00,1.34
4512.00,1.34
4511.00,1.34
4510.00,1.34
4509.00,1.34
4508.00,1.34
4507.00,1.34
4506.00,1.33
4505.00,1.33
4504.00,1.33
4503.00,1.33
4502.00,1.33
4501.00,1.33
4500.00,1.33
4499.00,1.33
4498.00,1.33
4497.00,1.33
4496.00,1.33
4495.00,1.33
4494.00,1.33
4493.00,1.33
4492.00,1.33
4491.00,1.33
4490.00,1.33
4489.00,1.33
4488.00,1.33
4487.00,1.33
4486.00,1.33
4485.00,1.33
4484.00,1.33
4483.00,1.33
4482.00,1.33
4481.00,1.33
4480.00,1.33
4479.00,1.33
4478.00,1.33
4477.00,1.33
4476.00,1.33
4475.00,1.33
4474.00,1.32
4473.00,1.32
4472.00,1.32
4471.00,1.32
4470.00,1.32
4469.00,1.32
4468.00,1.31
4467.00,1.31
4466.00,1.31
4465.00,1.31
4464.00,1.30
4463.00,1.30
4462.00,1.30
4461.00,1.30
4460.00,1.30
4459.00,1.29
4458.00,1.29
4457.00,1.29
4456.00,1.29
4455.00,1.28
4454.00,1.28
4453.00,1.28
4452.00,1.28
4451.00,1.27
4450.00,1.27
4449.00,1.27
4448.00,1.27
4447.00,1.27
4446.00,1.26
4445.00,1.26
4444.00,1.26
4443.00,1.26
4442.00,1.26
4441.00,1.26
4440.00,1.25
4439.00,1.25
4438.00,1.25
4437.00,1.25
4436.00,1.25
4435.00,1.25
4434.00,1.24
4433.00,1.24
4432.00,1.24
4431.00,1.24
4430.00,1.24
4429.00,1.24
4428.00,1.23
4427.00,1.23
4426.00,1.23
4425.00,1.23
4424.00,1.23
4423.00,1.23
4422.00,1.23
4421.00,1.23
4420.00,1.23
4419.00,1.23
4418.00,1.23
4417.00,1.23
4416.00,1.23
4415.00,1.23
4414.00,1.23
4413.00,1.23
4412.00,1.23
4411.00,1.23
4410.00,1.23
4409.00,1.23
4408.00,1.23
4407.00,1.23
4406.00,1.23
4405.00,1.23
4404.00,1.23
4403.00,1.23
4402.00,1.23
4401.00,1.23
4400.00,1.23
4399.00,1.23
4398.00,1.23
4397.00,1.23
4396.00,1.23
4395.00,1.24
4394.00,1.24
4393.00,1.24
4392.00,1.24
4391.00,1.24
4390.00,1.24
4389.00,1.24
4388.00,1.24
4387.00,1.24
4386.00,1.24
4385.00,1.25
4384.00,1.25
4383.00,1.25
4382.00,1.25
4381.00,1.25
4380.00,1.25
4379.00,1.26
4378.00,1.26
4377.00,1.26
4376.00,1.26
4375.00,1.26
4374.00,1.26
4373.00,1.26
4372.00,1.26
4371.00,1.27
4370.00,1.27
4369.00,1.27
4368.00,1.27
4367.00,1.27
4366.00,1.27
4365.00,1.27
4364.00,1.27
4363.00,1.27
4362.00,1.27
4361.00,1.27
4360.00,1.27
4359.00,1.27
4358.00,1.27
4357.00,1.27
4356.00,1.27
4355.00,1.27
4354.00,1.27
4353.00,1.27
4352.00,1.27
4351.00,1.27
4350.00,1.27
4349.00,1.27
4348.00,1.27
4347.00,1.27
4346.00,1.27
4345.00,1.27
4344.00,1.27
4343.00,1.27
4342.00,1.27
4341.00,1.27
4340.00,1.27
4339.00,1.27
4338.00,1.27
4337.00,1.27
4336.00,1.27
4335.00,1.27
4334.00,1.28
4333.00,1.28
4332.00,1.28
4331.00,1.28
4330.00,1.28
4329.00,1.28
4328.00,1.28
4327.00,1.28
4326.00,1.28
4325.00,1.28
4324.00,1.28
4323.00,1.28
4322.00,1.28
4321.00,1.28
4320.00,1.28
4319.00,1.28
4318.00,1.28
4317.00,1.28
4316.00,1.28
4315.00,1.28
4314.00,1.28
4313.00,1.28
4312.00,1.29
4311.00,1.29
4310.00,1.29
4309.00,1.29
4308.00,1.29
4307.00,1.29
4306.00,1.29
4305.00,1.29
4304.00,1.30
4303.00,1.30
4302.00,1.30
4301.00,1.30
4300.00,1.30
4299.00,1.30
4298.00,1.30
4297.00,1.30
4296.00,1.30
4295.00,1.30
4294.00,1.30
4293.00,1.30
4292.00,1.30
4291.00,1.30
4290.00,1.31
4289.00,1.31
4288.00,1.31
4287.00,1.31
4286.00,1.31
4285.00,1.31
4284.00,1.31
4283.00,1.31
4282.00,1.31
4281.00,1.31
4280.00,1.31
4279.00,1.31
4278.00,1.31
4277.00,1.31
4276.00,1.31
4275.00,1.31
4274.00,1.31
4273.00,1.31
4272.00,1.31
4271.00,1.31
4270.00,1.31
4269.00,1.31
4268.00,1.31
4267.00,1.31
4266.00,1.31
4265.00,1.31
4264.00,1.31
4263.00,1.32
4262.00,1.32
4261.00,1.32
4260.00,1.32
4259.00,1.32
4258.00,1.32
4257.00,1.32
4256.00,1.32
4255.00,1.32
4254.00,1.32
4253.00,1.33
4252.00,1.33
4251.00,1.33
4250.00,1.33
4249.00,1.33
4248.00,1.33
4247.00,1.33
4246.00,1.33
4245.00,1.33
4244.00,1.33
4243.00,1.33
4242.00,1.33
4241.00,1.33
4240.00,1.33
4239.00,1.33
4238.00,1.33
4237.00,1.33
4236.00,1.33
4235.00,1.33
4234.00,1.33
4233.00,1.33
4232.00,1.33
4231.00,1.33
4230.00,1.33
4229.00,1.34
4228.00,1.34
4227.00,1.34
4226.00,1.34
4225.00,1.34
4224.00,1.34
4223.00,1.34
4222.00,1.34
4221.00,1.34
4220.00,1.34
4219.00,1.35
4218.00,1.35
4217.00,1.35
4216.00,1.35
4215.00,1.35
4214.00,1.35
4213.00,1.35
4212.00,1.35
4211.00,1.35
4210.00,1.35
4209.00,1.35
4208.00,1.35
4207.00,1.35
4206.00,1.35
4205.00,1.35
4204.00,1.35
4203.00,1.35
4202.00,1.35
4201.00,1.35
4200.00,1.35
4199.00,1.35
4198.00,1.35
4197.00,1.35
4196.00,1.35
4195.00,1.35
4194.00,1.35
4193.00,1.35
4192.00,1.36
4191.00,1.36
4190.00,1.36
4189.00,1.36
4188.00,1.36
4187.00,1.36
4186.00,1.36
4185.00,1.36
4184.00,1.36
4183.00,1.36
4182.00,1.36
4181.00,1.36
4180.00,1.36
4179.00,1.36
4178.00,1.36
4177.00,1.36
4176.00,1.36
4175.00,1.36
4174.00,1.36
4173.00,1.36
4172.00,1.36
4171.00,1.36
4170.00,1.36
4169.00,1.36
4168.00,1.36
4167.00,1.36
4166.00,1.36
4165.00,1.36
4164.00,1.36
4163.00,1.36
4162.00,1.36
4161.00,1.36
4160.00,1.36
4159.00,1.36
4158.00,1.36
4157.00,1.36
4156.00,1.37
4155.00,1.37
4154.00,1.37
4153.00,1.36
4152.00,1.36
4151.00,1.36
4150.00,1.36
4149.00,1.36
4148.00,1.36
4147.00,1.36
4146.00,1.36
4145.00,1.36
4144.00,1.36
4143.00,1.36
4142.00,1.36
4141.00,1.36
4140.00,1.36
4139.00,1.36
4138.00,1.36
4137.00,1.36
4136.00,1.36
4135.00,1.36
4134.00,1.37
4133.00,1.37
4132.00,1.37
4131.00,1.37
4130.00,1.37
4129.00,1.37
4128.00,1.37
4127.00,1.37
4126.00,1.38
4125.00,1.38
4124.00,1.38
4123.00,1.38
4122.00,1.38
4121.00,1.38
4120.00,1.38
4119.00,1.38
4118.00,1.38
4117.00,1.38
4116.00,1.38
4115.00,1.38
4114.00,1.38
4113.00,1.38
4112.00,1.38
4111.00,1.38
4110.00,1.38
4109.00,1.38
4108.00,1.38
4107.00,1.38
4106.00,1.38
4105.00,1.38
4104.00,1.38
4103.00,1.38
4102.00,1.38
4101.00,1.39
4100.00,1.39
4099.00,1.39
4098.00,1.39
4097.00,1.39
4096.00,1.39
4095.00,1.39
4094.00,1.39
4093.00,1.39
4092.00,1.39
4091.00,1.39
4090.00,1.39
4089.00,1.39
4088.00,1.39
4087.00,1.39
4086.00,1.39
4085.00,1.39
4084.00,1.39
4083.00,1.39
4082.00,1.39
4081.00,1.39
4080.00,1.39
4079.00,1.39
4078.00,1.39
4077.00,1.39
4076.00,1.39
4075.00,1.39
4074.00,1.39
4073.00,1.39
4072.00,1.39
4071.00,1.39
4070.00,1.39
4069.00,1.40
4068.00,1.40
4067.00,1.40
4066.00,1.40
4065.00,1.40
4064.00,1.40
4063.00,1.40
4062.00,1.40
4061.00,1.40
4060.00,1.40
4059.00,1.40
4058.00,1.40
4057.00,1.40
4056.00,1.41
4055.00,1.41
4054.00,1.41
4053.00,1.41
4052.00,1.41
4051.00,1.41
4050.00,1.41
4049.00,1.41
4048.00,1.41
4047.00,1.41
4046.00,1.41
4045.00,1.41
4044.00,1.41
4043.00,1.41
4042.00,1.41
4041.00,1.41
4040.00,1.41
4039.00,1.41
4038.00,1.41
4037.00,1.41
4036.00,1.41
4035.00,1.41
4034.00,1.41
4033.00,1.41
4032.00,1.41
4031.00,1.41
4030.00,1.41
4029.00,1.41
4028.00,1.41
4027.00,1.42
4026.00,1.42
4025.00,1.42
4024.00,1.42
4023.00,1.42
4022.00,1.42
4021.00,1.42
4020.00,1.42
4019.00,1.42
4018.00,1.42
4017.00,1.42
4016.00,1.43
4015.00,1.43
4014.00,1.43
4013.00,1.43
4012.00,1.43
4011.00,1.43
4010.00,1.44
4009.00,1.44
4008.00,1.44
4007.00,1.44
4006.00,1.45
4005.00,1.45
4004.00,1.45
4003.00,1.45
4002.00,1.45
4001.00,1.45
4000.00,1.45
