创建为新数据集,样品 672 用户 Administrator 日期 星期四, 七月 19 2018
cm-1,%T
10000.00,1.57
9999.00,1.57
9998.00,1.57
9997.00,1.57
9996.00,1.57
9995.00,1.57
9994.00,1.57
9993.00,1.57
9992.00,1.57
9991.00,1.57
9990.00,1.57
9989.00,1.57
9988.00,1.57
9987.00,1.57
9986.00,1.57
9985.00,1.57
9984.00,1.57
9983.00,1.57
9982.00,1.57
9981.00,1.57
9980.00,1.57
9979.00,1.57
9978.00,1.57
9977.00,1.57
9976.00,1.56
9975.00,1.56
9974.00,1.56
9973.00,1.55
9972.00,1.55
9971.00,1.55
9970.00,1.54
9969.00,1.54
9968.00,1.54
9967.00,1.53
9966.00,1.53
9965.00,1.53
9964.00,1.52
9963.00,1.52
9962.00,1.52
9961.00,1.52
9960.00,1.52
9959.00,1.52
9958.00,1.52
9957.00,1.52
9956.00,1.52
9955.00,1.52
9954.00,1.52
9953.00,1.52
9952.00,1.52
9951.00,1.52
9950.00,1.53
9949.00,1.53
9948.00,1.53
9947.00,1.53
9946.00,1.53
9945.00,1.53
9944.00,1.53
9943.00,1.53
9942.00,1.54
9941.00,1.54
9940.00,1.54
9939.00,1.54
9938.00,1.54
9937.00,1.54
9936.00,1.54
9935.00,1.54
9934.00,1.54
9933.00,1.54
9932.00,1.54
9931.00,1.54
9930.00,1.54
9929.00,1.54
9928.00,1.54
9927.00,1.54
9926.00,1.54
9925.00,1.54
9924.00,1.54
9923.00,1.54
9922.00,1.54
9921.00,1.54
9920.00,1.54
9919.00,1.54
9918.00,1.54
9917.00,1.54
9916.00,1.54
9915.00,1.54
9914.00,1.54
9913.00,1.54
9912.00,1.54
9911.00,1.53
9910.00,1.53
9909.00,1.53
9908.00,1.53
9907.00,1.53
9906.00,1.53
9905.00,1.53
9904.00,1.53
9903.00,1.53
9902.00,1.53
9901.00,1.53
9900.00,1.53
9899.00,1.53
9898.00,1.53
9897.00,1.53
9896.00,1.53
9895.00,1.53
9894.00,1.53
9893.00,1.53
9892.00,1.53
9891.00,1.53
9890.00,1.53
9889.00,1.53
9888.00,1.52
9887.00,1.52
9886.00,1.52
9885.00,1.52
9884.00,1.52
9883.00,1.52
9882.00,1.52
9881.00,1.52
9880.00,1.51
9879.00,1.51
9878.00,1.51
9877.00,1.51
9876.00,1.51
9875.00,1.51
9874.00,1.51
9873.00,1.51
9872.00,1.51
9871.00,1.51
9870.00,1.51
9869.00,1.51
9868.00,1.51
9867.00,1.51
9866.00,1.51
9865.00,1.51
9864.00,1.51
9863.00,1.52
9862.00,1.52
9861.00,1.52
9860.00,1.52
9859.00,1.52
9858.00,1.52
9857.00,1.53
9856.00,1.53
9855.00,1.53
9854.00,1.53
9853.00,1.53
9852.00,1.53
9851.00,1.53
9850.00,1.54
9849.00,1.54
9848.00,1.54
9847.00,1.54
9846.00,1.54
9845.00,1.54
9844.00,1.54
9843.00,1.54
9842.00,1.54
9841.00,1.54
9840.00,1.54
9839.00,1.54
9838.00,1.54
9837.00,1.53
9836.00,1.53
9835.00,1.53
9834.00,1.53
9833.00,1.53
9832.00,1.53
9831.00,1.53
9830.00,1.53
9829.00,1.53
9828.00,1.53
9827.00,1.53
9826.00,1.53
9825.00,1.53
9824.00,1.53
9823.00,1.53
9822.00,1.53
9821.00,1.53
9820.00,1.53
9819.00,1.53
9818.00,1.53
9817.00,1.53
9816.00,1.53
9815.00,1.53
9814.00,1.53
9813.00,1.53
9812.00,1.54
9811.00,1.54
9810.00,1.54
9809.00,1.54
9808.00,1.55
9807.00,1.55
9806.00,1.55
9805.00,1.55
9804.00,1.56
9803.00,1.56
9802.00,1.56
9801.00,1.56
9800.00,1.57
9799.00,1.57
9798.00,1.57
9797.00,1.57
9796.00,1.57
9795.00,1.57
9794.00,1.57
9793.00,1.57
9792.00,1.56
9791.00,1.56
9790.00,1.56
9789.00,1.56
9788.00,1.56
9787.00,1.55
9786.00,1.55
9785.00,1.55
9784.00,1.55
9783.00,1.54
9782.00,1.54
9781.00,1.54
9780.00,1.54
9779.00,1.54
9778.00,1.54
9777.00,1.54
9776.00,1.54
9775.00,1.53
9774.00,1.53
9773.00,1.53
9772.00,1.53
9771.00,1.53
9770.00,1.53
9769.00,1.53
9768.00,1.53
9767.00,1.53
9766.00,1.53
9765.00,1.53
9764.00,1.52
9763.00,1.52
9762.00,1.52
9761.00,1.52
9760.00,1.52
9759.00,1.52
9758.00,1.52
9757.00,1.52
9756.00,1.52
9755.00,1.52
9754.00,1.52
9753.00,1.52
9752.00,1.52
9751.00,1.53
9750.00,1.53
9749.00,1.53
9748.00,1.53
9747.00,1.54
9746.00,1.54
9745.00,1.54
9744.00,1.54
9743.00,1.55
9742.00,1.55
9741.00,1.55
9740.00,1.55
9739.00,1.56
9738.00,1.56
9737.00,1.56
9736.00,1.56
9735.00,1.56
9734.00,1.56
9733.00,1.56
9732.00,1.56
9731.00,1.57
9730.00,1.57
9729.00,1.57
9728.00,1.57
9727.00,1.56
9726.00,1.56
9725.00,1.56
9724.00,1.56
9723.00,1.56
9722.00,1.56
9721.00,1.56
9720.00,1.55
9719.00,1.55
9718.00,1.55
9717.00,1.55
9716.00,1.55
9715.00,1.54
9714.00,1.54
9713.00,1.54
9712.00,1.54
9711.00,1.54
9710.00,1.54
9709.00,1.54
9708.00,1.54
9707.00,1.54
9706.00,1.54
9705.00,1.54
9704.00,1.54
9703.00,1.54
9702.00,1.54
9701.00,1.54
9700.00,1.54
9699.00,1.54
9698.00,1.54
9697.00,1.54
9696.00,1.54
9695.00,1.54
9694.00,1.54
9693.00,1.54
9692.00,1.54
9691.00,1.54
9690.00,1.54
9689.00,1.54
9688.00,1.54
9687.00,1.54
9686.00,1.54
9685.00,1.54
9684.00,1.54
9683.00,1.54
9682.00,1.54
9681.00,1.54
9680.00,1.53
9679.00,1.53
9678.00,1.53
9677.00,1.53
9676.00,1.53
9675.00,1.53
9674.00,1.52
9673.00,1.52
9672.00,1.52
9671.00,1.52
9670.00,1.52
9669.00,1.52
9668.00,1.52
9667.00,1.52
9666.00,1.51
9665.00,1.51
9664.00,1.51
9663.00,1.51
9662.00,1.51
9661.00,1.52
9660.00,1.52
9659.00,1.52
9658.00,1.52
9657.00,1.52
9656.00,1.52
9655.00,1.52
9654.00,1.52
9653.00,1.52
9652.00,1.52
9651.00,1.52
9650.00,1.52
9649.00,1.53
9648.00,1.53
9647.00,1.53
9646.00,1.53
9645.00,1.53
9644.00,1.53
9643.00,1.53
9642.00,1.53
9641.00,1.53
9640.00,1.53
9639.00,1.53
9638.00,1.53
9637.00,1.53
9636.00,1.53
9635.00,1.53
9634.00,1.53
9633.00,1.53
9632.00,1.53
9631.00,1.53
9630.00,1.53
9629.00,1.53
9628.00,1.53
9627.00,1.53
9626.00,1.53
9625.00,1.53
9624.00,1.54
9623.00,1.54
9622.00,1.54
9621.00,1.54
9620.00,1.54
9619.00,1.54
9618.00,1.54
9617.00,1.54
9616.00,1.54
9615.00,1.54
9614.00,1.53
9613.00,1.53
9612.00,1.53
9611.00,1.53
9610.00,1.53
9609.00,1.53
9608.00,1.53
9607.00,1.53
9606.00,1.53
9605.00,1.53
9604.00,1.53
9603.00,1.53
9602.00,1.53
9601.00,1.53
9600.00,1.53
9599.00,1.53
9598.00,1.52
9597.00,1.52
9596.00,1.52
9595.00,1.52
9594.00,1.52
9593.00,1.52
9592.00,1.51
9591.00,1.51
9590.00,1.51
9589.00,1.51
9588.00,1.51
9587.00,1.51
9586.00,1.51
9585.00,1.51
9584.00,1.51
9583.00,1.51
9582.00,1.51
9581.00,1.51
9580.00,1.51
9579.00,1.51
9578.00,1.52
9577.00,1.52
9576.00,1.52
9575.00,1.52
9574.00,1.53
9573.00,1.53
9572.00,1.53
9571.00,1.53
9570.00,1.53
9569.00,1.54
9568.00,1.54
9567.00,1.54
9566.00,1.54
9565.00,1.54
9564.00,1.54
9563.00,1.54
9562.00,1.54
9561.00,1.54
9560.00,1.54
9559.00,1.54
9558.00,1.53
9557.00,1.53
9556.00,1.53
9555.00,1.53
9554.00,1.53
9553.00,1.53
9552.00,1.53
9551.00,1.53
9550.00,1.53
9549.00,1.53
9548.00,1.53
9547.00,1.53
9546.00,1.53
9545.00,1.53
9544.00,1.53
9543.00,1.53
9542.00,1.53
9541.00,1.53
9540.00,1.53
9539.00,1.54
9538.00,1.54
9537.00,1.54
9536.00,1.54
9535.00,1.54
9534.00,1.54
9533.00,1.54
9532.00,1.54
9531.00,1.54
9530.00,1.54
9529.00,1.54
9528.00,1.54
9527.00,1.54
9526.00,1.54
9525.00,1.55
9524.00,1.55
9523.00,1.55
9522.00,1.55
9521.00,1.55
9520.00,1.55
9519.00,1.55
9518.00,1.55
9517.00,1.55
9516.00,1.55
9515.00,1.55
9514.00,1.55
9513.00,1.55
9512.00,1.55
9511.00,1.55
9510.00,1.55
9509.00,1.55
9508.00,1.55
9507.00,1.55
9506.00,1.56
9505.00,1.56
9504.00,1.56
9503.00,1.56
9502.00,1.56
9501.00,1.56
9500.00,1.56
9499.00,1.57
9498.00,1.57
9497.00,1.57
9496.00,1.57
9495.00,1.57
9494.00,1.57
9493.00,1.57
9492.00,1.57
9491.00,1.57
9490.00,1.56
9489.00,1.56
9488.00,1.56
9487.00,1.56
9486.00,1.55
9485.00,1.55
9484.00,1.55
9483.00,1.55
9482.00,1.54
9481.00,1.54
9480.00,1.54
9479.00,1.54
9478.00,1.54
9477.00,1.53
9476.00,1.53
9475.00,1.53
9474.00,1.53
9473.00,1.53
9472.00,1.53
9471.00,1.53
9470.00,1.53
9469.00,1.53
9468.00,1.53
9467.00,1.53
9466.00,1.53
9465.00,1.53
9464.00,1.54
9463.00,1.54
9462.00,1.54
9461.00,1.54
9460.00,1.54
9459.00,1.54
9458.00,1.54
9457.00,1.54
9456.00,1.54
9455.00,1.54
9454.00,1.53
9453.00,1.53
9452.00,1.53
9451.00,1.53
9450.00,1.53
9449.00,1.53
9448.00,1.53
9447.00,1.53
9446.00,1.53
9445.00,1.53
9444.00,1.53
9443.00,1.53
9442.00,1.54
9441.00,1.54
9440.00,1.54
9439.00,1.54
9438.00,1.54
9437.00,1.54
9436.00,1.54
9435.00,1.54
9434.00,1.55
9433.00,1.55
9432.00,1.55
9431.00,1.55
9430.00,1.55
9429.00,1.55
9428.00,1.55
9427.00,1.55
9426.00,1.55
9425.00,1.55
9424.00,1.55
9423.00,1.55
9422.00,1.55
9421.00,1.55
9420.00,1.55
9419.00,1.55
9418.00,1.55
9417.00,1.55
9416.00,1.55
9415.00,1.55
9414.00,1.55
9413.00,1.55
9412.00,1.56
9411.00,1.56
9410.00,1.56
9409.00,1.56
9408.00,1.56
9407.00,1.56
9406.00,1.56
9405.00,1.56
9404.00,1.56
9403.00,1.56
9402.00,1.55
9401.00,1.55
9400.00,1.55
9399.00,1.55
9398.00,1.55
9397.00,1.55
9396.00,1.55
9395.00,1.54
9394.00,1.54
9393.00,1.54
9392.00,1.54
9391.00,1.54
9390.00,1.54
9389.00,1.54
9388.00,1.54
9387.00,1.53
9386.00,1.53
9385.00,1.53
9384.00,1.53
9383.00,1.53
9382.00,1.53
9381.00,1.53
9380.00,1.53
9379.00,1.53
9378.00,1.53
9377.00,1.53
9376.00,1.53
9375.00,1.53
9374.00,1.53
9373.00,1.53
9372.00,1.52
9371.00,1.52
9370.00,1.52
9369.00,1.52
9368.00,1.52
9367.00,1.52
9366.00,1.53
9365.00,1.53
9364.00,1.53
9363.00,1.53
9362.00,1.53
9361.00,1.53
9360.00,1.53
9359.00,1.54
9358.00,1.54
9357.00,1.54
9356.00,1.54
9355.00,1.54
9354.00,1.54
9353.00,1.54
9352.00,1.54
9351.00,1.54
9350.00,1.54
9349.00,1.54
9348.00,1.54
9347.00,1.54
9346.00,1.54
9345.00,1.54
9344.00,1.54
9343.00,1.54
9342.00,1.54
9341.00,1.54
9340.00,1.54
9339.00,1.54
9338.00,1.54
9337.00,1.54
9336.00,1.54
9335.00,1.54
9334.00,1.54
9333.00,1.54
9332.00,1.53
9331.00,1.53
9330.00,1.53
9329.00,1.53
9328.00,1.53
9327.00,1.53
9326.00,1.53
9325.00,1.53
9324.00,1.53
9323.00,1.53
9322.00,1.53
9321.00,1.53
9320.00,1.53
9319.00,1.53
9318.00,1.54
9317.00,1.54
9316.00,1.54
9315.00,1.54
9314.00,1.54
9313.00,1.54
9312.00,1.54
9311.00,1.54
9310.00,1.54
9309.00,1.54
9308.00,1.54
9307.00,1.54
9306.00,1.54
9305.00,1.54
9304.00,1.54
9303.00,1.54
9302.00,1.54
9301.00,1.54
9300.00,1.54
9299.00,1.54
9298.00,1.54
9297.00,1.54
9296.00,1.54
9295.00,1.54
9294.00,1.54
9293.00,1.54
9292.00,1.54
9291.00,1.54
9290.00,1.54
9289.00,1.54
9288.00,1.54
9287.00,1.54
9286.00,1.54
9285.00,1.54
9284.00,1.54
9283.00,1.54
9282.00,1.54
9281.00,1.54
9280.00,1.54
9279.00,1.54
9278.00,1.54
9277.00,1.54
9276.00,1.54
9275.00,1.54
9274.00,1.54
9273.00,1.54
9272.00,1.54
9271.00,1.54
9270.00,1.54
9269.00,1.54
9268.00,1.54
9267.00,1.54
9266.00,1.54
9265.00,1.54
9264.00,1.54
9263.00,1.54
9262.00,1.54
9261.00,1.54
9260.00,1.54
9259.00,1.54
9258.00,1.54
9257.00,1.54
9256.00,1.54
9255.00,1.54
9254.00,1.54
9253.00,1.54
9252.00,1.54
9251.00,1.54
9250.00,1.54
9249.00,1.54
9248.00,1.54
9247.00,1.54
9246.00,1.54
9245.00,1.54
9244.00,1.54
9243.00,1.54
9242.00,1.54
9241.00,1.55
9240.00,1.55
9239.00,1.55
9238.00,1.55
9237.00,1.55
9236.00,1.55
9235.00,1.55
9234.00,1.56
9233.00,1.56
9232.00,1.56
9231.00,1.56
9230.00,1.56
9229.00,1.56
9228.00,1.56
9227.00,1.56
9226.00,1.56
9225.00,1.56
9224.00,1.56
9223.00,1.56
9222.00,1.56
9221.00,1.56
9220.00,1.56
9219.00,1.56
9218.00,1.56
9217.00,1.56
9216.00,1.56
9215.00,1.56
9214.00,1.56
9213.00,1.56
9212.00,1.56
9211.00,1.56
9210.00,1.56
9209.00,1.56
9208.00,1.56
9207.00,1.56
9206.00,1.56
9205.00,1.56
9204.00,1.56
9203.00,1.56
9202.00,1.56
9201.00,1.56
9200.00,1.56
9199.00,1.56
9198.00,1.56
9197.00,1.55
9196.00,1.55
9195.00,1.55
9194.00,1.55
9193.00,1.55
9192.00,1.55
9191.00,1.55
9190.00,1.55
9189.00,1.55
9188.00,1.55
9187.00,1.55
9186.00,1.55
9185.00,1.55
9184.00,1.55
9183.00,1.55
9182.00,1.55
9181.00,1.55
9180.00,1.55
9179.00,1.55
9178.00,1.55
9177.00,1.55
9176.00,1.55
9175.00,1.55
9174.00,1.55
9173.00,1.55
9172.00,1.55
9171.00,1.55
9170.00,1.55
9169.00,1.55
9168.00,1.55
9167.00,1.55
9166.00,1.55
9165.00,1.55
9164.00,1.55
9163.00,1.55
9162.00,1.55
9161.00,1.55
9160.00,1.55
9159.00,1.55
9158.00,1.55
9157.00,1.55
9156.00,1.55
9155.00,1.55
9154.00,1.55
9153.00,1.55
9152.00,1.55
9151.00,1.55
9150.00,1.55
9149.00,1.55
9148.00,1.54
9147.00,1.54
9146.00,1.54
9145.00,1.54
9144.00,1.54
9143.00,1.54
9142.00,1.54
9141.00,1.54
9140.00,1.54
9139.00,1.54
9138.00,1.54
9137.00,1.53
9136.00,1.54
9135.00,1.54
9134.00,1.54
9133.00,1.54
9132.00,1.54
9131.00,1.54
9130.00,1.54
9129.00,1.54
9128.00,1.55
9127.00,1.55
9126.00,1.55
9125.00,1.55
9124.00,1.55
9123.00,1.55
9122.00,1.56
9121.00,1.56
9120.00,1.56
9119.00,1.56
9118.00,1.56
9117.00,1.56
9116.00,1.56
9115.00,1.56
9114.00,1.56
9113.00,1.56
9112.00,1.56
9111.00,1.56
9110.00,1.55
9109.00,1.55
9108.00,1.55
9107.00,1.55
9106.00,1.55
9105.00,1.55
9104.00,1.55
9103.00,1.55
9102.00,1.54
9101.00,1.54
9100.00,1.54
9099.00,1.54
9098.00,1.54
9097.00,1.54
9096.00,1.54
9095.00,1.54
9094.00,1.55
9093.00,1.55
9092.00,1.55
9091.00,1.55
9090.00,1.55
9089.00,1.55
9088.00,1.55
9087.00,1.55
9086.00,1.56
9085.00,1.56
9084.00,1.56
9083.00,1.56
9082.00,1.56
9081.00,1.56
9080.00,1.56
9079.00,1.56
9078.00,1.56
9077.00,1.56
9076.00,1.56
9075.00,1.56
9074.00,1.56
9073.00,1.56
9072.00,1.55
9071.00,1.55
9070.00,1.55
9069.00,1.55
9068.00,1.55
9067.00,1.55
9066.00,1.55
9065.00,1.55
9064.00,1.55
9063.00,1.55
9062.00,1.55
9061.00,1.55
9060.00,1.55
9059.00,1.55
9058.00,1.55
9057.00,1.55
9056.00,1.55
9055.00,1.55
9054.00,1.55
9053.00,1.55
9052.00,1.55
9051.00,1.54
9050.00,1.54
9049.00,1.54
9048.00,1.54
9047.00,1.54
9046.00,1.54
9045.00,1.54
9044.00,1.54
9043.00,1.54
9042.00,1.54
9041.00,1.54
9040.00,1.54
9039.00,1.54
9038.00,1.54
9037.00,1.54
9036.00,1.54
9035.00,1.54
9034.00,1.54
9033.00,1.54
9032.00,1.54
9031.00,1.54
9030.00,1.54
9029.00,1.54
9028.00,1.54
9027.00,1.54
9026.00,1.55
9025.00,1.55
9024.00,1.55
9023.00,1.55
9022.00,1.55
9021.00,1.55
9020.00,1.55
9019.00,1.55
9018.00,1.55
9017.00,1.55
9016.00,1.55
9015.00,1.56
9014.00,1.56
9013.00,1.56
9012.00,1.56
9011.00,1.56
9010.00,1.56
9009.00,1.56
9008.00,1.56
9007.00,1.56
9006.00,1.56
9005.00,1.56
9004.00,1.56
9003.00,1.56
9002.00,1.57
9001.00,1.57
9000.00,1.57
8999.00,1.57
8998.00,1.57
8997.00,1.57
8996.00,1.57
8995.00,1.57
8994.00,1.57
8993.00,1.57
8992.00,1.57
8991.00,1.57
8990.00,1.57
8989.00,1.57
8988.00,1.56
8987.00,1.56
8986.00,1.56
8985.00,1.56
8984.00,1.56
8983.00,1.56
8982.00,1.56
8981.00,1.56
8980.00,1.56
8979.00,1.55
8978.00,1.55
8977.00,1.55
8976.00,1.55
8975.00,1.55
8974.00,1.55
8973.00,1.55
8972.00,1.55
8971.00,1.55
8970.00,1.55
8969.00,1.55
8968.00,1.56
8967.00,1.56
8966.00,1.56
8965.00,1.56
8964.00,1.56
8963.00,1.56
8962.00,1.56
8961.00,1.56
8960.00,1.56
8959.00,1.56
8958.00,1.56
8957.00,1.56
8956.00,1.56
8955.00,1.56
8954.00,1.56
8953.00,1.56
8952.00,1.56
8951.00,1.56
8950.00,1.56
8949.00,1.56
8948.00,1.56
8947.00,1.56
8946.00,1.55
8945.00,1.55
8944.00,1.55
8943.00,1.55
8942.00,1.55
8941.00,1.55
8940.00,1.55
8939.00,1.55
8938.00,1.55
8937.00,1.55
8936.00,1.55
8935.00,1.55
8934.00,1.55
8933.00,1.55
8932.00,1.55
8931.00,1.55
8930.00,1.55
8929.00,1.55
8928.00,1.55
8927.00,1.55
8926.00,1.55
8925.00,1.55
8924.00,1.55
8923.00,1.56
8922.00,1.56
8921.00,1.56
8920.00,1.56
8919.00,1.56
8918.00,1.56
8917.00,1.56
8916.00,1.56
8915.00,1.56
8914.00,1.56
8913.00,1.56
8912.00,1.56
8911.00,1.56
8910.00,1.56
8909.00,1.56
8908.00,1.56
8907.00,1.56
8906.00,1.56
8905.00,1.56
8904.00,1.55
8903.00,1.55
8902.00,1.55
8901.00,1.55
8900.00,1.55
8899.00,1.55
8898.00,1.55
8897.00,1.55
8896.00,1.55
8895.00,1.55
8894.00,1.55
8893.00,1.55
8892.00,1.55
8891.00,1.55
8890.00,1.55
8889.00,1.55
8888.00,1.55
8887.00,1.55
8886.00,1.55
8885.00,1.55
8884.00,1.55
8883.00,1.55
8882.00,1.55
8881.00,1.55
8880.00,1.55
8879.00,1.55
8878.00,1.54
8877.00,1.54
8876.00,1.54
8875.00,1.54
8874.00,1.54
8873.00,1.54
8872.00,1.54
8871.00,1.54
8870.00,1.54
8869.00,1.54
8868.00,1.54
8867.00,1.54
8866.00,1.54
8865.00,1.54
8864.00,1.54
8863.00,1.54
8862.00,1.54
8861.00,1.55
8860.00,1.55
8859.00,1.55
8858.00,1.55
8857.00,1.55
8856.00,1.55
8855.00,1.55
8854.00,1.55
8853.00,1.55
8852.00,1.55
8851.00,1.55
8850.00,1.55
8849.00,1.55
8848.00,1.55
8847.00,1.56
8846.00,1.56
8845.00,1.56
8844.00,1.56
8843.00,1.56
8842.00,1.56
8841.00,1.56
8840.00,1.56
8839.00,1.56
8838.00,1.56
8837.00,1.56
8836.00,1.56
8835.00,1.56
8834.00,1.56
8833.00,1.56
8832.00,1.55
8831.00,1.55
8830.00,1.55
8829.00,1.55
8828.00,1.55
8827.00,1.55
8826.00,1.54
8825.00,1.54
8824.00,1.54
8823.00,1.54
8822.00,1.54
8821.00,1.54
8820.00,1.54
8819.00,1.53
8818.00,1.53
8817.00,1.53
8816.00,1.53
8815.00,1.53
8814.00,1.53
8813.00,1.53
8812.00,1.53
8811.00,1.53
8810.00,1.53
8809.00,1.53
8808.00,1.54
8807.00,1.54
8806.00,1.53
8805.00,1.53
8804.00,1.53
8803.00,1.53
8802.00,1.53
8801.00,1.53
8800.00,1.53
8799.00,1.53
8798.00,1.53
8797.00,1.53
8796.00,1.53
8795.00,1.53
8794.00,1.53
8793.00,1.53
8792.00,1.53
8791.00,1.53
8790.00,1.53
8789.00,1.53
8788.00,1.53
8787.00,1.53
8786.00,1.53
8785.00,1.53
8784.00,1.53
8783.00,1.52
8782.00,1.52
8781.00,1.52
8780.00,1.52
8779.00,1.52
8778.00,1.52
8777.00,1.52
8776.00,1.52
8775.00,1.52
8774.00,1.51
8773.00,1.51
8772.00,1.51
8771.00,1.51
8770.00,1.51
8769.00,1.51
8768.00,1.51
8767.00,1.50
8766.00,1.50
8765.00,1.50
8764.00,1.50
8763.00,1.50
8762.00,1.50
8761.00,1.50
8760.00,1.50
8759.00,1.51
8758.00,1.51
8757.00,1.51
8756.00,1.51
8755.00,1.51
8754.00,1.51
8753.00,1.51
8752.00,1.52
8751.00,1.52
8750.00,1.52
8749.00,1.52
8748.00,1.52
8747.00,1.52
8746.00,1.52
8745.00,1.53
8744.00,1.53
8743.00,1.53
8742.00,1.53
8741.00,1.53
8740.00,1.53
8739.00,1.52
8738.00,1.52
8737.00,1.52
8736.00,1.52
8735.00,1.52
8734.00,1.52
8733.00,1.52
8732.00,1.52
8731.00,1.51
8730.00,1.51
8729.00,1.51
8728.00,1.51
8727.00,1.51
8726.00,1.51
8725.00,1.50
8724.00,1.50
8723.00,1.50
8722.00,1.50
8721.00,1.50
8720.00,1.50
8719.00,1.50
8718.00,1.50
8717.00,1.50
8716.00,1.50
8715.00,1.50
8714.00,1.50
8713.00,1.50
8712.00,1.50
8711.00,1.50
8710.00,1.50
8709.00,1.50
8708.00,1.50
8707.00,1.50
8706.00,1.50
8705.00,1.50
8704.00,1.49
8703.00,1.49
8702.00,1.49
8701.00,1.49
8700.00,1.49
8699.00,1.49
8698.00,1.49
8697.00,1.49
8696.00,1.49
8695.00,1.49
8694.00,1.49
8693.00,1.49
8692.00,1.49
8691.00,1.49
8690.00,1.49
8689.00,1.49
8688.00,1.49
8687.00,1.49
8686.00,1.49
8685.00,1.49
8684.00,1.49
8683.00,1.49
8682.00,1.49
8681.00,1.49
8680.00,1.49
8679.00,1.49
8678.00,1.49
8677.00,1.49
8676.00,1.49
8675.00,1.48
8674.00,1.48
8673.00,1.48
8672.00,1.48
8671.00,1.48
8670.00,1.48
8669.00,1.48
8668.00,1.48
8667.00,1.48
8666.00,1.48
8665.00,1.48
8664.00,1.49
8663.00,1.49
8662.00,1.49
8661.00,1.49
8660.00,1.49
8659.00,1.49
8658.00,1.49
8657.00,1.50
8656.00,1.50
8655.00,1.50
8654.00,1.50
8653.00,1.50
8652.00,1.50
8651.00,1.50
8650.00,1.50
8649.00,1.50
8648.00,1.50
8647.00,1.50
8646.00,1.49
8645.00,1.49
8644.00,1.49
8643.00,1.49
8642.00,1.49
8641.00,1.49
8640.00,1.49
8639.00,1.49
8638.00,1.49
8637.00,1.49
8636.00,1.49
8635.00,1.49
8634.00,1.49
8633.00,1.48
8632.00,1.48
8631.00,1.48
8630.00,1.48
8629.00,1.48
8628.00,1.48
8627.00,1.48
8626.00,1.48
8625.00,1.48
8624.00,1.48
8623.00,1.48
8622.00,1.48
8621.00,1.48
8620.00,1.49
8619.00,1.49
8618.00,1.49
8617.00,1.49
8616.00,1.49
8615.00,1.49
8614.00,1.49
8613.00,1.49
8612.00,1.49
8611.00,1.49
8610.00,1.49
8609.00,1.49
8608.00,1.49
8607.00,1.48
8606.00,1.48
8605.00,1.48
8604.00,1.48
8603.00,1.48
8602.00,1.48
8601.00,1.48
8600.00,1.47
8599.00,1.47
8598.00,1.47
8597.00,1.47
8596.00,1.47
8595.00,1.47
8594.00,1.47
8593.00,1.47
8592.00,1.47
8591.00,1.47
8590.00,1.47
8589.00,1.47
8588.00,1.47
8587.00,1.47
8586.00,1.47
8585.00,1.47
8584.00,1.47
8583.00,1.47
8582.00,1.47
8581.00,1.47
8580.00,1.47
8579.00,1.47
8578.00,1.47
8577.00,1.47
8576.00,1.47
8575.00,1.47
8574.00,1.47
8573.00,1.47
8572.00,1.47
8571.00,1.47
8570.00,1.47
8569.00,1.47
8568.00,1.47
8567.00,1.47
8566.00,1.47
8565.00,1.47
8564.00,1.47
8563.00,1.47
8562.00,1.47
8561.00,1.47
8560.00,1.47
8559.00,1.47
8558.00,1.47
8557.00,1.47
8556.00,1.47
8555.00,1.47
8554.00,1.47
8553.00,1.47
8552.00,1.47
8551.00,1.47
8550.00,1.47
8549.00,1.47
8548.00,1.47
8547.00,1.47
8546.00,1.46
8545.00,1.46
8544.00,1.46
8543.00,1.46
8542.00,1.46
8541.00,1.46
8540.00,1.46
8539.00,1.46
8538.00,1.46
8537.00,1.46
8536.00,1.46
8535.00,1.46
8534.00,1.46
8533.00,1.46
8532.00,1.46
8531.00,1.46
8530.00,1.46
8529.00,1.46
8528.00,1.46
8527.00,1.46
8526.00,1.45
8525.00,1.45
8524.00,1.45
8523.00,1.45
8522.00,1.45
8521.00,1.45
8520.00,1.45
8519.00,1.45
8518.00,1.45
8517.00,1.44
8516.00,1.44
8515.00,1.44
8514.00,1.44
8513.00,1.44
8512.00,1.44
8511.00,1.44
8510.00,1.44
8509.00,1.44
8508.00,1.44
8507.00,1.44
8506.00,1.44
8505.00,1.44
8504.00,1.44
8503.00,1.44
8502.00,1.44
8501.00,1.44
8500.00,1.45
8499.00,1.45
8498.00,1.45
8497.00,1.45
8496.00,1.45
8495.00,1.45
8494.00,1.45
8493.00,1.45
8492.00,1.45
8491.00,1.44
8490.00,1.44
8489.00,1.44
8488.00,1.44
8487.00,1.44
8486.00,1.44
8485.00,1.44
8484.00,1.43
8483.00,1.43
8482.00,1.43
8481.00,1.43
8480.00,1.42
8479.00,1.42
8478.00,1.42
8477.00,1.42
8476.00,1.42
8475.00,1.42
8474.00,1.42
8473.00,1.41
8472.00,1.41
8471.00,1.41
8470.00,1.41
8469.00,1.41
8468.00,1.41
8467.00,1.41
8466.00,1.41
8465.00,1.41
8464.00,1.41
8463.00,1.41
8462.00,1.41
8461.00,1.41
8460.00,1.41
8459.00,1.41
8458.00,1.41
8457.00,1.40
8456.00,1.40
8455.00,1.40
8454.00,1.40
8453.00,1.40
8452.00,1.40
8451.00,1.40
8450.00,1.40
8449.00,1.40
8448.00,1.40
8447.00,1.40
8446.00,1.40
8445.00,1.40
8444.00,1.40
8443.00,1.40
8442.00,1.40
8441.00,1.40
8440.00,1.40
8439.00,1.40
8438.00,1.40
8437.00,1.40
8436.00,1.40
8435.00,1.40
8434.00,1.40
8433.00,1.40
8432.00,1.40
8431.00,1.40
8430.00,1.40
8429.00,1.40
8428.00,1.40
8427.00,1.40
8426.00,1.40
8425.00,1.41
8424.00,1.41
8423.00,1.41
8422.00,1.41
8421.00,1.41
8420.00,1.41
8419.00,1.41
8418.00,1.41
8417.00,1.41
8416.00,1.41
8415.00,1.41
8414.00,1.41
8413.00,1.41
8412.00,1.41
8411.00,1.41
8410.00,1.41
8409.00,1.41
8408.00,1.41
8407.00,1.41
8406.00,1.42
8405.00,1.42
8404.00,1.42
8403.00,1.42
8402.00,1.42
8401.00,1.42
8400.00,1.43
8399.00,1.43
8398.00,1.43
8397.00,1.43
8396.00,1.43
8395.00,1.43
8394.00,1.43
8393.00,1.43
8392.00,1.43
8391.00,1.43
8390.00,1.43
8389.00,1.44
8388.00,1.44
8387.00,1.44
8386.00,1.44
8385.00,1.44
8384.00,1.44
8383.00,1.44
8382.00,1.44
8381.00,1.44
8380.00,1.44
8379.00,1.44
8378.00,1.44
8377.00,1.44
8376.00,1.44
8375.00,1.44
8374.00,1.44
8373.00,1.44
8372.00,1.44
8371.00,1.44
8370.00,1.44
8369.00,1.44
8368.00,1.44
8367.00,1.44
8366.00,1.44
8365.00,1.44
8364.00,1.44
8363.00,1.44
8362.00,1.44
8361.00,1.44
8360.00,1.44
8359.00,1.44
8358.00,1.44
8357.00,1.44
8356.00,1.44
8355.00,1.44
8354.00,1.44
8353.00,1.44
8352.00,1.44
8351.00,1.44
8350.00,1.44
8349.00,1.44
8348.00,1.44
8347.00,1.44
8346.00,1.44
8345.00,1.44
8344.00,1.45
8343.00,1.45
8342.00,1.45
8341.00,1.45
8340.00,1.45
8339.00,1.45
8338.00,1.45
8337.00,1.45
8336.00,1.45
8335.00,1.45
8334.00,1.45
8333.00,1.45
8332.00,1.45
8331.00,1.45
8330.00,1.45
8329.00,1.45
8328.00,1.45
8327.00,1.45
8326.00,1.45
8325.00,1.45
8324.00,1.45
8323.00,1.45
8322.00,1.45
8321.00,1.45
8320.00,1.45
8319.00,1.45
8318.00,1.45
8317.00,1.45
8316.00,1.45
8315.00,1.45
8314.00,1.45
8313.00,1.45
8312.00,1.45
8311.00,1.45
8310.00,1.45
8309.00,1.45
8308.00,1.45
8307.00,1.45
8306.00,1.45
8305.00,1.45
8304.00,1.45
8303.00,1.45
8302.00,1.45
8301.00,1.45
8300.00,1.45
8299.00,1.45
8298.00,1.45
8297.00,1.45
8296.00,1.45
8295.00,1.45
8294.00,1.45
8293.00,1.45
8292.00,1.45
8291.00,1.45
8290.00,1.45
8289.00,1.45
8288.00,1.46
8287.00,1.46
8286.00,1.46
8285.00,1.46
8284.00,1.46
8283.00,1.46
8282.00,1.46
8281.00,1.46
8280.00,1.46
8279.00,1.46
8278.00,1.46
8277.00,1.46
8276.00,1.46
8275.00,1.46
8274.00,1.46
8273.00,1.46
8272.00,1.46
8271.00,1.46
8270.00,1.46
8269.00,1.46
8268.00,1.46
8267.00,1.46
8266.00,1.46
8265.00,1.46
8264.00,1.46
8263.00,1.46
8262.00,1.46
8261.00,1.46
8260.00,1.46
8259.00,1.46
8258.00,1.46
8257.00,1.46
8256.00,1.46
8255.00,1.46
8254.00,1.46
8253.00,1.46
8252.00,1.46
8251.00,1.46
8250.00,1.46
8249.00,1.46
8248.00,1.46
8247.00,1.46
8246.00,1.46
8245.00,1.46
8244.00,1.46
8243.00,1.46
8242.00,1.46
8241.00,1.46
8240.00,1.46
8239.00,1.46
8238.00,1.46
8237.00,1.46
8236.00,1.46
8235.00,1.46
8234.00,1.46
8233.00,1.46
8232.00,1.46
8231.00,1.46
8230.00,1.46
8229.00,1.46
8228.00,1.46
8227.00,1.46
8226.00,1.46
8225.00,1.46
8224.00,1.46
8223.00,1.47
8222.00,1.47
8221.00,1.47
8220.00,1.47
8219.00,1.47
8218.00,1.47
8217.00,1.47
8216.00,1.47
8215.00,1.47
8214.00,1.47
8213.00,1.48
8212.00,1.48
8211.00,1.48
8210.00,1.48
8209.00,1.48
8208.00,1.48
8207.00,1.48
8206.00,1.48
8205.00,1.48
8204.00,1.48
8203.00,1.48
8202.00,1.48
8201.00,1.48
8200.00,1.48
8199.00,1.48
8198.00,1.48
8197.00,1.48
8196.00,1.48
8195.00,1.48
8194.00,1.48
8193.00,1.49
8192.00,1.49
8191.00,1.49
8190.00,1.49
8189.00,1.49
8188.00,1.49
8187.00,1.49
8186.00,1.49
8185.00,1.49
8184.00,1.49
8183.00,1.49
8182.00,1.49
8181.00,1.49
8180.00,1.49
8179.00,1.49
8178.00,1.49
8177.00,1.49
8176.00,1.49
8175.00,1.49
8174.00,1.49
8173.00,1.49
8172.00,1.49
8171.00,1.49
8170.00,1.49
8169.00,1.49
8168.00,1.49
8167.00,1.49
8166.00,1.49
8165.00,1.49
8164.00,1.49
8163.00,1.49
8162.00,1.48
8161.00,1.48
8160.00,1.48
8159.00,1.48
8158.00,1.48
8157.00,1.48
8156.00,1.48
8155.00,1.48
8154.00,1.48
8153.00,1.48
8152.00,1.49
8151.00,1.49
8150.00,1.49
8149.00,1.49
8148.00,1.49
8147.00,1.49
8146.00,1.49
8145.00,1.49
8144.00,1.49
8143.00,1.50
8142.00,1.50
8141.00,1.50
8140.00,1.50
8139.00,1.50
8138.00,1.50
8137.00,1.50
8136.00,1.50
8135.00,1.50
8134.00,1.50
8133.00,1.50
8132.00,1.50
8131.00,1.50
8130.00,1.50
8129.00,1.50
8128.00,1.50
8127.00,1.50
8126.00,1.50
8125.00,1.50
8124.00,1.50
8123.00,1.50
8122.00,1.50
8121.00,1.50
8120.00,1.50
8119.00,1.51
8118.00,1.51
8117.00,1.51
8116.00,1.51
8115.00,1.51
8114.00,1.51
8113.00,1.51
8112.00,1.51
8111.00,1.51
8110.00,1.51
8109.00,1.51
8108.00,1.52
8107.00,1.52
8106.00,1.52
8105.00,1.52
8104.00,1.52
8103.00,1.52
8102.00,1.52
8101.00,1.52
8100.00,1.52
8099.00,1.52
8098.00,1.51
8097.00,1.51
8096.00,1.51
8095.00,1.51
8094.00,1.51
8093.00,1.51
8092.00,1.51
8091.00,1.51
8090.00,1.51
8089.00,1.51
8088.00,1.51
8087.00,1.51
8086.00,1.51
8085.00,1.51
8084.00,1.51
8083.00,1.51
8082.00,1.51
8081.00,1.51
8080.00,1.51
8079.00,1.51
8078.00,1.51
8077.00,1.51
8076.00,1.51
8075.00,1.51
8074.00,1.51
8073.00,1.51
8072.00,1.51
8071.00,1.51
8070.00,1.51
8069.00,1.52
8068.00,1.52
8067.00,1.52
8066.00,1.52
8065.00,1.52
8064.00,1.52
8063.00,1.52
8062.00,1.52
8061.00,1.52
8060.00,1.52
8059.00,1.52
8058.00,1.52
8057.00,1.52
8056.00,1.52
8055.00,1.52
8054.00,1.52
8053.00,1.52
8052.00,1.52
8051.00,1.52
8050.00,1.52
8049.00,1.52
8048.00,1.52
8047.00,1.52
8046.00,1.52
8045.00,1.53
8044.00,1.53
8043.00,1.53
8042.00,1.53
8041.00,1.53
8040.00,1.53
8039.00,1.53
8038.00,1.53
8037.00,1.53
8036.00,1.53
8035.00,1.53
8034.00,1.53
8033.00,1.53
8032.00,1.53
8031.00,1.53
8030.00,1.53
8029.00,1.53
8028.00,1.53
8027.00,1.53
8026.00,1.53
8025.00,1.53
8024.00,1.53
8023.00,1.53
8022.00,1.53
8021.00,1.53
8020.00,1.53
8019.00,1.53
8018.00,1.53
8017.00,1.53
8016.00,1.53
8015.00,1.53
8014.00,1.53
8013.00,1.53
8012.00,1.53
8011.00,1.53
8010.00,1.53
8009.00,1.53
8008.00,1.53
8007.00,1.53
8006.00,1.53
8005.00,1.53
8004.00,1.53
8003.00,1.53
8002.00,1.53
8001.00,1.53
8000.00,1.53
7999.00,1.53
7998.00,1.53
7997.00,1.53
7996.00,1.53
7995.00,1.53
7994.00,1.53
7993.00,1.53
7992.00,1.53
7991.00,1.53
7990.00,1.53
7989.00,1.53
7988.00,1.53
7987.00,1.53
7986.00,1.53
7985.00,1.52
7984.00,1.52
7983.00,1.52
7982.00,1.52
7981.00,1.52
7980.00,1.52
7979.00,1.52
7978.00,1.52
7977.00,1.52
7976.00,1.52
7975.00,1.52
7974.00,1.52
7973.00,1.52
7972.00,1.52
7971.00,1.52
7970.00,1.52
7969.00,1.52
7968.00,1.52
7967.00,1.52
7966.00,1.52
7965.00,1.53
7964.00,1.53
7963.00,1.53
7962.00,1.53
7961.00,1.53
7960.00,1.53
7959.00,1.53
7958.00,1.53
7957.00,1.53
7956.00,1.53
7955.00,1.53
7954.00,1.53
7953.00,1.53
7952.00,1.53
7951.00,1.53
7950.00,1.53
7949.00,1.53
7948.00,1.53
7947.00,1.53
7946.00,1.53
7945.00,1.53
7944.00,1.53
7943.00,1.53
7942.00,1.53
7941.00,1.53
7940.00,1.53
7939.00,1.53
7938.00,1.53
7937.00,1.53
7936.00,1.53
7935.00,1.53
7934.00,1.53
7933.00,1.53
7932.00,1.53
7931.00,1.53
7930.00,1.53
7929.00,1.53
7928.00,1.53
7927.00,1.53
7926.00,1.53
7925.00,1.53
7924.00,1.53
7923.00,1.53
7922.00,1.53
7921.00,1.53
7920.00,1.53
7919.00,1.53
7918.00,1.54
7917.00,1.54
7916.00,1.54
7915.00,1.54
7914.00,1.54
7913.00,1.54
7912.00,1.54
7911.00,1.54
7910.00,1.54
7909.00,1.54
7908.00,1.54
7907.00,1.55
7906.00,1.55
7905.00,1.55
7904.00,1.55
7903.00,1.55
7902.00,1.55
7901.00,1.55
7900.00,1.55
7899.00,1.55
7898.00,1.55
7897.00,1.55
7896.00,1.55
7895.00,1.55
7894.00,1.55
7893.00,1.55
7892.00,1.55
7891.00,1.55
7890.00,1.55
7889.00,1.55
7888.00,1.55
7887.00,1.55
7886.00,1.55
7885.00,1.54
7884.00,1.54
7883.00,1.54
7882.00,1.54
7881.00,1.54
7880.00,1.54
7879.00,1.54
7878.00,1.54
7877.00,1.54
7876.00,1.54
7875.00,1.54
7874.00,1.54
7873.00,1.54
7872.00,1.54
7871.00,1.54
7870.00,1.54
7869.00,1.54
7868.00,1.54
7867.00,1.54
7866.00,1.55
7865.00,1.55
7864.00,1.55
7863.00,1.55
7862.00,1.55
7861.00,1.55
7860.00,1.55
7859.00,1.55
7858.00,1.55
7857.00,1.55
7856.00,1.55
7855.00,1.55
7854.00,1.55
7853.00,1.55
7852.00,1.55
7851.00,1.55
7850.00,1.55
7849.00,1.55
7848.00,1.55
7847.00,1.55
7846.00,1.55
7845.00,1.55
7844.00,1.55
7843.00,1.55
7842.00,1.55
7841.00,1.55
7840.00,1.55
7839.00,1.55
7838.00,1.55
7837.00,1.55
7836.00,1.55
7835.00,1.55
7834.00,1.55
7833.00,1.55
7832.00,1.55
7831.00,1.55
7830.00,1.55
7829.00,1.55
7828.00,1.55
7827.00,1.55
7826.00,1.55
7825.00,1.55
7824.00,1.55
7823.00,1.55
7822.00,1.55
7821.00,1.55
7820.00,1.55
7819.00,1.55
7818.00,1.55
7817.00,1.55
7816.00,1.55
7815.00,1.55
7814.00,1.55
7813.00,1.55
7812.00,1.55
7811.00,1.55
7810.00,1.55
7809.00,1.55
7808.00,1.55
7807.00,1.55
7806.00,1.55
7805.00,1.55
7804.00,1.55
7803.00,1.55
7802.00,1.55
7801.00,1.55
7800.00,1.55
7799.00,1.55
7798.00,1.55
7797.00,1.55
7796.00,1.55
7795.00,1.55
7794.00,1.55
7793.00,1.55
7792.00,1.55
7791.00,1.55
7790.00,1.55
7789.00,1.55
7788.00,1.55
7787.00,1.55
7786.00,1.55
7785.00,1.55
7784.00,1.55
7783.00,1.55
7782.00,1.55
7781.00,1.55
7780.00,1.55
7779.00,1.55
7778.00,1.55
7777.00,1.55
7776.00,1.55
7775.00,1.55
7774.00,1.55
7773.00,1.55
7772.00,1.55
7771.00,1.55
7770.00,1.55
7769.00,1.55
7768.00,1.55
7767.00,1.56
7766.00,1.56
7765.00,1.56
7764.00,1.56
7763.00,1.56
7762.00,1.56
7761.00,1.56
7760.00,1.56
7759.00,1.56
7758.00,1.56
7757.00,1.56
7756.00,1.56
7755.00,1.56
7754.00,1.56
7753.00,1.56
7752.00,1.56
7751.00,1.56
7750.00,1.56
7749.00,1.56
7748.00,1.55
7747.00,1.55
7746.00,1.55
7745.00,1.55
7744.00,1.55
7743.00,1.55
7742.00,1.55
7741.00,1.55
7740.00,1.55
7739.00,1.55
7738.00,1.55
7737.00,1.55
7736.00,1.55
7735.00,1.55
7734.00,1.55
7733.00,1.55
7732.00,1.55
7731.00,1.55
7730.00,1.55
7729.00,1.55
7728.00,1.55
7727.00,1.55
7726.00,1.55
7725.00,1.55
7724.00,1.56
7723.00,1.56
7722.00,1.56
7721.00,1.56
7720.00,1.56
7719.00,1.56
7718.00,1.56
7717.00,1.56
7716.00,1.56
7715.00,1.56
7714.00,1.56
7713.00,1.56
7712.00,1.56
7711.00,1.56
7710.00,1.56
7709.00,1.56
7708.00,1.56
7707.00,1.56
7706.00,1.56
7705.00,1.56
7704.00,1.56
7703.00,1.56
7702.00,1.56
7701.00,1.56
7700.00,1.56
7699.00,1.56
7698.00,1.56
7697.00,1.56
7696.00,1.56
7695.00,1.56
7694.00,1.56
7693.00,1.56
7692.00,1.56
7691.00,1.56
7690.00,1.56
7689.00,1.56
7688.00,1.56
7687.00,1.56
7686.00,1.56
7685.00,1.56
7684.00,1.56
7683.00,1.56
7682.00,1.56
7681.00,1.56
7680.00,1.56
7679.00,1.56
7678.00,1.56
7677.00,1.56
7676.00,1.57
7675.00,1.57
7674.00,1.57
7673.00,1.57
7672.00,1.57
7671.00,1.57
7670.00,1.57
7669.00,1.57
7668.00,1.57
7667.00,1.57
7666.00,1.57
7665.00,1.57
7664.00,1.57
7663.00,1.57
7662.00,1.57
7661.00,1.57
7660.00,1.57
7659.00,1.57
7658.00,1.57
7657.00,1.57
7656.00,1.57
7655.00,1.57
7654.00,1.57
7653.00,1.57
7652.00,1.56
7651.00,1.56
7650.00,1.56
7649.00,1.56
7648.00,1.56
7647.00,1.56
7646.00,1.56
7645.00,1.56
7644.00,1.56
7643.00,1.56
7642.00,1.56
7641.00,1.56
7640.00,1.56
7639.00,1.56
7638.00,1.56
7637.00,1.56
7636.00,1.56
7635.00,1.56
7634.00,1.56
7633.00,1.56
7632.00,1.56
7631.00,1.56
7630.00,1.56
7629.00,1.56
7628.00,1.56
7627.00,1.56
7626.00,1.56
7625.00,1.56
7624.00,1.56
7623.00,1.56
7622.00,1.56
7621.00,1.56
7620.00,1.56
7619.00,1.56
7618.00,1.56
7617.00,1.57
7616.00,1.57
7615.00,1.57
7614.00,1.57
7613.00,1.57
7612.00,1.57
7611.00,1.57
7610.00,1.57
7609.00,1.57
7608.00,1.57
7607.00,1.57
7606.00,1.57
7605.00,1.57
7604.00,1.57
7603.00,1.57
7602.00,1.57
7601.00,1.57
7600.00,1.57
7599.00,1.57
7598.00,1.57
7597.00,1.57
7596.00,1.57
7595.00,1.57
7594.00,1.57
7593.00,1.57
7592.00,1.57
7591.00,1.57
7590.00,1.57
7589.00,1.57
7588.00,1.56
7587.00,1.56
7586.00,1.56
7585.00,1.56
7584.00,1.56
7583.00,1.56
7582.00,1.56
7581.00,1.56
7580.00,1.56
7579.00,1.56
7578.00,1.56
7577.00,1.56
7576.00,1.56
7575.00,1.56
7574.00,1.56
7573.00,1.56
7572.00,1.56
7571.00,1.56
7570.00,1.56
7569.00,1.56
7568.00,1.56
7567.00,1.56
7566.00,1.56
7565.00,1.56
7564.00,1.56
7563.00,1.56
7562.00,1.56
7561.00,1.56
7560.00,1.56
7559.00,1.56
7558.00,1.56
7557.00,1.56
7556.00,1.56
7555.00,1.56
7554.00,1.56
7553.00,1.56
7552.00,1.56
7551.00,1.56
7550.00,1.56
7549.00,1.56
7548.00,1.56
7547.00,1.56
7546.00,1.56
7545.00,1.56
7544.00,1.56
7543.00,1.56
7542.00,1.56
7541.00,1.56
7540.00,1.55
7539.00,1.55
7538.00,1.55
7537.00,1.55
7536.00,1.55
7535.00,1.55
7534.00,1.55
7533.00,1.55
7532.00,1.55
7531.00,1.55
7530.00,1.55
7529.00,1.55
7528.00,1.55
7527.00,1.55
7526.00,1.55
7525.00,1.55
7524.00,1.55
7523.00,1.55
7522.00,1.55
7521.00,1.55
7520.00,1.55
7519.00,1.55
7518.00,1.55
7517.00,1.55
7516.00,1.55
7515.00,1.55
7514.00,1.55
7513.00,1.55
7512.00,1.55
7511.00,1.55
7510.00,1.55
7509.00,1.55
7508.00,1.55
7507.00,1.55
7506.00,1.55
7505.00,1.55
7504.00,1.55
7503.00,1.55
7502.00,1.55
7501.00,1.55
7500.00,1.55
7499.00,1.55
7498.00,1.55
7497.00,1.55
7496.00,1.55
7495.00,1.54
7494.00,1.54
7493.00,1.54
7492.00,1.54
7491.00,1.54
7490.00,1.54
7489.00,1.54
7488.00,1.54
7487.00,1.54
7486.00,1.54
7485.00,1.54
7484.00,1.54
7483.00,1.54
7482.00,1.54
7481.00,1.54
7480.00,1.54
7479.00,1.54
7478.00,1.54
7477.00,1.54
7476.00,1.54
7475.00,1.54
7474.00,1.54
7473.00,1.54
7472.00,1.54
7471.00,1.54
7470.00,1.54
7469.00,1.54
7468.00,1.54
7467.00,1.54
7466.00,1.53
7465.00,1.53
7464.00,1.53
7463.00,1.53
7462.00,1.53
7461.00,1.53
7460.00,1.53
7459.00,1.53
7458.00,1.52
7457.00,1.52
7456.00,1.52
7455.00,1.52
7454.00,1.52
7453.00,1.52
7452.00,1.52
7451.00,1.52
7450.00,1.52
7449.00,1.52
7448.00,1.52
7447.00,1.52
7446.00,1.52
7445.00,1.52
7444.00,1.52
7443.00,1.52
7442.00,1.52
7441.00,1.52
7440.00,1.52
7439.00,1.52
7438.00,1.52
7437.00,1.52
7436.00,1.52
7435.00,1.52
7434.00,1.52
7433.00,1.52
7432.00,1.52
7431.00,1.52
7430.00,1.52
7429.00,1.52
7428.00,1.52
7427.00,1.52
7426.00,1.52
7425.00,1.52
7424.00,1.52
7423.00,1.52
7422.00,1.52
7421.00,1.52
7420.00,1.52
7419.00,1.52
7418.00,1.52
7417.00,1.52
7416.00,1.52
7415.00,1.52
7414.00,1.52
7413.00,1.52
7412.00,1.52
7411.00,1.52
7410.00,1.52
7409.00,1.51
7408.00,1.51
7407.00,1.51
7406.00,1.51
7405.00,1.51
7404.00,1.51
7403.00,1.51
7402.00,1.51
7401.00,1.51
7400.00,1.51
7399.00,1.51
7398.00,1.50
7397.00,1.50
7396.00,1.50
7395.00,1.50
7394.00,1.50
7393.00,1.50
7392.00,1.50
7391.00,1.50
7390.00,1.50
7389.00,1.50
7388.00,1.49
7387.00,1.49
7386.00,1.49
7385.00,1.49
7384.00,1.49
7383.00,1.49
7382.00,1.49
7381.00,1.49
7380.00,1.48
7379.00,1.48
7378.00,1.48
7377.00,1.48
7376.00,1.48
7375.00,1.48
7374.00,1.48
7373.00,1.48
7372.00,1.48
7371.00,1.48
7370.00,1.48
7369.00,1.48
7368.00,1.48
7367.00,1.48
7366.00,1.48
7365.00,1.48
7364.00,1.48
7363.00,1.48
7362.00,1.48
7361.00,1.48
7360.00,1.48
7359.00,1.48
7358.00,1.48
7357.00,1.48
7356.00,1.48
7355.00,1.48
7354.00,1.48
7353.00,1.48
7352.00,1.48
7351.00,1.48
7350.00,1.48
7349.00,1.48
7348.00,1.48
7347.00,1.47
7346.00,1.47
7345.00,1.47
7344.00,1.47
7343.00,1.47
7342.00,1.47
7341.00,1.47
7340.00,1.47
7339.00,1.47
7338.00,1.47
7337.00,1.47
7336.00,1.47
7335.00,1.47
7334.00,1.47
7333.00,1.47
7332.00,1.47
7331.00,1.47
7330.00,1.47
7329.00,1.47
7328.00,1.47
7327.00,1.47
7326.00,1.47
7325.00,1.47
7324.00,1.47
7323.00,1.47
7322.00,1.47
7321.00,1.47
7320.00,1.47
7319.00,1.46
7318.00,1.46
7317.00,1.46
7316.00,1.46
7315.00,1.46
7314.00,1.46
7313.00,1.46
7312.00,1.46
7311.00,1.46
7310.00,1.46
7309.00,1.46
7308.00,1.46
7307.00,1.46
7306.00,1.46
7305.00,1.46
7304.00,1.46
7303.00,1.46
7302.00,1.46
7301.00,1.45
7300.00,1.45
7299.00,1.45
7298.00,1.45
7297.00,1.45
7296.00,1.45
7295.00,1.45
7294.00,1.45
7293.00,1.45
7292.00,1.45
7291.00,1.45
7290.00,1.45
7289.00,1.44
7288.00,1.44
7287.00,1.44
7286.00,1.44
7285.00,1.44
7284.00,1.44
7283.00,1.44
7282.00,1.44
7281.00,1.44
7280.00,1.44
7279.00,1.44
7278.00,1.44
7277.00,1.44
7276.00,1.43
7275.00,1.43
7274.00,1.43
7273.00,1.43
7272.00,1.43
7271.00,1.43
7270.00,1.42
7269.00,1.42
7268.00,1.42
7267.00,1.42
7266.00,1.42
7265.00,1.41
7264.00,1.41
7263.00,1.41
7262.00,1.41
7261.00,1.41
7260.00,1.41
7259.00,1.40
7258.00,1.40
7257.00,1.40
7256.00,1.40
7255.00,1.40
7254.00,1.40
7253.00,1.40
7252.00,1.40
7251.00,1.40
7250.00,1.39
7249.00,1.39
7248.00,1.39
7247.00,1.39
7246.00,1.39
7245.00,1.38
7244.00,1.38
7243.00,1.38
7242.00,1.38
7241.00,1.37
7240.00,1.37
7239.00,1.37
7238.00,1.37
7237.00,1.36
7236.00,1.36
7235.00,1.36
7234.00,1.35
7233.00,1.35
7232.00,1.35
7231.00,1.35
7230.00,1.34
7229.00,1.34
7228.00,1.34
7227.00,1.34
7226.00,1.33
7225.00,1.33
7224.00,1.33
7223.00,1.32
7222.00,1.32
7221.00,1.32
7220.00,1.32
7219.00,1.31
7218.00,1.31
7217.00,1.31
7216.00,1.30
7215.00,1.30
7214.00,1.30
7213.00,1.29
7212.00,1.29
7211.00,1.29
7210.00,1.28
7209.00,1.28
7208.00,1.28
7207.00,1.27
7206.00,1.27
7205.00,1.26
7204.00,1.26
7203.00,1.26
7202.00,1.25
7201.00,1.25
7200.00,1.25
7199.00,1.24
7198.00,1.24
7197.00,1.24
7196.00,1.23
7195.00,1.23
7194.00,1.23
7193.00,1.22
7192.00,1.22
7191.00,1.22
7190.00,1.22
7189.00,1.21
7188.00,1.21
7187.00,1.21
7186.00,1.20
7185.00,1.20
7184.00,1.20
7183.00,1.20
7182.00,1.19
7181.00,1.19
7180.00,1.19
7179.00,1.18
7178.00,1.18
7177.00,1.18
7176.00,1.17
7175.00,1.17
7174.00,1.17
7173.00,1.17
7172.00,1.16
7171.00,1.16
7170.00,1.16
7169.00,1.16
7168.00,1.15
7167.00,1.15
7166.00,1.15
7165.00,1.15
7164.00,1.14
7163.00,1.14
7162.00,1.14
7161.00,1.14
7160.00,1.14
7159.00,1.13
7158.00,1.13
7157.00,1.13
7156.00,1.13
7155.00,1.12
7154.00,1.12
7153.00,1.12
7152.00,1.12
7151.00,1.11
7150.00,1.11
7149.00,1.11
7148.00,1.10
7147.00,1.10
7146.00,1.10
7145.00,1.09
7144.00,1.09
7143.00,1.09
7142.00,1.08
7141.00,1.08
7140.00,1.08
7139.00,1.07
7138.00,1.07
7137.00,1.07
7136.00,1.06
7135.00,1.06
7134.00,1.06
7133.00,1.06
7132.00,1.05
7131.00,1.05
7130.00,1.05
7129.00,1.05
7128.00,1.04
7127.00,1.04
7126.00,1.04
7125.00,1.04
7124.00,1.03
7123.00,1.03
7122.00,1.03
7121.00,1.02
7120.00,1.02
7119.00,1.02
7118.00,1.01
7117.00,1.01
7116.00,1.01
7115.00,1.01
7114.00,1.00
7113.00,1.00
7112.00,1.00
7111.00,0.99
7110.00,0.99
7109.00,0.99
7108.00,0.99
7107.00,0.99
7106.00,0.98
7105.00,0.98
7104.00,0.98
7103.00,0.97
7102.00,0.97
7101.00,0.97
7100.00,0.97
7099.00,0.96
7098.00,0.96
7097.00,0.96
7096.00,0.95
7095.00,0.95
7094.00,0.95
7093.00,0.94
7092.00,0.94
7091.00,0.94
7090.00,0.94
7089.00,0.93
7088.00,0.93
7087.00,0.93
7086.00,0.93
7085.00,0.92
7084.00,0.92
7083.00,0.92
7082.00,0.92
7081.00,0.92
7080.00,0.91
7079.00,0.91
7078.00,0.91
7077.00,0.91
7076.00,0.91
7075.00,0.91
7074.00,0.91
7073.00,0.90
7072.00,0.90
7071.00,0.90
7070.00,0.90
7069.00,0.90
7068.00,0.90
7067.00,0.89
7066.00,0.89
7065.00,0.89
7064.00,0.89
7063.00,0.89
7062.00,0.88
7061.00,0.88
7060.00,0.88
7059.00,0.88
7058.00,0.88
7057.00,0.87
7056.00,0.87
7055.00,0.87
7054.00,0.87
7053.00,0.87
7052.00,0.87
7051.00,0.86
7050.00,0.86
7049.00,0.86
7048.00,0.86
7047.00,0.86
7046.00,0.86
7045.00,0.86
7044.00,0.86
7043.00,0.86
7042.00,0.86
7041.00,0.86
7040.00,0.86
7039.00,0.85
7038.00,0.85
7037.00,0.85
7036.00,0.85
7035.00,0.85
7034.00,0.85
7033.00,0.85
7032.00,0.85
7031.00,0.85
7030.00,0.85
7029.00,0.84
7028.00,0.84
7027.00,0.84
7026.00,0.84
7025.00,0.84
7024.00,0.84
7023.00,0.83
7022.00,0.83
7021.00,0.83
7020.00,0.83
7019.00,0.83
7018.00,0.83
7017.00,0.83
7016.00,0.83
7015.00,0.82
7014.00,0.82
7013.00,0.82
7012.00,0.82
7011.00,0.82
7010.00,0.82
7009.00,0.82
7008.00,0.82
7007.00,0.82
7006.00,0.82
7005.00,0.82
7004.00,0.82
7003.00,0.82
7002.00,0.81
7001.00,0.81
7000.00,0.81
6999.00,0.81
6998.00,0.81
6997.00,0.81
6996.00,0.81
6995.00,0.81
6994.00,0.81
6993.00,0.81
6992.00,0.80
6991.00,0.80
6990.00,0.80
6989.00,0.80
6988.00,0.80
6987.00,0.80
6986.00,0.80
6985.00,0.80
6984.00,0.80
6983.00,0.80
6982.00,0.80
6981.00,0.80
6980.00,0.80
6979.00,0.80
6978.00,0.79
6977.00,0.79
6976.00,0.79
6975.00,0.79
6974.00,0.79
6973.00,0.79
6972.00,0.79
6971.00,0.79
6970.00,0.79
6969.00,0.79
6968.00,0.79
6967.00,0.79
6966.00,0.79
6965.00,0.79
6964.00,0.79
6963.00,0.79
6962.00,0.79
6961.00,0.79
6960.00,0.79
6959.00,0.79
6958.00,0.79
6957.00,0.79
6956.00,0.79
6955.00,0.79
6954.00,0.78
6953.00,0.78
6952.00,0.78
6951.00,0.78
6950.00,0.78
6949.00,0.78
6948.00,0.78
6947.00,0.78
6946.00,0.78
6945.00,0.78
6944.00,0.78
6943.00,0.77
6942.00,0.77
6941.00,0.77
6940.00,0.77
6939.00,0.77
6938.00,0.77
6937.00,0.77
6936.00,0.77
6935.00,0.77
6934.00,0.77
6933.00,0.77
6932.00,0.76
6931.00,0.76
6930.00,0.76
6929.00,0.76
6928.00,0.76
6927.00,0.76
6926.00,0.76
6925.00,0.76
6924.00,0.76
6923.00,0.76
6922.00,0.76
6921.00,0.76
6920.00,0.76
6919.00,0.76
6918.00,0.76
6917.00,0.75
6916.00,0.75
6915.00,0.75
6914.00,0.75
6913.00,0.75
6912.00,0.75
6911.00,0.75
6910.00,0.75
6909.00,0.75
6908.00,0.75
6907.00,0.75
6906.00,0.75
6905.00,0.75
6904.00,0.75
6903.00,0.75
6902.00,0.75
6901.00,0.75
6900.00,0.75
6899.00,0.75
6898.00,0.75
6897.00,0.75
6896.00,0.75
6895.00,0.75
6894.00,0.75
6893.00,0.75
6892.00,0.75
6891.00,0.75
6890.00,0.75
6889.00,0.75
6888.00,0.75
6887.00,0.75
6886.00,0.75
6885.00,0.75
6884.00,0.75
6883.00,0.75
6882.00,0.75
6881.00,0.75
6880.00,0.75
6879.00,0.75
6878.00,0.75
6877.00,0.75
6876.00,0.75
6875.00,0.75
6874.00,0.75
6873.00,0.75
6872.00,0.75
6871.00,0.75
6870.00,0.75
6869.00,0.75
6868.00,0.75
6867.00,0.75
6866.00,0.75
6865.00,0.75
6864.00,0.75
6863.00,0.75
6862.00,0.75
6861.00,0.75
6860.00,0.75
6859.00,0.75
6858.00,0.75
6857.00,0.75
6856.00,0.75
6855.00,0.75
6854.00,0.75
6853.00,0.75
6852.00,0.75
6851.00,0.75
6850.00,0.75
6849.00,0.75
6848.00,0.75
6847.00,0.75
6846.00,0.75
6845.00,0.75
6844.00,0.75
6843.00,0.75
6842.00,0.75
6841.00,0.75
6840.00,0.75
6839.00,0.75
6838.00,0.75
6837.00,0.76
6836.00,0.76
6835.00,0.76
6834.00,0.76
6833.00,0.76
6832.00,0.76
6831.00,0.76
6830.00,0.76
6829.00,0.76
6828.00,0.76
6827.00,0.76
6826.00,0.76
6825.00,0.76
6824.00,0.76
6823.00,0.76
6822.00,0.76
6821.00,0.76
6820.00,0.76
6819.00,0.77
6818.00,0.77
6817.00,0.77
6816.00,0.77
6815.00,0.77
6814.00,0.77
6813.00,0.77
6812.00,0.77
6811.00,0.77
6810.00,0.77
6809.00,0.77
6808.00,0.77
6807.00,0.77
6806.00,0.77
6805.00,0.77
6804.00,0.77
6803.00,0.78
6802.00,0.78
6801.00,0.78
6800.00,0.78
6799.00,0.78
6798.00,0.78
6797.00,0.78
6796.00,0.78
6795.00,0.78
6794.00,0.78
6793.00,0.78
6792.00,0.78
6791.00,0.78
6790.00,0.78
6789.00,0.78
6788.00,0.78
6787.00,0.79
6786.00,0.79
6785.00,0.79
6784.00,0.79
6783.00,0.79
6782.00,0.79
6781.00,0.79
6780.00,0.79
6779.00,0.79
6778.00,0.79
6777.00,0.79
6776.00,0.79
6775.00,0.79
6774.00,0.79
6773.00,0.79
6772.00,0.79
6771.00,0.80
6770.00,0.80
6769.00,0.80
6768.00,0.80
6767.00,0.80
6766.00,0.80
6765.00,0.80
6764.00,0.80
6763.00,0.80
6762.00,0.80
6761.00,0.80
6760.00,0.80
6759.00,0.80
6758.00,0.81
6757.00,0.81
6756.00,0.81
6755.00,0.81
6754.00,0.81
6753.00,0.81
6752.00,0.81
6751.00,0.81
6750.00,0.82
6749.00,0.82
6748.00,0.82
6747.00,0.82
6746.00,0.82
6745.00,0.82
6744.00,0.82
6743.00,0.82
6742.00,0.83
6741.00,0.83
6740.00,0.83
6739.00,0.83
6738.00,0.83
6737.00,0.83
6736.00,0.83
6735.00,0.83
6734.00,0.83
6733.00,0.83
6732.00,0.83
6731.00,0.84
6730.00,0.84
6729.00,0.84
6728.00,0.84
6727.00,0.84
6726.00,0.84
6725.00,0.84
6724.00,0.84
6723.00,0.84
6722.00,0.84
6721.00,0.84
6720.00,0.84
6719.00,0.84
6718.00,0.84
6717.00,0.85
6716.00,0.85
6715.00,0.85
6714.00,0.85
6713.00,0.85
6712.00,0.85
6711.00,0.85
6710.00,0.85
6709.00,0.85
6708.00,0.85
6707.00,0.86
6706.00,0.86
6705.00,0.86
6704.00,0.86
6703.00,0.86
6702.00,0.86
6701.00,0.86
6700.00,0.86
6699.00,0.86
6698.00,0.86
6697.00,0.86
6696.00,0.86
6695.00,0.87
6694.00,0.87
6693.00,0.87
6692.00,0.87
6691.00,0.87
6690.00,0.87
6689.00,0.87
6688.00,0.87
6687.00,0.87
6686.00,0.88
6685.00,0.88
6684.00,0.88
6683.00,0.88
6682.00,0.88
6681.00,0.88
6680.00,0.88
6679.00,0.89
6678.00,0.89
6677.00,0.89
6676.00,0.89
6675.00,0.89
6674.00,0.89
6673.00,0.89
6672.00,0.90
6671.00,0.90
6670.00,0.90
6669.00,0.90
6668.00,0.90
6667.00,0.91
6666.00,0.91
6665.00,0.91
6664.00,0.91
6663.00,0.91
6662.00,0.91
6661.00,0.91
6660.00,0.91
6659.00,0.92
6658.00,0.92
6657.00,0.92
6656.00,0.92
6655.00,0.92
6654.00,0.92
6653.00,0.92
6652.00,0.92
6651.00,0.92
6650.00,0.92
6649.00,0.93
6648.00,0.93
6647.00,0.93
6646.00,0.93
6645.00,0.93
6644.00,0.93
6643.00,0.93
6642.00,0.94
6641.00,0.94
6640.00,0.94
6639.00,0.94
6638.00,0.94
6637.00,0.94
6636.00,0.94
6635.00,0.94
6634.00,0.95
6633.00,0.95
6632.00,0.95
6631.00,0.95
6630.00,0.95
6629.00,0.95
6628.00,0.95
6627.00,0.95
6626.00,0.96
6625.00,0.96
6624.00,0.96
6623.00,0.96
6622.00,0.96
6621.00,0.96
6620.00,0.96
6619.00,0.96
6618.00,0.96
6617.00,0.96
6616.00,0.96
6615.00,0.96
6614.00,0.96
6613.00,0.96
6612.00,0.96
6611.00,0.96
6610.00,0.96
6609.00,0.97
6608.00,0.97
6607.00,0.97
6606.00,0.97
6605.00,0.97
6604.00,0.97
6603.00,0.97
6602.00,0.97
6601.00,0.97
6600.00,0.98
6599.00,0.98
6598.00,0.98
6597.00,0.98
6596.00,0.98
6595.00,0.98
6594.00,0.99
6593.00,0.99
6592.00,0.99
6591.00,0.99
6590.00,0.99
6589.00,0.99
6588.00,1.00
6587.00,1.00
6586.00,1.00
6585.00,1.00
6584.00,1.00
6583.00,1.01
6582.00,1.01
6581.00,1.01
6580.00,1.01
6579.00,1.01
6578.00,1.01
6577.00,1.01
6576.00,1.01
6575.00,1.01
6574.00,1.02
6573.00,1.02
6572.00,1.02
6571.00,1.02
6570.00,1.02
6569.00,1.02
6568.00,1.02
6567.00,1.02
6566.00,1.02
6565.00,1.02
6564.00,1.02
6563.00,1.02
6562.00,1.02
6561.00,1.02
6560.00,1.03
6559.00,1.03
6558.00,1.03
6557.00,1.03
6556.00,1.03
6555.00,1.03
6554.00,1.03
6553.00,1.03
6552.00,1.03
6551.00,1.03
6550.00,1.03
6549.00,1.04
6548.00,1.04
6547.00,1.04
6546.00,1.04
6545.00,1.04
6544.00,1.04
6543.00,1.04
6542.00,1.04
6541.00,1.04
6540.00,1.04
6539.00,1.04
6538.00,1.04
6537.00,1.05
6536.00,1.05
6535.00,1.05
6534.00,1.05
6533.00,1.05
6532.00,1.05
6531.00,1.05
6530.00,1.05
6529.00,1.05
6528.00,1.06
6527.00,1.06
6526.00,1.06
6525.00,1.06
6524.00,1.06
6523.00,1.06
6522.00,1.06
6521.00,1.06
6520.00,1.06
6519.00,1.06
6518.00,1.06
6517.00,1.07
6516.00,1.07
6515.00,1.07
6514.00,1.07
6513.00,1.07
6512.00,1.07
6511.00,1.07
6510.00,1.07
6509.00,1.07
6508.00,1.07
6507.00,1.07
6506.00,1.08
6505.00,1.08
6504.00,1.08
6503.00,1.08
6502.00,1.08
6501.00,1.08
6500.00,1.08
6499.00,1.08
6498.00,1.08
6497.00,1.09
6496.00,1.09
6495.00,1.09
6494.00,1.09
6493.00,1.09
6492.00,1.09
6491.00,1.09
6490.00,1.09
6489.00,1.09
6488.00,1.09
6487.00,1.09
6486.00,1.10
6485.00,1.10
6484.00,1.10
6483.00,1.10
6482.00,1.10
6481.00,1.10
6480.00,1.10
6479.00,1.10
6478.00,1.10
6477.00,1.10
6476.00,1.10
6475.00,1.10
6474.00,1.10
6473.00,1.10
6472.00,1.10
6471.00,1.10
6470.00,1.10
6469.00,1.10
6468.00,1.10
6467.00,1.10
6466.00,1.10
6465.00,1.10
6464.00,1.10
6463.00,1.11
6462.00,1.11
6461.00,1.11
6460.00,1.11
6459.00,1.11
6458.00,1.11
6457.00,1.11
6456.00,1.11
6455.00,1.11
6454.00,1.11
6453.00,1.11
6452.00,1.11
6451.00,1.11
6450.00,1.11
6449.00,1.11
6448.00,1.11
6447.00,1.11
6446.00,1.11
6445.00,1.12
6444.00,1.12
6443.00,1.12
6442.00,1.12
6441.00,1.12
6440.00,1.12
6439.00,1.12
6438.00,1.12
6437.00,1.12
6436.00,1.12
6435.00,1.12
6434.00,1.12
6433.00,1.12
6432.00,1.12
6431.00,1.12
6430.00,1.12
6429.00,1.12
6428.00,1.12
6427.00,1.12
6426.00,1.12
6425.00,1.13
6424.00,1.13
6423.00,1.13
6422.00,1.13
6421.00,1.13
6420.00,1.13
6419.00,1.13
6418.00,1.13
6417.00,1.13
6416.00,1.13
6415.00,1.13
6414.00,1.13
6413.00,1.14
6412.00,1.14
6411.00,1.14
6410.00,1.14
6409.00,1.14
6408.00,1.14
6407.00,1.14
6406.00,1.14
6405.00,1.14
6404.00,1.14
6403.00,1.14
6402.00,1.15
6401.00,1.15
6400.00,1.15
6399.00,1.15
6398.00,1.15
6397.00,1.15
6396.00,1.15
6395.00,1.15
6394.00,1.15
6393.00,1.15
6392.00,1.15
6391.00,1.15
6390.00,1.15
6389.00,1.15
6388.00,1.15
6387.00,1.15
6386.00,1.15
6385.00,1.15
6384.00,1.15
6383.00,1.15
6382.00,1.15
6381.00,1.15
6380.00,1.15
6379.00,1.16
6378.00,1.16
6377.00,1.16
6376.00,1.16
6375.00,1.16
6374.00,1.16
6373.00,1.16
6372.00,1.16
6371.00,1.16
6370.00,1.16
6369.00,1.16
6368.00,1.17
6367.00,1.17
6366.00,1.17
6365.00,1.17
6364.00,1.17
6363.00,1.17
6362.00,1.17
6361.00,1.17
6360.00,1.17
6359.00,1.17
6358.00,1.17
6357.00,1.17
6356.00,1.17
6355.00,1.18
6354.00,1.18
6353.00,1.18
6352.00,1.18
6351.00,1.18
6350.00,1.18
6349.00,1.18
6348.00,1.18
6347.00,1.19
6346.00,1.19
6345.00,1.19
6344.00,1.19
6343.00,1.19
6342.00,1.19
6341.00,1.19
6340.00,1.19
6339.00,1.19
6338.00,1.19
6337.00,1.20
6336.00,1.20
6335.00,1.20
6334.00,1.20
6333.00,1.20
6332.00,1.20
6331.00,1.20
6330.00,1.20
6329.00,1.20
6328.00,1.20
6327.00,1.20
6326.00,1.21
6325.00,1.21
6324.00,1.21
6323.00,1.21
6322.00,1.21
6321.00,1.21
6320.00,1.21
6319.00,1.21
6318.00,1.21
6317.00,1.21
6316.00,1.22
6315.00,1.22
6314.00,1.22
6313.00,1.22
6312.00,1.22
6311.00,1.22
6310.00,1.22
6309.00,1.22
6308.00,1.22
6307.00,1.23
6306.00,1.23
6305.00,1.23
6304.00,1.23
6303.00,1.23
6302.00,1.23
6301.00,1.23
6300.00,1.23
6299.00,1.23
6298.00,1.23
6297.00,1.24
6296.00,1.24
6295.00,1.24
6294.00,1.24
6293.00,1.24
6292.00,1.24
6291.00,1.24
6290.00,1.24
6289.00,1.24
6288.00,1.24
6287.00,1.25
6286.00,1.25
6285.00,1.25
6284.00,1.25
6283.00,1.25
6282.00,1.25
6281.00,1.25
6280.00,1.25
6279.00,1.26
6278.00,1.26
6277.00,1.26
6276.00,1.26
6275.00,1.26
6274.00,1.26
6273.00,1.26
6272.00,1.26
6271.00,1.27
6270.00,1.27
6269.00,1.27
6268.00,1.27
6267.00,1.27
6266.00,1.27
6265.00,1.27
6264.00,1.27
6263.00,1.27
6262.00,1.27
6261.00,1.27
6260.00,1.27
6259.00,1.28
6258.00,1.28
6257.00,1.28
6256.00,1.28
6255.00,1.28
6254.00,1.28
6253.00,1.28
6252.00,1.28
6251.00,1.28
6250.00,1.29
6249.00,1.29
6248.00,1.29
6247.00,1.29
6246.00,1.29
6245.00,1.29
6244.00,1.29
6243.00,1.29
6242.00,1.30
6241.00,1.30
6240.00,1.30
6239.00,1.30
6238.00,1.30
6237.00,1.30
6236.00,1.30
6235.00,1.30
6234.00,1.31
6233.00,1.31
6232.00,1.31
6231.00,1.31
6230.00,1.31
6229.00,1.31
6228.00,1.31
6227.00,1.31
6226.00,1.31
6225.00,1.32
6224.00,1.32
6223.00,1.32
6222.00,1.32
6221.00,1.32
6220.00,1.32
6219.00,1.32
6218.00,1.32
6217.00,1.32
6216.00,1.33
6215.00,1.33
6214.00,1.33
6213.00,1.33
6212.00,1.33
6211.00,1.33
6210.00,1.33
6209.00,1.33
6208.00,1.33
6207.00,1.33
6206.00,1.33
6205.00,1.34
6204.00,1.34
6203.00,1.34
6202.00,1.34
6201.00,1.34
6200.00,1.34
6199.00,1.34
6198.00,1.34
6197.00,1.34
6196.00,1.34
6195.00,1.35
6194.00,1.35
6193.00,1.35
6192.00,1.35
6191.00,1.35
6190.00,1.35
6189.00,1.35
6188.00,1.36
6187.00,1.36
6186.00,1.36
6185.00,1.36
6184.00,1.36
6183.00,1.36
6182.00,1.36
6181.00,1.36
6180.00,1.37
6179.00,1.37
6178.00,1.37
6177.00,1.37
6176.00,1.37
6175.00,1.37
6174.00,1.37
6173.00,1.37
6172.00,1.37
6171.00,1.37
6170.00,1.38
6169.00,1.38
6168.00,1.38
6167.00,1.38
6166.00,1.38
6165.00,1.38
6164.00,1.38
6163.00,1.38
6162.00,1.39
6161.00,1.39
6160.00,1.39
6159.00,1.39
6158.00,1.39
6157.00,1.39
6156.00,1.40
6155.00,1.40
6154.00,1.40
6153.00,1.40
6152.00,1.40
6151.00,1.40
6150.00,1.40
6149.00,1.41
6148.00,1.41
6147.00,1.41
6146.00,1.41
6145.00,1.41
6144.00,1.41
6143.00,1.41
6142.00,1.42
6141.00,1.42
6140.00,1.42
6139.00,1.42
6138.00,1.42
6137.00,1.42
6136.00,1.42
6135.00,1.42
6134.00,1.43
6133.00,1.43
6132.00,1.43
6131.00,1.43
6130.00,1.43
6129.00,1.43
6128.00,1.43
6127.00,1.44
6126.00,1.44
6125.00,1.44
6124.00,1.44
6123.00,1.44
6122.00,1.44
6121.00,1.45
6120.00,1.45
6119.00,1.45
6118.00,1.45
6117.00,1.45
6116.00,1.45
6115.00,1.45
6114.00,1.45
6113.00,1.45
6112.00,1.46
6111.00,1.46
6110.00,1.46
6109.00,1.46
6108.00,1.46
6107.00,1.46
6106.00,1.46
6105.00,1.46
6104.00,1.46
6103.00,1.46
6102.00,1.46
6101.00,1.46
6100.00,1.46
6099.00,1.47
6098.00,1.47
6097.00,1.47
6096.00,1.47
6095.00,1.47
6094.00,1.47
6093.00,1.47
6092.00,1.48
6091.00,1.48
6090.00,1.48
6089.00,1.48
6088.00,1.48
6087.00,1.48
6086.00,1.48
6085.00,1.48
6084.00,1.49
6083.00,1.49
6082.00,1.49
6081.00,1.49
6080.00,1.49
6079.00,1.49
6078.00,1.49
6077.00,1.49
6076.00,1.49
6075.00,1.49
6074.00,1.50
6073.00,1.50
6072.00,1.50
6071.00,1.50
6070.00,1.50
6069.00,1.50
6068.00,1.50
6067.00,1.50
6066.00,1.50
6065.00,1.51
6064.00,1.51
6063.00,1.51
6062.00,1.51
6061.00,1.51
6060.00,1.51
6059.00,1.51
6058.00,1.51
6057.00,1.51
6056.00,1.51
6055.00,1.51
6054.00,1.51
6053.00,1.51
6052.00,1.51
6051.00,1.51
6050.00,1.51
6049.00,1.51
6048.00,1.52
6047.00,1.52
6046.00,1.52
6045.00,1.52
6044.00,1.52
6043.00,1.52
6042.00,1.52
6041.00,1.52
6040.00,1.52
6039.00,1.52
6038.00,1.52
6037.00,1.52
6036.00,1.52
6035.00,1.52
6034.00,1.52
6033.00,1.53
6032.00,1.53
6031.00,1.53
6030.00,1.53
6029.00,1.53
6028.00,1.53
6027.00,1.53
6026.00,1.53
6025.00,1.53
6024.00,1.53
6023.00,1.53
6022.00,1.53
6021.00,1.53
6020.00,1.53
6019.00,1.53
6018.00,1.53
6017.00,1.53
6016.00,1.53
6015.00,1.53
6014.00,1.53
6013.00,1.53
6012.00,1.53
6011.00,1.53
6010.00,1.53
6009.00,1.53
6008.00,1.53
6007.00,1.53
6006.00,1.53
6005.00,1.53
6004.00,1.53
6003.00,1.53
6002.00,1.52
6001.00,1.52
6000.00,1.52
5999.00,1.52
5998.00,1.52
5997.00,1.52
5996.00,1.52
5995.00,1.52
5994.00,1.52
5993.00,1.52
5992.00,1.52
5991.00,1.52
5990.00,1.51
5989.00,1.51
5988.00,1.51
5987.00,1.51
5986.00,1.51
5985.00,1.51
5984.00,1.50
5983.00,1.50
5982.00,1.50
5981.00,1.50
5980.00,1.49
5979.00,1.49
5978.00,1.49
5977.00,1.48
5976.00,1.48
5975.00,1.48
5974.00,1.47
5973.00,1.47
5972.00,1.46
5971.00,1.46
5970.00,1.45
5969.00,1.45
5968.00,1.44
5967.00,1.44
5966.00,1.43
5965.00,1.42
5964.00,1.42
5963.00,1.41
5962.00,1.40
5961.00,1.40
5960.00,1.39
5959.00,1.38
5958.00,1.38
5957.00,1.37
5956.00,1.36
5955.00,1.36
5954.00,1.35
5953.00,1.35
5952.00,1.34
5951.00,1.33
5950.00,1.33
5949.00,1.32
5948.00,1.32
5947.00,1.32
5946.00,1.31
5945.00,1.31
5944.00,1.31
5943.00,1.30
5942.00,1.30
5941.00,1.30
5940.00,1.30
5939.00,1.30
5938.00,1.30
5937.00,1.30
5936.00,1.30
5935.00,1.30
5934.00,1.29
5933.00,1.29
5932.00,1.29
5931.00,1.29
5930.00,1.29
5929.00,1.29
5928.00,1.29
5927.00,1.29
5926.00,1.29
5925.00,1.28
5924.00,1.28
5923.00,1.28
5922.00,1.28
5921.00,1.27
5920.00,1.27
5919.00,1.27
5918.00,1.26
5917.00,1.26
5916.00,1.26
5915.00,1.26
5914.00,1.25
5913.00,1.25
5912.00,1.25
5911.00,1.25
5910.00,1.24
5909.00,1.24
5908.00,1.24
5907.00,1.24
5906.00,1.24
5905.00,1.24
5904.00,1.23
5903.00,1.23
5902.00,1.23
5901.00,1.23
5900.00,1.23
5899.00,1.23
5898.00,1.23
5897.00,1.23
5896.00,1.24
5895.00,1.24
5894.00,1.24
5893.00,1.24
5892.00,1.24
5891.00,1.24
5890.00,1.25
5889.00,1.25
5888.00,1.25
5887.00,1.25
5886.00,1.26
5885.00,1.26
5884.00,1.26
5883.00,1.27
5882.00,1.27
5881.00,1.27
5880.00,1.28
5879.00,1.28
5878.00,1.28
5877.00,1.28
5876.00,1.29
5875.00,1.29
5874.00,1.29
5873.00,1.29
5872.00,1.30
5871.00,1.30
5870.00,1.30
5869.00,1.30
5868.00,1.30
5867.00,1.31
5866.00,1.31
5865.00,1.31
5864.00,1.31
5863.00,1.31
5862.00,1.31
5861.00,1.31
5860.00,1.32
5859.00,1.32
5858.00,1.32
5857.00,1.32
5856.00,1.32
5855.00,1.32
5854.00,1.32
5853.00,1.32
5852.00,1.32
5851.00,1.32
5850.00,1.33
5849.00,1.33
5848.00,1.33
5847.00,1.33
5846.00,1.33
5845.00,1.33
5844.00,1.33
5843.00,1.33
5842.00,1.33
5841.00,1.33
5840.00,1.33
5839.00,1.33
5838.00,1.33
5837.00,1.33
5836.00,1.33
5835.00,1.33
5834.00,1.32
5833.00,1.32
5832.00,1.32
5831.00,1.32
5830.00,1.32
5829.00,1.32
5828.00,1.32
5827.00,1.32
5826.00,1.32
5825.00,1.32
5824.00,1.32
5823.00,1.32
5822.00,1.33
5821.00,1.33
5820.00,1.33
5819.00,1.33
5818.00,1.33
5817.00,1.33
5816.00,1.33
5815.00,1.33
5814.00,1.33
5813.00,1.33
5812.00,1.33
5811.00,1.33
5810.00,1.33
5809.00,1.33
5808.00,1.33
5807.00,1.33
5806.00,1.33
5805.00,1.32
5804.00,1.32
5803.00,1.32
5802.00,1.32
5801.00,1.32
5800.00,1.32
5799.00,1.32
5798.00,1.31
5797.00,1.31
5796.00,1.31
5795.00,1.31
5794.00,1.31
5793.00,1.30
5792.00,1.30
5791.00,1.30
5790.00,1.30
5789.00,1.30
5788.00,1.29
5787.00,1.29
5786.00,1.29
5785.00,1.29
5784.00,1.29
5783.00,1.28
5782.00,1.28
5781.00,1.28
5780.00,1.28
5779.00,1.28
5778.00,1.28
5777.00,1.28
5776.00,1.27
5775.00,1.27
5774.00,1.27
5773.00,1.27
5772.00,1.27
5771.00,1.27
5770.00,1.27
5769.00,1.27
5768.00,1.27
5767.00,1.28
5766.00,1.28
5765.00,1.28
5764.00,1.28
5763.00,1.28
5762.00,1.28
5761.00,1.29
5760.00,1.29
5759.00,1.29
5758.00,1.30
5757.00,1.30
5756.00,1.30
5755.00,1.31
5754.00,1.31
5753.00,1.31
5752.00,1.32
5751.00,1.32
5750.00,1.32
5749.00,1.33
5748.00,1.33
5747.00,1.33
5746.00,1.33
5745.00,1.34
5744.00,1.34
5743.00,1.34
5742.00,1.35
5741.00,1.35
5740.00,1.35
5739.00,1.35
5738.00,1.35
5737.00,1.36
5736.00,1.36
5735.00,1.36
5734.00,1.36
5733.00,1.36
5732.00,1.36
5731.00,1.36
5730.00,1.36
5729.00,1.36
5728.00,1.37
5727.00,1.37
5726.00,1.37
5725.00,1.37
5724.00,1.37
5723.00,1.37
5722.00,1.37
5721.00,1.37
5720.00,1.37
5719.00,1.37
5718.00,1.37
5717.00,1.37
5716.00,1.37
5715.00,1.37
5714.00,1.37
5713.00,1.37
5712.00,1.37
5711.00,1.37
5710.00,1.37
5709.00,1.37
5708.00,1.37
5707.00,1.37
5706.00,1.37
5705.00,1.37
5704.00,1.36
5703.00,1.36
5702.00,1.36
5701.00,1.36
5700.00,1.36
5699.00,1.36
5698.00,1.36
5697.00,1.36
5696.00,1.36
5695.00,1.35
5694.00,1.35
5693.00,1.35
5692.00,1.35
5691.00,1.35
5690.00,1.35
5689.00,1.34
5688.00,1.34
5687.00,1.34
5686.00,1.34
5685.00,1.34
5684.00,1.34
5683.00,1.33
5682.00,1.33
5681.00,1.33
5680.00,1.33
5679.00,1.33
5678.00,1.33
5677.00,1.33
5676.00,1.33
5675.00,1.33
5674.00,1.33
5673.00,1.33
5672.00,1.33
5671.00,1.33
5670.00,1.33
5669.00,1.33
5668.00,1.33
5667.00,1.33
5666.00,1.34
5665.00,1.34
5664.00,1.34
5663.00,1.34
5662.00,1.34
5661.00,1.34
5660.00,1.34
5659.00,1.34
5658.00,1.35
5657.00,1.35
5656.00,1.35
5655.00,1.35
5654.00,1.35
5653.00,1.35
5652.00,1.35
5651.00,1.36
5650.00,1.36
5649.00,1.36
5648.00,1.36
5647.00,1.36
5646.00,1.36
5645.00,1.36
5644.00,1.37
5643.00,1.37
5642.00,1.37
5641.00,1.37
5640.00,1.37
5639.00,1.38
5638.00,1.38
5637.00,1.38
5636.00,1.38
5635.00,1.38
5634.00,1.38
5633.00,1.39
5632.00,1.39
5631.00,1.39
5630.00,1.39
5629.00,1.39
5628.00,1.39
5627.00,1.40
5626.00,1.40
5625.00,1.40
5624.00,1.40
5623.00,1.40
5622.00,1.40
5621.00,1.40
5620.00,1.41
5619.00,1.41
5618.00,1.41
5617.00,1.41
5616.00,1.41
5615.00,1.41
5614.00,1.41
5613.00,1.41
5612.00,1.41
5611.00,1.42
5610.00,1.42
5609.00,1.42
5608.00,1.42
5607.00,1.42
5606.00,1.42
5605.00,1.42
5604.00,1.42
5603.00,1.43
5602.00,1.43
5601.00,1.43
5600.00,1.43
5599.00,1.43
5598.00,1.43
5597.00,1.43
5596.00,1.44
5595.00,1.44
5594.00,1.44
5593.00,1.44
5592.00,1.44
5591.00,1.44
5590.00,1.44
5589.00,1.45
5588.00,1.45
5587.00,1.45
5586.00,1.45
5585.00,1.45
5584.00,1.45
5583.00,1.46
5582.00,1.46
5581.00,1.46
5580.00,1.46
5579.00,1.46
5578.00,1.46
5577.00,1.46
5576.00,1.46
5575.00,1.47
5574.00,1.47
5573.00,1.47
5572.00,1.47
5571.00,1.47
5570.00,1.47
5569.00,1.47
5568.00,1.47
5567.00,1.47
5566.00,1.47
5565.00,1.47
5564.00,1.48
5563.00,1.48
5562.00,1.48
5561.00,1.48
5560.00,1.48
5559.00,1.48
5558.00,1.48
5557.00,1.48
5556.00,1.48
5555.00,1.49
5554.00,1.49
5553.00,1.49
5552.00,1.49
5551.00,1.49
5550.00,1.49
5549.00,1.49
5548.00,1.49
5547.00,1.50
5546.00,1.50
5545.00,1.50
5544.00,1.50
5543.00,1.50
5542.00,1.50
5541.00,1.50
5540.00,1.50
5539.00,1.50
5538.00,1.50
5537.00,1.50
5536.00,1.50
5535.00,1.50
5534.00,1.51
5533.00,1.51
5532.00,1.51
5531.00,1.51
5530.00,1.51
5529.00,1.51
5528.00,1.51
5527.00,1.51
5526.00,1.51
5525.00,1.51
5524.00,1.51
5523.00,1.51
5522.00,1.51
5521.00,1.51
5520.00,1.51
5519.00,1.51
5518.00,1.51
5517.00,1.52
5516.00,1.52
5515.00,1.52
5514.00,1.52
5513.00,1.52
5512.00,1.52
5511.00,1.52
5510.00,1.52
5509.00,1.52
5508.00,1.52
5507.00,1.52
5506.00,1.52
5505.00,1.52
5504.00,1.52
5503.00,1.52
5502.00,1.52
5501.00,1.53
5500.00,1.53
5499.00,1.53
5498.00,1.53
5497.00,1.53
5496.00,1.53
5495.00,1.53
5494.00,1.53
5493.00,1.53
5492.00,1.53
5491.00,1.53
5490.00,1.53
5489.00,1.53
5488.00,1.53
5487.00,1.54
5486.00,1.54
5485.00,1.54
5484.00,1.54
5483.00,1.54
5482.00,1.54
5481.00,1.54
5480.00,1.54
5479.00,1.54
5478.00,1.54
5477.00,1.54
5476.00,1.54
5475.00,1.54
5474.00,1.55
5473.00,1.55
5472.00,1.55
5471.00,1.55
5470.00,1.55
5469.00,1.55
5468.00,1.55
5467.00,1.55
5466.00,1.55
5465.00,1.56
5464.00,1.56
5463.00,1.56
5462.00,1.56
5461.00,1.56
5460.00,1.56
5459.00,1.56
5458.00,1.56
5457.00,1.56
5456.00,1.56
5455.00,1.56
5454.00,1.56
5453.00,1.56
5452.00,1.56
5451.00,1.57
5450.00,1.57
5449.00,1.57
5448.00,1.57
5447.00,1.57
5446.00,1.57
5445.00,1.56
5444.00,1.56
5443.00,1.56
5442.00,1.56
5441.00,1.57
5440.00,1.57
5439.00,1.57
5438.00,1.57
5437.00,1.57
5436.00,1.57
5435.00,1.57
5434.00,1.57
5433.00,1.57
5432.00,1.57
5431.00,1.57
5430.00,1.57
5429.00,1.57
5428.00,1.57
5427.00,1.57
5426.00,1.57
5425.00,1.57
5424.00,1.57
5423.00,1.57
5422.00,1.57
5421.00,1.57
5420.00,1.57
5419.00,1.57
5418.00,1.57
5417.00,1.57
5416.00,1.57
5415.00,1.57
5414.00,1.57
5413.00,1.57
5412.00,1.57
5411.00,1.57
5410.00,1.57
5409.00,1.57
5408.00,1.57
5407.00,1.57
5406.00,1.57
5405.00,1.57
5404.00,1.57
5403.00,1.57
5402.00,1.57
5401.00,1.57
5400.00,1.57
5399.00,1.57
5398.00,1.57
5397.00,1.57
5396.00,1.57
5395.00,1.57
5394.00,1.57
5393.00,1.57
5392.00,1.57
5391.00,1.56
5390.00,1.56
5389.00,1.56
5388.00,1.56
5387.00,1.56
5386.00,1.56
5385.00,1.55
5384.00,1.55
5383.00,1.55
5382.00,1.55
5381.00,1.54
5380.00,1.54
5379.00,1.54
5378.00,1.54
5377.00,1.53
5376.00,1.53
5375.00,1.53
5374.00,1.52
5373.00,1.52
5372.00,1.52
5371.00,1.51
5370.00,1.51
5369.00,1.50
5368.00,1.50
5367.00,1.50
5366.00,1.49
5365.00,1.49
5364.00,1.48
5363.00,1.48
5362.00,1.47
5361.00,1.47
5360.00,1.46
5359.00,1.45
5358.00,1.45
5357.00,1.44
5356.00,1.43
5355.00,1.43
5354.00,1.42
5353.00,1.41
5352.00,1.41
5351.00,1.40
5350.00,1.39
5349.00,1.38
5348.00,1.37
5347.00,1.36
5346.00,1.36
5345.00,1.35
5344.00,1.34
5343.00,1.33
5342.00,1.32
5341.00,1.31
5340.00,1.30
5339.00,1.28
5338.00,1.27
5337.00,1.26
5336.00,1.25
5335.00,1.24
5334.00,1.23
5333.00,1.22
5332.00,1.20
5331.00,1.19
5330.00,1.18
5329.00,1.17
5328.00,1.16
5327.00,1.14
5326.00,1.13
5325.00,1.12
5324.00,1.11
5323.00,1.09
5322.00,1.08
5321.00,1.07
5320.00,1.05
5319.00,1.04
5318.00,1.03
5317.00,1.02
5316.00,1.00
5315.00,0.99
5314.00,0.98
5313.00,0.96
5312.00,0.95
5311.00,0.94
5310.00,0.93
5309.00,0.91
5308.00,0.90
5307.00,0.89
5306.00,0.88
5305.00,0.87
5304.00,0.86
5303.00,0.85
5302.00,0.84
5301.00,0.83
5300.00,0.82
5299.00,0.81
5298.00,0.80
5297.00,0.79
5296.00,0.78
5295.00,0.78
5294.00,0.77
5293.00,0.76
5292.00,0.76
5291.00,0.75
5290.00,0.74
5289.00,0.74
5288.00,0.73
5287.00,0.73
5286.00,0.72
5285.00,0.72
5284.00,0.71
5283.00,0.71
5282.00,0.70
5281.00,0.70
5280.00,0.69
5279.00,0.69
5278.00,0.69
5277.00,0.68
5276.00,0.68
5275.00,0.67
5274.00,0.67
5273.00,0.67
5272.00,0.67
5271.00,0.66
5270.00,0.66
5269.00,0.66
5268.00,0.65
5267.00,0.65
5266.00,0.65
5265.00,0.65
5264.00,0.64
5263.00,0.64
5262.00,0.64
5261.00,0.64
5260.00,0.64
5259.00,0.64
5258.00,0.63
5257.00,0.63
5256.00,0.63
5255.00,0.63
5254.00,0.63
5253.00,0.63
5252.00,0.63
5251.00,0.63
5250.00,0.62
5249.00,0.62
5248.00,0.62
5247.00,0.62
5246.00,0.62
5245.00,0.62
5244.00,0.61
5243.00,0.61
5242.00,0.61
5241.00,0.61
5240.00,0.61
5239.00,0.61
5238.00,0.61
5237.00,0.61
5236.00,0.61
5235.00,0.61
5234.00,0.61
5233.00,0.61
5232.00,0.61
5231.00,0.61
5230.00,0.61
5229.00,0.61
5228.00,0.61
5227.00,0.61
5226.00,0.61
5225.00,0.61
5224.00,0.61
5223.00,0.61
5222.00,0.61
5221.00,0.61
5220.00,0.61
5219.00,0.61
5218.00,0.61
5217.00,0.61
5216.00,0.61
5215.00,0.61
5214.00,0.61
5213.00,0.61
5212.00,0.61
5211.00,0.61
5210.00,0.61
5209.00,0.60
5208.00,0.60
5207.00,0.60
5206.00,0.60
5205.00,0.60
5204.00,0.60
5203.00,0.60
5202.00,0.60
5201.00,0.60
5200.00,0.60
5199.00,0.60
5198.00,0.60
5197.00,0.60
5196.00,0.60
5195.00,0.60
5194.00,0.60
5193.00,0.60
5192.00,0.60
5191.00,0.60
5190.00,0.60
5189.00,0.60
5188.00,0.60
5187.00,0.60
5186.00,0.60
5185.00,0.60
5184.00,0.60
5183.00,0.60
5182.00,0.60
5181.00,0.60
5180.00,0.60
5179.00,0.60
5178.00,0.60
5177.00,0.60
5176.00,0.60
5175.00,0.60
5174.00,0.61
5173.00,0.61
5172.00,0.61
5171.00,0.61
5170.00,0.61
5169.00,0.61
5168.00,0.61
5167.00,0.61
5166.00,0.61
5165.00,0.61
5164.00,0.61
5163.00,0.61
5162.00,0.61
5161.00,0.61
5160.00,0.61
5159.00,0.61
5158.00,0.61
5157.00,0.61
5156.00,0.61
5155.00,0.61
5154.00,0.62
5153.00,0.62
5152.00,0.62
5151.00,0.62
5150.00,0.62
5149.00,0.62
5148.00,0.62
5147.00,0.62
5146.00,0.62
5145.00,0.62
5144.00,0.62
5143.00,0.62
5142.00,0.62
5141.00,0.62
5140.00,0.63
5139.00,0.63
5138.00,0.63
5137.00,0.63
5136.00,0.63
5135.00,0.63
5134.00,0.63
5133.00,0.63
5132.00,0.63
5131.00,0.63
5130.00,0.63
5129.00,0.64
5128.00,0.64
5127.00,0.64
5126.00,0.64
5125.00,0.64
5124.00,0.64
5123.00,0.64
5122.00,0.64
5121.00,0.64
5120.00,0.64
5119.00,0.64
5118.00,0.65
5117.00,0.65
5116.00,0.65
5115.00,0.65
5114.00,0.65
5113.00,0.65
5112.00,0.65
5111.00,0.65
5110.00,0.65
5109.00,0.65
5108.00,0.65
5107.00,0.65
5106.00,0.65
5105.00,0.65
5104.00,0.66
5103.00,0.66
5102.00,0.66
5101.00,0.66
5100.00,0.66
5099.00,0.66
5098.00,0.66
5097.00,0.66
5096.00,0.66
5095.00,0.66
5094.00,0.66
5093.00,0.66
5092.00,0.67
5091.00,0.67
5090.00,0.67
5089.00,0.67
5088.00,0.67
5087.00,0.67
5086.00,0.67
5085.00,0.67
5084.00,0.68
5083.00,0.68
5082.00,0.68
5081.00,0.68
5080.00,0.68
5079.00,0.68
5078.00,0.68
5077.00,0.68
5076.00,0.69
5075.00,0.69
5074.00,0.69
5073.00,0.69
5072.00,0.69
5071.00,0.69
5070.00,0.69
5069.00,0.69
5068.00,0.69
5067.00,0.70
5066.00,0.70
5065.00,0.70
5064.00,0.70
5063.00,0.70
5062.00,0.70
5061.00,0.70
5060.00,0.71
5059.00,0.71
5058.00,0.71
5057.00,0.71
5056.00,0.71
5055.00,0.71
5054.00,0.72
5053.00,0.72
5052.00,0.72
5051.00,0.72
5050.00,0.72
5049.00,0.72
5048.00,0.73
5047.00,0.73
5046.00,0.73
5045.00,0.73
5044.00,0.73
5043.00,0.73
5042.00,0.73
5041.00,0.74
5040.00,0.74
5039.00,0.74
5038.00,0.74
5037.00,0.74
5036.00,0.74
5035.00,0.74
5034.00,0.75
5033.00,0.75
5032.00,0.75
5031.00,0.75
5030.00,0.75
5029.00,0.75
5028.00,0.76
5027.00,0.76
5026.00,0.76
5025.00,0.76
5024.00,0.76
5023.00,0.76
5022.00,0.77
5021.00,0.77
5020.00,0.77
5019.00,0.77
5018.00,0.77
5017.00,0.77
5016.00,0.78
5015.00,0.78
5014.00,0.78
5013.00,0.78
5012.00,0.78
5011.00,0.79
5010.00,0.79
5009.00,0.79
5008.00,0.79
5007.00,0.79
5006.00,0.80
5005.00,0.80
5004.00,0.80
5003.00,0.80
5002.00,0.80
5001.00,0.80
5000.00,0.81
4999.00,0.81
4998.00,0.81
4997.00,0.81
4996.00,0.81
4995.00,0.81
4994.00,0.81
4993.00,0.82
4992.00,0.82
4991.00,0.82
4990.00,0.82
4989.00,0.82
4988.00,0.82
4987.00,0.83
4986.00,0.83
4985.00,0.83
4984.00,0.83
4983.00,0.83
4982.00,0.83
4981.00,0.84
4980.00,0.84
4979.00,0.84
4978.00,0.84
4977.00,0.84
4976.00,0.84
4975.00,0.84
4974.00,0.85
4973.00,0.85
4972.00,0.85
4971.00,0.85
4970.00,0.85
4969.00,0.85
4968.00,0.86
4967.00,0.86
4966.00,0.86
4965.00,0.86
4964.00,0.86
4963.00,0.87
4962.00,0.87
4961.00,0.87
4960.00,0.87
4959.00,0.88
4958.00,0.88
4957.00,0.88
4956.00,0.88
4955.00,0.88
4954.00,0.88
4953.00,0.89
4952.00,0.89
4951.00,0.89
4950.00,0.89
4949.00,0.89
4948.00,0.89
4947.00,0.89
4946.00,0.89
4945.00,0.90
4944.00,0.90
4943.00,0.90
4942.00,0.90
4941.00,0.90
4940.00,0.90
4939.00,0.90
4938.00,0.90
4937.00,0.90
4936.00,0.91
4935.00,0.91
4934.00,0.91
4933.00,0.91
4932.00,0.91
4931.00,0.91
4930.00,0.91
4929.00,0.91
4928.00,0.92
4927.00,0.92
4926.00,0.92
4925.00,0.92
4924.00,0.92
4923.00,0.92
4922.00,0.92
4921.00,0.92
4920.00,0.93
4919.00,0.93
4918.00,0.93
4917.00,0.93
4916.00,0.93
4915.00,0.93
4914.00,0.93
4913.00,0.94
4912.00,0.94
4911.00,0.94
4910.00,0.94
4909.00,0.94
4908.00,0.94
4907.00,0.94
4906.00,0.95
4905.00,0.95
4904.00,0.95
4903.00,0.95
4902.00,0.95
4901.00,0.95
4900.00,0.95
4899.00,0.96
4898.00,0.96
4897.00,0.96
4896.00,0.96
4895.00,0.96
4894.00,0.96
4893.00,0.96
4892.00,0.96
4891.00,0.96
4890.00,0.96
4889.00,0.96
4888.00,0.96
4887.00,0.96
4886.00,0.96
4885.00,0.96
4884.00,0.97
4883.00,0.97
4882.00,0.97
4881.00,0.97
4880.00,0.97
4879.00,0.97
4878.00,0.97
4877.00,0.97
4876.00,0.97
4875.00,0.97
4874.00,0.97
4873.00,0.97
4872.00,0.97
4871.00,0.97
4870.00,0.97
4869.00,0.97
4868.00,0.98
4867.00,0.98
4866.00,0.98
4865.00,0.98
4864.00,0.98
4863.00,0.98
4862.00,0.98
4861.00,0.98
4860.00,0.98
4859.00,0.98
4858.00,0.98
4857.00,0.99
4856.00,0.99
4855.00,0.99
4854.00,0.99
4853.00,0.99
4852.00,0.99
4851.00,0.99
4850.00,0.99
4849.00,0.99
4848.00,1.00
4847.00,1.00
4846.00,1.00
4845.00,1.00
4844.00,1.00
4843.00,1.00
4842.00,1.00
4841.00,1.01
4840.00,1.01
4839.00,1.01
4838.00,1.01
4837.00,1.01
4836.00,1.01
4835.00,1.01
4834.00,1.01
4833.00,1.02
4832.00,1.02
4831.00,1.02
4830.00,1.02
4829.00,1.02
4828.00,1.02
4827.00,1.03
4826.00,1.03
4825.00,1.03
4824.00,1.03
4823.00,1.03
4822.00,1.03
4821.00,1.03
4820.00,1.04
4819.00,1.04
4818.00,1.04
4817.00,1.04
4816.00,1.04
4815.00,1.04
4814.00,1.04
4813.00,1.05
4812.00,1.05
4811.00,1.05
4810.00,1.05
4809.00,1.05
4808.00,1.05
4807.00,1.06
4806.00,1.06
4805.00,1.06
4804.00,1.06
4803.00,1.06
4802.00,1.06
4801.00,1.07
4800.00,1.07
4799.00,1.07
4798.00,1.07
4797.00,1.07
4796.00,1.08
4795.00,1.08
4794.00,1.08
4793.00,1.08
4792.00,1.08
4791.00,1.08
4790.00,1.09
4789.00,1.09
4788.00,1.09
4787.00,1.09
4786.00,1.09
4785.00,1.10
4784.00,1.10
4783.00,1.10
4782.00,1.10
4781.00,1.10
4780.00,1.10
4779.00,1.11
4778.00,1.11
4777.00,1.11
4776.00,1.11
4775.00,1.11
4774.00,1.12
4773.00,1.12
4772.00,1.12
4771.00,1.12
4770.00,1.13
4769.00,1.13
4768.00,1.13
4767.00,1.13
4766.00,1.14
4765.00,1.14
4764.00,1.14
4763.00,1.15
4762.00,1.15
4761.00,1.15
4760.00,1.15
4759.00,1.16
4758.00,1.16
4757.00,1.16
4756.00,1.17
4755.00,1.17
4754.00,1.17
4753.00,1.17
4752.00,1.18
4751.00,1.18
4750.00,1.18
4749.00,1.19
4748.00,1.19
4747.00,1.19
4746.00,1.19
4745.00,1.19
4744.00,1.20
4743.00,1.20
4742.00,1.20
4741.00,1.20
4740.00,1.21
4739.00,1.21
4738.00,1.21
4737.00,1.21
4736.00,1.22
4735.00,1.22
4734.00,1.22
4733.00,1.22
4732.00,1.23
4731.00,1.23
4730.00,1.23
4729.00,1.23
4728.00,1.24
4727.00,1.24
4726.00,1.24
4725.00,1.25
4724.00,1.25
4723.00,1.25
4722.00,1.25
4721.00,1.26
4720.00,1.26
4719.00,1.26
4718.00,1.26
4717.00,1.27
4716.00,1.27
4715.00,1.27
4714.00,1.27
4713.00,1.28
4712.00,1.28
4711.00,1.28
4710.00,1.29
4709.00,1.29
4708.00,1.29
4707.00,1.29
4706.00,1.30
4705.00,1.30
4704.00,1.30
4703.00,1.31
4702.00,1.31
4701.00,1.31
4700.00,1.31
4699.00,1.32
4698.00,1.32
4697.00,1.32
4696.00,1.33
4695.00,1.33
4694.00,1.33
4693.00,1.33
4692.00,1.34
4691.00,1.34
4690.00,1.34
4689.00,1.34
4688.00,1.35
4687.00,1.35
4686.00,1.35
4685.00,1.35
4684.00,1.35
4683.00,1.36
4682.00,1.36
4681.00,1.36
4680.00,1.36
4679.00,1.36
4678.00,1.36
4677.00,1.37
4676.00,1.37
4675.00,1.37
4674.00,1.37
4673.00,1.38
4672.00,1.38
4671.00,1.38
4670.00,1.38
4669.00,1.38
4668.00,1.39
4667.00,1.39
4666.00,1.39
4665.00,1.39
4664.00,1.40
4663.00,1.40
4662.00,1.40
4661.00,1.40
4660.00,1.41
4659.00,1.41
4658.00,1.41
4657.00,1.41
4656.00,1.41
4655.00,1.42
4654.00,1.42
4653.00,1.42
4652.00,1.42
4651.00,1.42
4650.00,1.43
4649.00,1.43
4648.00,1.43
4647.00,1.43
4646.00,1.43
4645.00,1.43
4644.00,1.44
4643.00,1.44
4642.00,1.44
4641.00,1.44
4640.00,1.44
4639.00,1.44
4638.00,1.45
4637.00,1.45
4636.00,1.45
4635.00,1.45
4634.00,1.45
4633.00,1.46
4632.00,1.46
4631.00,1.46
4630.00,1.46
4629.00,1.46
4628.00,1.47
4627.00,1.47
4626.00,1.47
4625.00,1.47
4624.00,1.47
4623.00,1.47
4622.00,1.47
4621.00,1.48
4620.00,1.48
4619.00,1.48
4618.00,1.48
4617.00,1.48
4616.00,1.48
4615.00,1.48
4614.00,1.48
4613.00,1.49
4612.00,1.49
4611.00,1.49
4610.00,1.49
4609.00,1.49
4608.00,1.49
4607.00,1.49
4606.00,1.49
4605.00,1.50
4604.00,1.50
4603.00,1.50
4602.00,1.50
4601.00,1.50
4600.00,1.50
4599.00,1.50
4598.00,1.50
4597.00,1.50
4596.00,1.50
4595.00,1.50
4594.00,1.50
4593.00,1.50
4592.00,1.50
4591.00,1.50
4590.00,1.50
4589.00,1.50
4588.00,1.51
4587.00,1.51
4586.00,1.51
4585.00,1.51
4584.00,1.51
4583.00,1.51
4582.00,1.51
4581.00,1.51
4580.00,1.51
4579.00,1.52
4578.00,1.52
4577.00,1.52
4576.00,1.52
4575.00,1.52
4574.00,1.52
4573.00,1.52
4572.00,1.52
4571.00,1.52
4570.00,1.52
4569.00,1.52
4568.00,1.53
4567.00,1.53
4566.00,1.53
4565.00,1.53
4564.00,1.53
4563.00,1.53
4562.00,1.53
4561.00,1.53
4560.00,1.53
4559.00,1.54
4558.00,1.54
4557.00,1.54
4556.00,1.54
4555.00,1.54
4554.00,1.54
4553.00,1.54
4552.00,1.55
4551.00,1.55
4550.00,1.55
4549.00,1.55
4548.00,1.55
4547.00,1.55
4546.00,1.55
4545.00,1.55
4544.00,1.56
4543.00,1.56
4542.00,1.56
4541.00,1.56
4540.00,1.56
4539.00,1.56
4538.00,1.56
4537.00,1.56
4536.00,1.56
4535.00,1.56
4534.00,1.56
4533.00,1.56
4532.00,1.56
4531.00,1.56
4530.00,1.56
4529.00,1.56
4528.00,1.56
4527.00,1.57
4526.00,1.57
4525.00,1.57
4524.00,1.57
4523.00,1.57
4522.00,1.57
4521.00,1.57
4520.00,1.57
4519.00,1.57
4518.00,1.57
4517.00,1.57
4516.00,1.57
4515.00,1.57
4514.00,1.57
4513.00,1.57
4512.00,1.57
4511.00,1.57
4510.00,1.57
4509.00,1.57
4508.00,1.57
4507.00,1.57
4506.00,1.57
4505.00,1.57
4504.00,1.57
4503.00,1.57
4502.00,1.57
4501.00,1.57
4500.00,1.57
4499.00,1.57
4498.00,1.57
4497.00,1.57
4496.00,1.57
4495.00,1.57
4494.00,1.57
4493.00,1.57
4492.00,1.56
4491.00,1.56
4490.00,1.56
4489.00,1.56
4488.00,1.56
4487.00,1.56
4486.00,1.55
4485.00,1.55
4484.00,1.55
4483.00,1.55
4482.00,1.54
4481.00,1.54
4480.00,1.54
4479.00,1.54
4478.00,1.53
4477.00,1.53
4476.00,1.53
4475.00,1.53
4474.00,1.52
4473.00,1.52
4472.00,1.52
4471.00,1.51
4470.00,1.51
4469.00,1.51
4468.00,1.50
4467.00,1.50
4466.00,1.50
4465.00,1.49
4464.00,1.49
4463.00,1.48
4462.00,1.48
4461.00,1.47
4460.00,1.47
4459.00,1.46
4458.00,1.46
4457.00,1.45
4456.00,1.44
4455.00,1.44
4454.00,1.43
4453.00,1.42
4452.00,1.41
4451.00,1.41
4450.00,1.40
4449.00,1.39
4448.00,1.38
4447.00,1.37
4446.00,1.36
4445.00,1.35
4444.00,1.35
4443.00,1.34
4442.00,1.33
4441.00,1.32
4440.00,1.31
4439.00,1.29
4438.00,1.28
4437.00,1.27
4436.00,1.26
4435.00,1.25
4434.00,1.24
4433.00,1.23
4432.00,1.22
4431.00,1.21
4430.00,1.20
4429.00,1.20
4428.00,1.19
4427.00,1.18
4426.00,1.17
4425.00,1.16
4424.00,1.16
4423.00,1.15
4422.00,1.15
4421.00,1.14
4420.00,1.14
4419.00,1.13
4418.00,1.13
4417.00,1.13
4416.00,1.13
4415.00,1.13
4414.00,1.12
4413.00,1.12
4412.00,1.12
4411.00,1.12
4410.00,1.12
4409.00,1.12
4408.00,1.12
4407.00,1.13
4406.00,1.13
4405.00,1.13
4404.00,1.13
4403.00,1.13
4402.00,1.13
4401.00,1.14
4400.00,1.14
4399.00,1.14
4398.00,1.14
4397.00,1.15
4396.00,1.15
4395.00,1.15
4394.00,1.15
4393.00,1.16
4392.00,1.16
4391.00,1.16
4390.00,1.17
4389.00,1.17
4388.00,1.17
4387.00,1.18
4386.00,1.18
4385.00,1.19
4384.00,1.19
4383.00,1.19
4382.00,1.20
4381.00,1.20
4380.00,1.21
4379.00,1.21
4378.00,1.21
4377.00,1.22
4376.00,1.22
4375.00,1.22
4374.00,1.22
4373.00,1.22
4372.00,1.22
4371.00,1.23
4370.00,1.23
4369.00,1.23
4368.00,1.23
4367.00,1.22
4366.00,1.22
4365.00,1.22
4364.00,1.22
4363.00,1.22
4362.00,1.22
4361.00,1.21
4360.00,1.21
4359.00,1.21
4358.00,1.21
4357.00,1.20
4356.00,1.20
4355.00,1.20
4354.00,1.20
4353.00,1.19
4352.00,1.19
4351.00,1.19
4350.00,1.19
4349.00,1.19
4348.00,1.18
4347.00,1.18
4346.00,1.18
4345.00,1.18
4344.00,1.18
4343.00,1.18
4342.00,1.18
4341.00,1.18
4340.00,1.18
4339.00,1.18
4338.00,1.18
4337.00,1.18
4336.00,1.18
4335.00,1.18
4334.00,1.19
4333.00,1.19
4332.00,1.19
4331.00,1.20
4330.00,1.20
4329.00,1.20
4328.00,1.21
4327.00,1.21
4326.00,1.22
4325.00,1.22
4324.00,1.23
4323.00,1.23
4322.00,1.24
4321.00,1.24
4320.00,1.25
4319.00,1.25
4318.00,1.26
4317.00,1.26
4316.00,1.27
4315.00,1.27
4314.00,1.28
4313.00,1.28
4312.00,1.29
4311.00,1.29
4310.00,1.30
4309.00,1.30
4308.00,1.31
4307.00,1.31
4306.00,1.32
4305.00,1.32
4304.00,1.33
4303.00,1.34
4302.00,1.34
4301.00,1.35
4300.00,1.36
4299.00,1.36
4298.00,1.37
4297.00,1.37
4296.00,1.38
4295.00,1.38
4294.00,1.39
4293.00,1.39
4292.00,1.40
4291.00,1.40
4290.00,1.40
4289.00,1.40
4288.00,1.41
4287.00,1.41
4286.00,1.41
4285.00,1.41
4284.00,1.41
4283.00,1.41
4282.00,1.41
4281.00,1.41
4280.00,1.41
4279.00,1.41
4278.00,1.41
4277.00,1.41
4276.00,1.41
4275.00,1.41
4274.00,1.41
4273.00,1.40
4272.00,1.40
4271.00,1.40
4270.00,1.40
4269.00,1.39
4268.00,1.39
4267.00,1.39
4266.00,1.38
4265.00,1.38
4264.00,1.38
4263.00,1.37
4262.00,1.37
4261.00,1.37
4260.00,1.36
4259.00,1.36
4258.00,1.36
4257.00,1.36
4256.00,1.36
4255.00,1.36
4254.00,1.36
4253.00,1.36
4252.00,1.36
4251.00,1.36
4250.00,1.36
4249.00,1.36
4248.00,1.37
4247.00,1.37
4246.00,1.37
4245.00,1.37
4244.00,1.38
4243.00,1.38
4242.00,1.39
4241.00,1.39
4240.00,1.40
4239.00,1.40
4238.00,1.41
4237.00,1.41
4236.00,1.41
4235.00,1.42
4234.00,1.42
4233.00,1.43
4232.00,1.43
4231.00,1.44
4230.00,1.44
4229.00,1.44
4228.00,1.45
4227.00,1.45
4226.00,1.45
4225.00,1.45
4224.00,1.46
4223.00,1.46
4222.00,1.46
4221.00,1.46
4220.00,1.46
4219.00,1.46
4218.00,1.46
4217.00,1.46
4216.00,1.46
4215.00,1.46
4214.00,1.46
4213.00,1.46
4212.00,1.46
4211.00,1.46
4210.00,1.46
4209.00,1.46
4208.00,1.47
4207.00,1.47
4206.00,1.47
4205.00,1.47
4204.00,1.47
4203.00,1.47
4202.00,1.47
4201.00,1.47
4200.00,1.47
4199.00,1.47
4198.00,1.47
4197.00,1.47
4196.00,1.47
4195.00,1.47
4194.00,1.47
4193.00,1.47
4192.00,1.47
4191.00,1.47
4190.00,1.47
4189.00,1.47
4188.00,1.47
4187.00,1.47
4186.00,1.47
4185.00,1.47
4184.00,1.47
4183.00,1.47
4182.00,1.47
4181.00,1.47
4180.00,1.47
4179.00,1.47
4178.00,1.47
4177.00,1.47
4176.00,1.47
4175.00,1.46
4174.00,1.46
4173.00,1.46
4172.00,1.46
4171.00,1.46
4170.00,1.46
4169.00,1.46
4168.00,1.46
4167.00,1.46
4166.00,1.45
4165.00,1.45
4164.00,1.45
4163.00,1.45
4162.00,1.45
4161.00,1.45
4160.00,1.45
4159.00,1.46
4158.00,1.46
4157.00,1.46
4156.00,1.46
4155.00,1.46
4154.00,1.46
4153.00,1.46
4152.00,1.46
4151.00,1.46
4150.00,1.46
4149.00,1.46
4148.00,1.46
4147.00,1.46
4146.00,1.46
4145.00,1.46
4144.00,1.46
4143.00,1.46
4142.00,1.46
4141.00,1.46
4140.00,1.46
4139.00,1.46
4138.00,1.46
4137.00,1.47
4136.00,1.47
4135.00,1.47
4134.00,1.47
4133.00,1.47
4132.00,1.47
4131.00,1.47
4130.00,1.47
4129.00,1.47
4128.00,1.47
4127.00,1.47
4126.00,1.47
4125.00,1.47
4124.00,1.47
4123.00,1.47
4122.00,1.47
4121.00,1.47
4120.00,1.47
4119.00,1.47
4118.00,1.47
4117.00,1.47
4116.00,1.47
4115.00,1.47
4114.00,1.47
4113.00,1.47
4112.00,1.47
4111.00,1.47
4110.00,1.47
4109.00,1.47
4108.00,1.47
4107.00,1.47
4106.00,1.47
4105.00,1.47
4104.00,1.47
4103.00,1.47
4102.00,1.47
4101.00,1.47
4100.00,1.47
4099.00,1.47
4098.00,1.47
4097.00,1.47
4096.00,1.47
4095.00,1.47
4094.00,1.48
4093.00,1.48
4092.00,1.48
4091.00,1.48
4090.00,1.48
4089.00,1.48
4088.00,1.48
4087.00,1.48
4086.00,1.48
4085.00,1.48
4084.00,1.48
4083.00,1.48
4082.00,1.48
4081.00,1.48
4080.00,1.48
4079.00,1.48
4078.00,1.48
4077.00,1.48
4076.00,1.48
4075.00,1.48
4074.00,1.48
4073.00,1.48
4072.00,1.48
4071.00,1.48
4070.00,1.48
4069.00,1.48
4068.00,1.48
4067.00,1.48
4066.00,1.48
4065.00,1.48
4064.00,1.48
4063.00,1.48
4062.00,1.48
4061.00,1.48
4060.00,1.48
4059.00,1.48
4058.00,1.48
4057.00,1.48
4056.00,1.48
4055.00,1.48
4054.00,1.49
4053.00,1.49
4052.00,1.49
4051.00,1.49
4050.00,1.49
4049.00,1.49
4048.00,1.49
4047.00,1.49
4046.00,1.50
4045.00,1.50
4044.00,1.50
4043.00,1.50
4042.00,1.50
4041.00,1.50
4040.00,1.50
4039.00,1.51
4038.00,1.51
4037.00,1.51
4036.00,1.51
4035.00,1.51
4034.00,1.52
4033.00,1.52
4032.00,1.52
4031.00,1.52
4030.00,1.53
4029.00,1.53
4028.00,1.53
4027.00,1.53
4026.00,1.54
4025.00,1.54
4024.00,1.54
4023.00,1.55
4022.00,1.55
4021.00,1.55
4020.00,1.55
4019.00,1.56
4018.00,1.56
4017.00,1.56
4016.00,1.56
4015.00,1.56
4014.00,1.57
4013.00,1.57
4012.00,1.57
4011.00,1.57
4010.00,1.57
4009.00,1.57
4008.00,1.57
4007.00,1.57
4006.00,1.57
4005.00,1.57
4004.00,1.57
4003.00,1.57
4002.00,1.57
4001.00,1.57
4000.00,1.57
