创建为新数据集,样品 678 用户 Administrator 日期 星期四, 七月 19 2018
cm-1,%T
10000.00,1.15
9999.00,1.15
9998.00,1.14
9997.00,1.14
9996.00,1.14
9995.00,1.14
9994.00,1.14
9993.00,1.14
9992.00,1.13
9991.00,1.13
9990.00,1.13
9989.00,1.13
9988.00,1.13
9987.00,1.13
9986.00,1.13
9985.00,1.12
9984.00,1.12
9983.00,1.12
9982.00,1.12
9981.00,1.12
9980.00,1.12
9979.00,1.12
9978.00,1.12
9977.00,1.11
9976.00,1.11
9975.00,1.11
9974.00,1.11
9973.00,1.11
9972.00,1.11
9971.00,1.11
9970.00,1.11
9969.00,1.11
9968.00,1.11
9967.00,1.11
9966.00,1.11
9965.00,1.11
9964.00,1.11
9963.00,1.11
9962.00,1.11
9961.00,1.11
9960.00,1.11
9959.00,1.12
9958.00,1.12
9957.00,1.12
9956.00,1.12
9955.00,1.12
9954.00,1.12
9953.00,1.12
9952.00,1.12
9951.00,1.13
9950.00,1.13
9949.00,1.13
9948.00,1.13
9947.00,1.13
9946.00,1.13
9945.00,1.13
9944.00,1.13
9943.00,1.14
9942.00,1.14
9941.00,1.14
9940.00,1.14
9939.00,1.14
9938.00,1.14
9937.00,1.14
9936.00,1.14
9935.00,1.14
9934.00,1.14
9933.00,1.14
9932.00,1.14
9931.00,1.13
9930.00,1.13
9929.00,1.13
9928.00,1.13
9927.00,1.13
9926.00,1.13
9925.00,1.13
9924.00,1.13
9923.00,1.13
9922.00,1.13
9921.00,1.14
9920.00,1.14
9919.00,1.14
9918.00,1.14
9917.00,1.14
9916.00,1.14
9915.00,1.14
9914.00,1.14
9913.00,1.13
9912.00,1.13
9911.00,1.13
9910.00,1.13
9909.00,1.13
9908.00,1.13
9907.00,1.13
9906.00,1.12
9905.00,1.12
9904.00,1.12
9903.00,1.12
9902.00,1.12
9901.00,1.12
9900.00,1.12
9899.00,1.12
9898.00,1.12
9897.00,1.12
9896.00,1.12
9895.00,1.12
9894.00,1.12
9893.00,1.13
9892.00,1.13
9891.00,1.13
9890.00,1.13
9889.00,1.13
9888.00,1.13
9887.00,1.13
9886.00,1.13
9885.00,1.13
9884.00,1.13
9883.00,1.13
9882.00,1.13
9881.00,1.13
9880.00,1.13
9879.00,1.13
9878.00,1.13
9877.00,1.13
9876.00,1.13
9875.00,1.13
9874.00,1.13
9873.00,1.13
9872.00,1.13
9871.00,1.13
9870.00,1.13
9869.00,1.13
9868.00,1.14
9867.00,1.14
9866.00,1.14
9865.00,1.14
9864.00,1.14
9863.00,1.14
9862.00,1.14
9861.00,1.14
9860.00,1.14
9859.00,1.14
9858.00,1.14
9857.00,1.14
9856.00,1.14
9855.00,1.14
9854.00,1.14
9853.00,1.14
9852.00,1.14
9851.00,1.14
9850.00,1.14
9849.00,1.14
9848.00,1.14
9847.00,1.14
9846.00,1.14
9845.00,1.14
9844.00,1.14
9843.00,1.14
9842.00,1.14
9841.00,1.14
9840.00,1.14
9839.00,1.14
9838.00,1.14
9837.00,1.14
9836.00,1.14
9835.00,1.13
9834.00,1.13
9833.00,1.13
9832.00,1.13
9831.00,1.13
9830.00,1.13
9829.00,1.13
9828.00,1.13
9827.00,1.12
9826.00,1.12
9825.00,1.12
9824.00,1.12
9823.00,1.12
9822.00,1.12
9821.00,1.12
9820.00,1.12
9819.00,1.12
9818.00,1.13
9817.00,1.13
9816.00,1.13
9815.00,1.13
9814.00,1.13
9813.00,1.13
9812.00,1.14
9811.00,1.14
9810.00,1.14
9809.00,1.14
9808.00,1.14
9807.00,1.14
9806.00,1.14
9805.00,1.13
9804.00,1.13
9803.00,1.13
9802.00,1.13
9801.00,1.12
9800.00,1.12
9799.00,1.12
9798.00,1.11
9797.00,1.11
9796.00,1.11
9795.00,1.11
9794.00,1.10
9793.00,1.10
9792.00,1.10
9791.00,1.10
9790.00,1.10
9789.00,1.10
9788.00,1.10
9787.00,1.10
9786.00,1.10
9785.00,1.10
9784.00,1.10
9783.00,1.10
9782.00,1.11
9781.00,1.11
9780.00,1.11
9779.00,1.11
9778.00,1.11
9777.00,1.11
9776.00,1.11
9775.00,1.11
9774.00,1.11
9773.00,1.12
9772.00,1.12
9771.00,1.12
9770.00,1.12
9769.00,1.12
9768.00,1.12
9767.00,1.12
9766.00,1.12
9765.00,1.12
9764.00,1.12
9763.00,1.12
9762.00,1.12
9761.00,1.12
9760.00,1.12
9759.00,1.12
9758.00,1.12
9757.00,1.12
9756.00,1.12
9755.00,1.12
9754.00,1.12
9753.00,1.11
9752.00,1.11
9751.00,1.11
9750.00,1.11
9749.00,1.11
9748.00,1.11
9747.00,1.11
9746.00,1.10
9745.00,1.10
9744.00,1.10
9743.00,1.10
9742.00,1.09
9741.00,1.09
9740.00,1.09
9739.00,1.09
9738.00,1.09
9737.00,1.09
9736.00,1.09
9735.00,1.09
9734.00,1.09
9733.00,1.09
9732.00,1.09
9731.00,1.09
9730.00,1.10
9729.00,1.10
9728.00,1.10
9727.00,1.10
9726.00,1.11
9725.00,1.11
9724.00,1.11
9723.00,1.12
9722.00,1.12
9721.00,1.12
9720.00,1.12
9719.00,1.12
9718.00,1.12
9717.00,1.12
9716.00,1.13
9715.00,1.13
9714.00,1.13
9713.00,1.13
9712.00,1.13
9711.00,1.13
9710.00,1.13
9709.00,1.13
9708.00,1.13
9707.00,1.13
9706.00,1.13
9705.00,1.13
9704.00,1.13
9703.00,1.13
9702.00,1.13
9701.00,1.13
9700.00,1.12
9699.00,1.12
9698.00,1.12
9697.00,1.12
9696.00,1.12
9695.00,1.12
9694.00,1.11
9693.00,1.11
9692.00,1.11
9691.00,1.11
9690.00,1.11
9689.00,1.11
9688.00,1.10
9687.00,1.10
9686.00,1.10
9685.00,1.10
9684.00,1.10
9683.00,1.10
9682.00,1.10
9681.00,1.10
9680.00,1.09
9679.00,1.09
9678.00,1.09
9677.00,1.09
9676.00,1.09
9675.00,1.09
9674.00,1.09
9673.00,1.09
9672.00,1.09
9671.00,1.09
9670.00,1.09
9669.00,1.09
9668.00,1.09
9667.00,1.09
9666.00,1.10
9665.00,1.10
9664.00,1.10
9663.00,1.10
9662.00,1.11
9661.00,1.11
9660.00,1.11
9659.00,1.11
9658.00,1.11
9657.00,1.12
9656.00,1.12
9655.00,1.12
9654.00,1.12
9653.00,1.12
9652.00,1.12
9651.00,1.12
9650.00,1.12
9649.00,1.12
9648.00,1.12
9647.00,1.12
9646.00,1.12
9645.00,1.12
9644.00,1.12
9643.00,1.12
9642.00,1.12
9641.00,1.12
9640.00,1.12
9639.00,1.11
9638.00,1.11
9637.00,1.11
9636.00,1.11
9635.00,1.11
9634.00,1.11
9633.00,1.11
9632.00,1.11
9631.00,1.11
9630.00,1.11
9629.00,1.11
9628.00,1.11
9627.00,1.11
9626.00,1.11
9625.00,1.11
9624.00,1.11
9623.00,1.12
9622.00,1.12
9621.00,1.12
9620.00,1.12
9619.00,1.12
9618.00,1.12
9617.00,1.12
9616.00,1.12
9615.00,1.13
9614.00,1.13
9613.00,1.13
9612.00,1.13
9611.00,1.13
9610.00,1.13
9609.00,1.13
9608.00,1.13
9607.00,1.13
9606.00,1.12
9605.00,1.12
9604.00,1.12
9603.00,1.12
9602.00,1.12
9601.00,1.12
9600.00,1.12
9599.00,1.12
9598.00,1.12
9597.00,1.12
9596.00,1.12
9595.00,1.12
9594.00,1.12
9593.00,1.12
9592.00,1.12
9591.00,1.13
9590.00,1.13
9589.00,1.13
9588.00,1.13
9587.00,1.13
9586.00,1.13
9585.00,1.13
9584.00,1.13
9583.00,1.13
9582.00,1.13
9581.00,1.13
9580.00,1.13
9579.00,1.13
9578.00,1.13
9577.00,1.13
9576.00,1.13
9575.00,1.13
9574.00,1.13
9573.00,1.12
9572.00,1.12
9571.00,1.12
9570.00,1.12
9569.00,1.12
9568.00,1.12
9567.00,1.12
9566.00,1.12
9565.00,1.12
9564.00,1.12
9563.00,1.12
9562.00,1.12
9561.00,1.12
9560.00,1.12
9559.00,1.12
9558.00,1.12
9557.00,1.12
9556.00,1.12
9555.00,1.12
9554.00,1.12
9553.00,1.12
9552.00,1.12
9551.00,1.13
9550.00,1.13
9549.00,1.13
9548.00,1.13
9547.00,1.13
9546.00,1.13
9545.00,1.13
9544.00,1.13
9543.00,1.13
9542.00,1.13
9541.00,1.14
9540.00,1.14
9539.00,1.14
9538.00,1.14
9537.00,1.14
9536.00,1.14
9535.00,1.14
9534.00,1.14
9533.00,1.14
9532.00,1.14
9531.00,1.14
9530.00,1.14
9529.00,1.14
9528.00,1.14
9527.00,1.14
9526.00,1.14
9525.00,1.13
9524.00,1.13
9523.00,1.13
9522.00,1.13
9521.00,1.12
9520.00,1.12
9519.00,1.12
9518.00,1.11
9517.00,1.11
9516.00,1.11
9515.00,1.10
9514.00,1.10
9513.00,1.10
9512.00,1.10
9511.00,1.09
9510.00,1.09
9509.00,1.09
9508.00,1.09
9507.00,1.09
9506.00,1.09
9505.00,1.09
9504.00,1.09
9503.00,1.10
9502.00,1.10
9501.00,1.10
9500.00,1.10
9499.00,1.10
9498.00,1.10
9497.00,1.11
9496.00,1.11
9495.00,1.11
9494.00,1.11
9493.00,1.11
9492.00,1.11
9491.00,1.12
9490.00,1.12
9489.00,1.12
9488.00,1.12
9487.00,1.12
9486.00,1.12
9485.00,1.12
9484.00,1.12
9483.00,1.13
9482.00,1.13
9481.00,1.13
9480.00,1.13
9479.00,1.13
9478.00,1.13
9477.00,1.13
9476.00,1.13
9475.00,1.13
9474.00,1.13
9473.00,1.13
9472.00,1.12
9471.00,1.12
9470.00,1.12
9469.00,1.12
9468.00,1.12
9467.00,1.12
9466.00,1.12
9465.00,1.12
9464.00,1.12
9463.00,1.12
9462.00,1.12
9461.00,1.12
9460.00,1.12
9459.00,1.12
9458.00,1.13
9457.00,1.13
9456.00,1.13
9455.00,1.13
9454.00,1.14
9453.00,1.14
9452.00,1.14
9451.00,1.14
9450.00,1.14
9449.00,1.14
9448.00,1.14
9447.00,1.14
9446.00,1.14
9445.00,1.14
9444.00,1.14
9443.00,1.14
9442.00,1.13
9441.00,1.13
9440.00,1.13
9439.00,1.13
9438.00,1.12
9437.00,1.12
9436.00,1.12
9435.00,1.12
9434.00,1.12
9433.00,1.11
9432.00,1.11
9431.00,1.11
9430.00,1.11
9429.00,1.11
9428.00,1.11
9427.00,1.11
9426.00,1.12
9425.00,1.12
9424.00,1.12
9423.00,1.12
9422.00,1.12
9421.00,1.12
9420.00,1.12
9419.00,1.13
9418.00,1.13
9417.00,1.13
9416.00,1.13
9415.00,1.13
9414.00,1.13
9413.00,1.13
9412.00,1.13
9411.00,1.13
9410.00,1.13
9409.00,1.13
9408.00,1.13
9407.00,1.13
9406.00,1.12
9405.00,1.12
9404.00,1.12
9403.00,1.12
9402.00,1.12
9401.00,1.12
9400.00,1.12
9399.00,1.11
9398.00,1.11
9397.00,1.11
9396.00,1.11
9395.00,1.11
9394.00,1.11
9393.00,1.10
9392.00,1.10
9391.00,1.10
9390.00,1.10
9389.00,1.10
9388.00,1.10
9387.00,1.10
9386.00,1.10
9385.00,1.10
9384.00,1.10
9383.00,1.10
9382.00,1.10
9381.00,1.10
9380.00,1.10
9379.00,1.10
9378.00,1.10
9377.00,1.10
9376.00,1.10
9375.00,1.10
9374.00,1.10
9373.00,1.10
9372.00,1.11
9371.00,1.11
9370.00,1.11
9369.00,1.11
9368.00,1.11
9367.00,1.11
9366.00,1.11
9365.00,1.11
9364.00,1.11
9363.00,1.11
9362.00,1.12
9361.00,1.12
9360.00,1.12
9359.00,1.12
9358.00,1.12
9357.00,1.12
9356.00,1.12
9355.00,1.12
9354.00,1.12
9353.00,1.12
9352.00,1.11
9351.00,1.11
9350.00,1.11
9349.00,1.11
9348.00,1.11
9347.00,1.11
9346.00,1.11
9345.00,1.11
9344.00,1.11
9343.00,1.11
9342.00,1.11
9341.00,1.11
9340.00,1.11
9339.00,1.11
9338.00,1.12
9337.00,1.12
9336.00,1.12
9335.00,1.12
9334.00,1.12
9333.00,1.12
9332.00,1.12
9331.00,1.13
9330.00,1.13
9329.00,1.13
9328.00,1.13
9327.00,1.13
9326.00,1.14
9325.00,1.14
9324.00,1.14
9323.00,1.14
9322.00,1.14
9321.00,1.14
9320.00,1.14
9319.00,1.14
9318.00,1.14
9317.00,1.14
9316.00,1.14
9315.00,1.14
9314.00,1.14
9313.00,1.14
9312.00,1.14
9311.00,1.14
9310.00,1.14
9309.00,1.14
9308.00,1.14
9307.00,1.14
9306.00,1.14
9305.00,1.13
9304.00,1.13
9303.00,1.13
9302.00,1.13
9301.00,1.13
9300.00,1.12
9299.00,1.12
9298.00,1.12
9297.00,1.12
9296.00,1.12
9295.00,1.12
9294.00,1.11
9293.00,1.11
9292.00,1.11
9291.00,1.11
9290.00,1.11
9289.00,1.11
9288.00,1.11
9287.00,1.11
9286.00,1.11
9285.00,1.11
9284.00,1.11
9283.00,1.11
9282.00,1.11
9281.00,1.11
9280.00,1.11
9279.00,1.12
9278.00,1.12
9277.00,1.12
9276.00,1.12
9275.00,1.12
9274.00,1.12
9273.00,1.12
9272.00,1.12
9271.00,1.12
9270.00,1.12
9269.00,1.12
9268.00,1.12
9267.00,1.12
9266.00,1.12
9265.00,1.12
9264.00,1.12
9263.00,1.12
9262.00,1.13
9261.00,1.13
9260.00,1.12
9259.00,1.12
9258.00,1.12
9257.00,1.12
9256.00,1.12
9255.00,1.12
9254.00,1.12
9253.00,1.12
9252.00,1.12
9251.00,1.12
9250.00,1.12
9249.00,1.12
9248.00,1.12
9247.00,1.12
9246.00,1.12
9245.00,1.12
9244.00,1.12
9243.00,1.12
9242.00,1.12
9241.00,1.12
9240.00,1.12
9239.00,1.12
9238.00,1.12
9237.00,1.12
9236.00,1.12
9235.00,1.12
9234.00,1.12
9233.00,1.12
9232.00,1.12
9231.00,1.13
9230.00,1.13
9229.00,1.13
9228.00,1.12
9227.00,1.12
9226.00,1.12
9225.00,1.12
9224.00,1.12
9223.00,1.12
9222.00,1.12
9221.00,1.12
9220.00,1.12
9219.00,1.12
9218.00,1.12
9217.00,1.12
9216.00,1.12
9215.00,1.12
9214.00,1.12
9213.00,1.12
9212.00,1.12
9211.00,1.12
9210.00,1.12
9209.00,1.12
9208.00,1.12
9207.00,1.12
9206.00,1.12
9205.00,1.12
9204.00,1.12
9203.00,1.12
9202.00,1.12
9201.00,1.12
9200.00,1.12
9199.00,1.12
9198.00,1.12
9197.00,1.12
9196.00,1.12
9195.00,1.12
9194.00,1.12
9193.00,1.13
9192.00,1.13
9191.00,1.13
9190.00,1.13
9189.00,1.13
9188.00,1.13
9187.00,1.13
9186.00,1.13
9185.00,1.13
9184.00,1.13
9183.00,1.13
9182.00,1.13
9181.00,1.13
9180.00,1.13
9179.00,1.13
9178.00,1.13
9177.00,1.13
9176.00,1.13
9175.00,1.13
9174.00,1.13
9173.00,1.13
9172.00,1.13
9171.00,1.13
9170.00,1.13
9169.00,1.13
9168.00,1.13
9167.00,1.13
9166.00,1.13
9165.00,1.13
9164.00,1.13
9163.00,1.13
9162.00,1.13
9161.00,1.13
9160.00,1.13
9159.00,1.13
9158.00,1.13
9157.00,1.13
9156.00,1.13
9155.00,1.13
9154.00,1.13
9153.00,1.13
9152.00,1.13
9151.00,1.12
9150.00,1.12
9149.00,1.12
9148.00,1.12
9147.00,1.12
9146.00,1.12
9145.00,1.12
9144.00,1.12
9143.00,1.12
9142.00,1.12
9141.00,1.12
9140.00,1.12
9139.00,1.12
9138.00,1.12
9137.00,1.12
9136.00,1.12
9135.00,1.12
9134.00,1.12
9133.00,1.12
9132.00,1.12
9131.00,1.12
9130.00,1.12
9129.00,1.12
9128.00,1.12
9127.00,1.12
9126.00,1.12
9125.00,1.12
9124.00,1.12
9123.00,1.13
9122.00,1.13
9121.00,1.13
9120.00,1.13
9119.00,1.13
9118.00,1.13
9117.00,1.13
9116.00,1.13
9115.00,1.13
9114.00,1.13
9113.00,1.13
9112.00,1.13
9111.00,1.14
9110.00,1.14
9109.00,1.14
9108.00,1.14
9107.00,1.14
9106.00,1.14
9105.00,1.14
9104.00,1.14
9103.00,1.14
9102.00,1.14
9101.00,1.14
9100.00,1.14
9099.00,1.14
9098.00,1.14
9097.00,1.14
9096.00,1.14
9095.00,1.14
9094.00,1.14
9093.00,1.14
9092.00,1.14
9091.00,1.14
9090.00,1.14
9089.00,1.14
9088.00,1.14
9087.00,1.14
9086.00,1.14
9085.00,1.14
9084.00,1.14
9083.00,1.14
9082.00,1.14
9081.00,1.14
9080.00,1.14
9079.00,1.14
9078.00,1.14
9077.00,1.13
9076.00,1.13
9075.00,1.13
9074.00,1.13
9073.00,1.13
9072.00,1.13
9071.00,1.13
9070.00,1.13
9069.00,1.13
9068.00,1.13
9067.00,1.13
9066.00,1.13
9065.00,1.13
9064.00,1.13
9063.00,1.13
9062.00,1.13
9061.00,1.13
9060.00,1.13
9059.00,1.13
9058.00,1.13
9057.00,1.13
9056.00,1.13
9055.00,1.13
9054.00,1.13
9053.00,1.13
9052.00,1.13
9051.00,1.13
9050.00,1.13
9049.00,1.13
9048.00,1.13
9047.00,1.13
9046.00,1.13
9045.00,1.13
9044.00,1.13
9043.00,1.12
9042.00,1.12
9041.00,1.12
9040.00,1.12
9039.00,1.12
9038.00,1.12
9037.00,1.12
9036.00,1.12
9035.00,1.12
9034.00,1.12
9033.00,1.12
9032.00,1.12
9031.00,1.12
9030.00,1.12
9029.00,1.12
9028.00,1.12
9027.00,1.12
9026.00,1.12
9025.00,1.12
9024.00,1.12
9023.00,1.12
9022.00,1.12
9021.00,1.12
9020.00,1.12
9019.00,1.12
9018.00,1.13
9017.00,1.13
9016.00,1.13
9015.00,1.13
9014.00,1.13
9013.00,1.13
9012.00,1.13
9011.00,1.13
9010.00,1.13
9009.00,1.14
9008.00,1.14
9007.00,1.14
9006.00,1.14
9005.00,1.14
9004.00,1.14
9003.00,1.14
9002.00,1.14
9001.00,1.14
9000.00,1.14
8999.00,1.14
8998.00,1.13
8997.00,1.13
8996.00,1.13
8995.00,1.13
8994.00,1.13
8993.00,1.13
8992.00,1.14
8991.00,1.14
8990.00,1.14
8989.00,1.14
8988.00,1.14
8987.00,1.14
8986.00,1.14
8985.00,1.14
8984.00,1.14
8983.00,1.14
8982.00,1.14
8981.00,1.14
8980.00,1.14
8979.00,1.14
8978.00,1.14
8977.00,1.14
8976.00,1.14
8975.00,1.14
8974.00,1.14
8973.00,1.14
8972.00,1.14
8971.00,1.14
8970.00,1.14
8969.00,1.14
8968.00,1.14
8967.00,1.14
8966.00,1.14
8965.00,1.14
8964.00,1.14
8963.00,1.14
8962.00,1.14
8961.00,1.14
8960.00,1.14
8959.00,1.14
8958.00,1.13
8957.00,1.13
8956.00,1.13
8955.00,1.13
8954.00,1.13
8953.00,1.13
8952.00,1.13
8951.00,1.13
8950.00,1.13
8949.00,1.13
8948.00,1.13
8947.00,1.13
8946.00,1.13
8945.00,1.13
8944.00,1.13
8943.00,1.13
8942.00,1.13
8941.00,1.13
8940.00,1.13
8939.00,1.13
8938.00,1.13
8937.00,1.13
8936.00,1.13
8935.00,1.13
8934.00,1.13
8933.00,1.13
8932.00,1.13
8931.00,1.13
8930.00,1.13
8929.00,1.13
8928.00,1.13
8927.00,1.13
8926.00,1.13
8925.00,1.13
8924.00,1.13
8923.00,1.13
8922.00,1.14
8921.00,1.14
8920.00,1.14
8919.00,1.14
8918.00,1.14
8917.00,1.14
8916.00,1.14
8915.00,1.14
8914.00,1.14
8913.00,1.14
8912.00,1.14
8911.00,1.14
8910.00,1.14
8909.00,1.13
8908.00,1.13
8907.00,1.13
8906.00,1.13
8905.00,1.13
8904.00,1.13
8903.00,1.13
8902.00,1.13
8901.00,1.13
8900.00,1.14
8899.00,1.14
8898.00,1.14
8897.00,1.14
8896.00,1.14
8895.00,1.14
8894.00,1.14
8893.00,1.14
8892.00,1.14
8891.00,1.14
8890.00,1.13
8889.00,1.13
8888.00,1.13
8887.00,1.13
8886.00,1.13
8885.00,1.13
8884.00,1.13
8883.00,1.13
8882.00,1.12
8881.00,1.12
8880.00,1.12
8879.00,1.12
8878.00,1.12
8877.00,1.12
8876.00,1.12
8875.00,1.12
8874.00,1.12
8873.00,1.12
8872.00,1.12
8871.00,1.12
8870.00,1.12
8869.00,1.12
8868.00,1.13
8867.00,1.13
8866.00,1.13
8865.00,1.13
8864.00,1.13
8863.00,1.13
8862.00,1.13
8861.00,1.13
8860.00,1.13
8859.00,1.13
8858.00,1.13
8857.00,1.13
8856.00,1.13
8855.00,1.13
8854.00,1.13
8853.00,1.13
8852.00,1.13
8851.00,1.13
8850.00,1.13
8849.00,1.13
8848.00,1.12
8847.00,1.12
8846.00,1.12
8845.00,1.12
8844.00,1.12
8843.00,1.12
8842.00,1.12
8841.00,1.12
8840.00,1.12
8839.00,1.12
8838.00,1.12
8837.00,1.12
8836.00,1.12
8835.00,1.12
8834.00,1.12
8833.00,1.12
8832.00,1.12
8831.00,1.12
8830.00,1.12
8829.00,1.12
8828.00,1.12
8827.00,1.13
8826.00,1.13
8825.00,1.13
8824.00,1.13
8823.00,1.13
8822.00,1.13
8821.00,1.13
8820.00,1.12
8819.00,1.12
8818.00,1.12
8817.00,1.12
8816.00,1.12
8815.00,1.12
8814.00,1.12
8813.00,1.12
8812.00,1.12
8811.00,1.12
8810.00,1.11
8809.00,1.11
8808.00,1.11
8807.00,1.11
8806.00,1.11
8805.00,1.11
8804.00,1.11
8803.00,1.11
8802.00,1.11
8801.00,1.11
8800.00,1.11
8799.00,1.10
8798.00,1.10
8797.00,1.10
8796.00,1.11
8795.00,1.11
8794.00,1.11
8793.00,1.11
8792.00,1.11
8791.00,1.11
8790.00,1.11
8789.00,1.11
8788.00,1.11
8787.00,1.11
8786.00,1.11
8785.00,1.12
8784.00,1.12
8783.00,1.12
8782.00,1.12
8781.00,1.12
8780.00,1.12
8779.00,1.12
8778.00,1.12
8777.00,1.12
8776.00,1.12
8775.00,1.12
8774.00,1.12
8773.00,1.12
8772.00,1.12
8771.00,1.12
8770.00,1.12
8769.00,1.12
8768.00,1.11
8767.00,1.11
8766.00,1.11
8765.00,1.11
8764.00,1.11
8763.00,1.11
8762.00,1.11
8761.00,1.11
8760.00,1.11
8759.00,1.10
8758.00,1.10
8757.00,1.10
8756.00,1.10
8755.00,1.10
8754.00,1.10
8753.00,1.10
8752.00,1.10
8751.00,1.10
8750.00,1.10
8749.00,1.10
8748.00,1.10
8747.00,1.10
8746.00,1.10
8745.00,1.10
8744.00,1.10
8743.00,1.10
8742.00,1.10
8741.00,1.10
8740.00,1.10
8739.00,1.09
8738.00,1.09
8737.00,1.09
8736.00,1.09
8735.00,1.09
8734.00,1.09
8733.00,1.09
8732.00,1.08
8731.00,1.08
8730.00,1.08
8729.00,1.08
8728.00,1.08
8727.00,1.08
8726.00,1.08
8725.00,1.08
8724.00,1.08
8723.00,1.08
8722.00,1.08
8721.00,1.08
8720.00,1.08
8719.00,1.08
8718.00,1.08
8717.00,1.08
8716.00,1.08
8715.00,1.08
8714.00,1.08
8713.00,1.08
8712.00,1.08
8711.00,1.08
8710.00,1.08
8709.00,1.09
8708.00,1.09
8707.00,1.09
8706.00,1.09
8705.00,1.09
8704.00,1.09
8703.00,1.09
8702.00,1.09
8701.00,1.09
8700.00,1.09
8699.00,1.09
8698.00,1.09
8697.00,1.09
8696.00,1.09
8695.00,1.09
8694.00,1.09
8693.00,1.09
8692.00,1.09
8691.00,1.09
8690.00,1.09
8689.00,1.09
8688.00,1.09
8687.00,1.09
8686.00,1.09
8685.00,1.09
8684.00,1.09
8683.00,1.09
8682.00,1.09
8681.00,1.09
8680.00,1.09
8679.00,1.10
8678.00,1.10
8677.00,1.10
8676.00,1.10
8675.00,1.10
8674.00,1.10
8673.00,1.10
8672.00,1.10
8671.00,1.10
8670.00,1.10
8669.00,1.10
8668.00,1.09
8667.00,1.09
8666.00,1.09
8665.00,1.09
8664.00,1.09
8663.00,1.09
8662.00,1.09
8661.00,1.08
8660.00,1.08
8659.00,1.08
8658.00,1.08
8657.00,1.08
8656.00,1.08
8655.00,1.08
8654.00,1.07
8653.00,1.07
8652.00,1.07
8651.00,1.07
8650.00,1.07
8649.00,1.07
8648.00,1.07
8647.00,1.07
8646.00,1.07
8645.00,1.07
8644.00,1.07
8643.00,1.07
8642.00,1.08
8641.00,1.08
8640.00,1.08
8639.00,1.08
8638.00,1.08
8637.00,1.08
8636.00,1.08
8635.00,1.08
8634.00,1.09
8633.00,1.09
8632.00,1.09
8631.00,1.09
8630.00,1.08
8629.00,1.08
8628.00,1.08
8627.00,1.08
8626.00,1.08
8625.00,1.08
8624.00,1.07
8623.00,1.07
8622.00,1.07
8621.00,1.07
8620.00,1.07
8619.00,1.06
8618.00,1.06
8617.00,1.06
8616.00,1.06
8615.00,1.06
8614.00,1.06
8613.00,1.06
8612.00,1.06
8611.00,1.06
8610.00,1.06
8609.00,1.06
8608.00,1.06
8607.00,1.06
8606.00,1.06
8605.00,1.06
8604.00,1.06
8603.00,1.06
8602.00,1.06
8601.00,1.06
8600.00,1.06
8599.00,1.06
8598.00,1.06
8597.00,1.06
8596.00,1.06
8595.00,1.06
8594.00,1.06
8593.00,1.06
8592.00,1.07
8591.00,1.07
8590.00,1.07
8589.00,1.07
8588.00,1.07
8587.00,1.07
8586.00,1.07
8585.00,1.07
8584.00,1.06
8583.00,1.06
8582.00,1.06
8581.00,1.06
8580.00,1.06
8579.00,1.06
8578.00,1.06
8577.00,1.06
8576.00,1.06
8575.00,1.06
8574.00,1.06
8573.00,1.06
8572.00,1.06
8571.00,1.06
8570.00,1.06
8569.00,1.06
8568.00,1.06
8567.00,1.06
8566.00,1.06
8565.00,1.06
8564.00,1.06
8563.00,1.06
8562.00,1.06
8561.00,1.06
8560.00,1.06
8559.00,1.06
8558.00,1.06
8557.00,1.06
8556.00,1.06
8555.00,1.06
8554.00,1.06
8553.00,1.06
8552.00,1.06
8551.00,1.06
8550.00,1.06
8549.00,1.06
8548.00,1.06
8547.00,1.06
8546.00,1.06
8545.00,1.06
8544.00,1.06
8543.00,1.06
8542.00,1.06
8541.00,1.05
8540.00,1.05
8539.00,1.05
8538.00,1.05
8537.00,1.05
8536.00,1.05
8535.00,1.04
8534.00,1.04
8533.00,1.04
8532.00,1.04
8531.00,1.04
8530.00,1.04
8529.00,1.04
8528.00,1.04
8527.00,1.04
8526.00,1.04
8525.00,1.03
8524.00,1.03
8523.00,1.03
8522.00,1.04
8521.00,1.04
8520.00,1.04
8519.00,1.04
8518.00,1.04
8517.00,1.04
8516.00,1.04
8515.00,1.04
8514.00,1.04
8513.00,1.04
8512.00,1.04
8511.00,1.04
8510.00,1.04
8509.00,1.04
8508.00,1.04
8507.00,1.04
8506.00,1.03
8505.00,1.03
8504.00,1.03
8503.00,1.03
8502.00,1.03
8501.00,1.03
8500.00,1.03
8499.00,1.03
8498.00,1.03
8497.00,1.03
8496.00,1.03
8495.00,1.02
8494.00,1.02
8493.00,1.02
8492.00,1.02
8491.00,1.02
8490.00,1.02
8489.00,1.02
8488.00,1.02
8487.00,1.02
8486.00,1.02
8485.00,1.02
8484.00,1.02
8483.00,1.02
8482.00,1.02
8481.00,1.02
8480.00,1.02
8479.00,1.02
8478.00,1.02
8477.00,1.02
8476.00,1.02
8475.00,1.02
8474.00,1.02
8473.00,1.02
8472.00,1.02
8471.00,1.02
8470.00,1.02
8469.00,1.02
8468.00,1.02
8467.00,1.02
8466.00,1.01
8465.00,1.01
8464.00,1.01
8463.00,1.01
8462.00,1.01
8461.00,1.00
8460.00,1.00
8459.00,1.00
8458.00,1.00
8457.00,1.00
8456.00,1.00
8455.00,1.00
8454.00,1.00
8453.00,1.00
8452.00,1.00
8451.00,1.00
8450.00,1.00
8449.00,1.00
8448.00,1.00
8447.00,1.00
8446.00,1.00
8445.00,1.00
8444.00,1.00
8443.00,1.00
8442.00,1.00
8441.00,1.00
8440.00,1.00
8439.00,1.01
8438.00,1.01
8437.00,1.01
8436.00,1.01
8435.00,1.00
8434.00,1.00
8433.00,1.00
8432.00,1.00
8431.00,1.00
8430.00,1.01
8429.00,1.01
8428.00,1.01
8427.00,1.01
8426.00,1.01
8425.00,1.01
8424.00,1.01
8423.00,1.01
8422.00,1.01
8421.00,1.01
8420.00,1.02
8419.00,1.02
8418.00,1.02
8417.00,1.02
8416.00,1.02
8415.00,1.02
8414.00,1.02
8413.00,1.02
8412.00,1.02
8411.00,1.02
8410.00,1.02
8409.00,1.02
8408.00,1.02
8407.00,1.02
8406.00,1.02
8405.00,1.02
8404.00,1.02
8403.00,1.02
8402.00,1.02
8401.00,1.02
8400.00,1.02
8399.00,1.02
8398.00,1.02
8397.00,1.02
8396.00,1.02
8395.00,1.02
8394.00,1.02
8393.00,1.03
8392.00,1.03
8391.00,1.03
8390.00,1.03
8389.00,1.03
8388.00,1.03
8387.00,1.04
8386.00,1.04
8385.00,1.04
8384.00,1.04
8383.00,1.04
8382.00,1.04
8381.00,1.04
8380.00,1.05
8379.00,1.05
8378.00,1.05
8377.00,1.05
8376.00,1.05
8375.00,1.05
8374.00,1.05
8373.00,1.05
8372.00,1.05
8371.00,1.05
8370.00,1.05
8369.00,1.05
8368.00,1.05
8367.00,1.05
8366.00,1.05
8365.00,1.05
8364.00,1.05
8363.00,1.05
8362.00,1.05
8361.00,1.05
8360.00,1.05
8359.00,1.05
8358.00,1.05
8357.00,1.05
8356.00,1.05
8355.00,1.05
8354.00,1.05
8353.00,1.05
8352.00,1.05
8351.00,1.05
8350.00,1.05
8349.00,1.05
8348.00,1.05
8347.00,1.05
8346.00,1.05
8345.00,1.05
8344.00,1.05
8343.00,1.05
8342.00,1.05
8341.00,1.05
8340.00,1.05
8339.00,1.06
8338.00,1.06
8337.00,1.06
8336.00,1.06
8335.00,1.06
8334.00,1.06
8333.00,1.06
8332.00,1.06
8331.00,1.06
8330.00,1.06
8329.00,1.06
8328.00,1.06
8327.00,1.06
8326.00,1.06
8325.00,1.06
8324.00,1.06
8323.00,1.06
8322.00,1.06
8321.00,1.06
8320.00,1.06
8319.00,1.06
8318.00,1.06
8317.00,1.06
8316.00,1.06
8315.00,1.06
8314.00,1.06
8313.00,1.06
8312.00,1.06
8311.00,1.05
8310.00,1.05
8309.00,1.05
8308.00,1.05
8307.00,1.05
8306.00,1.05
8305.00,1.05
8304.00,1.05
8303.00,1.05
8302.00,1.05
8301.00,1.04
8300.00,1.04
8299.00,1.04
8298.00,1.04
8297.00,1.04
8296.00,1.04
8295.00,1.04
8294.00,1.04
8293.00,1.04
8292.00,1.04
8291.00,1.04
8290.00,1.04
8289.00,1.05
8288.00,1.05
8287.00,1.05
8286.00,1.05
8285.00,1.05
8284.00,1.05
8283.00,1.05
8282.00,1.05
8281.00,1.05
8280.00,1.05
8279.00,1.05
8278.00,1.05
8277.00,1.05
8276.00,1.05
8275.00,1.05
8274.00,1.05
8273.00,1.05
8272.00,1.05
8271.00,1.05
8270.00,1.05
8269.00,1.05
8268.00,1.05
8267.00,1.05
8266.00,1.05
8265.00,1.05
8264.00,1.05
8263.00,1.05
8262.00,1.05
8261.00,1.05
8260.00,1.05
8259.00,1.05
8258.00,1.05
8257.00,1.05
8256.00,1.05
8255.00,1.05
8254.00,1.05
8253.00,1.05
8252.00,1.05
8251.00,1.05
8250.00,1.05
8249.00,1.05
8248.00,1.05
8247.00,1.05
8246.00,1.05
8245.00,1.05
8244.00,1.06
8243.00,1.06
8242.00,1.06
8241.00,1.06
8240.00,1.06
8239.00,1.06
8238.00,1.06
8237.00,1.06
8236.00,1.06
8235.00,1.06
8234.00,1.06
8233.00,1.06
8232.00,1.06
8231.00,1.06
8230.00,1.06
8229.00,1.06
8228.00,1.06
8227.00,1.06
8226.00,1.06
8225.00,1.06
8224.00,1.06
8223.00,1.06
8222.00,1.06
8221.00,1.06
8220.00,1.06
8219.00,1.06
8218.00,1.06
8217.00,1.06
8216.00,1.06
8215.00,1.06
8214.00,1.06
8213.00,1.06
8212.00,1.06
8211.00,1.06
8210.00,1.06
8209.00,1.06
8208.00,1.06
8207.00,1.06
8206.00,1.06
8205.00,1.06
8204.00,1.06
8203.00,1.06
8202.00,1.06
8201.00,1.06
8200.00,1.06
8199.00,1.06
8198.00,1.06
8197.00,1.06
8196.00,1.06
8195.00,1.06
8194.00,1.07
8193.00,1.07
8192.00,1.07
8191.00,1.07
8190.00,1.07
8189.00,1.07
8188.00,1.07
8187.00,1.07
8186.00,1.07
8185.00,1.07
8184.00,1.07
8183.00,1.07
8182.00,1.07
8181.00,1.07
8180.00,1.07
8179.00,1.07
8178.00,1.07
8177.00,1.08
8176.00,1.08
8175.00,1.08
8174.00,1.08
8173.00,1.08
8172.00,1.08
8171.00,1.08
8170.00,1.08
8169.00,1.08
8168.00,1.08
8167.00,1.08
8166.00,1.08
8165.00,1.08
8164.00,1.08
8163.00,1.08
8162.00,1.08
8161.00,1.08
8160.00,1.08
8159.00,1.08
8158.00,1.08
8157.00,1.08
8156.00,1.08
8155.00,1.08
8154.00,1.08
8153.00,1.08
8152.00,1.08
8151.00,1.08
8150.00,1.08
8149.00,1.08
8148.00,1.08
8147.00,1.08
8146.00,1.08
8145.00,1.08
8144.00,1.08
8143.00,1.08
8142.00,1.09
8141.00,1.09
8140.00,1.09
8139.00,1.09
8138.00,1.09
8137.00,1.09
8136.00,1.09
8135.00,1.09
8134.00,1.09
8133.00,1.09
8132.00,1.09
8131.00,1.09
8130.00,1.09
8129.00,1.09
8128.00,1.09
8127.00,1.09
8126.00,1.09
8125.00,1.09
8124.00,1.09
8123.00,1.09
8122.00,1.09
8121.00,1.09
8120.00,1.09
8119.00,1.09
8118.00,1.09
8117.00,1.09
8116.00,1.09
8115.00,1.09
8114.00,1.09
8113.00,1.09
8112.00,1.09
8111.00,1.09
8110.00,1.09
8109.00,1.09
8108.00,1.09
8107.00,1.09
8106.00,1.08
8105.00,1.08
8104.00,1.08
8103.00,1.08
8102.00,1.08
8101.00,1.08
8100.00,1.09
8099.00,1.09
8098.00,1.09
8097.00,1.09
8096.00,1.09
8095.00,1.09
8094.00,1.09
8093.00,1.09
8092.00,1.09
8091.00,1.10
8090.00,1.10
8089.00,1.10
8088.00,1.10
8087.00,1.10
8086.00,1.10
8085.00,1.10
8084.00,1.10
8083.00,1.10
8082.00,1.11
8081.00,1.11
8080.00,1.11
8079.00,1.11
8078.00,1.11
8077.00,1.11
8076.00,1.11
8075.00,1.10
8074.00,1.10
8073.00,1.10
8072.00,1.10
8071.00,1.10
8070.00,1.10
8069.00,1.10
8068.00,1.10
8067.00,1.10
8066.00,1.10
8065.00,1.10
8064.00,1.10
8063.00,1.10
8062.00,1.10
8061.00,1.10
8060.00,1.10
8059.00,1.10
8058.00,1.10
8057.00,1.10
8056.00,1.10
8055.00,1.10
8054.00,1.10
8053.00,1.11
8052.00,1.11
8051.00,1.11
8050.00,1.11
8049.00,1.11
8048.00,1.11
8047.00,1.11
8046.00,1.11
8045.00,1.11
8044.00,1.11
8043.00,1.11
8042.00,1.11
8041.00,1.11
8040.00,1.11
8039.00,1.11
8038.00,1.11
8037.00,1.11
8036.00,1.11
8035.00,1.11
8034.00,1.11
8033.00,1.11
8032.00,1.11
8031.00,1.11
8030.00,1.11
8029.00,1.11
8028.00,1.11
8027.00,1.11
8026.00,1.11
8025.00,1.11
8024.00,1.11
8023.00,1.11
8022.00,1.11
8021.00,1.11
8020.00,1.11
8019.00,1.11
8018.00,1.11
8017.00,1.11
8016.00,1.11
8015.00,1.11
8014.00,1.11
8013.00,1.11
8012.00,1.11
8011.00,1.11
8010.00,1.11
8009.00,1.11
8008.00,1.11
8007.00,1.11
8006.00,1.11
8005.00,1.11
8004.00,1.11
8003.00,1.11
8002.00,1.11
8001.00,1.11
8000.00,1.11
7999.00,1.11
7998.00,1.11
7997.00,1.11
7996.00,1.11
7995.00,1.11
7994.00,1.11
7993.00,1.11
7992.00,1.11
7991.00,1.11
7990.00,1.11
7989.00,1.11
7988.00,1.11
7987.00,1.12
7986.00,1.12
7985.00,1.12
7984.00,1.12
7983.00,1.12
7982.00,1.12
7981.00,1.12
7980.00,1.12
7979.00,1.12
7978.00,1.12
7977.00,1.12
7976.00,1.12
7975.00,1.12
7974.00,1.12
7973.00,1.13
7972.00,1.13
7971.00,1.13
7970.00,1.13
7969.00,1.13
7968.00,1.12
7967.00,1.12
7966.00,1.12
7965.00,1.12
7964.00,1.12
7963.00,1.12
7962.00,1.12
7961.00,1.12
7960.00,1.12
7959.00,1.12
7958.00,1.12
7957.00,1.12
7956.00,1.12
7955.00,1.11
7954.00,1.11
7953.00,1.11
7952.00,1.11
7951.00,1.11
7950.00,1.11
7949.00,1.11
7948.00,1.11
7947.00,1.11
7946.00,1.11
7945.00,1.11
7944.00,1.11
7943.00,1.11
7942.00,1.11
7941.00,1.11
7940.00,1.11
7939.00,1.11
7938.00,1.11
7937.00,1.11
7936.00,1.11
7935.00,1.11
7934.00,1.11
7933.00,1.11
7932.00,1.11
7931.00,1.11
7930.00,1.11
7929.00,1.11
7928.00,1.11
7927.00,1.11
7926.00,1.11
7925.00,1.12
7924.00,1.12
7923.00,1.12
7922.00,1.12
7921.00,1.12
7920.00,1.12
7919.00,1.12
7918.00,1.12
7917.00,1.12
7916.00,1.12
7915.00,1.13
7914.00,1.13
7913.00,1.13
7912.00,1.13
7911.00,1.13
7910.00,1.13
7909.00,1.13
7908.00,1.13
7907.00,1.13
7906.00,1.13
7905.00,1.13
7904.00,1.13
7903.00,1.13
7902.00,1.13
7901.00,1.13
7900.00,1.13
7899.00,1.13
7898.00,1.13
7897.00,1.12
7896.00,1.12
7895.00,1.12
7894.00,1.12
7893.00,1.12
7892.00,1.12
7891.00,1.12
7890.00,1.12
7889.00,1.12
7888.00,1.12
7887.00,1.12
7886.00,1.12
7885.00,1.12
7884.00,1.12
7883.00,1.12
7882.00,1.12
7881.00,1.12
7880.00,1.12
7879.00,1.12
7878.00,1.12
7877.00,1.12
7876.00,1.12
7875.00,1.13
7874.00,1.13
7873.00,1.13
7872.00,1.13
7871.00,1.13
7870.00,1.13
7869.00,1.13
7868.00,1.13
7867.00,1.13
7866.00,1.13
7865.00,1.13
7864.00,1.13
7863.00,1.13
7862.00,1.13
7861.00,1.13
7860.00,1.13
7859.00,1.13
7858.00,1.13
7857.00,1.13
7856.00,1.13
7855.00,1.13
7854.00,1.13
7853.00,1.13
7852.00,1.13
7851.00,1.13
7850.00,1.13
7849.00,1.13
7848.00,1.13
7847.00,1.13
7846.00,1.13
7845.00,1.13
7844.00,1.13
7843.00,1.13
7842.00,1.13
7841.00,1.12
7840.00,1.12
7839.00,1.12
7838.00,1.12
7837.00,1.12
7836.00,1.12
7835.00,1.12
7834.00,1.12
7833.00,1.12
7832.00,1.12
7831.00,1.13
7830.00,1.13
7829.00,1.13
7828.00,1.13
7827.00,1.13
7826.00,1.13
7825.00,1.13
7824.00,1.13
7823.00,1.13
7822.00,1.13
7821.00,1.13
7820.00,1.13
7819.00,1.13
7818.00,1.13
7817.00,1.13
7816.00,1.13
7815.00,1.13
7814.00,1.13
7813.00,1.13
7812.00,1.13
7811.00,1.13
7810.00,1.13
7809.00,1.12
7808.00,1.12
7807.00,1.12
7806.00,1.12
7805.00,1.12
7804.00,1.12
7803.00,1.12
7802.00,1.12
7801.00,1.12
7800.00,1.12
7799.00,1.12
7798.00,1.12
7797.00,1.13
7796.00,1.13
7795.00,1.13
7794.00,1.13
7793.00,1.13
7792.00,1.13
7791.00,1.13
7790.00,1.13
7789.00,1.13
7788.00,1.13
7787.00,1.13
7786.00,1.13
7785.00,1.13
7784.00,1.13
7783.00,1.13
7782.00,1.13
7781.00,1.14
7780.00,1.14
7779.00,1.14
7778.00,1.14
7777.00,1.14
7776.00,1.14
7775.00,1.14
7774.00,1.14
7773.00,1.14
7772.00,1.14
7771.00,1.14
7770.00,1.14
7769.00,1.14
7768.00,1.14
7767.00,1.14
7766.00,1.14
7765.00,1.14
7764.00,1.14
7763.00,1.14
7762.00,1.14
7761.00,1.14
7760.00,1.14
7759.00,1.14
7758.00,1.14
7757.00,1.14
7756.00,1.14
7755.00,1.14
7754.00,1.14
7753.00,1.14
7752.00,1.14
7751.00,1.14
7750.00,1.14
7749.00,1.14
7748.00,1.14
7747.00,1.14
7746.00,1.14
7745.00,1.14
7744.00,1.14
7743.00,1.14
7742.00,1.14
7741.00,1.14
7740.00,1.14
7739.00,1.14
7738.00,1.14
7737.00,1.14
7736.00,1.14
7735.00,1.14
7734.00,1.14
7733.00,1.14
7732.00,1.14
7731.00,1.14
7730.00,1.14
7729.00,1.14
7728.00,1.14
7727.00,1.14
7726.00,1.14
7725.00,1.14
7724.00,1.14
7723.00,1.14
7722.00,1.14
7721.00,1.14
7720.00,1.14
7719.00,1.14
7718.00,1.14
7717.00,1.14
7716.00,1.14
7715.00,1.14
7714.00,1.14
7713.00,1.14
7712.00,1.14
7711.00,1.14
7710.00,1.14
7709.00,1.14
7708.00,1.14
7707.00,1.14
7706.00,1.14
7705.00,1.14
7704.00,1.14
7703.00,1.14
7702.00,1.14
7701.00,1.14
7700.00,1.14
7699.00,1.14
7698.00,1.14
7697.00,1.14
7696.00,1.14
7695.00,1.14
7694.00,1.14
7693.00,1.14
7692.00,1.14
7691.00,1.14
7690.00,1.14
7689.00,1.14
7688.00,1.14
7687.00,1.14
7686.00,1.14
7685.00,1.14
7684.00,1.14
7683.00,1.14
7682.00,1.14
7681.00,1.14
7680.00,1.14
7679.00,1.14
7678.00,1.14
7677.00,1.14
7676.00,1.14
7675.00,1.14
7674.00,1.14
7673.00,1.14
7672.00,1.14
7671.00,1.14
7670.00,1.14
7669.00,1.14
7668.00,1.14
7667.00,1.14
7666.00,1.14
7665.00,1.14
7664.00,1.14
7663.00,1.14
7662.00,1.14
7661.00,1.14
7660.00,1.14
7659.00,1.14
7658.00,1.14
7657.00,1.14
7656.00,1.14
7655.00,1.14
7654.00,1.14
7653.00,1.14
7652.00,1.14
7651.00,1.14
7650.00,1.14
7649.00,1.14
7648.00,1.14
7647.00,1.14
7646.00,1.14
7645.00,1.14
7644.00,1.14
7643.00,1.14
7642.00,1.14
7641.00,1.14
7640.00,1.14
7639.00,1.14
7638.00,1.14
7637.00,1.14
7636.00,1.14
7635.00,1.14
7634.00,1.14
7633.00,1.14
7632.00,1.14
7631.00,1.14
7630.00,1.14
7629.00,1.14
7628.00,1.14
7627.00,1.14
7626.00,1.14
7625.00,1.14
7624.00,1.14
7623.00,1.14
7622.00,1.14
7621.00,1.14
7620.00,1.14
7619.00,1.14
7618.00,1.14
7617.00,1.14
7616.00,1.14
7615.00,1.14
7614.00,1.14
7613.00,1.14
7612.00,1.14
7611.00,1.14
7610.00,1.14
7609.00,1.14
7608.00,1.14
7607.00,1.14
7606.00,1.14
7605.00,1.15
7604.00,1.15
7603.00,1.15
7602.00,1.15
7601.00,1.14
7600.00,1.14
7599.00,1.14
7598.00,1.14
7597.00,1.14
7596.00,1.14
7595.00,1.14
7594.00,1.14
7593.00,1.14
7592.00,1.14
7591.00,1.14
7590.00,1.14
7589.00,1.14
7588.00,1.14
7587.00,1.14
7586.00,1.14
7585.00,1.14
7584.00,1.14
7583.00,1.14
7582.00,1.14
7581.00,1.14
7580.00,1.14
7579.00,1.14
7578.00,1.14
7577.00,1.14
7576.00,1.14
7575.00,1.14
7574.00,1.14
7573.00,1.14
7572.00,1.14
7571.00,1.14
7570.00,1.14
7569.00,1.14
7568.00,1.14
7567.00,1.14
7566.00,1.14
7565.00,1.14
7564.00,1.14
7563.00,1.14
7562.00,1.14
7561.00,1.14
7560.00,1.14
7559.00,1.14
7558.00,1.14
7557.00,1.14
7556.00,1.14
7555.00,1.14
7554.00,1.14
7553.00,1.14
7552.00,1.14
7551.00,1.14
7550.00,1.14
7549.00,1.14
7548.00,1.14
7547.00,1.14
7546.00,1.13
7545.00,1.13
7544.00,1.13
7543.00,1.13
7542.00,1.13
7541.00,1.13
7540.00,1.13
7539.00,1.13
7538.00,1.13
7537.00,1.13
7536.00,1.13
7535.00,1.13
7534.00,1.13
7533.00,1.13
7532.00,1.13
7531.00,1.13
7530.00,1.13
7529.00,1.13
7528.00,1.13
7527.00,1.13
7526.00,1.13
7525.00,1.13
7524.00,1.13
7523.00,1.13
7522.00,1.13
7521.00,1.13
7520.00,1.13
7519.00,1.13
7518.00,1.13
7517.00,1.13
7516.00,1.13
7515.00,1.13
7514.00,1.13
7513.00,1.13
7512.00,1.13
7511.00,1.13
7510.00,1.13
7509.00,1.13
7508.00,1.13
7507.00,1.13
7506.00,1.13
7505.00,1.12
7504.00,1.12
7503.00,1.12
7502.00,1.12
7501.00,1.12
7500.00,1.12
7499.00,1.12
7498.00,1.12
7497.00,1.12
7496.00,1.12
7495.00,1.12
7494.00,1.12
7493.00,1.12
7492.00,1.12
7491.00,1.12
7490.00,1.12
7489.00,1.12
7488.00,1.12
7487.00,1.12
7486.00,1.12
7485.00,1.12
7484.00,1.12
7483.00,1.12
7482.00,1.12
7481.00,1.12
7480.00,1.12
7479.00,1.12
7478.00,1.12
7477.00,1.12
7476.00,1.12
7475.00,1.12
7474.00,1.12
7473.00,1.12
7472.00,1.12
7471.00,1.12
7470.00,1.12
7469.00,1.12
7468.00,1.12
7467.00,1.12
7466.00,1.12
7465.00,1.12
7464.00,1.12
7463.00,1.12
7462.00,1.12
7461.00,1.12
7460.00,1.11
7459.00,1.11
7458.00,1.11
7457.00,1.11
7456.00,1.11
7455.00,1.11
7454.00,1.11
7453.00,1.11
7452.00,1.11
7451.00,1.11
7450.00,1.11
7449.00,1.11
7448.00,1.11
7447.00,1.11
7446.00,1.11
7445.00,1.11
7444.00,1.11
7443.00,1.11
7442.00,1.10
7441.00,1.10
7440.00,1.10
7439.00,1.10
7438.00,1.10
7437.00,1.10
7436.00,1.10
7435.00,1.10
7434.00,1.10
7433.00,1.10
7432.00,1.10
7431.00,1.10
7430.00,1.10
7429.00,1.09
7428.00,1.09
7427.00,1.09
7426.00,1.09
7425.00,1.09
7424.00,1.09
7423.00,1.09
7422.00,1.09
7421.00,1.09
7420.00,1.09
7419.00,1.09
7418.00,1.09
7417.00,1.09
7416.00,1.09
7415.00,1.09
7414.00,1.09
7413.00,1.09
7412.00,1.09
7411.00,1.09
7410.00,1.09
7409.00,1.09
7408.00,1.09
7407.00,1.09
7406.00,1.08
7405.00,1.08
7404.00,1.08
7403.00,1.08
7402.00,1.08
7401.00,1.08
7400.00,1.08
7399.00,1.08
7398.00,1.08
7397.00,1.08
7396.00,1.07
7395.00,1.07
7394.00,1.07
7393.00,1.07
7392.00,1.07
7391.00,1.07
7390.00,1.07
7389.00,1.07
7388.00,1.07
7387.00,1.07
7386.00,1.07
7385.00,1.07
7384.00,1.07
7383.00,1.07
7382.00,1.07
7381.00,1.07
7380.00,1.07
7379.00,1.07
7378.00,1.07
7377.00,1.07
7376.00,1.07
7375.00,1.07
7374.00,1.07
7373.00,1.07
7372.00,1.07
7371.00,1.07
7370.00,1.07
7369.00,1.07
7368.00,1.06
7367.00,1.06
7366.00,1.06
7365.00,1.06
7364.00,1.06
7363.00,1.06
7362.00,1.06
7361.00,1.06
7360.00,1.06
7359.00,1.06
7358.00,1.06
7357.00,1.06
7356.00,1.06
7355.00,1.06
7354.00,1.06
7353.00,1.06
7352.00,1.05
7351.00,1.05
7350.00,1.05
7349.00,1.05
7348.00,1.05
7347.00,1.05
7346.00,1.05
7345.00,1.05
7344.00,1.05
7343.00,1.05
7342.00,1.05
7341.00,1.05
7340.00,1.05
7339.00,1.05
7338.00,1.05
7337.00,1.05
7336.00,1.05
7335.00,1.05
7334.00,1.05
7333.00,1.05
7332.00,1.05
7331.00,1.05
7330.00,1.05
7329.00,1.05
7328.00,1.05
7327.00,1.05
7326.00,1.05
7325.00,1.05
7324.00,1.05
7323.00,1.05
7322.00,1.05
7321.00,1.05
7320.00,1.05
7319.00,1.05
7318.00,1.05
7317.00,1.05
7316.00,1.05
7315.00,1.05
7314.00,1.05
7313.00,1.05
7312.00,1.05
7311.00,1.05
7310.00,1.04
7309.00,1.04
7308.00,1.04
7307.00,1.04
7306.00,1.04
7305.00,1.04
7304.00,1.04
7303.00,1.04
7302.00,1.04
7301.00,1.04
7300.00,1.03
7299.00,1.03
7298.00,1.03
7297.00,1.03
7296.00,1.03
7295.00,1.03
7294.00,1.03
7293.00,1.03
7292.00,1.03
7291.00,1.02
7290.00,1.02
7289.00,1.02
7288.00,1.02
7287.00,1.02
7286.00,1.02
7285.00,1.02
7284.00,1.02
7283.00,1.02
7282.00,1.02
7281.00,1.02
7280.00,1.02
7279.00,1.01
7278.00,1.01
7277.00,1.01
7276.00,1.01
7275.00,1.01
7274.00,1.01
7273.00,1.01
7272.00,1.01
7271.00,1.01
7270.00,1.01
7269.00,1.01
7268.00,1.01
7267.00,1.01
7266.00,1.01
7265.00,1.00
7264.00,1.00
7263.00,1.00
7262.00,1.00
7261.00,1.00
7260.00,1.00
7259.00,1.00
7258.00,1.00
7257.00,1.00
7256.00,1.00
7255.00,1.00
7254.00,1.00
7253.00,0.99
7252.00,0.99
7251.00,0.99
7250.00,0.99
7249.00,0.99
7248.00,0.98
7247.00,0.98
7246.00,0.98
7245.00,0.98
7244.00,0.98
7243.00,0.97
7242.00,0.97
7241.00,0.97
7240.00,0.97
7239.00,0.96
7238.00,0.96
7237.00,0.96
7236.00,0.95
7235.00,0.95
7234.00,0.95
7233.00,0.95
7232.00,0.94
7231.00,0.94
7230.00,0.94
7229.00,0.94
7228.00,0.93
7227.00,0.93
7226.00,0.93
7225.00,0.92
7224.00,0.92
7223.00,0.92
7222.00,0.92
7221.00,0.91
7220.00,0.91
7219.00,0.91
7218.00,0.91
7217.00,0.90
7216.00,0.90
7215.00,0.90
7214.00,0.90
7213.00,0.89
7212.00,0.89
7211.00,0.89
7210.00,0.89
7209.00,0.89
7208.00,0.88
7207.00,0.88
7206.00,0.88
7205.00,0.88
7204.00,0.88
7203.00,0.87
7202.00,0.87
7201.00,0.87
7200.00,0.87
7199.00,0.86
7198.00,0.86
7197.00,0.86
7196.00,0.86
7195.00,0.85
7194.00,0.85
7193.00,0.85
7192.00,0.85
7191.00,0.84
7190.00,0.84
7189.00,0.84
7188.00,0.83
7187.00,0.83
7186.00,0.83
7185.00,0.82
7184.00,0.82
7183.00,0.82
7182.00,0.82
7181.00,0.81
7180.00,0.81
7179.00,0.81
7178.00,0.81
7177.00,0.81
7176.00,0.81
7175.00,0.80
7174.00,0.80
7173.00,0.80
7172.00,0.80
7171.00,0.80
7170.00,0.80
7169.00,0.80
7168.00,0.79
7167.00,0.79
7166.00,0.79
7165.00,0.79
7164.00,0.79
7163.00,0.78
7162.00,0.78
7161.00,0.78
7160.00,0.78
7159.00,0.77
7158.00,0.77
7157.00,0.77
7156.00,0.77
7155.00,0.76
7154.00,0.76
7153.00,0.76
7152.00,0.76
7151.00,0.75
7150.00,0.75
7149.00,0.75
7148.00,0.75
7147.00,0.74
7146.00,0.74
7145.00,0.74
7144.00,0.73
7143.00,0.73
7142.00,0.73
7141.00,0.73
7140.00,0.72
7139.00,0.72
7138.00,0.72
7137.00,0.72
7136.00,0.71
7135.00,0.71
7134.00,0.71
7133.00,0.71
7132.00,0.71
7131.00,0.70
7130.00,0.70
7129.00,0.70
7128.00,0.70
7127.00,0.70
7126.00,0.70
7125.00,0.69
7124.00,0.69
7123.00,0.69
7122.00,0.69
7121.00,0.68
7120.00,0.68
7119.00,0.68
7118.00,0.68
7117.00,0.68
7116.00,0.67
7115.00,0.67
7114.00,0.67
7113.00,0.67
7112.00,0.67
7111.00,0.66
7110.00,0.66
7109.00,0.66
7108.00,0.66
7107.00,0.66
7106.00,0.66
7105.00,0.65
7104.00,0.65
7103.00,0.65
7102.00,0.65
7101.00,0.65
7100.00,0.64
7099.00,0.64
7098.00,0.64
7097.00,0.64
7096.00,0.64
7095.00,0.63
7094.00,0.63
7093.00,0.63
7092.00,0.63
7091.00,0.63
7090.00,0.62
7089.00,0.62
7088.00,0.62
7087.00,0.62
7086.00,0.62
7085.00,0.62
7084.00,0.61
7083.00,0.61
7082.00,0.61
7081.00,0.61
7080.00,0.61
7079.00,0.61
7078.00,0.61
7077.00,0.60
7076.00,0.60
7075.00,0.60
7074.00,0.60
7073.00,0.60
7072.00,0.60
7071.00,0.60
7070.00,0.60
7069.00,0.60
7068.00,0.60
7067.00,0.60
7066.00,0.60
7065.00,0.59
7064.00,0.59
7063.00,0.59
7062.00,0.59
7061.00,0.59
7060.00,0.59
7059.00,0.59
7058.00,0.59
7057.00,0.59
7056.00,0.59
7055.00,0.59
7054.00,0.59
7053.00,0.58
7052.00,0.58
7051.00,0.58
7050.00,0.58
7049.00,0.58
7048.00,0.58
7047.00,0.57
7046.00,0.57
7045.00,0.57
7044.00,0.57
7043.00,0.57
7042.00,0.57
7041.00,0.57
7040.00,0.56
7039.00,0.56
7038.00,0.56
7037.00,0.56
7036.00,0.56
7035.00,0.56
7034.00,0.56
7033.00,0.56
7032.00,0.56
7031.00,0.56
7030.00,0.56
7029.00,0.56
7028.00,0.56
7027.00,0.55
7026.00,0.55
7025.00,0.55
7024.00,0.55
7023.00,0.55
7022.00,0.55
7021.00,0.55
7020.00,0.55
7019.00,0.55
7018.00,0.55
7017.00,0.54
7016.00,0.54
7015.00,0.54
7014.00,0.54
7013.00,0.54
7012.00,0.54
7011.00,0.54
7010.00,0.54
7009.00,0.54
7008.00,0.54
7007.00,0.54
7006.00,0.54
7005.00,0.54
7004.00,0.54
7003.00,0.54
7002.00,0.54
7001.00,0.54
7000.00,0.54
6999.00,0.54
6998.00,0.54
6997.00,0.54
6996.00,0.54
6995.00,0.53
6994.00,0.53
6993.00,0.53
6992.00,0.53
6991.00,0.53
6990.00,0.53
6989.00,0.53
6988.00,0.53
6987.00,0.53
6986.00,0.53
6985.00,0.53
6984.00,0.53
6983.00,0.53
6982.00,0.53
6981.00,0.53
6980.00,0.53
6979.00,0.52
6978.00,0.52
6977.00,0.52
6976.00,0.52
6975.00,0.52
6974.00,0.52
6973.00,0.52
6972.00,0.52
6971.00,0.52
6970.00,0.52
6969.00,0.52
6968.00,0.52
6967.00,0.52
6966.00,0.52
6965.00,0.52
6964.00,0.52
6963.00,0.52
6962.00,0.52
6961.00,0.52
6960.00,0.52
6959.00,0.52
6958.00,0.52
6957.00,0.52
6956.00,0.52
6955.00,0.52
6954.00,0.52
6953.00,0.52
6952.00,0.52
6951.00,0.52
6950.00,0.52
6949.00,0.52
6948.00,0.52
6947.00,0.52
6946.00,0.52
6945.00,0.51
6944.00,0.51
6943.00,0.51
6942.00,0.51
6941.00,0.51
6940.00,0.51
6939.00,0.51
6938.00,0.51
6937.00,0.51
6936.00,0.50
6935.00,0.50
6934.00,0.50
6933.00,0.50
6932.00,0.50
6931.00,0.50
6930.00,0.50
6929.00,0.50
6928.00,0.50
6927.00,0.51
6926.00,0.51
6925.00,0.51
6924.00,0.51
6923.00,0.51
6922.00,0.51
6921.00,0.51
6920.00,0.51
6919.00,0.51
6918.00,0.51
6917.00,0.51
6916.00,0.51
6915.00,0.51
6914.00,0.51
6913.00,0.51
6912.00,0.51
6911.00,0.51
6910.00,0.51
6909.00,0.51
6908.00,0.51
6907.00,0.51
6906.00,0.51
6905.00,0.51
6904.00,0.51
6903.00,0.51
6902.00,0.51
6901.00,0.51
6900.00,0.51
6899.00,0.51
6898.00,0.51
6897.00,0.51
6896.00,0.51
6895.00,0.51
6894.00,0.51
6893.00,0.51
6892.00,0.51
6891.00,0.51
6890.00,0.51
6889.00,0.51
6888.00,0.51
6887.00,0.51
6886.00,0.51
6885.00,0.51
6884.00,0.51
6883.00,0.51
6882.00,0.51
6881.00,0.51
6880.00,0.51
6879.00,0.51
6878.00,0.51
6877.00,0.51
6876.00,0.51
6875.00,0.51
6874.00,0.51
6873.00,0.51
6872.00,0.51
6871.00,0.51
6870.00,0.51
6869.00,0.51
6868.00,0.51
6867.00,0.51
6866.00,0.51
6865.00,0.51
6864.00,0.51
6863.00,0.51
6862.00,0.51
6861.00,0.51
6860.00,0.51
6859.00,0.51
6858.00,0.51
6857.00,0.51
6856.00,0.51
6855.00,0.51
6854.00,0.51
6853.00,0.51
6852.00,0.51
6851.00,0.51
6850.00,0.51
6849.00,0.51
6848.00,0.51
6847.00,0.51
6846.00,0.51
6845.00,0.51
6844.00,0.51
6843.00,0.51
6842.00,0.51
6841.00,0.51
6840.00,0.51
6839.00,0.51
6838.00,0.51
6837.00,0.51
6836.00,0.51
6835.00,0.51
6834.00,0.51
6833.00,0.51
6832.00,0.51
6831.00,0.51
6830.00,0.51
6829.00,0.51
6828.00,0.51
6827.00,0.51
6826.00,0.51
6825.00,0.51
6824.00,0.51
6823.00,0.51
6822.00,0.51
6821.00,0.52
6820.00,0.52
6819.00,0.52
6818.00,0.52
6817.00,0.52
6816.00,0.52
6815.00,0.52
6814.00,0.52
6813.00,0.52
6812.00,0.52
6811.00,0.52
6810.00,0.52
6809.00,0.52
6808.00,0.52
6807.00,0.52
6806.00,0.52
6805.00,0.52
6804.00,0.52
6803.00,0.52
6802.00,0.52
6801.00,0.52
6800.00,0.52
6799.00,0.52
6798.00,0.52
6797.00,0.52
6796.00,0.52
6795.00,0.52
6794.00,0.52
6793.00,0.52
6792.00,0.52
6791.00,0.52
6790.00,0.52
6789.00,0.52
6788.00,0.52
6787.00,0.52
6786.00,0.52
6785.00,0.52
6784.00,0.53
6783.00,0.53
6782.00,0.53
6781.00,0.53
6780.00,0.53
6779.00,0.53
6778.00,0.53
6777.00,0.53
6776.00,0.53
6775.00,0.53
6774.00,0.53
6773.00,0.53
6772.00,0.53
6771.00,0.53
6770.00,0.53
6769.00,0.53
6768.00,0.53
6767.00,0.53
6766.00,0.53
6765.00,0.53
6764.00,0.53
6763.00,0.53
6762.00,0.53
6761.00,0.53
6760.00,0.53
6759.00,0.53
6758.00,0.53
6757.00,0.54
6756.00,0.54
6755.00,0.54
6754.00,0.54
6753.00,0.54
6752.00,0.54
6751.00,0.54
6750.00,0.54
6749.00,0.54
6748.00,0.54
6747.00,0.54
6746.00,0.54
6745.00,0.54
6744.00,0.54
6743.00,0.55
6742.00,0.55
6741.00,0.55
6740.00,0.55
6739.00,0.55
6738.00,0.55
6737.00,0.55
6736.00,0.55
6735.00,0.55
6734.00,0.55
6733.00,0.55
6732.00,0.55
6731.00,0.55
6730.00,0.55
6729.00,0.55
6728.00,0.56
6727.00,0.56
6726.00,0.56
6725.00,0.56
6724.00,0.56
6723.00,0.56
6722.00,0.56
6721.00,0.56
6720.00,0.56
6719.00,0.56
6718.00,0.56
6717.00,0.56
6716.00,0.56
6715.00,0.56
6714.00,0.57
6713.00,0.57
6712.00,0.57
6711.00,0.57
6710.00,0.57
6709.00,0.57
6708.00,0.57
6707.00,0.57
6706.00,0.57
6705.00,0.57
6704.00,0.57
6703.00,0.57
6702.00,0.57
6701.00,0.57
6700.00,0.57
6699.00,0.57
6698.00,0.57
6697.00,0.57
6696.00,0.57
6695.00,0.57
6694.00,0.57
6693.00,0.58
6692.00,0.58
6691.00,0.58
6690.00,0.58
6689.00,0.58
6688.00,0.58
6687.00,0.58
6686.00,0.58
6685.00,0.58
6684.00,0.58
6683.00,0.59
6682.00,0.59
6681.00,0.59
6680.00,0.59
6679.00,0.59
6678.00,0.59
6677.00,0.59
6676.00,0.59
6675.00,0.59
6674.00,0.60
6673.00,0.60
6672.00,0.60
6671.00,0.60
6670.00,0.60
6669.00,0.60
6668.00,0.60
6667.00,0.60
6666.00,0.60
6665.00,0.60
6664.00,0.60
6663.00,0.60
6662.00,0.60
6661.00,0.60
6660.00,0.60
6659.00,0.61
6658.00,0.61
6657.00,0.61
6656.00,0.61
6655.00,0.61
6654.00,0.61
6653.00,0.61
6652.00,0.61
6651.00,0.61
6650.00,0.61
6649.00,0.62
6648.00,0.62
6647.00,0.62
6646.00,0.62
6645.00,0.62
6644.00,0.62
6643.00,0.62
6642.00,0.62
6641.00,0.62
6640.00,0.62
6639.00,0.62
6638.00,0.62
6637.00,0.62
6636.00,0.62
6635.00,0.62
6634.00,0.62
6633.00,0.62
6632.00,0.62
6631.00,0.62
6630.00,0.62
6629.00,0.62
6628.00,0.62
6627.00,0.62
6626.00,0.62
6625.00,0.62
6624.00,0.62
6623.00,0.63
6622.00,0.63
6621.00,0.63
6620.00,0.63
6619.00,0.63
6618.00,0.63
6617.00,0.63
6616.00,0.63
6615.00,0.63
6614.00,0.63
6613.00,0.64
6612.00,0.64
6611.00,0.64
6610.00,0.64
6609.00,0.64
6608.00,0.64
6607.00,0.64
6606.00,0.64
6605.00,0.65
6604.00,0.65
6603.00,0.65
6602.00,0.65
6601.00,0.65
6600.00,0.65
6599.00,0.65
6598.00,0.65
6597.00,0.65
6596.00,0.66
6595.00,0.66
6594.00,0.66
6593.00,0.66
6592.00,0.66
6591.00,0.66
6590.00,0.66
6589.00,0.66
6588.00,0.66
6587.00,0.66
6586.00,0.66
6585.00,0.66
6584.00,0.66
6583.00,0.66
6582.00,0.66
6581.00,0.66
6580.00,0.66
6579.00,0.66
6578.00,0.66
6577.00,0.66
6576.00,0.67
6575.00,0.67
6574.00,0.67
6573.00,0.67
6572.00,0.67
6571.00,0.67
6570.00,0.67
6569.00,0.67
6568.00,0.67
6567.00,0.68
6566.00,0.68
6565.00,0.68
6564.00,0.68
6563.00,0.68
6562.00,0.68
6561.00,0.68
6560.00,0.68
6559.00,0.69
6558.00,0.69
6557.00,0.69
6556.00,0.69
6555.00,0.69
6554.00,0.69
6553.00,0.69
6552.00,0.69
6551.00,0.69
6550.00,0.69
6549.00,0.69
6548.00,0.69
6547.00,0.69
6546.00,0.69
6545.00,0.69
6544.00,0.69
6543.00,0.69
6542.00,0.69
6541.00,0.69
6540.00,0.69
6539.00,0.69
6538.00,0.70
6537.00,0.70
6536.00,0.70
6535.00,0.70
6534.00,0.70
6533.00,0.70
6532.00,0.70
6531.00,0.70
6530.00,0.70
6529.00,0.70
6528.00,0.70
6527.00,0.70
6526.00,0.71
6525.00,0.71
6524.00,0.71
6523.00,0.71
6522.00,0.71
6521.00,0.71
6520.00,0.71
6519.00,0.71
6518.00,0.71
6517.00,0.71
6516.00,0.71
6515.00,0.71
6514.00,0.72
6513.00,0.72
6512.00,0.72
6511.00,0.72
6510.00,0.72
6509.00,0.72
6508.00,0.72
6507.00,0.72
6506.00,0.72
6505.00,0.72
6504.00,0.72
6503.00,0.72
6502.00,0.72
6501.00,0.72
6500.00,0.72
6499.00,0.72
6498.00,0.72
6497.00,0.72
6496.00,0.72
6495.00,0.72
6494.00,0.72
6493.00,0.72
6492.00,0.72
6491.00,0.72
6490.00,0.72
6489.00,0.72
6488.00,0.72
6487.00,0.72
6486.00,0.72
6485.00,0.72
6484.00,0.73
6483.00,0.73
6482.00,0.73
6481.00,0.73
6480.00,0.73
6479.00,0.73
6478.00,0.73
6477.00,0.73
6476.00,0.73
6475.00,0.73
6474.00,0.73
6473.00,0.73
6472.00,0.73
6471.00,0.73
6470.00,0.74
6469.00,0.74
6468.00,0.74
6467.00,0.74
6466.00,0.74
6465.00,0.74
6464.00,0.74
6463.00,0.74
6462.00,0.74
6461.00,0.74
6460.00,0.74
6459.00,0.74
6458.00,0.75
6457.00,0.75
6456.00,0.75
6455.00,0.75
6454.00,0.75
6453.00,0.75
6452.00,0.75
6451.00,0.75
6450.00,0.75
6449.00,0.75
6448.00,0.75
6447.00,0.75
6446.00,0.75
6445.00,0.75
6444.00,0.75
6443.00,0.75
6442.00,0.75
6441.00,0.75
6440.00,0.75
6439.00,0.75
6438.00,0.76
6437.00,0.76
6436.00,0.76
6435.00,0.76
6434.00,0.76
6433.00,0.76
6432.00,0.76
6431.00,0.76
6430.00,0.76
6429.00,0.76
6428.00,0.76
6427.00,0.76
6426.00,0.76
6425.00,0.76
6424.00,0.76
6423.00,0.76
6422.00,0.76
6421.00,0.76
6420.00,0.76
6419.00,0.76
6418.00,0.76
6417.00,0.76
6416.00,0.76
6415.00,0.76
6414.00,0.76
6413.00,0.76
6412.00,0.76
6411.00,0.76
6410.00,0.76
6409.00,0.76
6408.00,0.76
6407.00,0.76
6406.00,0.76
6405.00,0.76
6404.00,0.76
6403.00,0.76
6402.00,0.76
6401.00,0.76
6400.00,0.76
6399.00,0.76
6398.00,0.76
6397.00,0.77
6396.00,0.77
6395.00,0.77
6394.00,0.77
6393.00,0.77
6392.00,0.77
6391.00,0.77
6390.00,0.77
6389.00,0.77
6388.00,0.77
6387.00,0.77
6386.00,0.77
6385.00,0.77
6384.00,0.77
6383.00,0.77
6382.00,0.77
6381.00,0.78
6380.00,0.78
6379.00,0.78
6378.00,0.78
6377.00,0.78
6376.00,0.78
6375.00,0.78
6374.00,0.78
6373.00,0.78
6372.00,0.78
6371.00,0.78
6370.00,0.78
6369.00,0.78
6368.00,0.79
6367.00,0.79
6366.00,0.79
6365.00,0.79
6364.00,0.79
6363.00,0.79
6362.00,0.79
6361.00,0.79
6360.00,0.79
6359.00,0.79
6358.00,0.79
6357.00,0.79
6356.00,0.79
6355.00,0.79
6354.00,0.79
6353.00,0.79
6352.00,0.80
6351.00,0.80
6350.00,0.80
6349.00,0.80
6348.00,0.80
6347.00,0.80
6346.00,0.80
6345.00,0.80
6344.00,0.80
6343.00,0.80
6342.00,0.80
6341.00,0.80
6340.00,0.81
6339.00,0.81
6338.00,0.81
6337.00,0.81
6336.00,0.81
6335.00,0.81
6334.00,0.81
6333.00,0.81
6332.00,0.81
6331.00,0.81
6330.00,0.81
6329.00,0.81
6328.00,0.81
6327.00,0.81
6326.00,0.81
6325.00,0.81
6324.00,0.81
6323.00,0.81
6322.00,0.82
6321.00,0.82
6320.00,0.82
6319.00,0.82
6318.00,0.82
6317.00,0.82
6316.00,0.82
6315.00,0.82
6314.00,0.82
6313.00,0.82
6312.00,0.83
6311.00,0.83
6310.00,0.83
6309.00,0.83
6308.00,0.83
6307.00,0.83
6306.00,0.83
6305.00,0.83
6304.00,0.83
6303.00,0.83
6302.00,0.83
6301.00,0.83
6300.00,0.83
6299.00,0.83
6298.00,0.83
6297.00,0.83
6296.00,0.83
6295.00,0.84
6294.00,0.84
6293.00,0.84
6292.00,0.84
6291.00,0.84
6290.00,0.84
6289.00,0.84
6288.00,0.84
6287.00,0.84
6286.00,0.85
6285.00,0.85
6284.00,0.85
6283.00,0.85
6282.00,0.85
6281.00,0.85
6280.00,0.85
6279.00,0.85
6278.00,0.85
6277.00,0.85
6276.00,0.85
6275.00,0.86
6274.00,0.86
6273.00,0.86
6272.00,0.86
6271.00,0.86
6270.00,0.86
6269.00,0.86
6268.00,0.86
6267.00,0.86
6266.00,0.86
6265.00,0.86
6264.00,0.86
6263.00,0.87
6262.00,0.87
6261.00,0.87
6260.00,0.87
6259.00,0.87
6258.00,0.87
6257.00,0.87
6256.00,0.87
6255.00,0.87
6254.00,0.87
6253.00,0.87
6252.00,0.87
6251.00,0.88
6250.00,0.88
6249.00,0.88
6248.00,0.88
6247.00,0.88
6246.00,0.88
6245.00,0.88
6244.00,0.88
6243.00,0.88
6242.00,0.88
6241.00,0.88
6240.00,0.89
6239.00,0.89
6238.00,0.89
6237.00,0.89
6236.00,0.89
6235.00,0.89
6234.00,0.89
6233.00,0.89
6232.00,0.89
6231.00,0.90
6230.00,0.90
6229.00,0.90
6228.00,0.90
6227.00,0.90
6226.00,0.90
6225.00,0.90
6224.00,0.91
6223.00,0.91
6222.00,0.91
6221.00,0.91
6220.00,0.91
6219.00,0.91
6218.00,0.91
6217.00,0.92
6216.00,0.92
6215.00,0.92
6214.00,0.92
6213.00,0.92
6212.00,0.92
6211.00,0.92
6210.00,0.92
6209.00,0.92
6208.00,0.92
6207.00,0.92
6206.00,0.92
6205.00,0.92
6204.00,0.92
6203.00,0.92
6202.00,0.92
6201.00,0.93
6200.00,0.93
6199.00,0.93
6198.00,0.93
6197.00,0.93
6196.00,0.93
6195.00,0.93
6194.00,0.93
6193.00,0.93
6192.00,0.93
6191.00,0.94
6190.00,0.94
6189.00,0.94
6188.00,0.94
6187.00,0.94
6186.00,0.94
6185.00,0.94
6184.00,0.94
6183.00,0.95
6182.00,0.95
6181.00,0.95
6180.00,0.95
6179.00,0.95
6178.00,0.95
6177.00,0.95
6176.00,0.95
6175.00,0.95
6174.00,0.95
6173.00,0.96
6172.00,0.96
6171.00,0.96
6170.00,0.96
6169.00,0.96
6168.00,0.96
6167.00,0.96
6166.00,0.96
6165.00,0.97
6164.00,0.97
6163.00,0.97
6162.00,0.97
6161.00,0.97
6160.00,0.97
6159.00,0.97
6158.00,0.97
6157.00,0.97
6156.00,0.98
6155.00,0.98
6154.00,0.98
6153.00,0.98
6152.00,0.98
6151.00,0.98
6150.00,0.98
6149.00,0.98
6148.00,0.98
6147.00,0.98
6146.00,0.99
6145.00,0.99
6144.00,0.99
6143.00,0.99
6142.00,0.99
6141.00,0.99
6140.00,0.99
6139.00,0.99
6138.00,0.99
6137.00,0.99
6136.00,0.99
6135.00,0.99
6134.00,0.99
6133.00,0.99
6132.00,1.00
6131.00,1.00
6130.00,1.00
6129.00,1.00
6128.00,1.00
6127.00,1.00
6126.00,1.00
6125.00,1.00
6124.00,1.00
6123.00,1.00
6122.00,1.01
6121.00,1.01
6120.00,1.01
6119.00,1.01
6118.00,1.01
6117.00,1.01
6116.00,1.01
6115.00,1.02
6114.00,1.02
6113.00,1.02
6112.00,1.02
6111.00,1.02
6110.00,1.02
6109.00,1.03
6108.00,1.03
6107.00,1.03
6106.00,1.03
6105.00,1.03
6104.00,1.03
6103.00,1.03
6102.00,1.03
6101.00,1.04
6100.00,1.04
6099.00,1.04
6098.00,1.04
6097.00,1.04
6096.00,1.04
6095.00,1.04
6094.00,1.04
6093.00,1.04
6092.00,1.05
6091.00,1.05
6090.00,1.05
6089.00,1.05
6088.00,1.05
6087.00,1.05
6086.00,1.05
6085.00,1.05
6084.00,1.05
6083.00,1.05
6082.00,1.05
6081.00,1.06
6080.00,1.06
6079.00,1.06
6078.00,1.06
6077.00,1.06
6076.00,1.06
6075.00,1.06
6074.00,1.06
6073.00,1.06
6072.00,1.06
6071.00,1.06
6070.00,1.06
6069.00,1.06
6068.00,1.06
6067.00,1.07
6066.00,1.07
6065.00,1.07
6064.00,1.07
6063.00,1.07
6062.00,1.07
6061.00,1.07
6060.00,1.07
6059.00,1.07
6058.00,1.07
6057.00,1.07
6056.00,1.07
6055.00,1.08
6054.00,1.08
6053.00,1.08
6052.00,1.08
6051.00,1.08
6050.00,1.08
6049.00,1.08
6048.00,1.08
6047.00,1.08
6046.00,1.08
6045.00,1.08
6044.00,1.08
6043.00,1.08
6042.00,1.08
6041.00,1.08
6040.00,1.09
6039.00,1.09
6038.00,1.09
6037.00,1.09
6036.00,1.09
6035.00,1.09
6034.00,1.09
6033.00,1.09
6032.00,1.09
6031.00,1.09
6030.00,1.09
6029.00,1.09
6028.00,1.09
6027.00,1.09
6026.00,1.09
6025.00,1.09
6024.00,1.09
6023.00,1.09
6022.00,1.09
6021.00,1.09
6020.00,1.09
6019.00,1.09
6018.00,1.09
6017.00,1.09
6016.00,1.09
6015.00,1.09
6014.00,1.09
6013.00,1.09
6012.00,1.09
6011.00,1.09
6010.00,1.09
6009.00,1.09
6008.00,1.09
6007.00,1.09
6006.00,1.09
6005.00,1.09
6004.00,1.09
6003.00,1.09
6002.00,1.09
6001.00,1.09
6000.00,1.09
5999.00,1.09
5998.00,1.09
5997.00,1.09
5996.00,1.08
5995.00,1.08
5994.00,1.08
5993.00,1.08
5992.00,1.08
5991.00,1.08
5990.00,1.08
5989.00,1.08
5988.00,1.07
5987.00,1.07
5986.00,1.07
5985.00,1.07
5984.00,1.07
5983.00,1.06
5982.00,1.06
5981.00,1.06
5980.00,1.06
5979.00,1.05
5978.00,1.05
5977.00,1.05
5976.00,1.04
5975.00,1.04
5974.00,1.04
5973.00,1.03
5972.00,1.03
5971.00,1.03
5970.00,1.02
5969.00,1.02
5968.00,1.01
5967.00,1.01
5966.00,1.00
5965.00,1.00
5964.00,0.99
5963.00,0.99
5962.00,0.98
5961.00,0.98
5960.00,0.97
5959.00,0.97
5958.00,0.96
5957.00,0.96
5956.00,0.95
5955.00,0.95
5954.00,0.94
5953.00,0.94
5952.00,0.93
5951.00,0.93
5950.00,0.92
5949.00,0.92
5948.00,0.91
5947.00,0.91
5946.00,0.91
5945.00,0.90
5944.00,0.90
5943.00,0.90
5942.00,0.90
5941.00,0.90
5940.00,0.89
5939.00,0.89
5938.00,0.89
5937.00,0.89
5936.00,0.89
5935.00,0.89
5934.00,0.89
5933.00,0.89
5932.00,0.89
5931.00,0.89
5930.00,0.89
5929.00,0.89
5928.00,0.89
5927.00,0.88
5926.00,0.88
5925.00,0.88
5924.00,0.88
5923.00,0.88
5922.00,0.88
5921.00,0.88
5920.00,0.87
5919.00,0.87
5918.00,0.87
5917.00,0.87
5916.00,0.86
5915.00,0.86
5914.00,0.86
5913.00,0.86
5912.00,0.86
5911.00,0.85
5910.00,0.85
5909.00,0.85
5908.00,0.85
5907.00,0.85
5906.00,0.85
5905.00,0.84
5904.00,0.84
5903.00,0.84
5902.00,0.84
5901.00,0.84
5900.00,0.84
5899.00,0.84
5898.00,0.85
5897.00,0.85
5896.00,0.85
5895.00,0.85
5894.00,0.85
5893.00,0.85
5892.00,0.86
5891.00,0.86
5890.00,0.86
5889.00,0.86
5888.00,0.87
5887.00,0.87
5886.00,0.87
5885.00,0.87
5884.00,0.88
5883.00,0.88
5882.00,0.88
5881.00,0.88
5880.00,0.89
5879.00,0.89
5878.00,0.89
5877.00,0.89
5876.00,0.89
5875.00,0.90
5874.00,0.90
5873.00,0.90
5872.00,0.90
5871.00,0.90
5870.00,0.90
5869.00,0.91
5868.00,0.91
5867.00,0.91
5866.00,0.91
5865.00,0.91
5864.00,0.91
5863.00,0.91
5862.00,0.91
5861.00,0.91
5860.00,0.92
5859.00,0.92
5858.00,0.92
5857.00,0.92
5856.00,0.92
5855.00,0.92
5854.00,0.92
5853.00,0.92
5852.00,0.92
5851.00,0.92
5850.00,0.92
5849.00,0.92
5848.00,0.93
5847.00,0.93
5846.00,0.93
5845.00,0.93
5844.00,0.93
5843.00,0.93
5842.00,0.93
5841.00,0.93
5840.00,0.93
5839.00,0.93
5838.00,0.93
5837.00,0.93
5836.00,0.93
5835.00,0.92
5834.00,0.92
5833.00,0.92
5832.00,0.92
5831.00,0.92
5830.00,0.92
5829.00,0.92
5828.00,0.92
5827.00,0.92
5826.00,0.92
5825.00,0.92
5824.00,0.92
5823.00,0.92
5822.00,0.92
5821.00,0.92
5820.00,0.92
5819.00,0.92
5818.00,0.92
5817.00,0.92
5816.00,0.92
5815.00,0.92
5814.00,0.92
5813.00,0.92
5812.00,0.92
5811.00,0.92
5810.00,0.92
5809.00,0.92
5808.00,0.93
5807.00,0.93
5806.00,0.93
5805.00,0.93
5804.00,0.93
5803.00,0.92
5802.00,0.92
5801.00,0.92
5800.00,0.92
5799.00,0.92
5798.00,0.92
5797.00,0.92
5796.00,0.92
5795.00,0.92
5794.00,0.92
5793.00,0.91
5792.00,0.91
5791.00,0.91
5790.00,0.91
5789.00,0.91
5788.00,0.90
5787.00,0.90
5786.00,0.90
5785.00,0.90
5784.00,0.90
5783.00,0.89
5782.00,0.89
5781.00,0.89
5780.00,0.89
5779.00,0.89
5778.00,0.89
5777.00,0.88
5776.00,0.88
5775.00,0.88
5774.00,0.88
5773.00,0.88
5772.00,0.88
5771.00,0.88
5770.00,0.88
5769.00,0.88
5768.00,0.88
5767.00,0.88
5766.00,0.88
5765.00,0.89
5764.00,0.89
5763.00,0.89
5762.00,0.89
5761.00,0.89
5760.00,0.89
5759.00,0.90
5758.00,0.90
5757.00,0.90
5756.00,0.91
5755.00,0.91
5754.00,0.91
5753.00,0.91
5752.00,0.92
5751.00,0.92
5750.00,0.92
5749.00,0.93
5748.00,0.93
5747.00,0.93
5746.00,0.93
5745.00,0.94
5744.00,0.94
5743.00,0.94
5742.00,0.94
5741.00,0.95
5740.00,0.95
5739.00,0.95
5738.00,0.95
5737.00,0.95
5736.00,0.96
5735.00,0.96
5734.00,0.96
5733.00,0.96
5732.00,0.96
5731.00,0.96
5730.00,0.96
5729.00,0.96
5728.00,0.96
5727.00,0.96
5726.00,0.96
5725.00,0.96
5724.00,0.96
5723.00,0.97
5722.00,0.97
5721.00,0.97
5720.00,0.97
5719.00,0.97
5718.00,0.97
5717.00,0.97
5716.00,0.97
5715.00,0.97
5714.00,0.97
5713.00,0.97
5712.00,0.97
5711.00,0.97
5710.00,0.97
5709.00,0.97
5708.00,0.97
5707.00,0.97
5706.00,0.97
5705.00,0.96
5704.00,0.96
5703.00,0.96
5702.00,0.96
5701.00,0.96
5700.00,0.96
5699.00,0.96
5698.00,0.96
5697.00,0.96
5696.00,0.96
5695.00,0.95
5694.00,0.95
5693.00,0.95
5692.00,0.95
5691.00,0.95
5690.00,0.95
5689.00,0.94
5688.00,0.94
5687.00,0.94
5686.00,0.94
5685.00,0.94
5684.00,0.94
5683.00,0.94
5682.00,0.94
5681.00,0.93
5680.00,0.93
5679.00,0.93
5678.00,0.93
5677.00,0.93
5676.00,0.93
5675.00,0.93
5674.00,0.93
5673.00,0.93
5672.00,0.93
5671.00,0.93
5670.00,0.93
5669.00,0.93
5668.00,0.94
5667.00,0.94
5666.00,0.94
5665.00,0.94
5664.00,0.94
5663.00,0.94
5662.00,0.94
5661.00,0.94
5660.00,0.94
5659.00,0.94
5658.00,0.95
5657.00,0.95
5656.00,0.95
5655.00,0.95
5654.00,0.95
5653.00,0.95
5652.00,0.95
5651.00,0.96
5650.00,0.96
5649.00,0.96
5648.00,0.96
5647.00,0.96
5646.00,0.96
5645.00,0.96
5644.00,0.97
5643.00,0.97
5642.00,0.97
5641.00,0.97
5640.00,0.97
5639.00,0.97
5638.00,0.98
5637.00,0.98
5636.00,0.98
5635.00,0.98
5634.00,0.98
5633.00,0.98
5632.00,0.98
5631.00,0.98
5630.00,0.99
5629.00,0.99
5628.00,0.99
5627.00,0.99
5626.00,0.99
5625.00,0.99
5624.00,0.99
5623.00,0.99
5622.00,0.99
5621.00,1.00
5620.00,1.00
5619.00,1.00
5618.00,1.00
5617.00,1.00
5616.00,1.00
5615.00,1.00
5614.00,1.00
5613.00,1.00
5612.00,1.01
5611.00,1.01
5610.00,1.01
5609.00,1.01
5608.00,1.01
5607.00,1.01
5606.00,1.01
5605.00,1.02
5604.00,1.02
5603.00,1.02
5602.00,1.02
5601.00,1.02
5600.00,1.02
5599.00,1.02
5598.00,1.03
5597.00,1.03
5596.00,1.03
5595.00,1.03
5594.00,1.03
5593.00,1.03
5592.00,1.03
5591.00,1.03
5590.00,1.04
5589.00,1.04
5588.00,1.04
5587.00,1.04
5586.00,1.04
5585.00,1.04
5584.00,1.04
5583.00,1.04
5582.00,1.04
5581.00,1.05
5580.00,1.05
5579.00,1.05
5578.00,1.05
5577.00,1.05
5576.00,1.05
5575.00,1.05
5574.00,1.05
5573.00,1.05
5572.00,1.05
5571.00,1.06
5570.00,1.06
5569.00,1.06
5568.00,1.06
5567.00,1.06
5566.00,1.06
5565.00,1.06
5564.00,1.06
5563.00,1.06
5562.00,1.06
5561.00,1.06
5560.00,1.06
5559.00,1.06
5558.00,1.07
5557.00,1.07
5556.00,1.07
5555.00,1.07
5554.00,1.07
5553.00,1.07
5552.00,1.07
5551.00,1.07
5550.00,1.07
5549.00,1.08
5548.00,1.08
5547.00,1.08
5546.00,1.08
5545.00,1.08
5544.00,1.08
5543.00,1.08
5542.00,1.08
5541.00,1.09
5540.00,1.09
5539.00,1.09
5538.00,1.09
5537.00,1.09
5536.00,1.09
5535.00,1.09
5534.00,1.09
5533.00,1.09
5532.00,1.09
5531.00,1.09
5530.00,1.10
5529.00,1.10
5528.00,1.10
5527.00,1.10
5526.00,1.10
5525.00,1.10
5524.00,1.10
5523.00,1.10
5522.00,1.10
5521.00,1.10
5520.00,1.10
5519.00,1.10
5518.00,1.10
5517.00,1.10
5516.00,1.10
5515.00,1.10
5514.00,1.10
5513.00,1.10
5512.00,1.10
5511.00,1.10
5510.00,1.10
5509.00,1.10
5508.00,1.10
5507.00,1.10
5506.00,1.10
5505.00,1.10
5504.00,1.10
5503.00,1.10
5502.00,1.10
5501.00,1.10
5500.00,1.10
5499.00,1.10
5498.00,1.11
5497.00,1.11
5496.00,1.11
5495.00,1.11
5494.00,1.11
5493.00,1.11
5492.00,1.11
5491.00,1.11
5490.00,1.11
5489.00,1.11
5488.00,1.11
5487.00,1.11
5486.00,1.12
5485.00,1.12
5484.00,1.12
5483.00,1.12
5482.00,1.12
5481.00,1.12
5480.00,1.12
5479.00,1.12
5478.00,1.12
5477.00,1.12
5476.00,1.12
5475.00,1.13
5474.00,1.13
5473.00,1.13
5472.00,1.13
5471.00,1.13
5470.00,1.13
5469.00,1.13
5468.00,1.13
5467.00,1.13
5466.00,1.13
5465.00,1.13
5464.00,1.14
5463.00,1.14
5462.00,1.14
5461.00,1.14
5460.00,1.14
5459.00,1.14
5458.00,1.14
5457.00,1.14
5456.00,1.14
5455.00,1.14
5454.00,1.14
5453.00,1.14
5452.00,1.14
5451.00,1.14
5450.00,1.14
5449.00,1.14
5448.00,1.14
5447.00,1.14
5446.00,1.14
5445.00,1.14
5444.00,1.14
5443.00,1.14
5442.00,1.14
5441.00,1.14
5440.00,1.14
5439.00,1.14
5438.00,1.14
5437.00,1.14
5436.00,1.14
5435.00,1.14
5434.00,1.14
5433.00,1.14
5432.00,1.14
5431.00,1.14
5430.00,1.14
5429.00,1.15
5428.00,1.15
5427.00,1.15
5426.00,1.15
5425.00,1.15
5424.00,1.15
5423.00,1.15
5422.00,1.15
5421.00,1.15
5420.00,1.15
5419.00,1.15
5418.00,1.15
5417.00,1.14
5416.00,1.14
5415.00,1.14
5414.00,1.14
5413.00,1.14
5412.00,1.14
5411.00,1.14
5410.00,1.14
5409.00,1.14
5408.00,1.14
5407.00,1.14
5406.00,1.14
5405.00,1.14
5404.00,1.14
5403.00,1.15
5402.00,1.15
5401.00,1.15
5400.00,1.15
5399.00,1.14
5398.00,1.14
5397.00,1.14
5396.00,1.14
5395.00,1.14
5394.00,1.14
5393.00,1.14
5392.00,1.14
5391.00,1.14
5390.00,1.14
5389.00,1.14
5388.00,1.13
5387.00,1.13
5386.00,1.13
5385.00,1.13
5384.00,1.13
5383.00,1.12
5382.00,1.12
5381.00,1.12
5380.00,1.12
5379.00,1.11
5378.00,1.11
5377.00,1.11
5376.00,1.10
5375.00,1.10
5374.00,1.10
5373.00,1.09
5372.00,1.09
5371.00,1.09
5370.00,1.08
5369.00,1.08
5368.00,1.08
5367.00,1.07
5366.00,1.07
5365.00,1.06
5364.00,1.06
5363.00,1.05
5362.00,1.05
5361.00,1.04
5360.00,1.04
5359.00,1.03
5358.00,1.03
5357.00,1.02
5356.00,1.02
5355.00,1.01
5354.00,1.00
5353.00,1.00
5352.00,0.99
5351.00,0.98
5350.00,0.98
5349.00,0.97
5348.00,0.96
5347.00,0.96
5346.00,0.95
5345.00,0.94
5344.00,0.93
5343.00,0.93
5342.00,0.92
5341.00,0.91
5340.00,0.91
5339.00,0.90
5338.00,0.89
5337.00,0.88
5336.00,0.88
5335.00,0.87
5334.00,0.86
5333.00,0.85
5332.00,0.84
5331.00,0.83
5330.00,0.83
5329.00,0.82
5328.00,0.81
5327.00,0.80
5326.00,0.79
5325.00,0.78
5324.00,0.78
5323.00,0.77
5322.00,0.76
5321.00,0.75
5320.00,0.74
5319.00,0.73
5318.00,0.73
5317.00,0.72
5316.00,0.71
5315.00,0.70
5314.00,0.70
5313.00,0.69
5312.00,0.68
5311.00,0.67
5310.00,0.67
5309.00,0.66
5308.00,0.65
5307.00,0.65
5306.00,0.64
5305.00,0.64
5304.00,0.63
5303.00,0.63
5302.00,0.62
5301.00,0.62
5300.00,0.61
5299.00,0.61
5298.00,0.60
5297.00,0.60
5296.00,0.60
5295.00,0.59
5294.00,0.59
5293.00,0.59
5292.00,0.58
5291.00,0.58
5290.00,0.58
5289.00,0.58
5288.00,0.57
5287.00,0.57
5286.00,0.57
5285.00,0.57
5284.00,0.57
5283.00,0.56
5282.00,0.56
5281.00,0.56
5280.00,0.56
5279.00,0.56
5278.00,0.56
5277.00,0.56
5276.00,0.56
5275.00,0.56
5274.00,0.55
5273.00,0.55
5272.00,0.55
5271.00,0.55
5270.00,0.55
5269.00,0.55
5268.00,0.55
5267.00,0.55
5266.00,0.55
5265.00,0.55
5264.00,0.55
5263.00,0.55
5262.00,0.55
5261.00,0.54
5260.00,0.54
5259.00,0.54
5258.00,0.54
5257.00,0.54
5256.00,0.54
5255.00,0.54
5254.00,0.54
5253.00,0.54
5252.00,0.54
5251.00,0.54
5250.00,0.54
5249.00,0.54
5248.00,0.54
5247.00,0.54
5246.00,0.54
5245.00,0.54
5244.00,0.54
5243.00,0.54
5242.00,0.54
5241.00,0.54
5240.00,0.54
5239.00,0.54
5238.00,0.54
5237.00,0.54
5236.00,0.54
5235.00,0.54
5234.00,0.54
5233.00,0.54
5232.00,0.54
5231.00,0.54
5230.00,0.54
5229.00,0.54
5228.00,0.54
5227.00,0.54
5226.00,0.54
5225.00,0.55
5224.00,0.55
5223.00,0.55
5222.00,0.55
5221.00,0.55
5220.00,0.55
5219.00,0.55
5218.00,0.55
5217.00,0.55
5216.00,0.55
5215.00,0.55
5214.00,0.55
5213.00,0.55
5212.00,0.55
5211.00,0.55
5210.00,0.55
5209.00,0.55
5208.00,0.55
5207.00,0.55
5206.00,0.55
5205.00,0.55
5204.00,0.55
5203.00,0.55
5202.00,0.55
5201.00,0.55
5200.00,0.55
5199.00,0.55
5198.00,0.55
5197.00,0.55
5196.00,0.56
5195.00,0.56
5194.00,0.56
5193.00,0.56
5192.00,0.56
5191.00,0.56
5190.00,0.56
5189.00,0.56
5188.00,0.56
5187.00,0.56
5186.00,0.56
5185.00,0.56
5184.00,0.56
5183.00,0.56
5182.00,0.56
5181.00,0.56
5180.00,0.56
5179.00,0.56
5178.00,0.56
5177.00,0.56
5176.00,0.56
5175.00,0.56
5174.00,0.56
5173.00,0.56
5172.00,0.56
5171.00,0.56
5170.00,0.56
5169.00,0.56
5168.00,0.56
5167.00,0.56
5166.00,0.56
5165.00,0.56
5164.00,0.56
5163.00,0.56
5162.00,0.56
5161.00,0.56
5160.00,0.56
5159.00,0.56
5158.00,0.56
5157.00,0.56
5156.00,0.56
5155.00,0.56
5154.00,0.56
5153.00,0.56
5152.00,0.56
5151.00,0.56
5150.00,0.57
5149.00,0.57
5148.00,0.57
5147.00,0.57
5146.00,0.57
5145.00,0.57
5144.00,0.57
5143.00,0.57
5142.00,0.57
5141.00,0.57
5140.00,0.57
5139.00,0.57
5138.00,0.57
5137.00,0.57
5136.00,0.57
5135.00,0.57
5134.00,0.57
5133.00,0.57
5132.00,0.57
5131.00,0.57
5130.00,0.57
5129.00,0.57
5128.00,0.58
5127.00,0.58
5126.00,0.58
5125.00,0.58
5124.00,0.58
5123.00,0.58
5122.00,0.58
5121.00,0.58
5120.00,0.58
5119.00,0.58
5118.00,0.58
5117.00,0.58
5116.00,0.58
5115.00,0.58
5114.00,0.58
5113.00,0.58
5112.00,0.58
5111.00,0.58
5110.00,0.58
5109.00,0.58
5108.00,0.58
5107.00,0.58
5106.00,0.59
5105.00,0.59
5104.00,0.59
5103.00,0.59
5102.00,0.59
5101.00,0.59
5100.00,0.59
5099.00,0.59
5098.00,0.59
5097.00,0.59
5096.00,0.59
5095.00,0.59
5094.00,0.59
5093.00,0.59
5092.00,0.59
5091.00,0.59
5090.00,0.59
5089.00,0.59
5088.00,0.59
5087.00,0.60
5086.00,0.60
5085.00,0.60
5084.00,0.60
5083.00,0.60
5082.00,0.60
5081.00,0.60
5080.00,0.60
5079.00,0.60
5078.00,0.60
5077.00,0.60
5076.00,0.60
5075.00,0.60
5074.00,0.60
5073.00,0.60
5072.00,0.60
5071.00,0.60
5070.00,0.60
5069.00,0.60
5068.00,0.60
5067.00,0.60
5066.00,0.60
5065.00,0.60
5064.00,0.60
5063.00,0.60
5062.00,0.60
5061.00,0.60
5060.00,0.60
5059.00,0.60
5058.00,0.60
5057.00,0.61
5056.00,0.61
5055.00,0.61
5054.00,0.61
5053.00,0.61
5052.00,0.61
5051.00,0.61
5050.00,0.61
5049.00,0.61
5048.00,0.61
5047.00,0.61
5046.00,0.61
5045.00,0.61
5044.00,0.61
5043.00,0.61
5042.00,0.61
5041.00,0.62
5040.00,0.62
5039.00,0.62
5038.00,0.62
5037.00,0.62
5036.00,0.62
5035.00,0.62
5034.00,0.62
5033.00,0.62
5032.00,0.62
5031.00,0.62
5030.00,0.62
5029.00,0.62
5028.00,0.63
5027.00,0.63
5026.00,0.63
5025.00,0.63
5024.00,0.63
5023.00,0.63
5022.00,0.63
5021.00,0.63
5020.00,0.63
5019.00,0.63
5018.00,0.63
5017.00,0.64
5016.00,0.64
5015.00,0.64
5014.00,0.64
5013.00,0.64
5012.00,0.64
5011.00,0.64
5010.00,0.64
5009.00,0.64
5008.00,0.64
5007.00,0.64
5006.00,0.64
5005.00,0.64
5004.00,0.64
5003.00,0.64
5002.00,0.64
5001.00,0.65
5000.00,0.65
4999.00,0.65
4998.00,0.65
4997.00,0.65
4996.00,0.65
4995.00,0.65
4994.00,0.65
4993.00,0.65
4992.00,0.65
4991.00,0.65
4990.00,0.65
4989.00,0.65
4988.00,0.65
4987.00,0.65
4986.00,0.66
4985.00,0.66
4984.00,0.66
4983.00,0.66
4982.00,0.66
4981.00,0.66
4980.00,0.66
4979.00,0.66
4978.00,0.66
4977.00,0.66
4976.00,0.66
4975.00,0.67
4974.00,0.67
4973.00,0.67
4972.00,0.67
4971.00,0.67
4970.00,0.67
4969.00,0.67
4968.00,0.67
4967.00,0.68
4966.00,0.68
4965.00,0.68
4964.00,0.68
4963.00,0.68
4962.00,0.68
4961.00,0.68
4960.00,0.68
4959.00,0.68
4958.00,0.68
4957.00,0.68
4956.00,0.68
4955.00,0.68
4954.00,0.69
4953.00,0.69
4952.00,0.69
4951.00,0.69
4950.00,0.69
4949.00,0.69
4948.00,0.69
4947.00,0.69
4946.00,0.69
4945.00,0.69
4944.00,0.69
4943.00,0.69
4942.00,0.69
4941.00,0.70
4940.00,0.70
4939.00,0.70
4938.00,0.70
4937.00,0.70
4936.00,0.70
4935.00,0.70
4934.00,0.70
4933.00,0.70
4932.00,0.70
4931.00,0.70
4930.00,0.70
4929.00,0.70
4928.00,0.70
4927.00,0.70
4926.00,0.70
4925.00,0.71
4924.00,0.71
4923.00,0.71
4922.00,0.71
4921.00,0.71
4920.00,0.71
4919.00,0.71
4918.00,0.71
4917.00,0.71
4916.00,0.71
4915.00,0.71
4914.00,0.71
4913.00,0.72
4912.00,0.72
4911.00,0.72
4910.00,0.72
4909.00,0.72
4908.00,0.72
4907.00,0.72
4906.00,0.72
4905.00,0.72
4904.00,0.72
4903.00,0.72
4902.00,0.72
4901.00,0.72
4900.00,0.72
4899.00,0.72
4898.00,0.72
4897.00,0.72
4896.00,0.72
4895.00,0.72
4894.00,0.72
4893.00,0.72
4892.00,0.72
4891.00,0.72
4890.00,0.72
4889.00,0.72
4888.00,0.72
4887.00,0.72
4886.00,0.72
4885.00,0.72
4884.00,0.73
4883.00,0.73
4882.00,0.73
4881.00,0.73
4880.00,0.73
4879.00,0.73
4878.00,0.73
4877.00,0.73
4876.00,0.73
4875.00,0.73
4874.00,0.73
4873.00,0.73
4872.00,0.74
4871.00,0.74
4870.00,0.74
4869.00,0.74
4868.00,0.74
4867.00,0.74
4866.00,0.74
4865.00,0.74
4864.00,0.74
4863.00,0.74
4862.00,0.74
4861.00,0.74
4860.00,0.74
4859.00,0.74
4858.00,0.74
4857.00,0.74
4856.00,0.75
4855.00,0.75
4854.00,0.75
4853.00,0.75
4852.00,0.75
4851.00,0.75
4850.00,0.75
4849.00,0.75
4848.00,0.75
4847.00,0.75
4846.00,0.75
4845.00,0.75
4844.00,0.75
4843.00,0.75
4842.00,0.75
4841.00,0.75
4840.00,0.75
4839.00,0.75
4838.00,0.75
4837.00,0.75
4836.00,0.75
4835.00,0.76
4834.00,0.76
4833.00,0.76
4832.00,0.76
4831.00,0.76
4830.00,0.76
4829.00,0.76
4828.00,0.76
4827.00,0.76
4826.00,0.76
4825.00,0.76
4824.00,0.76
4823.00,0.77
4822.00,0.77
4821.00,0.77
4820.00,0.77
4819.00,0.77
4818.00,0.77
4817.00,0.77
4816.00,0.78
4815.00,0.78
4814.00,0.78
4813.00,0.78
4812.00,0.78
4811.00,0.78
4810.00,0.78
4809.00,0.78
4808.00,0.78
4807.00,0.78
4806.00,0.78
4805.00,0.78
4804.00,0.78
4803.00,0.78
4802.00,0.78
4801.00,0.78
4800.00,0.78
4799.00,0.78
4798.00,0.79
4797.00,0.79
4796.00,0.79
4795.00,0.79
4794.00,0.79
4793.00,0.79
4792.00,0.79
4791.00,0.79
4790.00,0.80
4789.00,0.80
4788.00,0.80
4787.00,0.80
4786.00,0.80
4785.00,0.80
4784.00,0.81
4783.00,0.81
4782.00,0.81
4781.00,0.81
4780.00,0.81
4779.00,0.81
4778.00,0.82
4777.00,0.82
4776.00,0.82
4775.00,0.82
4774.00,0.82
4773.00,0.82
4772.00,0.82
4771.00,0.82
4770.00,0.82
4769.00,0.82
4768.00,0.83
4767.00,0.83
4766.00,0.83
4765.00,0.83
4764.00,0.83
4763.00,0.83
4762.00,0.83
4761.00,0.83
4760.00,0.83
4759.00,0.83
4758.00,0.83
4757.00,0.83
4756.00,0.84
4755.00,0.84
4754.00,0.84
4753.00,0.84
4752.00,0.84
4751.00,0.84
4750.00,0.84
4749.00,0.85
4748.00,0.85
4747.00,0.85
4746.00,0.85
4745.00,0.85
4744.00,0.85
4743.00,0.86
4742.00,0.86
4741.00,0.86
4740.00,0.86
4739.00,0.86
4738.00,0.86
4737.00,0.87
4736.00,0.87
4735.00,0.87
4734.00,0.87
4733.00,0.87
4732.00,0.87
4731.00,0.87
4730.00,0.88
4729.00,0.88
4728.00,0.88
4727.00,0.88
4726.00,0.88
4725.00,0.88
4724.00,0.88
4723.00,0.88
4722.00,0.88
4721.00,0.89
4720.00,0.89
4719.00,0.89
4718.00,0.89
4717.00,0.89
4716.00,0.89
4715.00,0.90
4714.00,0.90
4713.00,0.90
4712.00,0.90
4711.00,0.90
4710.00,0.91
4709.00,0.91
4708.00,0.91
4707.00,0.91
4706.00,0.91
4705.00,0.92
4704.00,0.92
4703.00,0.92
4702.00,0.92
4701.00,0.92
4700.00,0.92
4699.00,0.93
4698.00,0.93
4697.00,0.93
4696.00,0.93
4695.00,0.93
4694.00,0.93
4693.00,0.93
4692.00,0.93
4691.00,0.93
4690.00,0.93
4689.00,0.94
4688.00,0.94
4687.00,0.94
4686.00,0.94
4685.00,0.94
4684.00,0.94
4683.00,0.94
4682.00,0.94
4681.00,0.95
4680.00,0.95
4679.00,0.95
4678.00,0.95
4677.00,0.95
4676.00,0.95
4675.00,0.95
4674.00,0.95
4673.00,0.96
4672.00,0.96
4671.00,0.96
4670.00,0.96
4669.00,0.96
4668.00,0.96
4667.00,0.96
4666.00,0.96
4665.00,0.96
4664.00,0.96
4663.00,0.97
4662.00,0.97
4661.00,0.97
4660.00,0.97
4659.00,0.97
4658.00,0.97
4657.00,0.97
4656.00,0.97
4655.00,0.98
4654.00,0.98
4653.00,0.98
4652.00,0.98
4651.00,0.98
4650.00,0.98
4649.00,0.98
4648.00,0.98
4647.00,0.99
4646.00,0.99
4645.00,0.99
4644.00,0.99
4643.00,0.99
4642.00,0.99
4641.00,0.99
4640.00,0.99
4639.00,0.99
4638.00,0.99
4637.00,0.99
4636.00,0.99
4635.00,1.00
4634.00,1.00
4633.00,1.00
4632.00,1.00
4631.00,1.00
4630.00,1.00
4629.00,1.00
4628.00,1.00
4627.00,1.00
4626.00,1.00
4625.00,1.01
4624.00,1.01
4623.00,1.01
4622.00,1.01
4621.00,1.01
4620.00,1.01
4619.00,1.01
4618.00,1.01
4617.00,1.01
4616.00,1.01
4615.00,1.01
4614.00,1.02
4613.00,1.02
4612.00,1.02
4611.00,1.02
4610.00,1.02
4609.00,1.02
4608.00,1.02
4607.00,1.02
4606.00,1.02
4605.00,1.03
4604.00,1.03
4603.00,1.03
4602.00,1.03
4601.00,1.03
4600.00,1.03
4599.00,1.03
4598.00,1.03
4597.00,1.03
4596.00,1.03
4595.00,1.03
4594.00,1.03
4593.00,1.03
4592.00,1.03
4591.00,1.03
4590.00,1.03
4589.00,1.03
4588.00,1.03
4587.00,1.03
4586.00,1.03
4585.00,1.03
4584.00,1.03
4583.00,1.03
4582.00,1.03
4581.00,1.04
4580.00,1.04
4579.00,1.04
4578.00,1.04
4577.00,1.04
4576.00,1.04
4575.00,1.04
4574.00,1.04
4573.00,1.04
4572.00,1.05
4571.00,1.05
4570.00,1.05
4569.00,1.05
4568.00,1.05
4567.00,1.05
4566.00,1.05
4565.00,1.05
4564.00,1.05
4563.00,1.06
4562.00,1.06
4561.00,1.06
4560.00,1.06
4559.00,1.06
4558.00,1.06
4557.00,1.06
4556.00,1.06
4555.00,1.06
4554.00,1.06
4553.00,1.06
4552.00,1.06
4551.00,1.06
4550.00,1.06
4549.00,1.06
4548.00,1.07
4547.00,1.07
4546.00,1.07
4545.00,1.07
4544.00,1.07
4543.00,1.07
4542.00,1.07
4541.00,1.07
4540.00,1.07
4539.00,1.07
4538.00,1.07
4537.00,1.08
4536.00,1.08
4535.00,1.08
4534.00,1.08
4533.00,1.08
4532.00,1.08
4531.00,1.08
4530.00,1.08
4529.00,1.08
4528.00,1.08
4527.00,1.08
4526.00,1.08
4525.00,1.08
4524.00,1.08
4523.00,1.08
4522.00,1.08
4521.00,1.08
4520.00,1.08
4519.00,1.08
4518.00,1.08
4517.00,1.08
4516.00,1.08
4515.00,1.08
4514.00,1.08
4513.00,1.08
4512.00,1.08
4511.00,1.08
4510.00,1.08
4509.00,1.08
4508.00,1.08
4507.00,1.08
4506.00,1.08
4505.00,1.08
4504.00,1.08
4503.00,1.08
4502.00,1.08
4501.00,1.08
4500.00,1.08
4499.00,1.08
4498.00,1.08
4497.00,1.08
4496.00,1.08
4495.00,1.08
4494.00,1.08
4493.00,1.08
4492.00,1.08
4491.00,1.08
4490.00,1.08
4489.00,1.08
4488.00,1.07
4487.00,1.07
4486.00,1.07
4485.00,1.07
4484.00,1.07
4483.00,1.07
4482.00,1.07
4481.00,1.07
4480.00,1.07
4479.00,1.07
4478.00,1.06
4477.00,1.06
4476.00,1.06
4475.00,1.06
4474.00,1.06
4473.00,1.05
4472.00,1.05
4471.00,1.05
4470.00,1.05
4469.00,1.04
4468.00,1.04
4467.00,1.04
4466.00,1.04
4465.00,1.03
4464.00,1.03
4463.00,1.03
4462.00,1.03
4461.00,1.02
4460.00,1.02
4459.00,1.02
4458.00,1.01
4457.00,1.01
4456.00,1.01
4455.00,1.01
4454.00,1.00
4453.00,1.00
4452.00,1.00
4451.00,0.99
4450.00,0.99
4449.00,0.99
4448.00,0.98
4447.00,0.98
4446.00,0.98
4445.00,0.97
4444.00,0.97
4443.00,0.96
4442.00,0.96
4441.00,0.96
4440.00,0.95
4439.00,0.95
4438.00,0.95
4437.00,0.94
4436.00,0.94
4435.00,0.94
4434.00,0.93
4433.00,0.93
4432.00,0.93
4431.00,0.93
4430.00,0.92
4429.00,0.92
4428.00,0.92
4427.00,0.92
4426.00,0.91
4425.00,0.91
4424.00,0.91
4423.00,0.91
4422.00,0.91
4421.00,0.91
4420.00,0.90
4419.00,0.90
4418.00,0.90
4417.00,0.90
4416.00,0.90
4415.00,0.90
4414.00,0.90
4413.00,0.90
4412.00,0.90
4411.00,0.90
4410.00,0.90
4409.00,0.90
4408.00,0.90
4407.00,0.90
4406.00,0.90
4405.00,0.90
4404.00,0.90
4403.00,0.90
4402.00,0.90
4401.00,0.90
4400.00,0.90
4399.00,0.90
4398.00,0.90
4397.00,0.90
4396.00,0.91
4395.00,0.91
4394.00,0.91
4393.00,0.91
4392.00,0.91
4391.00,0.91
4390.00,0.91
4389.00,0.92
4388.00,0.92
4387.00,0.92
4386.00,0.92
4385.00,0.92
4384.00,0.92
4383.00,0.92
4382.00,0.92
4381.00,0.93
4380.00,0.93
4379.00,0.93
4378.00,0.93
4377.00,0.93
4376.00,0.93
4375.00,0.93
4374.00,0.93
4373.00,0.93
4372.00,0.93
4371.00,0.94
4370.00,0.94
4369.00,0.94
4368.00,0.94
4367.00,0.94
4366.00,0.94
4365.00,0.94
4364.00,0.94
4363.00,0.94
4362.00,0.94
4361.00,0.94
4360.00,0.94
4359.00,0.93
4358.00,0.93
4357.00,0.93
4356.00,0.93
4355.00,0.93
4354.00,0.93
4353.00,0.93
4352.00,0.93
4351.00,0.93
4350.00,0.93
4349.00,0.94
4348.00,0.94
4347.00,0.94
4346.00,0.94
4345.00,0.94
4344.00,0.94
4343.00,0.94
4342.00,0.94
4341.00,0.94
4340.00,0.94
4339.00,0.94
4338.00,0.94
4337.00,0.94
4336.00,0.95
4335.00,0.95
4334.00,0.95
4333.00,0.95
4332.00,0.95
4331.00,0.95
4330.00,0.95
4329.00,0.95
4328.00,0.95
4327.00,0.95
4326.00,0.95
4325.00,0.95
4324.00,0.95
4323.00,0.95
4322.00,0.95
4321.00,0.95
4320.00,0.95
4319.00,0.96
4318.00,0.96
4317.00,0.96
4316.00,0.96
4315.00,0.96
4314.00,0.96
4313.00,0.97
4312.00,0.97
4311.00,0.97
4310.00,0.97
4309.00,0.97
4308.00,0.98
4307.00,0.98
4306.00,0.98
4305.00,0.98
4304.00,0.98
4303.00,0.99
4302.00,0.99
4301.00,0.99
4300.00,0.99
4299.00,0.99
4298.00,0.99
4297.00,1.00
4296.00,1.00
4295.00,1.00
4294.00,1.00
4293.00,1.00
4292.00,1.00
4291.00,1.01
4290.00,1.01
4289.00,1.01
4288.00,1.01
4287.00,1.01
4286.00,1.01
4285.00,1.01
4284.00,1.02
4283.00,1.02
4282.00,1.02
4281.00,1.02
4280.00,1.02
4279.00,1.02
4278.00,1.02
4277.00,1.02
4276.00,1.02
4275.00,1.01
4274.00,1.01
4273.00,1.01
4272.00,1.01
4271.00,1.01
4270.00,1.01
4269.00,1.01
4268.00,1.01
4267.00,1.01
4266.00,1.01
4265.00,1.01
4264.00,1.01
4263.00,1.01
4262.00,1.01
4261.00,1.00
4260.00,1.00
4259.00,1.00
4258.00,1.00
4257.00,1.00
4256.00,1.00
4255.00,1.00
4254.00,1.00
4253.00,1.00
4252.00,1.00
4251.00,1.01
4250.00,1.01
4249.00,1.01
4248.00,1.01
4247.00,1.01
4246.00,1.01
4245.00,1.01
4244.00,1.02
4243.00,1.02
4242.00,1.02
4241.00,1.02
4240.00,1.03
4239.00,1.03
4238.00,1.03
4237.00,1.03
4236.00,1.04
4235.00,1.04
4234.00,1.04
4233.00,1.04
4232.00,1.04
4231.00,1.04
4230.00,1.04
4229.00,1.04
4228.00,1.04
4227.00,1.05
4226.00,1.05
4225.00,1.05
4224.00,1.05
4223.00,1.05
4222.00,1.05
4221.00,1.05
4220.00,1.05
4219.00,1.05
4218.00,1.05
4217.00,1.05
4216.00,1.05
4215.00,1.05
4214.00,1.05
4213.00,1.05
4212.00,1.06
4211.00,1.06
4210.00,1.06
4209.00,1.06
4208.00,1.06
4207.00,1.06
4206.00,1.06
4205.00,1.06
4204.00,1.06
4203.00,1.06
4202.00,1.06
4201.00,1.06
4200.00,1.05
4199.00,1.05
4198.00,1.05
4197.00,1.05
4196.00,1.05
4195.00,1.05
4194.00,1.05
4193.00,1.05
4192.00,1.05
4191.00,1.05
4190.00,1.05
4189.00,1.05
4188.00,1.05
4187.00,1.05
4186.00,1.05
4185.00,1.05
4184.00,1.05
4183.00,1.06
4182.00,1.06
4181.00,1.06
4180.00,1.06
4179.00,1.06
4178.00,1.06
4177.00,1.06
4176.00,1.06
4175.00,1.06
4174.00,1.06
4173.00,1.06
4172.00,1.06
4171.00,1.06
4170.00,1.06
4169.00,1.06
4168.00,1.06
4167.00,1.06
4166.00,1.06
4165.00,1.06
4164.00,1.06
4163.00,1.06
4162.00,1.06
4161.00,1.06
4160.00,1.06
4159.00,1.06
4158.00,1.06
4157.00,1.06
4156.00,1.06
4155.00,1.06
4154.00,1.06
4153.00,1.06
4152.00,1.06
4151.00,1.06
4150.00,1.06
4149.00,1.06
4148.00,1.06
4147.00,1.06
4146.00,1.06
4145.00,1.06
4144.00,1.06
4143.00,1.06
4142.00,1.06
4141.00,1.06
4140.00,1.06
4139.00,1.06
4138.00,1.06
4137.00,1.06
4136.00,1.07
4135.00,1.07
4134.00,1.07
4133.00,1.07
4132.00,1.07
4131.00,1.07
4130.00,1.07
4129.00,1.07
4128.00,1.07
4127.00,1.08
4126.00,1.08
4125.00,1.08
4124.00,1.08
4123.00,1.08
4122.00,1.08
4121.00,1.08
4120.00,1.08
4119.00,1.08
4118.00,1.08
4117.00,1.08
4116.00,1.08
4115.00,1.08
4114.00,1.08
4113.00,1.08
4112.00,1.08
4111.00,1.08
4110.00,1.08
4109.00,1.08
4108.00,1.08
4107.00,1.08
4106.00,1.08
4105.00,1.08
4104.00,1.08
4103.00,1.08
4102.00,1.08
4101.00,1.09
4100.00,1.09
4099.00,1.09
4098.00,1.09
4097.00,1.09
4096.00,1.09
4095.00,1.09
4094.00,1.09
4093.00,1.09
4092.00,1.09
4091.00,1.09
4090.00,1.09
4089.00,1.09
4088.00,1.09
4087.00,1.09
4086.00,1.10
4085.00,1.10
4084.00,1.10
4083.00,1.10
4082.00,1.10
4081.00,1.10
4080.00,1.10
4079.00,1.10
4078.00,1.10
4077.00,1.10
4076.00,1.10
4075.00,1.10
4074.00,1.10
4073.00,1.10
4072.00,1.11
4071.00,1.11
4070.00,1.11
4069.00,1.11
4068.00,1.11
4067.00,1.11
4066.00,1.11
4065.00,1.10
4064.00,1.10
4063.00,1.10
4062.00,1.10
4061.00,1.10
4060.00,1.10
4059.00,1.10
4058.00,1.10
4057.00,1.10
4056.00,1.10
4055.00,1.10
4054.00,1.10
4053.00,1.10
4052.00,1.10
4051.00,1.10
4050.00,1.10
4049.00,1.10
4048.00,1.10
4047.00,1.10
4046.00,1.10
4045.00,1.10
4044.00,1.10
4043.00,1.10
4042.00,1.10
4041.00,1.11
4040.00,1.11
4039.00,1.11
4038.00,1.11
4037.00,1.11
4036.00,1.11
4035.00,1.11
4034.00,1.11
4033.00,1.11
4032.00,1.11
4031.00,1.11
4030.00,1.11
4029.00,1.11
4028.00,1.11
4027.00,1.11
4026.00,1.11
4025.00,1.11
4024.00,1.11
4023.00,1.11
4022.00,1.11
4021.00,1.11
4020.00,1.11
4019.00,1.11
4018.00,1.11
4017.00,1.11
4016.00,1.12
4015.00,1.12
4014.00,1.12
4013.00,1.12
4012.00,1.12
4011.00,1.13
4010.00,1.13
4009.00,1.13
4008.00,1.13
4007.00,1.14
4006.00,1.14
4005.00,1.14
4004.00,1.14
4003.00,1.14
4002.00,1.14
4001.00,1.14
4000.00,1.15
