创建为新数据集,样品 697 用户 Administrator 日期 星期四, 七月 19 2018
cm-1,%T
10000.00,0.83
9999.00,0.83
9998.00,0.83
9997.00,0.83
9996.00,0.83
9995.00,0.83
9994.00,0.83
9993.00,0.83
9992.00,0.83
9991.00,0.83
9990.00,0.83
9989.00,0.83
9988.00,0.83
9987.00,0.82
9986.00,0.82
9985.00,0.82
9984.00,0.82
9983.00,0.82
9982.00,0.81
9981.00,0.81
9980.00,0.81
9979.00,0.81
9978.00,0.80
9977.00,0.80
9976.00,0.80
9975.00,0.80
9974.00,0.79
9973.00,0.79
9972.00,0.79
9971.00,0.79
9970.00,0.79
9969.00,0.79
9968.00,0.79
9967.00,0.80
9966.00,0.80
9965.00,0.80
9964.00,0.80
9963.00,0.80
9962.00,0.80
9961.00,0.80
9960.00,0.80
9959.00,0.80
9958.00,0.80
9957.00,0.80
9956.00,0.80
9955.00,0.80
9954.00,0.80
9953.00,0.80
9952.00,0.80
9951.00,0.80
9950.00,0.80
9949.00,0.80
9948.00,0.80
9947.00,0.80
9946.00,0.80
9945.00,0.79
9944.00,0.79
9943.00,0.79
9942.00,0.79
9941.00,0.79
9940.00,0.79
9939.00,0.79
9938.00,0.79
9937.00,0.79
9936.00,0.78
9935.00,0.78
9934.00,0.78
9933.00,0.78
9932.00,0.78
9931.00,0.78
9930.00,0.78
9929.00,0.78
9928.00,0.78
9927.00,0.78
9926.00,0.78
9925.00,0.78
9924.00,0.78
9923.00,0.78
9922.00,0.78
9921.00,0.78
9920.00,0.78
9919.00,0.78
9918.00,0.78
9917.00,0.78
9916.00,0.78
9915.00,0.79
9914.00,0.79
9913.00,0.79
9912.00,0.79
9911.00,0.79
9910.00,0.80
9909.00,0.80
9908.00,0.80
9907.00,0.80
9906.00,0.81
9905.00,0.81
9904.00,0.81
9903.00,0.81
9902.00,0.81
9901.00,0.82
9900.00,0.82
9899.00,0.82
9898.00,0.82
9897.00,0.82
9896.00,0.82
9895.00,0.82
9894.00,0.82
9893.00,0.82
9892.00,0.82
9891.00,0.82
9890.00,0.82
9889.00,0.82
9888.00,0.82
9887.00,0.82
9886.00,0.82
9885.00,0.82
9884.00,0.82
9883.00,0.82
9882.00,0.82
9881.00,0.81
9880.00,0.81
9879.00,0.81
9878.00,0.81
9877.00,0.81
9876.00,0.81
9875.00,0.81
9874.00,0.81
9873.00,0.81
9872.00,0.81
9871.00,0.81
9870.00,0.81
9869.00,0.81
9868.00,0.81
9867.00,0.81
9866.00,0.81
9865.00,0.81
9864.00,0.81
9863.00,0.81
9862.00,0.81
9861.00,0.81
9860.00,0.81
9859.00,0.81
9858.00,0.81
9857.00,0.81
9856.00,0.81
9855.00,0.80
9854.00,0.80
9853.00,0.80
9852.00,0.80
9851.00,0.80
9850.00,0.80
9849.00,0.80
9848.00,0.80
9847.00,0.80
9846.00,0.80
9845.00,0.80
9844.00,0.80
9843.00,0.80
9842.00,0.80
9841.00,0.80
9840.00,0.80
9839.00,0.80
9838.00,0.80
9837.00,0.80
9836.00,0.80
9835.00,0.80
9834.00,0.80
9833.00,0.80
9832.00,0.80
9831.00,0.80
9830.00,0.80
9829.00,0.80
9828.00,0.80
9827.00,0.80
9826.00,0.80
9825.00,0.80
9824.00,0.81
9823.00,0.81
9822.00,0.81
9821.00,0.81
9820.00,0.81
9819.00,0.81
9818.00,0.81
9817.00,0.81
9816.00,0.81
9815.00,0.81
9814.00,0.81
9813.00,0.81
9812.00,0.81
9811.00,0.81
9810.00,0.81
9809.00,0.81
9808.00,0.81
9807.00,0.81
9806.00,0.81
9805.00,0.81
9804.00,0.81
9803.00,0.81
9802.00,0.81
9801.00,0.81
9800.00,0.81
9799.00,0.81
9798.00,0.81
9797.00,0.81
9796.00,0.81
9795.00,0.81
9794.00,0.81
9793.00,0.81
9792.00,0.81
9791.00,0.81
9790.00,0.81
9789.00,0.81
9788.00,0.81
9787.00,0.81
9786.00,0.81
9785.00,0.80
9784.00,0.80
9783.00,0.80
9782.00,0.80
9781.00,0.80
9780.00,0.79
9779.00,0.79
9778.00,0.79
9777.00,0.79
9776.00,0.79
9775.00,0.79
9774.00,0.79
9773.00,0.79
9772.00,0.79
9771.00,0.79
9770.00,0.79
9769.00,0.79
9768.00,0.80
9767.00,0.80
9766.00,0.80
9765.00,0.80
9764.00,0.80
9763.00,0.81
9762.00,0.81
9761.00,0.81
9760.00,0.81
9759.00,0.81
9758.00,0.81
9757.00,0.81
9756.00,0.81
9755.00,0.81
9754.00,0.81
9753.00,0.81
9752.00,0.81
9751.00,0.81
9750.00,0.81
9749.00,0.81
9748.00,0.81
9747.00,0.81
9746.00,0.81
9745.00,0.81
9744.00,0.81
9743.00,0.81
9742.00,0.81
9741.00,0.81
9740.00,0.81
9739.00,0.81
9738.00,0.81
9737.00,0.81
9736.00,0.81
9735.00,0.81
9734.00,0.81
9733.00,0.80
9732.00,0.80
9731.00,0.80
9730.00,0.80
9729.00,0.80
9728.00,0.80
9727.00,0.80
9726.00,0.80
9725.00,0.80
9724.00,0.80
9723.00,0.80
9722.00,0.80
9721.00,0.81
9720.00,0.81
9719.00,0.81
9718.00,0.81
9717.00,0.81
9716.00,0.82
9715.00,0.82
9714.00,0.82
9713.00,0.82
9712.00,0.82
9711.00,0.82
9710.00,0.82
9709.00,0.82
9708.00,0.82
9707.00,0.82
9706.00,0.81
9705.00,0.81
9704.00,0.81
9703.00,0.81
9702.00,0.81
9701.00,0.81
9700.00,0.81
9699.00,0.81
9698.00,0.81
9697.00,0.81
9696.00,0.81
9695.00,0.81
9694.00,0.81
9693.00,0.81
9692.00,0.81
9691.00,0.81
9690.00,0.82
9689.00,0.82
9688.00,0.82
9687.00,0.82
9686.00,0.82
9685.00,0.82
9684.00,0.83
9683.00,0.83
9682.00,0.83
9681.00,0.83
9680.00,0.83
9679.00,0.83
9678.00,0.83
9677.00,0.83
9676.00,0.82
9675.00,0.82
9674.00,0.82
9673.00,0.82
9672.00,0.82
9671.00,0.82
9670.00,0.82
9669.00,0.82
9668.00,0.82
9667.00,0.82
9666.00,0.82
9665.00,0.82
9664.00,0.82
9663.00,0.82
9662.00,0.82
9661.00,0.82
9660.00,0.82
9659.00,0.81
9658.00,0.81
9657.00,0.81
9656.00,0.81
9655.00,0.81
9654.00,0.81
9653.00,0.80
9652.00,0.80
9651.00,0.80
9650.00,0.80
9649.00,0.80
9648.00,0.80
9647.00,0.80
9646.00,0.80
9645.00,0.80
9644.00,0.80
9643.00,0.80
9642.00,0.80
9641.00,0.80
9640.00,0.80
9639.00,0.80
9638.00,0.80
9637.00,0.80
9636.00,0.80
9635.00,0.80
9634.00,0.80
9633.00,0.80
9632.00,0.80
9631.00,0.80
9630.00,0.79
9629.00,0.79
9628.00,0.79
9627.00,0.79
9626.00,0.79
9625.00,0.79
9624.00,0.79
9623.00,0.79
9622.00,0.79
9621.00,0.79
9620.00,0.79
9619.00,0.79
9618.00,0.79
9617.00,0.79
9616.00,0.79
9615.00,0.79
9614.00,0.80
9613.00,0.80
9612.00,0.80
9611.00,0.80
9610.00,0.80
9609.00,0.80
9608.00,0.80
9607.00,0.80
9606.00,0.80
9605.00,0.81
9604.00,0.81
9603.00,0.81
9602.00,0.81
9601.00,0.81
9600.00,0.81
9599.00,0.81
9598.00,0.81
9597.00,0.81
9596.00,0.81
9595.00,0.81
9594.00,0.81
9593.00,0.81
9592.00,0.81
9591.00,0.81
9590.00,0.81
9589.00,0.81
9588.00,0.81
9587.00,0.81
9586.00,0.81
9585.00,0.81
9584.00,0.81
9583.00,0.81
9582.00,0.81
9581.00,0.80
9580.00,0.80
9579.00,0.80
9578.00,0.80
9577.00,0.80
9576.00,0.80
9575.00,0.80
9574.00,0.80
9573.00,0.80
9572.00,0.80
9571.00,0.80
9570.00,0.80
9569.00,0.80
9568.00,0.80
9567.00,0.80
9566.00,0.80
9565.00,0.80
9564.00,0.81
9563.00,0.81
9562.00,0.81
9561.00,0.81
9560.00,0.81
9559.00,0.81
9558.00,0.80
9557.00,0.80
9556.00,0.80
9555.00,0.80
9554.00,0.80
9553.00,0.80
9552.00,0.79
9551.00,0.79
9550.00,0.79
9549.00,0.79
9548.00,0.79
9547.00,0.78
9546.00,0.78
9545.00,0.78
9544.00,0.78
9543.00,0.77
9542.00,0.77
9541.00,0.77
9540.00,0.77
9539.00,0.77
9538.00,0.77
9537.00,0.77
9536.00,0.77
9535.00,0.77
9534.00,0.77
9533.00,0.77
9532.00,0.77
9531.00,0.77
9530.00,0.77
9529.00,0.78
9528.00,0.78
9527.00,0.78
9526.00,0.79
9525.00,0.79
9524.00,0.79
9523.00,0.79
9522.00,0.80
9521.00,0.80
9520.00,0.80
9519.00,0.80
9518.00,0.81
9517.00,0.81
9516.00,0.81
9515.00,0.81
9514.00,0.81
9513.00,0.81
9512.00,0.81
9511.00,0.81
9510.00,0.81
9509.00,0.81
9508.00,0.81
9507.00,0.81
9506.00,0.81
9505.00,0.81
9504.00,0.81
9503.00,0.81
9502.00,0.81
9501.00,0.81
9500.00,0.81
9499.00,0.80
9498.00,0.80
9497.00,0.80
9496.00,0.80
9495.00,0.80
9494.00,0.80
9493.00,0.80
9492.00,0.80
9491.00,0.80
9490.00,0.80
9489.00,0.80
9488.00,0.80
9487.00,0.80
9486.00,0.80
9485.00,0.80
9484.00,0.80
9483.00,0.81
9482.00,0.81
9481.00,0.81
9480.00,0.81
9479.00,0.81
9478.00,0.81
9477.00,0.81
9476.00,0.81
9475.00,0.81
9474.00,0.81
9473.00,0.81
9472.00,0.81
9471.00,0.81
9470.00,0.80
9469.00,0.80
9468.00,0.80
9467.00,0.80
9466.00,0.80
9465.00,0.80
9464.00,0.80
9463.00,0.80
9462.00,0.80
9461.00,0.80
9460.00,0.80
9459.00,0.80
9458.00,0.80
9457.00,0.80
9456.00,0.81
9455.00,0.81
9454.00,0.81
9453.00,0.81
9452.00,0.81
9451.00,0.82
9450.00,0.82
9449.00,0.82
9448.00,0.82
9447.00,0.82
9446.00,0.82
9445.00,0.82
9444.00,0.82
9443.00,0.82
9442.00,0.82
9441.00,0.82
9440.00,0.82
9439.00,0.82
9438.00,0.82
9437.00,0.82
9436.00,0.82
9435.00,0.82
9434.00,0.82
9433.00,0.82
9432.00,0.82
9431.00,0.82
9430.00,0.82
9429.00,0.82
9428.00,0.82
9427.00,0.81
9426.00,0.81
9425.00,0.81
9424.00,0.81
9423.00,0.81
9422.00,0.81
9421.00,0.81
9420.00,0.81
9419.00,0.81
9418.00,0.80
9417.00,0.80
9416.00,0.80
9415.00,0.80
9414.00,0.80
9413.00,0.80
9412.00,0.79
9411.00,0.79
9410.00,0.79
9409.00,0.79
9408.00,0.79
9407.00,0.78
9406.00,0.78
9405.00,0.78
9404.00,0.78
9403.00,0.78
9402.00,0.78
9401.00,0.78
9400.00,0.78
9399.00,0.78
9398.00,0.78
9397.00,0.78
9396.00,0.78
9395.00,0.78
9394.00,0.78
9393.00,0.79
9392.00,0.79
9391.00,0.79
9390.00,0.80
9389.00,0.80
9388.00,0.80
9387.00,0.81
9386.00,0.81
9385.00,0.81
9384.00,0.82
9383.00,0.82
9382.00,0.82
9381.00,0.82
9380.00,0.82
9379.00,0.83
9378.00,0.83
9377.00,0.83
9376.00,0.83
9375.00,0.82
9374.00,0.82
9373.00,0.82
9372.00,0.82
9371.00,0.82
9370.00,0.82
9369.00,0.81
9368.00,0.81
9367.00,0.81
9366.00,0.80
9365.00,0.80
9364.00,0.80
9363.00,0.80
9362.00,0.79
9361.00,0.79
9360.00,0.79
9359.00,0.79
9358.00,0.79
9357.00,0.78
9356.00,0.78
9355.00,0.78
9354.00,0.78
9353.00,0.78
9352.00,0.78
9351.00,0.78
9350.00,0.78
9349.00,0.78
9348.00,0.78
9347.00,0.78
9346.00,0.78
9345.00,0.78
9344.00,0.78
9343.00,0.78
9342.00,0.79
9341.00,0.79
9340.00,0.79
9339.00,0.79
9338.00,0.79
9337.00,0.79
9336.00,0.80
9335.00,0.80
9334.00,0.80
9333.00,0.80
9332.00,0.80
9331.00,0.80
9330.00,0.80
9329.00,0.81
9328.00,0.81
9327.00,0.81
9326.00,0.81
9325.00,0.81
9324.00,0.81
9323.00,0.81
9322.00,0.81
9321.00,0.81
9320.00,0.81
9319.00,0.81
9318.00,0.80
9317.00,0.80
9316.00,0.80
9315.00,0.80
9314.00,0.80
9313.00,0.80
9312.00,0.80
9311.00,0.80
9310.00,0.80
9309.00,0.80
9308.00,0.80
9307.00,0.79
9306.00,0.79
9305.00,0.79
9304.00,0.79
9303.00,0.79
9302.00,0.79
9301.00,0.79
9300.00,0.79
9299.00,0.79
9298.00,0.79
9297.00,0.80
9296.00,0.80
9295.00,0.80
9294.00,0.80
9293.00,0.80
9292.00,0.80
9291.00,0.81
9290.00,0.81
9289.00,0.81
9288.00,0.81
9287.00,0.82
9286.00,0.82
9285.00,0.82
9284.00,0.82
9283.00,0.82
9282.00,0.82
9281.00,0.82
9280.00,0.82
9279.00,0.82
9278.00,0.82
9277.00,0.82
9276.00,0.82
9275.00,0.82
9274.00,0.81
9273.00,0.81
9272.00,0.81
9271.00,0.81
9270.00,0.81
9269.00,0.80
9268.00,0.80
9267.00,0.80
9266.00,0.80
9265.00,0.80
9264.00,0.80
9263.00,0.80
9262.00,0.80
9261.00,0.80
9260.00,0.80
9259.00,0.80
9258.00,0.80
9257.00,0.80
9256.00,0.80
9255.00,0.80
9254.00,0.81
9253.00,0.81
9252.00,0.81
9251.00,0.81
9250.00,0.81
9249.00,0.81
9248.00,0.81
9247.00,0.81
9246.00,0.81
9245.00,0.81
9244.00,0.81
9243.00,0.81
9242.00,0.81
9241.00,0.81
9240.00,0.81
9239.00,0.81
9238.00,0.81
9237.00,0.81
9236.00,0.81
9235.00,0.81
9234.00,0.81
9233.00,0.81
9232.00,0.81
9231.00,0.81
9230.00,0.81
9229.00,0.81
9228.00,0.81
9227.00,0.81
9226.00,0.81
9225.00,0.81
9224.00,0.81
9223.00,0.81
9222.00,0.80
9221.00,0.80
9220.00,0.80
9219.00,0.80
9218.00,0.80
9217.00,0.80
9216.00,0.80
9215.00,0.80
9214.00,0.80
9213.00,0.80
9212.00,0.80
9211.00,0.80
9210.00,0.80
9209.00,0.80
9208.00,0.80
9207.00,0.80
9206.00,0.80
9205.00,0.79
9204.00,0.79
9203.00,0.79
9202.00,0.79
9201.00,0.79
9200.00,0.79
9199.00,0.79
9198.00,0.79
9197.00,0.79
9196.00,0.79
9195.00,0.79
9194.00,0.79
9193.00,0.79
9192.00,0.79
9191.00,0.79
9190.00,0.79
9189.00,0.80
9188.00,0.80
9187.00,0.80
9186.00,0.80
9185.00,0.80
9184.00,0.80
9183.00,0.81
9182.00,0.81
9181.00,0.81
9180.00,0.81
9179.00,0.81
9178.00,0.80
9177.00,0.80
9176.00,0.80
9175.00,0.80
9174.00,0.80
9173.00,0.80
9172.00,0.79
9171.00,0.79
9170.00,0.79
9169.00,0.79
9168.00,0.79
9167.00,0.79
9166.00,0.79
9165.00,0.79
9164.00,0.79
9163.00,0.79
9162.00,0.80
9161.00,0.80
9160.00,0.80
9159.00,0.80
9158.00,0.80
9157.00,0.81
9156.00,0.81
9155.00,0.81
9154.00,0.81
9153.00,0.81
9152.00,0.81
9151.00,0.81
9150.00,0.81
9149.00,0.81
9148.00,0.81
9147.00,0.81
9146.00,0.81
9145.00,0.81
9144.00,0.81
9143.00,0.81
9142.00,0.81
9141.00,0.81
9140.00,0.81
9139.00,0.81
9138.00,0.81
9137.00,0.81
9136.00,0.81
9135.00,0.81
9134.00,0.81
9133.00,0.81
9132.00,0.81
9131.00,0.81
9130.00,0.81
9129.00,0.81
9128.00,0.81
9127.00,0.81
9126.00,0.80
9125.00,0.80
9124.00,0.80
9123.00,0.80
9122.00,0.80
9121.00,0.79
9120.00,0.79
9119.00,0.79
9118.00,0.79
9117.00,0.79
9116.00,0.78
9115.00,0.78
9114.00,0.78
9113.00,0.78
9112.00,0.78
9111.00,0.78
9110.00,0.78
9109.00,0.78
9108.00,0.78
9107.00,0.79
9106.00,0.79
9105.00,0.79
9104.00,0.79
9103.00,0.79
9102.00,0.79
9101.00,0.79
9100.00,0.80
9099.00,0.80
9098.00,0.80
9097.00,0.80
9096.00,0.80
9095.00,0.80
9094.00,0.80
9093.00,0.81
9092.00,0.81
9091.00,0.81
9090.00,0.81
9089.00,0.81
9088.00,0.81
9087.00,0.81
9086.00,0.81
9085.00,0.81
9084.00,0.81
9083.00,0.81
9082.00,0.81
9081.00,0.81
9080.00,0.81
9079.00,0.81
9078.00,0.81
9077.00,0.81
9076.00,0.81
9075.00,0.81
9074.00,0.81
9073.00,0.81
9072.00,0.81
9071.00,0.80
9070.00,0.80
9069.00,0.80
9068.00,0.80
9067.00,0.80
9066.00,0.80
9065.00,0.80
9064.00,0.80
9063.00,0.80
9062.00,0.80
9061.00,0.80
9060.00,0.80
9059.00,0.80
9058.00,0.80
9057.00,0.80
9056.00,0.80
9055.00,0.79
9054.00,0.79
9053.00,0.79
9052.00,0.79
9051.00,0.79
9050.00,0.79
9049.00,0.79
9048.00,0.79
9047.00,0.79
9046.00,0.79
9045.00,0.79
9044.00,0.80
9043.00,0.80
9042.00,0.80
9041.00,0.80
9040.00,0.80
9039.00,0.80
9038.00,0.80
9037.00,0.81
9036.00,0.81
9035.00,0.81
9034.00,0.81
9033.00,0.81
9032.00,0.82
9031.00,0.82
9030.00,0.82
9029.00,0.82
9028.00,0.82
9027.00,0.82
9026.00,0.82
9025.00,0.82
9024.00,0.82
9023.00,0.82
9022.00,0.82
9021.00,0.82
9020.00,0.82
9019.00,0.82
9018.00,0.82
9017.00,0.82
9016.00,0.81
9015.00,0.81
9014.00,0.81
9013.00,0.81
9012.00,0.81
9011.00,0.81
9010.00,0.81
9009.00,0.81
9008.00,0.81
9007.00,0.81
9006.00,0.81
9005.00,0.81
9004.00,0.81
9003.00,0.80
9002.00,0.80
9001.00,0.80
9000.00,0.80
8999.00,0.80
8998.00,0.80
8997.00,0.80
8996.00,0.80
8995.00,0.80
8994.00,0.80
8993.00,0.80
8992.00,0.80
8991.00,0.80
8990.00,0.80
8989.00,0.80
8988.00,0.80
8987.00,0.80
8986.00,0.81
8985.00,0.81
8984.00,0.81
8983.00,0.81
8982.00,0.81
8981.00,0.82
8980.00,0.82
8979.00,0.82
8978.00,0.82
8977.00,0.82
8976.00,0.82
8975.00,0.82
8974.00,0.82
8973.00,0.82
8972.00,0.82
8971.00,0.82
8970.00,0.81
8969.00,0.81
8968.00,0.81
8967.00,0.81
8966.00,0.81
8965.00,0.81
8964.00,0.80
8963.00,0.80
8962.00,0.80
8961.00,0.80
8960.00,0.80
8959.00,0.80
8958.00,0.79
8957.00,0.79
8956.00,0.79
8955.00,0.79
8954.00,0.79
8953.00,0.79
8952.00,0.79
8951.00,0.79
8950.00,0.79
8949.00,0.79
8948.00,0.79
8947.00,0.79
8946.00,0.79
8945.00,0.80
8944.00,0.80
8943.00,0.80
8942.00,0.80
8941.00,0.81
8940.00,0.81
8939.00,0.81
8938.00,0.81
8937.00,0.82
8936.00,0.82
8935.00,0.82
8934.00,0.82
8933.00,0.82
8932.00,0.83
8931.00,0.83
8930.00,0.83
8929.00,0.83
8928.00,0.83
8927.00,0.83
8926.00,0.82
8925.00,0.82
8924.00,0.82
8923.00,0.82
8922.00,0.82
8921.00,0.82
8920.00,0.81
8919.00,0.81
8918.00,0.81
8917.00,0.81
8916.00,0.81
8915.00,0.81
8914.00,0.81
8913.00,0.80
8912.00,0.80
8911.00,0.80
8910.00,0.80
8909.00,0.80
8908.00,0.80
8907.00,0.80
8906.00,0.80
8905.00,0.80
8904.00,0.80
8903.00,0.80
8902.00,0.80
8901.00,0.80
8900.00,0.80
8899.00,0.80
8898.00,0.80
8897.00,0.80
8896.00,0.80
8895.00,0.80
8894.00,0.80
8893.00,0.80
8892.00,0.80
8891.00,0.80
8890.00,0.79
8889.00,0.79
8888.00,0.79
8887.00,0.79
8886.00,0.79
8885.00,0.79
8884.00,0.79
8883.00,0.79
8882.00,0.79
8881.00,0.78
8880.00,0.78
8879.00,0.78
8878.00,0.78
8877.00,0.78
8876.00,0.78
8875.00,0.79
8874.00,0.79
8873.00,0.79
8872.00,0.79
8871.00,0.79
8870.00,0.79
8869.00,0.79
8868.00,0.80
8867.00,0.80
8866.00,0.80
8865.00,0.80
8864.00,0.80
8863.00,0.80
8862.00,0.80
8861.00,0.80
8860.00,0.80
8859.00,0.80
8858.00,0.80
8857.00,0.80
8856.00,0.80
8855.00,0.80
8854.00,0.80
8853.00,0.80
8852.00,0.80
8851.00,0.80
8850.00,0.80
8849.00,0.80
8848.00,0.80
8847.00,0.80
8846.00,0.80
8845.00,0.81
8844.00,0.81
8843.00,0.81
8842.00,0.81
8841.00,0.81
8840.00,0.81
8839.00,0.81
8838.00,0.81
8837.00,0.81
8836.00,0.81
8835.00,0.81
8834.00,0.81
8833.00,0.81
8832.00,0.82
8831.00,0.82
8830.00,0.82
8829.00,0.82
8828.00,0.82
8827.00,0.82
8826.00,0.82
8825.00,0.82
8824.00,0.82
8823.00,0.82
8822.00,0.82
8821.00,0.82
8820.00,0.82
8819.00,0.82
8818.00,0.82
8817.00,0.81
8816.00,0.81
8815.00,0.81
8814.00,0.81
8813.00,0.81
8812.00,0.80
8811.00,0.80
8810.00,0.80
8809.00,0.80
8808.00,0.79
8807.00,0.79
8806.00,0.79
8805.00,0.79
8804.00,0.79
8803.00,0.79
8802.00,0.78
8801.00,0.78
8800.00,0.78
8799.00,0.78
8798.00,0.78
8797.00,0.78
8796.00,0.78
8795.00,0.79
8794.00,0.79
8793.00,0.79
8792.00,0.79
8791.00,0.79
8790.00,0.79
8789.00,0.79
8788.00,0.79
8787.00,0.79
8786.00,0.79
8785.00,0.79
8784.00,0.79
8783.00,0.79
8782.00,0.79
8781.00,0.79
8780.00,0.79
8779.00,0.79
8778.00,0.79
8777.00,0.79
8776.00,0.79
8775.00,0.79
8774.00,0.79
8773.00,0.79
8772.00,0.79
8771.00,0.78
8770.00,0.78
8769.00,0.78
8768.00,0.78
8767.00,0.78
8766.00,0.78
8765.00,0.78
8764.00,0.78
8763.00,0.78
8762.00,0.78
8761.00,0.78
8760.00,0.78
8759.00,0.78
8758.00,0.78
8757.00,0.78
8756.00,0.78
8755.00,0.78
8754.00,0.78
8753.00,0.78
8752.00,0.78
8751.00,0.78
8750.00,0.78
8749.00,0.78
8748.00,0.78
8747.00,0.78
8746.00,0.78
8745.00,0.78
8744.00,0.77
8743.00,0.77
8742.00,0.77
8741.00,0.77
8740.00,0.77
8739.00,0.77
8738.00,0.77
8737.00,0.77
8736.00,0.77
8735.00,0.77
8734.00,0.77
8733.00,0.77
8732.00,0.77
8731.00,0.77
8730.00,0.77
8729.00,0.77
8728.00,0.77
8727.00,0.77
8726.00,0.77
8725.00,0.77
8724.00,0.77
8723.00,0.77
8722.00,0.77
8721.00,0.77
8720.00,0.77
8719.00,0.77
8718.00,0.77
8717.00,0.77
8716.00,0.77
8715.00,0.77
8714.00,0.77
8713.00,0.77
8712.00,0.77
8711.00,0.77
8710.00,0.77
8709.00,0.77
8708.00,0.76
8707.00,0.76
8706.00,0.76
8705.00,0.76
8704.00,0.76
8703.00,0.76
8702.00,0.76
8701.00,0.76
8700.00,0.75
8699.00,0.75
8698.00,0.75
8697.00,0.75
8696.00,0.75
8695.00,0.75
8694.00,0.75
8693.00,0.75
8692.00,0.75
8691.00,0.75
8690.00,0.75
8689.00,0.76
8688.00,0.76
8687.00,0.76
8686.00,0.76
8685.00,0.76
8684.00,0.76
8683.00,0.77
8682.00,0.77
8681.00,0.77
8680.00,0.77
8679.00,0.77
8678.00,0.77
8677.00,0.77
8676.00,0.77
8675.00,0.77
8674.00,0.77
8673.00,0.77
8672.00,0.77
8671.00,0.77
8670.00,0.77
8669.00,0.77
8668.00,0.77
8667.00,0.76
8666.00,0.76
8665.00,0.76
8664.00,0.76
8663.00,0.76
8662.00,0.76
8661.00,0.76
8660.00,0.76
8659.00,0.76
8658.00,0.76
8657.00,0.75
8656.00,0.75
8655.00,0.75
8654.00,0.75
8653.00,0.75
8652.00,0.75
8651.00,0.75
8650.00,0.75
8649.00,0.75
8648.00,0.75
8647.00,0.75
8646.00,0.75
8645.00,0.75
8644.00,0.75
8643.00,0.75
8642.00,0.74
8641.00,0.74
8640.00,0.74
8639.00,0.74
8638.00,0.74
8637.00,0.74
8636.00,0.74
8635.00,0.74
8634.00,0.74
8633.00,0.74
8632.00,0.74
8631.00,0.75
8630.00,0.75
8629.00,0.75
8628.00,0.75
8627.00,0.75
8626.00,0.75
8625.00,0.75
8624.00,0.76
8623.00,0.76
8622.00,0.76
8621.00,0.76
8620.00,0.76
8619.00,0.76
8618.00,0.76
8617.00,0.76
8616.00,0.76
8615.00,0.75
8614.00,0.75
8613.00,0.75
8612.00,0.75
8611.00,0.75
8610.00,0.75
8609.00,0.75
8608.00,0.74
8607.00,0.74
8606.00,0.74
8605.00,0.74
8604.00,0.74
8603.00,0.74
8602.00,0.74
8601.00,0.74
8600.00,0.73
8599.00,0.73
8598.00,0.73
8597.00,0.73
8596.00,0.73
8595.00,0.73
8594.00,0.73
8593.00,0.73
8592.00,0.73
8591.00,0.74
8590.00,0.74
8589.00,0.74
8588.00,0.74
8587.00,0.74
8586.00,0.74
8585.00,0.74
8584.00,0.74
8583.00,0.74
8582.00,0.74
8581.00,0.75
8580.00,0.75
8579.00,0.75
8578.00,0.75
8577.00,0.75
8576.00,0.75
8575.00,0.75
8574.00,0.75
8573.00,0.75
8572.00,0.75
8571.00,0.75
8570.00,0.75
8569.00,0.75
8568.00,0.75
8567.00,0.75
8566.00,0.75
8565.00,0.75
8564.00,0.75
8563.00,0.75
8562.00,0.75
8561.00,0.75
8560.00,0.74
8559.00,0.74
8558.00,0.74
8557.00,0.74
8556.00,0.74
8555.00,0.74
8554.00,0.74
8553.00,0.74
8552.00,0.74
8551.00,0.74
8550.00,0.74
8549.00,0.74
8548.00,0.74
8547.00,0.74
8546.00,0.74
8545.00,0.73
8544.00,0.73
8543.00,0.73
8542.00,0.73
8541.00,0.73
8540.00,0.73
8539.00,0.73
8538.00,0.73
8537.00,0.73
8536.00,0.73
8535.00,0.73
8534.00,0.74
8533.00,0.74
8532.00,0.74
8531.00,0.74
8530.00,0.74
8529.00,0.74
8528.00,0.74
8527.00,0.74
8526.00,0.74
8525.00,0.74
8524.00,0.74
8523.00,0.74
8522.00,0.74
8521.00,0.74
8520.00,0.74
8519.00,0.74
8518.00,0.74
8517.00,0.74
8516.00,0.74
8515.00,0.74
8514.00,0.74
8513.00,0.74
8512.00,0.74
8511.00,0.74
8510.00,0.74
8509.00,0.74
8508.00,0.74
8507.00,0.74
8506.00,0.74
8505.00,0.74
8504.00,0.74
8503.00,0.74
8502.00,0.74
8501.00,0.74
8500.00,0.74
8499.00,0.74
8498.00,0.74
8497.00,0.74
8496.00,0.74
8495.00,0.73
8494.00,0.73
8493.00,0.73
8492.00,0.73
8491.00,0.73
8490.00,0.73
8489.00,0.73
8488.00,0.72
8487.00,0.72
8486.00,0.72
8485.00,0.72
8484.00,0.72
8483.00,0.72
8482.00,0.72
8481.00,0.71
8480.00,0.71
8479.00,0.71
8478.00,0.71
8477.00,0.71
8476.00,0.71
8475.00,0.71
8474.00,0.72
8473.00,0.72
8472.00,0.72
8471.00,0.72
8470.00,0.72
8469.00,0.72
8468.00,0.73
8467.00,0.73
8466.00,0.73
8465.00,0.73
8464.00,0.73
8463.00,0.73
8462.00,0.74
8461.00,0.74
8460.00,0.74
8459.00,0.74
8458.00,0.74
8457.00,0.73
8456.00,0.73
8455.00,0.73
8454.00,0.73
8453.00,0.73
8452.00,0.73
8451.00,0.73
8450.00,0.73
8449.00,0.73
8448.00,0.73
8447.00,0.72
8446.00,0.72
8445.00,0.72
8444.00,0.72
8443.00,0.72
8442.00,0.72
8441.00,0.72
8440.00,0.72
8439.00,0.72
8438.00,0.72
8437.00,0.72
8436.00,0.72
8435.00,0.72
8434.00,0.72
8433.00,0.72
8432.00,0.72
8431.00,0.72
8430.00,0.72
8429.00,0.72
8428.00,0.72
8427.00,0.72
8426.00,0.72
8425.00,0.72
8424.00,0.72
8423.00,0.72
8422.00,0.72
8421.00,0.72
8420.00,0.72
8419.00,0.73
8418.00,0.73
8417.00,0.73
8416.00,0.73
8415.00,0.73
8414.00,0.73
8413.00,0.73
8412.00,0.73
8411.00,0.73
8410.00,0.73
8409.00,0.73
8408.00,0.73
8407.00,0.73
8406.00,0.73
8405.00,0.73
8404.00,0.73
8403.00,0.73
8402.00,0.73
8401.00,0.73
8400.00,0.73
8399.00,0.73
8398.00,0.73
8397.00,0.73
8396.00,0.73
8395.00,0.73
8394.00,0.73
8393.00,0.73
8392.00,0.73
8391.00,0.73
8390.00,0.73
8389.00,0.73
8388.00,0.73
8387.00,0.73
8386.00,0.73
8385.00,0.73
8384.00,0.73
8383.00,0.73
8382.00,0.73
8381.00,0.74
8380.00,0.74
8379.00,0.74
8378.00,0.74
8377.00,0.74
8376.00,0.74
8375.00,0.74
8374.00,0.74
8373.00,0.75
8372.00,0.75
8371.00,0.75
8370.00,0.75
8369.00,0.75
8368.00,0.75
8367.00,0.75
8366.00,0.75
8365.00,0.74
8364.00,0.74
8363.00,0.74
8362.00,0.74
8361.00,0.74
8360.00,0.74
8359.00,0.74
8358.00,0.74
8357.00,0.74
8356.00,0.74
8355.00,0.74
8354.00,0.74
8353.00,0.74
8352.00,0.74
8351.00,0.74
8350.00,0.74
8349.00,0.74
8348.00,0.74
8347.00,0.74
8346.00,0.74
8345.00,0.74
8344.00,0.74
8343.00,0.74
8342.00,0.75
8341.00,0.75
8340.00,0.75
8339.00,0.75
8338.00,0.75
8337.00,0.75
8336.00,0.74
8335.00,0.74
8334.00,0.74
8333.00,0.74
8332.00,0.74
8331.00,0.74
8330.00,0.74
8329.00,0.74
8328.00,0.74
8327.00,0.74
8326.00,0.74
8325.00,0.74
8324.00,0.74
8323.00,0.74
8322.00,0.74
8321.00,0.74
8320.00,0.74
8319.00,0.74
8318.00,0.74
8317.00,0.74
8316.00,0.74
8315.00,0.74
8314.00,0.74
8313.00,0.74
8312.00,0.74
8311.00,0.74
8310.00,0.74
8309.00,0.74
8308.00,0.74
8307.00,0.74
8306.00,0.74
8305.00,0.74
8304.00,0.74
8303.00,0.74
8302.00,0.74
8301.00,0.74
8300.00,0.74
8299.00,0.74
8298.00,0.74
8297.00,0.74
8296.00,0.74
8295.00,0.74
8294.00,0.74
8293.00,0.74
8292.00,0.74
8291.00,0.74
8290.00,0.74
8289.00,0.74
8288.00,0.74
8287.00,0.74
8286.00,0.74
8285.00,0.74
8284.00,0.74
8283.00,0.74
8282.00,0.74
8281.00,0.75
8280.00,0.75
8279.00,0.75
8278.00,0.75
8277.00,0.75
8276.00,0.75
8275.00,0.75
8274.00,0.75
8273.00,0.75
8272.00,0.76
8271.00,0.76
8270.00,0.76
8269.00,0.76
8268.00,0.76
8267.00,0.76
8266.00,0.76
8265.00,0.76
8264.00,0.76
8263.00,0.76
8262.00,0.76
8261.00,0.75
8260.00,0.75
8259.00,0.75
8258.00,0.75
8257.00,0.75
8256.00,0.75
8255.00,0.75
8254.00,0.75
8253.00,0.75
8252.00,0.75
8251.00,0.75
8250.00,0.75
8249.00,0.75
8248.00,0.75
8247.00,0.75
8246.00,0.75
8245.00,0.74
8244.00,0.74
8243.00,0.74
8242.00,0.74
8241.00,0.74
8240.00,0.74
8239.00,0.74
8238.00,0.74
8237.00,0.74
8236.00,0.74
8235.00,0.74
8234.00,0.74
8233.00,0.74
8232.00,0.74
8231.00,0.74
8230.00,0.74
8229.00,0.74
8228.00,0.73
8227.00,0.73
8226.00,0.73
8225.00,0.74
8224.00,0.74
8223.00,0.74
8222.00,0.74
8221.00,0.74
8220.00,0.74
8219.00,0.74
8218.00,0.74
8217.00,0.74
8216.00,0.75
8215.00,0.75
8214.00,0.75
8213.00,0.75
8212.00,0.75
8211.00,0.76
8210.00,0.76
8209.00,0.76
8208.00,0.76
8207.00,0.76
8206.00,0.76
8205.00,0.76
8204.00,0.77
8203.00,0.77
8202.00,0.77
8201.00,0.77
8200.00,0.77
8199.00,0.77
8198.00,0.77
8197.00,0.77
8196.00,0.77
8195.00,0.77
8194.00,0.77
8193.00,0.77
8192.00,0.77
8191.00,0.77
8190.00,0.76
8189.00,0.76
8188.00,0.76
8187.00,0.76
8186.00,0.76
8185.00,0.76
8184.00,0.76
8183.00,0.76
8182.00,0.76
8181.00,0.76
8180.00,0.76
8179.00,0.76
8178.00,0.76
8177.00,0.76
8176.00,0.76
8175.00,0.76
8174.00,0.76
8173.00,0.76
8172.00,0.76
8171.00,0.76
8170.00,0.76
8169.00,0.77
8168.00,0.77
8167.00,0.77
8166.00,0.77
8165.00,0.77
8164.00,0.77
8163.00,0.77
8162.00,0.77
8161.00,0.77
8160.00,0.77
8159.00,0.77
8158.00,0.77
8157.00,0.77
8156.00,0.77
8155.00,0.77
8154.00,0.77
8153.00,0.77
8152.00,0.77
8151.00,0.77
8150.00,0.78
8149.00,0.78
8148.00,0.78
8147.00,0.78
8146.00,0.78
8145.00,0.78
8144.00,0.78
8143.00,0.78
8142.00,0.78
8141.00,0.78
8140.00,0.78
8139.00,0.78
8138.00,0.78
8137.00,0.78
8136.00,0.78
8135.00,0.78
8134.00,0.78
8133.00,0.78
8132.00,0.78
8131.00,0.78
8130.00,0.78
8129.00,0.78
8128.00,0.78
8127.00,0.78
8126.00,0.78
8125.00,0.78
8124.00,0.78
8123.00,0.78
8122.00,0.78
8121.00,0.78
8120.00,0.78
8119.00,0.78
8118.00,0.78
8117.00,0.78
8116.00,0.78
8115.00,0.77
8114.00,0.77
8113.00,0.77
8112.00,0.77
8111.00,0.77
8110.00,0.77
8109.00,0.77
8108.00,0.77
8107.00,0.77
8106.00,0.77
8105.00,0.78
8104.00,0.78
8103.00,0.78
8102.00,0.78
8101.00,0.78
8100.00,0.78
8099.00,0.78
8098.00,0.78
8097.00,0.78
8096.00,0.78
8095.00,0.78
8094.00,0.78
8093.00,0.78
8092.00,0.78
8091.00,0.78
8090.00,0.78
8089.00,0.78
8088.00,0.78
8087.00,0.78
8086.00,0.78
8085.00,0.78
8084.00,0.78
8083.00,0.78
8082.00,0.78
8081.00,0.78
8080.00,0.78
8079.00,0.78
8078.00,0.78
8077.00,0.78
8076.00,0.78
8075.00,0.78
8074.00,0.78
8073.00,0.78
8072.00,0.78
8071.00,0.78
8070.00,0.78
8069.00,0.78
8068.00,0.78
8067.00,0.78
8066.00,0.78
8065.00,0.78
8064.00,0.78
8063.00,0.78
8062.00,0.78
8061.00,0.78
8060.00,0.78
8059.00,0.78
8058.00,0.78
8057.00,0.79
8056.00,0.79
8055.00,0.79
8054.00,0.79
8053.00,0.79
8052.00,0.79
8051.00,0.79
8050.00,0.79
8049.00,0.79
8048.00,0.79
8047.00,0.79
8046.00,0.79
8045.00,0.79
8044.00,0.79
8043.00,0.79
8042.00,0.79
8041.00,0.79
8040.00,0.79
8039.00,0.79
8038.00,0.79
8037.00,0.79
8036.00,0.79
8035.00,0.79
8034.00,0.79
8033.00,0.79
8032.00,0.79
8031.00,0.79
8030.00,0.79
8029.00,0.79
8028.00,0.79
8027.00,0.79
8026.00,0.80
8025.00,0.80
8024.00,0.80
8023.00,0.80
8022.00,0.80
8021.00,0.80
8020.00,0.80
8019.00,0.80
8018.00,0.80
8017.00,0.80
8016.00,0.80
8015.00,0.80
8014.00,0.80
8013.00,0.80
8012.00,0.80
8011.00,0.80
8010.00,0.80
8009.00,0.80
8008.00,0.80
8007.00,0.80
8006.00,0.80
8005.00,0.80
8004.00,0.80
8003.00,0.80
8002.00,0.80
8001.00,0.80
8000.00,0.80
7999.00,0.80
7998.00,0.79
7997.00,0.79
7996.00,0.79
7995.00,0.79
7994.00,0.79
7993.00,0.79
7992.00,0.79
7991.00,0.79
7990.00,0.79
7989.00,0.79
7988.00,0.79
7987.00,0.79
7986.00,0.79
7985.00,0.79
7984.00,0.79
7983.00,0.79
7982.00,0.79
7981.00,0.79
7980.00,0.79
7979.00,0.80
7978.00,0.80
7977.00,0.80
7976.00,0.80
7975.00,0.80
7974.00,0.80
7973.00,0.80
7972.00,0.80
7971.00,0.80
7970.00,0.80
7969.00,0.80
7968.00,0.80
7967.00,0.80
7966.00,0.80
7965.00,0.80
7964.00,0.80
7963.00,0.80
7962.00,0.80
7961.00,0.80
7960.00,0.80
7959.00,0.80
7958.00,0.80
7957.00,0.81
7956.00,0.81
7955.00,0.81
7954.00,0.81
7953.00,0.81
7952.00,0.81
7951.00,0.81
7950.00,0.81
7949.00,0.81
7948.00,0.81
7947.00,0.81
7946.00,0.81
7945.00,0.81
7944.00,0.81
7943.00,0.81
7942.00,0.81
7941.00,0.81
7940.00,0.81
7939.00,0.81
7938.00,0.81
7937.00,0.81
7936.00,0.81
7935.00,0.81
7934.00,0.81
7933.00,0.81
7932.00,0.81
7931.00,0.81
7930.00,0.81
7929.00,0.81
7928.00,0.81
7927.00,0.81
7926.00,0.80
7925.00,0.80
7924.00,0.80
7923.00,0.80
7922.00,0.80
7921.00,0.80
7920.00,0.80
7919.00,0.80
7918.00,0.80
7917.00,0.80
7916.00,0.80
7915.00,0.80
7914.00,0.80
7913.00,0.80
7912.00,0.80
7911.00,0.80
7910.00,0.80
7909.00,0.80
7908.00,0.80
7907.00,0.80
7906.00,0.80
7905.00,0.80
7904.00,0.80
7903.00,0.80
7902.00,0.80
7901.00,0.80
7900.00,0.80
7899.00,0.80
7898.00,0.80
7897.00,0.80
7896.00,0.80
7895.00,0.80
7894.00,0.81
7893.00,0.81
7892.00,0.81
7891.00,0.81
7890.00,0.81
7889.00,0.81
7888.00,0.81
7887.00,0.81
7886.00,0.81
7885.00,0.81
7884.00,0.81
7883.00,0.81
7882.00,0.81
7881.00,0.81
7880.00,0.81
7879.00,0.81
7878.00,0.81
7877.00,0.81
7876.00,0.81
7875.00,0.81
7874.00,0.81
7873.00,0.81
7872.00,0.81
7871.00,0.81
7870.00,0.81
7869.00,0.81
7868.00,0.81
7867.00,0.81
7866.00,0.81
7865.00,0.81
7864.00,0.81
7863.00,0.81
7862.00,0.81
7861.00,0.81
7860.00,0.81
7859.00,0.81
7858.00,0.81
7857.00,0.81
7856.00,0.81
7855.00,0.81
7854.00,0.81
7853.00,0.81
7852.00,0.81
7851.00,0.81
7850.00,0.82
7849.00,0.82
7848.00,0.82
7847.00,0.82
7846.00,0.82
7845.00,0.82
7844.00,0.82
7843.00,0.82
7842.00,0.82
7841.00,0.82
7840.00,0.82
7839.00,0.82
7838.00,0.82
7837.00,0.82
7836.00,0.82
7835.00,0.82
7834.00,0.82
7833.00,0.82
7832.00,0.82
7831.00,0.82
7830.00,0.82
7829.00,0.82
7828.00,0.81
7827.00,0.81
7826.00,0.81
7825.00,0.81
7824.00,0.81
7823.00,0.81
7822.00,0.81
7821.00,0.81
7820.00,0.81
7819.00,0.81
7818.00,0.81
7817.00,0.81
7816.00,0.81
7815.00,0.81
7814.00,0.81
7813.00,0.81
7812.00,0.81
7811.00,0.81
7810.00,0.81
7809.00,0.81
7808.00,0.81
7807.00,0.81
7806.00,0.81
7805.00,0.81
7804.00,0.82
7803.00,0.82
7802.00,0.82
7801.00,0.82
7800.00,0.82
7799.00,0.82
7798.00,0.82
7797.00,0.82
7796.00,0.82
7795.00,0.82
7794.00,0.82
7793.00,0.82
7792.00,0.82
7791.00,0.82
7790.00,0.82
7789.00,0.82
7788.00,0.82
7787.00,0.82
7786.00,0.82
7785.00,0.82
7784.00,0.82
7783.00,0.82
7782.00,0.82
7781.00,0.82
7780.00,0.82
7779.00,0.82
7778.00,0.82
7777.00,0.82
7776.00,0.82
7775.00,0.82
7774.00,0.82
7773.00,0.82
7772.00,0.82
7771.00,0.82
7770.00,0.82
7769.00,0.82
7768.00,0.82
7767.00,0.82
7766.00,0.82
7765.00,0.82
7764.00,0.82
7763.00,0.82
7762.00,0.82
7761.00,0.82
7760.00,0.82
7759.00,0.82
7758.00,0.82
7757.00,0.82
7756.00,0.82
7755.00,0.82
7754.00,0.82
7753.00,0.82
7752.00,0.82
7751.00,0.82
7750.00,0.82
7749.00,0.82
7748.00,0.82
7747.00,0.83
7746.00,0.83
7745.00,0.83
7744.00,0.83
7743.00,0.83
7742.00,0.83
7741.00,0.83
7740.00,0.83
7739.00,0.83
7738.00,0.83
7737.00,0.83
7736.00,0.83
7735.00,0.83
7734.00,0.83
7733.00,0.83
7732.00,0.83
7731.00,0.82
7730.00,0.82
7729.00,0.82
7728.00,0.82
7727.00,0.82
7726.00,0.82
7725.00,0.82
7724.00,0.82
7723.00,0.82
7722.00,0.82
7721.00,0.82
7720.00,0.82
7719.00,0.82
7718.00,0.82
7717.00,0.82
7716.00,0.82
7715.00,0.82
7714.00,0.82
7713.00,0.82
7712.00,0.82
7711.00,0.82
7710.00,0.82
7709.00,0.82
7708.00,0.82
7707.00,0.82
7706.00,0.82
7705.00,0.82
7704.00,0.82
7703.00,0.82
7702.00,0.82
7701.00,0.82
7700.00,0.82
7699.00,0.82
7698.00,0.82
7697.00,0.82
7696.00,0.82
7695.00,0.82
7694.00,0.82
7693.00,0.82
7692.00,0.82
7691.00,0.82
7690.00,0.82
7689.00,0.82
7688.00,0.82
7687.00,0.82
7686.00,0.82
7685.00,0.82
7684.00,0.82
7683.00,0.82
7682.00,0.82
7681.00,0.82
7680.00,0.82
7679.00,0.82
7678.00,0.82
7677.00,0.82
7676.00,0.82
7675.00,0.82
7674.00,0.82
7673.00,0.82
7672.00,0.82
7671.00,0.82
7670.00,0.82
7669.00,0.83
7668.00,0.83
7667.00,0.83
7666.00,0.83
7665.00,0.83
7664.00,0.83
7663.00,0.83
7662.00,0.83
7661.00,0.83
7660.00,0.83
7659.00,0.83
7658.00,0.83
7657.00,0.83
7656.00,0.83
7655.00,0.83
7654.00,0.82
7653.00,0.82
7652.00,0.82
7651.00,0.82
7650.00,0.82
7649.00,0.82
7648.00,0.82
7647.00,0.82
7646.00,0.82
7645.00,0.82
7644.00,0.81
7643.00,0.81
7642.00,0.81
7641.00,0.81
7640.00,0.81
7639.00,0.81
7638.00,0.81
7637.00,0.81
7636.00,0.81
7635.00,0.81
7634.00,0.81
7633.00,0.82
7632.00,0.82
7631.00,0.82
7630.00,0.82
7629.00,0.82
7628.00,0.82
7627.00,0.82
7626.00,0.82
7625.00,0.82
7624.00,0.82
7623.00,0.82
7622.00,0.83
7621.00,0.83
7620.00,0.83
7619.00,0.83
7618.00,0.83
7617.00,0.83
7616.00,0.83
7615.00,0.83
7614.00,0.83
7613.00,0.83
7612.00,0.83
7611.00,0.83
7610.00,0.83
7609.00,0.83
7608.00,0.83
7607.00,0.83
7606.00,0.83
7605.00,0.83
7604.00,0.83
7603.00,0.83
7602.00,0.83
7601.00,0.83
7600.00,0.83
7599.00,0.83
7598.00,0.83
7597.00,0.83
7596.00,0.83
7595.00,0.83
7594.00,0.83
7593.00,0.83
7592.00,0.83
7591.00,0.83
7590.00,0.83
7589.00,0.83
7588.00,0.83
7587.00,0.82
7586.00,0.82
7585.00,0.82
7584.00,0.82
7583.00,0.82
7582.00,0.82
7581.00,0.82
7580.00,0.82
7579.00,0.82
7578.00,0.82
7577.00,0.82
7576.00,0.82
7575.00,0.82
7574.00,0.82
7573.00,0.82
7572.00,0.82
7571.00,0.82
7570.00,0.82
7569.00,0.82
7568.00,0.82
7567.00,0.82
7566.00,0.82
7565.00,0.82
7564.00,0.82
7563.00,0.82
7562.00,0.82
7561.00,0.82
7560.00,0.82
7559.00,0.82
7558.00,0.82
7557.00,0.82
7556.00,0.82
7555.00,0.82
7554.00,0.82
7553.00,0.82
7552.00,0.82
7551.00,0.82
7550.00,0.82
7549.00,0.82
7548.00,0.82
7547.00,0.82
7546.00,0.82
7545.00,0.82
7544.00,0.82
7543.00,0.82
7542.00,0.82
7541.00,0.82
7540.00,0.82
7539.00,0.82
7538.00,0.82
7537.00,0.82
7536.00,0.82
7535.00,0.82
7534.00,0.82
7533.00,0.82
7532.00,0.82
7531.00,0.82
7530.00,0.82
7529.00,0.82
7528.00,0.81
7527.00,0.81
7526.00,0.81
7525.00,0.81
7524.00,0.81
7523.00,0.81
7522.00,0.81
7521.00,0.81
7520.00,0.81
7519.00,0.81
7518.00,0.81
7517.00,0.81
7516.00,0.81
7515.00,0.81
7514.00,0.80
7513.00,0.80
7512.00,0.80
7511.00,0.81
7510.00,0.81
7509.00,0.81
7508.00,0.81
7507.00,0.81
7506.00,0.81
7505.00,0.81
7504.00,0.81
7503.00,0.81
7502.00,0.81
7501.00,0.81
7500.00,0.81
7499.00,0.81
7498.00,0.81
7497.00,0.81
7496.00,0.81
7495.00,0.81
7494.00,0.81
7493.00,0.81
7492.00,0.81
7491.00,0.81
7490.00,0.81
7489.00,0.81
7488.00,0.81
7487.00,0.81
7486.00,0.81
7485.00,0.81
7484.00,0.81
7483.00,0.81
7482.00,0.81
7481.00,0.81
7480.00,0.81
7479.00,0.80
7478.00,0.80
7477.00,0.80
7476.00,0.80
7475.00,0.80
7474.00,0.80
7473.00,0.80
7472.00,0.80
7471.00,0.80
7470.00,0.80
7469.00,0.80
7468.00,0.80
7467.00,0.80
7466.00,0.80
7465.00,0.80
7464.00,0.80
7463.00,0.79
7462.00,0.79
7461.00,0.79
7460.00,0.79
7459.00,0.79
7458.00,0.79
7457.00,0.79
7456.00,0.79
7455.00,0.79
7454.00,0.79
7453.00,0.79
7452.00,0.79
7451.00,0.79
7450.00,0.79
7449.00,0.79
7448.00,0.79
7447.00,0.79
7446.00,0.79
7445.00,0.79
7444.00,0.79
7443.00,0.79
7442.00,0.79
7441.00,0.79
7440.00,0.78
7439.00,0.78
7438.00,0.78
7437.00,0.78
7436.00,0.78
7435.00,0.78
7434.00,0.78
7433.00,0.78
7432.00,0.78
7431.00,0.77
7430.00,0.77
7429.00,0.77
7428.00,0.77
7427.00,0.77
7426.00,0.77
7425.00,0.77
7424.00,0.77
7423.00,0.77
7422.00,0.77
7421.00,0.77
7420.00,0.77
7419.00,0.77
7418.00,0.77
7417.00,0.77
7416.00,0.77
7415.00,0.76
7414.00,0.76
7413.00,0.76
7412.00,0.76
7411.00,0.76
7410.00,0.76
7409.00,0.76
7408.00,0.77
7407.00,0.77
7406.00,0.77
7405.00,0.77
7404.00,0.77
7403.00,0.77
7402.00,0.77
7401.00,0.77
7400.00,0.77
7399.00,0.77
7398.00,0.76
7397.00,0.76
7396.00,0.76
7395.00,0.76
7394.00,0.76
7393.00,0.76
7392.00,0.76
7391.00,0.76
7390.00,0.75
7389.00,0.75
7388.00,0.75
7387.00,0.75
7386.00,0.75
7385.00,0.75
7384.00,0.75
7383.00,0.75
7382.00,0.75
7381.00,0.74
7380.00,0.74
7379.00,0.74
7378.00,0.74
7377.00,0.74
7376.00,0.74
7375.00,0.74
7374.00,0.74
7373.00,0.74
7372.00,0.74
7371.00,0.74
7370.00,0.74
7369.00,0.74
7368.00,0.74
7367.00,0.74
7366.00,0.74
7365.00,0.74
7364.00,0.74
7363.00,0.74
7362.00,0.74
7361.00,0.74
7360.00,0.74
7359.00,0.74
7358.00,0.74
7357.00,0.74
7356.00,0.74
7355.00,0.74
7354.00,0.74
7353.00,0.74
7352.00,0.74
7351.00,0.74
7350.00,0.74
7349.00,0.74
7348.00,0.74
7347.00,0.74
7346.00,0.74
7345.00,0.74
7344.00,0.74
7343.00,0.74
7342.00,0.74
7341.00,0.73
7340.00,0.73
7339.00,0.73
7338.00,0.73
7337.00,0.73
7336.00,0.73
7335.00,0.73
7334.00,0.73
7333.00,0.73
7332.00,0.73
7331.00,0.73
7330.00,0.73
7329.00,0.73
7328.00,0.74
7327.00,0.74
7326.00,0.74
7325.00,0.74
7324.00,0.74
7323.00,0.74
7322.00,0.74
7321.00,0.74
7320.00,0.74
7319.00,0.74
7318.00,0.74
7317.00,0.74
7316.00,0.74
7315.00,0.74
7314.00,0.73
7313.00,0.73
7312.00,0.73
7311.00,0.73
7310.00,0.73
7309.00,0.73
7308.00,0.73
7307.00,0.73
7306.00,0.73
7305.00,0.73
7304.00,0.73
7303.00,0.73
7302.00,0.73
7301.00,0.73
7300.00,0.73
7299.00,0.73
7298.00,0.73
7297.00,0.73
7296.00,0.73
7295.00,0.72
7294.00,0.72
7293.00,0.72
7292.00,0.72
7291.00,0.72
7290.00,0.72
7289.00,0.72
7288.00,0.72
7287.00,0.72
7286.00,0.72
7285.00,0.72
7284.00,0.72
7283.00,0.71
7282.00,0.71
7281.00,0.71
7280.00,0.71
7279.00,0.71
7278.00,0.71
7277.00,0.71
7276.00,0.71
7275.00,0.71
7274.00,0.70
7273.00,0.70
7272.00,0.70
7271.00,0.70
7270.00,0.70
7269.00,0.70
7268.00,0.70
7267.00,0.70
7266.00,0.70
7265.00,0.70
7264.00,0.70
7263.00,0.70
7262.00,0.70
7261.00,0.70
7260.00,0.70
7259.00,0.70
7258.00,0.70
7257.00,0.70
7256.00,0.70
7255.00,0.70
7254.00,0.70
7253.00,0.70
7252.00,0.70
7251.00,0.70
7250.00,0.70
7249.00,0.70
7248.00,0.70
7247.00,0.69
7246.00,0.69
7245.00,0.69
7244.00,0.69
7243.00,0.68
7242.00,0.68
7241.00,0.68
7240.00,0.68
7239.00,0.67
7238.00,0.67
7237.00,0.67
7236.00,0.67
7235.00,0.66
7234.00,0.66
7233.00,0.66
7232.00,0.65
7231.00,0.65
7230.00,0.65
7229.00,0.65
7228.00,0.64
7227.00,0.64
7226.00,0.64
7225.00,0.64
7224.00,0.63
7223.00,0.63
7222.00,0.63
7221.00,0.63
7220.00,0.62
7219.00,0.62
7218.00,0.62
7217.00,0.62
7216.00,0.61
7215.00,0.61
7214.00,0.61
7213.00,0.60
7212.00,0.60
7211.00,0.60
7210.00,0.60
7209.00,0.59
7208.00,0.59
7207.00,0.59
7206.00,0.59
7205.00,0.58
7204.00,0.58
7203.00,0.58
7202.00,0.58
7201.00,0.58
7200.00,0.57
7199.00,0.57
7198.00,0.57
7197.00,0.57
7196.00,0.57
7195.00,0.56
7194.00,0.56
7193.00,0.56
7192.00,0.56
7191.00,0.56
7190.00,0.55
7189.00,0.55
7188.00,0.55
7187.00,0.55
7186.00,0.54
7185.00,0.54
7184.00,0.54
7183.00,0.54
7182.00,0.53
7181.00,0.53
7180.00,0.53
7179.00,0.53
7178.00,0.53
7177.00,0.52
7176.00,0.52
7175.00,0.52
7174.00,0.52
7173.00,0.52
7172.00,0.52
7171.00,0.51
7170.00,0.51
7169.00,0.51
7168.00,0.51
7167.00,0.51
7166.00,0.51
7165.00,0.50
7164.00,0.50
7163.00,0.50
7162.00,0.50
7161.00,0.49
7160.00,0.49
7159.00,0.49
7158.00,0.49
7157.00,0.49
7156.00,0.48
7155.00,0.48
7154.00,0.48
7153.00,0.48
7152.00,0.48
7151.00,0.48
7150.00,0.47
7149.00,0.47
7148.00,0.47
7147.00,0.47
7146.00,0.47
7145.00,0.47
7144.00,0.46
7143.00,0.46
7142.00,0.46
7141.00,0.46
7140.00,0.46
7139.00,0.46
7138.00,0.45
7137.00,0.45
7136.00,0.45
7135.00,0.45
7134.00,0.45
7133.00,0.45
7132.00,0.45
7131.00,0.45
7130.00,0.44
7129.00,0.44
7128.00,0.44
7127.00,0.44
7126.00,0.44
7125.00,0.44
7124.00,0.44
7123.00,0.44
7122.00,0.44
7121.00,0.43
7120.00,0.43
7119.00,0.43
7118.00,0.43
7117.00,0.43
7116.00,0.43
7115.00,0.43
7114.00,0.43
7113.00,0.42
7112.00,0.42
7111.00,0.42
7110.00,0.42
7109.00,0.42
7108.00,0.42
7107.00,0.42
7106.00,0.41
7105.00,0.41
7104.00,0.41
7103.00,0.41
7102.00,0.41
7101.00,0.41
7100.00,0.41
7099.00,0.40
7098.00,0.40
7097.00,0.40
7096.00,0.40
7095.00,0.40
7094.00,0.40
7093.00,0.40
7092.00,0.40
7091.00,0.40
7090.00,0.40
7089.00,0.40
7088.00,0.40
7087.00,0.40
7086.00,0.40
7085.00,0.40
7084.00,0.40
7083.00,0.39
7082.00,0.39
7081.00,0.39
7080.00,0.39
7079.00,0.39
7078.00,0.39
7077.00,0.39
7076.00,0.39
7075.00,0.39
7074.00,0.39
7073.00,0.39
7072.00,0.39
7071.00,0.39
7070.00,0.39
7069.00,0.38
7068.00,0.38
7067.00,0.38
7066.00,0.38
7065.00,0.38
7064.00,0.38
7063.00,0.38
7062.00,0.38
7061.00,0.38
7060.00,0.38
7059.00,0.38
7058.00,0.38
7057.00,0.38
7056.00,0.38
7055.00,0.38
7054.00,0.38
7053.00,0.38
7052.00,0.38
7051.00,0.38
7050.00,0.38
7049.00,0.38
7048.00,0.38
7047.00,0.37
7046.00,0.37
7045.00,0.37
7044.00,0.37
7043.00,0.37
7042.00,0.37
7041.00,0.37
7040.00,0.37
7039.00,0.37
7038.00,0.37
7037.00,0.37
7036.00,0.37
7035.00,0.37
7034.00,0.37
7033.00,0.37
7032.00,0.37
7031.00,0.37
7030.00,0.37
7029.00,0.37
7028.00,0.36
7027.00,0.36
7026.00,0.36
7025.00,0.36
7024.00,0.36
7023.00,0.36
7022.00,0.36
7021.00,0.36
7020.00,0.36
7019.00,0.36
7018.00,0.36
7017.00,0.36
7016.00,0.36
7015.00,0.36
7014.00,0.36
7013.00,0.36
7012.00,0.36
7011.00,0.36
7010.00,0.36
7009.00,0.36
7008.00,0.36
7007.00,0.36
7006.00,0.36
7005.00,0.36
7004.00,0.36
7003.00,0.36
7002.00,0.36
7001.00,0.36
7000.00,0.36
6999.00,0.36
6998.00,0.36
6997.00,0.36
6996.00,0.36
6995.00,0.36
6994.00,0.36
6993.00,0.36
6992.00,0.36
6991.00,0.36
6990.00,0.36
6989.00,0.36
6988.00,0.36
6987.00,0.36
6986.00,0.36
6985.00,0.36
6984.00,0.36
6983.00,0.36
6982.00,0.36
6981.00,0.36
6980.00,0.36
6979.00,0.36
6978.00,0.36
6977.00,0.36
6976.00,0.36
6975.00,0.36
6974.00,0.35
6973.00,0.35
6972.00,0.35
6971.00,0.35
6970.00,0.35
6969.00,0.35
6968.00,0.35
6967.00,0.35
6966.00,0.35
6965.00,0.35
6964.00,0.35
6963.00,0.35
6962.00,0.35
6961.00,0.36
6960.00,0.36
6959.00,0.36
6958.00,0.36
6957.00,0.36
6956.00,0.36
6955.00,0.36
6954.00,0.36
6953.00,0.36
6952.00,0.36
6951.00,0.36
6950.00,0.36
6949.00,0.35
6948.00,0.35
6947.00,0.35
6946.00,0.35
6945.00,0.35
6944.00,0.35
6943.00,0.35
6942.00,0.35
6941.00,0.35
6940.00,0.35
6939.00,0.35
6938.00,0.35
6937.00,0.35
6936.00,0.35
6935.00,0.35
6934.00,0.35
6933.00,0.35
6932.00,0.35
6931.00,0.35
6930.00,0.35
6929.00,0.35
6928.00,0.35
6927.00,0.35
6926.00,0.35
6925.00,0.35
6924.00,0.35
6923.00,0.35
6922.00,0.35
6921.00,0.36
6920.00,0.36
6919.00,0.36
6918.00,0.36
6917.00,0.36
6916.00,0.36
6915.00,0.36
6914.00,0.36
6913.00,0.36
6912.00,0.36
6911.00,0.36
6910.00,0.36
6909.00,0.36
6908.00,0.36
6907.00,0.36
6906.00,0.35
6905.00,0.35
6904.00,0.35
6903.00,0.35
6902.00,0.35
6901.00,0.35
6900.00,0.35
6899.00,0.35
6898.00,0.35
6897.00,0.35
6896.00,0.35
6895.00,0.35
6894.00,0.35
6893.00,0.35
6892.00,0.35
6891.00,0.35
6890.00,0.35
6889.00,0.35
6888.00,0.35
6887.00,0.36
6886.00,0.36
6885.00,0.36
6884.00,0.36
6883.00,0.36
6882.00,0.36
6881.00,0.36
6880.00,0.36
6879.00,0.36
6878.00,0.36
6877.00,0.36
6876.00,0.36
6875.00,0.35
6874.00,0.35
6873.00,0.35
6872.00,0.35
6871.00,0.35
6870.00,0.36
6869.00,0.36
6868.00,0.36
6867.00,0.36
6866.00,0.36
6865.00,0.36
6864.00,0.36
6863.00,0.36
6862.00,0.36
6861.00,0.36
6860.00,0.36
6859.00,0.36
6858.00,0.36
6857.00,0.36
6856.00,0.36
6855.00,0.36
6854.00,0.36
6853.00,0.36
6852.00,0.36
6851.00,0.36
6850.00,0.36
6849.00,0.36
6848.00,0.36
6847.00,0.36
6846.00,0.36
6845.00,0.36
6844.00,0.36
6843.00,0.36
6842.00,0.36
6841.00,0.36
6840.00,0.36
6839.00,0.36
6838.00,0.36
6837.00,0.36
6836.00,0.36
6835.00,0.36
6834.00,0.36
6833.00,0.36
6832.00,0.36
6831.00,0.36
6830.00,0.36
6829.00,0.36
6828.00,0.36
6827.00,0.36
6826.00,0.36
6825.00,0.36
6824.00,0.36
6823.00,0.36
6822.00,0.36
6821.00,0.36
6820.00,0.36
6819.00,0.36
6818.00,0.36
6817.00,0.36
6816.00,0.36
6815.00,0.36
6814.00,0.36
6813.00,0.36
6812.00,0.36
6811.00,0.36
6810.00,0.36
6809.00,0.36
6808.00,0.36
6807.00,0.36
6806.00,0.36
6805.00,0.36
6804.00,0.36
6803.00,0.36
6802.00,0.36
6801.00,0.36
6800.00,0.36
6799.00,0.36
6798.00,0.36
6797.00,0.36
6796.00,0.36
6795.00,0.36
6794.00,0.36
6793.00,0.36
6792.00,0.36
6791.00,0.36
6790.00,0.36
6789.00,0.36
6788.00,0.36
6787.00,0.36
6786.00,0.36
6785.00,0.36
6784.00,0.36
6783.00,0.36
6782.00,0.36
6781.00,0.36
6780.00,0.36
6779.00,0.36
6778.00,0.36
6777.00,0.36
6776.00,0.36
6775.00,0.36
6774.00,0.36
6773.00,0.36
6772.00,0.37
6771.00,0.37
6770.00,0.37
6769.00,0.37
6768.00,0.37
6767.00,0.37
6766.00,0.37
6765.00,0.37
6764.00,0.37
6763.00,0.37
6762.00,0.37
6761.00,0.37
6760.00,0.37
6759.00,0.38
6758.00,0.38
6757.00,0.38
6756.00,0.38
6755.00,0.38
6754.00,0.38
6753.00,0.38
6752.00,0.38
6751.00,0.38
6750.00,0.38
6749.00,0.38
6748.00,0.38
6747.00,0.38
6746.00,0.38
6745.00,0.38
6744.00,0.38
6743.00,0.38
6742.00,0.38
6741.00,0.38
6740.00,0.38
6739.00,0.38
6738.00,0.38
6737.00,0.38
6736.00,0.38
6735.00,0.38
6734.00,0.38
6733.00,0.38
6732.00,0.38
6731.00,0.38
6730.00,0.38
6729.00,0.38
6728.00,0.38
6727.00,0.38
6726.00,0.38
6725.00,0.38
6724.00,0.38
6723.00,0.38
6722.00,0.39
6721.00,0.39
6720.00,0.39
6719.00,0.39
6718.00,0.39
6717.00,0.39
6716.00,0.39
6715.00,0.39
6714.00,0.39
6713.00,0.39
6712.00,0.39
6711.00,0.39
6710.00,0.39
6709.00,0.39
6708.00,0.39
6707.00,0.39
6706.00,0.39
6705.00,0.39
6704.00,0.39
6703.00,0.39
6702.00,0.39
6701.00,0.39
6700.00,0.39
6699.00,0.39
6698.00,0.39
6697.00,0.39
6696.00,0.39
6695.00,0.39
6694.00,0.39
6693.00,0.39
6692.00,0.39
6691.00,0.39
6690.00,0.39
6689.00,0.40
6688.00,0.40
6687.00,0.40
6686.00,0.40
6685.00,0.40
6684.00,0.40
6683.00,0.40
6682.00,0.40
6681.00,0.40
6680.00,0.40
6679.00,0.40
6678.00,0.41
6677.00,0.41
6676.00,0.41
6675.00,0.41
6674.00,0.41
6673.00,0.41
6672.00,0.41
6671.00,0.41
6670.00,0.41
6669.00,0.42
6668.00,0.42
6667.00,0.42
6666.00,0.42
6665.00,0.42
6664.00,0.42
6663.00,0.42
6662.00,0.42
6661.00,0.42
6660.00,0.42
6659.00,0.42
6658.00,0.42
6657.00,0.42
6656.00,0.42
6655.00,0.42
6654.00,0.42
6653.00,0.42
6652.00,0.42
6651.00,0.42
6650.00,0.42
6649.00,0.42
6648.00,0.42
6647.00,0.42
6646.00,0.42
6645.00,0.42
6644.00,0.42
6643.00,0.42
6642.00,0.42
6641.00,0.42
6640.00,0.42
6639.00,0.42
6638.00,0.42
6637.00,0.42
6636.00,0.42
6635.00,0.42
6634.00,0.42
6633.00,0.42
6632.00,0.42
6631.00,0.42
6630.00,0.42
6629.00,0.42
6628.00,0.42
6627.00,0.42
6626.00,0.43
6625.00,0.43
6624.00,0.43
6623.00,0.43
6622.00,0.43
6621.00,0.43
6620.00,0.43
6619.00,0.43
6618.00,0.43
6617.00,0.43
6616.00,0.43
6615.00,0.43
6614.00,0.43
6613.00,0.43
6612.00,0.43
6611.00,0.43
6610.00,0.43
6609.00,0.43
6608.00,0.43
6607.00,0.43
6606.00,0.44
6605.00,0.44
6604.00,0.44
6603.00,0.44
6602.00,0.44
6601.00,0.44
6600.00,0.44
6599.00,0.44
6598.00,0.44
6597.00,0.44
6596.00,0.44
6595.00,0.45
6594.00,0.45
6593.00,0.45
6592.00,0.45
6591.00,0.45
6590.00,0.45
6589.00,0.45
6588.00,0.45
6587.00,0.45
6586.00,0.45
6585.00,0.45
6584.00,0.45
6583.00,0.45
6582.00,0.45
6581.00,0.45
6580.00,0.46
6579.00,0.46
6578.00,0.46
6577.00,0.46
6576.00,0.46
6575.00,0.46
6574.00,0.46
6573.00,0.46
6572.00,0.46
6571.00,0.46
6570.00,0.46
6569.00,0.46
6568.00,0.46
6567.00,0.46
6566.00,0.47
6565.00,0.47
6564.00,0.47
6563.00,0.47
6562.00,0.47
6561.00,0.47
6560.00,0.47
6559.00,0.47
6558.00,0.47
6557.00,0.47
6556.00,0.47
6555.00,0.47
6554.00,0.47
6553.00,0.47
6552.00,0.47
6551.00,0.47
6550.00,0.47
6549.00,0.47
6548.00,0.47
6547.00,0.47
6546.00,0.47
6545.00,0.47
6544.00,0.47
6543.00,0.47
6542.00,0.47
6541.00,0.48
6540.00,0.48
6539.00,0.48
6538.00,0.48
6537.00,0.48
6536.00,0.48
6535.00,0.48
6534.00,0.48
6533.00,0.48
6532.00,0.48
6531.00,0.48
6530.00,0.48
6529.00,0.49
6528.00,0.49
6527.00,0.49
6526.00,0.49
6525.00,0.49
6524.00,0.49
6523.00,0.49
6522.00,0.49
6521.00,0.49
6520.00,0.49
6519.00,0.49
6518.00,0.49
6517.00,0.49
6516.00,0.49
6515.00,0.50
6514.00,0.50
6513.00,0.50
6512.00,0.50
6511.00,0.50
6510.00,0.50
6509.00,0.50
6508.00,0.50
6507.00,0.50
6506.00,0.50
6505.00,0.50
6504.00,0.50
6503.00,0.50
6502.00,0.51
6501.00,0.51
6500.00,0.51
6499.00,0.51
6498.00,0.51
6497.00,0.51
6496.00,0.51
6495.00,0.51
6494.00,0.51
6493.00,0.51
6492.00,0.51
6491.00,0.51
6490.00,0.51
6489.00,0.51
6488.00,0.51
6487.00,0.51
6486.00,0.51
6485.00,0.51
6484.00,0.51
6483.00,0.51
6482.00,0.51
6481.00,0.51
6480.00,0.51
6479.00,0.51
6478.00,0.51
6477.00,0.51
6476.00,0.51
6475.00,0.51
6474.00,0.51
6473.00,0.51
6472.00,0.51
6471.00,0.51
6470.00,0.51
6469.00,0.51
6468.00,0.51
6467.00,0.51
6466.00,0.51
6465.00,0.51
6464.00,0.51
6463.00,0.51
6462.00,0.51
6461.00,0.51
6460.00,0.51
6459.00,0.51
6458.00,0.51
6457.00,0.52
6456.00,0.52
6455.00,0.52
6454.00,0.52
6453.00,0.52
6452.00,0.52
6451.00,0.52
6450.00,0.52
6449.00,0.52
6448.00,0.52
6447.00,0.52
6446.00,0.52
6445.00,0.52
6444.00,0.53
6443.00,0.53
6442.00,0.53
6441.00,0.53
6440.00,0.53
6439.00,0.53
6438.00,0.53
6437.00,0.53
6436.00,0.53
6435.00,0.53
6434.00,0.53
6433.00,0.53
6432.00,0.53
6431.00,0.53
6430.00,0.53
6429.00,0.53
6428.00,0.53
6427.00,0.53
6426.00,0.53
6425.00,0.53
6424.00,0.53
6423.00,0.53
6422.00,0.54
6421.00,0.54
6420.00,0.54
6419.00,0.54
6418.00,0.54
6417.00,0.54
6416.00,0.54
6415.00,0.54
6414.00,0.54
6413.00,0.54
6412.00,0.55
6411.00,0.55
6410.00,0.55
6409.00,0.55
6408.00,0.55
6407.00,0.55
6406.00,0.55
6405.00,0.55
6404.00,0.55
6403.00,0.56
6402.00,0.56
6401.00,0.56
6400.00,0.56
6399.00,0.56
6398.00,0.56
6397.00,0.56
6396.00,0.56
6395.00,0.56
6394.00,0.56
6393.00,0.56
6392.00,0.56
6391.00,0.56
6390.00,0.56
6389.00,0.56
6388.00,0.56
6387.00,0.56
6386.00,0.56
6385.00,0.56
6384.00,0.56
6383.00,0.56
6382.00,0.56
6381.00,0.56
6380.00,0.56
6379.00,0.56
6378.00,0.56
6377.00,0.56
6376.00,0.56
6375.00,0.57
6374.00,0.57
6373.00,0.57
6372.00,0.57
6371.00,0.57
6370.00,0.57
6369.00,0.57
6368.00,0.57
6367.00,0.57
6366.00,0.57
6365.00,0.57
6364.00,0.57
6363.00,0.57
6362.00,0.57
6361.00,0.57
6360.00,0.57
6359.00,0.58
6358.00,0.58
6357.00,0.58
6356.00,0.58
6355.00,0.58
6354.00,0.58
6353.00,0.58
6352.00,0.58
6351.00,0.58
6350.00,0.58
6349.00,0.58
6348.00,0.58
6347.00,0.58
6346.00,0.58
6345.00,0.58
6344.00,0.58
6343.00,0.59
6342.00,0.59
6341.00,0.59
6340.00,0.59
6339.00,0.59
6338.00,0.59
6337.00,0.59
6336.00,0.59
6335.00,0.59
6334.00,0.59
6333.00,0.59
6332.00,0.59
6331.00,0.59
6330.00,0.59
6329.00,0.59
6328.00,0.59
6327.00,0.59
6326.00,0.59
6325.00,0.59
6324.00,0.59
6323.00,0.59
6322.00,0.59
6321.00,0.59
6320.00,0.59
6319.00,0.59
6318.00,0.60
6317.00,0.60
6316.00,0.60
6315.00,0.60
6314.00,0.60
6313.00,0.60
6312.00,0.60
6311.00,0.60
6310.00,0.60
6309.00,0.61
6308.00,0.61
6307.00,0.61
6306.00,0.61
6305.00,0.61
6304.00,0.61
6303.00,0.61
6302.00,0.61
6301.00,0.61
6300.00,0.61
6299.00,0.61
6298.00,0.61
6297.00,0.62
6296.00,0.62
6295.00,0.62
6294.00,0.62
6293.00,0.62
6292.00,0.62
6291.00,0.62
6290.00,0.62
6289.00,0.62
6288.00,0.62
6287.00,0.62
6286.00,0.63
6285.00,0.63
6284.00,0.63
6283.00,0.63
6282.00,0.63
6281.00,0.63
6280.00,0.63
6279.00,0.63
6278.00,0.63
6277.00,0.63
6276.00,0.63
6275.00,0.63
6274.00,0.63
6273.00,0.63
6272.00,0.63
6271.00,0.63
6270.00,0.64
6269.00,0.64
6268.00,0.64
6267.00,0.64
6266.00,0.64
6265.00,0.64
6264.00,0.64
6263.00,0.64
6262.00,0.64
6261.00,0.64
6260.00,0.64
6259.00,0.65
6258.00,0.65
6257.00,0.65
6256.00,0.65
6255.00,0.65
6254.00,0.65
6253.00,0.65
6252.00,0.65
6251.00,0.65
6250.00,0.65
6249.00,0.65
6248.00,0.65
6247.00,0.65
6246.00,0.65
6245.00,0.65
6244.00,0.65
6243.00,0.66
6242.00,0.66
6241.00,0.66
6240.00,0.66
6239.00,0.66
6238.00,0.66
6237.00,0.66
6236.00,0.66
6235.00,0.66
6234.00,0.66
6233.00,0.66
6232.00,0.66
6231.00,0.67
6230.00,0.67
6229.00,0.67
6228.00,0.67
6227.00,0.67
6226.00,0.67
6225.00,0.67
6224.00,0.67
6223.00,0.67
6222.00,0.67
6221.00,0.68
6220.00,0.68
6219.00,0.68
6218.00,0.68
6217.00,0.68
6216.00,0.68
6215.00,0.68
6214.00,0.68
6213.00,0.68
6212.00,0.68
6211.00,0.68
6210.00,0.68
6209.00,0.68
6208.00,0.68
6207.00,0.69
6206.00,0.69
6205.00,0.69
6204.00,0.69
6203.00,0.69
6202.00,0.69
6201.00,0.69
6200.00,0.69
6199.00,0.69
6198.00,0.69
6197.00,0.69
6196.00,0.69
6195.00,0.69
6194.00,0.69
6193.00,0.69
6192.00,0.70
6191.00,0.70
6190.00,0.70
6189.00,0.70
6188.00,0.70
6187.00,0.70
6186.00,0.70
6185.00,0.70
6184.00,0.70
6183.00,0.70
6182.00,0.70
6181.00,0.70
6180.00,0.70
6179.00,0.71
6178.00,0.71
6177.00,0.71
6176.00,0.71
6175.00,0.71
6174.00,0.71
6173.00,0.71
6172.00,0.71
6171.00,0.71
6170.00,0.71
6169.00,0.71
6168.00,0.71
6167.00,0.71
6166.00,0.71
6165.00,0.71
6164.00,0.71
6163.00,0.72
6162.00,0.72
6161.00,0.72
6160.00,0.72
6159.00,0.72
6158.00,0.72
6157.00,0.72
6156.00,0.72
6155.00,0.72
6154.00,0.72
6153.00,0.72
6152.00,0.72
6151.00,0.72
6150.00,0.72
6149.00,0.73
6148.00,0.73
6147.00,0.73
6146.00,0.73
6145.00,0.73
6144.00,0.73
6143.00,0.73
6142.00,0.74
6141.00,0.74
6140.00,0.74
6139.00,0.74
6138.00,0.74
6137.00,0.74
6136.00,0.74
6135.00,0.74
6134.00,0.75
6133.00,0.75
6132.00,0.75
6131.00,0.75
6130.00,0.75
6129.00,0.75
6128.00,0.75
6127.00,0.75
6126.00,0.75
6125.00,0.75
6124.00,0.75
6123.00,0.75
6122.00,0.75
6121.00,0.76
6120.00,0.76
6119.00,0.76
6118.00,0.76
6117.00,0.76
6116.00,0.76
6115.00,0.76
6114.00,0.76
6113.00,0.76
6112.00,0.76
6111.00,0.76
6110.00,0.76
6109.00,0.77
6108.00,0.77
6107.00,0.77
6106.00,0.77
6105.00,0.77
6104.00,0.77
6103.00,0.77
6102.00,0.77
6101.00,0.77
6100.00,0.77
6099.00,0.77
6098.00,0.77
6097.00,0.77
6096.00,0.77
6095.00,0.77
6094.00,0.77
6093.00,0.78
6092.00,0.78
6091.00,0.78
6090.00,0.78
6089.00,0.78
6088.00,0.78
6087.00,0.78
6086.00,0.78
6085.00,0.78
6084.00,0.78
6083.00,0.78
6082.00,0.78
6081.00,0.78
6080.00,0.78
6079.00,0.78
6078.00,0.78
6077.00,0.78
6076.00,0.78
6075.00,0.79
6074.00,0.79
6073.00,0.79
6072.00,0.79
6071.00,0.79
6070.00,0.79
6069.00,0.79
6068.00,0.79
6067.00,0.79
6066.00,0.79
6065.00,0.79
6064.00,0.79
6063.00,0.79
6062.00,0.79
6061.00,0.80
6060.00,0.80
6059.00,0.80
6058.00,0.80
6057.00,0.80
6056.00,0.80
6055.00,0.80
6054.00,0.80
6053.00,0.80
6052.00,0.80
6051.00,0.80
6050.00,0.81
6049.00,0.81
6048.00,0.81
6047.00,0.81
6046.00,0.81
6045.00,0.81
6044.00,0.81
6043.00,0.81
6042.00,0.81
6041.00,0.81
6040.00,0.81
6039.00,0.81
6038.00,0.81
6037.00,0.81
6036.00,0.81
6035.00,0.81
6034.00,0.81
6033.00,0.81
6032.00,0.81
6031.00,0.81
6030.00,0.81
6029.00,0.81
6028.00,0.81
6027.00,0.81
6026.00,0.81
6025.00,0.81
6024.00,0.81
6023.00,0.81
6022.00,0.81
6021.00,0.81
6020.00,0.81
6019.00,0.81
6018.00,0.81
6017.00,0.81
6016.00,0.81
6015.00,0.81
6014.00,0.81
6013.00,0.81
6012.00,0.81
6011.00,0.81
6010.00,0.81
6009.00,0.81
6008.00,0.81
6007.00,0.81
6006.00,0.81
6005.00,0.81
6004.00,0.81
6003.00,0.81
6002.00,0.81
6001.00,0.81
6000.00,0.81
5999.00,0.81
5998.00,0.81
5997.00,0.81
5996.00,0.81
5995.00,0.81
5994.00,0.81
5993.00,0.81
5992.00,0.81
5991.00,0.81
5990.00,0.81
5989.00,0.81
5988.00,0.81
5987.00,0.81
5986.00,0.81
5985.00,0.80
5984.00,0.80
5983.00,0.80
5982.00,0.80
5981.00,0.80
5980.00,0.80
5979.00,0.80
5978.00,0.79
5977.00,0.79
5976.00,0.79
5975.00,0.79
5974.00,0.79
5973.00,0.78
5972.00,0.78
5971.00,0.78
5970.00,0.77
5969.00,0.77
5968.00,0.77
5967.00,0.77
5966.00,0.76
5965.00,0.76
5964.00,0.76
5963.00,0.76
5962.00,0.75
5961.00,0.75
5960.00,0.75
5959.00,0.74
5958.00,0.74
5957.00,0.74
5956.00,0.74
5955.00,0.73
5954.00,0.73
5953.00,0.73
5952.00,0.73
5951.00,0.73
5950.00,0.72
5949.00,0.72
5948.00,0.72
5947.00,0.72
5946.00,0.72
5945.00,0.72
5944.00,0.72
5943.00,0.71
5942.00,0.71
5941.00,0.71
5940.00,0.71
5939.00,0.71
5938.00,0.71
5937.00,0.71
5936.00,0.71
5935.00,0.71
5934.00,0.71
5933.00,0.71
5932.00,0.71
5931.00,0.70
5930.00,0.70
5929.00,0.70
5928.00,0.70
5927.00,0.70
5926.00,0.70
5925.00,0.70
5924.00,0.70
5923.00,0.70
5922.00,0.70
5921.00,0.69
5920.00,0.69
5919.00,0.69
5918.00,0.69
5917.00,0.69
5916.00,0.69
5915.00,0.69
5914.00,0.69
5913.00,0.69
5912.00,0.69
5911.00,0.69
5910.00,0.69
5909.00,0.69
5908.00,0.69
5907.00,0.69
5906.00,0.69
5905.00,0.69
5904.00,0.69
5903.00,0.69
5902.00,0.69
5901.00,0.69
5900.00,0.69
5899.00,0.69
5898.00,0.69
5897.00,0.69
5896.00,0.69
5895.00,0.69
5894.00,0.69
5893.00,0.69
5892.00,0.69
5891.00,0.70
5890.00,0.70
5889.00,0.70
5888.00,0.70
5887.00,0.70
5886.00,0.70
5885.00,0.71
5884.00,0.71
5883.00,0.71
5882.00,0.71
5881.00,0.71
5880.00,0.71
5879.00,0.72
5878.00,0.72
5877.00,0.72
5876.00,0.72
5875.00,0.72
5874.00,0.72
5873.00,0.72
5872.00,0.72
5871.00,0.73
5870.00,0.73
5869.00,0.73
5868.00,0.73
5867.00,0.73
5866.00,0.73
5865.00,0.73
5864.00,0.73
5863.00,0.73
5862.00,0.73
5861.00,0.73
5860.00,0.73
5859.00,0.74
5858.00,0.74
5857.00,0.74
5856.00,0.74
5855.00,0.74
5854.00,0.74
5853.00,0.74
5852.00,0.74
5851.00,0.74
5850.00,0.74
5849.00,0.74
5848.00,0.74
5847.00,0.74
5846.00,0.74
5845.00,0.74
5844.00,0.74
5843.00,0.74
5842.00,0.74
5841.00,0.74
5840.00,0.74
5839.00,0.74
5838.00,0.74
5837.00,0.74
5836.00,0.74
5835.00,0.73
5834.00,0.73
5833.00,0.73
5832.00,0.73
5831.00,0.73
5830.00,0.73
5829.00,0.73
5828.00,0.73
5827.00,0.73
5826.00,0.73
5825.00,0.73
5824.00,0.73
5823.00,0.73
5822.00,0.73
5821.00,0.73
5820.00,0.73
5819.00,0.73
5818.00,0.73
5817.00,0.73
5816.00,0.73
5815.00,0.73
5814.00,0.74
5813.00,0.74
5812.00,0.74
5811.00,0.74
5810.00,0.74
5809.00,0.74
5808.00,0.74
5807.00,0.74
5806.00,0.73
5805.00,0.73
5804.00,0.73
5803.00,0.73
5802.00,0.73
5801.00,0.73
5800.00,0.73
5799.00,0.73
5798.00,0.73
5797.00,0.73
5796.00,0.73
5795.00,0.72
5794.00,0.72
5793.00,0.72
5792.00,0.72
5791.00,0.72
5790.00,0.72
5789.00,0.72
5788.00,0.71
5787.00,0.71
5786.00,0.71
5785.00,0.71
5784.00,0.71
5783.00,0.71
5782.00,0.71
5781.00,0.71
5780.00,0.71
5779.00,0.71
5778.00,0.71
5777.00,0.71
5776.00,0.71
5775.00,0.71
5774.00,0.71
5773.00,0.71
5772.00,0.71
5771.00,0.71
5770.00,0.71
5769.00,0.71
5768.00,0.71
5767.00,0.71
5766.00,0.71
5765.00,0.71
5764.00,0.71
5763.00,0.71
5762.00,0.71
5761.00,0.72
5760.00,0.72
5759.00,0.72
5758.00,0.72
5757.00,0.72
5756.00,0.72
5755.00,0.72
5754.00,0.72
5753.00,0.72
5752.00,0.73
5751.00,0.73
5750.00,0.73
5749.00,0.73
5748.00,0.73
5747.00,0.73
5746.00,0.74
5745.00,0.74
5744.00,0.74
5743.00,0.74
5742.00,0.74
5741.00,0.74
5740.00,0.74
5739.00,0.74
5738.00,0.74
5737.00,0.74
5736.00,0.74
5735.00,0.75
5734.00,0.75
5733.00,0.75
5732.00,0.75
5731.00,0.75
5730.00,0.75
5729.00,0.75
5728.00,0.75
5727.00,0.75
5726.00,0.75
5725.00,0.75
5724.00,0.75
5723.00,0.75
5722.00,0.75
5721.00,0.75
5720.00,0.75
5719.00,0.75
5718.00,0.74
5717.00,0.74
5716.00,0.74
5715.00,0.74
5714.00,0.74
5713.00,0.74
5712.00,0.74
5711.00,0.74
5710.00,0.74
5709.00,0.74
5708.00,0.74
5707.00,0.74
5706.00,0.74
5705.00,0.73
5704.00,0.73
5703.00,0.73
5702.00,0.73
5701.00,0.73
5700.00,0.73
5699.00,0.73
5698.00,0.73
5697.00,0.73
5696.00,0.73
5695.00,0.73
5694.00,0.73
5693.00,0.73
5692.00,0.73
5691.00,0.72
5690.00,0.72
5689.00,0.72
5688.00,0.72
5687.00,0.72
5686.00,0.72
5685.00,0.72
5684.00,0.72
5683.00,0.72
5682.00,0.72
5681.00,0.72
5680.00,0.72
5679.00,0.72
5678.00,0.72
5677.00,0.72
5676.00,0.72
5675.00,0.72
5674.00,0.72
5673.00,0.72
5672.00,0.72
5671.00,0.72
5670.00,0.72
5669.00,0.72
5668.00,0.72
5667.00,0.72
5666.00,0.72
5665.00,0.72
5664.00,0.72
5663.00,0.72
5662.00,0.72
5661.00,0.72
5660.00,0.72
5659.00,0.72
5658.00,0.72
5657.00,0.73
5656.00,0.73
5655.00,0.73
5654.00,0.73
5653.00,0.73
5652.00,0.73
5651.00,0.73
5650.00,0.73
5649.00,0.73
5648.00,0.73
5647.00,0.73
5646.00,0.73
5645.00,0.73
5644.00,0.73
5643.00,0.73
5642.00,0.73
5641.00,0.73
5640.00,0.73
5639.00,0.73
5638.00,0.73
5637.00,0.73
5636.00,0.74
5635.00,0.74
5634.00,0.74
5633.00,0.74
5632.00,0.74
5631.00,0.74
5630.00,0.74
5629.00,0.74
5628.00,0.74
5627.00,0.74
5626.00,0.74
5625.00,0.74
5624.00,0.74
5623.00,0.74
5622.00,0.74
5621.00,0.74
5620.00,0.74
5619.00,0.74
5618.00,0.74
5617.00,0.74
5616.00,0.74
5615.00,0.75
5614.00,0.75
5613.00,0.75
5612.00,0.75
5611.00,0.75
5610.00,0.75
5609.00,0.75
5608.00,0.75
5607.00,0.75
5606.00,0.75
5605.00,0.75
5604.00,0.75
5603.00,0.75
5602.00,0.75
5601.00,0.76
5600.00,0.76
5599.00,0.76
5598.00,0.76
5597.00,0.76
5596.00,0.76
5595.00,0.76
5594.00,0.76
5593.00,0.76
5592.00,0.76
5591.00,0.76
5590.00,0.76
5589.00,0.76
5588.00,0.77
5587.00,0.77
5586.00,0.77
5585.00,0.77
5584.00,0.77
5583.00,0.77
5582.00,0.77
5581.00,0.77
5580.00,0.77
5579.00,0.77
5578.00,0.77
5577.00,0.77
5576.00,0.77
5575.00,0.77
5574.00,0.77
5573.00,0.77
5572.00,0.77
5571.00,0.78
5570.00,0.78
5569.00,0.78
5568.00,0.78
5567.00,0.78
5566.00,0.78
5565.00,0.78
5564.00,0.78
5563.00,0.78
5562.00,0.78
5561.00,0.78
5560.00,0.78
5559.00,0.78
5558.00,0.78
5557.00,0.78
5556.00,0.79
5555.00,0.79
5554.00,0.79
5553.00,0.79
5552.00,0.79
5551.00,0.79
5550.00,0.79
5549.00,0.79
5548.00,0.79
5547.00,0.79
5546.00,0.79
5545.00,0.79
5544.00,0.79
5543.00,0.79
5542.00,0.80
5541.00,0.80
5540.00,0.80
5539.00,0.80
5538.00,0.80
5537.00,0.80
5536.00,0.80
5535.00,0.80
5534.00,0.80
5533.00,0.80
5532.00,0.80
5531.00,0.80
5530.00,0.80
5529.00,0.80
5528.00,0.80
5527.00,0.80
5526.00,0.80
5525.00,0.80
5524.00,0.80
5523.00,0.81
5522.00,0.81
5521.00,0.81
5520.00,0.81
5519.00,0.81
5518.00,0.81
5517.00,0.81
5516.00,0.81
5515.00,0.81
5514.00,0.81
5513.00,0.81
5512.00,0.81
5511.00,0.81
5510.00,0.81
5509.00,0.81
5508.00,0.81
5507.00,0.81
5506.00,0.81
5505.00,0.81
5504.00,0.81
5503.00,0.81
5502.00,0.81
5501.00,0.81
5500.00,0.81
5499.00,0.81
5498.00,0.81
5497.00,0.81
5496.00,0.81
5495.00,0.81
5494.00,0.81
5493.00,0.81
5492.00,0.81
5491.00,0.81
5490.00,0.81
5489.00,0.81
5488.00,0.81
5487.00,0.81
5486.00,0.82
5485.00,0.82
5484.00,0.82
5483.00,0.82
5482.00,0.82
5481.00,0.82
5480.00,0.82
5479.00,0.82
5478.00,0.82
5477.00,0.82
5476.00,0.82
5475.00,0.82
5474.00,0.82
5473.00,0.82
5472.00,0.82
5471.00,0.82
5470.00,0.82
5469.00,0.83
5468.00,0.83
5467.00,0.83
5466.00,0.83
5465.00,0.83
5464.00,0.83
5463.00,0.83
5462.00,0.83
5461.00,0.83
5460.00,0.83
5459.00,0.83
5458.00,0.83
5457.00,0.83
5456.00,0.83
5455.00,0.83
5454.00,0.83
5453.00,0.83
5452.00,0.83
5451.00,0.83
5450.00,0.83
5449.00,0.83
5448.00,0.83
5447.00,0.83
5446.00,0.83
5445.00,0.83
5444.00,0.83
5443.00,0.83
5442.00,0.83
5441.00,0.83
5440.00,0.83
5439.00,0.83
5438.00,0.82
5437.00,0.82
5436.00,0.82
5435.00,0.82
5434.00,0.82
5433.00,0.82
5432.00,0.82
5431.00,0.82
5430.00,0.82
5429.00,0.82
5428.00,0.82
5427.00,0.83
5426.00,0.83
5425.00,0.83
5424.00,0.83
5423.00,0.83
5422.00,0.83
5421.00,0.83
5420.00,0.83
5419.00,0.83
5418.00,0.83
5417.00,0.83
5416.00,0.83
5415.00,0.82
5414.00,0.82
5413.00,0.82
5412.00,0.82
5411.00,0.82
5410.00,0.82
5409.00,0.82
5408.00,0.82
5407.00,0.82
5406.00,0.82
5405.00,0.82
5404.00,0.82
5403.00,0.82
5402.00,0.82
5401.00,0.81
5400.00,0.81
5399.00,0.81
5398.00,0.81
5397.00,0.81
5396.00,0.81
5395.00,0.81
5394.00,0.81
5393.00,0.81
5392.00,0.80
5391.00,0.80
5390.00,0.80
5389.00,0.80
5388.00,0.80
5387.00,0.80
5386.00,0.79
5385.00,0.79
5384.00,0.79
5383.00,0.79
5382.00,0.78
5381.00,0.78
5380.00,0.78
5379.00,0.78
5378.00,0.77
5377.00,0.77
5376.00,0.77
5375.00,0.77
5374.00,0.76
5373.00,0.76
5372.00,0.76
5371.00,0.75
5370.00,0.75
5369.00,0.75
5368.00,0.75
5367.00,0.74
5366.00,0.74
5365.00,0.74
5364.00,0.73
5363.00,0.73
5362.00,0.73
5361.00,0.72
5360.00,0.72
5359.00,0.72
5358.00,0.71
5357.00,0.71
5356.00,0.70
5355.00,0.70
5354.00,0.69
5353.00,0.69
5352.00,0.68
5351.00,0.68
5350.00,0.67
5349.00,0.67
5348.00,0.66
5347.00,0.66
5346.00,0.65
5345.00,0.65
5344.00,0.64
5343.00,0.64
5342.00,0.63
5341.00,0.63
5340.00,0.62
5339.00,0.62
5338.00,0.61
5337.00,0.61
5336.00,0.60
5335.00,0.60
5334.00,0.60
5333.00,0.59
5332.00,0.59
5331.00,0.58
5330.00,0.58
5329.00,0.58
5328.00,0.57
5327.00,0.57
5326.00,0.56
5325.00,0.56
5324.00,0.56
5323.00,0.55
5322.00,0.55
5321.00,0.55
5320.00,0.54
5319.00,0.54
5318.00,0.54
5317.00,0.53
5316.00,0.53
5315.00,0.53
5314.00,0.52
5313.00,0.52
5312.00,0.52
5311.00,0.52
5310.00,0.51
5309.00,0.51
5308.00,0.51
5307.00,0.51
5306.00,0.50
5305.00,0.50
5304.00,0.50
5303.00,0.50
5302.00,0.50
5301.00,0.50
5300.00,0.49
5299.00,0.49
5298.00,0.49
5297.00,0.49
5296.00,0.49
5295.00,0.49
5294.00,0.49
5293.00,0.49
5292.00,0.49
5291.00,0.49
5290.00,0.49
5289.00,0.48
5288.00,0.48
5287.00,0.48
5286.00,0.48
5285.00,0.48
5284.00,0.48
5283.00,0.48
5282.00,0.48
5281.00,0.48
5280.00,0.48
5279.00,0.48
5278.00,0.48
5277.00,0.48
5276.00,0.48
5275.00,0.48
5274.00,0.48
5273.00,0.48
5272.00,0.48
5271.00,0.48
5270.00,0.48
5269.00,0.48
5268.00,0.48
5267.00,0.48
5266.00,0.48
5265.00,0.48
5264.00,0.48
5263.00,0.48
5262.00,0.48
5261.00,0.48
5260.00,0.48
5259.00,0.48
5258.00,0.48
5257.00,0.48
5256.00,0.48
5255.00,0.48
5254.00,0.48
5253.00,0.48
5252.00,0.48
5251.00,0.48
5250.00,0.48
5249.00,0.48
5248.00,0.48
5247.00,0.48
5246.00,0.48
5245.00,0.48
5244.00,0.48
5243.00,0.48
5242.00,0.48
5241.00,0.48
5240.00,0.48
5239.00,0.48
5238.00,0.48
5237.00,0.48
5236.00,0.48
5235.00,0.48
5234.00,0.48
5233.00,0.48
5232.00,0.48
5231.00,0.48
5230.00,0.48
5229.00,0.48
5228.00,0.48
5227.00,0.48
5226.00,0.48
5225.00,0.48
5224.00,0.48
5223.00,0.48
5222.00,0.48
5221.00,0.49
5220.00,0.49
5219.00,0.49
5218.00,0.49
5217.00,0.49
5216.00,0.49
5215.00,0.49
5214.00,0.49
5213.00,0.49
5212.00,0.49
5211.00,0.49
5210.00,0.49
5209.00,0.49
5208.00,0.49
5207.00,0.49
5206.00,0.49
5205.00,0.49
5204.00,0.49
5203.00,0.49
5202.00,0.49
5201.00,0.49
5200.00,0.49
5199.00,0.49
5198.00,0.50
5197.00,0.50
5196.00,0.50
5195.00,0.50
5194.00,0.50
5193.00,0.50
5192.00,0.50
5191.00,0.50
5190.00,0.50
5189.00,0.50
5188.00,0.50
5187.00,0.50
5186.00,0.50
5185.00,0.50
5184.00,0.50
5183.00,0.50
5182.00,0.50
5181.00,0.50
5180.00,0.50
5179.00,0.50
5178.00,0.50
5177.00,0.50
5176.00,0.50
5175.00,0.50
5174.00,0.50
5173.00,0.50
5172.00,0.50
5171.00,0.50
5170.00,0.50
5169.00,0.50
5168.00,0.50
5167.00,0.50
5166.00,0.50
5165.00,0.50
5164.00,0.50
5163.00,0.50
5162.00,0.50
5161.00,0.50
5160.00,0.50
5159.00,0.50
5158.00,0.50
5157.00,0.50
5156.00,0.50
5155.00,0.50
5154.00,0.50
5153.00,0.50
5152.00,0.50
5151.00,0.50
5150.00,0.50
5149.00,0.51
5148.00,0.51
5147.00,0.51
5146.00,0.51
5145.00,0.51
5144.00,0.51
5143.00,0.51
5142.00,0.51
5141.00,0.51
5140.00,0.51
5139.00,0.51
5138.00,0.51
5137.00,0.51
5136.00,0.51
5135.00,0.51
5134.00,0.51
5133.00,0.51
5132.00,0.51
5131.00,0.51
5130.00,0.51
5129.00,0.51
5128.00,0.51
5127.00,0.51
5126.00,0.51
5125.00,0.51
5124.00,0.51
5123.00,0.51
5122.00,0.51
5121.00,0.51
5120.00,0.51
5119.00,0.51
5118.00,0.51
5117.00,0.51
5116.00,0.52
5115.00,0.52
5114.00,0.52
5113.00,0.52
5112.00,0.52
5111.00,0.52
5110.00,0.52
5109.00,0.52
5108.00,0.52
5107.00,0.52
5106.00,0.52
5105.00,0.52
5104.00,0.52
5103.00,0.52
5102.00,0.52
5101.00,0.52
5100.00,0.52
5099.00,0.52
5098.00,0.52
5097.00,0.52
5096.00,0.52
5095.00,0.52
5094.00,0.52
5093.00,0.52
5092.00,0.52
5091.00,0.53
5090.00,0.53
5089.00,0.53
5088.00,0.53
5087.00,0.53
5086.00,0.53
5085.00,0.53
5084.00,0.53
5083.00,0.53
5082.00,0.53
5081.00,0.53
5080.00,0.53
5079.00,0.53
5078.00,0.53
5077.00,0.53
5076.00,0.53
5075.00,0.53
5074.00,0.53
5073.00,0.53
5072.00,0.53
5071.00,0.53
5070.00,0.53
5069.00,0.53
5068.00,0.53
5067.00,0.53
5066.00,0.53
5065.00,0.53
5064.00,0.53
5063.00,0.53
5062.00,0.53
5061.00,0.53
5060.00,0.53
5059.00,0.53
5058.00,0.53
5057.00,0.53
5056.00,0.53
5055.00,0.53
5054.00,0.53
5053.00,0.53
5052.00,0.53
5051.00,0.53
5050.00,0.53
5049.00,0.53
5048.00,0.53
5047.00,0.53
5046.00,0.53
5045.00,0.53
5044.00,0.53
5043.00,0.53
5042.00,0.53
5041.00,0.53
5040.00,0.54
5039.00,0.54
5038.00,0.54
5037.00,0.54
5036.00,0.54
5035.00,0.54
5034.00,0.54
5033.00,0.54
5032.00,0.54
5031.00,0.54
5030.00,0.54
5029.00,0.54
5028.00,0.54
5027.00,0.54
5026.00,0.54
5025.00,0.54
5024.00,0.54
5023.00,0.54
5022.00,0.54
5021.00,0.54
5020.00,0.54
5019.00,0.54
5018.00,0.54
5017.00,0.54
5016.00,0.54
5015.00,0.54
5014.00,0.54
5013.00,0.54
5012.00,0.54
5011.00,0.54
5010.00,0.54
5009.00,0.54
5008.00,0.54
5007.00,0.54
5006.00,0.54
5005.00,0.54
5004.00,0.54
5003.00,0.54
5002.00,0.54
5001.00,0.54
5000.00,0.54
4999.00,0.54
4998.00,0.54
4997.00,0.54
4996.00,0.54
4995.00,0.54
4994.00,0.54
4993.00,0.54
4992.00,0.55
4991.00,0.55
4990.00,0.55
4989.00,0.55
4988.00,0.55
4987.00,0.55
4986.00,0.55
4985.00,0.55
4984.00,0.55
4983.00,0.55
4982.00,0.55
4981.00,0.55
4980.00,0.56
4979.00,0.56
4978.00,0.56
4977.00,0.56
4976.00,0.56
4975.00,0.56
4974.00,0.56
4973.00,0.56
4972.00,0.56
4971.00,0.56
4970.00,0.56
4969.00,0.56
4968.00,0.56
4967.00,0.56
4966.00,0.56
4965.00,0.56
4964.00,0.56
4963.00,0.56
4962.00,0.56
4961.00,0.56
4960.00,0.56
4959.00,0.56
4958.00,0.56
4957.00,0.56
4956.00,0.56
4955.00,0.56
4954.00,0.56
4953.00,0.56
4952.00,0.56
4951.00,0.56
4950.00,0.56
4949.00,0.56
4948.00,0.56
4947.00,0.56
4946.00,0.56
4945.00,0.56
4944.00,0.56
4943.00,0.56
4942.00,0.56
4941.00,0.56
4940.00,0.56
4939.00,0.56
4938.00,0.57
4937.00,0.57
4936.00,0.57
4935.00,0.57
4934.00,0.57
4933.00,0.57
4932.00,0.57
4931.00,0.57
4930.00,0.57
4929.00,0.57
4928.00,0.57
4927.00,0.57
4926.00,0.57
4925.00,0.57
4924.00,0.57
4923.00,0.57
4922.00,0.57
4921.00,0.57
4920.00,0.57
4919.00,0.57
4918.00,0.57
4917.00,0.58
4916.00,0.58
4915.00,0.58
4914.00,0.58
4913.00,0.58
4912.00,0.58
4911.00,0.58
4910.00,0.58
4909.00,0.58
4908.00,0.58
4907.00,0.58
4906.00,0.58
4905.00,0.58
4904.00,0.58
4903.00,0.58
4902.00,0.58
4901.00,0.58
4900.00,0.58
4899.00,0.58
4898.00,0.58
4897.00,0.58
4896.00,0.58
4895.00,0.58
4894.00,0.58
4893.00,0.58
4892.00,0.58
4891.00,0.58
4890.00,0.58
4889.00,0.58
4888.00,0.58
4887.00,0.58
4886.00,0.58
4885.00,0.58
4884.00,0.58
4883.00,0.58
4882.00,0.59
4881.00,0.59
4880.00,0.59
4879.00,0.59
4878.00,0.59
4877.00,0.59
4876.00,0.59
4875.00,0.59
4874.00,0.59
4873.00,0.59
4872.00,0.59
4871.00,0.59
4870.00,0.59
4869.00,0.59
4868.00,0.59
4867.00,0.59
4866.00,0.59
4865.00,0.59
4864.00,0.59
4863.00,0.59
4862.00,0.59
4861.00,0.59
4860.00,0.59
4859.00,0.59
4858.00,0.59
4857.00,0.59
4856.00,0.59
4855.00,0.59
4854.00,0.59
4853.00,0.59
4852.00,0.59
4851.00,0.59
4850.00,0.59
4849.00,0.59
4848.00,0.59
4847.00,0.59
4846.00,0.59
4845.00,0.60
4844.00,0.60
4843.00,0.60
4842.00,0.60
4841.00,0.60
4840.00,0.60
4839.00,0.60
4838.00,0.60
4837.00,0.60
4836.00,0.60
4835.00,0.60
4834.00,0.60
4833.00,0.60
4832.00,0.60
4831.00,0.60
4830.00,0.60
4829.00,0.60
4828.00,0.60
4827.00,0.60
4826.00,0.60
4825.00,0.60
4824.00,0.60
4823.00,0.60
4822.00,0.60
4821.00,0.60
4820.00,0.60
4819.00,0.60
4818.00,0.60
4817.00,0.60
4816.00,0.61
4815.00,0.61
4814.00,0.61
4813.00,0.61
4812.00,0.61
4811.00,0.61
4810.00,0.61
4809.00,0.61
4808.00,0.61
4807.00,0.61
4806.00,0.61
4805.00,0.61
4804.00,0.61
4803.00,0.61
4802.00,0.61
4801.00,0.62
4800.00,0.62
4799.00,0.62
4798.00,0.62
4797.00,0.62
4796.00,0.62
4795.00,0.62
4794.00,0.62
4793.00,0.62
4792.00,0.62
4791.00,0.62
4790.00,0.62
4789.00,0.62
4788.00,0.62
4787.00,0.63
4786.00,0.63
4785.00,0.63
4784.00,0.63
4783.00,0.63
4782.00,0.63
4781.00,0.63
4780.00,0.63
4779.00,0.63
4778.00,0.63
4777.00,0.63
4776.00,0.63
4775.00,0.63
4774.00,0.63
4773.00,0.63
4772.00,0.63
4771.00,0.63
4770.00,0.63
4769.00,0.63
4768.00,0.63
4767.00,0.63
4766.00,0.63
4765.00,0.63
4764.00,0.63
4763.00,0.64
4762.00,0.64
4761.00,0.64
4760.00,0.64
4759.00,0.64
4758.00,0.64
4757.00,0.64
4756.00,0.64
4755.00,0.64
4754.00,0.64
4753.00,0.64
4752.00,0.64
4751.00,0.64
4750.00,0.64
4749.00,0.64
4748.00,0.65
4747.00,0.65
4746.00,0.65
4745.00,0.65
4744.00,0.65
4743.00,0.65
4742.00,0.65
4741.00,0.65
4740.00,0.65
4739.00,0.65
4738.00,0.65
4737.00,0.65
4736.00,0.65
4735.00,0.65
4734.00,0.65
4733.00,0.65
4732.00,0.65
4731.00,0.65
4730.00,0.65
4729.00,0.66
4728.00,0.66
4727.00,0.66
4726.00,0.66
4725.00,0.66
4724.00,0.66
4723.00,0.66
4722.00,0.66
4721.00,0.66
4720.00,0.66
4719.00,0.66
4718.00,0.66
4717.00,0.66
4716.00,0.66
4715.00,0.66
4714.00,0.66
4713.00,0.66
4712.00,0.66
4711.00,0.67
4710.00,0.67
4709.00,0.67
4708.00,0.67
4707.00,0.67
4706.00,0.67
4705.00,0.67
4704.00,0.67
4703.00,0.67
4702.00,0.67
4701.00,0.67
4700.00,0.67
4699.00,0.67
4698.00,0.67
4697.00,0.68
4696.00,0.68
4695.00,0.68
4694.00,0.68
4693.00,0.68
4692.00,0.68
4691.00,0.68
4690.00,0.68
4689.00,0.68
4688.00,0.68
4687.00,0.68
4686.00,0.69
4685.00,0.69
4684.00,0.69
4683.00,0.69
4682.00,0.69
4681.00,0.69
4680.00,0.69
4679.00,0.69
4678.00,0.69
4677.00,0.69
4676.00,0.69
4675.00,0.69
4674.00,0.69
4673.00,0.69
4672.00,0.69
4671.00,0.69
4670.00,0.69
4669.00,0.69
4668.00,0.69
4667.00,0.69
4666.00,0.69
4665.00,0.69
4664.00,0.70
4663.00,0.70
4662.00,0.70
4661.00,0.70
4660.00,0.70
4659.00,0.70
4658.00,0.70
4657.00,0.70
4656.00,0.70
4655.00,0.70
4654.00,0.70
4653.00,0.70
4652.00,0.70
4651.00,0.70
4650.00,0.70
4649.00,0.70
4648.00,0.71
4647.00,0.71
4646.00,0.71
4645.00,0.71
4644.00,0.71
4643.00,0.71
4642.00,0.71
4641.00,0.71
4640.00,0.71
4639.00,0.71
4638.00,0.71
4637.00,0.72
4636.00,0.72
4635.00,0.72
4634.00,0.72
4633.00,0.72
4632.00,0.72
4631.00,0.72
4630.00,0.72
4629.00,0.72
4628.00,0.72
4627.00,0.72
4626.00,0.72
4625.00,0.72
4624.00,0.72
4623.00,0.72
4622.00,0.72
4621.00,0.72
4620.00,0.72
4619.00,0.72
4618.00,0.72
4617.00,0.72
4616.00,0.72
4615.00,0.72
4614.00,0.72
4613.00,0.72
4612.00,0.72
4611.00,0.72
4610.00,0.72
4609.00,0.72
4608.00,0.72
4607.00,0.72
4606.00,0.72
4605.00,0.72
4604.00,0.72
4603.00,0.72
4602.00,0.72
4601.00,0.72
4600.00,0.72
4599.00,0.72
4598.00,0.72
4597.00,0.72
4596.00,0.72
4595.00,0.73
4594.00,0.73
4593.00,0.73
4592.00,0.73
4591.00,0.73
4590.00,0.73
4589.00,0.73
4588.00,0.73
4587.00,0.73
4586.00,0.73
4585.00,0.73
4584.00,0.73
4583.00,0.74
4582.00,0.74
4581.00,0.74
4580.00,0.74
4579.00,0.74
4578.00,0.74
4577.00,0.74
4576.00,0.74
4575.00,0.74
4574.00,0.74
4573.00,0.74
4572.00,0.74
4571.00,0.74
4570.00,0.74
4569.00,0.74
4568.00,0.74
4567.00,0.74
4566.00,0.74
4565.00,0.74
4564.00,0.74
4563.00,0.74
4562.00,0.74
4561.00,0.74
4560.00,0.74
4559.00,0.74
4558.00,0.74
4557.00,0.74
4556.00,0.74
4555.00,0.75
4554.00,0.75
4553.00,0.75
4552.00,0.75
4551.00,0.75
4550.00,0.75
4549.00,0.75
4548.00,0.75
4547.00,0.75
4546.00,0.75
4545.00,0.75
4544.00,0.75
4543.00,0.75
4542.00,0.75
4541.00,0.75
4540.00,0.75
4539.00,0.75
4538.00,0.75
4537.00,0.75
4536.00,0.75
4535.00,0.75
4534.00,0.76
4533.00,0.76
4532.00,0.76
4531.00,0.76
4530.00,0.76
4529.00,0.76
4528.00,0.76
4527.00,0.76
4526.00,0.76
4525.00,0.76
4524.00,0.76
4523.00,0.76
4522.00,0.76
4521.00,0.76
4520.00,0.76
4519.00,0.76
4518.00,0.76
4517.00,0.76
4516.00,0.76
4515.00,0.76
4514.00,0.76
4513.00,0.76
4512.00,0.76
4511.00,0.76
4510.00,0.76
4509.00,0.76
4508.00,0.76
4507.00,0.76
4506.00,0.76
4505.00,0.76
4504.00,0.76
4503.00,0.76
4502.00,0.76
4501.00,0.76
4500.00,0.76
4499.00,0.76
4498.00,0.76
4497.00,0.76
4496.00,0.76
4495.00,0.76
4494.00,0.76
4493.00,0.76
4492.00,0.76
4491.00,0.76
4490.00,0.76
4489.00,0.76
4488.00,0.76
4487.00,0.76
4486.00,0.76
4485.00,0.76
4484.00,0.76
4483.00,0.76
4482.00,0.76
4481.00,0.76
4480.00,0.76
4479.00,0.76
4478.00,0.75
4477.00,0.75
4476.00,0.75
4475.00,0.75
4474.00,0.75
4473.00,0.75
4472.00,0.75
4471.00,0.75
4470.00,0.75
4469.00,0.75
4468.00,0.75
4467.00,0.75
4466.00,0.75
4465.00,0.75
4464.00,0.75
4463.00,0.75
4462.00,0.74
4461.00,0.74
4460.00,0.74
4459.00,0.74
4458.00,0.74
4457.00,0.74
4456.00,0.74
4455.00,0.74
4454.00,0.74
4453.00,0.74
4452.00,0.74
4451.00,0.74
4450.00,0.74
4449.00,0.73
4448.00,0.73
4447.00,0.73
4446.00,0.73
4445.00,0.73
4444.00,0.73
4443.00,0.73
4442.00,0.73
4441.00,0.73
4440.00,0.73
4439.00,0.72
4438.00,0.72
4437.00,0.72
4436.00,0.72
4435.00,0.72
4434.00,0.72
4433.00,0.72
4432.00,0.72
4431.00,0.72
4430.00,0.72
4429.00,0.72
4428.00,0.72
4427.00,0.71
4426.00,0.71
4425.00,0.71
4424.00,0.71
4423.00,0.71
4422.00,0.71
4421.00,0.71
4420.00,0.71
4419.00,0.71
4418.00,0.71
4417.00,0.71
4416.00,0.71
4415.00,0.71
4414.00,0.71
4413.00,0.71
4412.00,0.71
4411.00,0.71
4410.00,0.71
4409.00,0.71
4408.00,0.71
4407.00,0.71
4406.00,0.71
4405.00,0.71
4404.00,0.71
4403.00,0.71
4402.00,0.71
4401.00,0.71
4400.00,0.71
4399.00,0.71
4398.00,0.71
4397.00,0.71
4396.00,0.72
4395.00,0.72
4394.00,0.72
4393.00,0.72
4392.00,0.72
4391.00,0.72
4390.00,0.72
4389.00,0.72
4388.00,0.72
4387.00,0.72
4386.00,0.72
4385.00,0.72
4384.00,0.72
4383.00,0.72
4382.00,0.73
4381.00,0.73
4380.00,0.73
4379.00,0.73
4378.00,0.73
4377.00,0.73
4376.00,0.73
4375.00,0.73
4374.00,0.73
4373.00,0.73
4372.00,0.73
4371.00,0.73
4370.00,0.72
4369.00,0.72
4368.00,0.72
4367.00,0.72
4366.00,0.72
4365.00,0.72
4364.00,0.72
4363.00,0.72
4362.00,0.72
4361.00,0.72
4360.00,0.72
4359.00,0.72
4358.00,0.72
4357.00,0.72
4356.00,0.72
4355.00,0.72
4354.00,0.72
4353.00,0.72
4352.00,0.72
4351.00,0.72
4350.00,0.72
4349.00,0.72
4348.00,0.72
4347.00,0.72
4346.00,0.72
4345.00,0.72
4344.00,0.72
4343.00,0.72
4342.00,0.72
4341.00,0.73
4340.00,0.73
4339.00,0.73
4338.00,0.73
4337.00,0.73
4336.00,0.73
4335.00,0.73
4334.00,0.73
4333.00,0.73
4332.00,0.73
4331.00,0.73
4330.00,0.73
4329.00,0.73
4328.00,0.73
4327.00,0.73
4326.00,0.73
4325.00,0.74
4324.00,0.74
4323.00,0.74
4322.00,0.74
4321.00,0.74
4320.00,0.74
4319.00,0.74
4318.00,0.74
4317.00,0.74
4316.00,0.74
4315.00,0.74
4314.00,0.74
4313.00,0.74
4312.00,0.74
4311.00,0.75
4310.00,0.75
4309.00,0.75
4308.00,0.75
4307.00,0.75
4306.00,0.75
4305.00,0.75
4304.00,0.75
4303.00,0.75
4302.00,0.75
4301.00,0.75
4300.00,0.75
4299.00,0.75
4298.00,0.75
4297.00,0.75
4296.00,0.76
4295.00,0.76
4294.00,0.76
4293.00,0.76
4292.00,0.76
4291.00,0.76
4290.00,0.76
4289.00,0.76
4288.00,0.76
4287.00,0.76
4286.00,0.76
4285.00,0.76
4284.00,0.76
4283.00,0.76
4282.00,0.76
4281.00,0.76
4280.00,0.75
4279.00,0.75
4278.00,0.75
4277.00,0.75
4276.00,0.75
4275.00,0.75
4274.00,0.75
4273.00,0.75
4272.00,0.75
4271.00,0.75
4270.00,0.75
4269.00,0.75
4268.00,0.75
4267.00,0.75
4266.00,0.75
4265.00,0.75
4264.00,0.75
4263.00,0.75
4262.00,0.75
4261.00,0.75
4260.00,0.75
4259.00,0.75
4258.00,0.75
4257.00,0.75
4256.00,0.76
4255.00,0.76
4254.00,0.76
4253.00,0.76
4252.00,0.76
4251.00,0.76
4250.00,0.76
4249.00,0.76
4248.00,0.76
4247.00,0.76
4246.00,0.76
4245.00,0.76
4244.00,0.76
4243.00,0.76
4242.00,0.76
4241.00,0.76
4240.00,0.76
4239.00,0.76
4238.00,0.76
4237.00,0.76
4236.00,0.76
4235.00,0.76
4234.00,0.76
4233.00,0.76
4232.00,0.76
4231.00,0.76
4230.00,0.76
4229.00,0.77
4228.00,0.77
4227.00,0.77
4226.00,0.77
4225.00,0.77
4224.00,0.77
4223.00,0.77
4222.00,0.77
4221.00,0.77
4220.00,0.77
4219.00,0.77
4218.00,0.77
4217.00,0.77
4216.00,0.77
4215.00,0.77
4214.00,0.77
4213.00,0.77
4212.00,0.77
4211.00,0.77
4210.00,0.77
4209.00,0.77
4208.00,0.77
4207.00,0.77
4206.00,0.77
4205.00,0.77
4204.00,0.77
4203.00,0.77
4202.00,0.77
4201.00,0.77
4200.00,0.77
4199.00,0.77
4198.00,0.77
4197.00,0.77
4196.00,0.77
4195.00,0.77
4194.00,0.77
4193.00,0.77
4192.00,0.77
4191.00,0.77
4190.00,0.77
4189.00,0.77
4188.00,0.77
4187.00,0.77
4186.00,0.77
4185.00,0.77
4184.00,0.77
4183.00,0.77
4182.00,0.77
4181.00,0.77
4180.00,0.77
4179.00,0.77
4178.00,0.77
4177.00,0.77
4176.00,0.77
4175.00,0.77
4174.00,0.77
4173.00,0.77
4172.00,0.77
4171.00,0.77
4170.00,0.77
4169.00,0.77
4168.00,0.77
4167.00,0.77
4166.00,0.77
4165.00,0.77
4164.00,0.77
4163.00,0.77
4162.00,0.78
4161.00,0.78
4160.00,0.78
4159.00,0.78
4158.00,0.78
4157.00,0.78
4156.00,0.78
4155.00,0.78
4154.00,0.78
4153.00,0.78
4152.00,0.78
4151.00,0.78
4150.00,0.78
4149.00,0.78
4148.00,0.78
4147.00,0.79
4146.00,0.79
4145.00,0.79
4144.00,0.79
4143.00,0.79
4142.00,0.79
4141.00,0.79
4140.00,0.79
4139.00,0.79
4138.00,0.79
4137.00,0.79
4136.00,0.79
4135.00,0.79
4134.00,0.79
4133.00,0.79
4132.00,0.79
4131.00,0.79
4130.00,0.79
4129.00,0.79
4128.00,0.79
4127.00,0.79
4126.00,0.79
4125.00,0.80
4124.00,0.80
4123.00,0.80
4122.00,0.80
4121.00,0.80
4120.00,0.80
4119.00,0.80
4118.00,0.80
4117.00,0.80
4116.00,0.80
4115.00,0.80
4114.00,0.80
4113.00,0.80
4112.00,0.80
4111.00,0.80
4110.00,0.80
4109.00,0.80
4108.00,0.80
4107.00,0.80
4106.00,0.80
4105.00,0.80
4104.00,0.80
4103.00,0.80
4102.00,0.80
4101.00,0.80
4100.00,0.80
4099.00,0.80
4098.00,0.80
4097.00,0.80
4096.00,0.80
4095.00,0.80
4094.00,0.80
4093.00,0.80
4092.00,0.80
4091.00,0.80
4090.00,0.80
4089.00,0.81
4088.00,0.81
4087.00,0.81
4086.00,0.81
4085.00,0.81
4084.00,0.81
4083.00,0.81
4082.00,0.81
4081.00,0.81
4080.00,0.81
4079.00,0.81
4078.00,0.81
4077.00,0.81
4076.00,0.81
4075.00,0.81
4074.00,0.81
4073.00,0.81
4072.00,0.81
4071.00,0.81
4070.00,0.81
4069.00,0.81
4068.00,0.81
4067.00,0.81
4066.00,0.81
4065.00,0.81
4064.00,0.81
4063.00,0.81
4062.00,0.81
4061.00,0.81
4060.00,0.81
4059.00,0.81
4058.00,0.81
4057.00,0.81
4056.00,0.81
4055.00,0.81
4054.00,0.81
4053.00,0.81
4052.00,0.81
4051.00,0.81
4050.00,0.81
4049.00,0.81
4048.00,0.81
4047.00,0.81
4046.00,0.81
4045.00,0.82
4044.00,0.82
4043.00,0.82
4042.00,0.82
4041.00,0.82
4040.00,0.82
4039.00,0.82
4038.00,0.82
4037.00,0.83
4036.00,0.83
4035.00,0.83
4034.00,0.83
4033.00,0.83
4032.00,0.83
4031.00,0.83
4030.00,0.83
4029.00,0.83
4028.00,0.83
4027.00,0.83
4026.00,0.83
4025.00,0.83
4024.00,0.83
4023.00,0.83
4022.00,0.83
4021.00,0.83
4020.00,0.83
4019.00,0.83
4018.00,0.83
4017.00,0.83
4016.00,0.83
4015.00,0.83
4014.00,0.83
4013.00,0.83
4012.00,0.83
4011.00,0.83
4010.00,0.83
4009.00,0.83
4008.00,0.83
4007.00,0.83
4006.00,0.83
4005.00,0.83
4004.00,0.83
4003.00,0.83
4002.00,0.83
4001.00,0.83
4000.00,0.83
