创建为新数据集,样品 715 用户 Administrator 日期 星期五, 七月 20 2018
cm-1,%T
10000.00,1.47
9999.00,1.47
9998.00,1.47
9997.00,1.47
9996.00,1.47
9995.00,1.47
9994.00,1.46
9993.00,1.46
9992.00,1.46
9991.00,1.46
9990.00,1.46
9989.00,1.46
9988.00,1.46
9987.00,1.45
9986.00,1.45
9985.00,1.45
9984.00,1.45
9983.00,1.45
9982.00,1.44
9981.00,1.44
9980.00,1.44
9979.00,1.44
9978.00,1.43
9977.00,1.43
9976.00,1.43
9975.00,1.43
9974.00,1.43
9973.00,1.42
9972.00,1.42
9971.00,1.42
9970.00,1.42
9969.00,1.42
9968.00,1.42
9967.00,1.42
9966.00,1.42
9965.00,1.42
9964.00,1.42
9963.00,1.42
9962.00,1.42
9961.00,1.42
9960.00,1.42
9959.00,1.42
9958.00,1.42
9957.00,1.42
9956.00,1.42
9955.00,1.42
9954.00,1.42
9953.00,1.42
9952.00,1.42
9951.00,1.42
9950.00,1.43
9949.00,1.43
9948.00,1.43
9947.00,1.43
9946.00,1.43
9945.00,1.43
9944.00,1.44
9943.00,1.44
9942.00,1.44
9941.00,1.44
9940.00,1.44
9939.00,1.44
9938.00,1.44
9937.00,1.44
9936.00,1.44
9935.00,1.44
9934.00,1.44
9933.00,1.44
9932.00,1.44
9931.00,1.44
9930.00,1.44
9929.00,1.43
9928.00,1.43
9927.00,1.43
9926.00,1.43
9925.00,1.43
9924.00,1.43
9923.00,1.43
9922.00,1.43
9921.00,1.43
9920.00,1.43
9919.00,1.43
9918.00,1.43
9917.00,1.43
9916.00,1.43
9915.00,1.43
9914.00,1.43
9913.00,1.43
9912.00,1.43
9911.00,1.43
9910.00,1.43
9909.00,1.43
9908.00,1.43
9907.00,1.43
9906.00,1.43
9905.00,1.43
9904.00,1.43
9903.00,1.44
9902.00,1.44
9901.00,1.44
9900.00,1.44
9899.00,1.44
9898.00,1.44
9897.00,1.44
9896.00,1.44
9895.00,1.44
9894.00,1.44
9893.00,1.44
9892.00,1.44
9891.00,1.44
9890.00,1.44
9889.00,1.44
9888.00,1.44
9887.00,1.44
9886.00,1.44
9885.00,1.44
9884.00,1.44
9883.00,1.44
9882.00,1.44
9881.00,1.44
9880.00,1.43
9879.00,1.43
9878.00,1.43
9877.00,1.43
9876.00,1.43
9875.00,1.43
9874.00,1.43
9873.00,1.43
9872.00,1.43
9871.00,1.43
9870.00,1.43
9869.00,1.43
9868.00,1.43
9867.00,1.43
9866.00,1.43
9865.00,1.43
9864.00,1.43
9863.00,1.43
9862.00,1.43
9861.00,1.43
9860.00,1.43
9859.00,1.43
9858.00,1.43
9857.00,1.43
9856.00,1.43
9855.00,1.43
9854.00,1.43
9853.00,1.42
9852.00,1.42
9851.00,1.42
9850.00,1.42
9849.00,1.42
9848.00,1.42
9847.00,1.42
9846.00,1.42
9845.00,1.41
9844.00,1.41
9843.00,1.41
9842.00,1.41
9841.00,1.41
9840.00,1.41
9839.00,1.41
9838.00,1.41
9837.00,1.41
9836.00,1.41
9835.00,1.42
9834.00,1.42
9833.00,1.42
9832.00,1.42
9831.00,1.42
9830.00,1.42
9829.00,1.43
9828.00,1.43
9827.00,1.43
9826.00,1.43
9825.00,1.43
9824.00,1.44
9823.00,1.44
9822.00,1.44
9821.00,1.44
9820.00,1.44
9819.00,1.44
9818.00,1.45
9817.00,1.45
9816.00,1.45
9815.00,1.45
9814.00,1.45
9813.00,1.45
9812.00,1.45
9811.00,1.45
9810.00,1.45
9809.00,1.45
9808.00,1.45
9807.00,1.45
9806.00,1.45
9805.00,1.45
9804.00,1.45
9803.00,1.45
9802.00,1.45
9801.00,1.45
9800.00,1.45
9799.00,1.45
9798.00,1.45
9797.00,1.45
9796.00,1.45
9795.00,1.45
9794.00,1.44
9793.00,1.44
9792.00,1.44
9791.00,1.44
9790.00,1.44
9789.00,1.44
9788.00,1.44
9787.00,1.44
9786.00,1.44
9785.00,1.44
9784.00,1.44
9783.00,1.44
9782.00,1.44
9781.00,1.44
9780.00,1.44
9779.00,1.44
9778.00,1.44
9777.00,1.44
9776.00,1.44
9775.00,1.44
9774.00,1.44
9773.00,1.44
9772.00,1.44
9771.00,1.44
9770.00,1.44
9769.00,1.44
9768.00,1.44
9767.00,1.44
9766.00,1.44
9765.00,1.44
9764.00,1.44
9763.00,1.44
9762.00,1.43
9761.00,1.43
9760.00,1.43
9759.00,1.43
9758.00,1.43
9757.00,1.42
9756.00,1.42
9755.00,1.42
9754.00,1.42
9753.00,1.42
9752.00,1.42
9751.00,1.41
9750.00,1.41
9749.00,1.41
9748.00,1.41
9747.00,1.41
9746.00,1.41
9745.00,1.41
9744.00,1.41
9743.00,1.41
9742.00,1.41
9741.00,1.41
9740.00,1.42
9739.00,1.42
9738.00,1.42
9737.00,1.42
9736.00,1.42
9735.00,1.42
9734.00,1.42
9733.00,1.42
9732.00,1.42
9731.00,1.42
9730.00,1.42
9729.00,1.42
9728.00,1.42
9727.00,1.42
9726.00,1.42
9725.00,1.42
9724.00,1.42
9723.00,1.42
9722.00,1.42
9721.00,1.42
9720.00,1.42
9719.00,1.42
9718.00,1.42
9717.00,1.42
9716.00,1.42
9715.00,1.43
9714.00,1.43
9713.00,1.43
9712.00,1.43
9711.00,1.43
9710.00,1.44
9709.00,1.44
9708.00,1.44
9707.00,1.44
9706.00,1.44
9705.00,1.44
9704.00,1.45
9703.00,1.45
9702.00,1.45
9701.00,1.45
9700.00,1.45
9699.00,1.45
9698.00,1.45
9697.00,1.45
9696.00,1.45
9695.00,1.45
9694.00,1.45
9693.00,1.45
9692.00,1.45
9691.00,1.45
9690.00,1.45
9689.00,1.45
9688.00,1.45
9687.00,1.45
9686.00,1.45
9685.00,1.45
9684.00,1.45
9683.00,1.45
9682.00,1.45
9681.00,1.45
9680.00,1.45
9679.00,1.45
9678.00,1.44
9677.00,1.44
9676.00,1.44
9675.00,1.44
9674.00,1.44
9673.00,1.44
9672.00,1.44
9671.00,1.44
9670.00,1.44
9669.00,1.44
9668.00,1.44
9667.00,1.44
9666.00,1.45
9665.00,1.45
9664.00,1.45
9663.00,1.45
9662.00,1.45
9661.00,1.45
9660.00,1.46
9659.00,1.46
9658.00,1.46
9657.00,1.46
9656.00,1.46
9655.00,1.46
9654.00,1.46
9653.00,1.47
9652.00,1.47
9651.00,1.47
9650.00,1.47
9649.00,1.47
9648.00,1.46
9647.00,1.46
9646.00,1.46
9645.00,1.46
9644.00,1.46
9643.00,1.46
9642.00,1.46
9641.00,1.46
9640.00,1.46
9639.00,1.46
9638.00,1.46
9637.00,1.46
9636.00,1.46
9635.00,1.46
9634.00,1.46
9633.00,1.46
9632.00,1.46
9631.00,1.46
9630.00,1.46
9629.00,1.46
9628.00,1.47
9627.00,1.47
9626.00,1.47
9625.00,1.47
9624.00,1.47
9623.00,1.47
9622.00,1.47
9621.00,1.47
9620.00,1.47
9619.00,1.47
9618.00,1.47
9617.00,1.47
9616.00,1.47
9615.00,1.47
9614.00,1.47
9613.00,1.47
9612.00,1.47
9611.00,1.46
9610.00,1.46
9609.00,1.46
9608.00,1.46
9607.00,1.46
9606.00,1.46
9605.00,1.46
9604.00,1.45
9603.00,1.45
9602.00,1.45
9601.00,1.45
9600.00,1.45
9599.00,1.45
9598.00,1.45
9597.00,1.45
9596.00,1.45
9595.00,1.45
9594.00,1.46
9593.00,1.46
9592.00,1.46
9591.00,1.46
9590.00,1.46
9589.00,1.46
9588.00,1.46
9587.00,1.46
9586.00,1.46
9585.00,1.46
9584.00,1.46
9583.00,1.46
9582.00,1.46
9581.00,1.46
9580.00,1.46
9579.00,1.46
9578.00,1.46
9577.00,1.45
9576.00,1.45
9575.00,1.45
9574.00,1.45
9573.00,1.45
9572.00,1.45
9571.00,1.44
9570.00,1.44
9569.00,1.44
9568.00,1.44
9567.00,1.44
9566.00,1.44
9565.00,1.44
9564.00,1.43
9563.00,1.43
9562.00,1.43
9561.00,1.44
9560.00,1.44
9559.00,1.44
9558.00,1.44
9557.00,1.44
9556.00,1.44
9555.00,1.45
9554.00,1.45
9553.00,1.45
9552.00,1.45
9551.00,1.46
9550.00,1.46
9549.00,1.46
9548.00,1.46
9547.00,1.46
9546.00,1.47
9545.00,1.47
9544.00,1.47
9543.00,1.47
9542.00,1.47
9541.00,1.46
9540.00,1.46
9539.00,1.46
9538.00,1.46
9537.00,1.45
9536.00,1.45
9535.00,1.45
9534.00,1.45
9533.00,1.44
9532.00,1.44
9531.00,1.44
9530.00,1.44
9529.00,1.43
9528.00,1.43
9527.00,1.43
9526.00,1.43
9525.00,1.43
9524.00,1.43
9523.00,1.43
9522.00,1.43
9521.00,1.43
9520.00,1.44
9519.00,1.44
9518.00,1.44
9517.00,1.44
9516.00,1.44
9515.00,1.44
9514.00,1.45
9513.00,1.45
9512.00,1.45
9511.00,1.45
9510.00,1.45
9509.00,1.45
9508.00,1.45
9507.00,1.45
9506.00,1.45
9505.00,1.45
9504.00,1.45
9503.00,1.45
9502.00,1.46
9501.00,1.46
9500.00,1.46
9499.00,1.46
9498.00,1.46
9497.00,1.46
9496.00,1.46
9495.00,1.46
9494.00,1.46
9493.00,1.46
9492.00,1.46
9491.00,1.46
9490.00,1.46
9489.00,1.46
9488.00,1.45
9487.00,1.45
9486.00,1.45
9485.00,1.45
9484.00,1.45
9483.00,1.45
9482.00,1.45
9481.00,1.44
9480.00,1.44
9479.00,1.44
9478.00,1.44
9477.00,1.44
9476.00,1.43
9475.00,1.43
9474.00,1.43
9473.00,1.43
9472.00,1.43
9471.00,1.43
9470.00,1.43
9469.00,1.43
9468.00,1.43
9467.00,1.43
9466.00,1.43
9465.00,1.43
9464.00,1.43
9463.00,1.44
9462.00,1.44
9461.00,1.44
9460.00,1.44
9459.00,1.44
9458.00,1.44
9457.00,1.44
9456.00,1.44
9455.00,1.44
9454.00,1.44
9453.00,1.44
9452.00,1.44
9451.00,1.45
9450.00,1.45
9449.00,1.45
9448.00,1.45
9447.00,1.45
9446.00,1.45
9445.00,1.45
9444.00,1.45
9443.00,1.45
9442.00,1.45
9441.00,1.45
9440.00,1.45
9439.00,1.45
9438.00,1.45
9437.00,1.45
9436.00,1.45
9435.00,1.45
9434.00,1.45
9433.00,1.45
9432.00,1.45
9431.00,1.45
9430.00,1.45
9429.00,1.45
9428.00,1.45
9427.00,1.45
9426.00,1.45
9425.00,1.45
9424.00,1.46
9423.00,1.46
9422.00,1.46
9421.00,1.46
9420.00,1.47
9419.00,1.47
9418.00,1.47
9417.00,1.47
9416.00,1.47
9415.00,1.47
9414.00,1.47
9413.00,1.47
9412.00,1.46
9411.00,1.46
9410.00,1.46
9409.00,1.46
9408.00,1.46
9407.00,1.46
9406.00,1.46
9405.00,1.45
9404.00,1.45
9403.00,1.45
9402.00,1.46
9401.00,1.46
9400.00,1.46
9399.00,1.46
9398.00,1.46
9397.00,1.46
9396.00,1.46
9395.00,1.46
9394.00,1.46
9393.00,1.46
9392.00,1.46
9391.00,1.46
9390.00,1.46
9389.00,1.46
9388.00,1.45
9387.00,1.45
9386.00,1.45
9385.00,1.45
9384.00,1.45
9383.00,1.44
9382.00,1.44
9381.00,1.44
9380.00,1.44
9379.00,1.44
9378.00,1.44
9377.00,1.44
9376.00,1.44
9375.00,1.44
9374.00,1.44
9373.00,1.44
9372.00,1.44
9371.00,1.44
9370.00,1.44
9369.00,1.44
9368.00,1.45
9367.00,1.45
9366.00,1.45
9365.00,1.45
9364.00,1.45
9363.00,1.45
9362.00,1.45
9361.00,1.45
9360.00,1.45
9359.00,1.45
9358.00,1.45
9357.00,1.45
9356.00,1.44
9355.00,1.44
9354.00,1.44
9353.00,1.44
9352.00,1.44
9351.00,1.43
9350.00,1.43
9349.00,1.43
9348.00,1.43
9347.00,1.43
9346.00,1.43
9345.00,1.43
9344.00,1.43
9343.00,1.43
9342.00,1.43
9341.00,1.43
9340.00,1.44
9339.00,1.44
9338.00,1.44
9337.00,1.44
9336.00,1.44
9335.00,1.44
9334.00,1.44
9333.00,1.44
9332.00,1.45
9331.00,1.45
9330.00,1.45
9329.00,1.45
9328.00,1.45
9327.00,1.45
9326.00,1.45
9325.00,1.45
9324.00,1.45
9323.00,1.45
9322.00,1.45
9321.00,1.45
9320.00,1.46
9319.00,1.46
9318.00,1.46
9317.00,1.46
9316.00,1.46
9315.00,1.46
9314.00,1.46
9313.00,1.46
9312.00,1.46
9311.00,1.46
9310.00,1.46
9309.00,1.46
9308.00,1.46
9307.00,1.46
9306.00,1.46
9305.00,1.46
9304.00,1.46
9303.00,1.46
9302.00,1.46
9301.00,1.46
9300.00,1.46
9299.00,1.46
9298.00,1.46
9297.00,1.46
9296.00,1.46
9295.00,1.46
9294.00,1.46
9293.00,1.46
9292.00,1.46
9291.00,1.46
9290.00,1.45
9289.00,1.45
9288.00,1.45
9287.00,1.45
9286.00,1.45
9285.00,1.45
9284.00,1.45
9283.00,1.44
9282.00,1.44
9281.00,1.44
9280.00,1.44
9279.00,1.44
9278.00,1.44
9277.00,1.44
9276.00,1.44
9275.00,1.44
9274.00,1.44
9273.00,1.44
9272.00,1.44
9271.00,1.44
9270.00,1.44
9269.00,1.44
9268.00,1.44
9267.00,1.44
9266.00,1.44
9265.00,1.44
9264.00,1.44
9263.00,1.44
9262.00,1.44
9261.00,1.44
9260.00,1.44
9259.00,1.44
9258.00,1.44
9257.00,1.44
9256.00,1.44
9255.00,1.44
9254.00,1.44
9253.00,1.44
9252.00,1.44
9251.00,1.44
9250.00,1.44
9249.00,1.44
9248.00,1.44
9247.00,1.44
9246.00,1.44
9245.00,1.44
9244.00,1.44
9243.00,1.44
9242.00,1.44
9241.00,1.44
9240.00,1.44
9239.00,1.44
9238.00,1.44
9237.00,1.44
9236.00,1.44
9235.00,1.44
9234.00,1.44
9233.00,1.44
9232.00,1.44
9231.00,1.44
9230.00,1.44
9229.00,1.45
9228.00,1.45
9227.00,1.45
9226.00,1.45
9225.00,1.45
9224.00,1.45
9223.00,1.46
9222.00,1.46
9221.00,1.46
9220.00,1.46
9219.00,1.46
9218.00,1.46
9217.00,1.46
9216.00,1.46
9215.00,1.46
9214.00,1.46
9213.00,1.46
9212.00,1.46
9211.00,1.45
9210.00,1.45
9209.00,1.45
9208.00,1.45
9207.00,1.45
9206.00,1.45
9205.00,1.45
9204.00,1.45
9203.00,1.45
9202.00,1.45
9201.00,1.45
9200.00,1.45
9199.00,1.45
9198.00,1.46
9197.00,1.46
9196.00,1.46
9195.00,1.46
9194.00,1.46
9193.00,1.46
9192.00,1.46
9191.00,1.46
9190.00,1.45
9189.00,1.45
9188.00,1.45
9187.00,1.45
9186.00,1.45
9185.00,1.45
9184.00,1.45
9183.00,1.44
9182.00,1.44
9181.00,1.44
9180.00,1.44
9179.00,1.44
9178.00,1.44
9177.00,1.44
9176.00,1.44
9175.00,1.44
9174.00,1.44
9173.00,1.44
9172.00,1.44
9171.00,1.44
9170.00,1.44
9169.00,1.44
9168.00,1.44
9167.00,1.44
9166.00,1.44
9165.00,1.44
9164.00,1.44
9163.00,1.45
9162.00,1.45
9161.00,1.45
9160.00,1.45
9159.00,1.45
9158.00,1.45
9157.00,1.45
9156.00,1.45
9155.00,1.45
9154.00,1.44
9153.00,1.44
9152.00,1.44
9151.00,1.44
9150.00,1.44
9149.00,1.44
9148.00,1.44
9147.00,1.44
9146.00,1.44
9145.00,1.43
9144.00,1.43
9143.00,1.43
9142.00,1.43
9141.00,1.43
9140.00,1.43
9139.00,1.43
9138.00,1.43
9137.00,1.43
9136.00,1.43
9135.00,1.43
9134.00,1.43
9133.00,1.43
9132.00,1.43
9131.00,1.44
9130.00,1.44
9129.00,1.44
9128.00,1.44
9127.00,1.44
9126.00,1.45
9125.00,1.45
9124.00,1.45
9123.00,1.45
9122.00,1.45
9121.00,1.45
9120.00,1.45
9119.00,1.45
9118.00,1.45
9117.00,1.45
9116.00,1.45
9115.00,1.45
9114.00,1.45
9113.00,1.45
9112.00,1.45
9111.00,1.45
9110.00,1.45
9109.00,1.45
9108.00,1.44
9107.00,1.44
9106.00,1.44
9105.00,1.44
9104.00,1.44
9103.00,1.44
9102.00,1.44
9101.00,1.44
9100.00,1.44
9099.00,1.44
9098.00,1.44
9097.00,1.44
9096.00,1.44
9095.00,1.44
9094.00,1.44
9093.00,1.45
9092.00,1.45
9091.00,1.45
9090.00,1.45
9089.00,1.45
9088.00,1.45
9087.00,1.45
9086.00,1.45
9085.00,1.45
9084.00,1.45
9083.00,1.45
9082.00,1.44
9081.00,1.44
9080.00,1.44
9079.00,1.44
9078.00,1.44
9077.00,1.44
9076.00,1.44
9075.00,1.44
9074.00,1.44
9073.00,1.44
9072.00,1.44
9071.00,1.44
9070.00,1.44
9069.00,1.44
9068.00,1.44
9067.00,1.45
9066.00,1.45
9065.00,1.45
9064.00,1.45
9063.00,1.45
9062.00,1.45
9061.00,1.45
9060.00,1.45
9059.00,1.45
9058.00,1.45
9057.00,1.45
9056.00,1.45
9055.00,1.45
9054.00,1.45
9053.00,1.45
9052.00,1.45
9051.00,1.45
9050.00,1.45
9049.00,1.45
9048.00,1.45
9047.00,1.45
9046.00,1.45
9045.00,1.45
9044.00,1.45
9043.00,1.45
9042.00,1.45
9041.00,1.45
9040.00,1.45
9039.00,1.45
9038.00,1.45
9037.00,1.45
9036.00,1.45
9035.00,1.45
9034.00,1.45
9033.00,1.45
9032.00,1.45
9031.00,1.45
9030.00,1.45
9029.00,1.46
9028.00,1.46
9027.00,1.46
9026.00,1.46
9025.00,1.45
9024.00,1.45
9023.00,1.45
9022.00,1.45
9021.00,1.45
9020.00,1.45
9019.00,1.45
9018.00,1.45
9017.00,1.45
9016.00,1.45
9015.00,1.45
9014.00,1.45
9013.00,1.45
9012.00,1.45
9011.00,1.45
9010.00,1.45
9009.00,1.45
9008.00,1.45
9007.00,1.45
9006.00,1.45
9005.00,1.45
9004.00,1.45
9003.00,1.45
9002.00,1.45
9001.00,1.45
9000.00,1.45
8999.00,1.45
8998.00,1.45
8997.00,1.45
8996.00,1.45
8995.00,1.45
8994.00,1.45
8993.00,1.45
8992.00,1.45
8991.00,1.45
8990.00,1.45
8989.00,1.45
8988.00,1.44
8987.00,1.44
8986.00,1.44
8985.00,1.44
8984.00,1.44
8983.00,1.44
8982.00,1.44
8981.00,1.44
8980.00,1.44
8979.00,1.44
8978.00,1.44
8977.00,1.44
8976.00,1.45
8975.00,1.45
8974.00,1.45
8973.00,1.45
8972.00,1.45
8971.00,1.45
8970.00,1.45
8969.00,1.45
8968.00,1.45
8967.00,1.45
8966.00,1.45
8965.00,1.45
8964.00,1.45
8963.00,1.45
8962.00,1.45
8961.00,1.45
8960.00,1.45
8959.00,1.45
8958.00,1.45
8957.00,1.45
8956.00,1.45
8955.00,1.45
8954.00,1.45
8953.00,1.45
8952.00,1.45
8951.00,1.45
8950.00,1.45
8949.00,1.45
8948.00,1.45
8947.00,1.45
8946.00,1.45
8945.00,1.45
8944.00,1.45
8943.00,1.45
8942.00,1.45
8941.00,1.45
8940.00,1.45
8939.00,1.45
8938.00,1.45
8937.00,1.45
8936.00,1.45
8935.00,1.46
8934.00,1.46
8933.00,1.46
8932.00,1.46
8931.00,1.46
8930.00,1.46
8929.00,1.46
8928.00,1.47
8927.00,1.47
8926.00,1.47
8925.00,1.47
8924.00,1.47
8923.00,1.47
8922.00,1.47
8921.00,1.47
8920.00,1.47
8919.00,1.47
8918.00,1.47
8917.00,1.46
8916.00,1.46
8915.00,1.46
8914.00,1.46
8913.00,1.46
8912.00,1.45
8911.00,1.45
8910.00,1.45
8909.00,1.45
8908.00,1.44
8907.00,1.44
8906.00,1.44
8905.00,1.44
8904.00,1.43
8903.00,1.43
8902.00,1.43
8901.00,1.43
8900.00,1.43
8899.00,1.43
8898.00,1.43
8897.00,1.43
8896.00,1.43
8895.00,1.43
8894.00,1.43
8893.00,1.43
8892.00,1.44
8891.00,1.44
8890.00,1.44
8889.00,1.44
8888.00,1.44
8887.00,1.44
8886.00,1.44
8885.00,1.45
8884.00,1.45
8883.00,1.45
8882.00,1.45
8881.00,1.45
8880.00,1.45
8879.00,1.45
8878.00,1.45
8877.00,1.45
8876.00,1.45
8875.00,1.45
8874.00,1.45
8873.00,1.45
8872.00,1.45
8871.00,1.45
8870.00,1.46
8869.00,1.46
8868.00,1.46
8867.00,1.46
8866.00,1.46
8865.00,1.46
8864.00,1.45
8863.00,1.45
8862.00,1.45
8861.00,1.45
8860.00,1.45
8859.00,1.45
8858.00,1.45
8857.00,1.45
8856.00,1.45
8855.00,1.45
8854.00,1.45
8853.00,1.45
8852.00,1.45
8851.00,1.45
8850.00,1.45
8849.00,1.45
8848.00,1.45
8847.00,1.45
8846.00,1.45
8845.00,1.45
8844.00,1.45
8843.00,1.45
8842.00,1.44
8841.00,1.44
8840.00,1.44
8839.00,1.44
8838.00,1.44
8837.00,1.44
8836.00,1.44
8835.00,1.44
8834.00,1.44
8833.00,1.44
8832.00,1.44
8831.00,1.44
8830.00,1.43
8829.00,1.43
8828.00,1.43
8827.00,1.43
8826.00,1.43
8825.00,1.43
8824.00,1.43
8823.00,1.42
8822.00,1.42
8821.00,1.42
8820.00,1.42
8819.00,1.42
8818.00,1.42
8817.00,1.42
8816.00,1.42
8815.00,1.42
8814.00,1.42
8813.00,1.42
8812.00,1.42
8811.00,1.42
8810.00,1.42
8809.00,1.42
8808.00,1.42
8807.00,1.42
8806.00,1.42
8805.00,1.42
8804.00,1.42
8803.00,1.42
8802.00,1.42
8801.00,1.41
8800.00,1.41
8799.00,1.41
8798.00,1.41
8797.00,1.41
8796.00,1.41
8795.00,1.41
8794.00,1.41
8793.00,1.41
8792.00,1.41
8791.00,1.41
8790.00,1.41
8789.00,1.41
8788.00,1.41
8787.00,1.41
8786.00,1.41
8785.00,1.41
8784.00,1.41
8783.00,1.41
8782.00,1.40
8781.00,1.40
8780.00,1.40
8779.00,1.40
8778.00,1.40
8777.00,1.40
8776.00,1.40
8775.00,1.40
8774.00,1.40
8773.00,1.40
8772.00,1.40
8771.00,1.40
8770.00,1.40
8769.00,1.39
8768.00,1.39
8767.00,1.39
8766.00,1.39
8765.00,1.39
8764.00,1.39
8763.00,1.39
8762.00,1.38
8761.00,1.38
8760.00,1.38
8759.00,1.38
8758.00,1.38
8757.00,1.38
8756.00,1.38
8755.00,1.38
8754.00,1.38
8753.00,1.38
8752.00,1.38
8751.00,1.38
8750.00,1.38
8749.00,1.38
8748.00,1.38
8747.00,1.38
8746.00,1.38
8745.00,1.38
8744.00,1.38
8743.00,1.38
8742.00,1.38
8741.00,1.38
8740.00,1.38
8739.00,1.38
8738.00,1.38
8737.00,1.38
8736.00,1.38
8735.00,1.38
8734.00,1.38
8733.00,1.38
8732.00,1.38
8731.00,1.38
8730.00,1.38
8729.00,1.38
8728.00,1.38
8727.00,1.38
8726.00,1.38
8725.00,1.38
8724.00,1.38
8723.00,1.38
8722.00,1.37
8721.00,1.37
8720.00,1.37
8719.00,1.37
8718.00,1.37
8717.00,1.37
8716.00,1.37
8715.00,1.37
8714.00,1.37
8713.00,1.37
8712.00,1.37
8711.00,1.37
8710.00,1.37
8709.00,1.37
8708.00,1.37
8707.00,1.37
8706.00,1.37
8705.00,1.37
8704.00,1.37
8703.00,1.37
8702.00,1.37
8701.00,1.37
8700.00,1.37
8699.00,1.37
8698.00,1.37
8697.00,1.37
8696.00,1.37
8695.00,1.37
8694.00,1.37
8693.00,1.37
8692.00,1.37
8691.00,1.37
8690.00,1.37
8689.00,1.37
8688.00,1.37
8687.00,1.37
8686.00,1.37
8685.00,1.37
8684.00,1.37
8683.00,1.37
8682.00,1.37
8681.00,1.37
8680.00,1.37
8679.00,1.37
8678.00,1.37
8677.00,1.37
8676.00,1.37
8675.00,1.37
8674.00,1.37
8673.00,1.37
8672.00,1.37
8671.00,1.37
8670.00,1.37
8669.00,1.37
8668.00,1.37
8667.00,1.37
8666.00,1.37
8665.00,1.37
8664.00,1.37
8663.00,1.37
8662.00,1.37
8661.00,1.37
8660.00,1.37
8659.00,1.37
8658.00,1.37
8657.00,1.37
8656.00,1.37
8655.00,1.37
8654.00,1.37
8653.00,1.37
8652.00,1.37
8651.00,1.37
8650.00,1.37
8649.00,1.37
8648.00,1.37
8647.00,1.37
8646.00,1.37
8645.00,1.37
8644.00,1.37
8643.00,1.37
8642.00,1.37
8641.00,1.36
8640.00,1.36
8639.00,1.36
8638.00,1.36
8637.00,1.36
8636.00,1.35
8635.00,1.35
8634.00,1.35
8633.00,1.35
8632.00,1.35
8631.00,1.35
8630.00,1.34
8629.00,1.34
8628.00,1.34
8627.00,1.34
8626.00,1.34
8625.00,1.34
8624.00,1.34
8623.00,1.34
8622.00,1.34
8621.00,1.34
8620.00,1.34
8619.00,1.34
8618.00,1.34
8617.00,1.34
8616.00,1.34
8615.00,1.34
8614.00,1.34
8613.00,1.34
8612.00,1.35
8611.00,1.35
8610.00,1.35
8609.00,1.35
8608.00,1.35
8607.00,1.35
8606.00,1.35
8605.00,1.35
8604.00,1.35
8603.00,1.35
8602.00,1.35
8601.00,1.35
8600.00,1.35
8599.00,1.35
8598.00,1.34
8597.00,1.34
8596.00,1.34
8595.00,1.34
8594.00,1.34
8593.00,1.34
8592.00,1.34
8591.00,1.34
8590.00,1.34
8589.00,1.34
8588.00,1.33
8587.00,1.33
8586.00,1.33
8585.00,1.33
8584.00,1.33
8583.00,1.33
8582.00,1.32
8581.00,1.32
8580.00,1.32
8579.00,1.32
8578.00,1.32
8577.00,1.32
8576.00,1.32
8575.00,1.32
8574.00,1.32
8573.00,1.32
8572.00,1.32
8571.00,1.33
8570.00,1.33
8569.00,1.33
8568.00,1.33
8567.00,1.33
8566.00,1.33
8565.00,1.33
8564.00,1.33
8563.00,1.33
8562.00,1.33
8561.00,1.33
8560.00,1.33
8559.00,1.33
8558.00,1.33
8557.00,1.33
8556.00,1.33
8555.00,1.33
8554.00,1.33
8553.00,1.33
8552.00,1.33
8551.00,1.33
8550.00,1.33
8549.00,1.33
8548.00,1.32
8547.00,1.32
8546.00,1.32
8545.00,1.32
8544.00,1.32
8543.00,1.32
8542.00,1.32
8541.00,1.32
8540.00,1.32
8539.00,1.32
8538.00,1.32
8537.00,1.32
8536.00,1.32
8535.00,1.32
8534.00,1.32
8533.00,1.32
8532.00,1.32
8531.00,1.31
8530.00,1.31
8529.00,1.31
8528.00,1.31
8527.00,1.31
8526.00,1.31
8525.00,1.31
8524.00,1.31
8523.00,1.31
8522.00,1.31
8521.00,1.30
8520.00,1.30
8519.00,1.30
8518.00,1.30
8517.00,1.30
8516.00,1.30
8515.00,1.30
8514.00,1.29
8513.00,1.29
8512.00,1.29
8511.00,1.29
8510.00,1.29
8509.00,1.29
8508.00,1.29
8507.00,1.29
8506.00,1.29
8505.00,1.29
8504.00,1.28
8503.00,1.28
8502.00,1.28
8501.00,1.28
8500.00,1.28
8499.00,1.28
8498.00,1.28
8497.00,1.28
8496.00,1.28
8495.00,1.28
8494.00,1.28
8493.00,1.28
8492.00,1.28
8491.00,1.28
8490.00,1.28
8489.00,1.28
8488.00,1.28
8487.00,1.28
8486.00,1.28
8485.00,1.28
8484.00,1.27
8483.00,1.27
8482.00,1.27
8481.00,1.27
8480.00,1.27
8479.00,1.27
8478.00,1.27
8477.00,1.27
8476.00,1.27
8475.00,1.27
8474.00,1.26
8473.00,1.26
8472.00,1.26
8471.00,1.26
8470.00,1.26
8469.00,1.26
8468.00,1.26
8467.00,1.26
8466.00,1.26
8465.00,1.26
8464.00,1.26
8463.00,1.26
8462.00,1.26
8461.00,1.26
8460.00,1.26
8459.00,1.26
8458.00,1.26
8457.00,1.26
8456.00,1.26
8455.00,1.26
8454.00,1.26
8453.00,1.26
8452.00,1.26
8451.00,1.26
8450.00,1.26
8449.00,1.26
8448.00,1.26
8447.00,1.26
8446.00,1.26
8445.00,1.26
8444.00,1.26
8443.00,1.26
8442.00,1.26
8441.00,1.26
8440.00,1.25
8439.00,1.25
8438.00,1.25
8437.00,1.25
8436.00,1.26
8435.00,1.26
8434.00,1.26
8433.00,1.26
8432.00,1.26
8431.00,1.26
8430.00,1.26
8429.00,1.26
8428.00,1.26
8427.00,1.26
8426.00,1.26
8425.00,1.26
8424.00,1.26
8423.00,1.26
8422.00,1.27
8421.00,1.27
8420.00,1.27
8419.00,1.27
8418.00,1.27
8417.00,1.27
8416.00,1.27
8415.00,1.27
8414.00,1.27
8413.00,1.27
8412.00,1.27
8411.00,1.27
8410.00,1.27
8409.00,1.27
8408.00,1.27
8407.00,1.27
8406.00,1.28
8405.00,1.28
8404.00,1.28
8403.00,1.28
8402.00,1.28
8401.00,1.28
8400.00,1.29
8399.00,1.29
8398.00,1.29
8397.00,1.29
8396.00,1.29
8395.00,1.29
8394.00,1.29
8393.00,1.29
8392.00,1.29
8391.00,1.29
8390.00,1.30
8389.00,1.30
8388.00,1.30
8387.00,1.30
8386.00,1.30
8385.00,1.30
8384.00,1.30
8383.00,1.30
8382.00,1.30
8381.00,1.30
8380.00,1.30
8379.00,1.30
8378.00,1.30
8377.00,1.30
8376.00,1.30
8375.00,1.31
8374.00,1.31
8373.00,1.31
8372.00,1.30
8371.00,1.30
8370.00,1.30
8369.00,1.30
8368.00,1.30
8367.00,1.30
8366.00,1.30
8365.00,1.30
8364.00,1.30
8363.00,1.30
8362.00,1.30
8361.00,1.30
8360.00,1.30
8359.00,1.30
8358.00,1.30
8357.00,1.30
8356.00,1.30
8355.00,1.30
8354.00,1.31
8353.00,1.31
8352.00,1.31
8351.00,1.31
8350.00,1.31
8349.00,1.31
8348.00,1.31
8347.00,1.31
8346.00,1.31
8345.00,1.31
8344.00,1.31
8343.00,1.31
8342.00,1.31
8341.00,1.31
8340.00,1.31
8339.00,1.31
8338.00,1.31
8337.00,1.31
8336.00,1.31
8335.00,1.31
8334.00,1.31
8333.00,1.31
8332.00,1.31
8331.00,1.30
8330.00,1.30
8329.00,1.30
8328.00,1.30
8327.00,1.30
8326.00,1.30
8325.00,1.30
8324.00,1.30
8323.00,1.30
8322.00,1.30
8321.00,1.30
8320.00,1.30
8319.00,1.30
8318.00,1.30
8317.00,1.30
8316.00,1.30
8315.00,1.30
8314.00,1.30
8313.00,1.30
8312.00,1.30
8311.00,1.30
8310.00,1.30
8309.00,1.30
8308.00,1.30
8307.00,1.30
8306.00,1.30
8305.00,1.30
8304.00,1.30
8303.00,1.30
8302.00,1.30
8301.00,1.31
8300.00,1.31
8299.00,1.31
8298.00,1.31
8297.00,1.31
8296.00,1.31
8295.00,1.31
8294.00,1.32
8293.00,1.32
8292.00,1.32
8291.00,1.32
8290.00,1.32
8289.00,1.32
8288.00,1.32
8287.00,1.32
8286.00,1.32
8285.00,1.32
8284.00,1.32
8283.00,1.32
8282.00,1.32
8281.00,1.31
8280.00,1.31
8279.00,1.31
8278.00,1.31
8277.00,1.31
8276.00,1.31
8275.00,1.31
8274.00,1.31
8273.00,1.31
8272.00,1.31
8271.00,1.31
8270.00,1.31
8269.00,1.31
8268.00,1.31
8267.00,1.31
8266.00,1.31
8265.00,1.31
8264.00,1.32
8263.00,1.32
8262.00,1.32
8261.00,1.32
8260.00,1.32
8259.00,1.32
8258.00,1.32
8257.00,1.32
8256.00,1.32
8255.00,1.32
8254.00,1.32
8253.00,1.32
8252.00,1.32
8251.00,1.32
8250.00,1.32
8249.00,1.32
8248.00,1.32
8247.00,1.32
8246.00,1.32
8245.00,1.32
8244.00,1.32
8243.00,1.32
8242.00,1.32
8241.00,1.32
8240.00,1.32
8239.00,1.33
8238.00,1.33
8237.00,1.33
8236.00,1.33
8235.00,1.33
8234.00,1.33
8233.00,1.33
8232.00,1.34
8231.00,1.34
8230.00,1.34
8229.00,1.34
8228.00,1.34
8227.00,1.34
8226.00,1.34
8225.00,1.34
8224.00,1.34
8223.00,1.34
8222.00,1.34
8221.00,1.34
8220.00,1.34
8219.00,1.34
8218.00,1.34
8217.00,1.34
8216.00,1.34
8215.00,1.34
8214.00,1.34
8213.00,1.34
8212.00,1.34
8211.00,1.34
8210.00,1.34
8209.00,1.34
8208.00,1.34
8207.00,1.34
8206.00,1.34
8205.00,1.34
8204.00,1.34
8203.00,1.35
8202.00,1.35
8201.00,1.35
8200.00,1.35
8199.00,1.35
8198.00,1.35
8197.00,1.35
8196.00,1.35
8195.00,1.35
8194.00,1.35
8193.00,1.35
8192.00,1.35
8191.00,1.35
8190.00,1.35
8189.00,1.35
8188.00,1.35
8187.00,1.35
8186.00,1.35
8185.00,1.35
8184.00,1.35
8183.00,1.35
8182.00,1.35
8181.00,1.35
8180.00,1.35
8179.00,1.35
8178.00,1.35
8177.00,1.35
8176.00,1.35
8175.00,1.35
8174.00,1.35
8173.00,1.35
8172.00,1.35
8171.00,1.35
8170.00,1.35
8169.00,1.35
8168.00,1.35
8167.00,1.35
8166.00,1.35
8165.00,1.35
8164.00,1.36
8163.00,1.36
8162.00,1.36
8161.00,1.36
8160.00,1.36
8159.00,1.36
8158.00,1.36
8157.00,1.36
8156.00,1.36
8155.00,1.36
8154.00,1.36
8153.00,1.37
8152.00,1.37
8151.00,1.37
8150.00,1.37
8149.00,1.37
8148.00,1.37
8147.00,1.37
8146.00,1.37
8145.00,1.37
8144.00,1.37
8143.00,1.37
8142.00,1.37
8141.00,1.37
8140.00,1.37
8139.00,1.38
8138.00,1.38
8137.00,1.38
8136.00,1.38
8135.00,1.38
8134.00,1.38
8133.00,1.38
8132.00,1.38
8131.00,1.38
8130.00,1.38
8129.00,1.38
8128.00,1.38
8127.00,1.38
8126.00,1.38
8125.00,1.38
8124.00,1.38
8123.00,1.38
8122.00,1.39
8121.00,1.39
8120.00,1.39
8119.00,1.39
8118.00,1.39
8117.00,1.39
8116.00,1.39
8115.00,1.39
8114.00,1.39
8113.00,1.40
8112.00,1.40
8111.00,1.40
8110.00,1.40
8109.00,1.40
8108.00,1.40
8107.00,1.40
8106.00,1.40
8105.00,1.40
8104.00,1.40
8103.00,1.40
8102.00,1.40
8101.00,1.40
8100.00,1.40
8099.00,1.40
8098.00,1.40
8097.00,1.40
8096.00,1.40
8095.00,1.40
8094.00,1.40
8093.00,1.40
8092.00,1.40
8091.00,1.40
8090.00,1.40
8089.00,1.40
8088.00,1.40
8087.00,1.40
8086.00,1.40
8085.00,1.40
8084.00,1.40
8083.00,1.40
8082.00,1.40
8081.00,1.40
8080.00,1.40
8079.00,1.40
8078.00,1.40
8077.00,1.40
8076.00,1.40
8075.00,1.40
8074.00,1.40
8073.00,1.40
8072.00,1.40
8071.00,1.40
8070.00,1.40
8069.00,1.40
8068.00,1.40
8067.00,1.40
8066.00,1.40
8065.00,1.40
8064.00,1.40
8063.00,1.40
8062.00,1.39
8061.00,1.39
8060.00,1.39
8059.00,1.39
8058.00,1.39
8057.00,1.39
8056.00,1.39
8055.00,1.39
8054.00,1.39
8053.00,1.39
8052.00,1.39
8051.00,1.40
8050.00,1.40
8049.00,1.40
8048.00,1.40
8047.00,1.40
8046.00,1.40
8045.00,1.40
8044.00,1.41
8043.00,1.41
8042.00,1.41
8041.00,1.41
8040.00,1.41
8039.00,1.41
8038.00,1.41
8037.00,1.41
8036.00,1.41
8035.00,1.41
8034.00,1.41
8033.00,1.41
8032.00,1.41
8031.00,1.41
8030.00,1.41
8029.00,1.41
8028.00,1.41
8027.00,1.41
8026.00,1.41
8025.00,1.40
8024.00,1.40
8023.00,1.40
8022.00,1.40
8021.00,1.40
8020.00,1.40
8019.00,1.40
8018.00,1.40
8017.00,1.40
8016.00,1.40
8015.00,1.40
8014.00,1.40
8013.00,1.41
8012.00,1.41
8011.00,1.41
8010.00,1.41
8009.00,1.41
8008.00,1.41
8007.00,1.41
8006.00,1.41
8005.00,1.41
8004.00,1.41
8003.00,1.42
8002.00,1.42
8001.00,1.42
8000.00,1.42
7999.00,1.42
7998.00,1.42
7997.00,1.42
7996.00,1.42
7995.00,1.42
7994.00,1.42
7993.00,1.42
7992.00,1.42
7991.00,1.42
7990.00,1.42
7989.00,1.42
7988.00,1.42
7987.00,1.42
7986.00,1.42
7985.00,1.42
7984.00,1.42
7983.00,1.42
7982.00,1.42
7981.00,1.42
7980.00,1.42
7979.00,1.42
7978.00,1.42
7977.00,1.43
7976.00,1.43
7975.00,1.43
7974.00,1.43
7973.00,1.43
7972.00,1.43
7971.00,1.43
7970.00,1.43
7969.00,1.43
7968.00,1.43
7967.00,1.43
7966.00,1.43
7965.00,1.43
7964.00,1.43
7963.00,1.43
7962.00,1.43
7961.00,1.43
7960.00,1.43
7959.00,1.43
7958.00,1.43
7957.00,1.43
7956.00,1.43
7955.00,1.43
7954.00,1.43
7953.00,1.43
7952.00,1.43
7951.00,1.43
7950.00,1.44
7949.00,1.44
7948.00,1.44
7947.00,1.44
7946.00,1.44
7945.00,1.43
7944.00,1.43
7943.00,1.43
7942.00,1.43
7941.00,1.43
7940.00,1.43
7939.00,1.43
7938.00,1.43
7937.00,1.43
7936.00,1.43
7935.00,1.43
7934.00,1.43
7933.00,1.43
7932.00,1.43
7931.00,1.43
7930.00,1.43
7929.00,1.43
7928.00,1.43
7927.00,1.43
7926.00,1.43
7925.00,1.43
7924.00,1.43
7923.00,1.43
7922.00,1.43
7921.00,1.43
7920.00,1.43
7919.00,1.43
7918.00,1.43
7917.00,1.43
7916.00,1.43
7915.00,1.43
7914.00,1.43
7913.00,1.44
7912.00,1.44
7911.00,1.44
7910.00,1.44
7909.00,1.44
7908.00,1.44
7907.00,1.44
7906.00,1.44
7905.00,1.44
7904.00,1.44
7903.00,1.44
7902.00,1.44
7901.00,1.44
7900.00,1.44
7899.00,1.44
7898.00,1.44
7897.00,1.44
7896.00,1.44
7895.00,1.44
7894.00,1.44
7893.00,1.44
7892.00,1.44
7891.00,1.44
7890.00,1.44
7889.00,1.44
7888.00,1.44
7887.00,1.44
7886.00,1.45
7885.00,1.45
7884.00,1.45
7883.00,1.45
7882.00,1.45
7881.00,1.45
7880.00,1.45
7879.00,1.45
7878.00,1.45
7877.00,1.45
7876.00,1.45
7875.00,1.45
7874.00,1.45
7873.00,1.45
7872.00,1.45
7871.00,1.45
7870.00,1.45
7869.00,1.45
7868.00,1.45
7867.00,1.45
7866.00,1.45
7865.00,1.45
7864.00,1.45
7863.00,1.45
7862.00,1.45
7861.00,1.45
7860.00,1.45
7859.00,1.45
7858.00,1.45
7857.00,1.45
7856.00,1.45
7855.00,1.45
7854.00,1.45
7853.00,1.45
7852.00,1.45
7851.00,1.45
7850.00,1.45
7849.00,1.45
7848.00,1.45
7847.00,1.45
7846.00,1.45
7845.00,1.45
7844.00,1.45
7843.00,1.45
7842.00,1.45
7841.00,1.45
7840.00,1.45
7839.00,1.45
7838.00,1.45
7837.00,1.45
7836.00,1.45
7835.00,1.45
7834.00,1.45
7833.00,1.45
7832.00,1.46
7831.00,1.46
7830.00,1.46
7829.00,1.46
7828.00,1.46
7827.00,1.46
7826.00,1.46
7825.00,1.46
7824.00,1.46
7823.00,1.46
7822.00,1.46
7821.00,1.46
7820.00,1.46
7819.00,1.46
7818.00,1.46
7817.00,1.46
7816.00,1.46
7815.00,1.46
7814.00,1.46
7813.00,1.46
7812.00,1.46
7811.00,1.46
7810.00,1.46
7809.00,1.46
7808.00,1.46
7807.00,1.46
7806.00,1.46
7805.00,1.46
7804.00,1.46
7803.00,1.46
7802.00,1.46
7801.00,1.46
7800.00,1.46
7799.00,1.46
7798.00,1.46
7797.00,1.46
7796.00,1.46
7795.00,1.46
7794.00,1.46
7793.00,1.46
7792.00,1.46
7791.00,1.46
7790.00,1.46
7789.00,1.46
7788.00,1.46
7787.00,1.46
7786.00,1.46
7785.00,1.46
7784.00,1.46
7783.00,1.45
7782.00,1.45
7781.00,1.45
7780.00,1.45
7779.00,1.45
7778.00,1.45
7777.00,1.46
7776.00,1.46
7775.00,1.46
7774.00,1.46
7773.00,1.46
7772.00,1.46
7771.00,1.46
7770.00,1.46
7769.00,1.46
7768.00,1.46
7767.00,1.46
7766.00,1.46
7765.00,1.46
7764.00,1.46
7763.00,1.46
7762.00,1.46
7761.00,1.46
7760.00,1.46
7759.00,1.46
7758.00,1.46
7757.00,1.46
7756.00,1.46
7755.00,1.46
7754.00,1.46
7753.00,1.46
7752.00,1.46
7751.00,1.46
7750.00,1.46
7749.00,1.46
7748.00,1.46
7747.00,1.47
7746.00,1.47
7745.00,1.47
7744.00,1.47
7743.00,1.47
7742.00,1.47
7741.00,1.47
7740.00,1.47
7739.00,1.47
7738.00,1.47
7737.00,1.47
7736.00,1.47
7735.00,1.47
7734.00,1.47
7733.00,1.47
7732.00,1.47
7731.00,1.47
7730.00,1.47
7729.00,1.47
7728.00,1.47
7727.00,1.47
7726.00,1.46
7725.00,1.46
7724.00,1.46
7723.00,1.46
7722.00,1.46
7721.00,1.46
7720.00,1.46
7719.00,1.46
7718.00,1.46
7717.00,1.46
7716.00,1.46
7715.00,1.46
7714.00,1.46
7713.00,1.46
7712.00,1.46
7711.00,1.47
7710.00,1.47
7709.00,1.47
7708.00,1.47
7707.00,1.47
7706.00,1.47
7705.00,1.47
7704.00,1.47
7703.00,1.47
7702.00,1.47
7701.00,1.47
7700.00,1.47
7699.00,1.47
7698.00,1.47
7697.00,1.47
7696.00,1.47
7695.00,1.47
7694.00,1.47
7693.00,1.47
7692.00,1.47
7691.00,1.47
7690.00,1.47
7689.00,1.47
7688.00,1.47
7687.00,1.47
7686.00,1.47
7685.00,1.46
7684.00,1.46
7683.00,1.46
7682.00,1.46
7681.00,1.46
7680.00,1.46
7679.00,1.46
7678.00,1.46
7677.00,1.46
7676.00,1.46
7675.00,1.46
7674.00,1.46
7673.00,1.47
7672.00,1.47
7671.00,1.47
7670.00,1.47
7669.00,1.47
7668.00,1.47
7667.00,1.47
7666.00,1.47
7665.00,1.47
7664.00,1.47
7663.00,1.47
7662.00,1.47
7661.00,1.47
7660.00,1.47
7659.00,1.47
7658.00,1.47
7657.00,1.47
7656.00,1.47
7655.00,1.47
7654.00,1.47
7653.00,1.47
7652.00,1.47
7651.00,1.47
7650.00,1.47
7649.00,1.47
7648.00,1.47
7647.00,1.47
7646.00,1.47
7645.00,1.47
7644.00,1.47
7643.00,1.47
7642.00,1.47
7641.00,1.47
7640.00,1.47
7639.00,1.47
7638.00,1.47
7637.00,1.47
7636.00,1.47
7635.00,1.47
7634.00,1.47
7633.00,1.47
7632.00,1.47
7631.00,1.47
7630.00,1.46
7629.00,1.46
7628.00,1.46
7627.00,1.46
7626.00,1.46
7625.00,1.46
7624.00,1.46
7623.00,1.46
7622.00,1.46
7621.00,1.46
7620.00,1.46
7619.00,1.46
7618.00,1.46
7617.00,1.46
7616.00,1.46
7615.00,1.46
7614.00,1.46
7613.00,1.46
7612.00,1.46
7611.00,1.46
7610.00,1.46
7609.00,1.46
7608.00,1.46
7607.00,1.46
7606.00,1.46
7605.00,1.46
7604.00,1.46
7603.00,1.46
7602.00,1.46
7601.00,1.46
7600.00,1.46
7599.00,1.46
7598.00,1.46
7597.00,1.46
7596.00,1.46
7595.00,1.46
7594.00,1.46
7593.00,1.46
7592.00,1.46
7591.00,1.46
7590.00,1.46
7589.00,1.46
7588.00,1.46
7587.00,1.46
7586.00,1.46
7585.00,1.46
7584.00,1.46
7583.00,1.46
7582.00,1.46
7581.00,1.46
7580.00,1.46
7579.00,1.46
7578.00,1.46
7577.00,1.46
7576.00,1.46
7575.00,1.46
7574.00,1.46
7573.00,1.46
7572.00,1.46
7571.00,1.46
7570.00,1.46
7569.00,1.46
7568.00,1.46
7567.00,1.46
7566.00,1.46
7565.00,1.46
7564.00,1.46
7563.00,1.45
7562.00,1.45
7561.00,1.45
7560.00,1.45
7559.00,1.45
7558.00,1.45
7557.00,1.45
7556.00,1.45
7555.00,1.45
7554.00,1.45
7553.00,1.45
7552.00,1.44
7551.00,1.44
7550.00,1.44
7549.00,1.44
7548.00,1.44
7547.00,1.44
7546.00,1.44
7545.00,1.44
7544.00,1.44
7543.00,1.44
7542.00,1.44
7541.00,1.44
7540.00,1.44
7539.00,1.44
7538.00,1.44
7537.00,1.44
7536.00,1.44
7535.00,1.44
7534.00,1.44
7533.00,1.44
7532.00,1.44
7531.00,1.44
7530.00,1.44
7529.00,1.44
7528.00,1.44
7527.00,1.44
7526.00,1.44
7525.00,1.44
7524.00,1.44
7523.00,1.44
7522.00,1.44
7521.00,1.44
7520.00,1.44
7519.00,1.43
7518.00,1.43
7517.00,1.43
7516.00,1.43
7515.00,1.43
7514.00,1.43
7513.00,1.43
7512.00,1.43
7511.00,1.43
7510.00,1.43
7509.00,1.43
7508.00,1.43
7507.00,1.43
7506.00,1.43
7505.00,1.43
7504.00,1.42
7503.00,1.42
7502.00,1.42
7501.00,1.42
7500.00,1.42
7499.00,1.42
7498.00,1.42
7497.00,1.42
7496.00,1.42
7495.00,1.42
7494.00,1.42
7493.00,1.42
7492.00,1.42
7491.00,1.42
7490.00,1.42
7489.00,1.42
7488.00,1.42
7487.00,1.42
7486.00,1.42
7485.00,1.42
7484.00,1.42
7483.00,1.41
7482.00,1.41
7481.00,1.41
7480.00,1.41
7479.00,1.41
7478.00,1.41
7477.00,1.41
7476.00,1.41
7475.00,1.41
7474.00,1.41
7473.00,1.40
7472.00,1.40
7471.00,1.40
7470.00,1.40
7469.00,1.40
7468.00,1.40
7467.00,1.40
7466.00,1.40
7465.00,1.40
7464.00,1.40
7463.00,1.39
7462.00,1.39
7461.00,1.39
7460.00,1.39
7459.00,1.39
7458.00,1.39
7457.00,1.39
7456.00,1.39
7455.00,1.39
7454.00,1.39
7453.00,1.39
7452.00,1.39
7451.00,1.39
7450.00,1.39
7449.00,1.38
7448.00,1.38
7447.00,1.38
7446.00,1.38
7445.00,1.38
7444.00,1.38
7443.00,1.38
7442.00,1.38
7441.00,1.37
7440.00,1.37
7439.00,1.37
7438.00,1.37
7437.00,1.37
7436.00,1.37
7435.00,1.37
7434.00,1.37
7433.00,1.37
7432.00,1.37
7431.00,1.37
7430.00,1.37
7429.00,1.36
7428.00,1.36
7427.00,1.36
7426.00,1.36
7425.00,1.36
7424.00,1.36
7423.00,1.36
7422.00,1.36
7421.00,1.36
7420.00,1.36
7419.00,1.36
7418.00,1.36
7417.00,1.36
7416.00,1.35
7415.00,1.35
7414.00,1.35
7413.00,1.35
7412.00,1.35
7411.00,1.35
7410.00,1.35
7409.00,1.35
7408.00,1.35
7407.00,1.35
7406.00,1.35
7405.00,1.35
7404.00,1.34
7403.00,1.34
7402.00,1.34
7401.00,1.34
7400.00,1.34
7399.00,1.34
7398.00,1.34
7397.00,1.34
7396.00,1.34
7395.00,1.34
7394.00,1.33
7393.00,1.33
7392.00,1.33
7391.00,1.33
7390.00,1.33
7389.00,1.33
7388.00,1.33
7387.00,1.33
7386.00,1.33
7385.00,1.33
7384.00,1.33
7383.00,1.32
7382.00,1.32
7381.00,1.32
7380.00,1.32
7379.00,1.32
7378.00,1.32
7377.00,1.32
7376.00,1.32
7375.00,1.32
7374.00,1.32
7373.00,1.32
7372.00,1.32
7371.00,1.32
7370.00,1.32
7369.00,1.32
7368.00,1.32
7367.00,1.32
7366.00,1.32
7365.00,1.32
7364.00,1.32
7363.00,1.32
7362.00,1.32
7361.00,1.32
7360.00,1.32
7359.00,1.32
7358.00,1.32
7357.00,1.31
7356.00,1.31
7355.00,1.31
7354.00,1.31
7353.00,1.31
7352.00,1.31
7351.00,1.31
7350.00,1.31
7349.00,1.31
7348.00,1.31
7347.00,1.31
7346.00,1.30
7345.00,1.30
7344.00,1.30
7343.00,1.30
7342.00,1.30
7341.00,1.30
7340.00,1.30
7339.00,1.30
7338.00,1.30
7337.00,1.30
7336.00,1.30
7335.00,1.30
7334.00,1.30
7333.00,1.30
7332.00,1.30
7331.00,1.30
7330.00,1.30
7329.00,1.30
7328.00,1.29
7327.00,1.29
7326.00,1.29
7325.00,1.29
7324.00,1.29
7323.00,1.29
7322.00,1.29
7321.00,1.29
7320.00,1.29
7319.00,1.29
7318.00,1.29
7317.00,1.29
7316.00,1.28
7315.00,1.28
7314.00,1.28
7313.00,1.28
7312.00,1.28
7311.00,1.28
7310.00,1.28
7309.00,1.27
7308.00,1.27
7307.00,1.27
7306.00,1.27
7305.00,1.27
7304.00,1.27
7303.00,1.27
7302.00,1.27
7301.00,1.26
7300.00,1.26
7299.00,1.26
7298.00,1.26
7297.00,1.26
7296.00,1.26
7295.00,1.26
7294.00,1.26
7293.00,1.26
7292.00,1.26
7291.00,1.26
7290.00,1.26
7289.00,1.26
7288.00,1.26
7287.00,1.25
7286.00,1.25
7285.00,1.25
7284.00,1.25
7283.00,1.25
7282.00,1.25
7281.00,1.25
7280.00,1.25
7279.00,1.24
7278.00,1.24
7277.00,1.24
7276.00,1.24
7275.00,1.24
7274.00,1.24
7273.00,1.24
7272.00,1.23
7271.00,1.23
7270.00,1.23
7269.00,1.23
7268.00,1.23
7267.00,1.23
7266.00,1.22
7265.00,1.22
7264.00,1.22
7263.00,1.22
7262.00,1.22
7261.00,1.21
7260.00,1.21
7259.00,1.21
7258.00,1.21
7257.00,1.20
7256.00,1.20
7255.00,1.20
7254.00,1.20
7253.00,1.19
7252.00,1.19
7251.00,1.19
7250.00,1.18
7249.00,1.18
7248.00,1.18
7247.00,1.17
7246.00,1.17
7245.00,1.17
7244.00,1.16
7243.00,1.16
7242.00,1.16
7241.00,1.16
7240.00,1.15
7239.00,1.15
7238.00,1.15
7237.00,1.14
7236.00,1.14
7235.00,1.14
7234.00,1.14
7233.00,1.13
7232.00,1.13
7231.00,1.13
7230.00,1.12
7229.00,1.12
7228.00,1.12
7227.00,1.12
7226.00,1.11
7225.00,1.11
7224.00,1.11
7223.00,1.10
7222.00,1.10
7221.00,1.10
7220.00,1.09
7219.00,1.09
7218.00,1.09
7217.00,1.08
7216.00,1.08
7215.00,1.08
7214.00,1.07
7213.00,1.07
7212.00,1.07
7211.00,1.07
7210.00,1.06
7209.00,1.06
7208.00,1.06
7207.00,1.05
7206.00,1.05
7205.00,1.05
7204.00,1.04
7203.00,1.04
7202.00,1.04
7201.00,1.03
7200.00,1.03
7199.00,1.03
7198.00,1.02
7197.00,1.02
7196.00,1.01
7195.00,1.01
7194.00,1.00
7193.00,1.00
7192.00,1.00
7191.00,0.99
7190.00,0.99
7189.00,0.98
7188.00,0.98
7187.00,0.97
7186.00,0.97
7185.00,0.97
7184.00,0.96
7183.00,0.96
7182.00,0.95
7181.00,0.95
7180.00,0.95
7179.00,0.94
7178.00,0.94
7177.00,0.93
7176.00,0.93
7175.00,0.93
7174.00,0.92
7173.00,0.92
7172.00,0.92
7171.00,0.92
7170.00,0.91
7169.00,0.91
7168.00,0.91
7167.00,0.91
7166.00,0.91
7165.00,0.91
7164.00,0.90
7163.00,0.90
7162.00,0.90
7161.00,0.90
7160.00,0.90
7159.00,0.90
7158.00,0.89
7157.00,0.89
7156.00,0.89
7155.00,0.89
7154.00,0.89
7153.00,0.88
7152.00,0.88
7151.00,0.88
7150.00,0.88
7149.00,0.87
7148.00,0.87
7147.00,0.87
7146.00,0.87
7145.00,0.86
7144.00,0.86
7143.00,0.86
7142.00,0.86
7141.00,0.86
7140.00,0.85
7139.00,0.85
7138.00,0.85
7137.00,0.85
7136.00,0.84
7135.00,0.84
7134.00,0.84
7133.00,0.84
7132.00,0.84
7131.00,0.83
7130.00,0.83
7129.00,0.83
7128.00,0.83
7127.00,0.82
7126.00,0.82
7125.00,0.82
7124.00,0.82
7123.00,0.82
7122.00,0.82
7121.00,0.82
7120.00,0.81
7119.00,0.81
7118.00,0.81
7117.00,0.81
7116.00,0.81
7115.00,0.81
7114.00,0.81
7113.00,0.81
7112.00,0.81
7111.00,0.80
7110.00,0.80
7109.00,0.80
7108.00,0.80
7107.00,0.80
7106.00,0.80
7105.00,0.79
7104.00,0.79
7103.00,0.79
7102.00,0.79
7101.00,0.79
7100.00,0.78
7099.00,0.78
7098.00,0.78
7097.00,0.78
7096.00,0.78
7095.00,0.78
7094.00,0.78
7093.00,0.77
7092.00,0.77
7091.00,0.77
7090.00,0.77
7089.00,0.77
7088.00,0.77
7087.00,0.77
7086.00,0.77
7085.00,0.77
7084.00,0.76
7083.00,0.76
7082.00,0.76
7081.00,0.76
7080.00,0.76
7079.00,0.76
7078.00,0.76
7077.00,0.75
7076.00,0.75
7075.00,0.75
7074.00,0.75
7073.00,0.75
7072.00,0.75
7071.00,0.75
7070.00,0.75
7069.00,0.75
7068.00,0.75
7067.00,0.75
7066.00,0.75
7065.00,0.75
7064.00,0.75
7063.00,0.75
7062.00,0.75
7061.00,0.75
7060.00,0.75
7059.00,0.75
7058.00,0.75
7057.00,0.75
7056.00,0.75
7055.00,0.75
7054.00,0.75
7053.00,0.75
7052.00,0.75
7051.00,0.75
7050.00,0.75
7049.00,0.75
7048.00,0.75
7047.00,0.74
7046.00,0.74
7045.00,0.74
7044.00,0.74
7043.00,0.74
7042.00,0.74
7041.00,0.75
7040.00,0.75
7039.00,0.75
7038.00,0.75
7037.00,0.75
7036.00,0.75
7035.00,0.75
7034.00,0.75
7033.00,0.75
7032.00,0.75
7031.00,0.75
7030.00,0.75
7029.00,0.75
7028.00,0.74
7027.00,0.74
7026.00,0.74
7025.00,0.74
7024.00,0.74
7023.00,0.74
7022.00,0.74
7021.00,0.74
7020.00,0.74
7019.00,0.74
7018.00,0.74
7017.00,0.74
7016.00,0.74
7015.00,0.74
7014.00,0.74
7013.00,0.74
7012.00,0.74
7011.00,0.74
7010.00,0.74
7009.00,0.74
7008.00,0.74
7007.00,0.74
7006.00,0.74
7005.00,0.74
7004.00,0.74
7003.00,0.74
7002.00,0.74
7001.00,0.74
7000.00,0.73
6999.00,0.73
6998.00,0.73
6997.00,0.73
6996.00,0.73
6995.00,0.73
6994.00,0.73
6993.00,0.73
6992.00,0.73
6991.00,0.73
6990.00,0.73
6989.00,0.73
6988.00,0.73
6987.00,0.73
6986.00,0.73
6985.00,0.73
6984.00,0.73
6983.00,0.73
6982.00,0.73
6981.00,0.73
6980.00,0.73
6979.00,0.73
6978.00,0.73
6977.00,0.73
6976.00,0.73
6975.00,0.73
6974.00,0.73
6973.00,0.73
6972.00,0.73
6971.00,0.73
6970.00,0.73
6969.00,0.73
6968.00,0.73
6967.00,0.73
6966.00,0.73
6965.00,0.73
6964.00,0.73
6963.00,0.73
6962.00,0.73
6961.00,0.73
6960.00,0.73
6959.00,0.73
6958.00,0.73
6957.00,0.73
6956.00,0.74
6955.00,0.74
6954.00,0.74
6953.00,0.74
6952.00,0.74
6951.00,0.74
6950.00,0.74
6949.00,0.74
6948.00,0.74
6947.00,0.74
6946.00,0.74
6945.00,0.74
6944.00,0.74
6943.00,0.74
6942.00,0.74
6941.00,0.74
6940.00,0.74
6939.00,0.74
6938.00,0.74
6937.00,0.74
6936.00,0.74
6935.00,0.74
6934.00,0.74
6933.00,0.73
6932.00,0.73
6931.00,0.73
6930.00,0.73
6929.00,0.73
6928.00,0.73
6927.00,0.73
6926.00,0.73
6925.00,0.73
6924.00,0.73
6923.00,0.73
6922.00,0.73
6921.00,0.73
6920.00,0.73
6919.00,0.73
6918.00,0.73
6917.00,0.73
6916.00,0.73
6915.00,0.73
6914.00,0.73
6913.00,0.73
6912.00,0.73
6911.00,0.73
6910.00,0.73
6909.00,0.73
6908.00,0.74
6907.00,0.74
6906.00,0.74
6905.00,0.74
6904.00,0.74
6903.00,0.74
6902.00,0.74
6901.00,0.74
6900.00,0.73
6899.00,0.73
6898.00,0.73
6897.00,0.73
6896.00,0.73
6895.00,0.73
6894.00,0.73
6893.00,0.73
6892.00,0.73
6891.00,0.73
6890.00,0.73
6889.00,0.73
6888.00,0.73
6887.00,0.73
6886.00,0.73
6885.00,0.73
6884.00,0.73
6883.00,0.73
6882.00,0.73
6881.00,0.73
6880.00,0.73
6879.00,0.73
6878.00,0.73
6877.00,0.73
6876.00,0.73
6875.00,0.73
6874.00,0.73
6873.00,0.73
6872.00,0.73
6871.00,0.73
6870.00,0.73
6869.00,0.73
6868.00,0.73
6867.00,0.73
6866.00,0.73
6865.00,0.73
6864.00,0.73
6863.00,0.74
6862.00,0.74
6861.00,0.74
6860.00,0.74
6859.00,0.74
6858.00,0.74
6857.00,0.74
6856.00,0.74
6855.00,0.74
6854.00,0.74
6853.00,0.74
6852.00,0.74
6851.00,0.74
6850.00,0.74
6849.00,0.74
6848.00,0.74
6847.00,0.74
6846.00,0.74
6845.00,0.74
6844.00,0.74
6843.00,0.74
6842.00,0.74
6841.00,0.74
6840.00,0.74
6839.00,0.74
6838.00,0.74
6837.00,0.74
6836.00,0.74
6835.00,0.74
6834.00,0.74
6833.00,0.74
6832.00,0.74
6831.00,0.74
6830.00,0.74
6829.00,0.74
6828.00,0.74
6827.00,0.74
6826.00,0.74
6825.00,0.74
6824.00,0.74
6823.00,0.74
6822.00,0.74
6821.00,0.74
6820.00,0.74
6819.00,0.74
6818.00,0.74
6817.00,0.74
6816.00,0.74
6815.00,0.74
6814.00,0.74
6813.00,0.74
6812.00,0.74
6811.00,0.74
6810.00,0.74
6809.00,0.74
6808.00,0.74
6807.00,0.74
6806.00,0.74
6805.00,0.74
6804.00,0.74
6803.00,0.74
6802.00,0.75
6801.00,0.75
6800.00,0.75
6799.00,0.75
6798.00,0.75
6797.00,0.75
6796.00,0.75
6795.00,0.75
6794.00,0.75
6793.00,0.75
6792.00,0.75
6791.00,0.75
6790.00,0.75
6789.00,0.75
6788.00,0.75
6787.00,0.75
6786.00,0.75
6785.00,0.75
6784.00,0.75
6783.00,0.75
6782.00,0.75
6781.00,0.75
6780.00,0.75
6779.00,0.75
6778.00,0.75
6777.00,0.75
6776.00,0.75
6775.00,0.75
6774.00,0.75
6773.00,0.76
6772.00,0.76
6771.00,0.76
6770.00,0.76
6769.00,0.76
6768.00,0.76
6767.00,0.76
6766.00,0.76
6765.00,0.76
6764.00,0.76
6763.00,0.76
6762.00,0.76
6761.00,0.76
6760.00,0.76
6759.00,0.76
6758.00,0.76
6757.00,0.76
6756.00,0.76
6755.00,0.77
6754.00,0.77
6753.00,0.77
6752.00,0.77
6751.00,0.77
6750.00,0.77
6749.00,0.77
6748.00,0.77
6747.00,0.77
6746.00,0.77
6745.00,0.77
6744.00,0.77
6743.00,0.77
6742.00,0.77
6741.00,0.77
6740.00,0.77
6739.00,0.77
6738.00,0.77
6737.00,0.77
6736.00,0.77
6735.00,0.77
6734.00,0.77
6733.00,0.77
6732.00,0.77
6731.00,0.77
6730.00,0.77
6729.00,0.77
6728.00,0.77
6727.00,0.77
6726.00,0.77
6725.00,0.77
6724.00,0.77
6723.00,0.77
6722.00,0.77
6721.00,0.78
6720.00,0.78
6719.00,0.78
6718.00,0.78
6717.00,0.78
6716.00,0.78
6715.00,0.78
6714.00,0.78
6713.00,0.78
6712.00,0.78
6711.00,0.78
6710.00,0.78
6709.00,0.78
6708.00,0.78
6707.00,0.78
6706.00,0.78
6705.00,0.78
6704.00,0.78
6703.00,0.78
6702.00,0.78
6701.00,0.78
6700.00,0.79
6699.00,0.79
6698.00,0.79
6697.00,0.79
6696.00,0.79
6695.00,0.79
6694.00,0.79
6693.00,0.79
6692.00,0.80
6691.00,0.80
6690.00,0.80
6689.00,0.80
6688.00,0.80
6687.00,0.80
6686.00,0.80
6685.00,0.80
6684.00,0.80
6683.00,0.80
6682.00,0.80
6681.00,0.80
6680.00,0.80
6679.00,0.80
6678.00,0.80
6677.00,0.80
6676.00,0.81
6675.00,0.81
6674.00,0.81
6673.00,0.81
6672.00,0.81
6671.00,0.81
6670.00,0.81
6669.00,0.81
6668.00,0.81
6667.00,0.81
6666.00,0.81
6665.00,0.81
6664.00,0.81
6663.00,0.81
6662.00,0.81
6661.00,0.81
6660.00,0.81
6659.00,0.82
6658.00,0.82
6657.00,0.82
6656.00,0.82
6655.00,0.82
6654.00,0.82
6653.00,0.82
6652.00,0.82
6651.00,0.82
6650.00,0.82
6649.00,0.82
6648.00,0.82
6647.00,0.82
6646.00,0.82
6645.00,0.82
6644.00,0.82
6643.00,0.82
6642.00,0.82
6641.00,0.82
6640.00,0.82
6639.00,0.82
6638.00,0.82
6637.00,0.82
6636.00,0.82
6635.00,0.82
6634.00,0.83
6633.00,0.83
6632.00,0.83
6631.00,0.83
6630.00,0.83
6629.00,0.83
6628.00,0.83
6627.00,0.83
6626.00,0.83
6625.00,0.83
6624.00,0.83
6623.00,0.84
6622.00,0.84
6621.00,0.84
6620.00,0.84
6619.00,0.84
6618.00,0.84
6617.00,0.84
6616.00,0.84
6615.00,0.84
6614.00,0.84
6613.00,0.84
6612.00,0.84
6611.00,0.84
6610.00,0.84
6609.00,0.84
6608.00,0.84
6607.00,0.84
6606.00,0.84
6605.00,0.84
6604.00,0.84
6603.00,0.84
6602.00,0.84
6601.00,0.84
6600.00,0.84
6599.00,0.84
6598.00,0.84
6597.00,0.84
6596.00,0.85
6595.00,0.85
6594.00,0.85
6593.00,0.85
6592.00,0.85
6591.00,0.85
6590.00,0.85
6589.00,0.85
6588.00,0.86
6587.00,0.86
6586.00,0.86
6585.00,0.86
6584.00,0.86
6583.00,0.86
6582.00,0.86
6581.00,0.87
6580.00,0.87
6579.00,0.87
6578.00,0.87
6577.00,0.87
6576.00,0.87
6575.00,0.87
6574.00,0.87
6573.00,0.88
6572.00,0.88
6571.00,0.88
6570.00,0.88
6569.00,0.88
6568.00,0.88
6567.00,0.88
6566.00,0.88
6565.00,0.88
6564.00,0.88
6563.00,0.88
6562.00,0.88
6561.00,0.88
6560.00,0.88
6559.00,0.89
6558.00,0.89
6557.00,0.89
6556.00,0.89
6555.00,0.89
6554.00,0.89
6553.00,0.89
6552.00,0.89
6551.00,0.89
6550.00,0.89
6549.00,0.89
6548.00,0.89
6547.00,0.89
6546.00,0.88
6545.00,0.88
6544.00,0.88
6543.00,0.88
6542.00,0.89
6541.00,0.89
6540.00,0.89
6539.00,0.89
6538.00,0.89
6537.00,0.89
6536.00,0.89
6535.00,0.89
6534.00,0.89
6533.00,0.89
6532.00,0.89
6531.00,0.89
6530.00,0.90
6529.00,0.90
6528.00,0.90
6527.00,0.90
6526.00,0.90
6525.00,0.90
6524.00,0.90
6523.00,0.90
6522.00,0.90
6521.00,0.90
6520.00,0.91
6519.00,0.91
6518.00,0.91
6517.00,0.91
6516.00,0.91
6515.00,0.91
6514.00,0.91
6513.00,0.91
6512.00,0.91
6511.00,0.91
6510.00,0.91
6509.00,0.91
6508.00,0.91
6507.00,0.91
6506.00,0.91
6505.00,0.91
6504.00,0.91
6503.00,0.91
6502.00,0.91
6501.00,0.91
6500.00,0.91
6499.00,0.91
6498.00,0.92
6497.00,0.92
6496.00,0.92
6495.00,0.92
6494.00,0.92
6493.00,0.92
6492.00,0.92
6491.00,0.92
6490.00,0.92
6489.00,0.92
6488.00,0.92
6487.00,0.92
6486.00,0.92
6485.00,0.92
6484.00,0.92
6483.00,0.92
6482.00,0.92
6481.00,0.92
6480.00,0.93
6479.00,0.93
6478.00,0.93
6477.00,0.93
6476.00,0.93
6475.00,0.93
6474.00,0.93
6473.00,0.93
6472.00,0.93
6471.00,0.93
6470.00,0.93
6469.00,0.93
6468.00,0.93
6467.00,0.94
6466.00,0.94
6465.00,0.94
6464.00,0.94
6463.00,0.94
6462.00,0.94
6461.00,0.94
6460.00,0.94
6459.00,0.94
6458.00,0.94
6457.00,0.95
6456.00,0.95
6455.00,0.95
6454.00,0.95
6453.00,0.95
6452.00,0.95
6451.00,0.95
6450.00,0.96
6449.00,0.96
6448.00,0.96
6447.00,0.96
6446.00,0.96
6445.00,0.96
6444.00,0.96
6443.00,0.96
6442.00,0.96
6441.00,0.96
6440.00,0.96
6439.00,0.96
6438.00,0.96
6437.00,0.96
6436.00,0.96
6435.00,0.96
6434.00,0.96
6433.00,0.96
6432.00,0.96
6431.00,0.97
6430.00,0.97
6429.00,0.97
6428.00,0.97
6427.00,0.97
6426.00,0.97
6425.00,0.97
6424.00,0.97
6423.00,0.97
6422.00,0.97
6421.00,0.97
6420.00,0.97
6419.00,0.98
6418.00,0.98
6417.00,0.98
6416.00,0.98
6415.00,0.98
6414.00,0.98
6413.00,0.98
6412.00,0.98
6411.00,0.98
6410.00,0.98
6409.00,0.98
6408.00,0.98
6407.00,0.98
6406.00,0.98
6405.00,0.99
6404.00,0.99
6403.00,0.99
6402.00,0.99
6401.00,0.99
6400.00,0.99
6399.00,0.99
6398.00,0.99
6397.00,0.99
6396.00,0.99
6395.00,0.99
6394.00,0.99
6393.00,1.00
6392.00,1.00
6391.00,1.00
6390.00,1.00
6389.00,1.00
6388.00,1.00
6387.00,1.00
6386.00,1.00
6385.00,1.00
6384.00,1.00
6383.00,1.00
6382.00,1.00
6381.00,1.00
6380.00,1.00
6379.00,1.00
6378.00,1.00
6377.00,1.00
6376.00,1.00
6375.00,1.00
6374.00,1.00
6373.00,1.00
6372.00,1.00
6371.00,1.00
6370.00,1.01
6369.00,1.01
6368.00,1.01
6367.00,1.01
6366.00,1.01
6365.00,1.01
6364.00,1.01
6363.00,1.01
6362.00,1.01
6361.00,1.02
6360.00,1.02
6359.00,1.02
6358.00,1.02
6357.00,1.02
6356.00,1.02
6355.00,1.02
6354.00,1.02
6353.00,1.02
6352.00,1.02
6351.00,1.02
6350.00,1.03
6349.00,1.03
6348.00,1.03
6347.00,1.03
6346.00,1.03
6345.00,1.03
6344.00,1.03
6343.00,1.03
6342.00,1.03
6341.00,1.03
6340.00,1.03
6339.00,1.03
6338.00,1.03
6337.00,1.04
6336.00,1.04
6335.00,1.04
6334.00,1.04
6333.00,1.04
6332.00,1.04
6331.00,1.04
6330.00,1.04
6329.00,1.05
6328.00,1.05
6327.00,1.05
6326.00,1.05
6325.00,1.05
6324.00,1.05
6323.00,1.06
6322.00,1.06
6321.00,1.06
6320.00,1.06
6319.00,1.06
6318.00,1.06
6317.00,1.06
6316.00,1.06
6315.00,1.07
6314.00,1.07
6313.00,1.07
6312.00,1.07
6311.00,1.07
6310.00,1.07
6309.00,1.07
6308.00,1.07
6307.00,1.07
6306.00,1.07
6305.00,1.07
6304.00,1.07
6303.00,1.07
6302.00,1.07
6301.00,1.07
6300.00,1.07
6299.00,1.08
6298.00,1.08
6297.00,1.08
6296.00,1.08
6295.00,1.08
6294.00,1.08
6293.00,1.08
6292.00,1.08
6291.00,1.08
6290.00,1.08
6289.00,1.08
6288.00,1.08
6287.00,1.09
6286.00,1.09
6285.00,1.09
6284.00,1.09
6283.00,1.09
6282.00,1.09
6281.00,1.09
6280.00,1.09
6279.00,1.10
6278.00,1.10
6277.00,1.10
6276.00,1.10
6275.00,1.10
6274.00,1.10
6273.00,1.10
6272.00,1.10
6271.00,1.10
6270.00,1.11
6269.00,1.11
6268.00,1.11
6267.00,1.11
6266.00,1.11
6265.00,1.11
6264.00,1.11
6263.00,1.11
6262.00,1.12
6261.00,1.12
6260.00,1.12
6259.00,1.12
6258.00,1.12
6257.00,1.12
6256.00,1.12
6255.00,1.13
6254.00,1.13
6253.00,1.13
6252.00,1.13
6251.00,1.13
6250.00,1.13
6249.00,1.13
6248.00,1.13
6247.00,1.13
6246.00,1.14
6245.00,1.14
6244.00,1.14
6243.00,1.14
6242.00,1.14
6241.00,1.14
6240.00,1.14
6239.00,1.14
6238.00,1.14
6237.00,1.14
6236.00,1.14
6235.00,1.14
6234.00,1.15
6233.00,1.15
6232.00,1.15
6231.00,1.15
6230.00,1.15
6229.00,1.15
6228.00,1.15
6227.00,1.15
6226.00,1.16
6225.00,1.16
6224.00,1.16
6223.00,1.16
6222.00,1.16
6221.00,1.16
6220.00,1.16
6219.00,1.16
6218.00,1.17
6217.00,1.17
6216.00,1.17
6215.00,1.17
6214.00,1.17
6213.00,1.17
6212.00,1.17
6211.00,1.18
6210.00,1.18
6209.00,1.18
6208.00,1.18
6207.00,1.18
6206.00,1.18
6205.00,1.18
6204.00,1.19
6203.00,1.19
6202.00,1.19
6201.00,1.19
6200.00,1.19
6199.00,1.19
6198.00,1.19
6197.00,1.19
6196.00,1.19
6195.00,1.20
6194.00,1.20
6193.00,1.20
6192.00,1.20
6191.00,1.20
6190.00,1.20
6189.00,1.20
6188.00,1.20
6187.00,1.20
6186.00,1.21
6185.00,1.21
6184.00,1.21
6183.00,1.21
6182.00,1.21
6181.00,1.21
6180.00,1.21
6179.00,1.21
6178.00,1.21
6177.00,1.21
6176.00,1.22
6175.00,1.22
6174.00,1.22
6173.00,1.22
6172.00,1.22
6171.00,1.22
6170.00,1.22
6169.00,1.23
6168.00,1.23
6167.00,1.23
6166.00,1.23
6165.00,1.23
6164.00,1.23
6163.00,1.24
6162.00,1.24
6161.00,1.24
6160.00,1.24
6159.00,1.24
6158.00,1.24
6157.00,1.25
6156.00,1.25
6155.00,1.25
6154.00,1.25
6153.00,1.25
6152.00,1.25
6151.00,1.26
6150.00,1.26
6149.00,1.26
6148.00,1.26
6147.00,1.26
6146.00,1.26
6145.00,1.27
6144.00,1.27
6143.00,1.27
6142.00,1.27
6141.00,1.27
6140.00,1.27
6139.00,1.27
6138.00,1.28
6137.00,1.28
6136.00,1.28
6135.00,1.28
6134.00,1.28
6133.00,1.28
6132.00,1.28
6131.00,1.28
6130.00,1.29
6129.00,1.29
6128.00,1.29
6127.00,1.29
6126.00,1.29
6125.00,1.29
6124.00,1.29
6123.00,1.29
6122.00,1.29
6121.00,1.29
6120.00,1.29
6119.00,1.29
6118.00,1.29
6117.00,1.29
6116.00,1.30
6115.00,1.30
6114.00,1.30
6113.00,1.30
6112.00,1.30
6111.00,1.30
6110.00,1.30
6109.00,1.30
6108.00,1.30
6107.00,1.31
6106.00,1.31
6105.00,1.31
6104.00,1.31
6103.00,1.31
6102.00,1.31
6101.00,1.32
6100.00,1.32
6099.00,1.32
6098.00,1.32
6097.00,1.32
6096.00,1.32
6095.00,1.33
6094.00,1.33
6093.00,1.33
6092.00,1.33
6091.00,1.33
6090.00,1.33
6089.00,1.34
6088.00,1.34
6087.00,1.34
6086.00,1.34
6085.00,1.34
6084.00,1.34
6083.00,1.34
6082.00,1.34
6081.00,1.35
6080.00,1.35
6079.00,1.35
6078.00,1.35
6077.00,1.35
6076.00,1.35
6075.00,1.35
6074.00,1.35
6073.00,1.35
6072.00,1.35
6071.00,1.36
6070.00,1.36
6069.00,1.36
6068.00,1.36
6067.00,1.36
6066.00,1.36
6065.00,1.36
6064.00,1.37
6063.00,1.37
6062.00,1.37
6061.00,1.37
6060.00,1.37
6059.00,1.37
6058.00,1.37
6057.00,1.38
6056.00,1.38
6055.00,1.38
6054.00,1.38
6053.00,1.38
6052.00,1.38
6051.00,1.38
6050.00,1.38
6049.00,1.38
6048.00,1.38
6047.00,1.39
6046.00,1.39
6045.00,1.39
6044.00,1.39
6043.00,1.39
6042.00,1.39
6041.00,1.39
6040.00,1.39
6039.00,1.39
6038.00,1.39
6037.00,1.39
6036.00,1.39
6035.00,1.39
6034.00,1.39
6033.00,1.39
6032.00,1.39
6031.00,1.39
6030.00,1.39
6029.00,1.39
6028.00,1.39
6027.00,1.39
6026.00,1.39
6025.00,1.39
6024.00,1.39
6023.00,1.39
6022.00,1.39
6021.00,1.39
6020.00,1.39
6019.00,1.39
6018.00,1.40
6017.00,1.40
6016.00,1.40
6015.00,1.40
6014.00,1.40
6013.00,1.40
6012.00,1.40
6011.00,1.40
6010.00,1.40
6009.00,1.40
6008.00,1.40
6007.00,1.40
6006.00,1.40
6005.00,1.40
6004.00,1.40
6003.00,1.40
6002.00,1.40
6001.00,1.40
6000.00,1.40
5999.00,1.40
5998.00,1.40
5997.00,1.40
5996.00,1.39
5995.00,1.39
5994.00,1.39
5993.00,1.39
5992.00,1.39
5991.00,1.39
5990.00,1.39
5989.00,1.39
5988.00,1.39
5987.00,1.38
5986.00,1.38
5985.00,1.38
5984.00,1.38
5983.00,1.38
5982.00,1.37
5981.00,1.37
5980.00,1.37
5979.00,1.37
5978.00,1.36
5977.00,1.36
5976.00,1.36
5975.00,1.35
5974.00,1.35
5973.00,1.35
5972.00,1.34
5971.00,1.34
5970.00,1.33
5969.00,1.33
5968.00,1.32
5967.00,1.32
5966.00,1.31
5965.00,1.31
5964.00,1.30
5963.00,1.30
5962.00,1.29
5961.00,1.29
5960.00,1.28
5959.00,1.27
5958.00,1.27
5957.00,1.26
5956.00,1.26
5955.00,1.25
5954.00,1.25
5953.00,1.24
5952.00,1.24
5951.00,1.24
5950.00,1.23
5949.00,1.23
5948.00,1.23
5947.00,1.22
5946.00,1.22
5945.00,1.22
5944.00,1.22
5943.00,1.21
5942.00,1.21
5941.00,1.21
5940.00,1.21
5939.00,1.21
5938.00,1.21
5937.00,1.21
5936.00,1.21
5935.00,1.21
5934.00,1.21
5933.00,1.20
5932.00,1.20
5931.00,1.20
5930.00,1.20
5929.00,1.20
5928.00,1.20
5927.00,1.20
5926.00,1.20
5925.00,1.20
5924.00,1.19
5923.00,1.19
5922.00,1.19
5921.00,1.19
5920.00,1.19
5919.00,1.18
5918.00,1.18
5917.00,1.18
5916.00,1.18
5915.00,1.18
5914.00,1.17
5913.00,1.17
5912.00,1.17
5911.00,1.17
5910.00,1.17
5909.00,1.17
5908.00,1.17
5907.00,1.17
5906.00,1.17
5905.00,1.17
5904.00,1.17
5903.00,1.17
5902.00,1.17
5901.00,1.17
5900.00,1.17
5899.00,1.17
5898.00,1.17
5897.00,1.17
5896.00,1.18
5895.00,1.18
5894.00,1.18
5893.00,1.18
5892.00,1.18
5891.00,1.19
5890.00,1.19
5889.00,1.19
5888.00,1.19
5887.00,1.20
5886.00,1.20
5885.00,1.20
5884.00,1.21
5883.00,1.21
5882.00,1.21
5881.00,1.21
5880.00,1.22
5879.00,1.22
5878.00,1.22
5877.00,1.22
5876.00,1.23
5875.00,1.23
5874.00,1.23
5873.00,1.23
5872.00,1.23
5871.00,1.24
5870.00,1.24
5869.00,1.24
5868.00,1.24
5867.00,1.24
5866.00,1.24
5865.00,1.24
5864.00,1.24
5863.00,1.25
5862.00,1.25
5861.00,1.25
5860.00,1.25
5859.00,1.25
5858.00,1.25
5857.00,1.25
5856.00,1.25
5855.00,1.25
5854.00,1.25
5853.00,1.25
5852.00,1.25
5851.00,1.25
5850.00,1.25
5849.00,1.25
5848.00,1.25
5847.00,1.25
5846.00,1.25
5845.00,1.26
5844.00,1.26
5843.00,1.26
5842.00,1.26
5841.00,1.26
5840.00,1.26
5839.00,1.26
5838.00,1.26
5837.00,1.26
5836.00,1.26
5835.00,1.26
5834.00,1.26
5833.00,1.26
5832.00,1.26
5831.00,1.26
5830.00,1.26
5829.00,1.26
5828.00,1.26
5827.00,1.26
5826.00,1.26
5825.00,1.26
5824.00,1.26
5823.00,1.26
5822.00,1.25
5821.00,1.25
5820.00,1.25
5819.00,1.25
5818.00,1.25
5817.00,1.25
5816.00,1.25
5815.00,1.25
5814.00,1.25
5813.00,1.25
5812.00,1.25
5811.00,1.25
5810.00,1.25
5809.00,1.25
5808.00,1.25
5807.00,1.25
5806.00,1.25
5805.00,1.25
5804.00,1.25
5803.00,1.25
5802.00,1.25
5801.00,1.25
5800.00,1.25
5799.00,1.25
5798.00,1.24
5797.00,1.24
5796.00,1.24
5795.00,1.24
5794.00,1.24
5793.00,1.24
5792.00,1.24
5791.00,1.24
5790.00,1.23
5789.00,1.23
5788.00,1.23
5787.00,1.23
5786.00,1.23
5785.00,1.23
5784.00,1.23
5783.00,1.23
5782.00,1.22
5781.00,1.22
5780.00,1.22
5779.00,1.22
5778.00,1.22
5777.00,1.22
5776.00,1.22
5775.00,1.22
5774.00,1.22
5773.00,1.22
5772.00,1.22
5771.00,1.22
5770.00,1.22
5769.00,1.22
5768.00,1.22
5767.00,1.22
5766.00,1.22
5765.00,1.23
5764.00,1.23
5763.00,1.23
5762.00,1.23
5761.00,1.24
5760.00,1.24
5759.00,1.24
5758.00,1.25
5757.00,1.25
5756.00,1.25
5755.00,1.25
5754.00,1.26
5753.00,1.26
5752.00,1.26
5751.00,1.26
5750.00,1.26
5749.00,1.27
5748.00,1.27
5747.00,1.27
5746.00,1.27
5745.00,1.27
5744.00,1.27
5743.00,1.27
5742.00,1.27
5741.00,1.28
5740.00,1.28
5739.00,1.28
5738.00,1.28
5737.00,1.28
5736.00,1.28
5735.00,1.28
5734.00,1.28
5733.00,1.28
5732.00,1.28
5731.00,1.28
5730.00,1.28
5729.00,1.28
5728.00,1.28
5727.00,1.28
5726.00,1.28
5725.00,1.29
5724.00,1.29
5723.00,1.29
5722.00,1.29
5721.00,1.29
5720.00,1.29
5719.00,1.29
5718.00,1.29
5717.00,1.29
5716.00,1.28
5715.00,1.28
5714.00,1.28
5713.00,1.28
5712.00,1.28
5711.00,1.28
5710.00,1.28
5709.00,1.28
5708.00,1.28
5707.00,1.28
5706.00,1.28
5705.00,1.28
5704.00,1.28
5703.00,1.27
5702.00,1.27
5701.00,1.27
5700.00,1.27
5699.00,1.27
5698.00,1.27
5697.00,1.26
5696.00,1.26
5695.00,1.26
5694.00,1.26
5693.00,1.26
5692.00,1.26
5691.00,1.26
5690.00,1.25
5689.00,1.25
5688.00,1.25
5687.00,1.25
5686.00,1.25
5685.00,1.25
5684.00,1.25
5683.00,1.25
5682.00,1.25
5681.00,1.25
5680.00,1.25
5679.00,1.25
5678.00,1.25
5677.00,1.25
5676.00,1.25
5675.00,1.25
5674.00,1.25
5673.00,1.25
5672.00,1.25
5671.00,1.25
5670.00,1.25
5669.00,1.25
5668.00,1.25
5667.00,1.25
5666.00,1.25
5665.00,1.25
5664.00,1.25
5663.00,1.26
5662.00,1.26
5661.00,1.26
5660.00,1.26
5659.00,1.26
5658.00,1.26
5657.00,1.26
5656.00,1.26
5655.00,1.26
5654.00,1.26
5653.00,1.26
5652.00,1.27
5651.00,1.27
5650.00,1.27
5649.00,1.27
5648.00,1.27
5647.00,1.27
5646.00,1.27
5645.00,1.28
5644.00,1.28
5643.00,1.28
5642.00,1.28
5641.00,1.28
5640.00,1.28
5639.00,1.28
5638.00,1.29
5637.00,1.29
5636.00,1.29
5635.00,1.29
5634.00,1.29
5633.00,1.29
5632.00,1.29
5631.00,1.29
5630.00,1.30
5629.00,1.30
5628.00,1.30
5627.00,1.30
5626.00,1.30
5625.00,1.30
5624.00,1.30
5623.00,1.30
5622.00,1.31
5621.00,1.31
5620.00,1.31
5619.00,1.31
5618.00,1.31
5617.00,1.31
5616.00,1.31
5615.00,1.31
5614.00,1.31
5613.00,1.31
5612.00,1.32
5611.00,1.32
5610.00,1.32
5609.00,1.32
5608.00,1.32
5607.00,1.32
5606.00,1.32
5605.00,1.32
5604.00,1.32
5603.00,1.32
5602.00,1.32
5601.00,1.33
5600.00,1.33
5599.00,1.33
5598.00,1.33
5597.00,1.33
5596.00,1.33
5595.00,1.33
5594.00,1.34
5593.00,1.34
5592.00,1.34
5591.00,1.34
5590.00,1.34
5589.00,1.34
5588.00,1.35
5587.00,1.35
5586.00,1.35
5585.00,1.35
5584.00,1.35
5583.00,1.35
5582.00,1.36
5581.00,1.36
5580.00,1.36
5579.00,1.36
5578.00,1.36
5577.00,1.36
5576.00,1.36
5575.00,1.37
5574.00,1.37
5573.00,1.37
5572.00,1.37
5571.00,1.37
5570.00,1.37
5569.00,1.37
5568.00,1.37
5567.00,1.38
5566.00,1.38
5565.00,1.38
5564.00,1.38
5563.00,1.38
5562.00,1.38
5561.00,1.38
5560.00,1.38
5559.00,1.38
5558.00,1.39
5557.00,1.39
5556.00,1.39
5555.00,1.39
5554.00,1.39
5553.00,1.39
5552.00,1.39
5551.00,1.39
5550.00,1.39
5549.00,1.39
5548.00,1.39
5547.00,1.39
5546.00,1.40
5545.00,1.40
5544.00,1.40
5543.00,1.40
5542.00,1.40
5541.00,1.40
5540.00,1.40
5539.00,1.40
5538.00,1.40
5537.00,1.40
5536.00,1.40
5535.00,1.40
5534.00,1.41
5533.00,1.41
5532.00,1.41
5531.00,1.41
5530.00,1.41
5529.00,1.41
5528.00,1.41
5527.00,1.41
5526.00,1.41
5525.00,1.41
5524.00,1.41
5523.00,1.41
5522.00,1.41
5521.00,1.42
5520.00,1.42
5519.00,1.42
5518.00,1.42
5517.00,1.42
5516.00,1.42
5515.00,1.42
5514.00,1.42
5513.00,1.42
5512.00,1.42
5511.00,1.42
5510.00,1.42
5509.00,1.42
5508.00,1.42
5507.00,1.43
5506.00,1.43
5505.00,1.43
5504.00,1.43
5503.00,1.43
5502.00,1.43
5501.00,1.43
5500.00,1.43
5499.00,1.43
5498.00,1.43
5497.00,1.43
5496.00,1.43
5495.00,1.43
5494.00,1.43
5493.00,1.44
5492.00,1.44
5491.00,1.44
5490.00,1.44
5489.00,1.44
5488.00,1.44
5487.00,1.44
5486.00,1.44
5485.00,1.45
5484.00,1.45
5483.00,1.45
5482.00,1.45
5481.00,1.45
5480.00,1.45
5479.00,1.45
5478.00,1.45
5477.00,1.45
5476.00,1.46
5475.00,1.46
5474.00,1.46
5473.00,1.46
5472.00,1.46
5471.00,1.46
5470.00,1.46
5469.00,1.46
5468.00,1.46
5467.00,1.46
5466.00,1.47
5465.00,1.47
5464.00,1.47
5463.00,1.47
5462.00,1.47
5461.00,1.47
5460.00,1.47
5459.00,1.47
5458.00,1.47
5457.00,1.47
5456.00,1.47
5455.00,1.47
5454.00,1.47
5453.00,1.47
5452.00,1.47
5451.00,1.47
5450.00,1.47
5449.00,1.47
5448.00,1.47
5447.00,1.47
5446.00,1.47
5445.00,1.47
5444.00,1.47
5443.00,1.47
5442.00,1.47
5441.00,1.47
5440.00,1.47
5439.00,1.47
5438.00,1.47
5437.00,1.47
5436.00,1.47
5435.00,1.47
5434.00,1.47
5433.00,1.47
5432.00,1.47
5431.00,1.47
5430.00,1.47
5429.00,1.47
5428.00,1.47
5427.00,1.47
5426.00,1.47
5425.00,1.47
5424.00,1.47
5423.00,1.47
5422.00,1.47
5421.00,1.47
5420.00,1.47
5419.00,1.47
5418.00,1.47
5417.00,1.47
5416.00,1.47
5415.00,1.46
5414.00,1.46
5413.00,1.46
5412.00,1.46
5411.00,1.46
5410.00,1.46
5409.00,1.46
5408.00,1.46
5407.00,1.46
5406.00,1.46
5405.00,1.45
5404.00,1.45
5403.00,1.45
5402.00,1.45
5401.00,1.45
5400.00,1.45
5399.00,1.45
5398.00,1.44
5397.00,1.44
5396.00,1.44
5395.00,1.44
5394.00,1.44
5393.00,1.43
5392.00,1.43
5391.00,1.43
5390.00,1.43
5389.00,1.42
5388.00,1.42
5387.00,1.42
5386.00,1.41
5385.00,1.41
5384.00,1.41
5383.00,1.40
5382.00,1.40
5381.00,1.40
5380.00,1.39
5379.00,1.39
5378.00,1.39
5377.00,1.38
5376.00,1.38
5375.00,1.37
5374.00,1.37
5373.00,1.37
5372.00,1.36
5371.00,1.36
5370.00,1.35
5369.00,1.34
5368.00,1.34
5367.00,1.33
5366.00,1.33
5365.00,1.32
5364.00,1.32
5363.00,1.31
5362.00,1.30
5361.00,1.30
5360.00,1.29
5359.00,1.28
5358.00,1.28
5357.00,1.27
5356.00,1.26
5355.00,1.26
5354.00,1.25
5353.00,1.24
5352.00,1.24
5351.00,1.23
5350.00,1.22
5349.00,1.22
5348.00,1.21
5347.00,1.20
5346.00,1.20
5345.00,1.19
5344.00,1.18
5343.00,1.18
5342.00,1.17
5341.00,1.17
5340.00,1.16
5339.00,1.15
5338.00,1.15
5337.00,1.14
5336.00,1.14
5335.00,1.13
5334.00,1.12
5333.00,1.12
5332.00,1.11
5331.00,1.11
5330.00,1.10
5329.00,1.10
5328.00,1.09
5327.00,1.09
5326.00,1.09
5325.00,1.08
5324.00,1.08
5323.00,1.07
5322.00,1.07
5321.00,1.06
5320.00,1.06
5319.00,1.06
5318.00,1.05
5317.00,1.05
5316.00,1.05
5315.00,1.04
5314.00,1.04
5313.00,1.04
5312.00,1.04
5311.00,1.03
5310.00,1.03
5309.00,1.03
5308.00,1.03
5307.00,1.03
5306.00,1.02
5305.00,1.02
5304.00,1.02
5303.00,1.02
5302.00,1.02
5301.00,1.02
5300.00,1.02
5299.00,1.01
5298.00,1.01
5297.00,1.01
5296.00,1.01
5295.00,1.01
5294.00,1.01
5293.00,1.01
5292.00,1.01
5291.00,1.01
5290.00,1.01
5289.00,1.01
5288.00,1.01
5287.00,1.01
5286.00,1.01
5285.00,1.01
5284.00,1.01
5283.00,1.01
5282.00,1.01
5281.00,1.01
5280.00,1.01
5279.00,1.01
5278.00,1.01
5277.00,1.01
5276.00,1.01
5275.00,1.01
5274.00,1.01
5273.00,1.01
5272.00,1.01
5271.00,1.01
5270.00,1.01
5269.00,1.01
5268.00,1.01
5267.00,1.01
5266.00,1.01
5265.00,1.01
5264.00,1.01
5263.00,1.01
5262.00,1.01
5261.00,1.01
5260.00,1.01
5259.00,1.01
5258.00,1.01
5257.00,1.01
5256.00,1.01
5255.00,1.01
5254.00,1.01
5253.00,1.01
5252.00,1.01
5251.00,1.01
5250.00,1.01
5249.00,1.01
5248.00,1.01
5247.00,1.01
5246.00,1.01
5245.00,1.01
5244.00,1.01
5243.00,1.01
5242.00,1.01
5241.00,1.01
5240.00,1.01
5239.00,1.01
5238.00,1.01
5237.00,1.01
5236.00,1.01
5235.00,1.01
5234.00,1.01
5233.00,1.01
5232.00,1.02
5231.00,1.02
5230.00,1.02
5229.00,1.02
5228.00,1.02
5227.00,1.02
5226.00,1.02
5225.00,1.02
5224.00,1.02
5223.00,1.02
5222.00,1.02
5221.00,1.02
5220.00,1.02
5219.00,1.02
5218.00,1.02
5217.00,1.02
5216.00,1.02
5215.00,1.02
5214.00,1.02
5213.00,1.02
5212.00,1.02
5211.00,1.02
5210.00,1.02
5209.00,1.02
5208.00,1.02
5207.00,1.02
5206.00,1.02
5205.00,1.02
5204.00,1.02
5203.00,1.02
5202.00,1.02
5201.00,1.02
5200.00,1.02
5199.00,1.02
5198.00,1.02
5197.00,1.02
5196.00,1.02
5195.00,1.02
5194.00,1.03
5193.00,1.03
5192.00,1.03
5191.00,1.03
5190.00,1.03
5189.00,1.03
5188.00,1.03
5187.00,1.03
5186.00,1.03
5185.00,1.03
5184.00,1.03
5183.00,1.03
5182.00,1.03
5181.00,1.03
5180.00,1.03
5179.00,1.03
5178.00,1.03
5177.00,1.04
5176.00,1.04
5175.00,1.04
5174.00,1.04
5173.00,1.04
5172.00,1.04
5171.00,1.04
5170.00,1.04
5169.00,1.04
5168.00,1.04
5167.00,1.04
5166.00,1.04
5165.00,1.04
5164.00,1.04
5163.00,1.04
5162.00,1.04
5161.00,1.04
5160.00,1.04
5159.00,1.04
5158.00,1.04
5157.00,1.04
5156.00,1.04
5155.00,1.04
5154.00,1.04
5153.00,1.04
5152.00,1.04
5151.00,1.04
5150.00,1.04
5149.00,1.04
5148.00,1.04
5147.00,1.04
5146.00,1.04
5145.00,1.04
5144.00,1.04
5143.00,1.04
5142.00,1.04
5141.00,1.04
5140.00,1.04
5139.00,1.04
5138.00,1.04
5137.00,1.04
5136.00,1.04
5135.00,1.04
5134.00,1.05
5133.00,1.05
5132.00,1.05
5131.00,1.05
5130.00,1.05
5129.00,1.05
5128.00,1.05
5127.00,1.05
5126.00,1.05
5125.00,1.05
5124.00,1.05
5123.00,1.05
5122.00,1.05
5121.00,1.05
5120.00,1.05
5119.00,1.05
5118.00,1.05
5117.00,1.05
5116.00,1.05
5115.00,1.05
5114.00,1.05
5113.00,1.05
5112.00,1.05
5111.00,1.05
5110.00,1.05
5109.00,1.05
5108.00,1.06
5107.00,1.06
5106.00,1.06
5105.00,1.06
5104.00,1.06
5103.00,1.06
5102.00,1.06
5101.00,1.06
5100.00,1.06
5099.00,1.06
5098.00,1.06
5097.00,1.07
5096.00,1.07
5095.00,1.07
5094.00,1.07
5093.00,1.07
5092.00,1.07
5091.00,1.07
5090.00,1.07
5089.00,1.07
5088.00,1.07
5087.00,1.07
5086.00,1.07
5085.00,1.07
5084.00,1.07
5083.00,1.07
5082.00,1.07
5081.00,1.07
5080.00,1.07
5079.00,1.07
5078.00,1.07
5077.00,1.07
5076.00,1.07
5075.00,1.07
5074.00,1.07
5073.00,1.07
5072.00,1.07
5071.00,1.07
5070.00,1.08
5069.00,1.08
5068.00,1.08
5067.00,1.07
5066.00,1.07
5065.00,1.07
5064.00,1.07
5063.00,1.07
5062.00,1.07
5061.00,1.07
5060.00,1.07
5059.00,1.07
5058.00,1.07
5057.00,1.07
5056.00,1.07
5055.00,1.07
5054.00,1.07
5053.00,1.07
5052.00,1.07
5051.00,1.07
5050.00,1.08
5049.00,1.08
5048.00,1.08
5047.00,1.08
5046.00,1.08
5045.00,1.08
5044.00,1.08
5043.00,1.08
5042.00,1.08
5041.00,1.09
5040.00,1.09
5039.00,1.09
5038.00,1.09
5037.00,1.09
5036.00,1.09
5035.00,1.09
5034.00,1.09
5033.00,1.09
5032.00,1.09
5031.00,1.09
5030.00,1.09
5029.00,1.09
5028.00,1.09
5027.00,1.09
5026.00,1.09
5025.00,1.09
5024.00,1.09
5023.00,1.09
5022.00,1.09
5021.00,1.09
5020.00,1.09
5019.00,1.09
5018.00,1.09
5017.00,1.09
5016.00,1.09
5015.00,1.09
5014.00,1.09
5013.00,1.09
5012.00,1.09
5011.00,1.09
5010.00,1.09
5009.00,1.09
5008.00,1.09
5007.00,1.09
5006.00,1.09
5005.00,1.09
5004.00,1.10
5003.00,1.10
5002.00,1.10
5001.00,1.10
5000.00,1.10
4999.00,1.10
4998.00,1.10
4997.00,1.10
4996.00,1.10
4995.00,1.10
4994.00,1.10
4993.00,1.10
4992.00,1.10
4991.00,1.10
4990.00,1.10
4989.00,1.10
4988.00,1.10
4987.00,1.10
4986.00,1.10
4985.00,1.10
4984.00,1.10
4983.00,1.10
4982.00,1.10
4981.00,1.10
4980.00,1.10
4979.00,1.10
4978.00,1.10
4977.00,1.10
4976.00,1.10
4975.00,1.10
4974.00,1.10
4973.00,1.10
4972.00,1.10
4971.00,1.10
4970.00,1.11
4969.00,1.11
4968.00,1.11
4967.00,1.11
4966.00,1.11
4965.00,1.11
4964.00,1.11
4963.00,1.11
4962.00,1.11
4961.00,1.11
4960.00,1.11
4959.00,1.11
4958.00,1.11
4957.00,1.11
4956.00,1.11
4955.00,1.11
4954.00,1.11
4953.00,1.12
4952.00,1.12
4951.00,1.12
4950.00,1.12
4949.00,1.12
4948.00,1.12
4947.00,1.12
4946.00,1.12
4945.00,1.12
4944.00,1.12
4943.00,1.12
4942.00,1.12
4941.00,1.12
4940.00,1.12
4939.00,1.12
4938.00,1.12
4937.00,1.12
4936.00,1.12
4935.00,1.12
4934.00,1.12
4933.00,1.12
4932.00,1.12
4931.00,1.12
4930.00,1.12
4929.00,1.12
4928.00,1.12
4927.00,1.12
4926.00,1.12
4925.00,1.12
4924.00,1.12
4923.00,1.12
4922.00,1.12
4921.00,1.13
4920.00,1.13
4919.00,1.13
4918.00,1.13
4917.00,1.13
4916.00,1.13
4915.00,1.13
4914.00,1.13
4913.00,1.13
4912.00,1.13
4911.00,1.14
4910.00,1.14
4909.00,1.14
4908.00,1.14
4907.00,1.14
4906.00,1.14
4905.00,1.14
4904.00,1.14
4903.00,1.14
4902.00,1.14
4901.00,1.14
4900.00,1.14
4899.00,1.14
4898.00,1.14
4897.00,1.14
4896.00,1.14
4895.00,1.14
4894.00,1.14
4893.00,1.14
4892.00,1.14
4891.00,1.15
4890.00,1.15
4889.00,1.15
4888.00,1.15
4887.00,1.15
4886.00,1.15
4885.00,1.15
4884.00,1.15
4883.00,1.15
4882.00,1.15
4881.00,1.15
4880.00,1.15
4879.00,1.15
4878.00,1.15
4877.00,1.15
4876.00,1.15
4875.00,1.15
4874.00,1.15
4873.00,1.15
4872.00,1.15
4871.00,1.15
4870.00,1.15
4869.00,1.15
4868.00,1.15
4867.00,1.15
4866.00,1.15
4865.00,1.15
4864.00,1.15
4863.00,1.15
4862.00,1.15
4861.00,1.15
4860.00,1.15
4859.00,1.15
4858.00,1.15
4857.00,1.15
4856.00,1.15
4855.00,1.15
4854.00,1.15
4853.00,1.15
4852.00,1.15
4851.00,1.15
4850.00,1.15
4849.00,1.15
4848.00,1.15
4847.00,1.15
4846.00,1.16
4845.00,1.16
4844.00,1.16
4843.00,1.16
4842.00,1.16
4841.00,1.16
4840.00,1.16
4839.00,1.17
4838.00,1.17
4837.00,1.17
4836.00,1.17
4835.00,1.17
4834.00,1.17
4833.00,1.17
4832.00,1.17
4831.00,1.17
4830.00,1.17
4829.00,1.17
4828.00,1.17
4827.00,1.17
4826.00,1.17
4825.00,1.17
4824.00,1.17
4823.00,1.17
4822.00,1.17
4821.00,1.18
4820.00,1.18
4819.00,1.18
4818.00,1.18
4817.00,1.18
4816.00,1.18
4815.00,1.18
4814.00,1.18
4813.00,1.18
4812.00,1.18
4811.00,1.18
4810.00,1.18
4809.00,1.18
4808.00,1.17
4807.00,1.17
4806.00,1.17
4805.00,1.17
4804.00,1.17
4803.00,1.17
4802.00,1.18
4801.00,1.18
4800.00,1.18
4799.00,1.18
4798.00,1.18
4797.00,1.18
4796.00,1.18
4795.00,1.18
4794.00,1.18
4793.00,1.18
4792.00,1.18
4791.00,1.19
4790.00,1.19
4789.00,1.19
4788.00,1.19
4787.00,1.19
4786.00,1.19
4785.00,1.19
4784.00,1.19
4783.00,1.19
4782.00,1.19
4781.00,1.19
4780.00,1.19
4779.00,1.19
4778.00,1.19
4777.00,1.19
4776.00,1.19
4775.00,1.19
4774.00,1.19
4773.00,1.19
4772.00,1.19
4771.00,1.19
4770.00,1.19
4769.00,1.19
4768.00,1.19
4767.00,1.19
4766.00,1.19
4765.00,1.20
4764.00,1.20
4763.00,1.20
4762.00,1.20
4761.00,1.20
4760.00,1.20
4759.00,1.20
4758.00,1.21
4757.00,1.21
4756.00,1.21
4755.00,1.21
4754.00,1.21
4753.00,1.21
4752.00,1.22
4751.00,1.22
4750.00,1.22
4749.00,1.22
4748.00,1.22
4747.00,1.22
4746.00,1.22
4745.00,1.22
4744.00,1.22
4743.00,1.22
4742.00,1.22
4741.00,1.22
4740.00,1.22
4739.00,1.22
4738.00,1.22
4737.00,1.22
4736.00,1.22
4735.00,1.22
4734.00,1.23
4733.00,1.23
4732.00,1.23
4731.00,1.23
4730.00,1.23
4729.00,1.23
4728.00,1.23
4727.00,1.23
4726.00,1.23
4725.00,1.23
4724.00,1.23
4723.00,1.23
4722.00,1.23
4721.00,1.23
4720.00,1.23
4719.00,1.23
4718.00,1.23
4717.00,1.23
4716.00,1.23
4715.00,1.24
4714.00,1.24
4713.00,1.24
4712.00,1.24
4711.00,1.24
4710.00,1.24
4709.00,1.24
4708.00,1.24
4707.00,1.24
4706.00,1.24
4705.00,1.24
4704.00,1.24
4703.00,1.24
4702.00,1.24
4701.00,1.24
4700.00,1.25
4699.00,1.25
4698.00,1.25
4697.00,1.25
4696.00,1.25
4695.00,1.25
4694.00,1.25
4693.00,1.25
4692.00,1.25
4691.00,1.25
4690.00,1.25
4689.00,1.26
4688.00,1.26
4687.00,1.26
4686.00,1.26
4685.00,1.26
4684.00,1.26
4683.00,1.26
4682.00,1.26
4681.00,1.26
4680.00,1.26
4679.00,1.26
4678.00,1.26
4677.00,1.26
4676.00,1.26
4675.00,1.26
4674.00,1.26
4673.00,1.26
4672.00,1.26
4671.00,1.27
4670.00,1.27
4669.00,1.27
4668.00,1.27
4667.00,1.27
4666.00,1.27
4665.00,1.27
4664.00,1.27
4663.00,1.27
4662.00,1.27
4661.00,1.27
4660.00,1.27
4659.00,1.27
4658.00,1.27
4657.00,1.27
4656.00,1.28
4655.00,1.28
4654.00,1.28
4653.00,1.28
4652.00,1.28
4651.00,1.28
4650.00,1.28
4649.00,1.28
4648.00,1.28
4647.00,1.28
4646.00,1.28
4645.00,1.28
4644.00,1.29
4643.00,1.29
4642.00,1.29
4641.00,1.29
4640.00,1.29
4639.00,1.29
4638.00,1.29
4637.00,1.29
4636.00,1.29
4635.00,1.29
4634.00,1.29
4633.00,1.29
4632.00,1.29
4631.00,1.29
4630.00,1.29
4629.00,1.29
4628.00,1.29
4627.00,1.29
4626.00,1.29
4625.00,1.29
4624.00,1.30
4623.00,1.30
4622.00,1.30
4621.00,1.30
4620.00,1.30
4619.00,1.30
4618.00,1.30
4617.00,1.30
4616.00,1.30
4615.00,1.30
4614.00,1.30
4613.00,1.30
4612.00,1.31
4611.00,1.31
4610.00,1.31
4609.00,1.31
4608.00,1.31
4607.00,1.31
4606.00,1.31
4605.00,1.31
4604.00,1.31
4603.00,1.31
4602.00,1.30
4601.00,1.30
4600.00,1.30
4599.00,1.30
4598.00,1.30
4597.00,1.30
4596.00,1.30
4595.00,1.30
4594.00,1.30
4593.00,1.30
4592.00,1.30
4591.00,1.30
4590.00,1.30
4589.00,1.30
4588.00,1.30
4587.00,1.31
4586.00,1.31
4585.00,1.31
4584.00,1.31
4583.00,1.31
4582.00,1.31
4581.00,1.31
4580.00,1.31
4579.00,1.31
4578.00,1.31
4577.00,1.31
4576.00,1.31
4575.00,1.31
4574.00,1.31
4573.00,1.31
4572.00,1.31
4571.00,1.31
4570.00,1.32
4569.00,1.32
4568.00,1.32
4567.00,1.32
4566.00,1.32
4565.00,1.32
4564.00,1.32
4563.00,1.32
4562.00,1.32
4561.00,1.32
4560.00,1.32
4559.00,1.31
4558.00,1.31
4557.00,1.31
4556.00,1.31
4555.00,1.31
4554.00,1.31
4553.00,1.32
4552.00,1.32
4551.00,1.32
4550.00,1.32
4549.00,1.32
4548.00,1.32
4547.00,1.32
4546.00,1.32
4545.00,1.32
4544.00,1.32
4543.00,1.32
4542.00,1.32
4541.00,1.32
4540.00,1.32
4539.00,1.32
4538.00,1.32
4537.00,1.32
4536.00,1.32
4535.00,1.32
4534.00,1.32
4533.00,1.32
4532.00,1.32
4531.00,1.32
4530.00,1.33
4529.00,1.33
4528.00,1.33
4527.00,1.33
4526.00,1.33
4525.00,1.33
4524.00,1.33
4523.00,1.33
4522.00,1.33
4521.00,1.33
4520.00,1.33
4519.00,1.33
4518.00,1.33
4517.00,1.33
4516.00,1.33
4515.00,1.33
4514.00,1.33
4513.00,1.33
4512.00,1.33
4511.00,1.33
4510.00,1.33
4509.00,1.33
4508.00,1.33
4507.00,1.33
4506.00,1.33
4505.00,1.33
4504.00,1.33
4503.00,1.33
4502.00,1.33
4501.00,1.33
4500.00,1.33
4499.00,1.33
4498.00,1.33
4497.00,1.33
4496.00,1.33
4495.00,1.33
4494.00,1.33
4493.00,1.33
4492.00,1.33
4491.00,1.33
4490.00,1.33
4489.00,1.33
4488.00,1.33
4487.00,1.33
4486.00,1.33
4485.00,1.33
4484.00,1.33
4483.00,1.33
4482.00,1.33
4481.00,1.33
4480.00,1.33
4479.00,1.33
4478.00,1.33
4477.00,1.33
4476.00,1.33
4475.00,1.33
4474.00,1.33
4473.00,1.33
4472.00,1.33
4471.00,1.33
4470.00,1.33
4469.00,1.33
4468.00,1.33
4467.00,1.33
4466.00,1.33
4465.00,1.33
4464.00,1.33
4463.00,1.33
4462.00,1.32
4461.00,1.32
4460.00,1.32
4459.00,1.32
4458.00,1.32
4457.00,1.32
4456.00,1.32
4455.00,1.32
4454.00,1.32
4453.00,1.32
4452.00,1.32
4451.00,1.32
4450.00,1.32
4449.00,1.32
4448.00,1.32
4447.00,1.32
4446.00,1.31
4445.00,1.31
4444.00,1.31
4443.00,1.31
4442.00,1.31
4441.00,1.31
4440.00,1.31
4439.00,1.30
4438.00,1.30
4437.00,1.30
4436.00,1.30
4435.00,1.30
4434.00,1.30
4433.00,1.30
4432.00,1.30
4431.00,1.30
4430.00,1.30
4429.00,1.29
4428.00,1.29
4427.00,1.29
4426.00,1.29
4425.00,1.29
4424.00,1.29
4423.00,1.29
4422.00,1.29
4421.00,1.29
4420.00,1.29
4419.00,1.29
4418.00,1.29
4417.00,1.29
4416.00,1.29
4415.00,1.29
4414.00,1.29
4413.00,1.29
4412.00,1.29
4411.00,1.29
4410.00,1.29
4409.00,1.29
4408.00,1.30
4407.00,1.30
4406.00,1.30
4405.00,1.30
4404.00,1.30
4403.00,1.30
4402.00,1.30
4401.00,1.30
4400.00,1.30
4399.00,1.30
4398.00,1.30
4397.00,1.30
4396.00,1.30
4395.00,1.31
4394.00,1.31
4393.00,1.31
4392.00,1.31
4391.00,1.31
4390.00,1.31
4389.00,1.31
4388.00,1.31
4387.00,1.31
4386.00,1.31
4385.00,1.31
4384.00,1.32
4383.00,1.32
4382.00,1.32
4381.00,1.32
4380.00,1.32
4379.00,1.32
4378.00,1.32
4377.00,1.32
4376.00,1.32
4375.00,1.32
4374.00,1.32
4373.00,1.32
4372.00,1.32
4371.00,1.32
4370.00,1.32
4369.00,1.32
4368.00,1.32
4367.00,1.32
4366.00,1.32
4365.00,1.32
4364.00,1.32
4363.00,1.32
4362.00,1.32
4361.00,1.32
4360.00,1.32
4359.00,1.32
4358.00,1.32
4357.00,1.32
4356.00,1.32
4355.00,1.32
4354.00,1.32
4353.00,1.32
4352.00,1.32
4351.00,1.32
4350.00,1.32
4349.00,1.32
4348.00,1.32
4347.00,1.32
4346.00,1.32
4345.00,1.32
4344.00,1.32
4343.00,1.32
4342.00,1.32
4341.00,1.32
4340.00,1.32
4339.00,1.32
4338.00,1.32
4337.00,1.32
4336.00,1.32
4335.00,1.32
4334.00,1.32
4333.00,1.32
4332.00,1.32
4331.00,1.32
4330.00,1.32
4329.00,1.32
4328.00,1.33
4327.00,1.33
4326.00,1.33
4325.00,1.33
4324.00,1.33
4323.00,1.33
4322.00,1.33
4321.00,1.33
4320.00,1.33
4319.00,1.33
4318.00,1.33
4317.00,1.33
4316.00,1.33
4315.00,1.34
4314.00,1.34
4313.00,1.34
4312.00,1.34
4311.00,1.34
4310.00,1.34
4309.00,1.34
4308.00,1.35
4307.00,1.35
4306.00,1.35
4305.00,1.35
4304.00,1.35
4303.00,1.35
4302.00,1.35
4301.00,1.35
4300.00,1.35
4299.00,1.36
4298.00,1.36
4297.00,1.36
4296.00,1.36
4295.00,1.36
4294.00,1.36
4293.00,1.36
4292.00,1.36
4291.00,1.36
4290.00,1.36
4289.00,1.36
4288.00,1.36
4287.00,1.36
4286.00,1.36
4285.00,1.36
4284.00,1.36
4283.00,1.36
4282.00,1.36
4281.00,1.36
4280.00,1.36
4279.00,1.36
4278.00,1.36
4277.00,1.36
4276.00,1.36
4275.00,1.36
4274.00,1.36
4273.00,1.36
4272.00,1.36
4271.00,1.36
4270.00,1.36
4269.00,1.36
4268.00,1.36
4267.00,1.36
4266.00,1.36
4265.00,1.36
4264.00,1.36
4263.00,1.37
4262.00,1.37
4261.00,1.37
4260.00,1.37
4259.00,1.37
4258.00,1.37
4257.00,1.37
4256.00,1.37
4255.00,1.37
4254.00,1.37
4253.00,1.37
4252.00,1.37
4251.00,1.37
4250.00,1.37
4249.00,1.37
4248.00,1.37
4247.00,1.37
4246.00,1.37
4245.00,1.37
4244.00,1.37
4243.00,1.37
4242.00,1.38
4241.00,1.38
4240.00,1.38
4239.00,1.38
4238.00,1.38
4237.00,1.38
4236.00,1.38
4235.00,1.38
4234.00,1.38
4233.00,1.38
4232.00,1.38
4231.00,1.38
4230.00,1.39
4229.00,1.39
4228.00,1.39
4227.00,1.39
4226.00,1.39
4225.00,1.39
4224.00,1.39
4223.00,1.39
4222.00,1.39
4221.00,1.39
4220.00,1.39
4219.00,1.39
4218.00,1.39
4217.00,1.39
4216.00,1.39
4215.00,1.39
4214.00,1.39
4213.00,1.39
4212.00,1.40
4211.00,1.40
4210.00,1.40
4209.00,1.40
4208.00,1.40
4207.00,1.40
4206.00,1.40
4205.00,1.40
4204.00,1.40
4203.00,1.40
4202.00,1.40
4201.00,1.40
4200.00,1.40
4199.00,1.40
4198.00,1.40
4197.00,1.40
4196.00,1.40
4195.00,1.40
4194.00,1.41
4193.00,1.41
4192.00,1.41
4191.00,1.41
4190.00,1.41
4189.00,1.41
4188.00,1.41
4187.00,1.41
4186.00,1.41
4185.00,1.41
4184.00,1.41
4183.00,1.41
4182.00,1.40
4181.00,1.40
4180.00,1.40
4179.00,1.40
4178.00,1.40
4177.00,1.40
4176.00,1.40
4175.00,1.40
4174.00,1.40
4173.00,1.40
4172.00,1.40
4171.00,1.40
4170.00,1.40
4169.00,1.40
4168.00,1.40
4167.00,1.40
4166.00,1.40
4165.00,1.40
4164.00,1.40
4163.00,1.40
4162.00,1.40
4161.00,1.40
4160.00,1.40
4159.00,1.40
4158.00,1.40
4157.00,1.41
4156.00,1.41
4155.00,1.41
4154.00,1.41
4153.00,1.41
4152.00,1.41
4151.00,1.41
4150.00,1.41
4149.00,1.41
4148.00,1.41
4147.00,1.41
4146.00,1.41
4145.00,1.42
4144.00,1.42
4143.00,1.42
4142.00,1.42
4141.00,1.42
4140.00,1.42
4139.00,1.42
4138.00,1.42
4137.00,1.42
4136.00,1.42
4135.00,1.42
4134.00,1.42
4133.00,1.42
4132.00,1.42
4131.00,1.42
4130.00,1.42
4129.00,1.43
4128.00,1.43
4127.00,1.43
4126.00,1.43
4125.00,1.43
4124.00,1.43
4123.00,1.43
4122.00,1.43
4121.00,1.43
4120.00,1.43
4119.00,1.43
4118.00,1.43
4117.00,1.43
4116.00,1.43
4115.00,1.43
4114.00,1.42
4113.00,1.42
4112.00,1.42
4111.00,1.42
4110.00,1.42
4109.00,1.42
4108.00,1.42
4107.00,1.42
4106.00,1.42
4105.00,1.42
4104.00,1.42
4103.00,1.42
4102.00,1.42
4101.00,1.42
4100.00,1.42
4099.00,1.42
4098.00,1.43
4097.00,1.43
4096.00,1.43
4095.00,1.43
4094.00,1.43
4093.00,1.43
4092.00,1.43
4091.00,1.43
4090.00,1.43
4089.00,1.43
4088.00,1.44
4087.00,1.44
4086.00,1.44
4085.00,1.44
4084.00,1.44
4083.00,1.44
4082.00,1.44
4081.00,1.44
4080.00,1.44
4079.00,1.44
4078.00,1.44
4077.00,1.44
4076.00,1.44
4075.00,1.44
4074.00,1.44
4073.00,1.44
4072.00,1.44
4071.00,1.44
4070.00,1.44
4069.00,1.44
4068.00,1.44
4067.00,1.44
4066.00,1.44
4065.00,1.44
4064.00,1.44
4063.00,1.44
4062.00,1.44
4061.00,1.44
4060.00,1.44
4059.00,1.44
4058.00,1.44
4057.00,1.44
4056.00,1.44
4055.00,1.44
4054.00,1.44
4053.00,1.44
4052.00,1.44
4051.00,1.44
4050.00,1.44
4049.00,1.44
4048.00,1.44
4047.00,1.44
4046.00,1.44
4045.00,1.44
4044.00,1.44
4043.00,1.44
4042.00,1.44
4041.00,1.44
4040.00,1.44
4039.00,1.44
4038.00,1.44
4037.00,1.44
4036.00,1.44
4035.00,1.44
4034.00,1.44
4033.00,1.44
4032.00,1.44
4031.00,1.44
4030.00,1.44
4029.00,1.44
4028.00,1.44
4027.00,1.44
4026.00,1.45
4025.00,1.45
4024.00,1.45
4023.00,1.45
4022.00,1.46
4021.00,1.46
4020.00,1.46
4019.00,1.46
4018.00,1.46
4017.00,1.47
4016.00,1.47
4015.00,1.47
4014.00,1.47
4013.00,1.47
4012.00,1.47
4011.00,1.47
4010.00,1.47
4009.00,1.47
4008.00,1.47
4007.00,1.47
4006.00,1.47
4005.00,1.47
4004.00,1.47
4003.00,1.47
4002.00,1.47
4001.00,1.47
4000.00,1.47
