创建为新数据集,样品 718 用户 Administrator 日期 星期五, 七月 20 2018
cm-1,%T
10000.00,1.26
9999.00,1.26
9998.00,1.26
9997.00,1.26
9996.00,1.26
9995.00,1.26
9994.00,1.26
9993.00,1.26
9992.00,1.26
9991.00,1.26
9990.00,1.26
9989.00,1.26
9988.00,1.26
9987.00,1.26
9986.00,1.26
9985.00,1.26
9984.00,1.26
9983.00,1.26
9982.00,1.26
9981.00,1.25
9980.00,1.25
9979.00,1.25
9978.00,1.25
9977.00,1.25
9976.00,1.25
9975.00,1.25
9974.00,1.25
9973.00,1.25
9972.00,1.25
9971.00,1.25
9970.00,1.25
9969.00,1.25
9968.00,1.25
9967.00,1.25
9966.00,1.25
9965.00,1.25
9964.00,1.25
9963.00,1.25
9962.00,1.25
9961.00,1.25
9960.00,1.25
9959.00,1.26
9958.00,1.26
9957.00,1.26
9956.00,1.26
9955.00,1.26
9954.00,1.26
9953.00,1.26
9952.00,1.26
9951.00,1.26
9950.00,1.26
9949.00,1.26
9948.00,1.26
9947.00,1.26
9946.00,1.26
9945.00,1.26
9944.00,1.25
9943.00,1.25
9942.00,1.25
9941.00,1.25
9940.00,1.25
9939.00,1.25
9938.00,1.25
9937.00,1.25
9936.00,1.25
9935.00,1.25
9934.00,1.25
9933.00,1.25
9932.00,1.26
9931.00,1.26
9930.00,1.26
9929.00,1.26
9928.00,1.26
9927.00,1.26
9926.00,1.26
9925.00,1.26
9924.00,1.26
9923.00,1.26
9922.00,1.26
9921.00,1.26
9920.00,1.26
9919.00,1.26
9918.00,1.25
9917.00,1.25
9916.00,1.25
9915.00,1.25
9914.00,1.24
9913.00,1.24
9912.00,1.24
9911.00,1.23
9910.00,1.23
9909.00,1.23
9908.00,1.23
9907.00,1.23
9906.00,1.23
9905.00,1.22
9904.00,1.22
9903.00,1.22
9902.00,1.22
9901.00,1.23
9900.00,1.23
9899.00,1.23
9898.00,1.23
9897.00,1.23
9896.00,1.23
9895.00,1.23
9894.00,1.23
9893.00,1.23
9892.00,1.23
9891.00,1.24
9890.00,1.24
9889.00,1.24
9888.00,1.24
9887.00,1.24
9886.00,1.24
9885.00,1.23
9884.00,1.23
9883.00,1.23
9882.00,1.23
9881.00,1.23
9880.00,1.23
9879.00,1.23
9878.00,1.23
9877.00,1.23
9876.00,1.23
9875.00,1.23
9874.00,1.23
9873.00,1.23
9872.00,1.23
9871.00,1.23
9870.00,1.23
9869.00,1.23
9868.00,1.23
9867.00,1.22
9866.00,1.22
9865.00,1.22
9864.00,1.22
9863.00,1.22
9862.00,1.23
9861.00,1.23
9860.00,1.23
9859.00,1.23
9858.00,1.23
9857.00,1.23
9856.00,1.23
9855.00,1.23
9854.00,1.23
9853.00,1.24
9852.00,1.24
9851.00,1.24
9850.00,1.24
9849.00,1.24
9848.00,1.24
9847.00,1.24
9846.00,1.25
9845.00,1.25
9844.00,1.25
9843.00,1.25
9842.00,1.25
9841.00,1.25
9840.00,1.25
9839.00,1.25
9838.00,1.25
9837.00,1.25
9836.00,1.25
9835.00,1.25
9834.00,1.25
9833.00,1.25
9832.00,1.25
9831.00,1.25
9830.00,1.25
9829.00,1.25
9828.00,1.25
9827.00,1.24
9826.00,1.24
9825.00,1.24
9824.00,1.24
9823.00,1.24
9822.00,1.24
9821.00,1.24
9820.00,1.24
9819.00,1.24
9818.00,1.24
9817.00,1.24
9816.00,1.24
9815.00,1.24
9814.00,1.24
9813.00,1.25
9812.00,1.25
9811.00,1.25
9810.00,1.25
9809.00,1.25
9808.00,1.25
9807.00,1.25
9806.00,1.25
9805.00,1.25
9804.00,1.25
9803.00,1.26
9802.00,1.26
9801.00,1.26
9800.00,1.26
9799.00,1.25
9798.00,1.25
9797.00,1.25
9796.00,1.25
9795.00,1.25
9794.00,1.25
9793.00,1.25
9792.00,1.25
9791.00,1.25
9790.00,1.24
9789.00,1.24
9788.00,1.24
9787.00,1.24
9786.00,1.24
9785.00,1.24
9784.00,1.24
9783.00,1.24
9782.00,1.24
9781.00,1.24
9780.00,1.24
9779.00,1.24
9778.00,1.24
9777.00,1.25
9776.00,1.25
9775.00,1.25
9774.00,1.25
9773.00,1.25
9772.00,1.25
9771.00,1.25
9770.00,1.25
9769.00,1.25
9768.00,1.24
9767.00,1.24
9766.00,1.24
9765.00,1.24
9764.00,1.24
9763.00,1.24
9762.00,1.24
9761.00,1.23
9760.00,1.23
9759.00,1.23
9758.00,1.23
9757.00,1.23
9756.00,1.22
9755.00,1.22
9754.00,1.22
9753.00,1.22
9752.00,1.22
9751.00,1.22
9750.00,1.22
9749.00,1.22
9748.00,1.22
9747.00,1.23
9746.00,1.23
9745.00,1.23
9744.00,1.23
9743.00,1.23
9742.00,1.23
9741.00,1.24
9740.00,1.24
9739.00,1.24
9738.00,1.24
9737.00,1.25
9736.00,1.25
9735.00,1.25
9734.00,1.25
9733.00,1.25
9732.00,1.25
9731.00,1.26
9730.00,1.26
9729.00,1.26
9728.00,1.26
9727.00,1.26
9726.00,1.26
9725.00,1.26
9724.00,1.26
9723.00,1.26
9722.00,1.25
9721.00,1.25
9720.00,1.25
9719.00,1.25
9718.00,1.25
9717.00,1.24
9716.00,1.24
9715.00,1.24
9714.00,1.24
9713.00,1.24
9712.00,1.24
9711.00,1.24
9710.00,1.23
9709.00,1.23
9708.00,1.23
9707.00,1.23
9706.00,1.23
9705.00,1.23
9704.00,1.23
9703.00,1.23
9702.00,1.23
9701.00,1.23
9700.00,1.23
9699.00,1.23
9698.00,1.23
9697.00,1.23
9696.00,1.23
9695.00,1.23
9694.00,1.23
9693.00,1.23
9692.00,1.22
9691.00,1.22
9690.00,1.22
9689.00,1.22
9688.00,1.22
9687.00,1.22
9686.00,1.21
9685.00,1.21
9684.00,1.21
9683.00,1.21
9682.00,1.21
9681.00,1.22
9680.00,1.22
9679.00,1.22
9678.00,1.22
9677.00,1.22
9676.00,1.22
9675.00,1.22
9674.00,1.22
9673.00,1.23
9672.00,1.23
9671.00,1.23
9670.00,1.23
9669.00,1.23
9668.00,1.23
9667.00,1.24
9666.00,1.24
9665.00,1.24
9664.00,1.24
9663.00,1.24
9662.00,1.24
9661.00,1.24
9660.00,1.24
9659.00,1.24
9658.00,1.24
9657.00,1.24
9656.00,1.24
9655.00,1.24
9654.00,1.24
9653.00,1.24
9652.00,1.24
9651.00,1.24
9650.00,1.24
9649.00,1.24
9648.00,1.24
9647.00,1.24
9646.00,1.24
9645.00,1.24
9644.00,1.24
9643.00,1.24
9642.00,1.24
9641.00,1.24
9640.00,1.24
9639.00,1.25
9638.00,1.25
9637.00,1.25
9636.00,1.25
9635.00,1.25
9634.00,1.25
9633.00,1.25
9632.00,1.25
9631.00,1.25
9630.00,1.25
9629.00,1.25
9628.00,1.25
9627.00,1.25
9626.00,1.25
9625.00,1.25
9624.00,1.25
9623.00,1.25
9622.00,1.25
9621.00,1.25
9620.00,1.25
9619.00,1.25
9618.00,1.24
9617.00,1.24
9616.00,1.24
9615.00,1.24
9614.00,1.24
9613.00,1.24
9612.00,1.24
9611.00,1.24
9610.00,1.24
9609.00,1.24
9608.00,1.24
9607.00,1.24
9606.00,1.24
9605.00,1.24
9604.00,1.24
9603.00,1.24
9602.00,1.24
9601.00,1.24
9600.00,1.24
9599.00,1.24
9598.00,1.24
9597.00,1.24
9596.00,1.24
9595.00,1.24
9594.00,1.24
9593.00,1.24
9592.00,1.25
9591.00,1.25
9590.00,1.25
9589.00,1.25
9588.00,1.25
9587.00,1.25
9586.00,1.25
9585.00,1.25
9584.00,1.25
9583.00,1.25
9582.00,1.25
9581.00,1.25
9580.00,1.25
9579.00,1.25
9578.00,1.25
9577.00,1.25
9576.00,1.25
9575.00,1.25
9574.00,1.25
9573.00,1.24
9572.00,1.24
9571.00,1.24
9570.00,1.24
9569.00,1.24
9568.00,1.24
9567.00,1.24
9566.00,1.24
9565.00,1.24
9564.00,1.24
9563.00,1.24
9562.00,1.24
9561.00,1.24
9560.00,1.24
9559.00,1.24
9558.00,1.25
9557.00,1.25
9556.00,1.25
9555.00,1.25
9554.00,1.25
9553.00,1.25
9552.00,1.25
9551.00,1.25
9550.00,1.25
9549.00,1.25
9548.00,1.25
9547.00,1.25
9546.00,1.25
9545.00,1.25
9544.00,1.25
9543.00,1.25
9542.00,1.25
9541.00,1.25
9540.00,1.25
9539.00,1.25
9538.00,1.25
9537.00,1.25
9536.00,1.25
9535.00,1.25
9534.00,1.25
9533.00,1.25
9532.00,1.25
9531.00,1.25
9530.00,1.25
9529.00,1.25
9528.00,1.25
9527.00,1.25
9526.00,1.25
9525.00,1.25
9524.00,1.25
9523.00,1.25
9522.00,1.25
9521.00,1.25
9520.00,1.25
9519.00,1.25
9518.00,1.25
9517.00,1.25
9516.00,1.25
9515.00,1.25
9514.00,1.25
9513.00,1.26
9512.00,1.26
9511.00,1.26
9510.00,1.26
9509.00,1.26
9508.00,1.26
9507.00,1.26
9506.00,1.26
9505.00,1.26
9504.00,1.26
9503.00,1.26
9502.00,1.26
9501.00,1.26
9500.00,1.26
9499.00,1.26
9498.00,1.26
9497.00,1.26
9496.00,1.26
9495.00,1.26
9494.00,1.26
9493.00,1.26
9492.00,1.25
9491.00,1.25
9490.00,1.25
9489.00,1.25
9488.00,1.24
9487.00,1.24
9486.00,1.24
9485.00,1.24
9484.00,1.24
9483.00,1.24
9482.00,1.24
9481.00,1.24
9480.00,1.23
9479.00,1.24
9478.00,1.24
9477.00,1.24
9476.00,1.24
9475.00,1.24
9474.00,1.24
9473.00,1.24
9472.00,1.24
9471.00,1.24
9470.00,1.24
9469.00,1.25
9468.00,1.25
9467.00,1.25
9466.00,1.25
9465.00,1.25
9464.00,1.25
9463.00,1.25
9462.00,1.25
9461.00,1.25
9460.00,1.25
9459.00,1.25
9458.00,1.24
9457.00,1.24
9456.00,1.24
9455.00,1.24
9454.00,1.24
9453.00,1.24
9452.00,1.24
9451.00,1.23
9450.00,1.23
9449.00,1.23
9448.00,1.23
9447.00,1.23
9446.00,1.23
9445.00,1.23
9444.00,1.23
9443.00,1.23
9442.00,1.23
9441.00,1.23
9440.00,1.23
9439.00,1.23
9438.00,1.23
9437.00,1.23
9436.00,1.23
9435.00,1.23
9434.00,1.23
9433.00,1.23
9432.00,1.24
9431.00,1.24
9430.00,1.24
9429.00,1.24
9428.00,1.24
9427.00,1.24
9426.00,1.25
9425.00,1.25
9424.00,1.25
9423.00,1.25
9422.00,1.25
9421.00,1.25
9420.00,1.25
9419.00,1.25
9418.00,1.25
9417.00,1.25
9416.00,1.25
9415.00,1.25
9414.00,1.24
9413.00,1.24
9412.00,1.24
9411.00,1.24
9410.00,1.24
9409.00,1.23
9408.00,1.23
9407.00,1.23
9406.00,1.23
9405.00,1.23
9404.00,1.23
9403.00,1.23
9402.00,1.23
9401.00,1.23
9400.00,1.23
9399.00,1.23
9398.00,1.23
9397.00,1.23
9396.00,1.23
9395.00,1.23
9394.00,1.23
9393.00,1.23
9392.00,1.24
9391.00,1.24
9390.00,1.24
9389.00,1.24
9388.00,1.24
9387.00,1.24
9386.00,1.24
9385.00,1.24
9384.00,1.25
9383.00,1.25
9382.00,1.25
9381.00,1.25
9380.00,1.25
9379.00,1.25
9378.00,1.25
9377.00,1.25
9376.00,1.25
9375.00,1.24
9374.00,1.24
9373.00,1.24
9372.00,1.24
9371.00,1.24
9370.00,1.24
9369.00,1.24
9368.00,1.23
9367.00,1.23
9366.00,1.23
9365.00,1.23
9364.00,1.23
9363.00,1.23
9362.00,1.23
9361.00,1.23
9360.00,1.22
9359.00,1.22
9358.00,1.22
9357.00,1.22
9356.00,1.22
9355.00,1.22
9354.00,1.22
9353.00,1.23
9352.00,1.23
9351.00,1.23
9350.00,1.23
9349.00,1.23
9348.00,1.23
9347.00,1.23
9346.00,1.23
9345.00,1.23
9344.00,1.23
9343.00,1.23
9342.00,1.23
9341.00,1.23
9340.00,1.23
9339.00,1.23
9338.00,1.23
9337.00,1.23
9336.00,1.23
9335.00,1.23
9334.00,1.23
9333.00,1.23
9332.00,1.23
9331.00,1.23
9330.00,1.23
9329.00,1.23
9328.00,1.23
9327.00,1.23
9326.00,1.23
9325.00,1.24
9324.00,1.24
9323.00,1.24
9322.00,1.24
9321.00,1.24
9320.00,1.24
9319.00,1.24
9318.00,1.24
9317.00,1.24
9316.00,1.24
9315.00,1.24
9314.00,1.24
9313.00,1.24
9312.00,1.24
9311.00,1.24
9310.00,1.23
9309.00,1.23
9308.00,1.23
9307.00,1.23
9306.00,1.23
9305.00,1.23
9304.00,1.23
9303.00,1.23
9302.00,1.23
9301.00,1.23
9300.00,1.23
9299.00,1.23
9298.00,1.24
9297.00,1.24
9296.00,1.24
9295.00,1.24
9294.00,1.24
9293.00,1.24
9292.00,1.24
9291.00,1.24
9290.00,1.24
9289.00,1.24
9288.00,1.24
9287.00,1.24
9286.00,1.24
9285.00,1.24
9284.00,1.24
9283.00,1.23
9282.00,1.23
9281.00,1.23
9280.00,1.23
9279.00,1.23
9278.00,1.23
9277.00,1.22
9276.00,1.22
9275.00,1.22
9274.00,1.22
9273.00,1.22
9272.00,1.22
9271.00,1.22
9270.00,1.22
9269.00,1.22
9268.00,1.23
9267.00,1.23
9266.00,1.23
9265.00,1.23
9264.00,1.23
9263.00,1.24
9262.00,1.24
9261.00,1.24
9260.00,1.24
9259.00,1.25
9258.00,1.25
9257.00,1.25
9256.00,1.25
9255.00,1.26
9254.00,1.26
9253.00,1.26
9252.00,1.26
9251.00,1.26
9250.00,1.26
9249.00,1.26
9248.00,1.26
9247.00,1.26
9246.00,1.26
9245.00,1.26
9244.00,1.26
9243.00,1.26
9242.00,1.26
9241.00,1.26
9240.00,1.25
9239.00,1.25
9238.00,1.25
9237.00,1.25
9236.00,1.25
9235.00,1.25
9234.00,1.25
9233.00,1.24
9232.00,1.24
9231.00,1.24
9230.00,1.24
9229.00,1.24
9228.00,1.24
9227.00,1.24
9226.00,1.24
9225.00,1.23
9224.00,1.23
9223.00,1.23
9222.00,1.23
9221.00,1.23
9220.00,1.23
9219.00,1.23
9218.00,1.23
9217.00,1.23
9216.00,1.23
9215.00,1.23
9214.00,1.23
9213.00,1.23
9212.00,1.23
9211.00,1.23
9210.00,1.23
9209.00,1.23
9208.00,1.23
9207.00,1.23
9206.00,1.24
9205.00,1.24
9204.00,1.24
9203.00,1.24
9202.00,1.24
9201.00,1.23
9200.00,1.23
9199.00,1.23
9198.00,1.23
9197.00,1.23
9196.00,1.23
9195.00,1.23
9194.00,1.23
9193.00,1.23
9192.00,1.23
9191.00,1.23
9190.00,1.23
9189.00,1.23
9188.00,1.23
9187.00,1.23
9186.00,1.23
9185.00,1.23
9184.00,1.23
9183.00,1.23
9182.00,1.23
9181.00,1.23
9180.00,1.24
9179.00,1.24
9178.00,1.24
9177.00,1.24
9176.00,1.24
9175.00,1.24
9174.00,1.24
9173.00,1.24
9172.00,1.24
9171.00,1.24
9170.00,1.24
9169.00,1.24
9168.00,1.24
9167.00,1.24
9166.00,1.24
9165.00,1.23
9164.00,1.23
9163.00,1.23
9162.00,1.23
9161.00,1.23
9160.00,1.23
9159.00,1.23
9158.00,1.23
9157.00,1.23
9156.00,1.23
9155.00,1.23
9154.00,1.23
9153.00,1.23
9152.00,1.23
9151.00,1.23
9150.00,1.23
9149.00,1.23
9148.00,1.23
9147.00,1.23
9146.00,1.23
9145.00,1.23
9144.00,1.23
9143.00,1.23
9142.00,1.23
9141.00,1.23
9140.00,1.23
9139.00,1.24
9138.00,1.24
9137.00,1.24
9136.00,1.24
9135.00,1.24
9134.00,1.24
9133.00,1.24
9132.00,1.24
9131.00,1.24
9130.00,1.24
9129.00,1.24
9128.00,1.24
9127.00,1.25
9126.00,1.25
9125.00,1.25
9124.00,1.25
9123.00,1.25
9122.00,1.25
9121.00,1.25
9120.00,1.25
9119.00,1.25
9118.00,1.25
9117.00,1.25
9116.00,1.25
9115.00,1.25
9114.00,1.25
9113.00,1.25
9112.00,1.25
9111.00,1.25
9110.00,1.26
9109.00,1.26
9108.00,1.26
9107.00,1.26
9106.00,1.26
9105.00,1.26
9104.00,1.26
9103.00,1.26
9102.00,1.26
9101.00,1.26
9100.00,1.26
9099.00,1.26
9098.00,1.26
9097.00,1.26
9096.00,1.26
9095.00,1.26
9094.00,1.26
9093.00,1.25
9092.00,1.25
9091.00,1.25
9090.00,1.25
9089.00,1.25
9088.00,1.25
9087.00,1.24
9086.00,1.24
9085.00,1.24
9084.00,1.24
9083.00,1.24
9082.00,1.24
9081.00,1.24
9080.00,1.24
9079.00,1.24
9078.00,1.24
9077.00,1.24
9076.00,1.24
9075.00,1.24
9074.00,1.23
9073.00,1.23
9072.00,1.23
9071.00,1.23
9070.00,1.23
9069.00,1.23
9068.00,1.24
9067.00,1.24
9066.00,1.24
9065.00,1.24
9064.00,1.24
9063.00,1.24
9062.00,1.24
9061.00,1.25
9060.00,1.25
9059.00,1.25
9058.00,1.25
9057.00,1.25
9056.00,1.26
9055.00,1.26
9054.00,1.26
9053.00,1.26
9052.00,1.26
9051.00,1.26
9050.00,1.26
9049.00,1.26
9048.00,1.26
9047.00,1.25
9046.00,1.25
9045.00,1.25
9044.00,1.25
9043.00,1.25
9042.00,1.25
9041.00,1.24
9040.00,1.24
9039.00,1.24
9038.00,1.24
9037.00,1.24
9036.00,1.24
9035.00,1.24
9034.00,1.24
9033.00,1.24
9032.00,1.24
9031.00,1.24
9030.00,1.24
9029.00,1.24
9028.00,1.24
9027.00,1.25
9026.00,1.25
9025.00,1.25
9024.00,1.25
9023.00,1.25
9022.00,1.25
9021.00,1.25
9020.00,1.25
9019.00,1.25
9018.00,1.25
9017.00,1.25
9016.00,1.25
9015.00,1.26
9014.00,1.26
9013.00,1.26
9012.00,1.26
9011.00,1.26
9010.00,1.26
9009.00,1.26
9008.00,1.26
9007.00,1.26
9006.00,1.26
9005.00,1.26
9004.00,1.26
9003.00,1.26
9002.00,1.26
9001.00,1.26
9000.00,1.26
8999.00,1.26
8998.00,1.26
8997.00,1.25
8996.00,1.25
8995.00,1.25
8994.00,1.25
8993.00,1.25
8992.00,1.25
8991.00,1.25
8990.00,1.25
8989.00,1.25
8988.00,1.25
8987.00,1.25
8986.00,1.25
8985.00,1.25
8984.00,1.25
8983.00,1.25
8982.00,1.25
8981.00,1.25
8980.00,1.25
8979.00,1.25
8978.00,1.25
8977.00,1.25
8976.00,1.25
8975.00,1.25
8974.00,1.25
8973.00,1.26
8972.00,1.26
8971.00,1.26
8970.00,1.25
8969.00,1.25
8968.00,1.25
8967.00,1.25
8966.00,1.25
8965.00,1.25
8964.00,1.25
8963.00,1.25
8962.00,1.25
8961.00,1.25
8960.00,1.25
8959.00,1.25
8958.00,1.25
8957.00,1.25
8956.00,1.25
8955.00,1.25
8954.00,1.25
8953.00,1.25
8952.00,1.25
8951.00,1.25
8950.00,1.26
8949.00,1.26
8948.00,1.26
8947.00,1.26
8946.00,1.26
8945.00,1.26
8944.00,1.26
8943.00,1.26
8942.00,1.26
8941.00,1.26
8940.00,1.26
8939.00,1.26
8938.00,1.26
8937.00,1.26
8936.00,1.26
8935.00,1.25
8934.00,1.25
8933.00,1.25
8932.00,1.25
8931.00,1.25
8930.00,1.25
8929.00,1.25
8928.00,1.24
8927.00,1.24
8926.00,1.24
8925.00,1.24
8924.00,1.24
8923.00,1.24
8922.00,1.24
8921.00,1.24
8920.00,1.24
8919.00,1.24
8918.00,1.24
8917.00,1.25
8916.00,1.25
8915.00,1.25
8914.00,1.25
8913.00,1.25
8912.00,1.26
8911.00,1.26
8910.00,1.26
8909.00,1.26
8908.00,1.26
8907.00,1.26
8906.00,1.26
8905.00,1.26
8904.00,1.26
8903.00,1.26
8902.00,1.26
8901.00,1.26
8900.00,1.26
8899.00,1.26
8898.00,1.26
8897.00,1.25
8896.00,1.25
8895.00,1.25
8894.00,1.25
8893.00,1.25
8892.00,1.25
8891.00,1.24
8890.00,1.24
8889.00,1.24
8888.00,1.24
8887.00,1.24
8886.00,1.24
8885.00,1.23
8884.00,1.23
8883.00,1.23
8882.00,1.23
8881.00,1.23
8880.00,1.23
8879.00,1.23
8878.00,1.23
8877.00,1.23
8876.00,1.23
8875.00,1.23
8874.00,1.23
8873.00,1.24
8872.00,1.24
8871.00,1.24
8870.00,1.24
8869.00,1.24
8868.00,1.24
8867.00,1.24
8866.00,1.24
8865.00,1.25
8864.00,1.25
8863.00,1.25
8862.00,1.25
8861.00,1.25
8860.00,1.25
8859.00,1.24
8858.00,1.24
8857.00,1.24
8856.00,1.24
8855.00,1.24
8854.00,1.24
8853.00,1.24
8852.00,1.23
8851.00,1.23
8850.00,1.23
8849.00,1.23
8848.00,1.23
8847.00,1.23
8846.00,1.23
8845.00,1.23
8844.00,1.23
8843.00,1.23
8842.00,1.23
8841.00,1.23
8840.00,1.23
8839.00,1.23
8838.00,1.23
8837.00,1.23
8836.00,1.23
8835.00,1.24
8834.00,1.24
8833.00,1.24
8832.00,1.24
8831.00,1.24
8830.00,1.24
8829.00,1.24
8828.00,1.24
8827.00,1.24
8826.00,1.24
8825.00,1.24
8824.00,1.24
8823.00,1.24
8822.00,1.24
8821.00,1.24
8820.00,1.23
8819.00,1.23
8818.00,1.23
8817.00,1.23
8816.00,1.23
8815.00,1.23
8814.00,1.23
8813.00,1.22
8812.00,1.22
8811.00,1.22
8810.00,1.22
8809.00,1.22
8808.00,1.22
8807.00,1.22
8806.00,1.22
8805.00,1.22
8804.00,1.22
8803.00,1.22
8802.00,1.22
8801.00,1.22
8800.00,1.23
8799.00,1.23
8798.00,1.23
8797.00,1.23
8796.00,1.23
8795.00,1.23
8794.00,1.23
8793.00,1.23
8792.00,1.23
8791.00,1.23
8790.00,1.23
8789.00,1.23
8788.00,1.23
8787.00,1.23
8786.00,1.23
8785.00,1.23
8784.00,1.23
8783.00,1.23
8782.00,1.23
8781.00,1.23
8780.00,1.23
8779.00,1.22
8778.00,1.22
8777.00,1.22
8776.00,1.22
8775.00,1.22
8774.00,1.22
8773.00,1.22
8772.00,1.22
8771.00,1.22
8770.00,1.22
8769.00,1.22
8768.00,1.22
8767.00,1.22
8766.00,1.22
8765.00,1.22
8764.00,1.22
8763.00,1.22
8762.00,1.22
8761.00,1.22
8760.00,1.22
8759.00,1.22
8758.00,1.22
8757.00,1.22
8756.00,1.22
8755.00,1.22
8754.00,1.22
8753.00,1.22
8752.00,1.21
8751.00,1.21
8750.00,1.21
8749.00,1.21
8748.00,1.21
8747.00,1.21
8746.00,1.21
8745.00,1.21
8744.00,1.21
8743.00,1.21
8742.00,1.21
8741.00,1.21
8740.00,1.20
8739.00,1.20
8738.00,1.20
8737.00,1.20
8736.00,1.20
8735.00,1.20
8734.00,1.20
8733.00,1.20
8732.00,1.20
8731.00,1.20
8730.00,1.20
8729.00,1.20
8728.00,1.20
8727.00,1.20
8726.00,1.20
8725.00,1.20
8724.00,1.20
8723.00,1.20
8722.00,1.20
8721.00,1.20
8720.00,1.20
8719.00,1.20
8718.00,1.20
8717.00,1.20
8716.00,1.20
8715.00,1.20
8714.00,1.20
8713.00,1.20
8712.00,1.20
8711.00,1.20
8710.00,1.20
8709.00,1.20
8708.00,1.20
8707.00,1.19
8706.00,1.19
8705.00,1.19
8704.00,1.19
8703.00,1.19
8702.00,1.19
8701.00,1.19
8700.00,1.18
8699.00,1.18
8698.00,1.18
8697.00,1.18
8696.00,1.18
8695.00,1.18
8694.00,1.18
8693.00,1.18
8692.00,1.18
8691.00,1.17
8690.00,1.17
8689.00,1.18
8688.00,1.18
8687.00,1.18
8686.00,1.18
8685.00,1.18
8684.00,1.18
8683.00,1.18
8682.00,1.18
8681.00,1.18
8680.00,1.18
8679.00,1.18
8678.00,1.18
8677.00,1.18
8676.00,1.18
8675.00,1.18
8674.00,1.18
8673.00,1.18
8672.00,1.18
8671.00,1.18
8670.00,1.18
8669.00,1.18
8668.00,1.18
8667.00,1.18
8666.00,1.18
8665.00,1.18
8664.00,1.18
8663.00,1.18
8662.00,1.18
8661.00,1.18
8660.00,1.18
8659.00,1.18
8658.00,1.18
8657.00,1.18
8656.00,1.18
8655.00,1.18
8654.00,1.18
8653.00,1.18
8652.00,1.18
8651.00,1.18
8650.00,1.18
8649.00,1.18
8648.00,1.18
8647.00,1.18
8646.00,1.18
8645.00,1.18
8644.00,1.18
8643.00,1.18
8642.00,1.18
8641.00,1.18
8640.00,1.18
8639.00,1.18
8638.00,1.18
8637.00,1.18
8636.00,1.18
8635.00,1.18
8634.00,1.18
8633.00,1.18
8632.00,1.18
8631.00,1.18
8630.00,1.18
8629.00,1.18
8628.00,1.18
8627.00,1.18
8626.00,1.18
8625.00,1.18
8624.00,1.18
8623.00,1.17
8622.00,1.17
8621.00,1.17
8620.00,1.17
8619.00,1.17
8618.00,1.17
8617.00,1.17
8616.00,1.17
8615.00,1.17
8614.00,1.17
8613.00,1.17
8612.00,1.17
8611.00,1.17
8610.00,1.17
8609.00,1.17
8608.00,1.17
8607.00,1.17
8606.00,1.17
8605.00,1.17
8604.00,1.17
8603.00,1.17
8602.00,1.17
8601.00,1.17
8600.00,1.17
8599.00,1.17
8598.00,1.17
8597.00,1.17
8596.00,1.16
8595.00,1.16
8594.00,1.16
8593.00,1.16
8592.00,1.16
8591.00,1.16
8590.00,1.16
8589.00,1.16
8588.00,1.16
8587.00,1.16
8586.00,1.16
8585.00,1.16
8584.00,1.16
8583.00,1.16
8582.00,1.16
8581.00,1.16
8580.00,1.16
8579.00,1.16
8578.00,1.16
8577.00,1.16
8576.00,1.16
8575.00,1.16
8574.00,1.16
8573.00,1.16
8572.00,1.16
8571.00,1.16
8570.00,1.16
8569.00,1.16
8568.00,1.16
8567.00,1.16
8566.00,1.16
8565.00,1.16
8564.00,1.16
8563.00,1.16
8562.00,1.16
8561.00,1.16
8560.00,1.16
8559.00,1.17
8558.00,1.17
8557.00,1.17
8556.00,1.17
8555.00,1.17
8554.00,1.17
8553.00,1.17
8552.00,1.17
8551.00,1.17
8550.00,1.17
8549.00,1.17
8548.00,1.17
8547.00,1.17
8546.00,1.17
8545.00,1.16
8544.00,1.16
8543.00,1.16
8542.00,1.16
8541.00,1.16
8540.00,1.16
8539.00,1.16
8538.00,1.16
8537.00,1.16
8536.00,1.16
8535.00,1.16
8534.00,1.16
8533.00,1.16
8532.00,1.16
8531.00,1.16
8530.00,1.16
8529.00,1.16
8528.00,1.15
8527.00,1.15
8526.00,1.15
8525.00,1.15
8524.00,1.15
8523.00,1.15
8522.00,1.15
8521.00,1.15
8520.00,1.15
8519.00,1.15
8518.00,1.15
8517.00,1.15
8516.00,1.14
8515.00,1.14
8514.00,1.14
8513.00,1.14
8512.00,1.14
8511.00,1.14
8510.00,1.14
8509.00,1.14
8508.00,1.14
8507.00,1.14
8506.00,1.14
8505.00,1.14
8504.00,1.14
8503.00,1.14
8502.00,1.14
8501.00,1.14
8500.00,1.14
8499.00,1.14
8498.00,1.14
8497.00,1.14
8496.00,1.13
8495.00,1.13
8494.00,1.13
8493.00,1.13
8492.00,1.13
8491.00,1.13
8490.00,1.13
8489.00,1.13
8488.00,1.13
8487.00,1.13
8486.00,1.13
8485.00,1.13
8484.00,1.13
8483.00,1.13
8482.00,1.13
8481.00,1.13
8480.00,1.13
8479.00,1.13
8478.00,1.13
8477.00,1.13
8476.00,1.13
8475.00,1.13
8474.00,1.13
8473.00,1.13
8472.00,1.13
8471.00,1.13
8470.00,1.13
8469.00,1.13
8468.00,1.13
8467.00,1.13
8466.00,1.13
8465.00,1.12
8464.00,1.12
8463.00,1.12
8462.00,1.12
8461.00,1.13
8460.00,1.13
8459.00,1.13
8458.00,1.13
8457.00,1.13
8456.00,1.13
8455.00,1.13
8454.00,1.13
8453.00,1.13
8452.00,1.14
8451.00,1.14
8450.00,1.14
8449.00,1.14
8448.00,1.14
8447.00,1.14
8446.00,1.15
8445.00,1.15
8444.00,1.15
8443.00,1.15
8442.00,1.15
8441.00,1.15
8440.00,1.15
8439.00,1.15
8438.00,1.15
8437.00,1.15
8436.00,1.14
8435.00,1.14
8434.00,1.14
8433.00,1.14
8432.00,1.14
8431.00,1.13
8430.00,1.13
8429.00,1.13
8428.00,1.13
8427.00,1.13
8426.00,1.13
8425.00,1.13
8424.00,1.13
8423.00,1.13
8422.00,1.13
8421.00,1.13
8420.00,1.13
8419.00,1.13
8418.00,1.13
8417.00,1.13
8416.00,1.13
8415.00,1.13
8414.00,1.13
8413.00,1.13
8412.00,1.13
8411.00,1.13
8410.00,1.13
8409.00,1.13
8408.00,1.13
8407.00,1.13
8406.00,1.13
8405.00,1.13
8404.00,1.14
8403.00,1.14
8402.00,1.14
8401.00,1.14
8400.00,1.14
8399.00,1.14
8398.00,1.14
8397.00,1.14
8396.00,1.14
8395.00,1.14
8394.00,1.14
8393.00,1.14
8392.00,1.14
8391.00,1.14
8390.00,1.14
8389.00,1.14
8388.00,1.14
8387.00,1.14
8386.00,1.14
8385.00,1.14
8384.00,1.14
8383.00,1.14
8382.00,1.14
8381.00,1.14
8380.00,1.14
8379.00,1.14
8378.00,1.14
8377.00,1.14
8376.00,1.14
8375.00,1.15
8374.00,1.15
8373.00,1.15
8372.00,1.15
8371.00,1.15
8370.00,1.15
8369.00,1.15
8368.00,1.15
8367.00,1.15
8366.00,1.16
8365.00,1.16
8364.00,1.16
8363.00,1.16
8362.00,1.16
8361.00,1.16
8360.00,1.16
8359.00,1.16
8358.00,1.16
8357.00,1.16
8356.00,1.16
8355.00,1.16
8354.00,1.16
8353.00,1.16
8352.00,1.16
8351.00,1.16
8350.00,1.16
8349.00,1.16
8348.00,1.16
8347.00,1.16
8346.00,1.16
8345.00,1.16
8344.00,1.16
8343.00,1.16
8342.00,1.16
8341.00,1.16
8340.00,1.16
8339.00,1.16
8338.00,1.16
8337.00,1.16
8336.00,1.16
8335.00,1.16
8334.00,1.16
8333.00,1.16
8332.00,1.16
8331.00,1.16
8330.00,1.16
8329.00,1.16
8328.00,1.16
8327.00,1.16
8326.00,1.16
8325.00,1.17
8324.00,1.17
8323.00,1.17
8322.00,1.17
8321.00,1.17
8320.00,1.17
8319.00,1.17
8318.00,1.17
8317.00,1.17
8316.00,1.17
8315.00,1.18
8314.00,1.18
8313.00,1.18
8312.00,1.18
8311.00,1.18
8310.00,1.18
8309.00,1.18
8308.00,1.18
8307.00,1.18
8306.00,1.18
8305.00,1.18
8304.00,1.18
8303.00,1.18
8302.00,1.18
8301.00,1.18
8300.00,1.18
8299.00,1.18
8298.00,1.18
8297.00,1.18
8296.00,1.18
8295.00,1.18
8294.00,1.18
8293.00,1.18
8292.00,1.17
8291.00,1.17
8290.00,1.17
8289.00,1.17
8288.00,1.17
8287.00,1.17
8286.00,1.17
8285.00,1.17
8284.00,1.17
8283.00,1.17
8282.00,1.17
8281.00,1.17
8280.00,1.17
8279.00,1.17
8278.00,1.17
8277.00,1.17
8276.00,1.17
8275.00,1.17
8274.00,1.17
8273.00,1.17
8272.00,1.17
8271.00,1.17
8270.00,1.17
8269.00,1.17
8268.00,1.17
8267.00,1.17
8266.00,1.17
8265.00,1.17
8264.00,1.17
8263.00,1.17
8262.00,1.17
8261.00,1.17
8260.00,1.17
8259.00,1.17
8258.00,1.17
8257.00,1.17
8256.00,1.17
8255.00,1.17
8254.00,1.17
8253.00,1.17
8252.00,1.17
8251.00,1.17
8250.00,1.17
8249.00,1.17
8248.00,1.17
8247.00,1.17
8246.00,1.17
8245.00,1.17
8244.00,1.17
8243.00,1.17
8242.00,1.17
8241.00,1.17
8240.00,1.17
8239.00,1.18
8238.00,1.18
8237.00,1.18
8236.00,1.18
8235.00,1.18
8234.00,1.18
8233.00,1.18
8232.00,1.18
8231.00,1.18
8230.00,1.18
8229.00,1.18
8228.00,1.18
8227.00,1.18
8226.00,1.18
8225.00,1.18
8224.00,1.18
8223.00,1.18
8222.00,1.18
8221.00,1.18
8220.00,1.18
8219.00,1.18
8218.00,1.18
8217.00,1.18
8216.00,1.18
8215.00,1.18
8214.00,1.18
8213.00,1.18
8212.00,1.18
8211.00,1.18
8210.00,1.18
8209.00,1.18
8208.00,1.18
8207.00,1.18
8206.00,1.18
8205.00,1.18
8204.00,1.18
8203.00,1.18
8202.00,1.18
8201.00,1.18
8200.00,1.18
8199.00,1.18
8198.00,1.18
8197.00,1.18
8196.00,1.18
8195.00,1.18
8194.00,1.18
8193.00,1.18
8192.00,1.18
8191.00,1.18
8190.00,1.18
8189.00,1.18
8188.00,1.18
8187.00,1.19
8186.00,1.19
8185.00,1.19
8184.00,1.19
8183.00,1.19
8182.00,1.19
8181.00,1.19
8180.00,1.19
8179.00,1.19
8178.00,1.19
8177.00,1.19
8176.00,1.19
8175.00,1.19
8174.00,1.19
8173.00,1.19
8172.00,1.19
8171.00,1.19
8170.00,1.19
8169.00,1.19
8168.00,1.19
8167.00,1.19
8166.00,1.19
8165.00,1.19
8164.00,1.19
8163.00,1.19
8162.00,1.19
8161.00,1.19
8160.00,1.19
8159.00,1.19
8158.00,1.19
8157.00,1.19
8156.00,1.19
8155.00,1.19
8154.00,1.19
8153.00,1.19
8152.00,1.19
8151.00,1.19
8150.00,1.19
8149.00,1.19
8148.00,1.19
8147.00,1.19
8146.00,1.19
8145.00,1.19
8144.00,1.19
8143.00,1.19
8142.00,1.19
8141.00,1.20
8140.00,1.20
8139.00,1.20
8138.00,1.20
8137.00,1.20
8136.00,1.20
8135.00,1.20
8134.00,1.20
8133.00,1.20
8132.00,1.20
8131.00,1.21
8130.00,1.21
8129.00,1.21
8128.00,1.21
8127.00,1.21
8126.00,1.21
8125.00,1.21
8124.00,1.21
8123.00,1.21
8122.00,1.22
8121.00,1.22
8120.00,1.22
8119.00,1.22
8118.00,1.22
8117.00,1.22
8116.00,1.22
8115.00,1.22
8114.00,1.22
8113.00,1.22
8112.00,1.22
8111.00,1.22
8110.00,1.23
8109.00,1.23
8108.00,1.23
8107.00,1.23
8106.00,1.23
8105.00,1.22
8104.00,1.22
8103.00,1.22
8102.00,1.22
8101.00,1.22
8100.00,1.22
8099.00,1.22
8098.00,1.22
8097.00,1.21
8096.00,1.21
8095.00,1.21
8094.00,1.21
8093.00,1.21
8092.00,1.21
8091.00,1.21
8090.00,1.21
8089.00,1.21
8088.00,1.21
8087.00,1.21
8086.00,1.21
8085.00,1.21
8084.00,1.21
8083.00,1.21
8082.00,1.21
8081.00,1.21
8080.00,1.21
8079.00,1.21
8078.00,1.22
8077.00,1.22
8076.00,1.22
8075.00,1.22
8074.00,1.22
8073.00,1.22
8072.00,1.22
8071.00,1.22
8070.00,1.22
8069.00,1.21
8068.00,1.21
8067.00,1.21
8066.00,1.21
8065.00,1.21
8064.00,1.21
8063.00,1.21
8062.00,1.21
8061.00,1.21
8060.00,1.21
8059.00,1.21
8058.00,1.20
8057.00,1.20
8056.00,1.20
8055.00,1.20
8054.00,1.20
8053.00,1.20
8052.00,1.20
8051.00,1.20
8050.00,1.20
8049.00,1.20
8048.00,1.20
8047.00,1.20
8046.00,1.20
8045.00,1.21
8044.00,1.21
8043.00,1.21
8042.00,1.21
8041.00,1.21
8040.00,1.21
8039.00,1.21
8038.00,1.21
8037.00,1.21
8036.00,1.21
8035.00,1.21
8034.00,1.21
8033.00,1.21
8032.00,1.21
8031.00,1.21
8030.00,1.21
8029.00,1.21
8028.00,1.21
8027.00,1.21
8026.00,1.21
8025.00,1.21
8024.00,1.22
8023.00,1.22
8022.00,1.22
8021.00,1.22
8020.00,1.22
8019.00,1.22
8018.00,1.22
8017.00,1.23
8016.00,1.23
8015.00,1.23
8014.00,1.23
8013.00,1.23
8012.00,1.23
8011.00,1.23
8010.00,1.23
8009.00,1.23
8008.00,1.23
8007.00,1.23
8006.00,1.23
8005.00,1.23
8004.00,1.23
8003.00,1.23
8002.00,1.23
8001.00,1.23
8000.00,1.23
7999.00,1.23
7998.00,1.23
7997.00,1.23
7996.00,1.23
7995.00,1.23
7994.00,1.23
7993.00,1.23
7992.00,1.23
7991.00,1.23
7990.00,1.23
7989.00,1.23
7988.00,1.23
7987.00,1.23
7986.00,1.23
7985.00,1.23
7984.00,1.23
7983.00,1.23
7982.00,1.23
7981.00,1.23
7980.00,1.23
7979.00,1.23
7978.00,1.23
7977.00,1.23
7976.00,1.23
7975.00,1.23
7974.00,1.23
7973.00,1.23
7972.00,1.23
7971.00,1.23
7970.00,1.23
7969.00,1.23
7968.00,1.23
7967.00,1.23
7966.00,1.23
7965.00,1.23
7964.00,1.23
7963.00,1.23
7962.00,1.24
7961.00,1.24
7960.00,1.24
7959.00,1.24
7958.00,1.24
7957.00,1.24
7956.00,1.24
7955.00,1.24
7954.00,1.24
7953.00,1.24
7952.00,1.24
7951.00,1.24
7950.00,1.24
7949.00,1.24
7948.00,1.24
7947.00,1.24
7946.00,1.24
7945.00,1.24
7944.00,1.24
7943.00,1.24
7942.00,1.24
7941.00,1.23
7940.00,1.23
7939.00,1.23
7938.00,1.23
7937.00,1.23
7936.00,1.23
7935.00,1.23
7934.00,1.23
7933.00,1.23
7932.00,1.24
7931.00,1.24
7930.00,1.24
7929.00,1.24
7928.00,1.24
7927.00,1.24
7926.00,1.24
7925.00,1.24
7924.00,1.24
7923.00,1.24
7922.00,1.24
7921.00,1.25
7920.00,1.25
7919.00,1.25
7918.00,1.25
7917.00,1.25
7916.00,1.25
7915.00,1.25
7914.00,1.25
7913.00,1.25
7912.00,1.25
7911.00,1.24
7910.00,1.24
7909.00,1.24
7908.00,1.24
7907.00,1.24
7906.00,1.24
7905.00,1.24
7904.00,1.24
7903.00,1.24
7902.00,1.24
7901.00,1.24
7900.00,1.24
7899.00,1.25
7898.00,1.25
7897.00,1.25
7896.00,1.25
7895.00,1.25
7894.00,1.25
7893.00,1.25
7892.00,1.25
7891.00,1.26
7890.00,1.26
7889.00,1.26
7888.00,1.26
7887.00,1.26
7886.00,1.26
7885.00,1.26
7884.00,1.26
7883.00,1.26
7882.00,1.26
7881.00,1.26
7880.00,1.26
7879.00,1.26
7878.00,1.26
7877.00,1.26
7876.00,1.26
7875.00,1.26
7874.00,1.26
7873.00,1.26
7872.00,1.26
7871.00,1.26
7870.00,1.26
7869.00,1.26
7868.00,1.26
7867.00,1.26
7866.00,1.26
7865.00,1.26
7864.00,1.26
7863.00,1.26
7862.00,1.26
7861.00,1.26
7860.00,1.26
7859.00,1.26
7858.00,1.26
7857.00,1.25
7856.00,1.25
7855.00,1.25
7854.00,1.25
7853.00,1.25
7852.00,1.25
7851.00,1.25
7850.00,1.25
7849.00,1.25
7848.00,1.25
7847.00,1.25
7846.00,1.25
7845.00,1.25
7844.00,1.25
7843.00,1.25
7842.00,1.25
7841.00,1.25
7840.00,1.25
7839.00,1.25
7838.00,1.25
7837.00,1.25
7836.00,1.25
7835.00,1.25
7834.00,1.25
7833.00,1.25
7832.00,1.25
7831.00,1.25
7830.00,1.25
7829.00,1.25
7828.00,1.25
7827.00,1.25
7826.00,1.25
7825.00,1.25
7824.00,1.25
7823.00,1.25
7822.00,1.25
7821.00,1.25
7820.00,1.25
7819.00,1.25
7818.00,1.24
7817.00,1.24
7816.00,1.24
7815.00,1.24
7814.00,1.24
7813.00,1.24
7812.00,1.24
7811.00,1.24
7810.00,1.24
7809.00,1.24
7808.00,1.24
7807.00,1.24
7806.00,1.24
7805.00,1.24
7804.00,1.24
7803.00,1.24
7802.00,1.24
7801.00,1.24
7800.00,1.25
7799.00,1.25
7798.00,1.25
7797.00,1.25
7796.00,1.25
7795.00,1.25
7794.00,1.25
7793.00,1.25
7792.00,1.25
7791.00,1.26
7790.00,1.26
7789.00,1.26
7788.00,1.26
7787.00,1.26
7786.00,1.26
7785.00,1.26
7784.00,1.26
7783.00,1.26
7782.00,1.26
7781.00,1.26
7780.00,1.26
7779.00,1.26
7778.00,1.26
7777.00,1.26
7776.00,1.26
7775.00,1.26
7774.00,1.26
7773.00,1.26
7772.00,1.26
7771.00,1.26
7770.00,1.26
7769.00,1.26
7768.00,1.26
7767.00,1.26
7766.00,1.26
7765.00,1.26
7764.00,1.26
7763.00,1.26
7762.00,1.26
7761.00,1.26
7760.00,1.26
7759.00,1.26
7758.00,1.26
7757.00,1.26
7756.00,1.26
7755.00,1.26
7754.00,1.26
7753.00,1.26
7752.00,1.25
7751.00,1.25
7750.00,1.25
7749.00,1.25
7748.00,1.25
7747.00,1.25
7746.00,1.25
7745.00,1.25
7744.00,1.25
7743.00,1.25
7742.00,1.25
7741.00,1.25
7740.00,1.25
7739.00,1.25
7738.00,1.24
7737.00,1.25
7736.00,1.25
7735.00,1.25
7734.00,1.25
7733.00,1.25
7732.00,1.25
7731.00,1.25
7730.00,1.25
7729.00,1.25
7728.00,1.25
7727.00,1.25
7726.00,1.25
7725.00,1.25
7724.00,1.26
7723.00,1.26
7722.00,1.26
7721.00,1.26
7720.00,1.26
7719.00,1.26
7718.00,1.26
7717.00,1.26
7716.00,1.26
7715.00,1.26
7714.00,1.26
7713.00,1.26
7712.00,1.26
7711.00,1.26
7710.00,1.26
7709.00,1.26
7708.00,1.26
7707.00,1.26
7706.00,1.26
7705.00,1.26
7704.00,1.26
7703.00,1.26
7702.00,1.26
7701.00,1.26
7700.00,1.26
7699.00,1.25
7698.00,1.25
7697.00,1.25
7696.00,1.25
7695.00,1.25
7694.00,1.25
7693.00,1.25
7692.00,1.25
7691.00,1.25
7690.00,1.25
7689.00,1.25
7688.00,1.25
7687.00,1.25
7686.00,1.25
7685.00,1.25
7684.00,1.25
7683.00,1.25
7682.00,1.25
7681.00,1.25
7680.00,1.25
7679.00,1.25
7678.00,1.25
7677.00,1.25
7676.00,1.25
7675.00,1.26
7674.00,1.26
7673.00,1.26
7672.00,1.26
7671.00,1.26
7670.00,1.26
7669.00,1.26
7668.00,1.26
7667.00,1.26
7666.00,1.26
7665.00,1.26
7664.00,1.26
7663.00,1.26
7662.00,1.26
7661.00,1.26
7660.00,1.26
7659.00,1.26
7658.00,1.26
7657.00,1.26
7656.00,1.26
7655.00,1.26
7654.00,1.26
7653.00,1.26
7652.00,1.26
7651.00,1.26
7650.00,1.26
7649.00,1.26
7648.00,1.26
7647.00,1.26
7646.00,1.26
7645.00,1.26
7644.00,1.26
7643.00,1.25
7642.00,1.25
7641.00,1.25
7640.00,1.25
7639.00,1.25
7638.00,1.25
7637.00,1.25
7636.00,1.25
7635.00,1.25
7634.00,1.25
7633.00,1.25
7632.00,1.25
7631.00,1.25
7630.00,1.25
7629.00,1.25
7628.00,1.25
7627.00,1.25
7626.00,1.25
7625.00,1.25
7624.00,1.25
7623.00,1.24
7622.00,1.24
7621.00,1.24
7620.00,1.24
7619.00,1.24
7618.00,1.24
7617.00,1.24
7616.00,1.24
7615.00,1.24
7614.00,1.24
7613.00,1.24
7612.00,1.24
7611.00,1.24
7610.00,1.24
7609.00,1.25
7608.00,1.25
7607.00,1.25
7606.00,1.25
7605.00,1.25
7604.00,1.25
7603.00,1.25
7602.00,1.25
7601.00,1.25
7600.00,1.25
7599.00,1.25
7598.00,1.25
7597.00,1.25
7596.00,1.25
7595.00,1.25
7594.00,1.25
7593.00,1.24
7592.00,1.24
7591.00,1.24
7590.00,1.24
7589.00,1.24
7588.00,1.24
7587.00,1.24
7586.00,1.24
7585.00,1.24
7584.00,1.24
7583.00,1.24
7582.00,1.24
7581.00,1.24
7580.00,1.24
7579.00,1.24
7578.00,1.24
7577.00,1.24
7576.00,1.24
7575.00,1.24
7574.00,1.24
7573.00,1.23
7572.00,1.23
7571.00,1.23
7570.00,1.23
7569.00,1.23
7568.00,1.23
7567.00,1.23
7566.00,1.23
7565.00,1.23
7564.00,1.23
7563.00,1.23
7562.00,1.23
7561.00,1.23
7560.00,1.23
7559.00,1.23
7558.00,1.23
7557.00,1.23
7556.00,1.23
7555.00,1.23
7554.00,1.23
7553.00,1.23
7552.00,1.23
7551.00,1.23
7550.00,1.23
7549.00,1.23
7548.00,1.23
7547.00,1.23
7546.00,1.23
7545.00,1.23
7544.00,1.23
7543.00,1.23
7542.00,1.23
7541.00,1.23
7540.00,1.23
7539.00,1.23
7538.00,1.23
7537.00,1.23
7536.00,1.23
7535.00,1.23
7534.00,1.23
7533.00,1.23
7532.00,1.23
7531.00,1.23
7530.00,1.23
7529.00,1.23
7528.00,1.23
7527.00,1.23
7526.00,1.23
7525.00,1.22
7524.00,1.22
7523.00,1.22
7522.00,1.22
7521.00,1.22
7520.00,1.22
7519.00,1.22
7518.00,1.22
7517.00,1.22
7516.00,1.22
7515.00,1.22
7514.00,1.22
7513.00,1.22
7512.00,1.22
7511.00,1.22
7510.00,1.22
7509.00,1.21
7508.00,1.21
7507.00,1.21
7506.00,1.21
7505.00,1.21
7504.00,1.21
7503.00,1.21
7502.00,1.21
7501.00,1.21
7500.00,1.21
7499.00,1.21
7498.00,1.21
7497.00,1.21
7496.00,1.21
7495.00,1.21
7494.00,1.21
7493.00,1.21
7492.00,1.21
7491.00,1.21
7490.00,1.21
7489.00,1.21
7488.00,1.21
7487.00,1.21
7486.00,1.20
7485.00,1.20
7484.00,1.20
7483.00,1.20
7482.00,1.20
7481.00,1.20
7480.00,1.20
7479.00,1.20
7478.00,1.20
7477.00,1.20
7476.00,1.20
7475.00,1.20
7474.00,1.20
7473.00,1.20
7472.00,1.20
7471.00,1.20
7470.00,1.19
7469.00,1.19
7468.00,1.19
7467.00,1.19
7466.00,1.19
7465.00,1.19
7464.00,1.19
7463.00,1.19
7462.00,1.19
7461.00,1.19
7460.00,1.19
7459.00,1.19
7458.00,1.19
7457.00,1.19
7456.00,1.19
7455.00,1.19
7454.00,1.19
7453.00,1.19
7452.00,1.19
7451.00,1.18
7450.00,1.18
7449.00,1.18
7448.00,1.18
7447.00,1.18
7446.00,1.18
7445.00,1.18
7444.00,1.18
7443.00,1.18
7442.00,1.18
7441.00,1.18
7440.00,1.18
7439.00,1.18
7438.00,1.18
7437.00,1.18
7436.00,1.18
7435.00,1.18
7434.00,1.18
7433.00,1.18
7432.00,1.18
7431.00,1.18
7430.00,1.18
7429.00,1.18
7428.00,1.18
7427.00,1.18
7426.00,1.17
7425.00,1.17
7424.00,1.17
7423.00,1.17
7422.00,1.17
7421.00,1.17
7420.00,1.17
7419.00,1.16
7418.00,1.16
7417.00,1.16
7416.00,1.16
7415.00,1.16
7414.00,1.16
7413.00,1.16
7412.00,1.16
7411.00,1.16
7410.00,1.15
7409.00,1.15
7408.00,1.15
7407.00,1.15
7406.00,1.15
7405.00,1.15
7404.00,1.15
7403.00,1.15
7402.00,1.15
7401.00,1.15
7400.00,1.15
7399.00,1.15
7398.00,1.15
7397.00,1.15
7396.00,1.15
7395.00,1.15
7394.00,1.15
7393.00,1.15
7392.00,1.15
7391.00,1.15
7390.00,1.15
7389.00,1.15
7388.00,1.15
7387.00,1.14
7386.00,1.14
7385.00,1.14
7384.00,1.14
7383.00,1.14
7382.00,1.14
7381.00,1.14
7380.00,1.14
7379.00,1.14
7378.00,1.14
7377.00,1.14
7376.00,1.14
7375.00,1.14
7374.00,1.14
7373.00,1.14
7372.00,1.14
7371.00,1.14
7370.00,1.14
7369.00,1.14
7368.00,1.14
7367.00,1.14
7366.00,1.14
7365.00,1.14
7364.00,1.14
7363.00,1.14
7362.00,1.14
7361.00,1.14
7360.00,1.14
7359.00,1.14
7358.00,1.14
7357.00,1.14
7356.00,1.13
7355.00,1.13
7354.00,1.13
7353.00,1.13
7352.00,1.13
7351.00,1.13
7350.00,1.13
7349.00,1.13
7348.00,1.13
7347.00,1.13
7346.00,1.13
7345.00,1.12
7344.00,1.12
7343.00,1.12
7342.00,1.12
7341.00,1.12
7340.00,1.12
7339.00,1.12
7338.00,1.12
7337.00,1.12
7336.00,1.12
7335.00,1.12
7334.00,1.12
7333.00,1.12
7332.00,1.12
7331.00,1.12
7330.00,1.12
7329.00,1.12
7328.00,1.12
7327.00,1.12
7326.00,1.12
7325.00,1.12
7324.00,1.12
7323.00,1.12
7322.00,1.12
7321.00,1.11
7320.00,1.11
7319.00,1.11
7318.00,1.11
7317.00,1.11
7316.00,1.11
7315.00,1.11
7314.00,1.11
7313.00,1.11
7312.00,1.11
7311.00,1.10
7310.00,1.10
7309.00,1.10
7308.00,1.10
7307.00,1.10
7306.00,1.10
7305.00,1.10
7304.00,1.10
7303.00,1.10
7302.00,1.10
7301.00,1.10
7300.00,1.10
7299.00,1.10
7298.00,1.10
7297.00,1.10
7296.00,1.10
7295.00,1.10
7294.00,1.10
7293.00,1.10
7292.00,1.09
7291.00,1.09
7290.00,1.09
7289.00,1.09
7288.00,1.09
7287.00,1.09
7286.00,1.09
7285.00,1.09
7284.00,1.09
7283.00,1.09
7282.00,1.08
7281.00,1.08
7280.00,1.08
7279.00,1.08
7278.00,1.08
7277.00,1.08
7276.00,1.08
7275.00,1.07
7274.00,1.07
7273.00,1.07
7272.00,1.07
7271.00,1.07
7270.00,1.07
7269.00,1.06
7268.00,1.06
7267.00,1.06
7266.00,1.06
7265.00,1.06
7264.00,1.06
7263.00,1.05
7262.00,1.05
7261.00,1.05
7260.00,1.05
7259.00,1.04
7258.00,1.04
7257.00,1.04
7256.00,1.04
7255.00,1.03
7254.00,1.03
7253.00,1.03
7252.00,1.02
7251.00,1.02
7250.00,1.02
7249.00,1.02
7248.00,1.01
7247.00,1.01
7246.00,1.01
7245.00,1.00
7244.00,1.00
7243.00,1.00
7242.00,1.00
7241.00,0.99
7240.00,0.99
7239.00,0.99
7238.00,0.99
7237.00,0.98
7236.00,0.98
7235.00,0.98
7234.00,0.98
7233.00,0.97
7232.00,0.97
7231.00,0.97
7230.00,0.97
7229.00,0.96
7228.00,0.96
7227.00,0.96
7226.00,0.95
7225.00,0.95
7224.00,0.95
7223.00,0.95
7222.00,0.94
7221.00,0.94
7220.00,0.94
7219.00,0.93
7218.00,0.93
7217.00,0.93
7216.00,0.92
7215.00,0.92
7214.00,0.92
7213.00,0.91
7212.00,0.91
7211.00,0.91
7210.00,0.91
7209.00,0.90
7208.00,0.90
7207.00,0.90
7206.00,0.89
7205.00,0.89
7204.00,0.89
7203.00,0.88
7202.00,0.88
7201.00,0.88
7200.00,0.87
7199.00,0.87
7198.00,0.87
7197.00,0.86
7196.00,0.86
7195.00,0.86
7194.00,0.85
7193.00,0.85
7192.00,0.84
7191.00,0.84
7190.00,0.84
7189.00,0.83
7188.00,0.83
7187.00,0.82
7186.00,0.82
7185.00,0.82
7184.00,0.81
7183.00,0.81
7182.00,0.80
7181.00,0.80
7180.00,0.79
7179.00,0.79
7178.00,0.79
7177.00,0.78
7176.00,0.78
7175.00,0.77
7174.00,0.77
7173.00,0.76
7172.00,0.76
7171.00,0.76
7170.00,0.75
7169.00,0.75
7168.00,0.74
7167.00,0.74
7166.00,0.74
7165.00,0.73
7164.00,0.73
7163.00,0.73
7162.00,0.72
7161.00,0.72
7160.00,0.72
7159.00,0.71
7158.00,0.71
7157.00,0.71
7156.00,0.71
7155.00,0.70
7154.00,0.70
7153.00,0.70
7152.00,0.70
7151.00,0.69
7150.00,0.69
7149.00,0.69
7148.00,0.69
7147.00,0.69
7146.00,0.68
7145.00,0.68
7144.00,0.68
7143.00,0.68
7142.00,0.68
7141.00,0.68
7140.00,0.67
7139.00,0.67
7138.00,0.67
7137.00,0.67
7136.00,0.67
7135.00,0.67
7134.00,0.67
7133.00,0.66
7132.00,0.66
7131.00,0.66
7130.00,0.66
7129.00,0.66
7128.00,0.65
7127.00,0.65
7126.00,0.65
7125.00,0.65
7124.00,0.65
7123.00,0.64
7122.00,0.64
7121.00,0.64
7120.00,0.64
7119.00,0.64
7118.00,0.63
7117.00,0.63
7116.00,0.63
7115.00,0.63
7114.00,0.63
7113.00,0.62
7112.00,0.62
7111.00,0.62
7110.00,0.62
7109.00,0.62
7108.00,0.62
7107.00,0.61
7106.00,0.61
7105.00,0.61
7104.00,0.61
7103.00,0.61
7102.00,0.60
7101.00,0.60
7100.00,0.60
7099.00,0.60
7098.00,0.60
7097.00,0.59
7096.00,0.59
7095.00,0.59
7094.00,0.59
7093.00,0.59
7092.00,0.59
7091.00,0.58
7090.00,0.58
7089.00,0.58
7088.00,0.58
7087.00,0.58
7086.00,0.58
7085.00,0.58
7084.00,0.58
7083.00,0.57
7082.00,0.57
7081.00,0.57
7080.00,0.57
7079.00,0.57
7078.00,0.57
7077.00,0.57
7076.00,0.57
7075.00,0.57
7074.00,0.57
7073.00,0.57
7072.00,0.57
7071.00,0.57
7070.00,0.57
7069.00,0.56
7068.00,0.56
7067.00,0.56
7066.00,0.56
7065.00,0.56
7064.00,0.56
7063.00,0.56
7062.00,0.56
7061.00,0.56
7060.00,0.56
7059.00,0.56
7058.00,0.56
7057.00,0.56
7056.00,0.56
7055.00,0.56
7054.00,0.56
7053.00,0.56
7052.00,0.56
7051.00,0.56
7050.00,0.56
7049.00,0.56
7048.00,0.56
7047.00,0.55
7046.00,0.55
7045.00,0.55
7044.00,0.55
7043.00,0.55
7042.00,0.55
7041.00,0.55
7040.00,0.55
7039.00,0.55
7038.00,0.55
7037.00,0.55
7036.00,0.55
7035.00,0.55
7034.00,0.55
7033.00,0.54
7032.00,0.54
7031.00,0.54
7030.00,0.54
7029.00,0.54
7028.00,0.54
7027.00,0.54
7026.00,0.54
7025.00,0.54
7024.00,0.54
7023.00,0.54
7022.00,0.54
7021.00,0.54
7020.00,0.54
7019.00,0.54
7018.00,0.54
7017.00,0.54
7016.00,0.54
7015.00,0.54
7014.00,0.54
7013.00,0.54
7012.00,0.54
7011.00,0.54
7010.00,0.54
7009.00,0.54
7008.00,0.54
7007.00,0.54
7006.00,0.54
7005.00,0.54
7004.00,0.54
7003.00,0.54
7002.00,0.54
7001.00,0.54
7000.00,0.54
6999.00,0.54
6998.00,0.54
6997.00,0.54
6996.00,0.53
6995.00,0.53
6994.00,0.53
6993.00,0.53
6992.00,0.53
6991.00,0.53
6990.00,0.53
6989.00,0.53
6988.00,0.53
6987.00,0.53
6986.00,0.53
6985.00,0.53
6984.00,0.53
6983.00,0.53
6982.00,0.53
6981.00,0.53
6980.00,0.53
6979.00,0.53
6978.00,0.53
6977.00,0.53
6976.00,0.53
6975.00,0.53
6974.00,0.53
6973.00,0.53
6972.00,0.53
6971.00,0.53
6970.00,0.53
6969.00,0.53
6968.00,0.53
6967.00,0.53
6966.00,0.53
6965.00,0.53
6964.00,0.53
6963.00,0.53
6962.00,0.53
6961.00,0.53
6960.00,0.53
6959.00,0.53
6958.00,0.53
6957.00,0.53
6956.00,0.52
6955.00,0.52
6954.00,0.52
6953.00,0.52
6952.00,0.52
6951.00,0.52
6950.00,0.52
6949.00,0.52
6948.00,0.52
6947.00,0.52
6946.00,0.52
6945.00,0.52
6944.00,0.52
6943.00,0.52
6942.00,0.53
6941.00,0.53
6940.00,0.53
6939.00,0.53
6938.00,0.53
6937.00,0.53
6936.00,0.53
6935.00,0.53
6934.00,0.53
6933.00,0.53
6932.00,0.53
6931.00,0.53
6930.00,0.53
6929.00,0.53
6928.00,0.53
6927.00,0.53
6926.00,0.53
6925.00,0.53
6924.00,0.53
6923.00,0.53
6922.00,0.53
6921.00,0.53
6920.00,0.53
6919.00,0.53
6918.00,0.53
6917.00,0.53
6916.00,0.53
6915.00,0.53
6914.00,0.53
6913.00,0.53
6912.00,0.53
6911.00,0.53
6910.00,0.53
6909.00,0.53
6908.00,0.53
6907.00,0.53
6906.00,0.53
6905.00,0.52
6904.00,0.52
6903.00,0.52
6902.00,0.52
6901.00,0.52
6900.00,0.52
6899.00,0.52
6898.00,0.52
6897.00,0.52
6896.00,0.52
6895.00,0.52
6894.00,0.52
6893.00,0.52
6892.00,0.52
6891.00,0.52
6890.00,0.52
6889.00,0.53
6888.00,0.53
6887.00,0.53
6886.00,0.53
6885.00,0.53
6884.00,0.53
6883.00,0.53
6882.00,0.53
6881.00,0.53
6880.00,0.53
6879.00,0.53
6878.00,0.53
6877.00,0.53
6876.00,0.53
6875.00,0.53
6874.00,0.53
6873.00,0.53
6872.00,0.53
6871.00,0.53
6870.00,0.53
6869.00,0.53
6868.00,0.53
6867.00,0.53
6866.00,0.53
6865.00,0.53
6864.00,0.54
6863.00,0.54
6862.00,0.54
6861.00,0.54
6860.00,0.54
6859.00,0.54
6858.00,0.54
6857.00,0.54
6856.00,0.54
6855.00,0.54
6854.00,0.54
6853.00,0.54
6852.00,0.54
6851.00,0.54
6850.00,0.54
6849.00,0.54
6848.00,0.54
6847.00,0.54
6846.00,0.54
6845.00,0.54
6844.00,0.54
6843.00,0.54
6842.00,0.54
6841.00,0.54
6840.00,0.54
6839.00,0.54
6838.00,0.54
6837.00,0.54
6836.00,0.54
6835.00,0.54
6834.00,0.54
6833.00,0.54
6832.00,0.54
6831.00,0.54
6830.00,0.54
6829.00,0.54
6828.00,0.54
6827.00,0.54
6826.00,0.54
6825.00,0.54
6824.00,0.54
6823.00,0.54
6822.00,0.54
6821.00,0.54
6820.00,0.54
6819.00,0.54
6818.00,0.54
6817.00,0.54
6816.00,0.54
6815.00,0.54
6814.00,0.54
6813.00,0.54
6812.00,0.54
6811.00,0.54
6810.00,0.54
6809.00,0.54
6808.00,0.54
6807.00,0.54
6806.00,0.54
6805.00,0.54
6804.00,0.54
6803.00,0.54
6802.00,0.54
6801.00,0.54
6800.00,0.54
6799.00,0.54
6798.00,0.54
6797.00,0.54
6796.00,0.54
6795.00,0.54
6794.00,0.54
6793.00,0.54
6792.00,0.54
6791.00,0.54
6790.00,0.54
6789.00,0.55
6788.00,0.55
6787.00,0.55
6786.00,0.55
6785.00,0.55
6784.00,0.55
6783.00,0.55
6782.00,0.55
6781.00,0.55
6780.00,0.55
6779.00,0.55
6778.00,0.55
6777.00,0.55
6776.00,0.55
6775.00,0.55
6774.00,0.55
6773.00,0.55
6772.00,0.55
6771.00,0.55
6770.00,0.55
6769.00,0.55
6768.00,0.55
6767.00,0.55
6766.00,0.55
6765.00,0.55
6764.00,0.55
6763.00,0.55
6762.00,0.55
6761.00,0.55
6760.00,0.55
6759.00,0.55
6758.00,0.55
6757.00,0.55
6756.00,0.55
6755.00,0.55
6754.00,0.56
6753.00,0.56
6752.00,0.56
6751.00,0.56
6750.00,0.56
6749.00,0.56
6748.00,0.56
6747.00,0.56
6746.00,0.56
6745.00,0.56
6744.00,0.56
6743.00,0.56
6742.00,0.57
6741.00,0.57
6740.00,0.57
6739.00,0.57
6738.00,0.57
6737.00,0.57
6736.00,0.57
6735.00,0.57
6734.00,0.57
6733.00,0.57
6732.00,0.57
6731.00,0.57
6730.00,0.57
6729.00,0.57
6728.00,0.57
6727.00,0.57
6726.00,0.57
6725.00,0.58
6724.00,0.58
6723.00,0.58
6722.00,0.58
6721.00,0.58
6720.00,0.58
6719.00,0.58
6718.00,0.58
6717.00,0.58
6716.00,0.58
6715.00,0.58
6714.00,0.58
6713.00,0.58
6712.00,0.59
6711.00,0.59
6710.00,0.59
6709.00,0.59
6708.00,0.59
6707.00,0.59
6706.00,0.59
6705.00,0.59
6704.00,0.59
6703.00,0.59
6702.00,0.59
6701.00,0.59
6700.00,0.59
6699.00,0.59
6698.00,0.59
6697.00,0.59
6696.00,0.59
6695.00,0.59
6694.00,0.59
6693.00,0.59
6692.00,0.59
6691.00,0.59
6690.00,0.59
6689.00,0.60
6688.00,0.60
6687.00,0.60
6686.00,0.60
6685.00,0.60
6684.00,0.60
6683.00,0.60
6682.00,0.60
6681.00,0.60
6680.00,0.60
6679.00,0.60
6678.00,0.60
6677.00,0.60
6676.00,0.60
6675.00,0.60
6674.00,0.60
6673.00,0.60
6672.00,0.60
6671.00,0.60
6670.00,0.60
6669.00,0.61
6668.00,0.61
6667.00,0.61
6666.00,0.61
6665.00,0.61
6664.00,0.61
6663.00,0.61
6662.00,0.61
6661.00,0.61
6660.00,0.61
6659.00,0.61
6658.00,0.61
6657.00,0.61
6656.00,0.61
6655.00,0.61
6654.00,0.61
6653.00,0.61
6652.00,0.62
6651.00,0.62
6650.00,0.62
6649.00,0.62
6648.00,0.62
6647.00,0.62
6646.00,0.62
6645.00,0.62
6644.00,0.62
6643.00,0.62
6642.00,0.63
6641.00,0.63
6640.00,0.63
6639.00,0.63
6638.00,0.63
6637.00,0.63
6636.00,0.63
6635.00,0.63
6634.00,0.63
6633.00,0.63
6632.00,0.63
6631.00,0.63
6630.00,0.63
6629.00,0.63
6628.00,0.63
6627.00,0.63
6626.00,0.63
6625.00,0.63
6624.00,0.63
6623.00,0.63
6622.00,0.64
6621.00,0.64
6620.00,0.64
6619.00,0.64
6618.00,0.64
6617.00,0.64
6616.00,0.64
6615.00,0.64
6614.00,0.65
6613.00,0.65
6612.00,0.65
6611.00,0.65
6610.00,0.65
6609.00,0.65
6608.00,0.65
6607.00,0.65
6606.00,0.65
6605.00,0.66
6604.00,0.66
6603.00,0.66
6602.00,0.66
6601.00,0.66
6600.00,0.66
6599.00,0.66
6598.00,0.66
6597.00,0.66
6596.00,0.66
6595.00,0.66
6594.00,0.66
6593.00,0.66
6592.00,0.66
6591.00,0.66
6590.00,0.66
6589.00,0.67
6588.00,0.67
6587.00,0.67
6586.00,0.67
6585.00,0.67
6584.00,0.67
6583.00,0.67
6582.00,0.67
6581.00,0.67
6580.00,0.67
6579.00,0.68
6578.00,0.68
6577.00,0.68
6576.00,0.68
6575.00,0.68
6574.00,0.68
6573.00,0.68
6572.00,0.68
6571.00,0.68
6570.00,0.68
6569.00,0.68
6568.00,0.68
6567.00,0.68
6566.00,0.68
6565.00,0.68
6564.00,0.68
6563.00,0.69
6562.00,0.69
6561.00,0.69
6560.00,0.69
6559.00,0.69
6558.00,0.69
6557.00,0.69
6556.00,0.69
6555.00,0.69
6554.00,0.69
6553.00,0.69
6552.00,0.69
6551.00,0.70
6550.00,0.70
6549.00,0.70
6548.00,0.70
6547.00,0.70
6546.00,0.70
6545.00,0.70
6544.00,0.70
6543.00,0.70
6542.00,0.71
6541.00,0.71
6540.00,0.71
6539.00,0.71
6538.00,0.71
6537.00,0.71
6536.00,0.71
6535.00,0.71
6534.00,0.71
6533.00,0.72
6532.00,0.72
6531.00,0.72
6530.00,0.72
6529.00,0.72
6528.00,0.72
6527.00,0.72
6526.00,0.72
6525.00,0.72
6524.00,0.72
6523.00,0.72
6522.00,0.72
6521.00,0.72
6520.00,0.72
6519.00,0.72
6518.00,0.72
6517.00,0.72
6516.00,0.72
6515.00,0.73
6514.00,0.73
6513.00,0.73
6512.00,0.73
6511.00,0.73
6510.00,0.73
6509.00,0.73
6508.00,0.73
6507.00,0.73
6506.00,0.73
6505.00,0.73
6504.00,0.73
6503.00,0.74
6502.00,0.74
6501.00,0.74
6500.00,0.74
6499.00,0.74
6498.00,0.74
6497.00,0.74
6496.00,0.75
6495.00,0.75
6494.00,0.75
6493.00,0.75
6492.00,0.75
6491.00,0.75
6490.00,0.76
6489.00,0.76
6488.00,0.76
6487.00,0.76
6486.00,0.76
6485.00,0.76
6484.00,0.76
6483.00,0.76
6482.00,0.76
6481.00,0.77
6480.00,0.77
6479.00,0.77
6478.00,0.77
6477.00,0.77
6476.00,0.77
6475.00,0.77
6474.00,0.77
6473.00,0.77
6472.00,0.77
6471.00,0.77
6470.00,0.77
6469.00,0.77
6468.00,0.77
6467.00,0.77
6466.00,0.77
6465.00,0.77
6464.00,0.77
6463.00,0.77
6462.00,0.78
6461.00,0.78
6460.00,0.78
6459.00,0.78
6458.00,0.78
6457.00,0.78
6456.00,0.78
6455.00,0.78
6454.00,0.79
6453.00,0.79
6452.00,0.79
6451.00,0.79
6450.00,0.79
6449.00,0.79
6448.00,0.79
6447.00,0.79
6446.00,0.79
6445.00,0.79
6444.00,0.79
6443.00,0.79
6442.00,0.79
6441.00,0.80
6440.00,0.80
6439.00,0.80
6438.00,0.80
6437.00,0.80
6436.00,0.80
6435.00,0.80
6434.00,0.80
6433.00,0.80
6432.00,0.81
6431.00,0.81
6430.00,0.81
6429.00,0.81
6428.00,0.81
6427.00,0.81
6426.00,0.81
6425.00,0.81
6424.00,0.81
6423.00,0.81
6422.00,0.82
6421.00,0.82
6420.00,0.82
6419.00,0.82
6418.00,0.82
6417.00,0.82
6416.00,0.82
6415.00,0.82
6414.00,0.82
6413.00,0.82
6412.00,0.82
6411.00,0.83
6410.00,0.83
6409.00,0.83
6408.00,0.83
6407.00,0.83
6406.00,0.83
6405.00,0.83
6404.00,0.83
6403.00,0.83
6402.00,0.83
6401.00,0.83
6400.00,0.83
6399.00,0.83
6398.00,0.83
6397.00,0.83
6396.00,0.83
6395.00,0.83
6394.00,0.83
6393.00,0.84
6392.00,0.84
6391.00,0.84
6390.00,0.84
6389.00,0.84
6388.00,0.84
6387.00,0.84
6386.00,0.85
6385.00,0.85
6384.00,0.85
6383.00,0.85
6382.00,0.85
6381.00,0.85
6380.00,0.85
6379.00,0.85
6378.00,0.86
6377.00,0.86
6376.00,0.86
6375.00,0.86
6374.00,0.86
6373.00,0.86
6372.00,0.86
6371.00,0.86
6370.00,0.86
6369.00,0.86
6368.00,0.87
6367.00,0.87
6366.00,0.87
6365.00,0.87
6364.00,0.87
6363.00,0.87
6362.00,0.87
6361.00,0.87
6360.00,0.87
6359.00,0.87
6358.00,0.87
6357.00,0.88
6356.00,0.88
6355.00,0.88
6354.00,0.88
6353.00,0.88
6352.00,0.88
6351.00,0.88
6350.00,0.88
6349.00,0.88
6348.00,0.88
6347.00,0.88
6346.00,0.88
6345.00,0.89
6344.00,0.89
6343.00,0.89
6342.00,0.89
6341.00,0.89
6340.00,0.89
6339.00,0.89
6338.00,0.89
6337.00,0.89
6336.00,0.89
6335.00,0.89
6334.00,0.89
6333.00,0.90
6332.00,0.90
6331.00,0.90
6330.00,0.90
6329.00,0.90
6328.00,0.90
6327.00,0.90
6326.00,0.90
6325.00,0.90
6324.00,0.90
6323.00,0.91
6322.00,0.91
6321.00,0.91
6320.00,0.91
6319.00,0.91
6318.00,0.91
6317.00,0.91
6316.00,0.91
6315.00,0.92
6314.00,0.92
6313.00,0.92
6312.00,0.92
6311.00,0.92
6310.00,0.92
6309.00,0.92
6308.00,0.92
6307.00,0.92
6306.00,0.92
6305.00,0.92
6304.00,0.92
6303.00,0.93
6302.00,0.93
6301.00,0.93
6300.00,0.93
6299.00,0.93
6298.00,0.93
6297.00,0.93
6296.00,0.93
6295.00,0.94
6294.00,0.94
6293.00,0.94
6292.00,0.94
6291.00,0.94
6290.00,0.94
6289.00,0.95
6288.00,0.95
6287.00,0.95
6286.00,0.95
6285.00,0.95
6284.00,0.95
6283.00,0.95
6282.00,0.96
6281.00,0.96
6280.00,0.96
6279.00,0.96
6278.00,0.96
6277.00,0.96
6276.00,0.96
6275.00,0.96
6274.00,0.97
6273.00,0.97
6272.00,0.97
6271.00,0.97
6270.00,0.97
6269.00,0.97
6268.00,0.97
6267.00,0.97
6266.00,0.97
6265.00,0.97
6264.00,0.97
6263.00,0.98
6262.00,0.98
6261.00,0.98
6260.00,0.98
6259.00,0.98
6258.00,0.98
6257.00,0.98
6256.00,0.99
6255.00,0.99
6254.00,0.99
6253.00,0.99
6252.00,0.99
6251.00,0.99
6250.00,0.99
6249.00,1.00
6248.00,1.00
6247.00,1.00
6246.00,1.00
6245.00,1.00
6244.00,1.00
6243.00,1.00
6242.00,1.00
6241.00,1.01
6240.00,1.01
6239.00,1.01
6238.00,1.01
6237.00,1.01
6236.00,1.01
6235.00,1.01
6234.00,1.01
6233.00,1.01
6232.00,1.01
6231.00,1.02
6230.00,1.02
6229.00,1.02
6228.00,1.02
6227.00,1.02
6226.00,1.02
6225.00,1.02
6224.00,1.02
6223.00,1.03
6222.00,1.03
6221.00,1.03
6220.00,1.03
6219.00,1.03
6218.00,1.03
6217.00,1.04
6216.00,1.04
6215.00,1.04
6214.00,1.04
6213.00,1.04
6212.00,1.04
6211.00,1.04
6210.00,1.05
6209.00,1.05
6208.00,1.05
6207.00,1.05
6206.00,1.05
6205.00,1.05
6204.00,1.05
6203.00,1.05
6202.00,1.06
6201.00,1.06
6200.00,1.06
6199.00,1.06
6198.00,1.06
6197.00,1.06
6196.00,1.06
6195.00,1.06
6194.00,1.06
6193.00,1.06
6192.00,1.07
6191.00,1.07
6190.00,1.07
6189.00,1.07
6188.00,1.07
6187.00,1.07
6186.00,1.07
6185.00,1.07
6184.00,1.07
6183.00,1.07
6182.00,1.07
6181.00,1.07
6180.00,1.08
6179.00,1.08
6178.00,1.08
6177.00,1.08
6176.00,1.08
6175.00,1.08
6174.00,1.08
6173.00,1.08
6172.00,1.08
6171.00,1.08
6170.00,1.08
6169.00,1.08
6168.00,1.09
6167.00,1.09
6166.00,1.09
6165.00,1.09
6164.00,1.09
6163.00,1.09
6162.00,1.10
6161.00,1.10
6160.00,1.10
6159.00,1.10
6158.00,1.10
6157.00,1.11
6156.00,1.11
6155.00,1.11
6154.00,1.11
6153.00,1.11
6152.00,1.11
6151.00,1.11
6150.00,1.11
6149.00,1.11
6148.00,1.11
6147.00,1.12
6146.00,1.12
6145.00,1.12
6144.00,1.12
6143.00,1.12
6142.00,1.12
6141.00,1.12
6140.00,1.12
6139.00,1.13
6138.00,1.13
6137.00,1.13
6136.00,1.13
6135.00,1.13
6134.00,1.13
6133.00,1.14
6132.00,1.14
6131.00,1.14
6130.00,1.14
6129.00,1.14
6128.00,1.14
6127.00,1.14
6126.00,1.14
6125.00,1.15
6124.00,1.15
6123.00,1.15
6122.00,1.15
6121.00,1.15
6120.00,1.15
6119.00,1.15
6118.00,1.15
6117.00,1.15
6116.00,1.16
6115.00,1.16
6114.00,1.16
6113.00,1.16
6112.00,1.16
6111.00,1.16
6110.00,1.16
6109.00,1.16
6108.00,1.16
6107.00,1.16
6106.00,1.16
6105.00,1.16
6104.00,1.17
6103.00,1.17
6102.00,1.17
6101.00,1.17
6100.00,1.17
6099.00,1.17
6098.00,1.17
6097.00,1.17
6096.00,1.17
6095.00,1.17
6094.00,1.18
6093.00,1.18
6092.00,1.18
6091.00,1.18
6090.00,1.18
6089.00,1.18
6088.00,1.18
6087.00,1.18
6086.00,1.19
6085.00,1.19
6084.00,1.19
6083.00,1.19
6082.00,1.19
6081.00,1.19
6080.00,1.19
6079.00,1.20
6078.00,1.20
6077.00,1.20
6076.00,1.20
6075.00,1.20
6074.00,1.20
6073.00,1.20
6072.00,1.20
6071.00,1.21
6070.00,1.21
6069.00,1.21
6068.00,1.21
6067.00,1.21
6066.00,1.21
6065.00,1.21
6064.00,1.21
6063.00,1.21
6062.00,1.22
6061.00,1.22
6060.00,1.22
6059.00,1.22
6058.00,1.22
6057.00,1.22
6056.00,1.22
6055.00,1.22
6054.00,1.22
6053.00,1.22
6052.00,1.22
6051.00,1.22
6050.00,1.22
6049.00,1.23
6048.00,1.23
6047.00,1.23
6046.00,1.23
6045.00,1.23
6044.00,1.23
6043.00,1.23
6042.00,1.23
6041.00,1.23
6040.00,1.23
6039.00,1.23
6038.00,1.23
6037.00,1.23
6036.00,1.23
6035.00,1.23
6034.00,1.23
6033.00,1.23
6032.00,1.23
6031.00,1.23
6030.00,1.24
6029.00,1.24
6028.00,1.24
6027.00,1.24
6026.00,1.24
6025.00,1.24
6024.00,1.24
6023.00,1.24
6022.00,1.24
6021.00,1.24
6020.00,1.24
6019.00,1.24
6018.00,1.24
6017.00,1.24
6016.00,1.24
6015.00,1.24
6014.00,1.24
6013.00,1.24
6012.00,1.24
6011.00,1.24
6010.00,1.24
6009.00,1.24
6008.00,1.24
6007.00,1.24
6006.00,1.24
6005.00,1.24
6004.00,1.24
6003.00,1.24
6002.00,1.24
6001.00,1.24
6000.00,1.24
5999.00,1.24
5998.00,1.24
5997.00,1.24
5996.00,1.24
5995.00,1.24
5994.00,1.24
5993.00,1.24
5992.00,1.24
5991.00,1.24
5990.00,1.24
5989.00,1.24
5988.00,1.23
5987.00,1.23
5986.00,1.23
5985.00,1.23
5984.00,1.23
5983.00,1.23
5982.00,1.23
5981.00,1.22
5980.00,1.22
5979.00,1.22
5978.00,1.22
5977.00,1.22
5976.00,1.21
5975.00,1.21
5974.00,1.21
5973.00,1.21
5972.00,1.20
5971.00,1.20
5970.00,1.20
5969.00,1.19
5968.00,1.19
5967.00,1.19
5966.00,1.18
5965.00,1.18
5964.00,1.18
5963.00,1.17
5962.00,1.17
5961.00,1.17
5960.00,1.16
5959.00,1.16
5958.00,1.16
5957.00,1.15
5956.00,1.15
5955.00,1.15
5954.00,1.14
5953.00,1.14
5952.00,1.14
5951.00,1.14
5950.00,1.14
5949.00,1.13
5948.00,1.13
5947.00,1.13
5946.00,1.13
5945.00,1.13
5944.00,1.13
5943.00,1.13
5942.00,1.13
5941.00,1.13
5940.00,1.13
5939.00,1.13
5938.00,1.13
5937.00,1.12
5936.00,1.12
5935.00,1.12
5934.00,1.12
5933.00,1.12
5932.00,1.12
5931.00,1.12
5930.00,1.12
5929.00,1.12
5928.00,1.12
5927.00,1.11
5926.00,1.11
5925.00,1.11
5924.00,1.11
5923.00,1.11
5922.00,1.11
5921.00,1.11
5920.00,1.11
5919.00,1.11
5918.00,1.10
5917.00,1.10
5916.00,1.10
5915.00,1.10
5914.00,1.10
5913.00,1.10
5912.00,1.10
5911.00,1.10
5910.00,1.10
5909.00,1.10
5908.00,1.10
5907.00,1.10
5906.00,1.10
5905.00,1.10
5904.00,1.10
5903.00,1.10
5902.00,1.10
5901.00,1.10
5900.00,1.10
5899.00,1.10
5898.00,1.10
5897.00,1.11
5896.00,1.11
5895.00,1.11
5894.00,1.11
5893.00,1.11
5892.00,1.12
5891.00,1.12
5890.00,1.12
5889.00,1.12
5888.00,1.12
5887.00,1.13
5886.00,1.13
5885.00,1.13
5884.00,1.13
5883.00,1.13
5882.00,1.13
5881.00,1.14
5880.00,1.14
5879.00,1.14
5878.00,1.14
5877.00,1.14
5876.00,1.14
5875.00,1.15
5874.00,1.15
5873.00,1.15
5872.00,1.15
5871.00,1.15
5870.00,1.15
5869.00,1.16
5868.00,1.16
5867.00,1.16
5866.00,1.16
5865.00,1.16
5864.00,1.16
5863.00,1.16
5862.00,1.16
5861.00,1.17
5860.00,1.17
5859.00,1.17
5858.00,1.17
5857.00,1.17
5856.00,1.17
5855.00,1.17
5854.00,1.17
5853.00,1.17
5852.00,1.17
5851.00,1.17
5850.00,1.18
5849.00,1.18
5848.00,1.18
5847.00,1.18
5846.00,1.18
5845.00,1.18
5844.00,1.18
5843.00,1.18
5842.00,1.18
5841.00,1.18
5840.00,1.18
5839.00,1.18
5838.00,1.18
5837.00,1.17
5836.00,1.17
5835.00,1.17
5834.00,1.17
5833.00,1.17
5832.00,1.17
5831.00,1.17
5830.00,1.17
5829.00,1.17
5828.00,1.17
5827.00,1.17
5826.00,1.17
5825.00,1.17
5824.00,1.17
5823.00,1.17
5822.00,1.17
5821.00,1.17
5820.00,1.17
5819.00,1.17
5818.00,1.17
5817.00,1.17
5816.00,1.17
5815.00,1.17
5814.00,1.17
5813.00,1.17
5812.00,1.17
5811.00,1.17
5810.00,1.17
5809.00,1.17
5808.00,1.17
5807.00,1.17
5806.00,1.17
5805.00,1.17
5804.00,1.17
5803.00,1.17
5802.00,1.16
5801.00,1.16
5800.00,1.16
5799.00,1.16
5798.00,1.16
5797.00,1.16
5796.00,1.15
5795.00,1.15
5794.00,1.15
5793.00,1.15
5792.00,1.15
5791.00,1.15
5790.00,1.14
5789.00,1.14
5788.00,1.14
5787.00,1.14
5786.00,1.14
5785.00,1.14
5784.00,1.14
5783.00,1.14
5782.00,1.14
5781.00,1.14
5780.00,1.13
5779.00,1.13
5778.00,1.13
5777.00,1.13
5776.00,1.13
5775.00,1.13
5774.00,1.13
5773.00,1.13
5772.00,1.13
5771.00,1.13
5770.00,1.13
5769.00,1.13
5768.00,1.13
5767.00,1.13
5766.00,1.13
5765.00,1.14
5764.00,1.14
5763.00,1.14
5762.00,1.14
5761.00,1.14
5760.00,1.14
5759.00,1.14
5758.00,1.15
5757.00,1.15
5756.00,1.15
5755.00,1.15
5754.00,1.15
5753.00,1.15
5752.00,1.16
5751.00,1.16
5750.00,1.16
5749.00,1.16
5748.00,1.16
5747.00,1.16
5746.00,1.17
5745.00,1.17
5744.00,1.17
5743.00,1.17
5742.00,1.17
5741.00,1.17
5740.00,1.17
5739.00,1.17
5738.00,1.17
5737.00,1.17
5736.00,1.17
5735.00,1.17
5734.00,1.17
5733.00,1.17
5732.00,1.17
5731.00,1.17
5730.00,1.17
5729.00,1.17
5728.00,1.17
5727.00,1.17
5726.00,1.17
5725.00,1.17
5724.00,1.17
5723.00,1.17
5722.00,1.17
5721.00,1.17
5720.00,1.17
5719.00,1.16
5718.00,1.16
5717.00,1.16
5716.00,1.16
5715.00,1.16
5714.00,1.16
5713.00,1.16
5712.00,1.16
5711.00,1.16
5710.00,1.16
5709.00,1.16
5708.00,1.16
5707.00,1.16
5706.00,1.16
5705.00,1.16
5704.00,1.15
5703.00,1.15
5702.00,1.15
5701.00,1.15
5700.00,1.15
5699.00,1.15
5698.00,1.15
5697.00,1.15
5696.00,1.15
5695.00,1.14
5694.00,1.14
5693.00,1.14
5692.00,1.14
5691.00,1.14
5690.00,1.14
5689.00,1.14
5688.00,1.13
5687.00,1.13
5686.00,1.13
5685.00,1.13
5684.00,1.13
5683.00,1.13
5682.00,1.13
5681.00,1.13
5680.00,1.13
5679.00,1.13
5678.00,1.13
5677.00,1.13
5676.00,1.13
5675.00,1.13
5674.00,1.13
5673.00,1.13
5672.00,1.13
5671.00,1.13
5670.00,1.13
5669.00,1.13
5668.00,1.13
5667.00,1.13
5666.00,1.13
5665.00,1.13
5664.00,1.13
5663.00,1.13
5662.00,1.13
5661.00,1.13
5660.00,1.13
5659.00,1.13
5658.00,1.13
5657.00,1.13
5656.00,1.13
5655.00,1.13
5654.00,1.13
5653.00,1.13
5652.00,1.13
5651.00,1.13
5650.00,1.13
5649.00,1.13
5648.00,1.13
5647.00,1.13
5646.00,1.13
5645.00,1.13
5644.00,1.13
5643.00,1.13
5642.00,1.14
5641.00,1.14
5640.00,1.14
5639.00,1.14
5638.00,1.14
5637.00,1.14
5636.00,1.14
5635.00,1.14
5634.00,1.14
5633.00,1.14
5632.00,1.14
5631.00,1.14
5630.00,1.14
5629.00,1.14
5628.00,1.14
5627.00,1.14
5626.00,1.14
5625.00,1.14
5624.00,1.14
5623.00,1.14
5622.00,1.15
5621.00,1.15
5620.00,1.15
5619.00,1.15
5618.00,1.15
5617.00,1.15
5616.00,1.15
5615.00,1.15
5614.00,1.15
5613.00,1.15
5612.00,1.15
5611.00,1.16
5610.00,1.16
5609.00,1.16
5608.00,1.16
5607.00,1.16
5606.00,1.16
5605.00,1.16
5604.00,1.16
5603.00,1.16
5602.00,1.16
5601.00,1.16
5600.00,1.16
5599.00,1.16
5598.00,1.16
5597.00,1.16
5596.00,1.16
5595.00,1.17
5594.00,1.17
5593.00,1.17
5592.00,1.17
5591.00,1.17
5590.00,1.17
5589.00,1.17
5588.00,1.17
5587.00,1.17
5586.00,1.17
5585.00,1.17
5584.00,1.18
5583.00,1.18
5582.00,1.18
5581.00,1.18
5580.00,1.18
5579.00,1.18
5578.00,1.18
5577.00,1.18
5576.00,1.18
5575.00,1.18
5574.00,1.19
5573.00,1.19
5572.00,1.19
5571.00,1.19
5570.00,1.19
5569.00,1.19
5568.00,1.19
5567.00,1.19
5566.00,1.19
5565.00,1.19
5564.00,1.19
5563.00,1.19
5562.00,1.19
5561.00,1.20
5560.00,1.20
5559.00,1.20
5558.00,1.20
5557.00,1.20
5556.00,1.20
5555.00,1.20
5554.00,1.20
5553.00,1.20
5552.00,1.20
5551.00,1.21
5550.00,1.21
5549.00,1.21
5548.00,1.21
5547.00,1.21
5546.00,1.21
5545.00,1.21
5544.00,1.21
5543.00,1.22
5542.00,1.22
5541.00,1.22
5540.00,1.22
5539.00,1.22
5538.00,1.22
5537.00,1.22
5536.00,1.22
5535.00,1.22
5534.00,1.22
5533.00,1.22
5532.00,1.23
5531.00,1.23
5530.00,1.23
5529.00,1.23
5528.00,1.23
5527.00,1.23
5526.00,1.23
5525.00,1.23
5524.00,1.23
5523.00,1.23
5522.00,1.23
5521.00,1.23
5520.00,1.23
5519.00,1.23
5518.00,1.23
5517.00,1.23
5516.00,1.23
5515.00,1.23
5514.00,1.23
5513.00,1.23
5512.00,1.23
5511.00,1.23
5510.00,1.23
5509.00,1.23
5508.00,1.23
5507.00,1.24
5506.00,1.24
5505.00,1.24
5504.00,1.24
5503.00,1.24
5502.00,1.24
5501.00,1.24
5500.00,1.24
5499.00,1.24
5498.00,1.24
5497.00,1.24
5496.00,1.24
5495.00,1.25
5494.00,1.25
5493.00,1.25
5492.00,1.25
5491.00,1.25
5490.00,1.25
5489.00,1.25
5488.00,1.25
5487.00,1.25
5486.00,1.25
5485.00,1.25
5484.00,1.25
5483.00,1.25
5482.00,1.26
5481.00,1.26
5480.00,1.26
5479.00,1.26
5478.00,1.26
5477.00,1.26
5476.00,1.26
5475.00,1.26
5474.00,1.26
5473.00,1.26
5472.00,1.26
5471.00,1.26
5470.00,1.26
5469.00,1.26
5468.00,1.26
5467.00,1.26
5466.00,1.26
5465.00,1.26
5464.00,1.26
5463.00,1.26
5462.00,1.26
5461.00,1.26
5460.00,1.26
5459.00,1.26
5458.00,1.26
5457.00,1.26
5456.00,1.26
5455.00,1.26
5454.00,1.26
5453.00,1.26
5452.00,1.26
5451.00,1.26
5450.00,1.26
5449.00,1.26
5448.00,1.26
5447.00,1.26
5446.00,1.26
5445.00,1.26
5444.00,1.26
5443.00,1.26
5442.00,1.26
5441.00,1.26
5440.00,1.26
5439.00,1.26
5438.00,1.26
5437.00,1.26
5436.00,1.26
5435.00,1.26
5434.00,1.26
5433.00,1.26
5432.00,1.26
5431.00,1.26
5430.00,1.26
5429.00,1.26
5428.00,1.26
5427.00,1.26
5426.00,1.26
5425.00,1.26
5424.00,1.26
5423.00,1.26
5422.00,1.26
5421.00,1.26
5420.00,1.26
5419.00,1.25
5418.00,1.25
5417.00,1.25
5416.00,1.25
5415.00,1.25
5414.00,1.25
5413.00,1.25
5412.00,1.24
5411.00,1.24
5410.00,1.24
5409.00,1.24
5408.00,1.24
5407.00,1.24
5406.00,1.23
5405.00,1.23
5404.00,1.23
5403.00,1.23
5402.00,1.23
5401.00,1.23
5400.00,1.22
5399.00,1.22
5398.00,1.22
5397.00,1.22
5396.00,1.22
5395.00,1.21
5394.00,1.21
5393.00,1.21
5392.00,1.21
5391.00,1.20
5390.00,1.20
5389.00,1.20
5388.00,1.19
5387.00,1.19
5386.00,1.19
5385.00,1.18
5384.00,1.18
5383.00,1.17
5382.00,1.17
5381.00,1.17
5380.00,1.16
5379.00,1.16
5378.00,1.15
5377.00,1.15
5376.00,1.14
5375.00,1.14
5374.00,1.13
5373.00,1.13
5372.00,1.12
5371.00,1.12
5370.00,1.11
5369.00,1.11
5368.00,1.10
5367.00,1.10
5366.00,1.09
5365.00,1.09
5364.00,1.08
5363.00,1.08
5362.00,1.07
5361.00,1.06
5360.00,1.06
5359.00,1.05
5358.00,1.04
5357.00,1.04
5356.00,1.03
5355.00,1.02
5354.00,1.02
5353.00,1.01
5352.00,1.00
5351.00,0.99
5350.00,0.99
5349.00,0.98
5348.00,0.97
5347.00,0.97
5346.00,0.96
5345.00,0.95
5344.00,0.95
5343.00,0.94
5342.00,0.93
5341.00,0.93
5340.00,0.92
5339.00,0.91
5338.00,0.91
5337.00,0.90
5336.00,0.89
5335.00,0.89
5334.00,0.88
5333.00,0.88
5332.00,0.87
5331.00,0.86
5330.00,0.86
5329.00,0.85
5328.00,0.85
5327.00,0.84
5326.00,0.84
5325.00,0.83
5324.00,0.83
5323.00,0.82
5322.00,0.82
5321.00,0.81
5320.00,0.81
5319.00,0.80
5318.00,0.80
5317.00,0.80
5316.00,0.79
5315.00,0.79
5314.00,0.79
5313.00,0.78
5312.00,0.78
5311.00,0.78
5310.00,0.77
5309.00,0.77
5308.00,0.77
5307.00,0.77
5306.00,0.76
5305.00,0.76
5304.00,0.76
5303.00,0.76
5302.00,0.76
5301.00,0.75
5300.00,0.75
5299.00,0.75
5298.00,0.75
5297.00,0.75
5296.00,0.75
5295.00,0.75
5294.00,0.75
5293.00,0.75
5292.00,0.75
5291.00,0.75
5290.00,0.75
5289.00,0.75
5288.00,0.75
5287.00,0.75
5286.00,0.75
5285.00,0.75
5284.00,0.75
5283.00,0.75
5282.00,0.75
5281.00,0.75
5280.00,0.75
5279.00,0.75
5278.00,0.75
5277.00,0.75
5276.00,0.75
5275.00,0.75
5274.00,0.74
5273.00,0.74
5272.00,0.74
5271.00,0.74
5270.00,0.74
5269.00,0.74
5268.00,0.74
5267.00,0.74
5266.00,0.74
5265.00,0.74
5264.00,0.74
5263.00,0.74
5262.00,0.74
5261.00,0.74
5260.00,0.74
5259.00,0.74
5258.00,0.74
5257.00,0.74
5256.00,0.74
5255.00,0.74
5254.00,0.74
5253.00,0.74
5252.00,0.74
5251.00,0.74
5250.00,0.74
5249.00,0.74
5248.00,0.74
5247.00,0.74
5246.00,0.74
5245.00,0.74
5244.00,0.74
5243.00,0.74
5242.00,0.75
5241.00,0.75
5240.00,0.75
5239.00,0.75
5238.00,0.75
5237.00,0.75
5236.00,0.75
5235.00,0.75
5234.00,0.75
5233.00,0.75
5232.00,0.75
5231.00,0.75
5230.00,0.75
5229.00,0.75
5228.00,0.75
5227.00,0.75
5226.00,0.75
5225.00,0.75
5224.00,0.75
5223.00,0.75
5222.00,0.75
5221.00,0.75
5220.00,0.75
5219.00,0.75
5218.00,0.75
5217.00,0.75
5216.00,0.75
5215.00,0.75
5214.00,0.75
5213.00,0.75
5212.00,0.75
5211.00,0.75
5210.00,0.75
5209.00,0.75
5208.00,0.75
5207.00,0.75
5206.00,0.75
5205.00,0.75
5204.00,0.75
5203.00,0.76
5202.00,0.76
5201.00,0.76
5200.00,0.76
5199.00,0.76
5198.00,0.76
5197.00,0.76
5196.00,0.76
5195.00,0.76
5194.00,0.76
5193.00,0.76
5192.00,0.76
5191.00,0.76
5190.00,0.76
5189.00,0.76
5188.00,0.76
5187.00,0.76
5186.00,0.76
5185.00,0.76
5184.00,0.76
5183.00,0.76
5182.00,0.76
5181.00,0.77
5180.00,0.77
5179.00,0.77
5178.00,0.77
5177.00,0.77
5176.00,0.77
5175.00,0.77
5174.00,0.77
5173.00,0.77
5172.00,0.77
5171.00,0.77
5170.00,0.77
5169.00,0.77
5168.00,0.77
5167.00,0.77
5166.00,0.77
5165.00,0.77
5164.00,0.77
5163.00,0.77
5162.00,0.77
5161.00,0.77
5160.00,0.77
5159.00,0.77
5158.00,0.77
5157.00,0.77
5156.00,0.77
5155.00,0.77
5154.00,0.77
5153.00,0.77
5152.00,0.77
5151.00,0.77
5150.00,0.77
5149.00,0.77
5148.00,0.77
5147.00,0.77
5146.00,0.78
5145.00,0.78
5144.00,0.78
5143.00,0.78
5142.00,0.78
5141.00,0.78
5140.00,0.78
5139.00,0.78
5138.00,0.78
5137.00,0.78
5136.00,0.78
5135.00,0.78
5134.00,0.78
5133.00,0.78
5132.00,0.78
5131.00,0.78
5130.00,0.78
5129.00,0.79
5128.00,0.79
5127.00,0.79
5126.00,0.79
5125.00,0.79
5124.00,0.79
5123.00,0.79
5122.00,0.79
5121.00,0.79
5120.00,0.79
5119.00,0.79
5118.00,0.79
5117.00,0.79
5116.00,0.79
5115.00,0.79
5114.00,0.79
5113.00,0.79
5112.00,0.79
5111.00,0.79
5110.00,0.79
5109.00,0.79
5108.00,0.79
5107.00,0.79
5106.00,0.79
5105.00,0.79
5104.00,0.79
5103.00,0.79
5102.00,0.79
5101.00,0.80
5100.00,0.80
5099.00,0.80
5098.00,0.80
5097.00,0.80
5096.00,0.80
5095.00,0.80
5094.00,0.80
5093.00,0.80
5092.00,0.80
5091.00,0.80
5090.00,0.80
5089.00,0.80
5088.00,0.80
5087.00,0.80
5086.00,0.80
5085.00,0.80
5084.00,0.80
5083.00,0.80
5082.00,0.80
5081.00,0.80
5080.00,0.80
5079.00,0.80
5078.00,0.80
5077.00,0.80
5076.00,0.80
5075.00,0.80
5074.00,0.80
5073.00,0.80
5072.00,0.80
5071.00,0.80
5070.00,0.80
5069.00,0.80
5068.00,0.80
5067.00,0.80
5066.00,0.80
5065.00,0.80
5064.00,0.81
5063.00,0.81
5062.00,0.81
5061.00,0.81
5060.00,0.81
5059.00,0.81
5058.00,0.81
5057.00,0.81
5056.00,0.81
5055.00,0.81
5054.00,0.81
5053.00,0.81
5052.00,0.81
5051.00,0.81
5050.00,0.81
5049.00,0.81
5048.00,0.81
5047.00,0.82
5046.00,0.82
5045.00,0.82
5044.00,0.82
5043.00,0.82
5042.00,0.82
5041.00,0.82
5040.00,0.82
5039.00,0.82
5038.00,0.82
5037.00,0.82
5036.00,0.82
5035.00,0.82
5034.00,0.82
5033.00,0.82
5032.00,0.82
5031.00,0.82
5030.00,0.82
5029.00,0.82
5028.00,0.82
5027.00,0.82
5026.00,0.82
5025.00,0.82
5024.00,0.82
5023.00,0.83
5022.00,0.83
5021.00,0.83
5020.00,0.83
5019.00,0.83
5018.00,0.83
5017.00,0.83
5016.00,0.83
5015.00,0.83
5014.00,0.83
5013.00,0.83
5012.00,0.83
5011.00,0.83
5010.00,0.83
5009.00,0.83
5008.00,0.83
5007.00,0.83
5006.00,0.83
5005.00,0.83
5004.00,0.83
5003.00,0.83
5002.00,0.83
5001.00,0.83
5000.00,0.83
4999.00,0.83
4998.00,0.83
4997.00,0.83
4996.00,0.84
4995.00,0.84
4994.00,0.84
4993.00,0.84
4992.00,0.84
4991.00,0.84
4990.00,0.84
4989.00,0.84
4988.00,0.84
4987.00,0.84
4986.00,0.84
4985.00,0.84
4984.00,0.84
4983.00,0.84
4982.00,0.84
4981.00,0.84
4980.00,0.84
4979.00,0.84
4978.00,0.84
4977.00,0.84
4976.00,0.84
4975.00,0.84
4974.00,0.84
4973.00,0.84
4972.00,0.84
4971.00,0.84
4970.00,0.84
4969.00,0.84
4968.00,0.84
4967.00,0.85
4966.00,0.85
4965.00,0.85
4964.00,0.85
4963.00,0.85
4962.00,0.85
4961.00,0.85
4960.00,0.85
4959.00,0.85
4958.00,0.85
4957.00,0.85
4956.00,0.85
4955.00,0.85
4954.00,0.85
4953.00,0.86
4952.00,0.86
4951.00,0.86
4950.00,0.86
4949.00,0.86
4948.00,0.86
4947.00,0.86
4946.00,0.86
4945.00,0.86
4944.00,0.86
4943.00,0.86
4942.00,0.86
4941.00,0.86
4940.00,0.86
4939.00,0.86
4938.00,0.86
4937.00,0.86
4936.00,0.86
4935.00,0.86
4934.00,0.86
4933.00,0.87
4932.00,0.87
4931.00,0.87
4930.00,0.87
4929.00,0.87
4928.00,0.87
4927.00,0.87
4926.00,0.87
4925.00,0.87
4924.00,0.87
4923.00,0.87
4922.00,0.87
4921.00,0.87
4920.00,0.87
4919.00,0.87
4918.00,0.87
4917.00,0.87
4916.00,0.87
4915.00,0.87
4914.00,0.87
4913.00,0.87
4912.00,0.87
4911.00,0.87
4910.00,0.87
4909.00,0.88
4908.00,0.88
4907.00,0.88
4906.00,0.88
4905.00,0.88
4904.00,0.88
4903.00,0.88
4902.00,0.88
4901.00,0.88
4900.00,0.88
4899.00,0.88
4898.00,0.88
4897.00,0.88
4896.00,0.88
4895.00,0.88
4894.00,0.88
4893.00,0.88
4892.00,0.88
4891.00,0.88
4890.00,0.88
4889.00,0.88
4888.00,0.88
4887.00,0.88
4886.00,0.88
4885.00,0.88
4884.00,0.88
4883.00,0.88
4882.00,0.88
4881.00,0.88
4880.00,0.88
4879.00,0.89
4878.00,0.89
4877.00,0.89
4876.00,0.89
4875.00,0.89
4874.00,0.89
4873.00,0.89
4872.00,0.89
4871.00,0.89
4870.00,0.89
4869.00,0.89
4868.00,0.89
4867.00,0.89
4866.00,0.89
4865.00,0.90
4864.00,0.90
4863.00,0.90
4862.00,0.90
4861.00,0.90
4860.00,0.90
4859.00,0.90
4858.00,0.90
4857.00,0.90
4856.00,0.90
4855.00,0.90
4854.00,0.90
4853.00,0.90
4852.00,0.90
4851.00,0.90
4850.00,0.90
4849.00,0.91
4848.00,0.91
4847.00,0.91
4846.00,0.91
4845.00,0.91
4844.00,0.91
4843.00,0.91
4842.00,0.91
4841.00,0.91
4840.00,0.91
4839.00,0.91
4838.00,0.91
4837.00,0.91
4836.00,0.91
4835.00,0.92
4834.00,0.92
4833.00,0.92
4832.00,0.92
4831.00,0.92
4830.00,0.92
4829.00,0.92
4828.00,0.92
4827.00,0.92
4826.00,0.92
4825.00,0.92
4824.00,0.92
4823.00,0.92
4822.00,0.92
4821.00,0.92
4820.00,0.92
4819.00,0.92
4818.00,0.92
4817.00,0.92
4816.00,0.92
4815.00,0.92
4814.00,0.92
4813.00,0.92
4812.00,0.92
4811.00,0.93
4810.00,0.93
4809.00,0.93
4808.00,0.93
4807.00,0.93
4806.00,0.93
4805.00,0.93
4804.00,0.93
4803.00,0.94
4802.00,0.94
4801.00,0.94
4800.00,0.94
4799.00,0.94
4798.00,0.94
4797.00,0.94
4796.00,0.94
4795.00,0.94
4794.00,0.94
4793.00,0.94
4792.00,0.94
4791.00,0.94
4790.00,0.94
4789.00,0.95
4788.00,0.95
4787.00,0.95
4786.00,0.95
4785.00,0.95
4784.00,0.95
4783.00,0.95
4782.00,0.95
4781.00,0.95
4780.00,0.95
4779.00,0.95
4778.00,0.95
4777.00,0.95
4776.00,0.95
4775.00,0.95
4774.00,0.95
4773.00,0.96
4772.00,0.96
4771.00,0.96
4770.00,0.96
4769.00,0.96
4768.00,0.96
4767.00,0.96
4766.00,0.96
4765.00,0.96
4764.00,0.96
4763.00,0.96
4762.00,0.96
4761.00,0.96
4760.00,0.96
4759.00,0.96
4758.00,0.96
4757.00,0.96
4756.00,0.96
4755.00,0.96
4754.00,0.96
4753.00,0.96
4752.00,0.96
4751.00,0.97
4750.00,0.97
4749.00,0.97
4748.00,0.97
4747.00,0.97
4746.00,0.97
4745.00,0.97
4744.00,0.97
4743.00,0.97
4742.00,0.98
4741.00,0.98
4740.00,0.98
4739.00,0.98
4738.00,0.98
4737.00,0.98
4736.00,0.98
4735.00,0.99
4734.00,0.99
4733.00,0.99
4732.00,0.99
4731.00,0.99
4730.00,0.99
4729.00,0.99
4728.00,0.99
4727.00,0.99
4726.00,1.00
4725.00,1.00
4724.00,1.00
4723.00,1.00
4722.00,1.00
4721.00,1.00
4720.00,1.00
4719.00,1.00
4718.00,1.00
4717.00,1.01
4716.00,1.01
4715.00,1.01
4714.00,1.01
4713.00,1.01
4712.00,1.01
4711.00,1.01
4710.00,1.01
4709.00,1.01
4708.00,1.01
4707.00,1.01
4706.00,1.01
4705.00,1.02
4704.00,1.02
4703.00,1.02
4702.00,1.02
4701.00,1.02
4700.00,1.02
4699.00,1.02
4698.00,1.02
4697.00,1.02
4696.00,1.02
4695.00,1.02
4694.00,1.02
4693.00,1.02
4692.00,1.02
4691.00,1.02
4690.00,1.02
4689.00,1.02
4688.00,1.03
4687.00,1.03
4686.00,1.03
4685.00,1.03
4684.00,1.03
4683.00,1.03
4682.00,1.03
4681.00,1.03
4680.00,1.04
4679.00,1.04
4678.00,1.04
4677.00,1.04
4676.00,1.04
4675.00,1.04
4674.00,1.05
4673.00,1.05
4672.00,1.05
4671.00,1.05
4670.00,1.05
4669.00,1.05
4668.00,1.05
4667.00,1.05
4666.00,1.05
4665.00,1.05
4664.00,1.05
4663.00,1.05
4662.00,1.05
4661.00,1.05
4660.00,1.05
4659.00,1.05
4658.00,1.05
4657.00,1.05
4656.00,1.05
4655.00,1.05
4654.00,1.05
4653.00,1.05
4652.00,1.05
4651.00,1.05
4650.00,1.05
4649.00,1.05
4648.00,1.06
4647.00,1.06
4646.00,1.06
4645.00,1.06
4644.00,1.06
4643.00,1.06
4642.00,1.06
4641.00,1.06
4640.00,1.06
4639.00,1.06
4638.00,1.06
4637.00,1.06
4636.00,1.06
4635.00,1.06
4634.00,1.07
4633.00,1.07
4632.00,1.07
4631.00,1.07
4630.00,1.07
4629.00,1.07
4628.00,1.07
4627.00,1.07
4626.00,1.07
4625.00,1.07
4624.00,1.08
4623.00,1.08
4622.00,1.08
4621.00,1.08
4620.00,1.08
4619.00,1.08
4618.00,1.08
4617.00,1.08
4616.00,1.08
4615.00,1.09
4614.00,1.09
4613.00,1.09
4612.00,1.09
4611.00,1.09
4610.00,1.09
4609.00,1.09
4608.00,1.09
4607.00,1.09
4606.00,1.09
4605.00,1.09
4604.00,1.09
4603.00,1.09
4602.00,1.09
4601.00,1.09
4600.00,1.09
4599.00,1.09
4598.00,1.09
4597.00,1.09
4596.00,1.09
4595.00,1.09
4594.00,1.09
4593.00,1.10
4592.00,1.10
4591.00,1.10
4590.00,1.10
4589.00,1.10
4588.00,1.10
4587.00,1.10
4586.00,1.10
4585.00,1.10
4584.00,1.10
4583.00,1.10
4582.00,1.11
4581.00,1.11
4580.00,1.11
4579.00,1.11
4578.00,1.11
4577.00,1.11
4576.00,1.11
4575.00,1.11
4574.00,1.11
4573.00,1.11
4572.00,1.11
4571.00,1.11
4570.00,1.11
4569.00,1.11
4568.00,1.11
4567.00,1.11
4566.00,1.11
4565.00,1.11
4564.00,1.12
4563.00,1.12
4562.00,1.12
4561.00,1.12
4560.00,1.12
4559.00,1.12
4558.00,1.12
4557.00,1.12
4556.00,1.12
4555.00,1.12
4554.00,1.12
4553.00,1.12
4552.00,1.12
4551.00,1.12
4550.00,1.12
4549.00,1.12
4548.00,1.12
4547.00,1.13
4546.00,1.13
4545.00,1.13
4544.00,1.13
4543.00,1.13
4542.00,1.13
4541.00,1.13
4540.00,1.13
4539.00,1.13
4538.00,1.13
4537.00,1.13
4536.00,1.13
4535.00,1.13
4534.00,1.13
4533.00,1.13
4532.00,1.13
4531.00,1.13
4530.00,1.13
4529.00,1.13
4528.00,1.13
4527.00,1.13
4526.00,1.13
4525.00,1.13
4524.00,1.13
4523.00,1.13
4522.00,1.13
4521.00,1.13
4520.00,1.13
4519.00,1.13
4518.00,1.13
4517.00,1.13
4516.00,1.14
4515.00,1.14
4514.00,1.14
4513.00,1.14
4512.00,1.14
4511.00,1.14
4510.00,1.14
4509.00,1.14
4508.00,1.14
4507.00,1.14
4506.00,1.14
4505.00,1.14
4504.00,1.14
4503.00,1.14
4502.00,1.14
4501.00,1.14
4500.00,1.14
4499.00,1.14
4498.00,1.14
4497.00,1.14
4496.00,1.14
4495.00,1.14
4494.00,1.14
4493.00,1.14
4492.00,1.14
4491.00,1.14
4490.00,1.14
4489.00,1.14
4488.00,1.14
4487.00,1.14
4486.00,1.14
4485.00,1.14
4484.00,1.14
4483.00,1.14
4482.00,1.14
4481.00,1.14
4480.00,1.14
4479.00,1.14
4478.00,1.14
4477.00,1.14
4476.00,1.14
4475.00,1.14
4474.00,1.14
4473.00,1.14
4472.00,1.14
4471.00,1.14
4470.00,1.14
4469.00,1.14
4468.00,1.14
4467.00,1.14
4466.00,1.14
4465.00,1.14
4464.00,1.14
4463.00,1.13
4462.00,1.13
4461.00,1.13
4460.00,1.13
4459.00,1.13
4458.00,1.12
4457.00,1.12
4456.00,1.12
4455.00,1.12
4454.00,1.12
4453.00,1.12
4452.00,1.11
4451.00,1.11
4450.00,1.11
4449.00,1.11
4448.00,1.11
4447.00,1.11
4446.00,1.11
4445.00,1.11
4444.00,1.10
4443.00,1.10
4442.00,1.10
4441.00,1.10
4440.00,1.10
4439.00,1.09
4438.00,1.09
4437.00,1.09
4436.00,1.08
4435.00,1.08
4434.00,1.08
4433.00,1.08
4432.00,1.07
4431.00,1.07
4430.00,1.07
4429.00,1.07
4428.00,1.07
4427.00,1.07
4426.00,1.07
4425.00,1.07
4424.00,1.07
4423.00,1.07
4422.00,1.07
4421.00,1.07
4420.00,1.07
4419.00,1.07
4418.00,1.07
4417.00,1.07
4416.00,1.07
4415.00,1.07
4414.00,1.07
4413.00,1.07
4412.00,1.07
4411.00,1.07
4410.00,1.07
4409.00,1.07
4408.00,1.07
4407.00,1.07
4406.00,1.07
4405.00,1.07
4404.00,1.07
4403.00,1.07
4402.00,1.07
4401.00,1.07
4400.00,1.07
4399.00,1.07
4398.00,1.07
4397.00,1.07
4396.00,1.08
4395.00,1.08
4394.00,1.08
4393.00,1.08
4392.00,1.08
4391.00,1.08
4390.00,1.08
4389.00,1.08
4388.00,1.09
4387.00,1.09
4386.00,1.09
4385.00,1.09
4384.00,1.09
4383.00,1.09
4382.00,1.10
4381.00,1.10
4380.00,1.10
4379.00,1.10
4378.00,1.10
4377.00,1.10
4376.00,1.10
4375.00,1.10
4374.00,1.10
4373.00,1.11
4372.00,1.11
4371.00,1.10
4370.00,1.10
4369.00,1.10
4368.00,1.10
4367.00,1.10
4366.00,1.10
4365.00,1.10
4364.00,1.10
4363.00,1.10
4362.00,1.10
4361.00,1.10
4360.00,1.10
4359.00,1.10
4358.00,1.10
4357.00,1.10
4356.00,1.10
4355.00,1.10
4354.00,1.10
4353.00,1.10
4352.00,1.10
4351.00,1.10
4350.00,1.10
4349.00,1.10
4348.00,1.10
4347.00,1.10
4346.00,1.10
4345.00,1.10
4344.00,1.10
4343.00,1.10
4342.00,1.10
4341.00,1.10
4340.00,1.10
4339.00,1.10
4338.00,1.11
4337.00,1.11
4336.00,1.11
4335.00,1.11
4334.00,1.11
4333.00,1.11
4332.00,1.11
4331.00,1.11
4330.00,1.12
4329.00,1.12
4328.00,1.12
4327.00,1.12
4326.00,1.12
4325.00,1.12
4324.00,1.13
4323.00,1.13
4322.00,1.13
4321.00,1.13
4320.00,1.13
4319.00,1.13
4318.00,1.13
4317.00,1.13
4316.00,1.13
4315.00,1.13
4314.00,1.14
4313.00,1.14
4312.00,1.14
4311.00,1.14
4310.00,1.14
4309.00,1.14
4308.00,1.14
4307.00,1.14
4306.00,1.14
4305.00,1.14
4304.00,1.14
4303.00,1.14
4302.00,1.14
4301.00,1.14
4300.00,1.14
4299.00,1.14
4298.00,1.14
4297.00,1.14
4296.00,1.14
4295.00,1.14
4294.00,1.14
4293.00,1.14
4292.00,1.14
4291.00,1.14
4290.00,1.14
4289.00,1.14
4288.00,1.14
4287.00,1.14
4286.00,1.14
4285.00,1.14
4284.00,1.14
4283.00,1.14
4282.00,1.14
4281.00,1.14
4280.00,1.14
4279.00,1.15
4278.00,1.15
4277.00,1.15
4276.00,1.15
4275.00,1.15
4274.00,1.15
4273.00,1.15
4272.00,1.15
4271.00,1.15
4270.00,1.15
4269.00,1.15
4268.00,1.15
4267.00,1.15
4266.00,1.15
4265.00,1.15
4264.00,1.15
4263.00,1.15
4262.00,1.15
4261.00,1.15
4260.00,1.15
4259.00,1.15
4258.00,1.15
4257.00,1.15
4256.00,1.15
4255.00,1.15
4254.00,1.15
4253.00,1.15
4252.00,1.15
4251.00,1.15
4250.00,1.16
4249.00,1.16
4248.00,1.16
4247.00,1.16
4246.00,1.16
4245.00,1.16
4244.00,1.16
4243.00,1.16
4242.00,1.16
4241.00,1.16
4240.00,1.16
4239.00,1.16
4238.00,1.16
4237.00,1.16
4236.00,1.16
4235.00,1.16
4234.00,1.16
4233.00,1.16
4232.00,1.16
4231.00,1.16
4230.00,1.16
4229.00,1.16
4228.00,1.16
4227.00,1.16
4226.00,1.16
4225.00,1.16
4224.00,1.16
4223.00,1.16
4222.00,1.16
4221.00,1.16
4220.00,1.16
4219.00,1.16
4218.00,1.16
4217.00,1.16
4216.00,1.16
4215.00,1.17
4214.00,1.17
4213.00,1.17
4212.00,1.17
4211.00,1.17
4210.00,1.17
4209.00,1.17
4208.00,1.17
4207.00,1.17
4206.00,1.17
4205.00,1.17
4204.00,1.17
4203.00,1.17
4202.00,1.17
4201.00,1.17
4200.00,1.17
4199.00,1.17
4198.00,1.17
4197.00,1.17
4196.00,1.17
4195.00,1.17
4194.00,1.17
4193.00,1.17
4192.00,1.17
4191.00,1.17
4190.00,1.17
4189.00,1.17
4188.00,1.17
4187.00,1.17
4186.00,1.17
4185.00,1.17
4184.00,1.17
4183.00,1.18
4182.00,1.18
4181.00,1.18
4180.00,1.18
4179.00,1.18
4178.00,1.18
4177.00,1.19
4176.00,1.19
4175.00,1.19
4174.00,1.19
4173.00,1.19
4172.00,1.19
4171.00,1.19
4170.00,1.19
4169.00,1.19
4168.00,1.19
4167.00,1.19
4166.00,1.19
4165.00,1.20
4164.00,1.20
4163.00,1.20
4162.00,1.20
4161.00,1.20
4160.00,1.20
4159.00,1.20
4158.00,1.20
4157.00,1.20
4156.00,1.20
4155.00,1.20
4154.00,1.20
4153.00,1.20
4152.00,1.20
4151.00,1.20
4150.00,1.20
4149.00,1.20
4148.00,1.20
4147.00,1.20
4146.00,1.20
4145.00,1.20
4144.00,1.20
4143.00,1.20
4142.00,1.20
4141.00,1.20
4140.00,1.21
4139.00,1.21
4138.00,1.21
4137.00,1.21
4136.00,1.21
4135.00,1.20
4134.00,1.20
4133.00,1.20
4132.00,1.20
4131.00,1.20
4130.00,1.20
4129.00,1.20
4128.00,1.20
4127.00,1.20
4126.00,1.20
4125.00,1.20
4124.00,1.20
4123.00,1.20
4122.00,1.20
4121.00,1.20
4120.00,1.20
4119.00,1.20
4118.00,1.20
4117.00,1.20
4116.00,1.20
4115.00,1.20
4114.00,1.20
4113.00,1.20
4112.00,1.20
4111.00,1.20
4110.00,1.20
4109.00,1.20
4108.00,1.20
4107.00,1.20
4106.00,1.20
4105.00,1.20
4104.00,1.21
4103.00,1.21
4102.00,1.21
4101.00,1.21
4100.00,1.21
4099.00,1.21
4098.00,1.22
4097.00,1.22
4096.00,1.22
4095.00,1.22
4094.00,1.22
4093.00,1.22
4092.00,1.22
4091.00,1.22
4090.00,1.22
4089.00,1.22
4088.00,1.22
4087.00,1.22
4086.00,1.22
4085.00,1.22
4084.00,1.22
4083.00,1.22
4082.00,1.22
4081.00,1.22
4080.00,1.22
4079.00,1.22
4078.00,1.22
4077.00,1.22
4076.00,1.22
4075.00,1.22
4074.00,1.22
4073.00,1.22
4072.00,1.22
4071.00,1.22
4070.00,1.22
4069.00,1.22
4068.00,1.22
4067.00,1.22
4066.00,1.22
4065.00,1.22
4064.00,1.23
4063.00,1.23
4062.00,1.23
4061.00,1.23
4060.00,1.23
4059.00,1.23
4058.00,1.23
4057.00,1.23
4056.00,1.23
4055.00,1.23
4054.00,1.24
4053.00,1.24
4052.00,1.24
4051.00,1.24
4050.00,1.24
4049.00,1.24
4048.00,1.24
4047.00,1.24
4046.00,1.24
4045.00,1.25
4044.00,1.25
4043.00,1.25
4042.00,1.25
4041.00,1.25
4040.00,1.25
4039.00,1.25
4038.00,1.26
4037.00,1.26
4036.00,1.26
4035.00,1.26
4034.00,1.26
4033.00,1.26
4032.00,1.26
4031.00,1.26
4030.00,1.26
4029.00,1.26
4028.00,1.26
4027.00,1.26
4026.00,1.26
4025.00,1.26
4024.00,1.26
4023.00,1.26
4022.00,1.26
4021.00,1.26
4020.00,1.26
4019.00,1.26
4018.00,1.26
4017.00,1.26
4016.00,1.26
4015.00,1.26
4014.00,1.26
4013.00,1.26
4012.00,1.26
4011.00,1.26
4010.00,1.26
4009.00,1.26
4008.00,1.26
4007.00,1.26
4006.00,1.26
4005.00,1.26
4004.00,1.26
4003.00,1.26
4002.00,1.26
4001.00,1.26
4000.00,1.26
