创建为新数据集,样品 721 用户 Administrator 日期 星期五, 七月 20 2018
cm-1,%T
10000.00,1.18
9999.00,1.18
9998.00,1.18
9997.00,1.18
9996.00,1.18
9995.00,1.18
9994.00,1.18
9993.00,1.18
9992.00,1.18
9991.00,1.18
9990.00,1.18
9989.00,1.18
9988.00,1.18
9987.00,1.18
9986.00,1.18
9985.00,1.18
9984.00,1.17
9983.00,1.17
9982.00,1.17
9981.00,1.17
9980.00,1.17
9979.00,1.17
9978.00,1.16
9977.00,1.16
9976.00,1.16
9975.00,1.16
9974.00,1.16
9973.00,1.16
9972.00,1.16
9971.00,1.16
9970.00,1.16
9969.00,1.16
9968.00,1.16
9967.00,1.16
9966.00,1.16
9965.00,1.16
9964.00,1.16
9963.00,1.16
9962.00,1.16
9961.00,1.16
9960.00,1.16
9959.00,1.16
9958.00,1.16
9957.00,1.16
9956.00,1.15
9955.00,1.15
9954.00,1.15
9953.00,1.15
9952.00,1.15
9951.00,1.15
9950.00,1.15
9949.00,1.15
9948.00,1.15
9947.00,1.15
9946.00,1.15
9945.00,1.16
9944.00,1.16
9943.00,1.16
9942.00,1.16
9941.00,1.16
9940.00,1.17
9939.00,1.17
9938.00,1.17
9937.00,1.17
9936.00,1.17
9935.00,1.18
9934.00,1.18
9933.00,1.18
9932.00,1.18
9931.00,1.18
9930.00,1.18
9929.00,1.17
9928.00,1.17
9927.00,1.17
9926.00,1.17
9925.00,1.17
9924.00,1.16
9923.00,1.16
9922.00,1.16
9921.00,1.16
9920.00,1.16
9919.00,1.15
9918.00,1.15
9917.00,1.15
9916.00,1.15
9915.00,1.15
9914.00,1.16
9913.00,1.16
9912.00,1.16
9911.00,1.16
9910.00,1.16
9909.00,1.16
9908.00,1.16
9907.00,1.17
9906.00,1.17
9905.00,1.17
9904.00,1.17
9903.00,1.17
9902.00,1.17
9901.00,1.17
9900.00,1.17
9899.00,1.17
9898.00,1.17
9897.00,1.17
9896.00,1.17
9895.00,1.17
9894.00,1.17
9893.00,1.17
9892.00,1.17
9891.00,1.17
9890.00,1.17
9889.00,1.16
9888.00,1.16
9887.00,1.16
9886.00,1.16
9885.00,1.16
9884.00,1.16
9883.00,1.16
9882.00,1.16
9881.00,1.16
9880.00,1.16
9879.00,1.16
9878.00,1.16
9877.00,1.16
9876.00,1.17
9875.00,1.17
9874.00,1.17
9873.00,1.17
9872.00,1.17
9871.00,1.17
9870.00,1.17
9869.00,1.17
9868.00,1.17
9867.00,1.17
9866.00,1.17
9865.00,1.17
9864.00,1.17
9863.00,1.17
9862.00,1.16
9861.00,1.16
9860.00,1.16
9859.00,1.16
9858.00,1.16
9857.00,1.16
9856.00,1.16
9855.00,1.16
9854.00,1.16
9853.00,1.15
9852.00,1.15
9851.00,1.15
9850.00,1.15
9849.00,1.15
9848.00,1.15
9847.00,1.15
9846.00,1.15
9845.00,1.15
9844.00,1.15
9843.00,1.15
9842.00,1.15
9841.00,1.15
9840.00,1.15
9839.00,1.15
9838.00,1.15
9837.00,1.15
9836.00,1.15
9835.00,1.15
9834.00,1.15
9833.00,1.15
9832.00,1.15
9831.00,1.16
9830.00,1.16
9829.00,1.16
9828.00,1.16
9827.00,1.16
9826.00,1.16
9825.00,1.16
9824.00,1.16
9823.00,1.16
9822.00,1.16
9821.00,1.16
9820.00,1.16
9819.00,1.16
9818.00,1.16
9817.00,1.16
9816.00,1.16
9815.00,1.16
9814.00,1.16
9813.00,1.16
9812.00,1.16
9811.00,1.16
9810.00,1.15
9809.00,1.15
9808.00,1.16
9807.00,1.16
9806.00,1.16
9805.00,1.16
9804.00,1.16
9803.00,1.16
9802.00,1.16
9801.00,1.16
9800.00,1.16
9799.00,1.16
9798.00,1.16
9797.00,1.16
9796.00,1.16
9795.00,1.16
9794.00,1.16
9793.00,1.16
9792.00,1.16
9791.00,1.16
9790.00,1.16
9789.00,1.16
9788.00,1.16
9787.00,1.16
9786.00,1.16
9785.00,1.16
9784.00,1.16
9783.00,1.16
9782.00,1.17
9781.00,1.17
9780.00,1.17
9779.00,1.17
9778.00,1.17
9777.00,1.17
9776.00,1.17
9775.00,1.17
9774.00,1.17
9773.00,1.17
9772.00,1.17
9771.00,1.17
9770.00,1.17
9769.00,1.17
9768.00,1.17
9767.00,1.17
9766.00,1.17
9765.00,1.17
9764.00,1.17
9763.00,1.17
9762.00,1.17
9761.00,1.17
9760.00,1.17
9759.00,1.17
9758.00,1.17
9757.00,1.17
9756.00,1.17
9755.00,1.17
9754.00,1.16
9753.00,1.16
9752.00,1.16
9751.00,1.16
9750.00,1.15
9749.00,1.15
9748.00,1.15
9747.00,1.14
9746.00,1.14
9745.00,1.14
9744.00,1.14
9743.00,1.13
9742.00,1.13
9741.00,1.13
9740.00,1.13
9739.00,1.13
9738.00,1.13
9737.00,1.13
9736.00,1.13
9735.00,1.13
9734.00,1.14
9733.00,1.14
9732.00,1.14
9731.00,1.14
9730.00,1.14
9729.00,1.14
9728.00,1.14
9727.00,1.15
9726.00,1.15
9725.00,1.15
9724.00,1.15
9723.00,1.15
9722.00,1.15
9721.00,1.15
9720.00,1.15
9719.00,1.15
9718.00,1.15
9717.00,1.15
9716.00,1.14
9715.00,1.14
9714.00,1.14
9713.00,1.14
9712.00,1.14
9711.00,1.14
9710.00,1.14
9709.00,1.15
9708.00,1.15
9707.00,1.15
9706.00,1.15
9705.00,1.15
9704.00,1.15
9703.00,1.15
9702.00,1.16
9701.00,1.16
9700.00,1.16
9699.00,1.16
9698.00,1.16
9697.00,1.17
9696.00,1.17
9695.00,1.17
9694.00,1.17
9693.00,1.17
9692.00,1.18
9691.00,1.18
9690.00,1.18
9689.00,1.18
9688.00,1.18
9687.00,1.18
9686.00,1.18
9685.00,1.18
9684.00,1.18
9683.00,1.17
9682.00,1.17
9681.00,1.17
9680.00,1.17
9679.00,1.17
9678.00,1.16
9677.00,1.16
9676.00,1.16
9675.00,1.16
9674.00,1.16
9673.00,1.16
9672.00,1.16
9671.00,1.16
9670.00,1.16
9669.00,1.16
9668.00,1.16
9667.00,1.16
9666.00,1.17
9665.00,1.17
9664.00,1.17
9663.00,1.17
9662.00,1.17
9661.00,1.18
9660.00,1.18
9659.00,1.18
9658.00,1.18
9657.00,1.18
9656.00,1.18
9655.00,1.18
9654.00,1.18
9653.00,1.18
9652.00,1.18
9651.00,1.18
9650.00,1.17
9649.00,1.17
9648.00,1.17
9647.00,1.17
9646.00,1.17
9645.00,1.17
9644.00,1.16
9643.00,1.16
9642.00,1.16
9641.00,1.16
9640.00,1.16
9639.00,1.16
9638.00,1.16
9637.00,1.16
9636.00,1.16
9635.00,1.16
9634.00,1.16
9633.00,1.16
9632.00,1.16
9631.00,1.16
9630.00,1.16
9629.00,1.16
9628.00,1.16
9627.00,1.16
9626.00,1.16
9625.00,1.16
9624.00,1.16
9623.00,1.15
9622.00,1.15
9621.00,1.15
9620.00,1.15
9619.00,1.15
9618.00,1.15
9617.00,1.15
9616.00,1.15
9615.00,1.15
9614.00,1.15
9613.00,1.15
9612.00,1.15
9611.00,1.15
9610.00,1.15
9609.00,1.15
9608.00,1.16
9607.00,1.16
9606.00,1.16
9605.00,1.16
9604.00,1.16
9603.00,1.16
9602.00,1.16
9601.00,1.17
9600.00,1.17
9599.00,1.17
9598.00,1.17
9597.00,1.17
9596.00,1.17
9595.00,1.17
9594.00,1.17
9593.00,1.17
9592.00,1.17
9591.00,1.17
9590.00,1.17
9589.00,1.17
9588.00,1.17
9587.00,1.17
9586.00,1.17
9585.00,1.17
9584.00,1.17
9583.00,1.17
9582.00,1.17
9581.00,1.17
9580.00,1.17
9579.00,1.17
9578.00,1.17
9577.00,1.17
9576.00,1.17
9575.00,1.18
9574.00,1.18
9573.00,1.18
9572.00,1.18
9571.00,1.18
9570.00,1.18
9569.00,1.18
9568.00,1.18
9567.00,1.17
9566.00,1.17
9565.00,1.17
9564.00,1.17
9563.00,1.17
9562.00,1.17
9561.00,1.17
9560.00,1.17
9559.00,1.17
9558.00,1.17
9557.00,1.17
9556.00,1.17
9555.00,1.17
9554.00,1.18
9553.00,1.18
9552.00,1.18
9551.00,1.18
9550.00,1.18
9549.00,1.18
9548.00,1.18
9547.00,1.18
9546.00,1.18
9545.00,1.18
9544.00,1.18
9543.00,1.18
9542.00,1.18
9541.00,1.18
9540.00,1.18
9539.00,1.18
9538.00,1.18
9537.00,1.18
9536.00,1.18
9535.00,1.18
9534.00,1.18
9533.00,1.18
9532.00,1.18
9531.00,1.18
9530.00,1.18
9529.00,1.18
9528.00,1.18
9527.00,1.17
9526.00,1.17
9525.00,1.17
9524.00,1.17
9523.00,1.17
9522.00,1.17
9521.00,1.17
9520.00,1.17
9519.00,1.17
9518.00,1.17
9517.00,1.17
9516.00,1.17
9515.00,1.17
9514.00,1.16
9513.00,1.16
9512.00,1.16
9511.00,1.16
9510.00,1.16
9509.00,1.16
9508.00,1.16
9507.00,1.16
9506.00,1.16
9505.00,1.16
9504.00,1.16
9503.00,1.16
9502.00,1.16
9501.00,1.16
9500.00,1.16
9499.00,1.16
9498.00,1.16
9497.00,1.16
9496.00,1.15
9495.00,1.15
9494.00,1.15
9493.00,1.15
9492.00,1.15
9491.00,1.15
9490.00,1.15
9489.00,1.15
9488.00,1.15
9487.00,1.15
9486.00,1.15
9485.00,1.15
9484.00,1.15
9483.00,1.15
9482.00,1.15
9481.00,1.15
9480.00,1.16
9479.00,1.16
9478.00,1.16
9477.00,1.16
9476.00,1.16
9475.00,1.17
9474.00,1.17
9473.00,1.17
9472.00,1.17
9471.00,1.17
9470.00,1.17
9469.00,1.17
9468.00,1.17
9467.00,1.17
9466.00,1.17
9465.00,1.17
9464.00,1.17
9463.00,1.17
9462.00,1.17
9461.00,1.17
9460.00,1.17
9459.00,1.16
9458.00,1.16
9457.00,1.16
9456.00,1.16
9455.00,1.16
9454.00,1.16
9453.00,1.16
9452.00,1.16
9451.00,1.16
9450.00,1.16
9449.00,1.16
9448.00,1.16
9447.00,1.16
9446.00,1.16
9445.00,1.16
9444.00,1.16
9443.00,1.16
9442.00,1.16
9441.00,1.17
9440.00,1.17
9439.00,1.17
9438.00,1.17
9437.00,1.17
9436.00,1.17
9435.00,1.17
9434.00,1.17
9433.00,1.17
9432.00,1.17
9431.00,1.17
9430.00,1.17
9429.00,1.17
9428.00,1.17
9427.00,1.17
9426.00,1.16
9425.00,1.16
9424.00,1.16
9423.00,1.15
9422.00,1.15
9421.00,1.15
9420.00,1.15
9419.00,1.15
9418.00,1.15
9417.00,1.15
9416.00,1.15
9415.00,1.15
9414.00,1.15
9413.00,1.15
9412.00,1.15
9411.00,1.15
9410.00,1.16
9409.00,1.16
9408.00,1.16
9407.00,1.16
9406.00,1.16
9405.00,1.17
9404.00,1.17
9403.00,1.17
9402.00,1.17
9401.00,1.17
9400.00,1.17
9399.00,1.17
9398.00,1.17
9397.00,1.17
9396.00,1.17
9395.00,1.17
9394.00,1.17
9393.00,1.17
9392.00,1.17
9391.00,1.17
9390.00,1.17
9389.00,1.17
9388.00,1.17
9387.00,1.17
9386.00,1.17
9385.00,1.17
9384.00,1.17
9383.00,1.17
9382.00,1.17
9381.00,1.17
9380.00,1.17
9379.00,1.17
9378.00,1.17
9377.00,1.17
9376.00,1.17
9375.00,1.17
9374.00,1.17
9373.00,1.17
9372.00,1.17
9371.00,1.17
9370.00,1.17
9369.00,1.17
9368.00,1.17
9367.00,1.17
9366.00,1.17
9365.00,1.17
9364.00,1.17
9363.00,1.17
9362.00,1.17
9361.00,1.17
9360.00,1.17
9359.00,1.17
9358.00,1.17
9357.00,1.17
9356.00,1.17
9355.00,1.17
9354.00,1.16
9353.00,1.16
9352.00,1.16
9351.00,1.16
9350.00,1.16
9349.00,1.16
9348.00,1.16
9347.00,1.16
9346.00,1.16
9345.00,1.16
9344.00,1.16
9343.00,1.16
9342.00,1.16
9341.00,1.16
9340.00,1.16
9339.00,1.16
9338.00,1.16
9337.00,1.16
9336.00,1.16
9335.00,1.16
9334.00,1.16
9333.00,1.16
9332.00,1.16
9331.00,1.16
9330.00,1.16
9329.00,1.16
9328.00,1.17
9327.00,1.17
9326.00,1.17
9325.00,1.17
9324.00,1.17
9323.00,1.16
9322.00,1.16
9321.00,1.16
9320.00,1.16
9319.00,1.16
9318.00,1.16
9317.00,1.16
9316.00,1.16
9315.00,1.16
9314.00,1.16
9313.00,1.15
9312.00,1.15
9311.00,1.15
9310.00,1.15
9309.00,1.15
9308.00,1.15
9307.00,1.15
9306.00,1.15
9305.00,1.15
9304.00,1.15
9303.00,1.15
9302.00,1.16
9301.00,1.16
9300.00,1.16
9299.00,1.16
9298.00,1.16
9297.00,1.16
9296.00,1.16
9295.00,1.16
9294.00,1.16
9293.00,1.16
9292.00,1.16
9291.00,1.16
9290.00,1.16
9289.00,1.16
9288.00,1.16
9287.00,1.16
9286.00,1.16
9285.00,1.16
9284.00,1.16
9283.00,1.16
9282.00,1.16
9281.00,1.16
9280.00,1.16
9279.00,1.16
9278.00,1.16
9277.00,1.15
9276.00,1.15
9275.00,1.15
9274.00,1.15
9273.00,1.15
9272.00,1.16
9271.00,1.16
9270.00,1.16
9269.00,1.16
9268.00,1.16
9267.00,1.16
9266.00,1.16
9265.00,1.16
9264.00,1.16
9263.00,1.17
9262.00,1.17
9261.00,1.17
9260.00,1.17
9259.00,1.17
9258.00,1.17
9257.00,1.17
9256.00,1.18
9255.00,1.18
9254.00,1.18
9253.00,1.18
9252.00,1.18
9251.00,1.18
9250.00,1.18
9249.00,1.18
9248.00,1.18
9247.00,1.18
9246.00,1.18
9245.00,1.18
9244.00,1.17
9243.00,1.17
9242.00,1.17
9241.00,1.17
9240.00,1.17
9239.00,1.17
9238.00,1.17
9237.00,1.17
9236.00,1.17
9235.00,1.17
9234.00,1.16
9233.00,1.16
9232.00,1.16
9231.00,1.16
9230.00,1.16
9229.00,1.16
9228.00,1.16
9227.00,1.16
9226.00,1.16
9225.00,1.16
9224.00,1.16
9223.00,1.16
9222.00,1.16
9221.00,1.16
9220.00,1.16
9219.00,1.16
9218.00,1.16
9217.00,1.17
9216.00,1.17
9215.00,1.17
9214.00,1.17
9213.00,1.17
9212.00,1.17
9211.00,1.17
9210.00,1.17
9209.00,1.17
9208.00,1.18
9207.00,1.18
9206.00,1.18
9205.00,1.18
9204.00,1.18
9203.00,1.18
9202.00,1.18
9201.00,1.18
9200.00,1.18
9199.00,1.18
9198.00,1.18
9197.00,1.18
9196.00,1.18
9195.00,1.18
9194.00,1.18
9193.00,1.18
9192.00,1.18
9191.00,1.18
9190.00,1.18
9189.00,1.18
9188.00,1.18
9187.00,1.18
9186.00,1.18
9185.00,1.18
9184.00,1.18
9183.00,1.18
9182.00,1.18
9181.00,1.17
9180.00,1.17
9179.00,1.17
9178.00,1.17
9177.00,1.17
9176.00,1.17
9175.00,1.17
9174.00,1.17
9173.00,1.17
9172.00,1.17
9171.00,1.17
9170.00,1.17
9169.00,1.17
9168.00,1.17
9167.00,1.17
9166.00,1.17
9165.00,1.17
9164.00,1.17
9163.00,1.17
9162.00,1.17
9161.00,1.17
9160.00,1.17
9159.00,1.17
9158.00,1.17
9157.00,1.17
9156.00,1.17
9155.00,1.17
9154.00,1.17
9153.00,1.17
9152.00,1.17
9151.00,1.17
9150.00,1.17
9149.00,1.17
9148.00,1.16
9147.00,1.16
9146.00,1.16
9145.00,1.16
9144.00,1.16
9143.00,1.16
9142.00,1.16
9141.00,1.16
9140.00,1.16
9139.00,1.16
9138.00,1.16
9137.00,1.16
9136.00,1.16
9135.00,1.16
9134.00,1.16
9133.00,1.16
9132.00,1.16
9131.00,1.16
9130.00,1.16
9129.00,1.16
9128.00,1.16
9127.00,1.16
9126.00,1.16
9125.00,1.16
9124.00,1.16
9123.00,1.16
9122.00,1.16
9121.00,1.16
9120.00,1.16
9119.00,1.16
9118.00,1.16
9117.00,1.16
9116.00,1.17
9115.00,1.17
9114.00,1.17
9113.00,1.17
9112.00,1.17
9111.00,1.17
9110.00,1.17
9109.00,1.17
9108.00,1.17
9107.00,1.17
9106.00,1.17
9105.00,1.17
9104.00,1.17
9103.00,1.17
9102.00,1.17
9101.00,1.18
9100.00,1.18
9099.00,1.18
9098.00,1.18
9097.00,1.18
9096.00,1.18
9095.00,1.18
9094.00,1.18
9093.00,1.18
9092.00,1.18
9091.00,1.18
9090.00,1.18
9089.00,1.18
9088.00,1.18
9087.00,1.17
9086.00,1.17
9085.00,1.17
9084.00,1.17
9083.00,1.17
9082.00,1.17
9081.00,1.17
9080.00,1.17
9079.00,1.17
9078.00,1.17
9077.00,1.17
9076.00,1.17
9075.00,1.17
9074.00,1.17
9073.00,1.17
9072.00,1.16
9071.00,1.16
9070.00,1.16
9069.00,1.16
9068.00,1.16
9067.00,1.16
9066.00,1.16
9065.00,1.16
9064.00,1.16
9063.00,1.16
9062.00,1.16
9061.00,1.16
9060.00,1.16
9059.00,1.16
9058.00,1.16
9057.00,1.16
9056.00,1.16
9055.00,1.16
9054.00,1.16
9053.00,1.16
9052.00,1.16
9051.00,1.17
9050.00,1.17
9049.00,1.17
9048.00,1.17
9047.00,1.17
9046.00,1.17
9045.00,1.17
9044.00,1.17
9043.00,1.17
9042.00,1.18
9041.00,1.18
9040.00,1.18
9039.00,1.18
9038.00,1.18
9037.00,1.18
9036.00,1.18
9035.00,1.18
9034.00,1.18
9033.00,1.18
9032.00,1.18
9031.00,1.18
9030.00,1.18
9029.00,1.18
9028.00,1.17
9027.00,1.17
9026.00,1.17
9025.00,1.17
9024.00,1.17
9023.00,1.17
9022.00,1.17
9021.00,1.16
9020.00,1.16
9019.00,1.16
9018.00,1.16
9017.00,1.16
9016.00,1.16
9015.00,1.16
9014.00,1.16
9013.00,1.16
9012.00,1.16
9011.00,1.16
9010.00,1.16
9009.00,1.17
9008.00,1.17
9007.00,1.17
9006.00,1.17
9005.00,1.17
9004.00,1.17
9003.00,1.17
9002.00,1.17
9001.00,1.17
9000.00,1.17
8999.00,1.17
8998.00,1.17
8997.00,1.17
8996.00,1.17
8995.00,1.17
8994.00,1.17
8993.00,1.17
8992.00,1.17
8991.00,1.17
8990.00,1.17
8989.00,1.17
8988.00,1.17
8987.00,1.17
8986.00,1.17
8985.00,1.17
8984.00,1.18
8983.00,1.18
8982.00,1.18
8981.00,1.18
8980.00,1.18
8979.00,1.18
8978.00,1.18
8977.00,1.18
8976.00,1.18
8975.00,1.18
8974.00,1.18
8973.00,1.18
8972.00,1.18
8971.00,1.18
8970.00,1.18
8969.00,1.18
8968.00,1.18
8967.00,1.18
8966.00,1.18
8965.00,1.18
8964.00,1.18
8963.00,1.18
8962.00,1.18
8961.00,1.18
8960.00,1.18
8959.00,1.18
8958.00,1.17
8957.00,1.17
8956.00,1.17
8955.00,1.17
8954.00,1.17
8953.00,1.17
8952.00,1.17
8951.00,1.17
8950.00,1.17
8949.00,1.17
8948.00,1.16
8947.00,1.16
8946.00,1.16
8945.00,1.16
8944.00,1.16
8943.00,1.16
8942.00,1.16
8941.00,1.16
8940.00,1.16
8939.00,1.16
8938.00,1.17
8937.00,1.17
8936.00,1.17
8935.00,1.17
8934.00,1.17
8933.00,1.17
8932.00,1.17
8931.00,1.17
8930.00,1.17
8929.00,1.17
8928.00,1.17
8927.00,1.17
8926.00,1.17
8925.00,1.17
8924.00,1.17
8923.00,1.16
8922.00,1.16
8921.00,1.16
8920.00,1.16
8919.00,1.16
8918.00,1.16
8917.00,1.15
8916.00,1.15
8915.00,1.15
8914.00,1.15
8913.00,1.15
8912.00,1.15
8911.00,1.15
8910.00,1.15
8909.00,1.15
8908.00,1.15
8907.00,1.15
8906.00,1.15
8905.00,1.15
8904.00,1.15
8903.00,1.15
8902.00,1.15
8901.00,1.15
8900.00,1.15
8899.00,1.15
8898.00,1.15
8897.00,1.15
8896.00,1.15
8895.00,1.15
8894.00,1.15
8893.00,1.15
8892.00,1.15
8891.00,1.15
8890.00,1.15
8889.00,1.15
8888.00,1.15
8887.00,1.15
8886.00,1.15
8885.00,1.15
8884.00,1.15
8883.00,1.15
8882.00,1.15
8881.00,1.15
8880.00,1.16
8879.00,1.16
8878.00,1.16
8877.00,1.16
8876.00,1.16
8875.00,1.16
8874.00,1.17
8873.00,1.17
8872.00,1.17
8871.00,1.17
8870.00,1.17
8869.00,1.17
8868.00,1.17
8867.00,1.17
8866.00,1.17
8865.00,1.17
8864.00,1.17
8863.00,1.17
8862.00,1.17
8861.00,1.17
8860.00,1.17
8859.00,1.17
8858.00,1.17
8857.00,1.17
8856.00,1.17
8855.00,1.17
8854.00,1.17
8853.00,1.17
8852.00,1.17
8851.00,1.17
8850.00,1.17
8849.00,1.17
8848.00,1.17
8847.00,1.17
8846.00,1.17
8845.00,1.17
8844.00,1.17
8843.00,1.17
8842.00,1.17
8841.00,1.17
8840.00,1.16
8839.00,1.16
8838.00,1.16
8837.00,1.16
8836.00,1.16
8835.00,1.16
8834.00,1.16
8833.00,1.16
8832.00,1.16
8831.00,1.16
8830.00,1.16
8829.00,1.16
8828.00,1.16
8827.00,1.16
8826.00,1.16
8825.00,1.16
8824.00,1.16
8823.00,1.16
8822.00,1.15
8821.00,1.15
8820.00,1.15
8819.00,1.15
8818.00,1.15
8817.00,1.15
8816.00,1.15
8815.00,1.14
8814.00,1.14
8813.00,1.14
8812.00,1.14
8811.00,1.14
8810.00,1.14
8809.00,1.14
8808.00,1.14
8807.00,1.14
8806.00,1.13
8805.00,1.13
8804.00,1.13
8803.00,1.13
8802.00,1.13
8801.00,1.13
8800.00,1.13
8799.00,1.13
8798.00,1.13
8797.00,1.14
8796.00,1.14
8795.00,1.14
8794.00,1.14
8793.00,1.14
8792.00,1.14
8791.00,1.14
8790.00,1.14
8789.00,1.14
8788.00,1.14
8787.00,1.14
8786.00,1.14
8785.00,1.15
8784.00,1.15
8783.00,1.15
8782.00,1.15
8781.00,1.15
8780.00,1.15
8779.00,1.15
8778.00,1.14
8777.00,1.14
8776.00,1.14
8775.00,1.14
8774.00,1.14
8773.00,1.14
8772.00,1.14
8771.00,1.14
8770.00,1.14
8769.00,1.13
8768.00,1.13
8767.00,1.13
8766.00,1.13
8765.00,1.13
8764.00,1.12
8763.00,1.12
8762.00,1.12
8761.00,1.12
8760.00,1.11
8759.00,1.11
8758.00,1.11
8757.00,1.11
8756.00,1.11
8755.00,1.11
8754.00,1.11
8753.00,1.10
8752.00,1.10
8751.00,1.10
8750.00,1.10
8749.00,1.10
8748.00,1.10
8747.00,1.10
8746.00,1.10
8745.00,1.10
8744.00,1.10
8743.00,1.11
8742.00,1.11
8741.00,1.11
8740.00,1.11
8739.00,1.11
8738.00,1.11
8737.00,1.11
8736.00,1.11
8735.00,1.11
8734.00,1.11
8733.00,1.11
8732.00,1.12
8731.00,1.12
8730.00,1.12
8729.00,1.12
8728.00,1.12
8727.00,1.12
8726.00,1.12
8725.00,1.12
8724.00,1.12
8723.00,1.12
8722.00,1.12
8721.00,1.12
8720.00,1.12
8719.00,1.12
8718.00,1.12
8717.00,1.12
8716.00,1.11
8715.00,1.11
8714.00,1.11
8713.00,1.11
8712.00,1.11
8711.00,1.11
8710.00,1.11
8709.00,1.11
8708.00,1.11
8707.00,1.11
8706.00,1.11
8705.00,1.11
8704.00,1.11
8703.00,1.11
8702.00,1.11
8701.00,1.11
8700.00,1.11
8699.00,1.11
8698.00,1.11
8697.00,1.11
8696.00,1.11
8695.00,1.11
8694.00,1.11
8693.00,1.11
8692.00,1.12
8691.00,1.12
8690.00,1.12
8689.00,1.12
8688.00,1.12
8687.00,1.12
8686.00,1.12
8685.00,1.12
8684.00,1.12
8683.00,1.11
8682.00,1.11
8681.00,1.11
8680.00,1.11
8679.00,1.11
8678.00,1.11
8677.00,1.11
8676.00,1.11
8675.00,1.11
8674.00,1.11
8673.00,1.11
8672.00,1.11
8671.00,1.11
8670.00,1.11
8669.00,1.11
8668.00,1.11
8667.00,1.11
8666.00,1.11
8665.00,1.10
8664.00,1.10
8663.00,1.10
8662.00,1.10
8661.00,1.10
8660.00,1.10
8659.00,1.10
8658.00,1.10
8657.00,1.09
8656.00,1.09
8655.00,1.09
8654.00,1.09
8653.00,1.09
8652.00,1.09
8651.00,1.08
8650.00,1.08
8649.00,1.08
8648.00,1.08
8647.00,1.08
8646.00,1.08
8645.00,1.08
8644.00,1.08
8643.00,1.08
8642.00,1.08
8641.00,1.08
8640.00,1.08
8639.00,1.08
8638.00,1.08
8637.00,1.08
8636.00,1.08
8635.00,1.08
8634.00,1.08
8633.00,1.08
8632.00,1.08
8631.00,1.08
8630.00,1.08
8629.00,1.09
8628.00,1.09
8627.00,1.09
8626.00,1.09
8625.00,1.09
8624.00,1.09
8623.00,1.09
8622.00,1.09
8621.00,1.09
8620.00,1.09
8619.00,1.09
8618.00,1.09
8617.00,1.09
8616.00,1.09
8615.00,1.09
8614.00,1.09
8613.00,1.09
8612.00,1.09
8611.00,1.09
8610.00,1.09
8609.00,1.09
8608.00,1.09
8607.00,1.09
8606.00,1.09
8605.00,1.09
8604.00,1.09
8603.00,1.09
8602.00,1.09
8601.00,1.09
8600.00,1.09
8599.00,1.09
8598.00,1.09
8597.00,1.09
8596.00,1.09
8595.00,1.09
8594.00,1.09
8593.00,1.09
8592.00,1.09
8591.00,1.09
8590.00,1.09
8589.00,1.09
8588.00,1.09
8587.00,1.09
8586.00,1.09
8585.00,1.09
8584.00,1.09
8583.00,1.10
8582.00,1.10
8581.00,1.10
8580.00,1.10
8579.00,1.10
8578.00,1.10
8577.00,1.10
8576.00,1.10
8575.00,1.09
8574.00,1.09
8573.00,1.09
8572.00,1.09
8571.00,1.09
8570.00,1.09
8569.00,1.09
8568.00,1.08
8567.00,1.08
8566.00,1.08
8565.00,1.08
8564.00,1.08
8563.00,1.07
8562.00,1.07
8561.00,1.07
8560.00,1.07
8559.00,1.07
8558.00,1.07
8557.00,1.06
8556.00,1.06
8555.00,1.06
8554.00,1.06
8553.00,1.06
8552.00,1.06
8551.00,1.06
8550.00,1.06
8549.00,1.06
8548.00,1.06
8547.00,1.06
8546.00,1.06
8545.00,1.06
8544.00,1.06
8543.00,1.06
8542.00,1.06
8541.00,1.06
8540.00,1.06
8539.00,1.06
8538.00,1.06
8537.00,1.06
8536.00,1.06
8535.00,1.06
8534.00,1.06
8533.00,1.06
8532.00,1.06
8531.00,1.05
8530.00,1.05
8529.00,1.05
8528.00,1.05
8527.00,1.05
8526.00,1.05
8525.00,1.06
8524.00,1.06
8523.00,1.06
8522.00,1.06
8521.00,1.06
8520.00,1.06
8519.00,1.06
8518.00,1.05
8517.00,1.05
8516.00,1.05
8515.00,1.05
8514.00,1.05
8513.00,1.05
8512.00,1.05
8511.00,1.05
8510.00,1.05
8509.00,1.05
8508.00,1.04
8507.00,1.04
8506.00,1.04
8505.00,1.04
8504.00,1.04
8503.00,1.04
8502.00,1.04
8501.00,1.04
8500.00,1.04
8499.00,1.04
8498.00,1.04
8497.00,1.04
8496.00,1.04
8495.00,1.04
8494.00,1.04
8493.00,1.04
8492.00,1.04
8491.00,1.04
8490.00,1.04
8489.00,1.04
8488.00,1.03
8487.00,1.03
8486.00,1.03
8485.00,1.03
8484.00,1.03
8483.00,1.03
8482.00,1.03
8481.00,1.03
8480.00,1.03
8479.00,1.02
8478.00,1.02
8477.00,1.02
8476.00,1.02
8475.00,1.02
8474.00,1.02
8473.00,1.02
8472.00,1.02
8471.00,1.01
8470.00,1.01
8469.00,1.01
8468.00,1.01
8467.00,1.01
8466.00,1.01
8465.00,1.01
8464.00,1.00
8463.00,1.00
8462.00,1.00
8461.00,1.00
8460.00,1.00
8459.00,1.00
8458.00,1.00
8457.00,1.00
8456.00,1.00
8455.00,1.00
8454.00,1.00
8453.00,1.00
8452.00,1.00
8451.00,1.00
8450.00,1.00
8449.00,1.00
8448.00,1.00
8447.00,1.00
8446.00,1.00
8445.00,0.99
8444.00,0.99
8443.00,0.99
8442.00,0.99
8441.00,0.99
8440.00,0.99
8439.00,0.99
8438.00,0.99
8437.00,0.99
8436.00,0.99
8435.00,0.99
8434.00,0.99
8433.00,1.00
8432.00,1.00
8431.00,1.00
8430.00,1.00
8429.00,1.00
8428.00,1.00
8427.00,1.00
8426.00,1.00
8425.00,1.00
8424.00,1.00
8423.00,1.01
8422.00,1.01
8421.00,1.01
8420.00,1.01
8419.00,1.01
8418.00,1.01
8417.00,1.01
8416.00,1.01
8415.00,1.01
8414.00,1.01
8413.00,1.01
8412.00,1.01
8411.00,1.01
8410.00,1.01
8409.00,1.01
8408.00,1.01
8407.00,1.01
8406.00,1.01
8405.00,1.01
8404.00,1.01
8403.00,1.02
8402.00,1.02
8401.00,1.02
8400.00,1.02
8399.00,1.02
8398.00,1.02
8397.00,1.03
8396.00,1.03
8395.00,1.03
8394.00,1.03
8393.00,1.03
8392.00,1.04
8391.00,1.04
8390.00,1.04
8389.00,1.04
8388.00,1.04
8387.00,1.04
8386.00,1.04
8385.00,1.04
8384.00,1.04
8383.00,1.04
8382.00,1.04
8381.00,1.04
8380.00,1.04
8379.00,1.04
8378.00,1.04
8377.00,1.04
8376.00,1.04
8375.00,1.04
8374.00,1.04
8373.00,1.04
8372.00,1.04
8371.00,1.04
8370.00,1.04
8369.00,1.04
8368.00,1.04
8367.00,1.04
8366.00,1.04
8365.00,1.04
8364.00,1.04
8363.00,1.05
8362.00,1.05
8361.00,1.05
8360.00,1.05
8359.00,1.05
8358.00,1.05
8357.00,1.05
8356.00,1.05
8355.00,1.05
8354.00,1.05
8353.00,1.05
8352.00,1.05
8351.00,1.05
8350.00,1.05
8349.00,1.05
8348.00,1.05
8347.00,1.05
8346.00,1.05
8345.00,1.05
8344.00,1.05
8343.00,1.05
8342.00,1.05
8341.00,1.05
8340.00,1.05
8339.00,1.05
8338.00,1.05
8337.00,1.05
8336.00,1.05
8335.00,1.05
8334.00,1.05
8333.00,1.05
8332.00,1.05
8331.00,1.05
8330.00,1.05
8329.00,1.05
8328.00,1.05
8327.00,1.05
8326.00,1.05
8325.00,1.05
8324.00,1.05
8323.00,1.05
8322.00,1.05
8321.00,1.05
8320.00,1.05
8319.00,1.05
8318.00,1.06
8317.00,1.06
8316.00,1.06
8315.00,1.06
8314.00,1.06
8313.00,1.06
8312.00,1.06
8311.00,1.06
8310.00,1.05
8309.00,1.05
8308.00,1.05
8307.00,1.05
8306.00,1.05
8305.00,1.05
8304.00,1.05
8303.00,1.05
8302.00,1.05
8301.00,1.05
8300.00,1.05
8299.00,1.05
8298.00,1.05
8297.00,1.05
8296.00,1.05
8295.00,1.05
8294.00,1.05
8293.00,1.06
8292.00,1.06
8291.00,1.06
8290.00,1.06
8289.00,1.06
8288.00,1.06
8287.00,1.06
8286.00,1.06
8285.00,1.06
8284.00,1.06
8283.00,1.06
8282.00,1.06
8281.00,1.06
8280.00,1.06
8279.00,1.06
8278.00,1.06
8277.00,1.06
8276.00,1.06
8275.00,1.06
8274.00,1.06
8273.00,1.06
8272.00,1.06
8271.00,1.06
8270.00,1.06
8269.00,1.06
8268.00,1.06
8267.00,1.07
8266.00,1.07
8265.00,1.07
8264.00,1.07
8263.00,1.07
8262.00,1.07
8261.00,1.07
8260.00,1.07
8259.00,1.07
8258.00,1.07
8257.00,1.07
8256.00,1.07
8255.00,1.07
8254.00,1.07
8253.00,1.07
8252.00,1.07
8251.00,1.07
8250.00,1.07
8249.00,1.07
8248.00,1.07
8247.00,1.07
8246.00,1.07
8245.00,1.07
8244.00,1.07
8243.00,1.07
8242.00,1.07
8241.00,1.07
8240.00,1.07
8239.00,1.07
8238.00,1.07
8237.00,1.07
8236.00,1.07
8235.00,1.07
8234.00,1.07
8233.00,1.07
8232.00,1.07
8231.00,1.07
8230.00,1.07
8229.00,1.07
8228.00,1.07
8227.00,1.07
8226.00,1.07
8225.00,1.07
8224.00,1.07
8223.00,1.07
8222.00,1.07
8221.00,1.07
8220.00,1.07
8219.00,1.08
8218.00,1.08
8217.00,1.08
8216.00,1.08
8215.00,1.08
8214.00,1.08
8213.00,1.09
8212.00,1.09
8211.00,1.09
8210.00,1.09
8209.00,1.09
8208.00,1.09
8207.00,1.09
8206.00,1.09
8205.00,1.09
8204.00,1.09
8203.00,1.09
8202.00,1.09
8201.00,1.09
8200.00,1.09
8199.00,1.09
8198.00,1.09
8197.00,1.09
8196.00,1.09
8195.00,1.09
8194.00,1.09
8193.00,1.09
8192.00,1.09
8191.00,1.09
8190.00,1.09
8189.00,1.09
8188.00,1.09
8187.00,1.09
8186.00,1.09
8185.00,1.09
8184.00,1.09
8183.00,1.09
8182.00,1.09
8181.00,1.09
8180.00,1.09
8179.00,1.09
8178.00,1.09
8177.00,1.09
8176.00,1.09
8175.00,1.09
8174.00,1.09
8173.00,1.09
8172.00,1.09
8171.00,1.09
8170.00,1.09
8169.00,1.09
8168.00,1.09
8167.00,1.09
8166.00,1.09
8165.00,1.09
8164.00,1.09
8163.00,1.09
8162.00,1.09
8161.00,1.09
8160.00,1.09
8159.00,1.09
8158.00,1.09
8157.00,1.09
8156.00,1.09
8155.00,1.09
8154.00,1.09
8153.00,1.09
8152.00,1.09
8151.00,1.10
8150.00,1.10
8149.00,1.10
8148.00,1.10
8147.00,1.10
8146.00,1.10
8145.00,1.10
8144.00,1.10
8143.00,1.10
8142.00,1.10
8141.00,1.10
8140.00,1.10
8139.00,1.10
8138.00,1.10
8137.00,1.10
8136.00,1.10
8135.00,1.10
8134.00,1.10
8133.00,1.10
8132.00,1.11
8131.00,1.11
8130.00,1.11
8129.00,1.11
8128.00,1.11
8127.00,1.11
8126.00,1.11
8125.00,1.11
8124.00,1.11
8123.00,1.11
8122.00,1.11
8121.00,1.11
8120.00,1.12
8119.00,1.12
8118.00,1.12
8117.00,1.12
8116.00,1.12
8115.00,1.12
8114.00,1.12
8113.00,1.12
8112.00,1.12
8111.00,1.12
8110.00,1.12
8109.00,1.12
8108.00,1.12
8107.00,1.12
8106.00,1.12
8105.00,1.12
8104.00,1.12
8103.00,1.12
8102.00,1.12
8101.00,1.12
8100.00,1.11
8099.00,1.11
8098.00,1.11
8097.00,1.11
8096.00,1.11
8095.00,1.11
8094.00,1.11
8093.00,1.11
8092.00,1.11
8091.00,1.12
8090.00,1.12
8089.00,1.12
8088.00,1.12
8087.00,1.12
8086.00,1.12
8085.00,1.12
8084.00,1.12
8083.00,1.12
8082.00,1.12
8081.00,1.12
8080.00,1.12
8079.00,1.12
8078.00,1.13
8077.00,1.13
8076.00,1.13
8075.00,1.13
8074.00,1.13
8073.00,1.13
8072.00,1.13
8071.00,1.13
8070.00,1.13
8069.00,1.14
8068.00,1.14
8067.00,1.14
8066.00,1.14
8065.00,1.14
8064.00,1.14
8063.00,1.14
8062.00,1.14
8061.00,1.14
8060.00,1.14
8059.00,1.14
8058.00,1.14
8057.00,1.14
8056.00,1.14
8055.00,1.14
8054.00,1.14
8053.00,1.14
8052.00,1.14
8051.00,1.14
8050.00,1.14
8049.00,1.14
8048.00,1.14
8047.00,1.14
8046.00,1.14
8045.00,1.14
8044.00,1.14
8043.00,1.14
8042.00,1.14
8041.00,1.14
8040.00,1.14
8039.00,1.14
8038.00,1.14
8037.00,1.14
8036.00,1.14
8035.00,1.14
8034.00,1.14
8033.00,1.14
8032.00,1.14
8031.00,1.14
8030.00,1.14
8029.00,1.14
8028.00,1.14
8027.00,1.14
8026.00,1.14
8025.00,1.14
8024.00,1.14
8023.00,1.14
8022.00,1.14
8021.00,1.14
8020.00,1.14
8019.00,1.14
8018.00,1.13
8017.00,1.13
8016.00,1.13
8015.00,1.13
8014.00,1.13
8013.00,1.13
8012.00,1.13
8011.00,1.13
8010.00,1.13
8009.00,1.13
8008.00,1.13
8007.00,1.13
8006.00,1.13
8005.00,1.13
8004.00,1.13
8003.00,1.13
8002.00,1.13
8001.00,1.13
8000.00,1.13
7999.00,1.13
7998.00,1.13
7997.00,1.13
7996.00,1.13
7995.00,1.13
7994.00,1.13
7993.00,1.13
7992.00,1.13
7991.00,1.13
7990.00,1.13
7989.00,1.13
7988.00,1.13
7987.00,1.13
7986.00,1.13
7985.00,1.13
7984.00,1.13
7983.00,1.13
7982.00,1.13
7981.00,1.13
7980.00,1.13
7979.00,1.14
7978.00,1.14
7977.00,1.14
7976.00,1.14
7975.00,1.14
7974.00,1.14
7973.00,1.14
7972.00,1.14
7971.00,1.14
7970.00,1.15
7969.00,1.15
7968.00,1.15
7967.00,1.15
7966.00,1.15
7965.00,1.15
7964.00,1.15
7963.00,1.15
7962.00,1.15
7961.00,1.15
7960.00,1.15
7959.00,1.15
7958.00,1.15
7957.00,1.15
7956.00,1.15
7955.00,1.15
7954.00,1.15
7953.00,1.15
7952.00,1.15
7951.00,1.15
7950.00,1.15
7949.00,1.15
7948.00,1.15
7947.00,1.15
7946.00,1.15
7945.00,1.15
7944.00,1.15
7943.00,1.15
7942.00,1.15
7941.00,1.15
7940.00,1.15
7939.00,1.15
7938.00,1.15
7937.00,1.15
7936.00,1.15
7935.00,1.15
7934.00,1.15
7933.00,1.15
7932.00,1.15
7931.00,1.15
7930.00,1.15
7929.00,1.15
7928.00,1.15
7927.00,1.15
7926.00,1.15
7925.00,1.15
7924.00,1.15
7923.00,1.15
7922.00,1.15
7921.00,1.15
7920.00,1.15
7919.00,1.15
7918.00,1.15
7917.00,1.15
7916.00,1.15
7915.00,1.15
7914.00,1.15
7913.00,1.15
7912.00,1.15
7911.00,1.15
7910.00,1.15
7909.00,1.15
7908.00,1.15
7907.00,1.16
7906.00,1.16
7905.00,1.16
7904.00,1.16
7903.00,1.16
7902.00,1.16
7901.00,1.16
7900.00,1.16
7899.00,1.16
7898.00,1.16
7897.00,1.16
7896.00,1.16
7895.00,1.16
7894.00,1.16
7893.00,1.16
7892.00,1.16
7891.00,1.16
7890.00,1.16
7889.00,1.16
7888.00,1.16
7887.00,1.16
7886.00,1.16
7885.00,1.16
7884.00,1.16
7883.00,1.16
7882.00,1.16
7881.00,1.16
7880.00,1.16
7879.00,1.16
7878.00,1.16
7877.00,1.16
7876.00,1.16
7875.00,1.16
7874.00,1.16
7873.00,1.16
7872.00,1.16
7871.00,1.16
7870.00,1.16
7869.00,1.16
7868.00,1.16
7867.00,1.16
7866.00,1.16
7865.00,1.16
7864.00,1.16
7863.00,1.16
7862.00,1.16
7861.00,1.16
7860.00,1.16
7859.00,1.16
7858.00,1.16
7857.00,1.16
7856.00,1.16
7855.00,1.16
7854.00,1.16
7853.00,1.16
7852.00,1.16
7851.00,1.16
7850.00,1.16
7849.00,1.16
7848.00,1.16
7847.00,1.16
7846.00,1.16
7845.00,1.16
7844.00,1.16
7843.00,1.16
7842.00,1.16
7841.00,1.16
7840.00,1.16
7839.00,1.16
7838.00,1.16
7837.00,1.16
7836.00,1.16
7835.00,1.17
7834.00,1.17
7833.00,1.17
7832.00,1.17
7831.00,1.17
7830.00,1.17
7829.00,1.17
7828.00,1.17
7827.00,1.17
7826.00,1.17
7825.00,1.17
7824.00,1.18
7823.00,1.18
7822.00,1.18
7821.00,1.18
7820.00,1.18
7819.00,1.18
7818.00,1.18
7817.00,1.18
7816.00,1.18
7815.00,1.18
7814.00,1.18
7813.00,1.18
7812.00,1.18
7811.00,1.18
7810.00,1.18
7809.00,1.18
7808.00,1.18
7807.00,1.17
7806.00,1.17
7805.00,1.17
7804.00,1.17
7803.00,1.17
7802.00,1.17
7801.00,1.17
7800.00,1.17
7799.00,1.17
7798.00,1.17
7797.00,1.17
7796.00,1.17
7795.00,1.17
7794.00,1.17
7793.00,1.17
7792.00,1.17
7791.00,1.17
7790.00,1.17
7789.00,1.17
7788.00,1.17
7787.00,1.17
7786.00,1.17
7785.00,1.17
7784.00,1.17
7783.00,1.17
7782.00,1.17
7781.00,1.17
7780.00,1.17
7779.00,1.17
7778.00,1.17
7777.00,1.17
7776.00,1.17
7775.00,1.17
7774.00,1.17
7773.00,1.17
7772.00,1.17
7771.00,1.17
7770.00,1.17
7769.00,1.17
7768.00,1.18
7767.00,1.18
7766.00,1.18
7765.00,1.18
7764.00,1.18
7763.00,1.18
7762.00,1.18
7761.00,1.18
7760.00,1.18
7759.00,1.18
7758.00,1.18
7757.00,1.18
7756.00,1.18
7755.00,1.18
7754.00,1.18
7753.00,1.18
7752.00,1.18
7751.00,1.18
7750.00,1.18
7749.00,1.18
7748.00,1.18
7747.00,1.18
7746.00,1.18
7745.00,1.18
7744.00,1.18
7743.00,1.18
7742.00,1.18
7741.00,1.18
7740.00,1.18
7739.00,1.18
7738.00,1.17
7737.00,1.17
7736.00,1.17
7735.00,1.17
7734.00,1.17
7733.00,1.17
7732.00,1.17
7731.00,1.17
7730.00,1.17
7729.00,1.17
7728.00,1.17
7727.00,1.17
7726.00,1.17
7725.00,1.17
7724.00,1.17
7723.00,1.17
7722.00,1.17
7721.00,1.18
7720.00,1.18
7719.00,1.18
7718.00,1.18
7717.00,1.18
7716.00,1.18
7715.00,1.18
7714.00,1.18
7713.00,1.18
7712.00,1.18
7711.00,1.18
7710.00,1.18
7709.00,1.17
7708.00,1.17
7707.00,1.17
7706.00,1.17
7705.00,1.17
7704.00,1.17
7703.00,1.17
7702.00,1.17
7701.00,1.17
7700.00,1.17
7699.00,1.17
7698.00,1.18
7697.00,1.18
7696.00,1.18
7695.00,1.18
7694.00,1.18
7693.00,1.18
7692.00,1.18
7691.00,1.18
7690.00,1.18
7689.00,1.18
7688.00,1.18
7687.00,1.18
7686.00,1.18
7685.00,1.18
7684.00,1.18
7683.00,1.18
7682.00,1.18
7681.00,1.18
7680.00,1.18
7679.00,1.18
7678.00,1.18
7677.00,1.18
7676.00,1.18
7675.00,1.18
7674.00,1.18
7673.00,1.18
7672.00,1.18
7671.00,1.18
7670.00,1.17
7669.00,1.17
7668.00,1.17
7667.00,1.17
7666.00,1.17
7665.00,1.17
7664.00,1.17
7663.00,1.17
7662.00,1.18
7661.00,1.18
7660.00,1.18
7659.00,1.18
7658.00,1.18
7657.00,1.18
7656.00,1.18
7655.00,1.18
7654.00,1.18
7653.00,1.18
7652.00,1.18
7651.00,1.18
7650.00,1.18
7649.00,1.18
7648.00,1.18
7647.00,1.18
7646.00,1.18
7645.00,1.18
7644.00,1.18
7643.00,1.17
7642.00,1.17
7641.00,1.17
7640.00,1.17
7639.00,1.17
7638.00,1.18
7637.00,1.18
7636.00,1.18
7635.00,1.18
7634.00,1.18
7633.00,1.18
7632.00,1.18
7631.00,1.18
7630.00,1.18
7629.00,1.18
7628.00,1.18
7627.00,1.18
7626.00,1.18
7625.00,1.18
7624.00,1.18
7623.00,1.18
7622.00,1.18
7621.00,1.18
7620.00,1.18
7619.00,1.18
7618.00,1.18
7617.00,1.18
7616.00,1.18
7615.00,1.18
7614.00,1.18
7613.00,1.18
7612.00,1.18
7611.00,1.18
7610.00,1.18
7609.00,1.18
7608.00,1.18
7607.00,1.18
7606.00,1.18
7605.00,1.18
7604.00,1.18
7603.00,1.18
7602.00,1.18
7601.00,1.18
7600.00,1.18
7599.00,1.18
7598.00,1.18
7597.00,1.18
7596.00,1.18
7595.00,1.18
7594.00,1.18
7593.00,1.18
7592.00,1.18
7591.00,1.18
7590.00,1.17
7589.00,1.17
7588.00,1.17
7587.00,1.17
7586.00,1.17
7585.00,1.17
7584.00,1.17
7583.00,1.17
7582.00,1.17
7581.00,1.17
7580.00,1.17
7579.00,1.17
7578.00,1.17
7577.00,1.17
7576.00,1.17
7575.00,1.17
7574.00,1.17
7573.00,1.17
7572.00,1.17
7571.00,1.17
7570.00,1.17
7569.00,1.17
7568.00,1.17
7567.00,1.17
7566.00,1.18
7565.00,1.18
7564.00,1.18
7563.00,1.18
7562.00,1.18
7561.00,1.18
7560.00,1.18
7559.00,1.18
7558.00,1.18
7557.00,1.18
7556.00,1.17
7555.00,1.17
7554.00,1.17
7553.00,1.17
7552.00,1.17
7551.00,1.17
7550.00,1.17
7549.00,1.17
7548.00,1.17
7547.00,1.17
7546.00,1.17
7545.00,1.17
7544.00,1.17
7543.00,1.17
7542.00,1.17
7541.00,1.17
7540.00,1.17
7539.00,1.17
7538.00,1.17
7537.00,1.17
7536.00,1.17
7535.00,1.17
7534.00,1.17
7533.00,1.17
7532.00,1.17
7531.00,1.17
7530.00,1.17
7529.00,1.17
7528.00,1.17
7527.00,1.17
7526.00,1.17
7525.00,1.17
7524.00,1.17
7523.00,1.17
7522.00,1.17
7521.00,1.17
7520.00,1.17
7519.00,1.17
7518.00,1.17
7517.00,1.16
7516.00,1.16
7515.00,1.16
7514.00,1.16
7513.00,1.16
7512.00,1.16
7511.00,1.16
7510.00,1.16
7509.00,1.16
7508.00,1.16
7507.00,1.16
7506.00,1.16
7505.00,1.16
7504.00,1.16
7503.00,1.16
7502.00,1.16
7501.00,1.16
7500.00,1.16
7499.00,1.15
7498.00,1.15
7497.00,1.15
7496.00,1.15
7495.00,1.15
7494.00,1.15
7493.00,1.15
7492.00,1.15
7491.00,1.14
7490.00,1.14
7489.00,1.14
7488.00,1.14
7487.00,1.14
7486.00,1.14
7485.00,1.14
7484.00,1.14
7483.00,1.14
7482.00,1.14
7481.00,1.14
7480.00,1.14
7479.00,1.14
7478.00,1.14
7477.00,1.14
7476.00,1.14
7475.00,1.14
7474.00,1.14
7473.00,1.14
7472.00,1.14
7471.00,1.13
7470.00,1.13
7469.00,1.13
7468.00,1.13
7467.00,1.13
7466.00,1.13
7465.00,1.13
7464.00,1.13
7463.00,1.13
7462.00,1.13
7461.00,1.13
7460.00,1.13
7459.00,1.13
7458.00,1.13
7457.00,1.13
7456.00,1.13
7455.00,1.13
7454.00,1.13
7453.00,1.13
7452.00,1.13
7451.00,1.13
7450.00,1.13
7449.00,1.13
7448.00,1.13
7447.00,1.13
7446.00,1.13
7445.00,1.13
7444.00,1.12
7443.00,1.12
7442.00,1.12
7441.00,1.12
7440.00,1.12
7439.00,1.12
7438.00,1.12
7437.00,1.12
7436.00,1.12
7435.00,1.12
7434.00,1.12
7433.00,1.12
7432.00,1.12
7431.00,1.12
7430.00,1.12
7429.00,1.12
7428.00,1.12
7427.00,1.12
7426.00,1.12
7425.00,1.12
7424.00,1.12
7423.00,1.11
7422.00,1.11
7421.00,1.11
7420.00,1.11
7419.00,1.11
7418.00,1.11
7417.00,1.11
7416.00,1.11
7415.00,1.11
7414.00,1.11
7413.00,1.11
7412.00,1.11
7411.00,1.11
7410.00,1.11
7409.00,1.10
7408.00,1.10
7407.00,1.10
7406.00,1.10
7405.00,1.10
7404.00,1.10
7403.00,1.10
7402.00,1.10
7401.00,1.10
7400.00,1.09
7399.00,1.09
7398.00,1.09
7397.00,1.09
7396.00,1.09
7395.00,1.09
7394.00,1.09
7393.00,1.09
7392.00,1.08
7391.00,1.08
7390.00,1.08
7389.00,1.08
7388.00,1.08
7387.00,1.08
7386.00,1.08
7385.00,1.08
7384.00,1.07
7383.00,1.07
7382.00,1.07
7381.00,1.07
7380.00,1.07
7379.00,1.07
7378.00,1.07
7377.00,1.07
7376.00,1.07
7375.00,1.07
7374.00,1.07
7373.00,1.07
7372.00,1.07
7371.00,1.06
7370.00,1.06
7369.00,1.06
7368.00,1.06
7367.00,1.06
7366.00,1.06
7365.00,1.06
7364.00,1.06
7363.00,1.06
7362.00,1.06
7361.00,1.06
7360.00,1.06
7359.00,1.06
7358.00,1.06
7357.00,1.06
7356.00,1.06
7355.00,1.06
7354.00,1.06
7353.00,1.06
7352.00,1.06
7351.00,1.06
7350.00,1.06
7349.00,1.06
7348.00,1.06
7347.00,1.06
7346.00,1.06
7345.00,1.06
7344.00,1.06
7343.00,1.06
7342.00,1.06
7341.00,1.05
7340.00,1.05
7339.00,1.05
7338.00,1.05
7337.00,1.05
7336.00,1.05
7335.00,1.05
7334.00,1.05
7333.00,1.05
7332.00,1.05
7331.00,1.05
7330.00,1.05
7329.00,1.05
7328.00,1.05
7327.00,1.05
7326.00,1.05
7325.00,1.05
7324.00,1.05
7323.00,1.05
7322.00,1.05
7321.00,1.06
7320.00,1.06
7319.00,1.06
7318.00,1.06
7317.00,1.06
7316.00,1.06
7315.00,1.06
7314.00,1.06
7313.00,1.06
7312.00,1.06
7311.00,1.06
7310.00,1.06
7309.00,1.05
7308.00,1.05
7307.00,1.05
7306.00,1.05
7305.00,1.05
7304.00,1.05
7303.00,1.05
7302.00,1.05
7301.00,1.05
7300.00,1.04
7299.00,1.04
7298.00,1.04
7297.00,1.04
7296.00,1.04
7295.00,1.04
7294.00,1.03
7293.00,1.03
7292.00,1.03
7291.00,1.03
7290.00,1.03
7289.00,1.03
7288.00,1.02
7287.00,1.02
7286.00,1.02
7285.00,1.02
7284.00,1.02
7283.00,1.02
7282.00,1.01
7281.00,1.01
7280.00,1.01
7279.00,1.01
7278.00,1.01
7277.00,1.01
7276.00,1.01
7275.00,1.00
7274.00,1.00
7273.00,1.00
7272.00,1.00
7271.00,1.00
7270.00,1.00
7269.00,1.00
7268.00,1.00
7267.00,0.99
7266.00,0.99
7265.00,0.99
7264.00,0.99
7263.00,0.99
7262.00,0.99
7261.00,0.99
7260.00,0.99
7259.00,0.99
7258.00,0.99
7257.00,0.99
7256.00,0.99
7255.00,0.99
7254.00,0.98
7253.00,0.98
7252.00,0.98
7251.00,0.98
7250.00,0.98
7249.00,0.98
7248.00,0.98
7247.00,0.97
7246.00,0.97
7245.00,0.97
7244.00,0.97
7243.00,0.96
7242.00,0.96
7241.00,0.96
7240.00,0.96
7239.00,0.95
7238.00,0.95
7237.00,0.95
7236.00,0.94
7235.00,0.94
7234.00,0.93
7233.00,0.93
7232.00,0.93
7231.00,0.92
7230.00,0.92
7229.00,0.92
7228.00,0.91
7227.00,0.91
7226.00,0.91
7225.00,0.91
7224.00,0.90
7223.00,0.90
7222.00,0.90
7221.00,0.90
7220.00,0.89
7219.00,0.89
7218.00,0.89
7217.00,0.89
7216.00,0.88
7215.00,0.88
7214.00,0.88
7213.00,0.88
7212.00,0.87
7211.00,0.87
7210.00,0.87
7209.00,0.87
7208.00,0.86
7207.00,0.86
7206.00,0.86
7205.00,0.86
7204.00,0.85
7203.00,0.85
7202.00,0.85
7201.00,0.84
7200.00,0.84
7199.00,0.84
7198.00,0.84
7197.00,0.83
7196.00,0.83
7195.00,0.83
7194.00,0.82
7193.00,0.82
7192.00,0.82
7191.00,0.82
7190.00,0.81
7189.00,0.81
7188.00,0.81
7187.00,0.80
7186.00,0.80
7185.00,0.80
7184.00,0.80
7183.00,0.79
7182.00,0.79
7181.00,0.79
7180.00,0.79
7179.00,0.78
7178.00,0.78
7177.00,0.78
7176.00,0.77
7175.00,0.77
7174.00,0.77
7173.00,0.77
7172.00,0.77
7171.00,0.76
7170.00,0.76
7169.00,0.76
7168.00,0.76
7167.00,0.75
7166.00,0.75
7165.00,0.75
7164.00,0.75
7163.00,0.75
7162.00,0.74
7161.00,0.74
7160.00,0.74
7159.00,0.74
7158.00,0.73
7157.00,0.73
7156.00,0.73
7155.00,0.73
7154.00,0.73
7153.00,0.72
7152.00,0.72
7151.00,0.72
7150.00,0.72
7149.00,0.72
7148.00,0.71
7147.00,0.71
7146.00,0.71
7145.00,0.71
7144.00,0.70
7143.00,0.70
7142.00,0.70
7141.00,0.69
7140.00,0.69
7139.00,0.69
7138.00,0.69
7137.00,0.68
7136.00,0.68
7135.00,0.68
7134.00,0.68
7133.00,0.67
7132.00,0.67
7131.00,0.67
7130.00,0.67
7129.00,0.67
7128.00,0.66
7127.00,0.66
7126.00,0.66
7125.00,0.66
7124.00,0.66
7123.00,0.66
7122.00,0.65
7121.00,0.65
7120.00,0.65
7119.00,0.65
7118.00,0.65
7117.00,0.64
7116.00,0.64
7115.00,0.64
7114.00,0.64
7113.00,0.64
7112.00,0.64
7111.00,0.63
7110.00,0.63
7109.00,0.63
7108.00,0.63
7107.00,0.63
7106.00,0.63
7105.00,0.63
7104.00,0.63
7103.00,0.62
7102.00,0.62
7101.00,0.62
7100.00,0.62
7099.00,0.62
7098.00,0.62
7097.00,0.62
7096.00,0.62
7095.00,0.62
7094.00,0.62
7093.00,0.61
7092.00,0.61
7091.00,0.61
7090.00,0.61
7089.00,0.61
7088.00,0.61
7087.00,0.61
7086.00,0.61
7085.00,0.61
7084.00,0.60
7083.00,0.60
7082.00,0.60
7081.00,0.60
7080.00,0.60
7079.00,0.60
7078.00,0.59
7077.00,0.59
7076.00,0.59
7075.00,0.59
7074.00,0.59
7073.00,0.59
7072.00,0.58
7071.00,0.58
7070.00,0.58
7069.00,0.58
7068.00,0.58
7067.00,0.58
7066.00,0.57
7065.00,0.57
7064.00,0.57
7063.00,0.57
7062.00,0.57
7061.00,0.57
7060.00,0.57
7059.00,0.57
7058.00,0.57
7057.00,0.57
7056.00,0.57
7055.00,0.57
7054.00,0.57
7053.00,0.57
7052.00,0.57
7051.00,0.57
7050.00,0.57
7049.00,0.57
7048.00,0.57
7047.00,0.57
7046.00,0.57
7045.00,0.57
7044.00,0.56
7043.00,0.56
7042.00,0.56
7041.00,0.56
7040.00,0.56
7039.00,0.56
7038.00,0.56
7037.00,0.56
7036.00,0.56
7035.00,0.56
7034.00,0.56
7033.00,0.55
7032.00,0.55
7031.00,0.55
7030.00,0.55
7029.00,0.55
7028.00,0.55
7027.00,0.55
7026.00,0.55
7025.00,0.55
7024.00,0.55
7023.00,0.55
7022.00,0.55
7021.00,0.55
7020.00,0.55
7019.00,0.55
7018.00,0.55
7017.00,0.54
7016.00,0.54
7015.00,0.54
7014.00,0.54
7013.00,0.54
7012.00,0.54
7011.00,0.54
7010.00,0.54
7009.00,0.54
7008.00,0.54
7007.00,0.54
7006.00,0.54
7005.00,0.54
7004.00,0.53
7003.00,0.53
7002.00,0.53
7001.00,0.53
7000.00,0.53
6999.00,0.53
6998.00,0.53
6997.00,0.53
6996.00,0.53
6995.00,0.53
6994.00,0.53
6993.00,0.53
6992.00,0.53
6991.00,0.53
6990.00,0.53
6989.00,0.53
6988.00,0.53
6987.00,0.53
6986.00,0.53
6985.00,0.53
6984.00,0.53
6983.00,0.53
6982.00,0.53
6981.00,0.53
6980.00,0.53
6979.00,0.53
6978.00,0.53
6977.00,0.53
6976.00,0.53
6975.00,0.53
6974.00,0.53
6973.00,0.53
6972.00,0.53
6971.00,0.53
6970.00,0.53
6969.00,0.53
6968.00,0.52
6967.00,0.52
6966.00,0.52
6965.00,0.52
6964.00,0.52
6963.00,0.52
6962.00,0.52
6961.00,0.52
6960.00,0.52
6959.00,0.52
6958.00,0.52
6957.00,0.52
6956.00,0.52
6955.00,0.52
6954.00,0.52
6953.00,0.52
6952.00,0.52
6951.00,0.52
6950.00,0.52
6949.00,0.52
6948.00,0.52
6947.00,0.52
6946.00,0.52
6945.00,0.52
6944.00,0.52
6943.00,0.52
6942.00,0.52
6941.00,0.52
6940.00,0.52
6939.00,0.52
6938.00,0.52
6937.00,0.52
6936.00,0.52
6935.00,0.52
6934.00,0.52
6933.00,0.52
6932.00,0.52
6931.00,0.52
6930.00,0.52
6929.00,0.52
6928.00,0.52
6927.00,0.52
6926.00,0.52
6925.00,0.52
6924.00,0.52
6923.00,0.52
6922.00,0.52
6921.00,0.52
6920.00,0.52
6919.00,0.52
6918.00,0.51
6917.00,0.51
6916.00,0.51
6915.00,0.51
6914.00,0.51
6913.00,0.51
6912.00,0.51
6911.00,0.51
6910.00,0.51
6909.00,0.51
6908.00,0.51
6907.00,0.51
6906.00,0.51
6905.00,0.51
6904.00,0.51
6903.00,0.51
6902.00,0.51
6901.00,0.51
6900.00,0.51
6899.00,0.51
6898.00,0.51
6897.00,0.51
6896.00,0.51
6895.00,0.51
6894.00,0.51
6893.00,0.51
6892.00,0.51
6891.00,0.51
6890.00,0.51
6889.00,0.51
6888.00,0.51
6887.00,0.51
6886.00,0.51
6885.00,0.51
6884.00,0.51
6883.00,0.51
6882.00,0.51
6881.00,0.51
6880.00,0.51
6879.00,0.51
6878.00,0.51
6877.00,0.51
6876.00,0.51
6875.00,0.51
6874.00,0.51
6873.00,0.51
6872.00,0.51
6871.00,0.51
6870.00,0.51
6869.00,0.51
6868.00,0.51
6867.00,0.51
6866.00,0.51
6865.00,0.51
6864.00,0.51
6863.00,0.51
6862.00,0.51
6861.00,0.51
6860.00,0.51
6859.00,0.51
6858.00,0.51
6857.00,0.51
6856.00,0.51
6855.00,0.51
6854.00,0.51
6853.00,0.51
6852.00,0.51
6851.00,0.51
6850.00,0.51
6849.00,0.51
6848.00,0.51
6847.00,0.51
6846.00,0.51
6845.00,0.51
6844.00,0.51
6843.00,0.51
6842.00,0.51
6841.00,0.51
6840.00,0.51
6839.00,0.51
6838.00,0.51
6837.00,0.51
6836.00,0.51
6835.00,0.52
6834.00,0.52
6833.00,0.52
6832.00,0.52
6831.00,0.52
6830.00,0.52
6829.00,0.52
6828.00,0.52
6827.00,0.52
6826.00,0.52
6825.00,0.52
6824.00,0.52
6823.00,0.52
6822.00,0.52
6821.00,0.52
6820.00,0.52
6819.00,0.52
6818.00,0.52
6817.00,0.52
6816.00,0.52
6815.00,0.52
6814.00,0.52
6813.00,0.52
6812.00,0.53
6811.00,0.53
6810.00,0.53
6809.00,0.53
6808.00,0.53
6807.00,0.53
6806.00,0.53
6805.00,0.53
6804.00,0.53
6803.00,0.53
6802.00,0.53
6801.00,0.53
6800.00,0.53
6799.00,0.53
6798.00,0.53
6797.00,0.53
6796.00,0.53
6795.00,0.53
6794.00,0.53
6793.00,0.53
6792.00,0.53
6791.00,0.53
6790.00,0.53
6789.00,0.53
6788.00,0.53
6787.00,0.53
6786.00,0.53
6785.00,0.53
6784.00,0.53
6783.00,0.53
6782.00,0.53
6781.00,0.53
6780.00,0.54
6779.00,0.54
6778.00,0.54
6777.00,0.54
6776.00,0.54
6775.00,0.54
6774.00,0.54
6773.00,0.54
6772.00,0.54
6771.00,0.54
6770.00,0.54
6769.00,0.54
6768.00,0.54
6767.00,0.54
6766.00,0.54
6765.00,0.54
6764.00,0.54
6763.00,0.54
6762.00,0.54
6761.00,0.54
6760.00,0.54
6759.00,0.54
6758.00,0.54
6757.00,0.54
6756.00,0.54
6755.00,0.54
6754.00,0.54
6753.00,0.54
6752.00,0.54
6751.00,0.54
6750.00,0.54
6749.00,0.54
6748.00,0.55
6747.00,0.55
6746.00,0.55
6745.00,0.55
6744.00,0.55
6743.00,0.55
6742.00,0.55
6741.00,0.55
6740.00,0.55
6739.00,0.55
6738.00,0.55
6737.00,0.55
6736.00,0.56
6735.00,0.56
6734.00,0.56
6733.00,0.56
6732.00,0.56
6731.00,0.56
6730.00,0.56
6729.00,0.56
6728.00,0.56
6727.00,0.56
6726.00,0.56
6725.00,0.56
6724.00,0.56
6723.00,0.56
6722.00,0.56
6721.00,0.56
6720.00,0.57
6719.00,0.57
6718.00,0.57
6717.00,0.57
6716.00,0.57
6715.00,0.57
6714.00,0.57
6713.00,0.57
6712.00,0.57
6711.00,0.57
6710.00,0.57
6709.00,0.57
6708.00,0.57
6707.00,0.57
6706.00,0.57
6705.00,0.57
6704.00,0.57
6703.00,0.57
6702.00,0.57
6701.00,0.57
6700.00,0.57
6699.00,0.57
6698.00,0.57
6697.00,0.57
6696.00,0.57
6695.00,0.57
6694.00,0.57
6693.00,0.57
6692.00,0.57
6691.00,0.57
6690.00,0.57
6689.00,0.57
6688.00,0.57
6687.00,0.57
6686.00,0.58
6685.00,0.58
6684.00,0.58
6683.00,0.58
6682.00,0.58
6681.00,0.58
6680.00,0.58
6679.00,0.58
6678.00,0.58
6677.00,0.58
6676.00,0.58
6675.00,0.58
6674.00,0.58
6673.00,0.58
6672.00,0.58
6671.00,0.58
6670.00,0.59
6669.00,0.59
6668.00,0.59
6667.00,0.59
6666.00,0.59
6665.00,0.59
6664.00,0.59
6663.00,0.59
6662.00,0.59
6661.00,0.59
6660.00,0.59
6659.00,0.59
6658.00,0.60
6657.00,0.60
6656.00,0.60
6655.00,0.60
6654.00,0.60
6653.00,0.60
6652.00,0.60
6651.00,0.60
6650.00,0.60
6649.00,0.60
6648.00,0.60
6647.00,0.61
6646.00,0.61
6645.00,0.61
6644.00,0.61
6643.00,0.61
6642.00,0.61
6641.00,0.61
6640.00,0.61
6639.00,0.61
6638.00,0.61
6637.00,0.61
6636.00,0.61
6635.00,0.61
6634.00,0.61
6633.00,0.61
6632.00,0.61
6631.00,0.62
6630.00,0.62
6629.00,0.62
6628.00,0.62
6627.00,0.62
6626.00,0.62
6625.00,0.62
6624.00,0.62
6623.00,0.62
6622.00,0.62
6621.00,0.62
6620.00,0.62
6619.00,0.62
6618.00,0.62
6617.00,0.62
6616.00,0.63
6615.00,0.63
6614.00,0.63
6613.00,0.63
6612.00,0.63
6611.00,0.63
6610.00,0.63
6609.00,0.63
6608.00,0.64
6607.00,0.64
6606.00,0.64
6605.00,0.64
6604.00,0.64
6603.00,0.64
6602.00,0.64
6601.00,0.64
6600.00,0.64
6599.00,0.64
6598.00,0.65
6597.00,0.65
6596.00,0.65
6595.00,0.65
6594.00,0.65
6593.00,0.65
6592.00,0.65
6591.00,0.65
6590.00,0.65
6589.00,0.65
6588.00,0.65
6587.00,0.65
6586.00,0.65
6585.00,0.65
6584.00,0.65
6583.00,0.65
6582.00,0.65
6581.00,0.65
6580.00,0.65
6579.00,0.65
6578.00,0.65
6577.00,0.65
6576.00,0.65
6575.00,0.65
6574.00,0.65
6573.00,0.65
6572.00,0.65
6571.00,0.65
6570.00,0.66
6569.00,0.66
6568.00,0.66
6567.00,0.66
6566.00,0.66
6565.00,0.66
6564.00,0.66
6563.00,0.66
6562.00,0.67
6561.00,0.67
6560.00,0.67
6559.00,0.67
6558.00,0.67
6557.00,0.67
6556.00,0.67
6555.00,0.67
6554.00,0.67
6553.00,0.67
6552.00,0.67
6551.00,0.68
6550.00,0.68
6549.00,0.68
6548.00,0.68
6547.00,0.68
6546.00,0.68
6545.00,0.68
6544.00,0.68
6543.00,0.68
6542.00,0.68
6541.00,0.68
6540.00,0.68
6539.00,0.68
6538.00,0.68
6537.00,0.68
6536.00,0.68
6535.00,0.68
6534.00,0.68
6533.00,0.68
6532.00,0.68
6531.00,0.68
6530.00,0.68
6529.00,0.68
6528.00,0.69
6527.00,0.69
6526.00,0.69
6525.00,0.69
6524.00,0.69
6523.00,0.69
6522.00,0.69
6521.00,0.69
6520.00,0.69
6519.00,0.69
6518.00,0.69
6517.00,0.69
6516.00,0.69
6515.00,0.69
6514.00,0.69
6513.00,0.69
6512.00,0.69
6511.00,0.69
6510.00,0.69
6509.00,0.69
6508.00,0.69
6507.00,0.69
6506.00,0.69
6505.00,0.69
6504.00,0.69
6503.00,0.70
6502.00,0.70
6501.00,0.70
6500.00,0.70
6499.00,0.70
6498.00,0.70
6497.00,0.70
6496.00,0.70
6495.00,0.70
6494.00,0.70
6493.00,0.70
6492.00,0.70
6491.00,0.70
6490.00,0.70
6489.00,0.70
6488.00,0.70
6487.00,0.71
6486.00,0.71
6485.00,0.71
6484.00,0.71
6483.00,0.71
6482.00,0.71
6481.00,0.71
6480.00,0.71
6479.00,0.71
6478.00,0.71
6477.00,0.71
6476.00,0.71
6475.00,0.71
6474.00,0.71
6473.00,0.71
6472.00,0.71
6471.00,0.71
6470.00,0.71
6469.00,0.71
6468.00,0.71
6467.00,0.71
6466.00,0.71
6465.00,0.71
6464.00,0.71
6463.00,0.71
6462.00,0.71
6461.00,0.71
6460.00,0.71
6459.00,0.72
6458.00,0.72
6457.00,0.72
6456.00,0.72
6455.00,0.72
6454.00,0.72
6453.00,0.72
6452.00,0.72
6451.00,0.72
6450.00,0.72
6449.00,0.72
6448.00,0.72
6447.00,0.72
6446.00,0.73
6445.00,0.73
6444.00,0.73
6443.00,0.73
6442.00,0.73
6441.00,0.73
6440.00,0.73
6439.00,0.73
6438.00,0.73
6437.00,0.73
6436.00,0.73
6435.00,0.73
6434.00,0.73
6433.00,0.73
6432.00,0.73
6431.00,0.73
6430.00,0.73
6429.00,0.73
6428.00,0.73
6427.00,0.73
6426.00,0.73
6425.00,0.73
6424.00,0.73
6423.00,0.73
6422.00,0.74
6421.00,0.74
6420.00,0.74
6419.00,0.74
6418.00,0.74
6417.00,0.74
6416.00,0.74
6415.00,0.74
6414.00,0.74
6413.00,0.74
6412.00,0.74
6411.00,0.74
6410.00,0.74
6409.00,0.74
6408.00,0.74
6407.00,0.74
6406.00,0.74
6405.00,0.74
6404.00,0.74
6403.00,0.75
6402.00,0.75
6401.00,0.75
6400.00,0.75
6399.00,0.75
6398.00,0.75
6397.00,0.75
6396.00,0.75
6395.00,0.75
6394.00,0.75
6393.00,0.75
6392.00,0.75
6391.00,0.75
6390.00,0.75
6389.00,0.75
6388.00,0.75
6387.00,0.75
6386.00,0.75
6385.00,0.76
6384.00,0.76
6383.00,0.76
6382.00,0.76
6381.00,0.76
6380.00,0.76
6379.00,0.76
6378.00,0.76
6377.00,0.76
6376.00,0.76
6375.00,0.76
6374.00,0.76
6373.00,0.76
6372.00,0.76
6371.00,0.76
6370.00,0.76
6369.00,0.76
6368.00,0.76
6367.00,0.76
6366.00,0.76
6365.00,0.76
6364.00,0.76
6363.00,0.77
6362.00,0.77
6361.00,0.77
6360.00,0.77
6359.00,0.77
6358.00,0.77
6357.00,0.77
6356.00,0.77
6355.00,0.77
6354.00,0.77
6353.00,0.77
6352.00,0.78
6351.00,0.78
6350.00,0.78
6349.00,0.78
6348.00,0.78
6347.00,0.78
6346.00,0.78
6345.00,0.78
6344.00,0.78
6343.00,0.78
6342.00,0.78
6341.00,0.78
6340.00,0.78
6339.00,0.78
6338.00,0.78
6337.00,0.78
6336.00,0.78
6335.00,0.78
6334.00,0.78
6333.00,0.79
6332.00,0.79
6331.00,0.79
6330.00,0.79
6329.00,0.79
6328.00,0.79
6327.00,0.79
6326.00,0.79
6325.00,0.79
6324.00,0.79
6323.00,0.79
6322.00,0.79
6321.00,0.79
6320.00,0.79
6319.00,0.79
6318.00,0.79
6317.00,0.80
6316.00,0.80
6315.00,0.80
6314.00,0.80
6313.00,0.80
6312.00,0.80
6311.00,0.80
6310.00,0.80
6309.00,0.80
6308.00,0.81
6307.00,0.81
6306.00,0.81
6305.00,0.81
6304.00,0.81
6303.00,0.81
6302.00,0.81
6301.00,0.81
6300.00,0.81
6299.00,0.82
6298.00,0.82
6297.00,0.82
6296.00,0.82
6295.00,0.82
6294.00,0.82
6293.00,0.82
6292.00,0.82
6291.00,0.82
6290.00,0.82
6289.00,0.83
6288.00,0.83
6287.00,0.83
6286.00,0.83
6285.00,0.83
6284.00,0.83
6283.00,0.83
6282.00,0.83
6281.00,0.83
6280.00,0.83
6279.00,0.83
6278.00,0.83
6277.00,0.83
6276.00,0.84
6275.00,0.84
6274.00,0.84
6273.00,0.84
6272.00,0.84
6271.00,0.84
6270.00,0.84
6269.00,0.84
6268.00,0.84
6267.00,0.84
6266.00,0.84
6265.00,0.85
6264.00,0.85
6263.00,0.85
6262.00,0.85
6261.00,0.85
6260.00,0.85
6259.00,0.85
6258.00,0.85
6257.00,0.85
6256.00,0.86
6255.00,0.86
6254.00,0.86
6253.00,0.86
6252.00,0.86
6251.00,0.86
6250.00,0.86
6249.00,0.87
6248.00,0.87
6247.00,0.87
6246.00,0.87
6245.00,0.87
6244.00,0.87
6243.00,0.87
6242.00,0.87
6241.00,0.87
6240.00,0.88
6239.00,0.88
6238.00,0.88
6237.00,0.88
6236.00,0.88
6235.00,0.88
6234.00,0.88
6233.00,0.88
6232.00,0.88
6231.00,0.88
6230.00,0.88
6229.00,0.88
6228.00,0.88
6227.00,0.88
6226.00,0.89
6225.00,0.89
6224.00,0.89
6223.00,0.89
6222.00,0.89
6221.00,0.89
6220.00,0.89
6219.00,0.89
6218.00,0.90
6217.00,0.90
6216.00,0.90
6215.00,0.90
6214.00,0.90
6213.00,0.90
6212.00,0.90
6211.00,0.90
6210.00,0.90
6209.00,0.90
6208.00,0.90
6207.00,0.90
6206.00,0.90
6205.00,0.90
6204.00,0.91
6203.00,0.91
6202.00,0.91
6201.00,0.91
6200.00,0.91
6199.00,0.91
6198.00,0.91
6197.00,0.91
6196.00,0.91
6195.00,0.92
6194.00,0.92
6193.00,0.92
6192.00,0.92
6191.00,0.92
6190.00,0.92
6189.00,0.92
6188.00,0.92
6187.00,0.93
6186.00,0.93
6185.00,0.93
6184.00,0.93
6183.00,0.93
6182.00,0.93
6181.00,0.93
6180.00,0.94
6179.00,0.94
6178.00,0.94
6177.00,0.94
6176.00,0.94
6175.00,0.94
6174.00,0.94
6173.00,0.94
6172.00,0.95
6171.00,0.95
6170.00,0.95
6169.00,0.95
6168.00,0.95
6167.00,0.95
6166.00,0.95
6165.00,0.95
6164.00,0.95
6163.00,0.95
6162.00,0.96
6161.00,0.96
6160.00,0.96
6159.00,0.96
6158.00,0.96
6157.00,0.96
6156.00,0.96
6155.00,0.96
6154.00,0.96
6153.00,0.96
6152.00,0.97
6151.00,0.97
6150.00,0.97
6149.00,0.97
6148.00,0.97
6147.00,0.97
6146.00,0.97
6145.00,0.97
6144.00,0.98
6143.00,0.98
6142.00,0.98
6141.00,0.98
6140.00,0.98
6139.00,0.98
6138.00,0.99
6137.00,0.99
6136.00,0.99
6135.00,0.99
6134.00,0.99
6133.00,0.99
6132.00,0.99
6131.00,0.99
6130.00,0.99
6129.00,1.00
6128.00,1.00
6127.00,1.00
6126.00,1.00
6125.00,1.00
6124.00,1.00
6123.00,1.00
6122.00,1.00
6121.00,1.00
6120.00,1.00
6119.00,1.00
6118.00,1.01
6117.00,1.01
6116.00,1.01
6115.00,1.01
6114.00,1.01
6113.00,1.01
6112.00,1.01
6111.00,1.01
6110.00,1.02
6109.00,1.02
6108.00,1.02
6107.00,1.02
6106.00,1.02
6105.00,1.02
6104.00,1.02
6103.00,1.03
6102.00,1.03
6101.00,1.03
6100.00,1.03
6099.00,1.03
6098.00,1.03
6097.00,1.03
6096.00,1.04
6095.00,1.04
6094.00,1.04
6093.00,1.04
6092.00,1.04
6091.00,1.04
6090.00,1.04
6089.00,1.04
6088.00,1.05
6087.00,1.05
6086.00,1.05
6085.00,1.05
6084.00,1.05
6083.00,1.05
6082.00,1.05
6081.00,1.05
6080.00,1.05
6079.00,1.05
6078.00,1.05
6077.00,1.05
6076.00,1.05
6075.00,1.06
6074.00,1.06
6073.00,1.06
6072.00,1.06
6071.00,1.06
6070.00,1.06
6069.00,1.06
6068.00,1.06
6067.00,1.07
6066.00,1.07
6065.00,1.07
6064.00,1.07
6063.00,1.07
6062.00,1.07
6061.00,1.08
6060.00,1.08
6059.00,1.08
6058.00,1.08
6057.00,1.08
6056.00,1.08
6055.00,1.08
6054.00,1.09
6053.00,1.09
6052.00,1.09
6051.00,1.09
6050.00,1.09
6049.00,1.09
6048.00,1.09
6047.00,1.09
6046.00,1.09
6045.00,1.09
6044.00,1.09
6043.00,1.09
6042.00,1.09
6041.00,1.09
6040.00,1.09
6039.00,1.09
6038.00,1.09
6037.00,1.09
6036.00,1.09
6035.00,1.09
6034.00,1.09
6033.00,1.09
6032.00,1.09
6031.00,1.10
6030.00,1.10
6029.00,1.10
6028.00,1.10
6027.00,1.10
6026.00,1.10
6025.00,1.10
6024.00,1.10
6023.00,1.10
6022.00,1.10
6021.00,1.10
6020.00,1.10
6019.00,1.10
6018.00,1.10
6017.00,1.10
6016.00,1.10
6015.00,1.10
6014.00,1.10
6013.00,1.10
6012.00,1.10
6011.00,1.10
6010.00,1.10
6009.00,1.10
6008.00,1.10
6007.00,1.10
6006.00,1.10
6005.00,1.10
6004.00,1.10
6003.00,1.10
6002.00,1.10
6001.00,1.10
6000.00,1.09
5999.00,1.09
5998.00,1.09
5997.00,1.09
5996.00,1.09
5995.00,1.09
5994.00,1.09
5993.00,1.09
5992.00,1.09
5991.00,1.09
5990.00,1.09
5989.00,1.08
5988.00,1.08
5987.00,1.08
5986.00,1.08
5985.00,1.08
5984.00,1.07
5983.00,1.07
5982.00,1.07
5981.00,1.07
5980.00,1.06
5979.00,1.06
5978.00,1.06
5977.00,1.05
5976.00,1.05
5975.00,1.05
5974.00,1.04
5973.00,1.04
5972.00,1.03
5971.00,1.03
5970.00,1.02
5969.00,1.02
5968.00,1.01
5967.00,1.01
5966.00,1.00
5965.00,0.99
5964.00,0.99
5963.00,0.98
5962.00,0.98
5961.00,0.97
5960.00,0.96
5959.00,0.96
5958.00,0.95
5957.00,0.94
5956.00,0.94
5955.00,0.93
5954.00,0.92
5953.00,0.92
5952.00,0.91
5951.00,0.91
5950.00,0.90
5949.00,0.90
5948.00,0.89
5947.00,0.89
5946.00,0.88
5945.00,0.88
5944.00,0.88
5943.00,0.87
5942.00,0.87
5941.00,0.87
5940.00,0.87
5939.00,0.87
5938.00,0.87
5937.00,0.87
5936.00,0.87
5935.00,0.87
5934.00,0.86
5933.00,0.86
5932.00,0.86
5931.00,0.86
5930.00,0.86
5929.00,0.86
5928.00,0.86
5927.00,0.86
5926.00,0.86
5925.00,0.86
5924.00,0.86
5923.00,0.86
5922.00,0.86
5921.00,0.85
5920.00,0.85
5919.00,0.85
5918.00,0.85
5917.00,0.85
5916.00,0.84
5915.00,0.84
5914.00,0.84
5913.00,0.84
5912.00,0.84
5911.00,0.84
5910.00,0.83
5909.00,0.83
5908.00,0.83
5907.00,0.83
5906.00,0.83
5905.00,0.83
5904.00,0.83
5903.00,0.83
5902.00,0.83
5901.00,0.83
5900.00,0.83
5899.00,0.83
5898.00,0.83
5897.00,0.83
5896.00,0.83
5895.00,0.83
5894.00,0.83
5893.00,0.84
5892.00,0.84
5891.00,0.84
5890.00,0.84
5889.00,0.84
5888.00,0.84
5887.00,0.85
5886.00,0.85
5885.00,0.85
5884.00,0.85
5883.00,0.85
5882.00,0.86
5881.00,0.86
5880.00,0.86
5879.00,0.86
5878.00,0.87
5877.00,0.87
5876.00,0.87
5875.00,0.87
5874.00,0.87
5873.00,0.88
5872.00,0.88
5871.00,0.88
5870.00,0.88
5869.00,0.89
5868.00,0.89
5867.00,0.89
5866.00,0.89
5865.00,0.89
5864.00,0.89
5863.00,0.90
5862.00,0.90
5861.00,0.90
5860.00,0.90
5859.00,0.90
5858.00,0.90
5857.00,0.90
5856.00,0.91
5855.00,0.91
5854.00,0.91
5853.00,0.91
5852.00,0.91
5851.00,0.91
5850.00,0.91
5849.00,0.91
5848.00,0.91
5847.00,0.91
5846.00,0.91
5845.00,0.91
5844.00,0.91
5843.00,0.92
5842.00,0.92
5841.00,0.92
5840.00,0.92
5839.00,0.91
5838.00,0.91
5837.00,0.91
5836.00,0.91
5835.00,0.91
5834.00,0.91
5833.00,0.91
5832.00,0.91
5831.00,0.91
5830.00,0.91
5829.00,0.91
5828.00,0.91
5827.00,0.91
5826.00,0.91
5825.00,0.91
5824.00,0.91
5823.00,0.91
5822.00,0.91
5821.00,0.91
5820.00,0.91
5819.00,0.91
5818.00,0.91
5817.00,0.91
5816.00,0.91
5815.00,0.92
5814.00,0.92
5813.00,0.92
5812.00,0.92
5811.00,0.92
5810.00,0.92
5809.00,0.91
5808.00,0.91
5807.00,0.91
5806.00,0.91
5805.00,0.91
5804.00,0.91
5803.00,0.91
5802.00,0.91
5801.00,0.91
5800.00,0.91
5799.00,0.91
5798.00,0.90
5797.00,0.90
5796.00,0.90
5795.00,0.90
5794.00,0.90
5793.00,0.90
5792.00,0.90
5791.00,0.90
5790.00,0.90
5789.00,0.89
5788.00,0.89
5787.00,0.89
5786.00,0.89
5785.00,0.89
5784.00,0.89
5783.00,0.89
5782.00,0.88
5781.00,0.88
5780.00,0.88
5779.00,0.88
5778.00,0.88
5777.00,0.88
5776.00,0.88
5775.00,0.87
5774.00,0.87
5773.00,0.87
5772.00,0.87
5771.00,0.87
5770.00,0.87
5769.00,0.87
5768.00,0.88
5767.00,0.88
5766.00,0.88
5765.00,0.88
5764.00,0.88
5763.00,0.88
5762.00,0.88
5761.00,0.89
5760.00,0.89
5759.00,0.89
5758.00,0.89
5757.00,0.90
5756.00,0.90
5755.00,0.90
5754.00,0.91
5753.00,0.91
5752.00,0.91
5751.00,0.91
5750.00,0.92
5749.00,0.92
5748.00,0.92
5747.00,0.93
5746.00,0.93
5745.00,0.93
5744.00,0.93
5743.00,0.94
5742.00,0.94
5741.00,0.94
5740.00,0.95
5739.00,0.95
5738.00,0.95
5737.00,0.95
5736.00,0.95
5735.00,0.96
5734.00,0.96
5733.00,0.96
5732.00,0.96
5731.00,0.96
5730.00,0.96
5729.00,0.96
5728.00,0.96
5727.00,0.96
5726.00,0.96
5725.00,0.96
5724.00,0.96
5723.00,0.96
5722.00,0.96
5721.00,0.96
5720.00,0.96
5719.00,0.96
5718.00,0.96
5717.00,0.96
5716.00,0.96
5715.00,0.96
5714.00,0.97
5713.00,0.97
5712.00,0.97
5711.00,0.97
5710.00,0.97
5709.00,0.96
5708.00,0.96
5707.00,0.96
5706.00,0.96
5705.00,0.96
5704.00,0.96
5703.00,0.96
5702.00,0.96
5701.00,0.96
5700.00,0.96
5699.00,0.96
5698.00,0.96
5697.00,0.96
5696.00,0.96
5695.00,0.96
5694.00,0.95
5693.00,0.95
5692.00,0.95
5691.00,0.95
5690.00,0.95
5689.00,0.95
5688.00,0.95
5687.00,0.95
5686.00,0.95
5685.00,0.95
5684.00,0.95
5683.00,0.94
5682.00,0.94
5681.00,0.94
5680.00,0.94
5679.00,0.94
5678.00,0.94
5677.00,0.94
5676.00,0.94
5675.00,0.94
5674.00,0.94
5673.00,0.94
5672.00,0.94
5671.00,0.94
5670.00,0.94
5669.00,0.94
5668.00,0.94
5667.00,0.94
5666.00,0.94
5665.00,0.94
5664.00,0.94
5663.00,0.94
5662.00,0.94
5661.00,0.94
5660.00,0.95
5659.00,0.95
5658.00,0.95
5657.00,0.95
5656.00,0.95
5655.00,0.95
5654.00,0.95
5653.00,0.95
5652.00,0.96
5651.00,0.96
5650.00,0.96
5649.00,0.96
5648.00,0.96
5647.00,0.96
5646.00,0.97
5645.00,0.97
5644.00,0.97
5643.00,0.97
5642.00,0.97
5641.00,0.98
5640.00,0.98
5639.00,0.98
5638.00,0.98
5637.00,0.98
5636.00,0.98
5635.00,0.99
5634.00,0.99
5633.00,0.99
5632.00,0.99
5631.00,0.99
5630.00,1.00
5629.00,1.00
5628.00,1.00
5627.00,1.00
5626.00,1.00
5625.00,1.00
5624.00,1.00
5623.00,1.01
5622.00,1.01
5621.00,1.01
5620.00,1.01
5619.00,1.01
5618.00,1.01
5617.00,1.01
5616.00,1.02
5615.00,1.02
5614.00,1.02
5613.00,1.02
5612.00,1.02
5611.00,1.02
5610.00,1.02
5609.00,1.02
5608.00,1.03
5607.00,1.03
5606.00,1.03
5605.00,1.03
5604.00,1.03
5603.00,1.03
5602.00,1.03
5601.00,1.03
5600.00,1.04
5599.00,1.04
5598.00,1.04
5597.00,1.04
5596.00,1.04
5595.00,1.04
5594.00,1.04
5593.00,1.04
5592.00,1.05
5591.00,1.05
5590.00,1.05
5589.00,1.05
5588.00,1.05
5587.00,1.05
5586.00,1.05
5585.00,1.06
5584.00,1.06
5583.00,1.06
5582.00,1.06
5581.00,1.06
5580.00,1.06
5579.00,1.06
5578.00,1.07
5577.00,1.07
5576.00,1.07
5575.00,1.07
5574.00,1.07
5573.00,1.07
5572.00,1.07
5571.00,1.07
5570.00,1.07
5569.00,1.07
5568.00,1.07
5567.00,1.08
5566.00,1.08
5565.00,1.08
5564.00,1.08
5563.00,1.08
5562.00,1.08
5561.00,1.08
5560.00,1.08
5559.00,1.08
5558.00,1.08
5557.00,1.09
5556.00,1.09
5555.00,1.09
5554.00,1.09
5553.00,1.09
5552.00,1.09
5551.00,1.09
5550.00,1.10
5549.00,1.10
5548.00,1.10
5547.00,1.10
5546.00,1.10
5545.00,1.10
5544.00,1.10
5543.00,1.11
5542.00,1.11
5541.00,1.11
5540.00,1.11
5539.00,1.11
5538.00,1.11
5537.00,1.11
5536.00,1.11
5535.00,1.11
5534.00,1.11
5533.00,1.11
5532.00,1.11
5531.00,1.11
5530.00,1.11
5529.00,1.11
5528.00,1.12
5527.00,1.12
5526.00,1.12
5525.00,1.12
5524.00,1.12
5523.00,1.12
5522.00,1.12
5521.00,1.12
5520.00,1.12
5519.00,1.12
5518.00,1.12
5517.00,1.12
5516.00,1.12
5515.00,1.12
5514.00,1.12
5513.00,1.13
5512.00,1.13
5511.00,1.13
5510.00,1.13
5509.00,1.13
5508.00,1.13
5507.00,1.13
5506.00,1.13
5505.00,1.13
5504.00,1.13
5503.00,1.13
5502.00,1.13
5501.00,1.13
5500.00,1.13
5499.00,1.13
5498.00,1.14
5497.00,1.14
5496.00,1.14
5495.00,1.14
5494.00,1.14
5493.00,1.14
5492.00,1.14
5491.00,1.14
5490.00,1.14
5489.00,1.14
5488.00,1.14
5487.00,1.15
5486.00,1.15
5485.00,1.15
5484.00,1.15
5483.00,1.15
5482.00,1.15
5481.00,1.15
5480.00,1.15
5479.00,1.15
5478.00,1.15
5477.00,1.15
5476.00,1.16
5475.00,1.16
5474.00,1.16
5473.00,1.16
5472.00,1.16
5471.00,1.16
5470.00,1.16
5469.00,1.16
5468.00,1.17
5467.00,1.17
5466.00,1.17
5465.00,1.17
5464.00,1.17
5463.00,1.17
5462.00,1.17
5461.00,1.18
5460.00,1.18
5459.00,1.18
5458.00,1.18
5457.00,1.18
5456.00,1.18
5455.00,1.18
5454.00,1.18
5453.00,1.18
5452.00,1.18
5451.00,1.18
5450.00,1.18
5449.00,1.18
5448.00,1.18
5447.00,1.18
5446.00,1.18
5445.00,1.18
5444.00,1.18
5443.00,1.18
5442.00,1.18
5441.00,1.18
5440.00,1.18
5439.00,1.18
5438.00,1.18
5437.00,1.18
5436.00,1.18
5435.00,1.18
5434.00,1.18
5433.00,1.18
5432.00,1.18
5431.00,1.18
5430.00,1.18
5429.00,1.18
5428.00,1.18
5427.00,1.18
5426.00,1.18
5425.00,1.18
5424.00,1.18
5423.00,1.18
5422.00,1.18
5421.00,1.18
5420.00,1.18
5419.00,1.18
5418.00,1.18
5417.00,1.18
5416.00,1.18
5415.00,1.18
5414.00,1.18
5413.00,1.18
5412.00,1.18
5411.00,1.18
5410.00,1.18
5409.00,1.18
5408.00,1.18
5407.00,1.18
5406.00,1.18
5405.00,1.18
5404.00,1.18
5403.00,1.18
5402.00,1.18
5401.00,1.18
5400.00,1.18
5399.00,1.18
5398.00,1.18
5397.00,1.18
5396.00,1.18
5395.00,1.18
5394.00,1.17
5393.00,1.17
5392.00,1.17
5391.00,1.17
5390.00,1.17
5389.00,1.17
5388.00,1.17
5387.00,1.16
5386.00,1.16
5385.00,1.16
5384.00,1.16
5383.00,1.16
5382.00,1.15
5381.00,1.15
5380.00,1.15
5379.00,1.15
5378.00,1.14
5377.00,1.14
5376.00,1.14
5375.00,1.13
5374.00,1.13
5373.00,1.13
5372.00,1.12
5371.00,1.12
5370.00,1.12
5369.00,1.11
5368.00,1.11
5367.00,1.10
5366.00,1.10
5365.00,1.09
5364.00,1.09
5363.00,1.09
5362.00,1.08
5361.00,1.07
5360.00,1.07
5359.00,1.06
5358.00,1.06
5357.00,1.05
5356.00,1.04
5355.00,1.04
5354.00,1.03
5353.00,1.02
5352.00,1.02
5351.00,1.01
5350.00,1.00
5349.00,1.00
5348.00,0.99
5347.00,0.98
5346.00,0.97
5345.00,0.96
5344.00,0.96
5343.00,0.95
5342.00,0.94
5341.00,0.93
5340.00,0.92
5339.00,0.91
5338.00,0.91
5337.00,0.90
5336.00,0.89
5335.00,0.88
5334.00,0.87
5333.00,0.87
5332.00,0.86
5331.00,0.85
5330.00,0.84
5329.00,0.84
5328.00,0.83
5327.00,0.82
5326.00,0.81
5325.00,0.81
5324.00,0.80
5323.00,0.79
5322.00,0.79
5321.00,0.78
5320.00,0.77
5319.00,0.77
5318.00,0.76
5317.00,0.75
5316.00,0.75
5315.00,0.74
5314.00,0.74
5313.00,0.73
5312.00,0.72
5311.00,0.72
5310.00,0.71
5309.00,0.71
5308.00,0.71
5307.00,0.70
5306.00,0.70
5305.00,0.69
5304.00,0.69
5303.00,0.69
5302.00,0.69
5301.00,0.68
5300.00,0.68
5299.00,0.68
5298.00,0.68
5297.00,0.67
5296.00,0.67
5295.00,0.67
5294.00,0.67
5293.00,0.67
5292.00,0.66
5291.00,0.66
5290.00,0.66
5289.00,0.66
5288.00,0.66
5287.00,0.66
5286.00,0.65
5285.00,0.65
5284.00,0.65
5283.00,0.65
5282.00,0.65
5281.00,0.65
5280.00,0.65
5279.00,0.65
5278.00,0.65
5277.00,0.65
5276.00,0.65
5275.00,0.65
5274.00,0.65
5273.00,0.65
5272.00,0.65
5271.00,0.65
5270.00,0.65
5269.00,0.65
5268.00,0.65
5267.00,0.65
5266.00,0.65
5265.00,0.65
5264.00,0.65
5263.00,0.65
5262.00,0.65
5261.00,0.65
5260.00,0.65
5259.00,0.65
5258.00,0.65
5257.00,0.65
5256.00,0.65
5255.00,0.65
5254.00,0.65
5253.00,0.65
5252.00,0.65
5251.00,0.65
5250.00,0.65
5249.00,0.65
5248.00,0.65
5247.00,0.65
5246.00,0.65
5245.00,0.65
5244.00,0.65
5243.00,0.65
5242.00,0.65
5241.00,0.65
5240.00,0.65
5239.00,0.65
5238.00,0.65
5237.00,0.65
5236.00,0.65
5235.00,0.65
5234.00,0.65
5233.00,0.65
5232.00,0.65
5231.00,0.65
5230.00,0.65
5229.00,0.65
5228.00,0.65
5227.00,0.66
5226.00,0.66
5225.00,0.66
5224.00,0.66
5223.00,0.66
5222.00,0.66
5221.00,0.66
5220.00,0.66
5219.00,0.66
5218.00,0.66
5217.00,0.66
5216.00,0.66
5215.00,0.66
5214.00,0.66
5213.00,0.66
5212.00,0.66
5211.00,0.66
5210.00,0.66
5209.00,0.66
5208.00,0.66
5207.00,0.66
5206.00,0.66
5205.00,0.66
5204.00,0.66
5203.00,0.66
5202.00,0.66
5201.00,0.66
5200.00,0.66
5199.00,0.66
5198.00,0.66
5197.00,0.66
5196.00,0.66
5195.00,0.66
5194.00,0.67
5193.00,0.67
5192.00,0.67
5191.00,0.67
5190.00,0.67
5189.00,0.67
5188.00,0.67
5187.00,0.67
5186.00,0.67
5185.00,0.67
5184.00,0.67
5183.00,0.67
5182.00,0.67
5181.00,0.67
5180.00,0.67
5179.00,0.67
5178.00,0.67
5177.00,0.67
5176.00,0.67
5175.00,0.67
5174.00,0.67
5173.00,0.67
5172.00,0.67
5171.00,0.67
5170.00,0.67
5169.00,0.67
5168.00,0.67
5167.00,0.67
5166.00,0.67
5165.00,0.67
5164.00,0.67
5163.00,0.67
5162.00,0.67
5161.00,0.67
5160.00,0.67
5159.00,0.67
5158.00,0.67
5157.00,0.67
5156.00,0.67
5155.00,0.67
5154.00,0.67
5153.00,0.67
5152.00,0.68
5151.00,0.68
5150.00,0.68
5149.00,0.68
5148.00,0.68
5147.00,0.68
5146.00,0.68
5145.00,0.68
5144.00,0.68
5143.00,0.68
5142.00,0.68
5141.00,0.68
5140.00,0.68
5139.00,0.68
5138.00,0.68
5137.00,0.68
5136.00,0.68
5135.00,0.68
5134.00,0.68
5133.00,0.68
5132.00,0.68
5131.00,0.68
5130.00,0.68
5129.00,0.68
5128.00,0.68
5127.00,0.68
5126.00,0.68
5125.00,0.68
5124.00,0.68
5123.00,0.68
5122.00,0.68
5121.00,0.68
5120.00,0.68
5119.00,0.68
5118.00,0.68
5117.00,0.68
5116.00,0.68
5115.00,0.68
5114.00,0.68
5113.00,0.68
5112.00,0.68
5111.00,0.69
5110.00,0.69
5109.00,0.69
5108.00,0.69
5107.00,0.69
5106.00,0.69
5105.00,0.69
5104.00,0.69
5103.00,0.69
5102.00,0.69
5101.00,0.69
5100.00,0.69
5099.00,0.69
5098.00,0.69
5097.00,0.70
5096.00,0.70
5095.00,0.70
5094.00,0.70
5093.00,0.70
5092.00,0.70
5091.00,0.70
5090.00,0.70
5089.00,0.70
5088.00,0.70
5087.00,0.70
5086.00,0.70
5085.00,0.70
5084.00,0.70
5083.00,0.70
5082.00,0.70
5081.00,0.70
5080.00,0.70
5079.00,0.70
5078.00,0.70
5077.00,0.70
5076.00,0.70
5075.00,0.70
5074.00,0.70
5073.00,0.71
5072.00,0.71
5071.00,0.71
5070.00,0.71
5069.00,0.71
5068.00,0.71
5067.00,0.71
5066.00,0.71
5065.00,0.71
5064.00,0.71
5063.00,0.71
5062.00,0.71
5061.00,0.71
5060.00,0.71
5059.00,0.71
5058.00,0.71
5057.00,0.71
5056.00,0.71
5055.00,0.71
5054.00,0.71
5053.00,0.71
5052.00,0.71
5051.00,0.71
5050.00,0.71
5049.00,0.71
5048.00,0.71
5047.00,0.71
5046.00,0.71
5045.00,0.71
5044.00,0.71
5043.00,0.71
5042.00,0.71
5041.00,0.71
5040.00,0.72
5039.00,0.72
5038.00,0.72
5037.00,0.72
5036.00,0.72
5035.00,0.72
5034.00,0.72
5033.00,0.72
5032.00,0.72
5031.00,0.72
5030.00,0.72
5029.00,0.72
5028.00,0.72
5027.00,0.73
5026.00,0.73
5025.00,0.73
5024.00,0.73
5023.00,0.73
5022.00,0.73
5021.00,0.73
5020.00,0.73
5019.00,0.73
5018.00,0.73
5017.00,0.73
5016.00,0.73
5015.00,0.73
5014.00,0.73
5013.00,0.73
5012.00,0.73
5011.00,0.73
5010.00,0.73
5009.00,0.74
5008.00,0.74
5007.00,0.74
5006.00,0.74
5005.00,0.74
5004.00,0.74
5003.00,0.74
5002.00,0.74
5001.00,0.74
5000.00,0.74
4999.00,0.74
4998.00,0.74
4997.00,0.74
4996.00,0.74
4995.00,0.75
4994.00,0.75
4993.00,0.75
4992.00,0.75
4991.00,0.75
4990.00,0.75
4989.00,0.75
4988.00,0.75
4987.00,0.75
4986.00,0.75
4985.00,0.75
4984.00,0.75
4983.00,0.75
4982.00,0.75
4981.00,0.75
4980.00,0.75
4979.00,0.75
4978.00,0.75
4977.00,0.75
4976.00,0.75
4975.00,0.75
4974.00,0.75
4973.00,0.75
4972.00,0.75
4971.00,0.75
4970.00,0.76
4969.00,0.76
4968.00,0.76
4967.00,0.76
4966.00,0.76
4965.00,0.76
4964.00,0.76
4963.00,0.76
4962.00,0.76
4961.00,0.76
4960.00,0.76
4959.00,0.76
4958.00,0.76
4957.00,0.77
4956.00,0.77
4955.00,0.77
4954.00,0.77
4953.00,0.77
4952.00,0.77
4951.00,0.77
4950.00,0.77
4949.00,0.77
4948.00,0.77
4947.00,0.77
4946.00,0.77
4945.00,0.77
4944.00,0.77
4943.00,0.77
4942.00,0.77
4941.00,0.77
4940.00,0.77
4939.00,0.77
4938.00,0.77
4937.00,0.77
4936.00,0.78
4935.00,0.78
4934.00,0.78
4933.00,0.78
4932.00,0.78
4931.00,0.78
4930.00,0.78
4929.00,0.78
4928.00,0.78
4927.00,0.78
4926.00,0.78
4925.00,0.78
4924.00,0.78
4923.00,0.78
4922.00,0.78
4921.00,0.78
4920.00,0.78
4919.00,0.78
4918.00,0.79
4917.00,0.79
4916.00,0.79
4915.00,0.79
4914.00,0.79
4913.00,0.79
4912.00,0.79
4911.00,0.79
4910.00,0.79
4909.00,0.79
4908.00,0.80
4907.00,0.80
4906.00,0.80
4905.00,0.80
4904.00,0.80
4903.00,0.80
4902.00,0.80
4901.00,0.80
4900.00,0.80
4899.00,0.80
4898.00,0.80
4897.00,0.80
4896.00,0.80
4895.00,0.80
4894.00,0.80
4893.00,0.80
4892.00,0.80
4891.00,0.80
4890.00,0.80
4889.00,0.80
4888.00,0.80
4887.00,0.80
4886.00,0.80
4885.00,0.80
4884.00,0.80
4883.00,0.80
4882.00,0.80
4881.00,0.80
4880.00,0.80
4879.00,0.80
4878.00,0.80
4877.00,0.80
4876.00,0.80
4875.00,0.80
4874.00,0.80
4873.00,0.80
4872.00,0.80
4871.00,0.80
4870.00,0.80
4869.00,0.80
4868.00,0.81
4867.00,0.81
4866.00,0.81
4865.00,0.81
4864.00,0.81
4863.00,0.81
4862.00,0.81
4861.00,0.81
4860.00,0.81
4859.00,0.81
4858.00,0.81
4857.00,0.81
4856.00,0.81
4855.00,0.81
4854.00,0.81
4853.00,0.81
4852.00,0.81
4851.00,0.81
4850.00,0.81
4849.00,0.81
4848.00,0.81
4847.00,0.81
4846.00,0.81
4845.00,0.81
4844.00,0.81
4843.00,0.81
4842.00,0.81
4841.00,0.81
4840.00,0.81
4839.00,0.81
4838.00,0.81
4837.00,0.81
4836.00,0.81
4835.00,0.81
4834.00,0.81
4833.00,0.82
4832.00,0.82
4831.00,0.82
4830.00,0.82
4829.00,0.82
4828.00,0.82
4827.00,0.82
4826.00,0.82
4825.00,0.82
4824.00,0.83
4823.00,0.83
4822.00,0.83
4821.00,0.83
4820.00,0.83
4819.00,0.83
4818.00,0.83
4817.00,0.83
4816.00,0.83
4815.00,0.83
4814.00,0.83
4813.00,0.83
4812.00,0.83
4811.00,0.83
4810.00,0.83
4809.00,0.83
4808.00,0.83
4807.00,0.83
4806.00,0.83
4805.00,0.83
4804.00,0.84
4803.00,0.84
4802.00,0.84
4801.00,0.84
4800.00,0.84
4799.00,0.84
4798.00,0.84
4797.00,0.84
4796.00,0.84
4795.00,0.85
4794.00,0.85
4793.00,0.85
4792.00,0.85
4791.00,0.85
4790.00,0.85
4789.00,0.85
4788.00,0.85
4787.00,0.85
4786.00,0.85
4785.00,0.85
4784.00,0.85
4783.00,0.85
4782.00,0.85
4781.00,0.85
4780.00,0.85
4779.00,0.85
4778.00,0.85
4777.00,0.85
4776.00,0.86
4775.00,0.86
4774.00,0.86
4773.00,0.86
4772.00,0.86
4771.00,0.86
4770.00,0.86
4769.00,0.86
4768.00,0.86
4767.00,0.86
4766.00,0.86
4765.00,0.86
4764.00,0.86
4763.00,0.86
4762.00,0.87
4761.00,0.87
4760.00,0.87
4759.00,0.87
4758.00,0.87
4757.00,0.87
4756.00,0.87
4755.00,0.87
4754.00,0.87
4753.00,0.87
4752.00,0.88
4751.00,0.88
4750.00,0.88
4749.00,0.88
4748.00,0.88
4747.00,0.88
4746.00,0.88
4745.00,0.88
4744.00,0.88
4743.00,0.88
4742.00,0.88
4741.00,0.89
4740.00,0.89
4739.00,0.89
4738.00,0.89
4737.00,0.89
4736.00,0.89
4735.00,0.89
4734.00,0.89
4733.00,0.89
4732.00,0.89
4731.00,0.89
4730.00,0.89
4729.00,0.89
4728.00,0.89
4727.00,0.89
4726.00,0.89
4725.00,0.89
4724.00,0.89
4723.00,0.90
4722.00,0.90
4721.00,0.90
4720.00,0.90
4719.00,0.90
4718.00,0.90
4717.00,0.90
4716.00,0.90
4715.00,0.90
4714.00,0.90
4713.00,0.90
4712.00,0.91
4711.00,0.91
4710.00,0.91
4709.00,0.91
4708.00,0.91
4707.00,0.91
4706.00,0.91
4705.00,0.91
4704.00,0.91
4703.00,0.91
4702.00,0.92
4701.00,0.92
4700.00,0.92
4699.00,0.92
4698.00,0.92
4697.00,0.92
4696.00,0.92
4695.00,0.92
4694.00,0.92
4693.00,0.92
4692.00,0.92
4691.00,0.92
4690.00,0.93
4689.00,0.93
4688.00,0.93
4687.00,0.93
4686.00,0.93
4685.00,0.93
4684.00,0.93
4683.00,0.93
4682.00,0.94
4681.00,0.94
4680.00,0.94
4679.00,0.94
4678.00,0.94
4677.00,0.94
4676.00,0.95
4675.00,0.95
4674.00,0.95
4673.00,0.95
4672.00,0.95
4671.00,0.95
4670.00,0.95
4669.00,0.95
4668.00,0.96
4667.00,0.96
4666.00,0.96
4665.00,0.96
4664.00,0.96
4663.00,0.96
4662.00,0.96
4661.00,0.96
4660.00,0.96
4659.00,0.96
4658.00,0.96
4657.00,0.96
4656.00,0.96
4655.00,0.97
4654.00,0.97
4653.00,0.97
4652.00,0.97
4651.00,0.97
4650.00,0.97
4649.00,0.97
4648.00,0.97
4647.00,0.97
4646.00,0.97
4645.00,0.97
4644.00,0.97
4643.00,0.97
4642.00,0.97
4641.00,0.97
4640.00,0.97
4639.00,0.97
4638.00,0.97
4637.00,0.97
4636.00,0.97
4635.00,0.97
4634.00,0.97
4633.00,0.97
4632.00,0.97
4631.00,0.97
4630.00,0.98
4629.00,0.98
4628.00,0.98
4627.00,0.98
4626.00,0.98
4625.00,0.98
4624.00,0.98
4623.00,0.98
4622.00,0.98
4621.00,0.99
4620.00,0.99
4619.00,0.99
4618.00,0.99
4617.00,0.99
4616.00,0.99
4615.00,0.99
4614.00,0.99
4613.00,0.99
4612.00,0.99
4611.00,0.99
4610.00,0.99
4609.00,1.00
4608.00,1.00
4607.00,1.00
4606.00,1.00
4605.00,1.00
4604.00,1.00
4603.00,1.00
4602.00,1.00
4601.00,1.00
4600.00,1.00
4599.00,1.00
4598.00,1.00
4597.00,1.00
4596.00,1.00
4595.00,1.00
4594.00,1.00
4593.00,1.00
4592.00,1.00
4591.00,1.00
4590.00,1.00
4589.00,1.00
4588.00,1.00
4587.00,1.01
4586.00,1.01
4585.00,1.01
4584.00,1.01
4583.00,1.01
4582.00,1.01
4581.00,1.01
4580.00,1.01
4579.00,1.01
4578.00,1.02
4577.00,1.02
4576.00,1.02
4575.00,1.02
4574.00,1.02
4573.00,1.02
4572.00,1.02
4571.00,1.02
4570.00,1.02
4569.00,1.02
4568.00,1.02
4567.00,1.02
4566.00,1.03
4565.00,1.03
4564.00,1.03
4563.00,1.03
4562.00,1.03
4561.00,1.03
4560.00,1.03
4559.00,1.03
4558.00,1.03
4557.00,1.03
4556.00,1.03
4555.00,1.03
4554.00,1.03
4553.00,1.03
4552.00,1.03
4551.00,1.03
4550.00,1.03
4549.00,1.03
4548.00,1.03
4547.00,1.03
4546.00,1.04
4545.00,1.04
4544.00,1.04
4543.00,1.04
4542.00,1.04
4541.00,1.04
4540.00,1.04
4539.00,1.04
4538.00,1.04
4537.00,1.04
4536.00,1.04
4535.00,1.04
4534.00,1.04
4533.00,1.04
4532.00,1.04
4531.00,1.04
4530.00,1.04
4529.00,1.04
4528.00,1.04
4527.00,1.04
4526.00,1.04
4525.00,1.04
4524.00,1.04
4523.00,1.04
4522.00,1.04
4521.00,1.04
4520.00,1.04
4519.00,1.04
4518.00,1.04
4517.00,1.04
4516.00,1.04
4515.00,1.04
4514.00,1.04
4513.00,1.04
4512.00,1.04
4511.00,1.04
4510.00,1.04
4509.00,1.04
4508.00,1.04
4507.00,1.04
4506.00,1.04
4505.00,1.04
4504.00,1.04
4503.00,1.04
4502.00,1.04
4501.00,1.04
4500.00,1.04
4499.00,1.04
4498.00,1.04
4497.00,1.04
4496.00,1.04
4495.00,1.04
4494.00,1.04
4493.00,1.04
4492.00,1.04
4491.00,1.04
4490.00,1.04
4489.00,1.04
4488.00,1.04
4487.00,1.04
4486.00,1.04
4485.00,1.04
4484.00,1.04
4483.00,1.03
4482.00,1.03
4481.00,1.03
4480.00,1.03
4479.00,1.03
4478.00,1.03
4477.00,1.03
4476.00,1.03
4475.00,1.03
4474.00,1.03
4473.00,1.03
4472.00,1.03
4471.00,1.03
4470.00,1.03
4469.00,1.02
4468.00,1.02
4467.00,1.02
4466.00,1.02
4465.00,1.02
4464.00,1.02
4463.00,1.02
4462.00,1.02
4461.00,1.02
4460.00,1.01
4459.00,1.01
4458.00,1.01
4457.00,1.01
4456.00,1.01
4455.00,1.01
4454.00,1.01
4453.00,1.01
4452.00,1.00
4451.00,1.00
4450.00,1.00
4449.00,1.00
4448.00,1.00
4447.00,0.99
4446.00,0.99
4445.00,0.99
4444.00,0.99
4443.00,0.99
4442.00,0.98
4441.00,0.98
4440.00,0.98
4439.00,0.98
4438.00,0.97
4437.00,0.97
4436.00,0.97
4435.00,0.97
4434.00,0.97
4433.00,0.97
4432.00,0.96
4431.00,0.96
4430.00,0.96
4429.00,0.96
4428.00,0.96
4427.00,0.96
4426.00,0.96
4425.00,0.96
4424.00,0.96
4423.00,0.96
4422.00,0.96
4421.00,0.96
4420.00,0.96
4419.00,0.96
4418.00,0.96
4417.00,0.96
4416.00,0.96
4415.00,0.96
4414.00,0.96
4413.00,0.96
4412.00,0.96
4411.00,0.97
4410.00,0.97
4409.00,0.97
4408.00,0.97
4407.00,0.97
4406.00,0.97
4405.00,0.97
4404.00,0.97
4403.00,0.97
4402.00,0.97
4401.00,0.97
4400.00,0.97
4399.00,0.98
4398.00,0.98
4397.00,0.98
4396.00,0.98
4395.00,0.97
4394.00,0.97
4393.00,0.97
4392.00,0.97
4391.00,0.97
4390.00,0.98
4389.00,0.98
4388.00,0.98
4387.00,0.98
4386.00,0.98
4385.00,0.98
4384.00,0.98
4383.00,0.98
4382.00,0.98
4381.00,0.98
4380.00,0.98
4379.00,0.98
4378.00,0.98
4377.00,0.98
4376.00,0.98
4375.00,0.98
4374.00,0.98
4373.00,0.98
4372.00,0.98
4371.00,0.98
4370.00,0.98
4369.00,0.98
4368.00,0.98
4367.00,0.98
4366.00,0.99
4365.00,0.99
4364.00,0.99
4363.00,0.99
4362.00,0.99
4361.00,0.99
4360.00,0.99
4359.00,0.99
4358.00,0.99
4357.00,0.99
4356.00,0.99
4355.00,0.99
4354.00,0.99
4353.00,0.99
4352.00,0.99
4351.00,0.99
4350.00,0.99
4349.00,0.99
4348.00,0.99
4347.00,0.99
4346.00,0.99
4345.00,0.99
4344.00,0.99
4343.00,0.99
4342.00,0.99
4341.00,0.99
4340.00,0.99
4339.00,0.99
4338.00,0.99
4337.00,0.99
4336.00,0.99
4335.00,1.00
4334.00,1.00
4333.00,1.00
4332.00,1.00
4331.00,1.00
4330.00,1.00
4329.00,1.00
4328.00,1.00
4327.00,1.00
4326.00,1.01
4325.00,1.01
4324.00,1.01
4323.00,1.01
4322.00,1.01
4321.00,1.01
4320.00,1.01
4319.00,1.02
4318.00,1.02
4317.00,1.02
4316.00,1.02
4315.00,1.02
4314.00,1.02
4313.00,1.02
4312.00,1.03
4311.00,1.03
4310.00,1.03
4309.00,1.03
4308.00,1.03
4307.00,1.03
4306.00,1.04
4305.00,1.04
4304.00,1.04
4303.00,1.04
4302.00,1.04
4301.00,1.04
4300.00,1.04
4299.00,1.04
4298.00,1.04
4297.00,1.04
4296.00,1.04
4295.00,1.04
4294.00,1.04
4293.00,1.04
4292.00,1.04
4291.00,1.04
4290.00,1.04
4289.00,1.04
4288.00,1.04
4287.00,1.04
4286.00,1.04
4285.00,1.04
4284.00,1.04
4283.00,1.04
4282.00,1.04
4281.00,1.04
4280.00,1.04
4279.00,1.04
4278.00,1.04
4277.00,1.04
4276.00,1.04
4275.00,1.04
4274.00,1.04
4273.00,1.05
4272.00,1.05
4271.00,1.05
4270.00,1.05
4269.00,1.05
4268.00,1.05
4267.00,1.05
4266.00,1.05
4265.00,1.05
4264.00,1.05
4263.00,1.05
4262.00,1.05
4261.00,1.05
4260.00,1.05
4259.00,1.05
4258.00,1.05
4257.00,1.05
4256.00,1.05
4255.00,1.05
4254.00,1.05
4253.00,1.05
4252.00,1.05
4251.00,1.05
4250.00,1.05
4249.00,1.05
4248.00,1.05
4247.00,1.05
4246.00,1.05
4245.00,1.05
4244.00,1.05
4243.00,1.05
4242.00,1.05
4241.00,1.05
4240.00,1.06
4239.00,1.06
4238.00,1.06
4237.00,1.06
4236.00,1.06
4235.00,1.06
4234.00,1.06
4233.00,1.07
4232.00,1.07
4231.00,1.07
4230.00,1.07
4229.00,1.07
4228.00,1.08
4227.00,1.08
4226.00,1.08
4225.00,1.08
4224.00,1.08
4223.00,1.08
4222.00,1.08
4221.00,1.08
4220.00,1.08
4219.00,1.08
4218.00,1.08
4217.00,1.08
4216.00,1.08
4215.00,1.08
4214.00,1.08
4213.00,1.08
4212.00,1.08
4211.00,1.08
4210.00,1.08
4209.00,1.08
4208.00,1.08
4207.00,1.08
4206.00,1.08
4205.00,1.08
4204.00,1.08
4203.00,1.08
4202.00,1.08
4201.00,1.08
4200.00,1.08
4199.00,1.08
4198.00,1.08
4197.00,1.08
4196.00,1.08
4195.00,1.08
4194.00,1.08
4193.00,1.08
4192.00,1.08
4191.00,1.08
4190.00,1.08
4189.00,1.08
4188.00,1.09
4187.00,1.09
4186.00,1.09
4185.00,1.09
4184.00,1.09
4183.00,1.09
4182.00,1.09
4181.00,1.09
4180.00,1.09
4179.00,1.09
4178.00,1.09
4177.00,1.09
4176.00,1.09
4175.00,1.09
4174.00,1.09
4173.00,1.09
4172.00,1.09
4171.00,1.09
4170.00,1.09
4169.00,1.09
4168.00,1.09
4167.00,1.09
4166.00,1.09
4165.00,1.09
4164.00,1.10
4163.00,1.10
4162.00,1.10
4161.00,1.10
4160.00,1.10
4159.00,1.10
4158.00,1.10
4157.00,1.10
4156.00,1.10
4155.00,1.10
4154.00,1.10
4153.00,1.10
4152.00,1.10
4151.00,1.10
4150.00,1.10
4149.00,1.10
4148.00,1.10
4147.00,1.10
4146.00,1.10
4145.00,1.10
4144.00,1.10
4143.00,1.11
4142.00,1.11
4141.00,1.11
4140.00,1.11
4139.00,1.11
4138.00,1.11
4137.00,1.11
4136.00,1.11
4135.00,1.11
4134.00,1.11
4133.00,1.11
4132.00,1.11
4131.00,1.11
4130.00,1.11
4129.00,1.11
4128.00,1.11
4127.00,1.11
4126.00,1.11
4125.00,1.11
4124.00,1.11
4123.00,1.11
4122.00,1.11
4121.00,1.11
4120.00,1.11
4119.00,1.11
4118.00,1.11
4117.00,1.11
4116.00,1.11
4115.00,1.11
4114.00,1.11
4113.00,1.11
4112.00,1.11
4111.00,1.12
4110.00,1.12
4109.00,1.12
4108.00,1.12
4107.00,1.12
4106.00,1.12
4105.00,1.12
4104.00,1.12
4103.00,1.12
4102.00,1.12
4101.00,1.12
4100.00,1.12
4099.00,1.12
4098.00,1.12
4097.00,1.12
4096.00,1.12
4095.00,1.12
4094.00,1.13
4093.00,1.13
4092.00,1.13
4091.00,1.13
4090.00,1.13
4089.00,1.13
4088.00,1.13
4087.00,1.13
4086.00,1.13
4085.00,1.13
4084.00,1.13
4083.00,1.13
4082.00,1.13
4081.00,1.13
4080.00,1.13
4079.00,1.13
4078.00,1.13
4077.00,1.13
4076.00,1.13
4075.00,1.13
4074.00,1.13
4073.00,1.13
4072.00,1.13
4071.00,1.13
4070.00,1.13
4069.00,1.13
4068.00,1.13
4067.00,1.13
4066.00,1.13
4065.00,1.13
4064.00,1.13
4063.00,1.13
4062.00,1.13
4061.00,1.14
4060.00,1.14
4059.00,1.14
4058.00,1.14
4057.00,1.14
4056.00,1.14
4055.00,1.14
4054.00,1.14
4053.00,1.15
4052.00,1.15
4051.00,1.15
4050.00,1.15
4049.00,1.15
4048.00,1.15
4047.00,1.15
4046.00,1.15
4045.00,1.15
4044.00,1.15
4043.00,1.15
4042.00,1.15
4041.00,1.15
4040.00,1.15
4039.00,1.15
4038.00,1.15
4037.00,1.15
4036.00,1.15
4035.00,1.15
4034.00,1.15
4033.00,1.15
4032.00,1.15
4031.00,1.14
4030.00,1.14
4029.00,1.14
4028.00,1.14
4027.00,1.15
4026.00,1.15
4025.00,1.15
4024.00,1.15
4023.00,1.15
4022.00,1.15
4021.00,1.15
4020.00,1.16
4019.00,1.16
4018.00,1.16
4017.00,1.16
4016.00,1.16
4015.00,1.16
4014.00,1.17
4013.00,1.17
4012.00,1.17
4011.00,1.17
4010.00,1.17
4009.00,1.17
4008.00,1.18
4007.00,1.18
4006.00,1.18
4005.00,1.18
4004.00,1.18
4003.00,1.18
4002.00,1.18
4001.00,1.18
4000.00,1.18
