创建为新数据集,样品 724 用户 Administrator 日期 星期五, 七月 20 2018
cm-1,%T
10000.00,1.15
9999.00,1.15
9998.00,1.16
9997.00,1.16
9996.00,1.16
9995.00,1.17
9994.00,1.17
9993.00,1.17
9992.00,1.17
9991.00,1.18
9990.00,1.18
9989.00,1.18
9988.00,1.18
9987.00,1.18
9986.00,1.18
9985.00,1.18
9984.00,1.18
9983.00,1.18
9982.00,1.17
9981.00,1.17
9980.00,1.17
9979.00,1.17
9978.00,1.16
9977.00,1.16
9976.00,1.16
9975.00,1.16
9974.00,1.16
9973.00,1.15
9972.00,1.15
9971.00,1.15
9970.00,1.15
9969.00,1.15
9968.00,1.15
9967.00,1.15
9966.00,1.15
9965.00,1.15
9964.00,1.15
9963.00,1.15
9962.00,1.15
9961.00,1.15
9960.00,1.15
9959.00,1.15
9958.00,1.15
9957.00,1.15
9956.00,1.15
9955.00,1.15
9954.00,1.15
9953.00,1.16
9952.00,1.16
9951.00,1.16
9950.00,1.16
9949.00,1.16
9948.00,1.17
9947.00,1.17
9946.00,1.17
9945.00,1.17
9944.00,1.17
9943.00,1.17
9942.00,1.17
9941.00,1.17
9940.00,1.17
9939.00,1.17
9938.00,1.17
9937.00,1.17
9936.00,1.17
9935.00,1.17
9934.00,1.17
9933.00,1.17
9932.00,1.17
9931.00,1.17
9930.00,1.17
9929.00,1.16
9928.00,1.16
9927.00,1.16
9926.00,1.16
9925.00,1.16
9924.00,1.16
9923.00,1.16
9922.00,1.16
9921.00,1.16
9920.00,1.16
9919.00,1.15
9918.00,1.15
9917.00,1.15
9916.00,1.15
9915.00,1.15
9914.00,1.15
9913.00,1.15
9912.00,1.15
9911.00,1.15
9910.00,1.15
9909.00,1.15
9908.00,1.15
9907.00,1.15
9906.00,1.15
9905.00,1.15
9904.00,1.15
9903.00,1.15
9902.00,1.15
9901.00,1.15
9900.00,1.15
9899.00,1.15
9898.00,1.15
9897.00,1.15
9896.00,1.15
9895.00,1.15
9894.00,1.15
9893.00,1.15
9892.00,1.15
9891.00,1.15
9890.00,1.14
9889.00,1.14
9888.00,1.14
9887.00,1.14
9886.00,1.14
9885.00,1.14
9884.00,1.14
9883.00,1.14
9882.00,1.14
9881.00,1.14
9880.00,1.14
9879.00,1.14
9878.00,1.15
9877.00,1.15
9876.00,1.15
9875.00,1.15
9874.00,1.15
9873.00,1.16
9872.00,1.16
9871.00,1.16
9870.00,1.16
9869.00,1.17
9868.00,1.17
9867.00,1.17
9866.00,1.17
9865.00,1.18
9864.00,1.18
9863.00,1.18
9862.00,1.18
9861.00,1.18
9860.00,1.18
9859.00,1.18
9858.00,1.18
9857.00,1.18
9856.00,1.18
9855.00,1.18
9854.00,1.18
9853.00,1.17
9852.00,1.17
9851.00,1.17
9850.00,1.17
9849.00,1.17
9848.00,1.16
9847.00,1.16
9846.00,1.16
9845.00,1.16
9844.00,1.15
9843.00,1.15
9842.00,1.15
9841.00,1.15
9840.00,1.15
9839.00,1.15
9838.00,1.15
9837.00,1.14
9836.00,1.14
9835.00,1.14
9834.00,1.14
9833.00,1.14
9832.00,1.14
9831.00,1.14
9830.00,1.14
9829.00,1.14
9828.00,1.14
9827.00,1.14
9826.00,1.14
9825.00,1.14
9824.00,1.14
9823.00,1.14
9822.00,1.14
9821.00,1.13
9820.00,1.13
9819.00,1.13
9818.00,1.13
9817.00,1.13
9816.00,1.13
9815.00,1.13
9814.00,1.13
9813.00,1.14
9812.00,1.14
9811.00,1.14
9810.00,1.14
9809.00,1.14
9808.00,1.14
9807.00,1.14
9806.00,1.15
9805.00,1.15
9804.00,1.15
9803.00,1.15
9802.00,1.15
9801.00,1.15
9800.00,1.15
9799.00,1.15
9798.00,1.15
9797.00,1.15
9796.00,1.15
9795.00,1.15
9794.00,1.15
9793.00,1.15
9792.00,1.15
9791.00,1.15
9790.00,1.15
9789.00,1.15
9788.00,1.15
9787.00,1.14
9786.00,1.14
9785.00,1.14
9784.00,1.14
9783.00,1.14
9782.00,1.14
9781.00,1.13
9780.00,1.13
9779.00,1.13
9778.00,1.13
9777.00,1.13
9776.00,1.13
9775.00,1.13
9774.00,1.13
9773.00,1.13
9772.00,1.13
9771.00,1.13
9770.00,1.14
9769.00,1.14
9768.00,1.14
9767.00,1.14
9766.00,1.14
9765.00,1.14
9764.00,1.14
9763.00,1.14
9762.00,1.14
9761.00,1.14
9760.00,1.14
9759.00,1.14
9758.00,1.14
9757.00,1.14
9756.00,1.14
9755.00,1.14
9754.00,1.14
9753.00,1.14
9752.00,1.14
9751.00,1.14
9750.00,1.14
9749.00,1.14
9748.00,1.14
9747.00,1.15
9746.00,1.15
9745.00,1.15
9744.00,1.15
9743.00,1.15
9742.00,1.16
9741.00,1.16
9740.00,1.16
9739.00,1.16
9738.00,1.16
9737.00,1.16
9736.00,1.16
9735.00,1.16
9734.00,1.16
9733.00,1.16
9732.00,1.16
9731.00,1.16
9730.00,1.16
9729.00,1.16
9728.00,1.16
9727.00,1.16
9726.00,1.15
9725.00,1.15
9724.00,1.15
9723.00,1.15
9722.00,1.15
9721.00,1.15
9720.00,1.15
9719.00,1.15
9718.00,1.15
9717.00,1.15
9716.00,1.15
9715.00,1.15
9714.00,1.16
9713.00,1.16
9712.00,1.16
9711.00,1.16
9710.00,1.16
9709.00,1.16
9708.00,1.17
9707.00,1.17
9706.00,1.17
9705.00,1.17
9704.00,1.17
9703.00,1.17
9702.00,1.18
9701.00,1.18
9700.00,1.18
9699.00,1.18
9698.00,1.18
9697.00,1.18
9696.00,1.18
9695.00,1.17
9694.00,1.17
9693.00,1.17
9692.00,1.17
9691.00,1.17
9690.00,1.16
9689.00,1.16
9688.00,1.16
9687.00,1.15
9686.00,1.15
9685.00,1.15
9684.00,1.15
9683.00,1.14
9682.00,1.14
9681.00,1.14
9680.00,1.14
9679.00,1.14
9678.00,1.14
9677.00,1.14
9676.00,1.14
9675.00,1.14
9674.00,1.14
9673.00,1.14
9672.00,1.14
9671.00,1.15
9670.00,1.15
9669.00,1.15
9668.00,1.15
9667.00,1.15
9666.00,1.16
9665.00,1.16
9664.00,1.16
9663.00,1.16
9662.00,1.16
9661.00,1.16
9660.00,1.16
9659.00,1.16
9658.00,1.16
9657.00,1.16
9656.00,1.16
9655.00,1.16
9654.00,1.16
9653.00,1.16
9652.00,1.16
9651.00,1.16
9650.00,1.16
9649.00,1.16
9648.00,1.16
9647.00,1.16
9646.00,1.16
9645.00,1.16
9644.00,1.17
9643.00,1.17
9642.00,1.17
9641.00,1.17
9640.00,1.17
9639.00,1.17
9638.00,1.17
9637.00,1.18
9636.00,1.18
9635.00,1.18
9634.00,1.18
9633.00,1.18
9632.00,1.18
9631.00,1.18
9630.00,1.18
9629.00,1.18
9628.00,1.18
9627.00,1.18
9626.00,1.17
9625.00,1.17
9624.00,1.17
9623.00,1.17
9622.00,1.16
9621.00,1.16
9620.00,1.16
9619.00,1.16
9618.00,1.15
9617.00,1.15
9616.00,1.15
9615.00,1.15
9614.00,1.14
9613.00,1.14
9612.00,1.14
9611.00,1.14
9610.00,1.14
9609.00,1.14
9608.00,1.14
9607.00,1.14
9606.00,1.14
9605.00,1.14
9604.00,1.14
9603.00,1.14
9602.00,1.14
9601.00,1.14
9600.00,1.14
9599.00,1.14
9598.00,1.14
9597.00,1.14
9596.00,1.14
9595.00,1.15
9594.00,1.15
9593.00,1.15
9592.00,1.15
9591.00,1.15
9590.00,1.15
9589.00,1.16
9588.00,1.16
9587.00,1.16
9586.00,1.16
9585.00,1.16
9584.00,1.16
9583.00,1.16
9582.00,1.16
9581.00,1.16
9580.00,1.16
9579.00,1.15
9578.00,1.15
9577.00,1.15
9576.00,1.15
9575.00,1.15
9574.00,1.15
9573.00,1.15
9572.00,1.15
9571.00,1.15
9570.00,1.15
9569.00,1.15
9568.00,1.15
9567.00,1.16
9566.00,1.16
9565.00,1.16
9564.00,1.16
9563.00,1.16
9562.00,1.16
9561.00,1.16
9560.00,1.17
9559.00,1.17
9558.00,1.17
9557.00,1.17
9556.00,1.16
9555.00,1.16
9554.00,1.16
9553.00,1.16
9552.00,1.16
9551.00,1.16
9550.00,1.15
9549.00,1.15
9548.00,1.15
9547.00,1.15
9546.00,1.14
9545.00,1.14
9544.00,1.14
9543.00,1.14
9542.00,1.14
9541.00,1.14
9540.00,1.14
9539.00,1.14
9538.00,1.14
9537.00,1.14
9536.00,1.14
9535.00,1.14
9534.00,1.14
9533.00,1.14
9532.00,1.14
9531.00,1.15
9530.00,1.15
9529.00,1.15
9528.00,1.15
9527.00,1.15
9526.00,1.15
9525.00,1.15
9524.00,1.15
9523.00,1.15
9522.00,1.15
9521.00,1.15
9520.00,1.15
9519.00,1.15
9518.00,1.15
9517.00,1.16
9516.00,1.16
9515.00,1.16
9514.00,1.16
9513.00,1.16
9512.00,1.16
9511.00,1.16
9510.00,1.16
9509.00,1.16
9508.00,1.16
9507.00,1.16
9506.00,1.16
9505.00,1.16
9504.00,1.16
9503.00,1.16
9502.00,1.16
9501.00,1.16
9500.00,1.16
9499.00,1.16
9498.00,1.16
9497.00,1.16
9496.00,1.15
9495.00,1.15
9494.00,1.15
9493.00,1.15
9492.00,1.15
9491.00,1.15
9490.00,1.15
9489.00,1.15
9488.00,1.15
9487.00,1.16
9486.00,1.16
9485.00,1.16
9484.00,1.16
9483.00,1.16
9482.00,1.16
9481.00,1.16
9480.00,1.16
9479.00,1.16
9478.00,1.16
9477.00,1.16
9476.00,1.16
9475.00,1.16
9474.00,1.16
9473.00,1.16
9472.00,1.16
9471.00,1.16
9470.00,1.16
9469.00,1.16
9468.00,1.16
9467.00,1.16
9466.00,1.16
9465.00,1.16
9464.00,1.16
9463.00,1.16
9462.00,1.16
9461.00,1.16
9460.00,1.17
9459.00,1.17
9458.00,1.17
9457.00,1.17
9456.00,1.17
9455.00,1.17
9454.00,1.17
9453.00,1.18
9452.00,1.18
9451.00,1.18
9450.00,1.18
9449.00,1.18
9448.00,1.18
9447.00,1.18
9446.00,1.18
9445.00,1.18
9444.00,1.18
9443.00,1.18
9442.00,1.18
9441.00,1.17
9440.00,1.17
9439.00,1.17
9438.00,1.17
9437.00,1.16
9436.00,1.16
9435.00,1.16
9434.00,1.16
9433.00,1.15
9432.00,1.15
9431.00,1.15
9430.00,1.15
9429.00,1.15
9428.00,1.14
9427.00,1.14
9426.00,1.14
9425.00,1.14
9424.00,1.14
9423.00,1.14
9422.00,1.14
9421.00,1.14
9420.00,1.14
9419.00,1.14
9418.00,1.14
9417.00,1.14
9416.00,1.14
9415.00,1.14
9414.00,1.14
9413.00,1.14
9412.00,1.14
9411.00,1.14
9410.00,1.14
9409.00,1.14
9408.00,1.14
9407.00,1.14
9406.00,1.14
9405.00,1.14
9404.00,1.14
9403.00,1.15
9402.00,1.15
9401.00,1.15
9400.00,1.15
9399.00,1.15
9398.00,1.15
9397.00,1.15
9396.00,1.16
9395.00,1.16
9394.00,1.16
9393.00,1.16
9392.00,1.16
9391.00,1.16
9390.00,1.16
9389.00,1.16
9388.00,1.16
9387.00,1.17
9386.00,1.17
9385.00,1.17
9384.00,1.17
9383.00,1.17
9382.00,1.17
9381.00,1.17
9380.00,1.17
9379.00,1.17
9378.00,1.17
9377.00,1.17
9376.00,1.17
9375.00,1.17
9374.00,1.17
9373.00,1.17
9372.00,1.17
9371.00,1.17
9370.00,1.17
9369.00,1.17
9368.00,1.17
9367.00,1.16
9366.00,1.16
9365.00,1.16
9364.00,1.16
9363.00,1.16
9362.00,1.16
9361.00,1.16
9360.00,1.16
9359.00,1.16
9358.00,1.15
9357.00,1.15
9356.00,1.15
9355.00,1.15
9354.00,1.15
9353.00,1.15
9352.00,1.15
9351.00,1.15
9350.00,1.15
9349.00,1.15
9348.00,1.15
9347.00,1.15
9346.00,1.15
9345.00,1.15
9344.00,1.15
9343.00,1.15
9342.00,1.15
9341.00,1.15
9340.00,1.16
9339.00,1.16
9338.00,1.16
9337.00,1.16
9336.00,1.16
9335.00,1.16
9334.00,1.16
9333.00,1.16
9332.00,1.15
9331.00,1.15
9330.00,1.15
9329.00,1.15
9328.00,1.15
9327.00,1.15
9326.00,1.15
9325.00,1.15
9324.00,1.15
9323.00,1.15
9322.00,1.15
9321.00,1.15
9320.00,1.15
9319.00,1.15
9318.00,1.15
9317.00,1.15
9316.00,1.15
9315.00,1.15
9314.00,1.15
9313.00,1.15
9312.00,1.15
9311.00,1.16
9310.00,1.16
9309.00,1.16
9308.00,1.16
9307.00,1.16
9306.00,1.16
9305.00,1.16
9304.00,1.16
9303.00,1.16
9302.00,1.16
9301.00,1.16
9300.00,1.16
9299.00,1.16
9298.00,1.16
9297.00,1.16
9296.00,1.16
9295.00,1.16
9294.00,1.16
9293.00,1.15
9292.00,1.15
9291.00,1.15
9290.00,1.15
9289.00,1.15
9288.00,1.15
9287.00,1.15
9286.00,1.15
9285.00,1.15
9284.00,1.15
9283.00,1.16
9282.00,1.16
9281.00,1.16
9280.00,1.16
9279.00,1.16
9278.00,1.16
9277.00,1.16
9276.00,1.16
9275.00,1.16
9274.00,1.16
9273.00,1.16
9272.00,1.16
9271.00,1.16
9270.00,1.16
9269.00,1.16
9268.00,1.16
9267.00,1.16
9266.00,1.16
9265.00,1.16
9264.00,1.16
9263.00,1.16
9262.00,1.16
9261.00,1.16
9260.00,1.16
9259.00,1.16
9258.00,1.16
9257.00,1.17
9256.00,1.17
9255.00,1.17
9254.00,1.17
9253.00,1.17
9252.00,1.17
9251.00,1.17
9250.00,1.17
9249.00,1.17
9248.00,1.17
9247.00,1.18
9246.00,1.18
9245.00,1.18
9244.00,1.18
9243.00,1.18
9242.00,1.17
9241.00,1.17
9240.00,1.17
9239.00,1.17
9238.00,1.17
9237.00,1.17
9236.00,1.17
9235.00,1.16
9234.00,1.16
9233.00,1.16
9232.00,1.16
9231.00,1.16
9230.00,1.16
9229.00,1.16
9228.00,1.16
9227.00,1.16
9226.00,1.16
9225.00,1.15
9224.00,1.15
9223.00,1.15
9222.00,1.16
9221.00,1.16
9220.00,1.16
9219.00,1.16
9218.00,1.16
9217.00,1.16
9216.00,1.16
9215.00,1.16
9214.00,1.16
9213.00,1.16
9212.00,1.16
9211.00,1.16
9210.00,1.16
9209.00,1.16
9208.00,1.16
9207.00,1.16
9206.00,1.16
9205.00,1.16
9204.00,1.16
9203.00,1.16
9202.00,1.16
9201.00,1.16
9200.00,1.16
9199.00,1.16
9198.00,1.16
9197.00,1.16
9196.00,1.16
9195.00,1.16
9194.00,1.16
9193.00,1.16
9192.00,1.16
9191.00,1.16
9190.00,1.16
9189.00,1.16
9188.00,1.16
9187.00,1.16
9186.00,1.16
9185.00,1.16
9184.00,1.16
9183.00,1.16
9182.00,1.16
9181.00,1.17
9180.00,1.17
9179.00,1.17
9178.00,1.17
9177.00,1.17
9176.00,1.17
9175.00,1.18
9174.00,1.18
9173.00,1.18
9172.00,1.18
9171.00,1.18
9170.00,1.18
9169.00,1.18
9168.00,1.18
9167.00,1.18
9166.00,1.18
9165.00,1.18
9164.00,1.18
9163.00,1.18
9162.00,1.18
9161.00,1.17
9160.00,1.17
9159.00,1.17
9158.00,1.17
9157.00,1.17
9156.00,1.17
9155.00,1.17
9154.00,1.17
9153.00,1.16
9152.00,1.16
9151.00,1.16
9150.00,1.16
9149.00,1.16
9148.00,1.16
9147.00,1.16
9146.00,1.16
9145.00,1.16
9144.00,1.16
9143.00,1.16
9142.00,1.16
9141.00,1.16
9140.00,1.16
9139.00,1.16
9138.00,1.16
9137.00,1.16
9136.00,1.16
9135.00,1.16
9134.00,1.16
9133.00,1.16
9132.00,1.16
9131.00,1.16
9130.00,1.16
9129.00,1.16
9128.00,1.16
9127.00,1.16
9126.00,1.16
9125.00,1.16
9124.00,1.16
9123.00,1.16
9122.00,1.16
9121.00,1.16
9120.00,1.16
9119.00,1.16
9118.00,1.16
9117.00,1.16
9116.00,1.16
9115.00,1.16
9114.00,1.16
9113.00,1.16
9112.00,1.16
9111.00,1.16
9110.00,1.16
9109.00,1.16
9108.00,1.16
9107.00,1.16
9106.00,1.16
9105.00,1.17
9104.00,1.17
9103.00,1.17
9102.00,1.17
9101.00,1.17
9100.00,1.17
9099.00,1.17
9098.00,1.17
9097.00,1.17
9096.00,1.18
9095.00,1.18
9094.00,1.18
9093.00,1.18
9092.00,1.18
9091.00,1.18
9090.00,1.18
9089.00,1.17
9088.00,1.17
9087.00,1.17
9086.00,1.17
9085.00,1.17
9084.00,1.17
9083.00,1.17
9082.00,1.17
9081.00,1.17
9080.00,1.17
9079.00,1.17
9078.00,1.17
9077.00,1.17
9076.00,1.17
9075.00,1.17
9074.00,1.17
9073.00,1.17
9072.00,1.17
9071.00,1.17
9070.00,1.17
9069.00,1.17
9068.00,1.17
9067.00,1.17
9066.00,1.17
9065.00,1.17
9064.00,1.17
9063.00,1.17
9062.00,1.17
9061.00,1.17
9060.00,1.17
9059.00,1.17
9058.00,1.17
9057.00,1.17
9056.00,1.18
9055.00,1.18
9054.00,1.18
9053.00,1.18
9052.00,1.18
9051.00,1.18
9050.00,1.18
9049.00,1.17
9048.00,1.17
9047.00,1.17
9046.00,1.17
9045.00,1.17
9044.00,1.17
9043.00,1.17
9042.00,1.17
9041.00,1.17
9040.00,1.17
9039.00,1.16
9038.00,1.16
9037.00,1.16
9036.00,1.16
9035.00,1.16
9034.00,1.16
9033.00,1.16
9032.00,1.16
9031.00,1.16
9030.00,1.16
9029.00,1.16
9028.00,1.16
9027.00,1.15
9026.00,1.15
9025.00,1.15
9024.00,1.15
9023.00,1.15
9022.00,1.15
9021.00,1.15
9020.00,1.15
9019.00,1.15
9018.00,1.15
9017.00,1.15
9016.00,1.15
9015.00,1.15
9014.00,1.15
9013.00,1.15
9012.00,1.15
9011.00,1.16
9010.00,1.16
9009.00,1.16
9008.00,1.16
9007.00,1.16
9006.00,1.16
9005.00,1.16
9004.00,1.17
9003.00,1.17
9002.00,1.17
9001.00,1.17
9000.00,1.17
8999.00,1.17
8998.00,1.17
8997.00,1.17
8996.00,1.17
8995.00,1.17
8994.00,1.17
8993.00,1.17
8992.00,1.17
8991.00,1.17
8990.00,1.17
8989.00,1.17
8988.00,1.17
8987.00,1.17
8986.00,1.17
8985.00,1.17
8984.00,1.17
8983.00,1.17
8982.00,1.17
8981.00,1.17
8980.00,1.17
8979.00,1.17
8978.00,1.16
8977.00,1.16
8976.00,1.16
8975.00,1.16
8974.00,1.16
8973.00,1.16
8972.00,1.16
8971.00,1.16
8970.00,1.16
8969.00,1.16
8968.00,1.16
8967.00,1.16
8966.00,1.16
8965.00,1.16
8964.00,1.16
8963.00,1.16
8962.00,1.16
8961.00,1.16
8960.00,1.16
8959.00,1.16
8958.00,1.16
8957.00,1.16
8956.00,1.16
8955.00,1.16
8954.00,1.16
8953.00,1.16
8952.00,1.16
8951.00,1.16
8950.00,1.16
8949.00,1.17
8948.00,1.17
8947.00,1.17
8946.00,1.17
8945.00,1.17
8944.00,1.17
8943.00,1.17
8942.00,1.18
8941.00,1.18
8940.00,1.18
8939.00,1.18
8938.00,1.18
8937.00,1.18
8936.00,1.18
8935.00,1.18
8934.00,1.18
8933.00,1.18
8932.00,1.18
8931.00,1.18
8930.00,1.18
8929.00,1.18
8928.00,1.18
8927.00,1.18
8926.00,1.18
8925.00,1.18
8924.00,1.17
8923.00,1.17
8922.00,1.17
8921.00,1.17
8920.00,1.17
8919.00,1.17
8918.00,1.16
8917.00,1.16
8916.00,1.16
8915.00,1.16
8914.00,1.16
8913.00,1.15
8912.00,1.15
8911.00,1.15
8910.00,1.15
8909.00,1.15
8908.00,1.15
8907.00,1.15
8906.00,1.15
8905.00,1.15
8904.00,1.15
8903.00,1.15
8902.00,1.15
8901.00,1.15
8900.00,1.15
8899.00,1.16
8898.00,1.16
8897.00,1.16
8896.00,1.16
8895.00,1.16
8894.00,1.16
8893.00,1.16
8892.00,1.16
8891.00,1.16
8890.00,1.16
8889.00,1.16
8888.00,1.16
8887.00,1.16
8886.00,1.16
8885.00,1.16
8884.00,1.16
8883.00,1.16
8882.00,1.16
8881.00,1.16
8880.00,1.16
8879.00,1.16
8878.00,1.16
8877.00,1.16
8876.00,1.16
8875.00,1.16
8874.00,1.16
8873.00,1.16
8872.00,1.16
8871.00,1.16
8870.00,1.16
8869.00,1.16
8868.00,1.16
8867.00,1.16
8866.00,1.16
8865.00,1.15
8864.00,1.15
8863.00,1.15
8862.00,1.15
8861.00,1.15
8860.00,1.15
8859.00,1.15
8858.00,1.15
8857.00,1.15
8856.00,1.15
8855.00,1.15
8854.00,1.15
8853.00,1.14
8852.00,1.14
8851.00,1.14
8850.00,1.14
8849.00,1.14
8848.00,1.14
8847.00,1.14
8846.00,1.14
8845.00,1.14
8844.00,1.14
8843.00,1.14
8842.00,1.14
8841.00,1.14
8840.00,1.14
8839.00,1.14
8838.00,1.14
8837.00,1.14
8836.00,1.14
8835.00,1.14
8834.00,1.14
8833.00,1.14
8832.00,1.14
8831.00,1.14
8830.00,1.14
8829.00,1.14
8828.00,1.14
8827.00,1.15
8826.00,1.15
8825.00,1.15
8824.00,1.15
8823.00,1.15
8822.00,1.15
8821.00,1.14
8820.00,1.14
8819.00,1.14
8818.00,1.14
8817.00,1.14
8816.00,1.14
8815.00,1.14
8814.00,1.14
8813.00,1.14
8812.00,1.14
8811.00,1.14
8810.00,1.14
8809.00,1.14
8808.00,1.14
8807.00,1.14
8806.00,1.14
8805.00,1.14
8804.00,1.14
8803.00,1.14
8802.00,1.14
8801.00,1.14
8800.00,1.14
8799.00,1.14
8798.00,1.14
8797.00,1.14
8796.00,1.14
8795.00,1.14
8794.00,1.14
8793.00,1.14
8792.00,1.13
8791.00,1.13
8790.00,1.13
8789.00,1.13
8788.00,1.13
8787.00,1.13
8786.00,1.13
8785.00,1.13
8784.00,1.13
8783.00,1.13
8782.00,1.12
8781.00,1.12
8780.00,1.12
8779.00,1.12
8778.00,1.12
8777.00,1.12
8776.00,1.12
8775.00,1.12
8774.00,1.12
8773.00,1.12
8772.00,1.12
8771.00,1.12
8770.00,1.12
8769.00,1.12
8768.00,1.12
8767.00,1.12
8766.00,1.12
8765.00,1.12
8764.00,1.12
8763.00,1.12
8762.00,1.12
8761.00,1.12
8760.00,1.12
8759.00,1.12
8758.00,1.12
8757.00,1.12
8756.00,1.12
8755.00,1.12
8754.00,1.12
8753.00,1.12
8752.00,1.12
8751.00,1.12
8750.00,1.12
8749.00,1.12
8748.00,1.12
8747.00,1.12
8746.00,1.12
8745.00,1.12
8744.00,1.12
8743.00,1.12
8742.00,1.12
8741.00,1.12
8740.00,1.12
8739.00,1.12
8738.00,1.12
8737.00,1.12
8736.00,1.12
8735.00,1.12
8734.00,1.12
8733.00,1.12
8732.00,1.12
8731.00,1.12
8730.00,1.12
8729.00,1.11
8728.00,1.11
8727.00,1.11
8726.00,1.11
8725.00,1.11
8724.00,1.11
8723.00,1.10
8722.00,1.10
8721.00,1.10
8720.00,1.10
8719.00,1.10
8718.00,1.09
8717.00,1.09
8716.00,1.09
8715.00,1.09
8714.00,1.09
8713.00,1.09
8712.00,1.09
8711.00,1.09
8710.00,1.09
8709.00,1.09
8708.00,1.09
8707.00,1.09
8706.00,1.10
8705.00,1.10
8704.00,1.10
8703.00,1.10
8702.00,1.10
8701.00,1.10
8700.00,1.10
8699.00,1.11
8698.00,1.11
8697.00,1.11
8696.00,1.11
8695.00,1.11
8694.00,1.11
8693.00,1.11
8692.00,1.11
8691.00,1.11
8690.00,1.11
8689.00,1.11
8688.00,1.10
8687.00,1.10
8686.00,1.10
8685.00,1.10
8684.00,1.10
8683.00,1.10
8682.00,1.10
8681.00,1.10
8680.00,1.09
8679.00,1.09
8678.00,1.09
8677.00,1.09
8676.00,1.09
8675.00,1.09
8674.00,1.09
8673.00,1.09
8672.00,1.09
8671.00,1.09
8670.00,1.09
8669.00,1.09
8668.00,1.09
8667.00,1.09
8666.00,1.09
8665.00,1.09
8664.00,1.09
8663.00,1.09
8662.00,1.09
8661.00,1.09
8660.00,1.09
8659.00,1.09
8658.00,1.09
8657.00,1.09
8656.00,1.09
8655.00,1.09
8654.00,1.09
8653.00,1.09
8652.00,1.09
8651.00,1.09
8650.00,1.09
8649.00,1.09
8648.00,1.09
8647.00,1.09
8646.00,1.09
8645.00,1.09
8644.00,1.09
8643.00,1.09
8642.00,1.09
8641.00,1.09
8640.00,1.09
8639.00,1.09
8638.00,1.09
8637.00,1.09
8636.00,1.09
8635.00,1.09
8634.00,1.09
8633.00,1.09
8632.00,1.09
8631.00,1.09
8630.00,1.09
8629.00,1.09
8628.00,1.09
8627.00,1.09
8626.00,1.08
8625.00,1.08
8624.00,1.08
8623.00,1.08
8622.00,1.08
8621.00,1.08
8620.00,1.08
8619.00,1.08
8618.00,1.08
8617.00,1.08
8616.00,1.08
8615.00,1.08
8614.00,1.08
8613.00,1.08
8612.00,1.08
8611.00,1.08
8610.00,1.08
8609.00,1.08
8608.00,1.08
8607.00,1.08
8606.00,1.08
8605.00,1.08
8604.00,1.08
8603.00,1.08
8602.00,1.08
8601.00,1.08
8600.00,1.08
8599.00,1.08
8598.00,1.08
8597.00,1.08
8596.00,1.08
8595.00,1.08
8594.00,1.08
8593.00,1.08
8592.00,1.08
8591.00,1.08
8590.00,1.08
8589.00,1.08
8588.00,1.08
8587.00,1.08
8586.00,1.08
8585.00,1.08
8584.00,1.08
8583.00,1.08
8582.00,1.08
8581.00,1.08
8580.00,1.07
8579.00,1.07
8578.00,1.07
8577.00,1.07
8576.00,1.07
8575.00,1.07
8574.00,1.07
8573.00,1.06
8572.00,1.06
8571.00,1.06
8570.00,1.06
8569.00,1.05
8568.00,1.05
8567.00,1.05
8566.00,1.05
8565.00,1.05
8564.00,1.05
8563.00,1.04
8562.00,1.04
8561.00,1.04
8560.00,1.04
8559.00,1.04
8558.00,1.04
8557.00,1.04
8556.00,1.04
8555.00,1.04
8554.00,1.04
8553.00,1.04
8552.00,1.04
8551.00,1.04
8550.00,1.04
8549.00,1.04
8548.00,1.04
8547.00,1.04
8546.00,1.03
8545.00,1.03
8544.00,1.03
8543.00,1.03
8542.00,1.03
8541.00,1.03
8540.00,1.03
8539.00,1.03
8538.00,1.03
8537.00,1.03
8536.00,1.04
8535.00,1.04
8534.00,1.04
8533.00,1.04
8532.00,1.04
8531.00,1.04
8530.00,1.04
8529.00,1.04
8528.00,1.04
8527.00,1.04
8526.00,1.04
8525.00,1.04
8524.00,1.04
8523.00,1.04
8522.00,1.04
8521.00,1.04
8520.00,1.04
8519.00,1.04
8518.00,1.04
8517.00,1.04
8516.00,1.04
8515.00,1.04
8514.00,1.03
8513.00,1.03
8512.00,1.03
8511.00,1.03
8510.00,1.03
8509.00,1.02
8508.00,1.02
8507.00,1.02
8506.00,1.02
8505.00,1.02
8504.00,1.02
8503.00,1.02
8502.00,1.02
8501.00,1.02
8500.00,1.02
8499.00,1.02
8498.00,1.02
8497.00,1.02
8496.00,1.02
8495.00,1.02
8494.00,1.02
8493.00,1.02
8492.00,1.02
8491.00,1.02
8490.00,1.01
8489.00,1.01
8488.00,1.01
8487.00,1.01
8486.00,1.01
8485.00,1.01
8484.00,1.01
8483.00,1.01
8482.00,1.01
8481.00,1.00
8480.00,1.00
8479.00,1.00
8478.00,1.00
8477.00,1.00
8476.00,1.00
8475.00,1.00
8474.00,1.00
8473.00,1.00
8472.00,1.00
8471.00,1.00
8470.00,1.00
8469.00,1.00
8468.00,1.00
8467.00,1.00
8466.00,1.00
8465.00,1.00
8464.00,1.00
8463.00,1.00
8462.00,1.00
8461.00,1.00
8460.00,0.99
8459.00,0.99
8458.00,0.99
8457.00,0.99
8456.00,0.99
8455.00,0.99
8454.00,0.99
8453.00,0.99
8452.00,0.99
8451.00,0.99
8450.00,0.98
8449.00,0.98
8448.00,0.98
8447.00,0.98
8446.00,0.98
8445.00,0.98
8444.00,0.98
8443.00,0.98
8442.00,0.98
8441.00,0.98
8440.00,0.98
8439.00,0.98
8438.00,0.98
8437.00,0.98
8436.00,0.98
8435.00,0.98
8434.00,0.98
8433.00,0.98
8432.00,0.98
8431.00,0.98
8430.00,0.98
8429.00,0.98
8428.00,0.98
8427.00,0.98
8426.00,0.98
8425.00,0.98
8424.00,0.98
8423.00,0.98
8422.00,0.98
8421.00,0.99
8420.00,0.99
8419.00,0.99
8418.00,0.99
8417.00,0.99
8416.00,0.99
8415.00,0.99
8414.00,1.00
8413.00,1.00
8412.00,1.00
8411.00,1.00
8410.00,1.00
8409.00,1.00
8408.00,1.00
8407.00,1.00
8406.00,1.00
8405.00,1.01
8404.00,1.01
8403.00,1.01
8402.00,1.01
8401.00,1.01
8400.00,1.01
8399.00,1.01
8398.00,1.01
8397.00,1.01
8396.00,1.01
8395.00,1.01
8394.00,1.01
8393.00,1.01
8392.00,1.01
8391.00,1.01
8390.00,1.01
8389.00,1.01
8388.00,1.01
8387.00,1.02
8386.00,1.02
8385.00,1.02
8384.00,1.02
8383.00,1.02
8382.00,1.02
8381.00,1.02
8380.00,1.02
8379.00,1.02
8378.00,1.02
8377.00,1.02
8376.00,1.02
8375.00,1.02
8374.00,1.02
8373.00,1.02
8372.00,1.02
8371.00,1.02
8370.00,1.02
8369.00,1.02
8368.00,1.02
8367.00,1.02
8366.00,1.02
8365.00,1.02
8364.00,1.02
8363.00,1.02
8362.00,1.02
8361.00,1.03
8360.00,1.03
8359.00,1.03
8358.00,1.03
8357.00,1.03
8356.00,1.03
8355.00,1.03
8354.00,1.03
8353.00,1.03
8352.00,1.03
8351.00,1.04
8350.00,1.04
8349.00,1.04
8348.00,1.04
8347.00,1.04
8346.00,1.04
8345.00,1.04
8344.00,1.04
8343.00,1.04
8342.00,1.04
8341.00,1.04
8340.00,1.04
8339.00,1.04
8338.00,1.04
8337.00,1.04
8336.00,1.04
8335.00,1.04
8334.00,1.04
8333.00,1.04
8332.00,1.04
8331.00,1.04
8330.00,1.04
8329.00,1.04
8328.00,1.04
8327.00,1.04
8326.00,1.04
8325.00,1.04
8324.00,1.04
8323.00,1.04
8322.00,1.04
8321.00,1.04
8320.00,1.04
8319.00,1.04
8318.00,1.04
8317.00,1.04
8316.00,1.04
8315.00,1.04
8314.00,1.04
8313.00,1.04
8312.00,1.04
8311.00,1.04
8310.00,1.04
8309.00,1.04
8308.00,1.04
8307.00,1.04
8306.00,1.04
8305.00,1.04
8304.00,1.04
8303.00,1.04
8302.00,1.04
8301.00,1.04
8300.00,1.04
8299.00,1.04
8298.00,1.04
8297.00,1.03
8296.00,1.03
8295.00,1.03
8294.00,1.03
8293.00,1.03
8292.00,1.03
8291.00,1.03
8290.00,1.03
8289.00,1.03
8288.00,1.02
8287.00,1.02
8286.00,1.02
8285.00,1.02
8284.00,1.02
8283.00,1.02
8282.00,1.02
8281.00,1.02
8280.00,1.03
8279.00,1.03
8278.00,1.03
8277.00,1.03
8276.00,1.03
8275.00,1.03
8274.00,1.04
8273.00,1.04
8272.00,1.04
8271.00,1.04
8270.00,1.05
8269.00,1.05
8268.00,1.05
8267.00,1.05
8266.00,1.05
8265.00,1.06
8264.00,1.06
8263.00,1.06
8262.00,1.06
8261.00,1.06
8260.00,1.06
8259.00,1.06
8258.00,1.06
8257.00,1.06
8256.00,1.06
8255.00,1.06
8254.00,1.06
8253.00,1.06
8252.00,1.06
8251.00,1.06
8250.00,1.06
8249.00,1.06
8248.00,1.06
8247.00,1.06
8246.00,1.06
8245.00,1.06
8244.00,1.06
8243.00,1.06
8242.00,1.06
8241.00,1.06
8240.00,1.06
8239.00,1.06
8238.00,1.06
8237.00,1.06
8236.00,1.06
8235.00,1.06
8234.00,1.06
8233.00,1.06
8232.00,1.06
8231.00,1.06
8230.00,1.06
8229.00,1.06
8228.00,1.06
8227.00,1.06
8226.00,1.06
8225.00,1.06
8224.00,1.06
8223.00,1.06
8222.00,1.06
8221.00,1.06
8220.00,1.06
8219.00,1.06
8218.00,1.06
8217.00,1.06
8216.00,1.06
8215.00,1.06
8214.00,1.06
8213.00,1.06
8212.00,1.06
8211.00,1.06
8210.00,1.06
8209.00,1.06
8208.00,1.06
8207.00,1.06
8206.00,1.06
8205.00,1.06
8204.00,1.06
8203.00,1.07
8202.00,1.07
8201.00,1.07
8200.00,1.07
8199.00,1.07
8198.00,1.07
8197.00,1.07
8196.00,1.08
8195.00,1.08
8194.00,1.08
8193.00,1.08
8192.00,1.08
8191.00,1.08
8190.00,1.08
8189.00,1.08
8188.00,1.08
8187.00,1.08
8186.00,1.08
8185.00,1.09
8184.00,1.09
8183.00,1.09
8182.00,1.09
8181.00,1.09
8180.00,1.09
8179.00,1.09
8178.00,1.09
8177.00,1.09
8176.00,1.09
8175.00,1.09
8174.00,1.09
8173.00,1.09
8172.00,1.09
8171.00,1.09
8170.00,1.09
8169.00,1.09
8168.00,1.09
8167.00,1.09
8166.00,1.09
8165.00,1.09
8164.00,1.09
8163.00,1.09
8162.00,1.09
8161.00,1.09
8160.00,1.09
8159.00,1.09
8158.00,1.10
8157.00,1.10
8156.00,1.10
8155.00,1.10
8154.00,1.10
8153.00,1.10
8152.00,1.10
8151.00,1.10
8150.00,1.10
8149.00,1.10
8148.00,1.10
8147.00,1.10
8146.00,1.10
8145.00,1.10
8144.00,1.10
8143.00,1.10
8142.00,1.10
8141.00,1.10
8140.00,1.10
8139.00,1.10
8138.00,1.10
8137.00,1.10
8136.00,1.10
8135.00,1.10
8134.00,1.10
8133.00,1.10
8132.00,1.10
8131.00,1.10
8130.00,1.10
8129.00,1.10
8128.00,1.10
8127.00,1.10
8126.00,1.10
8125.00,1.10
8124.00,1.10
8123.00,1.10
8122.00,1.10
8121.00,1.10
8120.00,1.10
8119.00,1.10
8118.00,1.10
8117.00,1.10
8116.00,1.10
8115.00,1.10
8114.00,1.10
8113.00,1.10
8112.00,1.10
8111.00,1.11
8110.00,1.11
8109.00,1.11
8108.00,1.11
8107.00,1.11
8106.00,1.11
8105.00,1.11
8104.00,1.11
8103.00,1.11
8102.00,1.11
8101.00,1.12
8100.00,1.12
8099.00,1.12
8098.00,1.12
8097.00,1.12
8096.00,1.12
8095.00,1.12
8094.00,1.12
8093.00,1.12
8092.00,1.12
8091.00,1.12
8090.00,1.12
8089.00,1.12
8088.00,1.12
8087.00,1.12
8086.00,1.12
8085.00,1.12
8084.00,1.12
8083.00,1.12
8082.00,1.12
8081.00,1.12
8080.00,1.12
8079.00,1.12
8078.00,1.12
8077.00,1.12
8076.00,1.12
8075.00,1.12
8074.00,1.12
8073.00,1.12
8072.00,1.12
8071.00,1.12
8070.00,1.12
8069.00,1.12
8068.00,1.12
8067.00,1.12
8066.00,1.12
8065.00,1.12
8064.00,1.12
8063.00,1.12
8062.00,1.12
8061.00,1.13
8060.00,1.13
8059.00,1.13
8058.00,1.13
8057.00,1.13
8056.00,1.13
8055.00,1.13
8054.00,1.13
8053.00,1.13
8052.00,1.13
8051.00,1.13
8050.00,1.13
8049.00,1.13
8048.00,1.13
8047.00,1.13
8046.00,1.13
8045.00,1.13
8044.00,1.13
8043.00,1.13
8042.00,1.13
8041.00,1.13
8040.00,1.13
8039.00,1.13
8038.00,1.13
8037.00,1.14
8036.00,1.14
8035.00,1.14
8034.00,1.14
8033.00,1.14
8032.00,1.14
8031.00,1.14
8030.00,1.14
8029.00,1.14
8028.00,1.14
8027.00,1.14
8026.00,1.14
8025.00,1.14
8024.00,1.14
8023.00,1.14
8022.00,1.14
8021.00,1.14
8020.00,1.14
8019.00,1.14
8018.00,1.14
8017.00,1.14
8016.00,1.14
8015.00,1.14
8014.00,1.14
8013.00,1.13
8012.00,1.13
8011.00,1.13
8010.00,1.13
8009.00,1.13
8008.00,1.13
8007.00,1.13
8006.00,1.13
8005.00,1.13
8004.00,1.13
8003.00,1.13
8002.00,1.13
8001.00,1.13
8000.00,1.13
7999.00,1.13
7998.00,1.13
7997.00,1.14
7996.00,1.14
7995.00,1.14
7994.00,1.14
7993.00,1.14
7992.00,1.14
7991.00,1.14
7990.00,1.14
7989.00,1.14
7988.00,1.14
7987.00,1.14
7986.00,1.14
7985.00,1.14
7984.00,1.14
7983.00,1.14
7982.00,1.14
7981.00,1.14
7980.00,1.14
7979.00,1.14
7978.00,1.14
7977.00,1.14
7976.00,1.14
7975.00,1.14
7974.00,1.14
7973.00,1.14
7972.00,1.14
7971.00,1.14
7970.00,1.14
7969.00,1.14
7968.00,1.14
7967.00,1.14
7966.00,1.14
7965.00,1.14
7964.00,1.14
7963.00,1.14
7962.00,1.14
7961.00,1.14
7960.00,1.14
7959.00,1.14
7958.00,1.14
7957.00,1.14
7956.00,1.14
7955.00,1.14
7954.00,1.14
7953.00,1.14
7952.00,1.14
7951.00,1.14
7950.00,1.14
7949.00,1.14
7948.00,1.14
7947.00,1.14
7946.00,1.14
7945.00,1.14
7944.00,1.14
7943.00,1.14
7942.00,1.14
7941.00,1.14
7940.00,1.14
7939.00,1.14
7938.00,1.14
7937.00,1.14
7936.00,1.14
7935.00,1.14
7934.00,1.14
7933.00,1.14
7932.00,1.14
7931.00,1.14
7930.00,1.14
7929.00,1.15
7928.00,1.15
7927.00,1.15
7926.00,1.15
7925.00,1.15
7924.00,1.15
7923.00,1.15
7922.00,1.15
7921.00,1.15
7920.00,1.15
7919.00,1.15
7918.00,1.15
7917.00,1.15
7916.00,1.15
7915.00,1.15
7914.00,1.15
7913.00,1.15
7912.00,1.15
7911.00,1.15
7910.00,1.15
7909.00,1.15
7908.00,1.15
7907.00,1.15
7906.00,1.15
7905.00,1.15
7904.00,1.15
7903.00,1.15
7902.00,1.16
7901.00,1.16
7900.00,1.16
7899.00,1.16
7898.00,1.16
7897.00,1.16
7896.00,1.16
7895.00,1.16
7894.00,1.16
7893.00,1.16
7892.00,1.16
7891.00,1.16
7890.00,1.16
7889.00,1.16
7888.00,1.16
7887.00,1.16
7886.00,1.16
7885.00,1.16
7884.00,1.16
7883.00,1.16
7882.00,1.16
7881.00,1.17
7880.00,1.17
7879.00,1.17
7878.00,1.17
7877.00,1.17
7876.00,1.17
7875.00,1.17
7874.00,1.17
7873.00,1.17
7872.00,1.17
7871.00,1.17
7870.00,1.17
7869.00,1.17
7868.00,1.16
7867.00,1.16
7866.00,1.16
7865.00,1.16
7864.00,1.16
7863.00,1.16
7862.00,1.16
7861.00,1.16
7860.00,1.16
7859.00,1.16
7858.00,1.16
7857.00,1.16
7856.00,1.16
7855.00,1.16
7854.00,1.16
7853.00,1.16
7852.00,1.16
7851.00,1.16
7850.00,1.16
7849.00,1.16
7848.00,1.16
7847.00,1.16
7846.00,1.16
7845.00,1.16
7844.00,1.16
7843.00,1.16
7842.00,1.16
7841.00,1.16
7840.00,1.16
7839.00,1.16
7838.00,1.16
7837.00,1.16
7836.00,1.17
7835.00,1.17
7834.00,1.17
7833.00,1.17
7832.00,1.17
7831.00,1.17
7830.00,1.17
7829.00,1.17
7828.00,1.17
7827.00,1.17
7826.00,1.17
7825.00,1.17
7824.00,1.17
7823.00,1.17
7822.00,1.17
7821.00,1.18
7820.00,1.18
7819.00,1.17
7818.00,1.17
7817.00,1.17
7816.00,1.17
7815.00,1.17
7814.00,1.17
7813.00,1.17
7812.00,1.17
7811.00,1.17
7810.00,1.17
7809.00,1.17
7808.00,1.17
7807.00,1.17
7806.00,1.17
7805.00,1.16
7804.00,1.16
7803.00,1.16
7802.00,1.16
7801.00,1.16
7800.00,1.16
7799.00,1.16
7798.00,1.16
7797.00,1.16
7796.00,1.16
7795.00,1.16
7794.00,1.16
7793.00,1.16
7792.00,1.16
7791.00,1.16
7790.00,1.16
7789.00,1.16
7788.00,1.17
7787.00,1.17
7786.00,1.17
7785.00,1.17
7784.00,1.17
7783.00,1.17
7782.00,1.17
7781.00,1.18
7780.00,1.18
7779.00,1.18
7778.00,1.18
7777.00,1.18
7776.00,1.18
7775.00,1.18
7774.00,1.18
7773.00,1.18
7772.00,1.18
7771.00,1.18
7770.00,1.18
7769.00,1.18
7768.00,1.18
7767.00,1.18
7766.00,1.18
7765.00,1.18
7764.00,1.18
7763.00,1.18
7762.00,1.17
7761.00,1.17
7760.00,1.17
7759.00,1.17
7758.00,1.17
7757.00,1.17
7756.00,1.17
7755.00,1.17
7754.00,1.17
7753.00,1.17
7752.00,1.17
7751.00,1.17
7750.00,1.17
7749.00,1.17
7748.00,1.17
7747.00,1.17
7746.00,1.17
7745.00,1.17
7744.00,1.17
7743.00,1.17
7742.00,1.17
7741.00,1.17
7740.00,1.17
7739.00,1.17
7738.00,1.17
7737.00,1.17
7736.00,1.17
7735.00,1.17
7734.00,1.18
7733.00,1.18
7732.00,1.18
7731.00,1.18
7730.00,1.18
7729.00,1.18
7728.00,1.18
7727.00,1.18
7726.00,1.18
7725.00,1.18
7724.00,1.18
7723.00,1.18
7722.00,1.18
7721.00,1.18
7720.00,1.18
7719.00,1.18
7718.00,1.18
7717.00,1.18
7716.00,1.18
7715.00,1.18
7714.00,1.18
7713.00,1.18
7712.00,1.18
7711.00,1.18
7710.00,1.18
7709.00,1.17
7708.00,1.17
7707.00,1.17
7706.00,1.17
7705.00,1.17
7704.00,1.17
7703.00,1.17
7702.00,1.17
7701.00,1.17
7700.00,1.17
7699.00,1.17
7698.00,1.17
7697.00,1.17
7696.00,1.17
7695.00,1.17
7694.00,1.17
7693.00,1.17
7692.00,1.17
7691.00,1.17
7690.00,1.17
7689.00,1.17
7688.00,1.17
7687.00,1.18
7686.00,1.18
7685.00,1.18
7684.00,1.18
7683.00,1.18
7682.00,1.18
7681.00,1.18
7680.00,1.18
7679.00,1.18
7678.00,1.18
7677.00,1.18
7676.00,1.18
7675.00,1.18
7674.00,1.18
7673.00,1.18
7672.00,1.18
7671.00,1.18
7670.00,1.18
7669.00,1.18
7668.00,1.18
7667.00,1.18
7666.00,1.18
7665.00,1.18
7664.00,1.18
7663.00,1.18
7662.00,1.18
7661.00,1.18
7660.00,1.18
7659.00,1.18
7658.00,1.18
7657.00,1.18
7656.00,1.18
7655.00,1.18
7654.00,1.18
7653.00,1.18
7652.00,1.18
7651.00,1.18
7650.00,1.18
7649.00,1.18
7648.00,1.18
7647.00,1.18
7646.00,1.18
7645.00,1.18
7644.00,1.18
7643.00,1.18
7642.00,1.18
7641.00,1.18
7640.00,1.18
7639.00,1.18
7638.00,1.18
7637.00,1.18
7636.00,1.18
7635.00,1.18
7634.00,1.18
7633.00,1.18
7632.00,1.18
7631.00,1.18
7630.00,1.18
7629.00,1.18
7628.00,1.18
7627.00,1.18
7626.00,1.18
7625.00,1.18
7624.00,1.18
7623.00,1.18
7622.00,1.18
7621.00,1.18
7620.00,1.18
7619.00,1.18
7618.00,1.18
7617.00,1.18
7616.00,1.18
7615.00,1.18
7614.00,1.18
7613.00,1.18
7612.00,1.18
7611.00,1.18
7610.00,1.18
7609.00,1.18
7608.00,1.18
7607.00,1.18
7606.00,1.18
7605.00,1.18
7604.00,1.18
7603.00,1.18
7602.00,1.18
7601.00,1.18
7600.00,1.18
7599.00,1.18
7598.00,1.18
7597.00,1.18
7596.00,1.18
7595.00,1.18
7594.00,1.18
7593.00,1.18
7592.00,1.18
7591.00,1.18
7590.00,1.18
7589.00,1.18
7588.00,1.18
7587.00,1.18
7586.00,1.18
7585.00,1.18
7584.00,1.18
7583.00,1.18
7582.00,1.18
7581.00,1.18
7580.00,1.18
7579.00,1.18
7578.00,1.18
7577.00,1.18
7576.00,1.18
7575.00,1.18
7574.00,1.18
7573.00,1.18
7572.00,1.18
7571.00,1.18
7570.00,1.18
7569.00,1.18
7568.00,1.17
7567.00,1.17
7566.00,1.17
7565.00,1.17
7564.00,1.17
7563.00,1.17
7562.00,1.17
7561.00,1.17
7560.00,1.17
7559.00,1.16
7558.00,1.16
7557.00,1.16
7556.00,1.16
7555.00,1.16
7554.00,1.16
7553.00,1.16
7552.00,1.16
7551.00,1.16
7550.00,1.16
7549.00,1.16
7548.00,1.16
7547.00,1.16
7546.00,1.16
7545.00,1.16
7544.00,1.16
7543.00,1.16
7542.00,1.16
7541.00,1.16
7540.00,1.16
7539.00,1.16
7538.00,1.16
7537.00,1.16
7536.00,1.16
7535.00,1.16
7534.00,1.16
7533.00,1.16
7532.00,1.16
7531.00,1.17
7530.00,1.17
7529.00,1.17
7528.00,1.17
7527.00,1.17
7526.00,1.17
7525.00,1.17
7524.00,1.17
7523.00,1.17
7522.00,1.17
7521.00,1.17
7520.00,1.17
7519.00,1.17
7518.00,1.17
7517.00,1.17
7516.00,1.17
7515.00,1.16
7514.00,1.16
7513.00,1.16
7512.00,1.16
7511.00,1.16
7510.00,1.16
7509.00,1.16
7508.00,1.16
7507.00,1.16
7506.00,1.16
7505.00,1.16
7504.00,1.16
7503.00,1.16
7502.00,1.16
7501.00,1.16
7500.00,1.16
7499.00,1.16
7498.00,1.16
7497.00,1.16
7496.00,1.15
7495.00,1.15
7494.00,1.15
7493.00,1.15
7492.00,1.15
7491.00,1.15
7490.00,1.15
7489.00,1.15
7488.00,1.14
7487.00,1.14
7486.00,1.14
7485.00,1.14
7484.00,1.14
7483.00,1.14
7482.00,1.14
7481.00,1.14
7480.00,1.14
7479.00,1.14
7478.00,1.13
7477.00,1.13
7476.00,1.13
7475.00,1.13
7474.00,1.13
7473.00,1.13
7472.00,1.13
7471.00,1.13
7470.00,1.13
7469.00,1.13
7468.00,1.13
7467.00,1.13
7466.00,1.13
7465.00,1.13
7464.00,1.13
7463.00,1.13
7462.00,1.13
7461.00,1.13
7460.00,1.13
7459.00,1.13
7458.00,1.13
7457.00,1.13
7456.00,1.13
7455.00,1.13
7454.00,1.13
7453.00,1.13
7452.00,1.13
7451.00,1.13
7450.00,1.12
7449.00,1.12
7448.00,1.12
7447.00,1.12
7446.00,1.12
7445.00,1.12
7444.00,1.12
7443.00,1.12
7442.00,1.12
7441.00,1.12
7440.00,1.12
7439.00,1.12
7438.00,1.12
7437.00,1.12
7436.00,1.12
7435.00,1.11
7434.00,1.11
7433.00,1.11
7432.00,1.11
7431.00,1.11
7430.00,1.11
7429.00,1.11
7428.00,1.11
7427.00,1.11
7426.00,1.11
7425.00,1.11
7424.00,1.11
7423.00,1.11
7422.00,1.11
7421.00,1.11
7420.00,1.11
7419.00,1.11
7418.00,1.11
7417.00,1.10
7416.00,1.10
7415.00,1.10
7414.00,1.10
7413.00,1.10
7412.00,1.10
7411.00,1.10
7410.00,1.10
7409.00,1.09
7408.00,1.09
7407.00,1.09
7406.00,1.09
7405.00,1.09
7404.00,1.09
7403.00,1.09
7402.00,1.09
7401.00,1.09
7400.00,1.09
7399.00,1.09
7398.00,1.09
7397.00,1.09
7396.00,1.08
7395.00,1.08
7394.00,1.08
7393.00,1.08
7392.00,1.08
7391.00,1.08
7390.00,1.08
7389.00,1.08
7388.00,1.08
7387.00,1.07
7386.00,1.07
7385.00,1.07
7384.00,1.07
7383.00,1.07
7382.00,1.07
7381.00,1.07
7380.00,1.07
7379.00,1.06
7378.00,1.06
7377.00,1.06
7376.00,1.06
7375.00,1.06
7374.00,1.06
7373.00,1.06
7372.00,1.06
7371.00,1.06
7370.00,1.06
7369.00,1.06
7368.00,1.06
7367.00,1.06
7366.00,1.05
7365.00,1.05
7364.00,1.05
7363.00,1.05
7362.00,1.05
7361.00,1.05
7360.00,1.05
7359.00,1.05
7358.00,1.05
7357.00,1.05
7356.00,1.04
7355.00,1.04
7354.00,1.04
7353.00,1.04
7352.00,1.04
7351.00,1.04
7350.00,1.04
7349.00,1.04
7348.00,1.04
7347.00,1.04
7346.00,1.04
7345.00,1.04
7344.00,1.04
7343.00,1.04
7342.00,1.04
7341.00,1.04
7340.00,1.04
7339.00,1.04
7338.00,1.04
7337.00,1.04
7336.00,1.04
7335.00,1.04
7334.00,1.04
7333.00,1.04
7332.00,1.04
7331.00,1.04
7330.00,1.04
7329.00,1.04
7328.00,1.04
7327.00,1.04
7326.00,1.04
7325.00,1.04
7324.00,1.04
7323.00,1.04
7322.00,1.04
7321.00,1.04
7320.00,1.03
7319.00,1.03
7318.00,1.03
7317.00,1.03
7316.00,1.03
7315.00,1.03
7314.00,1.02
7313.00,1.02
7312.00,1.02
7311.00,1.02
7310.00,1.02
7309.00,1.02
7308.00,1.01
7307.00,1.01
7306.00,1.01
7305.00,1.01
7304.00,1.01
7303.00,1.01
7302.00,1.01
7301.00,1.01
7300.00,1.01
7299.00,1.01
7298.00,1.01
7297.00,1.01
7296.00,1.01
7295.00,1.01
7294.00,1.01
7293.00,1.01
7292.00,1.01
7291.00,1.00
7290.00,1.00
7289.00,1.00
7288.00,1.00
7287.00,1.00
7286.00,1.00
7285.00,1.00
7284.00,0.99
7283.00,0.99
7282.00,0.99
7281.00,0.99
7280.00,0.99
7279.00,0.99
7278.00,0.99
7277.00,0.99
7276.00,0.99
7275.00,0.99
7274.00,0.98
7273.00,0.98
7272.00,0.98
7271.00,0.98
7270.00,0.98
7269.00,0.98
7268.00,0.98
7267.00,0.98
7266.00,0.98
7265.00,0.98
7264.00,0.98
7263.00,0.97
7262.00,0.97
7261.00,0.97
7260.00,0.97
7259.00,0.97
7258.00,0.96
7257.00,0.96
7256.00,0.96
7255.00,0.96
7254.00,0.96
7253.00,0.95
7252.00,0.95
7251.00,0.95
7250.00,0.95
7249.00,0.94
7248.00,0.94
7247.00,0.94
7246.00,0.94
7245.00,0.93
7244.00,0.93
7243.00,0.93
7242.00,0.93
7241.00,0.92
7240.00,0.92
7239.00,0.92
7238.00,0.92
7237.00,0.91
7236.00,0.91
7235.00,0.91
7234.00,0.91
7233.00,0.91
7232.00,0.91
7231.00,0.90
7230.00,0.90
7229.00,0.90
7228.00,0.90
7227.00,0.90
7226.00,0.89
7225.00,0.89
7224.00,0.89
7223.00,0.89
7222.00,0.88
7221.00,0.88
7220.00,0.88
7219.00,0.88
7218.00,0.87
7217.00,0.87
7216.00,0.87
7215.00,0.86
7214.00,0.86
7213.00,0.86
7212.00,0.85
7211.00,0.85
7210.00,0.85
7209.00,0.84
7208.00,0.84
7207.00,0.84
7206.00,0.83
7205.00,0.83
7204.00,0.83
7203.00,0.82
7202.00,0.82
7201.00,0.82
7200.00,0.81
7199.00,0.81
7198.00,0.81
7197.00,0.81
7196.00,0.80
7195.00,0.80
7194.00,0.80
7193.00,0.79
7192.00,0.79
7191.00,0.79
7190.00,0.79
7189.00,0.78
7188.00,0.78
7187.00,0.78
7186.00,0.77
7185.00,0.77
7184.00,0.77
7183.00,0.77
7182.00,0.76
7181.00,0.76
7180.00,0.76
7179.00,0.75
7178.00,0.75
7177.00,0.75
7176.00,0.75
7175.00,0.74
7174.00,0.74
7173.00,0.74
7172.00,0.74
7171.00,0.74
7170.00,0.73
7169.00,0.73
7168.00,0.73
7167.00,0.73
7166.00,0.73
7165.00,0.73
7164.00,0.73
7163.00,0.72
7162.00,0.72
7161.00,0.72
7160.00,0.72
7159.00,0.72
7158.00,0.72
7157.00,0.71
7156.00,0.71
7155.00,0.71
7154.00,0.71
7153.00,0.71
7152.00,0.70
7151.00,0.70
7150.00,0.70
7149.00,0.70
7148.00,0.69
7147.00,0.69
7146.00,0.69
7145.00,0.69
7144.00,0.69
7143.00,0.69
7142.00,0.68
7141.00,0.68
7140.00,0.68
7139.00,0.68
7138.00,0.68
7137.00,0.68
7136.00,0.67
7135.00,0.67
7134.00,0.67
7133.00,0.67
7132.00,0.67
7131.00,0.67
7130.00,0.66
7129.00,0.66
7128.00,0.66
7127.00,0.66
7126.00,0.66
7125.00,0.65
7124.00,0.65
7123.00,0.65
7122.00,0.65
7121.00,0.64
7120.00,0.64
7119.00,0.64
7118.00,0.63
7117.00,0.63
7116.00,0.63
7115.00,0.63
7114.00,0.62
7113.00,0.62
7112.00,0.62
7111.00,0.61
7110.00,0.61
7109.00,0.61
7108.00,0.61
7107.00,0.61
7106.00,0.60
7105.00,0.60
7104.00,0.60
7103.00,0.60
7102.00,0.60
7101.00,0.60
7100.00,0.59
7099.00,0.59
7098.00,0.59
7097.00,0.59
7096.00,0.59
7095.00,0.59
7094.00,0.59
7093.00,0.59
7092.00,0.59
7091.00,0.59
7090.00,0.58
7089.00,0.58
7088.00,0.58
7087.00,0.58
7086.00,0.58
7085.00,0.58
7084.00,0.58
7083.00,0.58
7082.00,0.57
7081.00,0.57
7080.00,0.57
7079.00,0.57
7078.00,0.57
7077.00,0.57
7076.00,0.57
7075.00,0.57
7074.00,0.57
7073.00,0.56
7072.00,0.56
7071.00,0.56
7070.00,0.56
7069.00,0.56
7068.00,0.56
7067.00,0.56
7066.00,0.56
7065.00,0.56
7064.00,0.56
7063.00,0.56
7062.00,0.56
7061.00,0.56
7060.00,0.56
7059.00,0.56
7058.00,0.56
7057.00,0.56
7056.00,0.56
7055.00,0.56
7054.00,0.56
7053.00,0.56
7052.00,0.56
7051.00,0.56
7050.00,0.55
7049.00,0.55
7048.00,0.55
7047.00,0.55
7046.00,0.55
7045.00,0.55
7044.00,0.55
7043.00,0.55
7042.00,0.55
7041.00,0.55
7040.00,0.54
7039.00,0.54
7038.00,0.54
7037.00,0.54
7036.00,0.54
7035.00,0.54
7034.00,0.54
7033.00,0.54
7032.00,0.54
7031.00,0.54
7030.00,0.54
7029.00,0.54
7028.00,0.54
7027.00,0.53
7026.00,0.53
7025.00,0.53
7024.00,0.53
7023.00,0.53
7022.00,0.53
7021.00,0.53
7020.00,0.53
7019.00,0.53
7018.00,0.53
7017.00,0.53
7016.00,0.53
7015.00,0.53
7014.00,0.53
7013.00,0.53
7012.00,0.53
7011.00,0.53
7010.00,0.53
7009.00,0.53
7008.00,0.53
7007.00,0.53
7006.00,0.53
7005.00,0.53
7004.00,0.53
7003.00,0.53
7002.00,0.53
7001.00,0.53
7000.00,0.53
6999.00,0.52
6998.00,0.52
6997.00,0.52
6996.00,0.52
6995.00,0.52
6994.00,0.52
6993.00,0.52
6992.00,0.52
6991.00,0.52
6990.00,0.52
6989.00,0.52
6988.00,0.52
6987.00,0.52
6986.00,0.52
6985.00,0.52
6984.00,0.52
6983.00,0.52
6982.00,0.52
6981.00,0.52
6980.00,0.52
6979.00,0.52
6978.00,0.52
6977.00,0.52
6976.00,0.52
6975.00,0.52
6974.00,0.52
6973.00,0.52
6972.00,0.52
6971.00,0.52
6970.00,0.52
6969.00,0.52
6968.00,0.52
6967.00,0.52
6966.00,0.52
6965.00,0.52
6964.00,0.52
6963.00,0.52
6962.00,0.52
6961.00,0.52
6960.00,0.52
6959.00,0.52
6958.00,0.52
6957.00,0.52
6956.00,0.52
6955.00,0.52
6954.00,0.52
6953.00,0.52
6952.00,0.52
6951.00,0.52
6950.00,0.52
6949.00,0.52
6948.00,0.52
6947.00,0.52
6946.00,0.52
6945.00,0.52
6944.00,0.52
6943.00,0.52
6942.00,0.52
6941.00,0.52
6940.00,0.52
6939.00,0.52
6938.00,0.52
6937.00,0.52
6936.00,0.52
6935.00,0.52
6934.00,0.52
6933.00,0.52
6932.00,0.52
6931.00,0.52
6930.00,0.52
6929.00,0.52
6928.00,0.52
6927.00,0.52
6926.00,0.52
6925.00,0.52
6924.00,0.52
6923.00,0.52
6922.00,0.52
6921.00,0.52
6920.00,0.52
6919.00,0.52
6918.00,0.52
6917.00,0.52
6916.00,0.52
6915.00,0.52
6914.00,0.52
6913.00,0.52
6912.00,0.51
6911.00,0.51
6910.00,0.51
6909.00,0.51
6908.00,0.51
6907.00,0.51
6906.00,0.51
6905.00,0.51
6904.00,0.51
6903.00,0.51
6902.00,0.51
6901.00,0.51
6900.00,0.51
6899.00,0.51
6898.00,0.51
6897.00,0.51
6896.00,0.51
6895.00,0.51
6894.00,0.51
6893.00,0.51
6892.00,0.51
6891.00,0.51
6890.00,0.51
6889.00,0.51
6888.00,0.51
6887.00,0.51
6886.00,0.51
6885.00,0.51
6884.00,0.51
6883.00,0.51
6882.00,0.51
6881.00,0.51
6880.00,0.51
6879.00,0.51
6878.00,0.51
6877.00,0.51
6876.00,0.51
6875.00,0.51
6874.00,0.51
6873.00,0.51
6872.00,0.51
6871.00,0.51
6870.00,0.51
6869.00,0.51
6868.00,0.51
6867.00,0.51
6866.00,0.52
6865.00,0.52
6864.00,0.52
6863.00,0.52
6862.00,0.52
6861.00,0.52
6860.00,0.52
6859.00,0.52
6858.00,0.52
6857.00,0.52
6856.00,0.52
6855.00,0.52
6854.00,0.52
6853.00,0.52
6852.00,0.52
6851.00,0.52
6850.00,0.52
6849.00,0.52
6848.00,0.52
6847.00,0.52
6846.00,0.52
6845.00,0.51
6844.00,0.51
6843.00,0.51
6842.00,0.51
6841.00,0.51
6840.00,0.51
6839.00,0.51
6838.00,0.51
6837.00,0.51
6836.00,0.51
6835.00,0.52
6834.00,0.52
6833.00,0.52
6832.00,0.52
6831.00,0.52
6830.00,0.52
6829.00,0.52
6828.00,0.52
6827.00,0.52
6826.00,0.52
6825.00,0.52
6824.00,0.52
6823.00,0.52
6822.00,0.52
6821.00,0.52
6820.00,0.52
6819.00,0.52
6818.00,0.52
6817.00,0.52
6816.00,0.52
6815.00,0.52
6814.00,0.52
6813.00,0.52
6812.00,0.52
6811.00,0.52
6810.00,0.52
6809.00,0.52
6808.00,0.52
6807.00,0.52
6806.00,0.52
6805.00,0.52
6804.00,0.52
6803.00,0.53
6802.00,0.53
6801.00,0.53
6800.00,0.53
6799.00,0.53
6798.00,0.53
6797.00,0.53
6796.00,0.54
6795.00,0.54
6794.00,0.54
6793.00,0.54
6792.00,0.54
6791.00,0.54
6790.00,0.54
6789.00,0.54
6788.00,0.54
6787.00,0.54
6786.00,0.54
6785.00,0.54
6784.00,0.54
6783.00,0.54
6782.00,0.53
6781.00,0.53
6780.00,0.53
6779.00,0.53
6778.00,0.53
6777.00,0.53
6776.00,0.53
6775.00,0.53
6774.00,0.53
6773.00,0.53
6772.00,0.53
6771.00,0.53
6770.00,0.53
6769.00,0.53
6768.00,0.53
6767.00,0.53
6766.00,0.53
6765.00,0.53
6764.00,0.53
6763.00,0.53
6762.00,0.53
6761.00,0.53
6760.00,0.53
6759.00,0.53
6758.00,0.53
6757.00,0.53
6756.00,0.53
6755.00,0.53
6754.00,0.53
6753.00,0.53
6752.00,0.53
6751.00,0.53
6750.00,0.54
6749.00,0.54
6748.00,0.54
6747.00,0.54
6746.00,0.54
6745.00,0.54
6744.00,0.54
6743.00,0.54
6742.00,0.54
6741.00,0.54
6740.00,0.54
6739.00,0.54
6738.00,0.54
6737.00,0.54
6736.00,0.54
6735.00,0.54
6734.00,0.54
6733.00,0.54
6732.00,0.54
6731.00,0.54
6730.00,0.54
6729.00,0.54
6728.00,0.54
6727.00,0.55
6726.00,0.55
6725.00,0.55
6724.00,0.55
6723.00,0.55
6722.00,0.55
6721.00,0.55
6720.00,0.55
6719.00,0.56
6718.00,0.56
6717.00,0.56
6716.00,0.56
6715.00,0.56
6714.00,0.56
6713.00,0.56
6712.00,0.56
6711.00,0.56
6710.00,0.56
6709.00,0.56
6708.00,0.56
6707.00,0.56
6706.00,0.56
6705.00,0.56
6704.00,0.56
6703.00,0.56
6702.00,0.56
6701.00,0.56
6700.00,0.56
6699.00,0.56
6698.00,0.56
6697.00,0.56
6696.00,0.56
6695.00,0.56
6694.00,0.56
6693.00,0.56
6692.00,0.56
6691.00,0.56
6690.00,0.56
6689.00,0.56
6688.00,0.56
6687.00,0.56
6686.00,0.56
6685.00,0.56
6684.00,0.56
6683.00,0.56
6682.00,0.56
6681.00,0.57
6680.00,0.57
6679.00,0.57
6678.00,0.57
6677.00,0.57
6676.00,0.57
6675.00,0.57
6674.00,0.57
6673.00,0.57
6672.00,0.57
6671.00,0.58
6670.00,0.58
6669.00,0.58
6668.00,0.58
6667.00,0.58
6666.00,0.58
6665.00,0.58
6664.00,0.58
6663.00,0.58
6662.00,0.59
6661.00,0.59
6660.00,0.59
6659.00,0.59
6658.00,0.59
6657.00,0.59
6656.00,0.59
6655.00,0.59
6654.00,0.59
6653.00,0.59
6652.00,0.59
6651.00,0.59
6650.00,0.59
6649.00,0.59
6648.00,0.59
6647.00,0.59
6646.00,0.59
6645.00,0.59
6644.00,0.59
6643.00,0.59
6642.00,0.59
6641.00,0.59
6640.00,0.60
6639.00,0.60
6638.00,0.60
6637.00,0.60
6636.00,0.60
6635.00,0.60
6634.00,0.60
6633.00,0.60
6632.00,0.61
6631.00,0.61
6630.00,0.61
6629.00,0.61
6628.00,0.61
6627.00,0.61
6626.00,0.61
6625.00,0.61
6624.00,0.62
6623.00,0.62
6622.00,0.62
6621.00,0.62
6620.00,0.62
6619.00,0.62
6618.00,0.62
6617.00,0.62
6616.00,0.62
6615.00,0.62
6614.00,0.62
6613.00,0.62
6612.00,0.62
6611.00,0.62
6610.00,0.62
6609.00,0.62
6608.00,0.62
6607.00,0.62
6606.00,0.62
6605.00,0.62
6604.00,0.62
6603.00,0.63
6602.00,0.63
6601.00,0.63
6600.00,0.63
6599.00,0.63
6598.00,0.63
6597.00,0.63
6596.00,0.63
6595.00,0.63
6594.00,0.63
6593.00,0.64
6592.00,0.64
6591.00,0.64
6590.00,0.64
6589.00,0.64
6588.00,0.64
6587.00,0.64
6586.00,0.64
6585.00,0.64
6584.00,0.64
6583.00,0.64
6582.00,0.64
6581.00,0.64
6580.00,0.64
6579.00,0.64
6578.00,0.64
6577.00,0.64
6576.00,0.64
6575.00,0.64
6574.00,0.64
6573.00,0.64
6572.00,0.64
6571.00,0.64
6570.00,0.64
6569.00,0.64
6568.00,0.64
6567.00,0.64
6566.00,0.64
6565.00,0.65
6564.00,0.65
6563.00,0.65
6562.00,0.65
6561.00,0.65
6560.00,0.65
6559.00,0.65
6558.00,0.65
6557.00,0.65
6556.00,0.65
6555.00,0.65
6554.00,0.65
6553.00,0.65
6552.00,0.65
6551.00,0.65
6550.00,0.65
6549.00,0.66
6548.00,0.66
6547.00,0.66
6546.00,0.66
6545.00,0.66
6544.00,0.66
6543.00,0.66
6542.00,0.66
6541.00,0.66
6540.00,0.66
6539.00,0.66
6538.00,0.66
6537.00,0.66
6536.00,0.66
6535.00,0.66
6534.00,0.66
6533.00,0.66
6532.00,0.66
6531.00,0.66
6530.00,0.66
6529.00,0.66
6528.00,0.66
6527.00,0.66
6526.00,0.66
6525.00,0.66
6524.00,0.67
6523.00,0.67
6522.00,0.67
6521.00,0.67
6520.00,0.67
6519.00,0.67
6518.00,0.67
6517.00,0.67
6516.00,0.67
6515.00,0.67
6514.00,0.67
6513.00,0.67
6512.00,0.68
6511.00,0.68
6510.00,0.68
6509.00,0.68
6508.00,0.68
6507.00,0.68
6506.00,0.68
6505.00,0.68
6504.00,0.68
6503.00,0.68
6502.00,0.68
6501.00,0.68
6500.00,0.68
6499.00,0.68
6498.00,0.68
6497.00,0.68
6496.00,0.68
6495.00,0.68
6494.00,0.68
6493.00,0.69
6492.00,0.69
6491.00,0.69
6490.00,0.69
6489.00,0.69
6488.00,0.69
6487.00,0.69
6486.00,0.69
6485.00,0.69
6484.00,0.70
6483.00,0.70
6482.00,0.70
6481.00,0.70
6480.00,0.70
6479.00,0.70
6478.00,0.70
6477.00,0.70
6476.00,0.70
6475.00,0.70
6474.00,0.70
6473.00,0.70
6472.00,0.70
6471.00,0.70
6470.00,0.70
6469.00,0.70
6468.00,0.70
6467.00,0.70
6466.00,0.70
6465.00,0.70
6464.00,0.70
6463.00,0.70
6462.00,0.70
6461.00,0.70
6460.00,0.70
6459.00,0.70
6458.00,0.71
6457.00,0.71
6456.00,0.71
6455.00,0.71
6454.00,0.71
6453.00,0.71
6452.00,0.71
6451.00,0.71
6450.00,0.71
6449.00,0.71
6448.00,0.71
6447.00,0.71
6446.00,0.71
6445.00,0.71
6444.00,0.71
6443.00,0.71
6442.00,0.71
6441.00,0.71
6440.00,0.71
6439.00,0.71
6438.00,0.71
6437.00,0.71
6436.00,0.71
6435.00,0.71
6434.00,0.71
6433.00,0.71
6432.00,0.71
6431.00,0.71
6430.00,0.71
6429.00,0.71
6428.00,0.71
6427.00,0.71
6426.00,0.71
6425.00,0.71
6424.00,0.72
6423.00,0.72
6422.00,0.72
6421.00,0.72
6420.00,0.72
6419.00,0.72
6418.00,0.72
6417.00,0.72
6416.00,0.72
6415.00,0.72
6414.00,0.72
6413.00,0.72
6412.00,0.72
6411.00,0.72
6410.00,0.72
6409.00,0.72
6408.00,0.72
6407.00,0.73
6406.00,0.73
6405.00,0.73
6404.00,0.73
6403.00,0.73
6402.00,0.73
6401.00,0.73
6400.00,0.73
6399.00,0.73
6398.00,0.73
6397.00,0.73
6396.00,0.73
6395.00,0.73
6394.00,0.73
6393.00,0.73
6392.00,0.73
6391.00,0.73
6390.00,0.73
6389.00,0.73
6388.00,0.73
6387.00,0.73
6386.00,0.73
6385.00,0.73
6384.00,0.73
6383.00,0.73
6382.00,0.74
6381.00,0.74
6380.00,0.74
6379.00,0.74
6378.00,0.74
6377.00,0.74
6376.00,0.74
6375.00,0.74
6374.00,0.74
6373.00,0.74
6372.00,0.74
6371.00,0.74
6370.00,0.74
6369.00,0.74
6368.00,0.74
6367.00,0.74
6366.00,0.74
6365.00,0.74
6364.00,0.74
6363.00,0.74
6362.00,0.74
6361.00,0.74
6360.00,0.74
6359.00,0.75
6358.00,0.75
6357.00,0.75
6356.00,0.75
6355.00,0.75
6354.00,0.75
6353.00,0.75
6352.00,0.75
6351.00,0.75
6350.00,0.75
6349.00,0.75
6348.00,0.75
6347.00,0.75
6346.00,0.75
6345.00,0.75
6344.00,0.75
6343.00,0.76
6342.00,0.76
6341.00,0.76
6340.00,0.76
6339.00,0.76
6338.00,0.76
6337.00,0.76
6336.00,0.76
6335.00,0.76
6334.00,0.77
6333.00,0.77
6332.00,0.77
6331.00,0.77
6330.00,0.77
6329.00,0.77
6328.00,0.77
6327.00,0.77
6326.00,0.77
6325.00,0.77
6324.00,0.77
6323.00,0.77
6322.00,0.77
6321.00,0.77
6320.00,0.78
6319.00,0.78
6318.00,0.78
6317.00,0.78
6316.00,0.78
6315.00,0.78
6314.00,0.78
6313.00,0.78
6312.00,0.78
6311.00,0.78
6310.00,0.78
6309.00,0.78
6308.00,0.78
6307.00,0.79
6306.00,0.79
6305.00,0.79
6304.00,0.79
6303.00,0.79
6302.00,0.79
6301.00,0.79
6300.00,0.79
6299.00,0.79
6298.00,0.79
6297.00,0.80
6296.00,0.80
6295.00,0.80
6294.00,0.80
6293.00,0.80
6292.00,0.80
6291.00,0.80
6290.00,0.80
6289.00,0.80
6288.00,0.80
6287.00,0.80
6286.00,0.81
6285.00,0.81
6284.00,0.81
6283.00,0.81
6282.00,0.81
6281.00,0.81
6280.00,0.81
6279.00,0.81
6278.00,0.81
6277.00,0.81
6276.00,0.81
6275.00,0.81
6274.00,0.81
6273.00,0.82
6272.00,0.82
6271.00,0.82
6270.00,0.82
6269.00,0.82
6268.00,0.82
6267.00,0.82
6266.00,0.82
6265.00,0.82
6264.00,0.82
6263.00,0.82
6262.00,0.83
6261.00,0.83
6260.00,0.83
6259.00,0.83
6258.00,0.83
6257.00,0.83
6256.00,0.83
6255.00,0.83
6254.00,0.83
6253.00,0.83
6252.00,0.83
6251.00,0.84
6250.00,0.84
6249.00,0.84
6248.00,0.84
6247.00,0.84
6246.00,0.84
6245.00,0.84
6244.00,0.84
6243.00,0.84
6242.00,0.84
6241.00,0.84
6240.00,0.84
6239.00,0.85
6238.00,0.85
6237.00,0.85
6236.00,0.85
6235.00,0.85
6234.00,0.85
6233.00,0.85
6232.00,0.85
6231.00,0.85
6230.00,0.85
6229.00,0.85
6228.00,0.85
6227.00,0.85
6226.00,0.85
6225.00,0.86
6224.00,0.86
6223.00,0.86
6222.00,0.86
6221.00,0.86
6220.00,0.86
6219.00,0.86
6218.00,0.86
6217.00,0.87
6216.00,0.87
6215.00,0.87
6214.00,0.87
6213.00,0.87
6212.00,0.87
6211.00,0.87
6210.00,0.87
6209.00,0.88
6208.00,0.88
6207.00,0.88
6206.00,0.88
6205.00,0.88
6204.00,0.88
6203.00,0.88
6202.00,0.89
6201.00,0.89
6200.00,0.89
6199.00,0.89
6198.00,0.89
6197.00,0.89
6196.00,0.89
6195.00,0.89
6194.00,0.90
6193.00,0.90
6192.00,0.90
6191.00,0.90
6190.00,0.90
6189.00,0.90
6188.00,0.90
6187.00,0.90
6186.00,0.90
6185.00,0.90
6184.00,0.90
6183.00,0.90
6182.00,0.90
6181.00,0.91
6180.00,0.91
6179.00,0.91
6178.00,0.91
6177.00,0.91
6176.00,0.91
6175.00,0.91
6174.00,0.92
6173.00,0.92
6172.00,0.92
6171.00,0.92
6170.00,0.92
6169.00,0.92
6168.00,0.92
6167.00,0.93
6166.00,0.93
6165.00,0.93
6164.00,0.93
6163.00,0.93
6162.00,0.93
6161.00,0.93
6160.00,0.93
6159.00,0.94
6158.00,0.94
6157.00,0.94
6156.00,0.94
6155.00,0.94
6154.00,0.94
6153.00,0.94
6152.00,0.94
6151.00,0.94
6150.00,0.94
6149.00,0.94
6148.00,0.94
6147.00,0.94
6146.00,0.94
6145.00,0.94
6144.00,0.95
6143.00,0.95
6142.00,0.95
6141.00,0.95
6140.00,0.95
6139.00,0.95
6138.00,0.95
6137.00,0.95
6136.00,0.95
6135.00,0.95
6134.00,0.95
6133.00,0.95
6132.00,0.96
6131.00,0.96
6130.00,0.96
6129.00,0.96
6128.00,0.96
6127.00,0.97
6126.00,0.97
6125.00,0.97
6124.00,0.97
6123.00,0.97
6122.00,0.98
6121.00,0.98
6120.00,0.98
6119.00,0.98
6118.00,0.98
6117.00,0.98
6116.00,0.99
6115.00,0.99
6114.00,0.99
6113.00,0.99
6112.00,0.99
6111.00,0.99
6110.00,0.99
6109.00,0.99
6108.00,0.99
6107.00,1.00
6106.00,1.00
6105.00,1.00
6104.00,1.00
6103.00,1.00
6102.00,1.00
6101.00,1.00
6100.00,1.00
6099.00,1.00
6098.00,1.01
6097.00,1.01
6096.00,1.01
6095.00,1.01
6094.00,1.01
6093.00,1.01
6092.00,1.01
6091.00,1.02
6090.00,1.02
6089.00,1.02
6088.00,1.02
6087.00,1.02
6086.00,1.02
6085.00,1.03
6084.00,1.03
6083.00,1.03
6082.00,1.03
6081.00,1.03
6080.00,1.03
6079.00,1.03
6078.00,1.04
6077.00,1.04
6076.00,1.04
6075.00,1.04
6074.00,1.04
6073.00,1.04
6072.00,1.04
6071.00,1.05
6070.00,1.05
6069.00,1.05
6068.00,1.05
6067.00,1.05
6066.00,1.05
6065.00,1.05
6064.00,1.05
6063.00,1.05
6062.00,1.05
6061.00,1.05
6060.00,1.05
6059.00,1.05
6058.00,1.05
6057.00,1.05
6056.00,1.05
6055.00,1.05
6054.00,1.05
6053.00,1.05
6052.00,1.05
6051.00,1.05
6050.00,1.05
6049.00,1.05
6048.00,1.06
6047.00,1.06
6046.00,1.06
6045.00,1.06
6044.00,1.06
6043.00,1.06
6042.00,1.06
6041.00,1.06
6040.00,1.06
6039.00,1.06
6038.00,1.06
6037.00,1.07
6036.00,1.07
6035.00,1.07
6034.00,1.07
6033.00,1.07
6032.00,1.07
6031.00,1.07
6030.00,1.07
6029.00,1.07
6028.00,1.07
6027.00,1.07
6026.00,1.07
6025.00,1.07
6024.00,1.07
6023.00,1.07
6022.00,1.07
6021.00,1.07
6020.00,1.07
6019.00,1.07
6018.00,1.07
6017.00,1.07
6016.00,1.07
6015.00,1.07
6014.00,1.08
6013.00,1.08
6012.00,1.08
6011.00,1.08
6010.00,1.08
6009.00,1.08
6008.00,1.08
6007.00,1.07
6006.00,1.07
6005.00,1.07
6004.00,1.07
6003.00,1.07
6002.00,1.07
6001.00,1.07
6000.00,1.07
5999.00,1.07
5998.00,1.07
5997.00,1.07
5996.00,1.07
5995.00,1.06
5994.00,1.06
5993.00,1.06
5992.00,1.06
5991.00,1.06
5990.00,1.06
5989.00,1.06
5988.00,1.06
5987.00,1.05
5986.00,1.05
5985.00,1.05
5984.00,1.05
5983.00,1.05
5982.00,1.04
5981.00,1.04
5980.00,1.04
5979.00,1.03
5978.00,1.03
5977.00,1.03
5976.00,1.02
5975.00,1.02
5974.00,1.01
5973.00,1.01
5972.00,1.00
5971.00,1.00
5970.00,0.99
5969.00,0.99
5968.00,0.98
5967.00,0.98
5966.00,0.97
5965.00,0.96
5964.00,0.96
5963.00,0.95
5962.00,0.95
5961.00,0.94
5960.00,0.94
5959.00,0.93
5958.00,0.93
5957.00,0.92
5956.00,0.92
5955.00,0.91
5954.00,0.91
5953.00,0.90
5952.00,0.90
5951.00,0.89
5950.00,0.89
5949.00,0.88
5948.00,0.88
5947.00,0.88
5946.00,0.87
5945.00,0.87
5944.00,0.87
5943.00,0.86
5942.00,0.86
5941.00,0.86
5940.00,0.86
5939.00,0.86
5938.00,0.86
5937.00,0.85
5936.00,0.85
5935.00,0.85
5934.00,0.85
5933.00,0.85
5932.00,0.85
5931.00,0.85
5930.00,0.85
5929.00,0.85
5928.00,0.85
5927.00,0.85
5926.00,0.85
5925.00,0.85
5924.00,0.84
5923.00,0.84
5922.00,0.84
5921.00,0.84
5920.00,0.84
5919.00,0.84
5918.00,0.84
5917.00,0.83
5916.00,0.83
5915.00,0.83
5914.00,0.83
5913.00,0.83
5912.00,0.82
5911.00,0.82
5910.00,0.82
5909.00,0.82
5908.00,0.82
5907.00,0.82
5906.00,0.82
5905.00,0.82
5904.00,0.81
5903.00,0.81
5902.00,0.81
5901.00,0.81
5900.00,0.81
5899.00,0.81
5898.00,0.81
5897.00,0.82
5896.00,0.82
5895.00,0.82
5894.00,0.82
5893.00,0.82
5892.00,0.82
5891.00,0.82
5890.00,0.83
5889.00,0.83
5888.00,0.83
5887.00,0.83
5886.00,0.84
5885.00,0.84
5884.00,0.84
5883.00,0.85
5882.00,0.85
5881.00,0.85
5880.00,0.85
5879.00,0.86
5878.00,0.86
5877.00,0.86
5876.00,0.86
5875.00,0.87
5874.00,0.87
5873.00,0.87
5872.00,0.87
5871.00,0.87
5870.00,0.87
5869.00,0.87
5868.00,0.88
5867.00,0.88
5866.00,0.88
5865.00,0.88
5864.00,0.88
5863.00,0.88
5862.00,0.88
5861.00,0.88
5860.00,0.88
5859.00,0.88
5858.00,0.88
5857.00,0.88
5856.00,0.88
5855.00,0.89
5854.00,0.89
5853.00,0.89
5852.00,0.89
5851.00,0.89
5850.00,0.89
5849.00,0.89
5848.00,0.89
5847.00,0.89
5846.00,0.89
5845.00,0.89
5844.00,0.90
5843.00,0.90
5842.00,0.90
5841.00,0.90
5840.00,0.90
5839.00,0.90
5838.00,0.90
5837.00,0.90
5836.00,0.90
5835.00,0.90
5834.00,0.90
5833.00,0.90
5832.00,0.90
5831.00,0.90
5830.00,0.90
5829.00,0.90
5828.00,0.90
5827.00,0.90
5826.00,0.90
5825.00,0.90
5824.00,0.90
5823.00,0.90
5822.00,0.90
5821.00,0.90
5820.00,0.90
5819.00,0.90
5818.00,0.90
5817.00,0.90
5816.00,0.90
5815.00,0.90
5814.00,0.90
5813.00,0.90
5812.00,0.90
5811.00,0.90
5810.00,0.90
5809.00,0.90
5808.00,0.90
5807.00,0.90
5806.00,0.90
5805.00,0.90
5804.00,0.90
5803.00,0.90
5802.00,0.90
5801.00,0.90
5800.00,0.89
5799.00,0.89
5798.00,0.89
5797.00,0.89
5796.00,0.89
5795.00,0.89
5794.00,0.89
5793.00,0.88
5792.00,0.88
5791.00,0.88
5790.00,0.88
5789.00,0.88
5788.00,0.88
5787.00,0.88
5786.00,0.88
5785.00,0.87
5784.00,0.87
5783.00,0.87
5782.00,0.87
5781.00,0.87
5780.00,0.87
5779.00,0.87
5778.00,0.87
5777.00,0.87
5776.00,0.87
5775.00,0.87
5774.00,0.86
5773.00,0.86
5772.00,0.86
5771.00,0.86
5770.00,0.86
5769.00,0.86
5768.00,0.87
5767.00,0.87
5766.00,0.87
5765.00,0.87
5764.00,0.87
5763.00,0.87
5762.00,0.87
5761.00,0.88
5760.00,0.88
5759.00,0.88
5758.00,0.88
5757.00,0.88
5756.00,0.89
5755.00,0.89
5754.00,0.89
5753.00,0.89
5752.00,0.90
5751.00,0.90
5750.00,0.90
5749.00,0.90
5748.00,0.91
5747.00,0.91
5746.00,0.91
5745.00,0.92
5744.00,0.92
5743.00,0.92
5742.00,0.92
5741.00,0.93
5740.00,0.93
5739.00,0.93
5738.00,0.93
5737.00,0.93
5736.00,0.94
5735.00,0.94
5734.00,0.94
5733.00,0.94
5732.00,0.94
5731.00,0.94
5730.00,0.94
5729.00,0.94
5728.00,0.95
5727.00,0.95
5726.00,0.95
5725.00,0.95
5724.00,0.95
5723.00,0.95
5722.00,0.95
5721.00,0.95
5720.00,0.95
5719.00,0.95
5718.00,0.95
5717.00,0.95
5716.00,0.95
5715.00,0.95
5714.00,0.95
5713.00,0.95
5712.00,0.95
5711.00,0.95
5710.00,0.95
5709.00,0.95
5708.00,0.95
5707.00,0.95
5706.00,0.95
5705.00,0.95
5704.00,0.95
5703.00,0.95
5702.00,0.95
5701.00,0.95
5700.00,0.94
5699.00,0.94
5698.00,0.94
5697.00,0.94
5696.00,0.94
5695.00,0.94
5694.00,0.94
5693.00,0.94
5692.00,0.94
5691.00,0.93
5690.00,0.93
5689.00,0.93
5688.00,0.93
5687.00,0.93
5686.00,0.93
5685.00,0.93
5684.00,0.93
5683.00,0.93
5682.00,0.93
5681.00,0.93
5680.00,0.93
5679.00,0.93
5678.00,0.93
5677.00,0.93
5676.00,0.93
5675.00,0.93
5674.00,0.93
5673.00,0.93
5672.00,0.93
5671.00,0.93
5670.00,0.93
5669.00,0.93
5668.00,0.93
5667.00,0.93
5666.00,0.93
5665.00,0.93
5664.00,0.93
5663.00,0.93
5662.00,0.93
5661.00,0.93
5660.00,0.93
5659.00,0.94
5658.00,0.94
5657.00,0.94
5656.00,0.94
5655.00,0.94
5654.00,0.94
5653.00,0.95
5652.00,0.95
5651.00,0.95
5650.00,0.95
5649.00,0.95
5648.00,0.95
5647.00,0.96
5646.00,0.96
5645.00,0.96
5644.00,0.96
5643.00,0.96
5642.00,0.96
5641.00,0.96
5640.00,0.96
5639.00,0.96
5638.00,0.96
5637.00,0.96
5636.00,0.97
5635.00,0.97
5634.00,0.97
5633.00,0.97
5632.00,0.97
5631.00,0.97
5630.00,0.97
5629.00,0.97
5628.00,0.98
5627.00,0.98
5626.00,0.98
5625.00,0.98
5624.00,0.98
5623.00,0.98
5622.00,0.99
5621.00,0.99
5620.00,0.99
5619.00,0.99
5618.00,0.99
5617.00,1.00
5616.00,1.00
5615.00,1.00
5614.00,1.00
5613.00,1.00
5612.00,1.00
5611.00,1.00
5610.00,1.01
5609.00,1.01
5608.00,1.01
5607.00,1.01
5606.00,1.01
5605.00,1.01
5604.00,1.01
5603.00,1.01
5602.00,1.02
5601.00,1.02
5600.00,1.02
5599.00,1.02
5598.00,1.02
5597.00,1.02
5596.00,1.02
5595.00,1.02
5594.00,1.02
5593.00,1.03
5592.00,1.03
5591.00,1.03
5590.00,1.03
5589.00,1.03
5588.00,1.03
5587.00,1.03
5586.00,1.03
5585.00,1.03
5584.00,1.03
5583.00,1.03
5582.00,1.04
5581.00,1.04
5580.00,1.04
5579.00,1.04
5578.00,1.04
5577.00,1.04
5576.00,1.04
5575.00,1.05
5574.00,1.05
5573.00,1.05
5572.00,1.05
5571.00,1.05
5570.00,1.05
5569.00,1.05
5568.00,1.06
5567.00,1.06
5566.00,1.06
5565.00,1.06
5564.00,1.06
5563.00,1.06
5562.00,1.06
5561.00,1.07
5560.00,1.07
5559.00,1.07
5558.00,1.07
5557.00,1.07
5556.00,1.07
5555.00,1.08
5554.00,1.08
5553.00,1.08
5552.00,1.08
5551.00,1.08
5550.00,1.08
5549.00,1.08
5548.00,1.09
5547.00,1.09
5546.00,1.09
5545.00,1.09
5544.00,1.09
5543.00,1.09
5542.00,1.09
5541.00,1.10
5540.00,1.10
5539.00,1.10
5538.00,1.10
5537.00,1.10
5536.00,1.10
5535.00,1.10
5534.00,1.10
5533.00,1.10
5532.00,1.10
5531.00,1.10
5530.00,1.10
5529.00,1.11
5528.00,1.11
5527.00,1.11
5526.00,1.11
5525.00,1.11
5524.00,1.11
5523.00,1.11
5522.00,1.11
5521.00,1.11
5520.00,1.11
5519.00,1.11
5518.00,1.11
5517.00,1.11
5516.00,1.11
5515.00,1.12
5514.00,1.12
5513.00,1.12
5512.00,1.12
5511.00,1.12
5510.00,1.12
5509.00,1.12
5508.00,1.12
5507.00,1.12
5506.00,1.12
5505.00,1.12
5504.00,1.12
5503.00,1.12
5502.00,1.12
5501.00,1.13
5500.00,1.13
5499.00,1.13
5498.00,1.13
5497.00,1.13
5496.00,1.13
5495.00,1.13
5494.00,1.13
5493.00,1.13
5492.00,1.13
5491.00,1.13
5490.00,1.13
5489.00,1.13
5488.00,1.13
5487.00,1.14
5486.00,1.14
5485.00,1.14
5484.00,1.14
5483.00,1.14
5482.00,1.14
5481.00,1.14
5480.00,1.14
5479.00,1.14
5478.00,1.15
5477.00,1.15
5476.00,1.15
5475.00,1.15
5474.00,1.15
5473.00,1.15
5472.00,1.15
5471.00,1.15
5470.00,1.16
5469.00,1.16
5468.00,1.16
5467.00,1.16
5466.00,1.16
5465.00,1.16
5464.00,1.16
5463.00,1.16
5462.00,1.17
5461.00,1.17
5460.00,1.17
5459.00,1.17
5458.00,1.17
5457.00,1.17
5456.00,1.17
5455.00,1.17
5454.00,1.17
5453.00,1.17
5452.00,1.17
5451.00,1.17
5450.00,1.17
5449.00,1.17
5448.00,1.17
5447.00,1.17
5446.00,1.17
5445.00,1.17
5444.00,1.17
5443.00,1.17
5442.00,1.17
5441.00,1.17
5440.00,1.17
5439.00,1.17
5438.00,1.17
5437.00,1.17
5436.00,1.17
5435.00,1.17
5434.00,1.17
5433.00,1.17
5432.00,1.17
5431.00,1.17
5430.00,1.18
5429.00,1.18
5428.00,1.18
5427.00,1.18
5426.00,1.18
5425.00,1.18
5424.00,1.18
5423.00,1.18
5422.00,1.18
5421.00,1.18
5420.00,1.18
5419.00,1.18
5418.00,1.18
5417.00,1.18
5416.00,1.18
5415.00,1.18
5414.00,1.18
5413.00,1.18
5412.00,1.18
5411.00,1.18
5410.00,1.18
5409.00,1.18
5408.00,1.18
5407.00,1.18
5406.00,1.18
5405.00,1.18
5404.00,1.18
5403.00,1.17
5402.00,1.17
5401.00,1.17
5400.00,1.17
5399.00,1.17
5398.00,1.17
5397.00,1.17
5396.00,1.17
5395.00,1.17
5394.00,1.16
5393.00,1.16
5392.00,1.16
5391.00,1.16
5390.00,1.16
5389.00,1.16
5388.00,1.15
5387.00,1.15
5386.00,1.15
5385.00,1.15
5384.00,1.15
5383.00,1.14
5382.00,1.14
5381.00,1.14
5380.00,1.14
5379.00,1.13
5378.00,1.13
5377.00,1.13
5376.00,1.12
5375.00,1.12
5374.00,1.12
5373.00,1.11
5372.00,1.11
5371.00,1.11
5370.00,1.10
5369.00,1.10
5368.00,1.10
5367.00,1.09
5366.00,1.09
5365.00,1.08
5364.00,1.08
5363.00,1.07
5362.00,1.07
5361.00,1.06
5360.00,1.06
5359.00,1.05
5358.00,1.05
5357.00,1.04
5356.00,1.03
5355.00,1.03
5354.00,1.02
5353.00,1.01
5352.00,1.00
5351.00,1.00
5350.00,0.99
5349.00,0.98
5348.00,0.97
5347.00,0.97
5346.00,0.96
5345.00,0.95
5344.00,0.94
5343.00,0.94
5342.00,0.93
5341.00,0.92
5340.00,0.91
5339.00,0.91
5338.00,0.90
5337.00,0.89
5336.00,0.89
5335.00,0.88
5334.00,0.87
5333.00,0.87
5332.00,0.86
5331.00,0.86
5330.00,0.85
5329.00,0.84
5328.00,0.84
5327.00,0.83
5326.00,0.82
5325.00,0.82
5324.00,0.81
5323.00,0.81
5322.00,0.80
5321.00,0.80
5320.00,0.79
5319.00,0.78
5318.00,0.78
5317.00,0.77
5316.00,0.77
5315.00,0.77
5314.00,0.76
5313.00,0.76
5312.00,0.75
5311.00,0.75
5310.00,0.75
5309.00,0.74
5308.00,0.74
5307.00,0.74
5306.00,0.73
5305.00,0.73
5304.00,0.73
5303.00,0.73
5302.00,0.73
5301.00,0.72
5300.00,0.72
5299.00,0.72
5298.00,0.72
5297.00,0.72
5296.00,0.72
5295.00,0.72
5294.00,0.71
5293.00,0.71
5292.00,0.71
5291.00,0.71
5290.00,0.71
5289.00,0.71
5288.00,0.71
5287.00,0.71
5286.00,0.71
5285.00,0.71
5284.00,0.70
5283.00,0.70
5282.00,0.70
5281.00,0.70
5280.00,0.70
5279.00,0.70
5278.00,0.70
5277.00,0.70
5276.00,0.70
5275.00,0.70
5274.00,0.70
5273.00,0.70
5272.00,0.70
5271.00,0.70
5270.00,0.70
5269.00,0.70
5268.00,0.70
5267.00,0.70
5266.00,0.70
5265.00,0.70
5264.00,0.70
5263.00,0.70
5262.00,0.70
5261.00,0.70
5260.00,0.70
5259.00,0.70
5258.00,0.70
5257.00,0.70
5256.00,0.70
5255.00,0.70
5254.00,0.71
5253.00,0.71
5252.00,0.71
5251.00,0.71
5250.00,0.71
5249.00,0.71
5248.00,0.71
5247.00,0.71
5246.00,0.71
5245.00,0.71
5244.00,0.71
5243.00,0.71
5242.00,0.71
5241.00,0.71
5240.00,0.71
5239.00,0.71
5238.00,0.71
5237.00,0.71
5236.00,0.71
5235.00,0.71
5234.00,0.71
5233.00,0.71
5232.00,0.71
5231.00,0.71
5230.00,0.71
5229.00,0.71
5228.00,0.71
5227.00,0.71
5226.00,0.71
5225.00,0.71
5224.00,0.71
5223.00,0.71
5222.00,0.71
5221.00,0.71
5220.00,0.71
5219.00,0.71
5218.00,0.72
5217.00,0.72
5216.00,0.72
5215.00,0.72
5214.00,0.72
5213.00,0.72
5212.00,0.72
5211.00,0.72
5210.00,0.72
5209.00,0.72
5208.00,0.72
5207.00,0.72
5206.00,0.72
5205.00,0.72
5204.00,0.72
5203.00,0.72
5202.00,0.72
5201.00,0.72
5200.00,0.72
5199.00,0.72
5198.00,0.72
5197.00,0.72
5196.00,0.72
5195.00,0.72
5194.00,0.72
5193.00,0.72
5192.00,0.72
5191.00,0.72
5190.00,0.72
5189.00,0.72
5188.00,0.72
5187.00,0.72
5186.00,0.72
5185.00,0.72
5184.00,0.72
5183.00,0.73
5182.00,0.73
5181.00,0.73
5180.00,0.73
5179.00,0.73
5178.00,0.73
5177.00,0.73
5176.00,0.73
5175.00,0.73
5174.00,0.73
5173.00,0.73
5172.00,0.73
5171.00,0.73
5170.00,0.73
5169.00,0.73
5168.00,0.73
5167.00,0.73
5166.00,0.73
5165.00,0.73
5164.00,0.73
5163.00,0.73
5162.00,0.73
5161.00,0.73
5160.00,0.73
5159.00,0.73
5158.00,0.73
5157.00,0.73
5156.00,0.73
5155.00,0.73
5154.00,0.73
5153.00,0.73
5152.00,0.73
5151.00,0.73
5150.00,0.73
5149.00,0.73
5148.00,0.73
5147.00,0.73
5146.00,0.74
5145.00,0.74
5144.00,0.74
5143.00,0.74
5142.00,0.74
5141.00,0.74
5140.00,0.74
5139.00,0.74
5138.00,0.74
5137.00,0.74
5136.00,0.74
5135.00,0.74
5134.00,0.74
5133.00,0.74
5132.00,0.74
5131.00,0.74
5130.00,0.74
5129.00,0.74
5128.00,0.74
5127.00,0.74
5126.00,0.74
5125.00,0.74
5124.00,0.74
5123.00,0.74
5122.00,0.74
5121.00,0.74
5120.00,0.74
5119.00,0.74
5118.00,0.74
5117.00,0.74
5116.00,0.74
5115.00,0.74
5114.00,0.74
5113.00,0.74
5112.00,0.74
5111.00,0.75
5110.00,0.75
5109.00,0.75
5108.00,0.75
5107.00,0.75
5106.00,0.75
5105.00,0.75
5104.00,0.75
5103.00,0.75
5102.00,0.75
5101.00,0.75
5100.00,0.75
5099.00,0.75
5098.00,0.75
5097.00,0.75
5096.00,0.75
5095.00,0.75
5094.00,0.75
5093.00,0.75
5092.00,0.75
5091.00,0.75
5090.00,0.75
5089.00,0.75
5088.00,0.75
5087.00,0.75
5086.00,0.75
5085.00,0.75
5084.00,0.75
5083.00,0.75
5082.00,0.75
5081.00,0.76
5080.00,0.76
5079.00,0.76
5078.00,0.76
5077.00,0.76
5076.00,0.76
5075.00,0.76
5074.00,0.76
5073.00,0.76
5072.00,0.76
5071.00,0.76
5070.00,0.76
5069.00,0.76
5068.00,0.76
5067.00,0.76
5066.00,0.76
5065.00,0.76
5064.00,0.76
5063.00,0.76
5062.00,0.76
5061.00,0.76
5060.00,0.76
5059.00,0.76
5058.00,0.76
5057.00,0.76
5056.00,0.77
5055.00,0.77
5054.00,0.77
5053.00,0.77
5052.00,0.77
5051.00,0.77
5050.00,0.77
5049.00,0.77
5048.00,0.77
5047.00,0.77
5046.00,0.77
5045.00,0.77
5044.00,0.77
5043.00,0.77
5042.00,0.77
5041.00,0.77
5040.00,0.77
5039.00,0.77
5038.00,0.77
5037.00,0.77
5036.00,0.77
5035.00,0.77
5034.00,0.77
5033.00,0.77
5032.00,0.77
5031.00,0.77
5030.00,0.77
5029.00,0.77
5028.00,0.77
5027.00,0.77
5026.00,0.77
5025.00,0.77
5024.00,0.77
5023.00,0.77
5022.00,0.77
5021.00,0.78
5020.00,0.78
5019.00,0.78
5018.00,0.78
5017.00,0.78
5016.00,0.78
5015.00,0.78
5014.00,0.78
5013.00,0.78
5012.00,0.78
5011.00,0.78
5010.00,0.78
5009.00,0.78
5008.00,0.78
5007.00,0.78
5006.00,0.78
5005.00,0.78
5004.00,0.78
5003.00,0.78
5002.00,0.79
5001.00,0.79
5000.00,0.79
4999.00,0.79
4998.00,0.79
4997.00,0.79
4996.00,0.79
4995.00,0.79
4994.00,0.79
4993.00,0.79
4992.00,0.79
4991.00,0.79
4990.00,0.79
4989.00,0.79
4988.00,0.79
4987.00,0.79
4986.00,0.79
4985.00,0.79
4984.00,0.79
4983.00,0.79
4982.00,0.80
4981.00,0.80
4980.00,0.80
4979.00,0.80
4978.00,0.80
4977.00,0.80
4976.00,0.80
4975.00,0.80
4974.00,0.80
4973.00,0.80
4972.00,0.80
4971.00,0.80
4970.00,0.80
4969.00,0.80
4968.00,0.80
4967.00,0.80
4966.00,0.80
4965.00,0.80
4964.00,0.80
4963.00,0.80
4962.00,0.80
4961.00,0.80
4960.00,0.80
4959.00,0.81
4958.00,0.81
4957.00,0.81
4956.00,0.81
4955.00,0.81
4954.00,0.81
4953.00,0.81
4952.00,0.81
4951.00,0.81
4950.00,0.81
4949.00,0.81
4948.00,0.81
4947.00,0.81
4946.00,0.81
4945.00,0.81
4944.00,0.81
4943.00,0.81
4942.00,0.81
4941.00,0.81
4940.00,0.81
4939.00,0.81
4938.00,0.81
4937.00,0.81
4936.00,0.81
4935.00,0.81
4934.00,0.82
4933.00,0.82
4932.00,0.82
4931.00,0.82
4930.00,0.82
4929.00,0.82
4928.00,0.82
4927.00,0.82
4926.00,0.82
4925.00,0.82
4924.00,0.82
4923.00,0.82
4922.00,0.82
4921.00,0.83
4920.00,0.83
4919.00,0.83
4918.00,0.83
4917.00,0.83
4916.00,0.83
4915.00,0.82
4914.00,0.82
4913.00,0.82
4912.00,0.82
4911.00,0.82
4910.00,0.82
4909.00,0.82
4908.00,0.82
4907.00,0.82
4906.00,0.82
4905.00,0.82
4904.00,0.82
4903.00,0.82
4902.00,0.82
4901.00,0.82
4900.00,0.82
4899.00,0.82
4898.00,0.83
4897.00,0.83
4896.00,0.83
4895.00,0.83
4894.00,0.83
4893.00,0.83
4892.00,0.83
4891.00,0.83
4890.00,0.83
4889.00,0.83
4888.00,0.83
4887.00,0.84
4886.00,0.84
4885.00,0.84
4884.00,0.84
4883.00,0.84
4882.00,0.84
4881.00,0.84
4880.00,0.84
4879.00,0.84
4878.00,0.84
4877.00,0.84
4876.00,0.84
4875.00,0.84
4874.00,0.84
4873.00,0.84
4872.00,0.84
4871.00,0.84
4870.00,0.84
4869.00,0.84
4868.00,0.84
4867.00,0.84
4866.00,0.84
4865.00,0.84
4864.00,0.84
4863.00,0.85
4862.00,0.85
4861.00,0.85
4860.00,0.85
4859.00,0.85
4858.00,0.85
4857.00,0.85
4856.00,0.85
4855.00,0.85
4854.00,0.85
4853.00,0.85
4852.00,0.85
4851.00,0.85
4850.00,0.85
4849.00,0.85
4848.00,0.85
4847.00,0.85
4846.00,0.85
4845.00,0.85
4844.00,0.85
4843.00,0.85
4842.00,0.85
4841.00,0.85
4840.00,0.85
4839.00,0.85
4838.00,0.85
4837.00,0.85
4836.00,0.85
4835.00,0.85
4834.00,0.85
4833.00,0.85
4832.00,0.85
4831.00,0.85
4830.00,0.86
4829.00,0.86
4828.00,0.86
4827.00,0.86
4826.00,0.86
4825.00,0.86
4824.00,0.86
4823.00,0.86
4822.00,0.86
4821.00,0.86
4820.00,0.86
4819.00,0.86
4818.00,0.86
4817.00,0.86
4816.00,0.86
4815.00,0.86
4814.00,0.86
4813.00,0.86
4812.00,0.86
4811.00,0.86
4810.00,0.86
4809.00,0.86
4808.00,0.86
4807.00,0.86
4806.00,0.87
4805.00,0.87
4804.00,0.87
4803.00,0.87
4802.00,0.87
4801.00,0.87
4800.00,0.87
4799.00,0.87
4798.00,0.87
4797.00,0.87
4796.00,0.87
4795.00,0.87
4794.00,0.87
4793.00,0.87
4792.00,0.87
4791.00,0.87
4790.00,0.87
4789.00,0.87
4788.00,0.88
4787.00,0.88
4786.00,0.88
4785.00,0.88
4784.00,0.88
4783.00,0.88
4782.00,0.88
4781.00,0.88
4780.00,0.88
4779.00,0.88
4778.00,0.89
4777.00,0.89
4776.00,0.89
4775.00,0.89
4774.00,0.89
4773.00,0.89
4772.00,0.89
4771.00,0.89
4770.00,0.90
4769.00,0.90
4768.00,0.90
4767.00,0.90
4766.00,0.90
4765.00,0.90
4764.00,0.90
4763.00,0.90
4762.00,0.90
4761.00,0.90
4760.00,0.90
4759.00,0.90
4758.00,0.90
4757.00,0.90
4756.00,0.90
4755.00,0.90
4754.00,0.90
4753.00,0.90
4752.00,0.90
4751.00,0.90
4750.00,0.90
4749.00,0.90
4748.00,0.90
4747.00,0.90
4746.00,0.90
4745.00,0.90
4744.00,0.90
4743.00,0.90
4742.00,0.90
4741.00,0.91
4740.00,0.91
4739.00,0.91
4738.00,0.91
4737.00,0.91
4736.00,0.91
4735.00,0.91
4734.00,0.91
4733.00,0.91
4732.00,0.91
4731.00,0.92
4730.00,0.92
4729.00,0.92
4728.00,0.92
4727.00,0.92
4726.00,0.92
4725.00,0.92
4724.00,0.93
4723.00,0.93
4722.00,0.93
4721.00,0.93
4720.00,0.93
4719.00,0.93
4718.00,0.93
4717.00,0.94
4716.00,0.94
4715.00,0.94
4714.00,0.94
4713.00,0.94
4712.00,0.94
4711.00,0.94
4710.00,0.94
4709.00,0.94
4708.00,0.94
4707.00,0.94
4706.00,0.94
4705.00,0.94
4704.00,0.94
4703.00,0.94
4702.00,0.94
4701.00,0.95
4700.00,0.95
4699.00,0.95
4698.00,0.95
4697.00,0.95
4696.00,0.95
4695.00,0.95
4694.00,0.95
4693.00,0.95
4692.00,0.95
4691.00,0.95
4690.00,0.95
4689.00,0.95
4688.00,0.95
4687.00,0.95
4686.00,0.95
4685.00,0.95
4684.00,0.95
4683.00,0.96
4682.00,0.96
4681.00,0.96
4680.00,0.96
4679.00,0.96
4678.00,0.96
4677.00,0.96
4676.00,0.96
4675.00,0.96
4674.00,0.96
4673.00,0.96
4672.00,0.96
4671.00,0.96
4670.00,0.97
4669.00,0.96
4668.00,0.96
4667.00,0.96
4666.00,0.96
4665.00,0.96
4664.00,0.96
4663.00,0.96
4662.00,0.97
4661.00,0.97
4660.00,0.97
4659.00,0.97
4658.00,0.97
4657.00,0.97
4656.00,0.97
4655.00,0.97
4654.00,0.97
4653.00,0.97
4652.00,0.97
4651.00,0.98
4650.00,0.98
4649.00,0.98
4648.00,0.98
4647.00,0.98
4646.00,0.98
4645.00,0.98
4644.00,0.98
4643.00,0.98
4642.00,0.99
4641.00,0.99
4640.00,0.99
4639.00,0.99
4638.00,0.99
4637.00,0.99
4636.00,0.99
4635.00,0.99
4634.00,0.99
4633.00,0.99
4632.00,0.99
4631.00,0.99
4630.00,0.99
4629.00,0.99
4628.00,0.99
4627.00,0.99
4626.00,0.99
4625.00,0.99
4624.00,0.99
4623.00,0.99
4622.00,1.00
4621.00,1.00
4620.00,1.00
4619.00,1.00
4618.00,1.00
4617.00,1.00
4616.00,1.00
4615.00,1.00
4614.00,1.00
4613.00,1.00
4612.00,1.00
4611.00,1.00
4610.00,1.00
4609.00,1.00
4608.00,1.00
4607.00,1.00
4606.00,1.00
4605.00,1.00
4604.00,1.00
4603.00,1.00
4602.00,1.00
4601.00,1.00
4600.00,1.00
4599.00,1.00
4598.00,1.00
4597.00,1.00
4596.00,1.00
4595.00,1.00
4594.00,1.01
4593.00,1.01
4592.00,1.01
4591.00,1.01
4590.00,1.01
4589.00,1.01
4588.00,1.01
4587.00,1.01
4586.00,1.01
4585.00,1.01
4584.00,1.01
4583.00,1.02
4582.00,1.02
4581.00,1.02
4580.00,1.02
4579.00,1.02
4578.00,1.02
4577.00,1.02
4576.00,1.02
4575.00,1.02
4574.00,1.02
4573.00,1.02
4572.00,1.02
4571.00,1.02
4570.00,1.02
4569.00,1.02
4568.00,1.02
4567.00,1.02
4566.00,1.02
4565.00,1.02
4564.00,1.02
4563.00,1.02
4562.00,1.02
4561.00,1.02
4560.00,1.02
4559.00,1.02
4558.00,1.02
4557.00,1.03
4556.00,1.03
4555.00,1.03
4554.00,1.03
4553.00,1.03
4552.00,1.03
4551.00,1.03
4550.00,1.03
4549.00,1.03
4548.00,1.03
4547.00,1.03
4546.00,1.03
4545.00,1.03
4544.00,1.03
4543.00,1.03
4542.00,1.03
4541.00,1.03
4540.00,1.03
4539.00,1.03
4538.00,1.03
4537.00,1.03
4536.00,1.03
4535.00,1.03
4534.00,1.03
4533.00,1.03
4532.00,1.03
4531.00,1.03
4530.00,1.03
4529.00,1.03
4528.00,1.03
4527.00,1.03
4526.00,1.03
4525.00,1.03
4524.00,1.03
4523.00,1.03
4522.00,1.04
4521.00,1.04
4520.00,1.04
4519.00,1.04
4518.00,1.04
4517.00,1.04
4516.00,1.04
4515.00,1.04
4514.00,1.04
4513.00,1.04
4512.00,1.04
4511.00,1.05
4510.00,1.05
4509.00,1.05
4508.00,1.05
4507.00,1.05
4506.00,1.05
4505.00,1.05
4504.00,1.05
4503.00,1.05
4502.00,1.05
4501.00,1.05
4500.00,1.04
4499.00,1.04
4498.00,1.04
4497.00,1.04
4496.00,1.04
4495.00,1.04
4494.00,1.04
4493.00,1.04
4492.00,1.04
4491.00,1.04
4490.00,1.04
4489.00,1.04
4488.00,1.04
4487.00,1.04
4486.00,1.04
4485.00,1.03
4484.00,1.03
4483.00,1.03
4482.00,1.03
4481.00,1.03
4480.00,1.03
4479.00,1.03
4478.00,1.03
4477.00,1.03
4476.00,1.03
4475.00,1.02
4474.00,1.02
4473.00,1.02
4472.00,1.02
4471.00,1.02
4470.00,1.02
4469.00,1.02
4468.00,1.02
4467.00,1.02
4466.00,1.02
4465.00,1.02
4464.00,1.01
4463.00,1.01
4462.00,1.01
4461.00,1.01
4460.00,1.01
4459.00,1.01
4458.00,1.01
4457.00,1.01
4456.00,1.01
4455.00,1.01
4454.00,1.00
4453.00,1.00
4452.00,1.00
4451.00,1.00
4450.00,1.00
4449.00,1.00
4448.00,1.00
4447.00,0.99
4446.00,0.99
4445.00,0.99
4444.00,0.99
4443.00,0.99
4442.00,0.99
4441.00,0.99
4440.00,0.99
4439.00,0.99
4438.00,0.99
4437.00,0.99
4436.00,0.99
4435.00,0.99
4434.00,0.99
4433.00,0.99
4432.00,0.99
4431.00,0.99
4430.00,0.99
4429.00,0.99
4428.00,0.99
4427.00,0.99
4426.00,0.99
4425.00,0.99
4424.00,0.99
4423.00,0.99
4422.00,0.99
4421.00,0.99
4420.00,0.99
4419.00,0.99
4418.00,0.99
4417.00,0.99
4416.00,1.00
4415.00,1.00
4414.00,1.00
4413.00,1.00
4412.00,1.00
4411.00,1.00
4410.00,1.00
4409.00,1.00
4408.00,1.00
4407.00,1.00
4406.00,1.00
4405.00,1.00
4404.00,1.00
4403.00,1.00
4402.00,1.00
4401.00,1.00
4400.00,1.00
4399.00,1.00
4398.00,1.00
4397.00,1.00
4396.00,1.00
4395.00,1.00
4394.00,1.00
4393.00,1.00
4392.00,1.00
4391.00,1.00
4390.00,1.00
4389.00,1.00
4388.00,1.00
4387.00,1.00
4386.00,1.00
4385.00,1.00
4384.00,1.00
4383.00,1.00
4382.00,1.00
4381.00,1.00
4380.00,1.00
4379.00,1.00
4378.00,1.00
4377.00,1.00
4376.00,1.00
4375.00,1.00
4374.00,1.00
4373.00,1.00
4372.00,1.00
4371.00,1.01
4370.00,1.01
4369.00,1.01
4368.00,1.01
4367.00,1.01
4366.00,1.01
4365.00,1.01
4364.00,1.01
4363.00,1.01
4362.00,1.02
4361.00,1.02
4360.00,1.02
4359.00,1.02
4358.00,1.02
4357.00,1.02
4356.00,1.02
4355.00,1.02
4354.00,1.02
4353.00,1.02
4352.00,1.02
4351.00,1.02
4350.00,1.02
4349.00,1.02
4348.00,1.03
4347.00,1.03
4346.00,1.03
4345.00,1.03
4344.00,1.03
4343.00,1.03
4342.00,1.03
4341.00,1.03
4340.00,1.03
4339.00,1.03
4338.00,1.03
4337.00,1.03
4336.00,1.03
4335.00,1.03
4334.00,1.03
4333.00,1.03
4332.00,1.03
4331.00,1.03
4330.00,1.03
4329.00,1.03
4328.00,1.03
4327.00,1.03
4326.00,1.03
4325.00,1.03
4324.00,1.03
4323.00,1.03
4322.00,1.03
4321.00,1.03
4320.00,1.03
4319.00,1.03
4318.00,1.03
4317.00,1.03
4316.00,1.03
4315.00,1.03
4314.00,1.03
4313.00,1.03
4312.00,1.03
4311.00,1.03
4310.00,1.04
4309.00,1.04
4308.00,1.04
4307.00,1.04
4306.00,1.04
4305.00,1.04
4304.00,1.04
4303.00,1.04
4302.00,1.04
4301.00,1.04
4300.00,1.04
4299.00,1.04
4298.00,1.05
4297.00,1.05
4296.00,1.05
4295.00,1.05
4294.00,1.05
4293.00,1.05
4292.00,1.05
4291.00,1.05
4290.00,1.05
4289.00,1.05
4288.00,1.06
4287.00,1.06
4286.00,1.06
4285.00,1.06
4284.00,1.06
4283.00,1.06
4282.00,1.06
4281.00,1.07
4280.00,1.07
4279.00,1.07
4278.00,1.07
4277.00,1.07
4276.00,1.07
4275.00,1.07
4274.00,1.07
4273.00,1.07
4272.00,1.07
4271.00,1.07
4270.00,1.07
4269.00,1.07
4268.00,1.07
4267.00,1.07
4266.00,1.07
4265.00,1.07
4264.00,1.07
4263.00,1.07
4262.00,1.07
4261.00,1.07
4260.00,1.07
4259.00,1.07
4258.00,1.07
4257.00,1.07
4256.00,1.07
4255.00,1.07
4254.00,1.07
4253.00,1.07
4252.00,1.07
4251.00,1.07
4250.00,1.07
4249.00,1.07
4248.00,1.07
4247.00,1.08
4246.00,1.08
4245.00,1.08
4244.00,1.08
4243.00,1.08
4242.00,1.08
4241.00,1.08
4240.00,1.08
4239.00,1.09
4238.00,1.09
4237.00,1.09
4236.00,1.09
4235.00,1.09
4234.00,1.09
4233.00,1.09
4232.00,1.09
4231.00,1.09
4230.00,1.09
4229.00,1.09
4228.00,1.09
4227.00,1.09
4226.00,1.09
4225.00,1.09
4224.00,1.09
4223.00,1.08
4222.00,1.08
4221.00,1.08
4220.00,1.08
4219.00,1.08
4218.00,1.08
4217.00,1.08
4216.00,1.08
4215.00,1.08
4214.00,1.08
4213.00,1.08
4212.00,1.08
4211.00,1.08
4210.00,1.09
4209.00,1.09
4208.00,1.09
4207.00,1.09
4206.00,1.09
4205.00,1.10
4204.00,1.10
4203.00,1.10
4202.00,1.10
4201.00,1.10
4200.00,1.10
4199.00,1.10
4198.00,1.10
4197.00,1.10
4196.00,1.10
4195.00,1.10
4194.00,1.10
4193.00,1.10
4192.00,1.10
4191.00,1.10
4190.00,1.10
4189.00,1.10
4188.00,1.10
4187.00,1.10
4186.00,1.10
4185.00,1.10
4184.00,1.10
4183.00,1.10
4182.00,1.10
4181.00,1.10
4180.00,1.10
4179.00,1.10
4178.00,1.10
4177.00,1.10
4176.00,1.10
4175.00,1.11
4174.00,1.11
4173.00,1.11
4172.00,1.11
4171.00,1.11
4170.00,1.11
4169.00,1.11
4168.00,1.11
4167.00,1.11
4166.00,1.11
4165.00,1.11
4164.00,1.11
4163.00,1.11
4162.00,1.11
4161.00,1.12
4160.00,1.12
4159.00,1.12
4158.00,1.12
4157.00,1.12
4156.00,1.12
4155.00,1.12
4154.00,1.12
4153.00,1.12
4152.00,1.12
4151.00,1.12
4150.00,1.13
4149.00,1.13
4148.00,1.13
4147.00,1.13
4146.00,1.13
4145.00,1.13
4144.00,1.13
4143.00,1.13
4142.00,1.13
4141.00,1.13
4140.00,1.13
4139.00,1.13
4138.00,1.13
4137.00,1.13
4136.00,1.13
4135.00,1.13
4134.00,1.13
4133.00,1.13
4132.00,1.13
4131.00,1.13
4130.00,1.13
4129.00,1.13
4128.00,1.13
4127.00,1.13
4126.00,1.13
4125.00,1.13
4124.00,1.13
4123.00,1.13
4122.00,1.13
4121.00,1.13
4120.00,1.13
4119.00,1.13
4118.00,1.13
4117.00,1.13
4116.00,1.12
4115.00,1.12
4114.00,1.12
4113.00,1.12
4112.00,1.12
4111.00,1.12
4110.00,1.12
4109.00,1.12
4108.00,1.12
4107.00,1.12
4106.00,1.12
4105.00,1.12
4104.00,1.12
4103.00,1.12
4102.00,1.12
4101.00,1.12
4100.00,1.12
4099.00,1.13
4098.00,1.13
4097.00,1.13
4096.00,1.13
4095.00,1.13
4094.00,1.13
4093.00,1.13
4092.00,1.13
4091.00,1.14
4090.00,1.14
4089.00,1.14
4088.00,1.14
4087.00,1.14
4086.00,1.14
4085.00,1.15
4084.00,1.15
4083.00,1.15
4082.00,1.15
4081.00,1.15
4080.00,1.15
4079.00,1.15
4078.00,1.15
4077.00,1.15
4076.00,1.15
4075.00,1.15
4074.00,1.15
4073.00,1.15
4072.00,1.15
4071.00,1.15
4070.00,1.15
4069.00,1.15
4068.00,1.15
4067.00,1.15
4066.00,1.15
4065.00,1.16
4064.00,1.16
4063.00,1.16
4062.00,1.16
4061.00,1.16
4060.00,1.16
4059.00,1.16
4058.00,1.16
4057.00,1.16
4056.00,1.16
4055.00,1.16
4054.00,1.16
4053.00,1.15
4052.00,1.15
4051.00,1.15
4050.00,1.15
4049.00,1.15
4048.00,1.15
4047.00,1.15
4046.00,1.15
4045.00,1.15
4044.00,1.15
4043.00,1.15
4042.00,1.15
4041.00,1.16
4040.00,1.16
4039.00,1.16
4038.00,1.16
4037.00,1.16
4036.00,1.16
4035.00,1.17
4034.00,1.17
4033.00,1.17
4032.00,1.17
4031.00,1.17
4030.00,1.17
4029.00,1.17
4028.00,1.17
4027.00,1.18
4026.00,1.18
4025.00,1.18
4024.00,1.18
4023.00,1.18
4022.00,1.18
4021.00,1.18
4020.00,1.18
4019.00,1.18
4018.00,1.18
4017.00,1.18
4016.00,1.18
4015.00,1.18
4014.00,1.18
4013.00,1.18
4012.00,1.18
4011.00,1.18
4010.00,1.18
4009.00,1.18
4008.00,1.18
4007.00,1.18
4006.00,1.18
4005.00,1.18
4004.00,1.18
4003.00,1.18
4002.00,1.18
4001.00,1.18
4000.00,1.18
