创建为新数据集,样品 727 用户 Administrator 日期 星期五, 七月 20 2018
cm-1,%T
10000.00,1.22
9999.00,1.22
9998.00,1.22
9997.00,1.22
9996.00,1.22
9995.00,1.22
9994.00,1.22
9993.00,1.22
9992.00,1.21
9991.00,1.21
9990.00,1.21
9989.00,1.21
9988.00,1.21
9987.00,1.21
9986.00,1.21
9985.00,1.20
9984.00,1.20
9983.00,1.20
9982.00,1.20
9981.00,1.20
9980.00,1.20
9979.00,1.20
9978.00,1.20
9977.00,1.20
9976.00,1.20
9975.00,1.21
9974.00,1.21
9973.00,1.21
9972.00,1.21
9971.00,1.21
9970.00,1.21
9969.00,1.22
9968.00,1.22
9967.00,1.22
9966.00,1.22
9965.00,1.22
9964.00,1.22
9963.00,1.22
9962.00,1.22
9961.00,1.22
9960.00,1.22
9959.00,1.22
9958.00,1.22
9957.00,1.22
9956.00,1.22
9955.00,1.22
9954.00,1.21
9953.00,1.21
9952.00,1.21
9951.00,1.21
9950.00,1.21
9949.00,1.21
9948.00,1.21
9947.00,1.21
9946.00,1.21
9945.00,1.21
9944.00,1.21
9943.00,1.20
9942.00,1.20
9941.00,1.20
9940.00,1.20
9939.00,1.20
9938.00,1.20
9937.00,1.20
9936.00,1.21
9935.00,1.21
9934.00,1.21
9933.00,1.21
9932.00,1.21
9931.00,1.20
9930.00,1.20
9929.00,1.20
9928.00,1.20
9927.00,1.20
9926.00,1.20
9925.00,1.20
9924.00,1.20
9923.00,1.20
9922.00,1.20
9921.00,1.20
9920.00,1.20
9919.00,1.20
9918.00,1.20
9917.00,1.20
9916.00,1.20
9915.00,1.20
9914.00,1.20
9913.00,1.20
9912.00,1.20
9911.00,1.20
9910.00,1.20
9909.00,1.20
9908.00,1.20
9907.00,1.20
9906.00,1.20
9905.00,1.20
9904.00,1.20
9903.00,1.20
9902.00,1.20
9901.00,1.21
9900.00,1.21
9899.00,1.21
9898.00,1.21
9897.00,1.21
9896.00,1.21
9895.00,1.21
9894.00,1.21
9893.00,1.21
9892.00,1.21
9891.00,1.21
9890.00,1.22
9889.00,1.22
9888.00,1.22
9887.00,1.22
9886.00,1.22
9885.00,1.22
9884.00,1.22
9883.00,1.22
9882.00,1.22
9881.00,1.22
9880.00,1.22
9879.00,1.22
9878.00,1.22
9877.00,1.21
9876.00,1.21
9875.00,1.21
9874.00,1.21
9873.00,1.21
9872.00,1.20
9871.00,1.20
9870.00,1.20
9869.00,1.20
9868.00,1.20
9867.00,1.20
9866.00,1.20
9865.00,1.20
9864.00,1.20
9863.00,1.20
9862.00,1.20
9861.00,1.20
9860.00,1.20
9859.00,1.20
9858.00,1.20
9857.00,1.20
9856.00,1.20
9855.00,1.21
9854.00,1.21
9853.00,1.21
9852.00,1.21
9851.00,1.21
9850.00,1.21
9849.00,1.21
9848.00,1.21
9847.00,1.21
9846.00,1.21
9845.00,1.21
9844.00,1.21
9843.00,1.22
9842.00,1.22
9841.00,1.22
9840.00,1.22
9839.00,1.22
9838.00,1.22
9837.00,1.22
9836.00,1.22
9835.00,1.22
9834.00,1.22
9833.00,1.22
9832.00,1.22
9831.00,1.22
9830.00,1.22
9829.00,1.22
9828.00,1.22
9827.00,1.22
9826.00,1.22
9825.00,1.21
9824.00,1.21
9823.00,1.21
9822.00,1.21
9821.00,1.21
9820.00,1.21
9819.00,1.20
9818.00,1.20
9817.00,1.20
9816.00,1.20
9815.00,1.20
9814.00,1.20
9813.00,1.19
9812.00,1.19
9811.00,1.19
9810.00,1.19
9809.00,1.19
9808.00,1.19
9807.00,1.19
9806.00,1.19
9805.00,1.19
9804.00,1.19
9803.00,1.19
9802.00,1.19
9801.00,1.19
9800.00,1.19
9799.00,1.19
9798.00,1.19
9797.00,1.19
9796.00,1.19
9795.00,1.19
9794.00,1.19
9793.00,1.19
9792.00,1.19
9791.00,1.19
9790.00,1.19
9789.00,1.19
9788.00,1.19
9787.00,1.20
9786.00,1.20
9785.00,1.20
9784.00,1.20
9783.00,1.20
9782.00,1.20
9781.00,1.20
9780.00,1.20
9779.00,1.20
9778.00,1.20
9777.00,1.20
9776.00,1.20
9775.00,1.20
9774.00,1.20
9773.00,1.20
9772.00,1.20
9771.00,1.20
9770.00,1.20
9769.00,1.20
9768.00,1.20
9767.00,1.20
9766.00,1.21
9765.00,1.21
9764.00,1.21
9763.00,1.21
9762.00,1.21
9761.00,1.21
9760.00,1.21
9759.00,1.21
9758.00,1.21
9757.00,1.21
9756.00,1.21
9755.00,1.21
9754.00,1.20
9753.00,1.20
9752.00,1.20
9751.00,1.20
9750.00,1.20
9749.00,1.20
9748.00,1.19
9747.00,1.19
9746.00,1.19
9745.00,1.19
9744.00,1.18
9743.00,1.18
9742.00,1.18
9741.00,1.18
9740.00,1.18
9739.00,1.18
9738.00,1.18
9737.00,1.18
9736.00,1.18
9735.00,1.18
9734.00,1.18
9733.00,1.18
9732.00,1.18
9731.00,1.18
9730.00,1.18
9729.00,1.18
9728.00,1.19
9727.00,1.19
9726.00,1.19
9725.00,1.19
9724.00,1.19
9723.00,1.19
9722.00,1.20
9721.00,1.20
9720.00,1.20
9719.00,1.20
9718.00,1.20
9717.00,1.20
9716.00,1.20
9715.00,1.20
9714.00,1.20
9713.00,1.20
9712.00,1.20
9711.00,1.20
9710.00,1.20
9709.00,1.20
9708.00,1.20
9707.00,1.20
9706.00,1.20
9705.00,1.20
9704.00,1.20
9703.00,1.20
9702.00,1.20
9701.00,1.20
9700.00,1.20
9699.00,1.20
9698.00,1.20
9697.00,1.20
9696.00,1.20
9695.00,1.20
9694.00,1.20
9693.00,1.20
9692.00,1.20
9691.00,1.20
9690.00,1.20
9689.00,1.20
9688.00,1.20
9687.00,1.20
9686.00,1.19
9685.00,1.19
9684.00,1.19
9683.00,1.19
9682.00,1.19
9681.00,1.19
9680.00,1.19
9679.00,1.19
9678.00,1.19
9677.00,1.19
9676.00,1.19
9675.00,1.19
9674.00,1.19
9673.00,1.19
9672.00,1.19
9671.00,1.19
9670.00,1.19
9669.00,1.20
9668.00,1.20
9667.00,1.20
9666.00,1.20
9665.00,1.20
9664.00,1.21
9663.00,1.21
9662.00,1.21
9661.00,1.21
9660.00,1.21
9659.00,1.21
9658.00,1.22
9657.00,1.22
9656.00,1.22
9655.00,1.22
9654.00,1.22
9653.00,1.22
9652.00,1.22
9651.00,1.22
9650.00,1.22
9649.00,1.22
9648.00,1.22
9647.00,1.22
9646.00,1.22
9645.00,1.22
9644.00,1.22
9643.00,1.22
9642.00,1.21
9641.00,1.21
9640.00,1.21
9639.00,1.21
9638.00,1.21
9637.00,1.21
9636.00,1.21
9635.00,1.21
9634.00,1.21
9633.00,1.21
9632.00,1.21
9631.00,1.21
9630.00,1.21
9629.00,1.21
9628.00,1.21
9627.00,1.21
9626.00,1.20
9625.00,1.20
9624.00,1.20
9623.00,1.20
9622.00,1.20
9621.00,1.20
9620.00,1.20
9619.00,1.20
9618.00,1.20
9617.00,1.20
9616.00,1.20
9615.00,1.20
9614.00,1.20
9613.00,1.20
9612.00,1.20
9611.00,1.20
9610.00,1.20
9609.00,1.20
9608.00,1.20
9607.00,1.20
9606.00,1.20
9605.00,1.20
9604.00,1.20
9603.00,1.20
9602.00,1.20
9601.00,1.20
9600.00,1.20
9599.00,1.20
9598.00,1.20
9597.00,1.20
9596.00,1.20
9595.00,1.20
9594.00,1.20
9593.00,1.20
9592.00,1.20
9591.00,1.20
9590.00,1.20
9589.00,1.20
9588.00,1.20
9587.00,1.20
9586.00,1.20
9585.00,1.20
9584.00,1.20
9583.00,1.21
9582.00,1.21
9581.00,1.21
9580.00,1.21
9579.00,1.21
9578.00,1.21
9577.00,1.21
9576.00,1.21
9575.00,1.21
9574.00,1.21
9573.00,1.21
9572.00,1.21
9571.00,1.21
9570.00,1.21
9569.00,1.21
9568.00,1.21
9567.00,1.21
9566.00,1.21
9565.00,1.21
9564.00,1.21
9563.00,1.21
9562.00,1.21
9561.00,1.21
9560.00,1.21
9559.00,1.21
9558.00,1.21
9557.00,1.21
9556.00,1.20
9555.00,1.20
9554.00,1.20
9553.00,1.19
9552.00,1.19
9551.00,1.19
9550.00,1.19
9549.00,1.18
9548.00,1.18
9547.00,1.18
9546.00,1.18
9545.00,1.18
9544.00,1.18
9543.00,1.18
9542.00,1.18
9541.00,1.18
9540.00,1.18
9539.00,1.18
9538.00,1.18
9537.00,1.18
9536.00,1.18
9535.00,1.19
9534.00,1.19
9533.00,1.19
9532.00,1.19
9531.00,1.19
9530.00,1.19
9529.00,1.19
9528.00,1.19
9527.00,1.19
9526.00,1.19
9525.00,1.19
9524.00,1.19
9523.00,1.20
9522.00,1.20
9521.00,1.20
9520.00,1.20
9519.00,1.20
9518.00,1.20
9517.00,1.20
9516.00,1.20
9515.00,1.20
9514.00,1.20
9513.00,1.20
9512.00,1.20
9511.00,1.20
9510.00,1.20
9509.00,1.20
9508.00,1.20
9507.00,1.20
9506.00,1.20
9505.00,1.20
9504.00,1.20
9503.00,1.20
9502.00,1.20
9501.00,1.20
9500.00,1.20
9499.00,1.20
9498.00,1.20
9497.00,1.19
9496.00,1.19
9495.00,1.19
9494.00,1.19
9493.00,1.19
9492.00,1.19
9491.00,1.19
9490.00,1.19
9489.00,1.19
9488.00,1.19
9487.00,1.18
9486.00,1.18
9485.00,1.18
9484.00,1.18
9483.00,1.18
9482.00,1.18
9481.00,1.18
9480.00,1.18
9479.00,1.18
9478.00,1.18
9477.00,1.18
9476.00,1.18
9475.00,1.18
9474.00,1.18
9473.00,1.18
9472.00,1.18
9471.00,1.18
9470.00,1.19
9469.00,1.19
9468.00,1.19
9467.00,1.19
9466.00,1.19
9465.00,1.19
9464.00,1.19
9463.00,1.19
9462.00,1.20
9461.00,1.20
9460.00,1.20
9459.00,1.20
9458.00,1.20
9457.00,1.20
9456.00,1.20
9455.00,1.21
9454.00,1.21
9453.00,1.21
9452.00,1.21
9451.00,1.21
9450.00,1.21
9449.00,1.22
9448.00,1.22
9447.00,1.22
9446.00,1.22
9445.00,1.22
9444.00,1.22
9443.00,1.22
9442.00,1.22
9441.00,1.22
9440.00,1.22
9439.00,1.22
9438.00,1.22
9437.00,1.22
9436.00,1.22
9435.00,1.22
9434.00,1.22
9433.00,1.21
9432.00,1.21
9431.00,1.21
9430.00,1.21
9429.00,1.21
9428.00,1.20
9427.00,1.20
9426.00,1.20
9425.00,1.20
9424.00,1.20
9423.00,1.20
9422.00,1.19
9421.00,1.19
9420.00,1.19
9419.00,1.19
9418.00,1.19
9417.00,1.19
9416.00,1.19
9415.00,1.19
9414.00,1.20
9413.00,1.20
9412.00,1.20
9411.00,1.20
9410.00,1.20
9409.00,1.20
9408.00,1.20
9407.00,1.21
9406.00,1.21
9405.00,1.21
9404.00,1.21
9403.00,1.21
9402.00,1.21
9401.00,1.21
9400.00,1.21
9399.00,1.21
9398.00,1.21
9397.00,1.21
9396.00,1.21
9395.00,1.21
9394.00,1.21
9393.00,1.21
9392.00,1.21
9391.00,1.21
9390.00,1.20
9389.00,1.20
9388.00,1.20
9387.00,1.20
9386.00,1.20
9385.00,1.20
9384.00,1.20
9383.00,1.20
9382.00,1.20
9381.00,1.20
9380.00,1.20
9379.00,1.20
9378.00,1.20
9377.00,1.20
9376.00,1.20
9375.00,1.20
9374.00,1.20
9373.00,1.20
9372.00,1.20
9371.00,1.20
9370.00,1.20
9369.00,1.20
9368.00,1.20
9367.00,1.20
9366.00,1.20
9365.00,1.20
9364.00,1.20
9363.00,1.20
9362.00,1.20
9361.00,1.20
9360.00,1.20
9359.00,1.21
9358.00,1.21
9357.00,1.21
9356.00,1.21
9355.00,1.21
9354.00,1.21
9353.00,1.21
9352.00,1.22
9351.00,1.22
9350.00,1.22
9349.00,1.22
9348.00,1.22
9347.00,1.22
9346.00,1.22
9345.00,1.22
9344.00,1.22
9343.00,1.22
9342.00,1.22
9341.00,1.22
9340.00,1.22
9339.00,1.22
9338.00,1.22
9337.00,1.22
9336.00,1.22
9335.00,1.22
9334.00,1.21
9333.00,1.21
9332.00,1.21
9331.00,1.21
9330.00,1.21
9329.00,1.21
9328.00,1.21
9327.00,1.21
9326.00,1.21
9325.00,1.21
9324.00,1.21
9323.00,1.21
9322.00,1.21
9321.00,1.21
9320.00,1.21
9319.00,1.21
9318.00,1.21
9317.00,1.21
9316.00,1.21
9315.00,1.21
9314.00,1.21
9313.00,1.20
9312.00,1.20
9311.00,1.20
9310.00,1.20
9309.00,1.20
9308.00,1.20
9307.00,1.20
9306.00,1.20
9305.00,1.20
9304.00,1.20
9303.00,1.19
9302.00,1.19
9301.00,1.19
9300.00,1.19
9299.00,1.19
9298.00,1.19
9297.00,1.20
9296.00,1.20
9295.00,1.20
9294.00,1.20
9293.00,1.20
9292.00,1.20
9291.00,1.20
9290.00,1.20
9289.00,1.20
9288.00,1.20
9287.00,1.20
9286.00,1.20
9285.00,1.20
9284.00,1.20
9283.00,1.20
9282.00,1.20
9281.00,1.20
9280.00,1.20
9279.00,1.20
9278.00,1.20
9277.00,1.19
9276.00,1.19
9275.00,1.19
9274.00,1.19
9273.00,1.19
9272.00,1.19
9271.00,1.19
9270.00,1.19
9269.00,1.19
9268.00,1.19
9267.00,1.19
9266.00,1.19
9265.00,1.19
9264.00,1.19
9263.00,1.19
9262.00,1.19
9261.00,1.19
9260.00,1.20
9259.00,1.20
9258.00,1.20
9257.00,1.20
9256.00,1.20
9255.00,1.20
9254.00,1.20
9253.00,1.20
9252.00,1.20
9251.00,1.20
9250.00,1.20
9249.00,1.20
9248.00,1.20
9247.00,1.20
9246.00,1.20
9245.00,1.20
9244.00,1.20
9243.00,1.20
9242.00,1.20
9241.00,1.20
9240.00,1.20
9239.00,1.20
9238.00,1.21
9237.00,1.21
9236.00,1.21
9235.00,1.21
9234.00,1.21
9233.00,1.22
9232.00,1.22
9231.00,1.22
9230.00,1.22
9229.00,1.22
9228.00,1.22
9227.00,1.22
9226.00,1.22
9225.00,1.22
9224.00,1.22
9223.00,1.22
9222.00,1.22
9221.00,1.21
9220.00,1.21
9219.00,1.21
9218.00,1.21
9217.00,1.21
9216.00,1.21
9215.00,1.21
9214.00,1.21
9213.00,1.22
9212.00,1.22
9211.00,1.22
9210.00,1.22
9209.00,1.22
9208.00,1.22
9207.00,1.22
9206.00,1.22
9205.00,1.22
9204.00,1.22
9203.00,1.22
9202.00,1.22
9201.00,1.22
9200.00,1.22
9199.00,1.22
9198.00,1.22
9197.00,1.22
9196.00,1.22
9195.00,1.22
9194.00,1.22
9193.00,1.22
9192.00,1.22
9191.00,1.22
9190.00,1.22
9189.00,1.22
9188.00,1.22
9187.00,1.22
9186.00,1.22
9185.00,1.22
9184.00,1.22
9183.00,1.22
9182.00,1.22
9181.00,1.22
9180.00,1.22
9179.00,1.22
9178.00,1.22
9177.00,1.22
9176.00,1.21
9175.00,1.21
9174.00,1.21
9173.00,1.21
9172.00,1.21
9171.00,1.21
9170.00,1.21
9169.00,1.21
9168.00,1.21
9167.00,1.21
9166.00,1.20
9165.00,1.20
9164.00,1.20
9163.00,1.20
9162.00,1.20
9161.00,1.20
9160.00,1.20
9159.00,1.20
9158.00,1.20
9157.00,1.20
9156.00,1.20
9155.00,1.20
9154.00,1.20
9153.00,1.20
9152.00,1.20
9151.00,1.20
9150.00,1.20
9149.00,1.20
9148.00,1.20
9147.00,1.20
9146.00,1.20
9145.00,1.20
9144.00,1.21
9143.00,1.21
9142.00,1.21
9141.00,1.21
9140.00,1.21
9139.00,1.21
9138.00,1.21
9137.00,1.21
9136.00,1.21
9135.00,1.20
9134.00,1.20
9133.00,1.20
9132.00,1.20
9131.00,1.20
9130.00,1.20
9129.00,1.20
9128.00,1.20
9127.00,1.20
9126.00,1.20
9125.00,1.20
9124.00,1.20
9123.00,1.20
9122.00,1.20
9121.00,1.21
9120.00,1.21
9119.00,1.21
9118.00,1.21
9117.00,1.21
9116.00,1.21
9115.00,1.21
9114.00,1.21
9113.00,1.22
9112.00,1.22
9111.00,1.22
9110.00,1.22
9109.00,1.22
9108.00,1.22
9107.00,1.22
9106.00,1.22
9105.00,1.22
9104.00,1.22
9103.00,1.22
9102.00,1.22
9101.00,1.22
9100.00,1.22
9099.00,1.22
9098.00,1.22
9097.00,1.22
9096.00,1.22
9095.00,1.22
9094.00,1.22
9093.00,1.22
9092.00,1.22
9091.00,1.22
9090.00,1.22
9089.00,1.22
9088.00,1.22
9087.00,1.22
9086.00,1.22
9085.00,1.22
9084.00,1.22
9083.00,1.22
9082.00,1.22
9081.00,1.22
9080.00,1.22
9079.00,1.22
9078.00,1.22
9077.00,1.22
9076.00,1.22
9075.00,1.22
9074.00,1.22
9073.00,1.22
9072.00,1.22
9071.00,1.22
9070.00,1.22
9069.00,1.22
9068.00,1.22
9067.00,1.22
9066.00,1.22
9065.00,1.22
9064.00,1.22
9063.00,1.22
9062.00,1.22
9061.00,1.22
9060.00,1.22
9059.00,1.22
9058.00,1.21
9057.00,1.21
9056.00,1.21
9055.00,1.21
9054.00,1.21
9053.00,1.21
9052.00,1.21
9051.00,1.21
9050.00,1.21
9049.00,1.20
9048.00,1.20
9047.00,1.20
9046.00,1.20
9045.00,1.20
9044.00,1.20
9043.00,1.20
9042.00,1.20
9041.00,1.20
9040.00,1.20
9039.00,1.20
9038.00,1.20
9037.00,1.20
9036.00,1.20
9035.00,1.20
9034.00,1.20
9033.00,1.20
9032.00,1.20
9031.00,1.20
9030.00,1.20
9029.00,1.20
9028.00,1.19
9027.00,1.19
9026.00,1.19
9025.00,1.19
9024.00,1.19
9023.00,1.19
9022.00,1.19
9021.00,1.19
9020.00,1.19
9019.00,1.19
9018.00,1.19
9017.00,1.19
9016.00,1.19
9015.00,1.19
9014.00,1.19
9013.00,1.19
9012.00,1.19
9011.00,1.20
9010.00,1.20
9009.00,1.20
9008.00,1.20
9007.00,1.20
9006.00,1.20
9005.00,1.20
9004.00,1.20
9003.00,1.21
9002.00,1.21
9001.00,1.21
9000.00,1.21
8999.00,1.21
8998.00,1.21
8997.00,1.21
8996.00,1.21
8995.00,1.21
8994.00,1.21
8993.00,1.21
8992.00,1.21
8991.00,1.21
8990.00,1.21
8989.00,1.21
8988.00,1.21
8987.00,1.21
8986.00,1.21
8985.00,1.21
8984.00,1.21
8983.00,1.21
8982.00,1.21
8981.00,1.21
8980.00,1.21
8979.00,1.21
8978.00,1.21
8977.00,1.21
8976.00,1.21
8975.00,1.21
8974.00,1.21
8973.00,1.21
8972.00,1.21
8971.00,1.21
8970.00,1.21
8969.00,1.21
8968.00,1.21
8967.00,1.21
8966.00,1.21
8965.00,1.21
8964.00,1.21
8963.00,1.21
8962.00,1.21
8961.00,1.21
8960.00,1.21
8959.00,1.21
8958.00,1.21
8957.00,1.21
8956.00,1.21
8955.00,1.21
8954.00,1.21
8953.00,1.21
8952.00,1.21
8951.00,1.21
8950.00,1.21
8949.00,1.21
8948.00,1.21
8947.00,1.21
8946.00,1.21
8945.00,1.21
8944.00,1.21
8943.00,1.21
8942.00,1.20
8941.00,1.20
8940.00,1.20
8939.00,1.20
8938.00,1.20
8937.00,1.20
8936.00,1.20
8935.00,1.20
8934.00,1.20
8933.00,1.19
8932.00,1.19
8931.00,1.19
8930.00,1.19
8929.00,1.19
8928.00,1.19
8927.00,1.19
8926.00,1.19
8925.00,1.20
8924.00,1.20
8923.00,1.20
8922.00,1.20
8921.00,1.20
8920.00,1.20
8919.00,1.20
8918.00,1.20
8917.00,1.20
8916.00,1.20
8915.00,1.20
8914.00,1.20
8913.00,1.21
8912.00,1.21
8911.00,1.21
8910.00,1.21
8909.00,1.21
8908.00,1.21
8907.00,1.21
8906.00,1.21
8905.00,1.21
8904.00,1.21
8903.00,1.21
8902.00,1.21
8901.00,1.21
8900.00,1.21
8899.00,1.21
8898.00,1.21
8897.00,1.21
8896.00,1.21
8895.00,1.21
8894.00,1.21
8893.00,1.21
8892.00,1.21
8891.00,1.21
8890.00,1.21
8889.00,1.22
8888.00,1.22
8887.00,1.22
8886.00,1.22
8885.00,1.22
8884.00,1.22
8883.00,1.22
8882.00,1.22
8881.00,1.22
8880.00,1.22
8879.00,1.22
8878.00,1.22
8877.00,1.21
8876.00,1.21
8875.00,1.21
8874.00,1.21
8873.00,1.21
8872.00,1.21
8871.00,1.21
8870.00,1.21
8869.00,1.21
8868.00,1.21
8867.00,1.21
8866.00,1.21
8865.00,1.21
8864.00,1.21
8863.00,1.21
8862.00,1.21
8861.00,1.21
8860.00,1.21
8859.00,1.21
8858.00,1.21
8857.00,1.21
8856.00,1.21
8855.00,1.21
8854.00,1.21
8853.00,1.21
8852.00,1.21
8851.00,1.21
8850.00,1.21
8849.00,1.21
8848.00,1.21
8847.00,1.20
8846.00,1.20
8845.00,1.20
8844.00,1.20
8843.00,1.20
8842.00,1.20
8841.00,1.20
8840.00,1.20
8839.00,1.20
8838.00,1.20
8837.00,1.20
8836.00,1.20
8835.00,1.19
8834.00,1.19
8833.00,1.19
8832.00,1.19
8831.00,1.19
8830.00,1.19
8829.00,1.19
8828.00,1.20
8827.00,1.20
8826.00,1.20
8825.00,1.20
8824.00,1.20
8823.00,1.20
8822.00,1.20
8821.00,1.20
8820.00,1.20
8819.00,1.20
8818.00,1.20
8817.00,1.20
8816.00,1.20
8815.00,1.20
8814.00,1.20
8813.00,1.21
8812.00,1.20
8811.00,1.20
8810.00,1.20
8809.00,1.20
8808.00,1.20
8807.00,1.20
8806.00,1.20
8805.00,1.20
8804.00,1.20
8803.00,1.19
8802.00,1.19
8801.00,1.19
8800.00,1.19
8799.00,1.19
8798.00,1.18
8797.00,1.18
8796.00,1.18
8795.00,1.18
8794.00,1.18
8793.00,1.18
8792.00,1.17
8791.00,1.17
8790.00,1.17
8789.00,1.17
8788.00,1.17
8787.00,1.17
8786.00,1.17
8785.00,1.17
8784.00,1.17
8783.00,1.17
8782.00,1.17
8781.00,1.17
8780.00,1.17
8779.00,1.17
8778.00,1.17
8777.00,1.17
8776.00,1.17
8775.00,1.17
8774.00,1.17
8773.00,1.17
8772.00,1.17
8771.00,1.18
8770.00,1.18
8769.00,1.18
8768.00,1.18
8767.00,1.18
8766.00,1.18
8765.00,1.18
8764.00,1.18
8763.00,1.17
8762.00,1.17
8761.00,1.17
8760.00,1.17
8759.00,1.17
8758.00,1.17
8757.00,1.17
8756.00,1.17
8755.00,1.16
8754.00,1.16
8753.00,1.16
8752.00,1.16
8751.00,1.16
8750.00,1.16
8749.00,1.16
8748.00,1.16
8747.00,1.16
8746.00,1.16
8745.00,1.16
8744.00,1.16
8743.00,1.16
8742.00,1.16
8741.00,1.15
8740.00,1.15
8739.00,1.15
8738.00,1.15
8737.00,1.15
8736.00,1.15
8735.00,1.15
8734.00,1.15
8733.00,1.15
8732.00,1.15
8731.00,1.15
8730.00,1.15
8729.00,1.15
8728.00,1.15
8727.00,1.15
8726.00,1.15
8725.00,1.15
8724.00,1.15
8723.00,1.15
8722.00,1.15
8721.00,1.15
8720.00,1.15
8719.00,1.15
8718.00,1.15
8717.00,1.15
8716.00,1.15
8715.00,1.15
8714.00,1.15
8713.00,1.15
8712.00,1.15
8711.00,1.15
8710.00,1.15
8709.00,1.15
8708.00,1.15
8707.00,1.15
8706.00,1.15
8705.00,1.15
8704.00,1.15
8703.00,1.15
8702.00,1.15
8701.00,1.15
8700.00,1.15
8699.00,1.14
8698.00,1.14
8697.00,1.14
8696.00,1.14
8695.00,1.15
8694.00,1.15
8693.00,1.15
8692.00,1.15
8691.00,1.15
8690.00,1.15
8689.00,1.15
8688.00,1.15
8687.00,1.15
8686.00,1.16
8685.00,1.16
8684.00,1.16
8683.00,1.16
8682.00,1.16
8681.00,1.16
8680.00,1.16
8679.00,1.16
8678.00,1.16
8677.00,1.16
8676.00,1.16
8675.00,1.16
8674.00,1.16
8673.00,1.16
8672.00,1.16
8671.00,1.15
8670.00,1.15
8669.00,1.15
8668.00,1.15
8667.00,1.15
8666.00,1.14
8665.00,1.14
8664.00,1.14
8663.00,1.14
8662.00,1.14
8661.00,1.14
8660.00,1.14
8659.00,1.14
8658.00,1.14
8657.00,1.14
8656.00,1.14
8655.00,1.14
8654.00,1.15
8653.00,1.15
8652.00,1.15
8651.00,1.15
8650.00,1.15
8649.00,1.15
8648.00,1.15
8647.00,1.15
8646.00,1.15
8645.00,1.15
8644.00,1.15
8643.00,1.15
8642.00,1.15
8641.00,1.14
8640.00,1.14
8639.00,1.14
8638.00,1.14
8637.00,1.14
8636.00,1.14
8635.00,1.14
8634.00,1.14
8633.00,1.13
8632.00,1.13
8631.00,1.13
8630.00,1.13
8629.00,1.13
8628.00,1.13
8627.00,1.13
8626.00,1.13
8625.00,1.13
8624.00,1.13
8623.00,1.12
8622.00,1.12
8621.00,1.12
8620.00,1.12
8619.00,1.12
8618.00,1.12
8617.00,1.12
8616.00,1.12
8615.00,1.12
8614.00,1.12
8613.00,1.12
8612.00,1.12
8611.00,1.12
8610.00,1.12
8609.00,1.12
8608.00,1.12
8607.00,1.12
8606.00,1.12
8605.00,1.12
8604.00,1.12
8603.00,1.12
8602.00,1.12
8601.00,1.12
8600.00,1.12
8599.00,1.12
8598.00,1.12
8597.00,1.12
8596.00,1.12
8595.00,1.12
8594.00,1.12
8593.00,1.12
8592.00,1.12
8591.00,1.12
8590.00,1.12
8589.00,1.12
8588.00,1.12
8587.00,1.12
8586.00,1.12
8585.00,1.12
8584.00,1.12
8583.00,1.12
8582.00,1.12
8581.00,1.11
8580.00,1.11
8579.00,1.11
8578.00,1.11
8577.00,1.11
8576.00,1.11
8575.00,1.11
8574.00,1.11
8573.00,1.11
8572.00,1.11
8571.00,1.10
8570.00,1.10
8569.00,1.10
8568.00,1.10
8567.00,1.10
8566.00,1.10
8565.00,1.10
8564.00,1.10
8563.00,1.10
8562.00,1.10
8561.00,1.11
8560.00,1.11
8559.00,1.11
8558.00,1.11
8557.00,1.11
8556.00,1.11
8555.00,1.11
8554.00,1.11
8553.00,1.11
8552.00,1.11
8551.00,1.11
8550.00,1.11
8549.00,1.11
8548.00,1.10
8547.00,1.10
8546.00,1.10
8545.00,1.10
8544.00,1.10
8543.00,1.10
8542.00,1.10
8541.00,1.10
8540.00,1.10
8539.00,1.10
8538.00,1.10
8537.00,1.10
8536.00,1.10
8535.00,1.10
8534.00,1.10
8533.00,1.10
8532.00,1.10
8531.00,1.10
8530.00,1.09
8529.00,1.09
8528.00,1.09
8527.00,1.09
8526.00,1.09
8525.00,1.09
8524.00,1.09
8523.00,1.09
8522.00,1.09
8521.00,1.09
8520.00,1.09
8519.00,1.09
8518.00,1.09
8517.00,1.09
8516.00,1.09
8515.00,1.09
8514.00,1.09
8513.00,1.09
8512.00,1.09
8511.00,1.09
8510.00,1.09
8509.00,1.09
8508.00,1.09
8507.00,1.09
8506.00,1.09
8505.00,1.09
8504.00,1.09
8503.00,1.09
8502.00,1.09
8501.00,1.09
8500.00,1.09
8499.00,1.09
8498.00,1.09
8497.00,1.09
8496.00,1.09
8495.00,1.09
8494.00,1.09
8493.00,1.09
8492.00,1.09
8491.00,1.09
8490.00,1.09
8489.00,1.09
8488.00,1.09
8487.00,1.09
8486.00,1.09
8485.00,1.09
8484.00,1.09
8483.00,1.09
8482.00,1.09
8481.00,1.09
8480.00,1.09
8479.00,1.09
8478.00,1.08
8477.00,1.08
8476.00,1.08
8475.00,1.08
8474.00,1.08
8473.00,1.07
8472.00,1.07
8471.00,1.07
8470.00,1.06
8469.00,1.06
8468.00,1.06
8467.00,1.06
8466.00,1.05
8465.00,1.05
8464.00,1.05
8463.00,1.05
8462.00,1.05
8461.00,1.05
8460.00,1.05
8459.00,1.05
8458.00,1.05
8457.00,1.05
8456.00,1.05
8455.00,1.05
8454.00,1.05
8453.00,1.05
8452.00,1.05
8451.00,1.05
8450.00,1.05
8449.00,1.05
8448.00,1.05
8447.00,1.04
8446.00,1.04
8445.00,1.04
8444.00,1.04
8443.00,1.04
8442.00,1.04
8441.00,1.04
8440.00,1.04
8439.00,1.04
8438.00,1.04
8437.00,1.04
8436.00,1.04
8435.00,1.04
8434.00,1.04
8433.00,1.04
8432.00,1.04
8431.00,1.04
8430.00,1.04
8429.00,1.04
8428.00,1.04
8427.00,1.04
8426.00,1.04
8425.00,1.04
8424.00,1.05
8423.00,1.05
8422.00,1.05
8421.00,1.05
8420.00,1.05
8419.00,1.05
8418.00,1.05
8417.00,1.05
8416.00,1.05
8415.00,1.05
8414.00,1.05
8413.00,1.05
8412.00,1.05
8411.00,1.05
8410.00,1.05
8409.00,1.06
8408.00,1.06
8407.00,1.06
8406.00,1.06
8405.00,1.07
8404.00,1.07
8403.00,1.07
8402.00,1.07
8401.00,1.08
8400.00,1.08
8399.00,1.08
8398.00,1.08
8397.00,1.08
8396.00,1.09
8395.00,1.09
8394.00,1.09
8393.00,1.09
8392.00,1.09
8391.00,1.09
8390.00,1.09
8389.00,1.09
8388.00,1.09
8387.00,1.09
8386.00,1.09
8385.00,1.09
8384.00,1.09
8383.00,1.09
8382.00,1.08
8381.00,1.08
8380.00,1.08
8379.00,1.08
8378.00,1.08
8377.00,1.08
8376.00,1.08
8375.00,1.08
8374.00,1.08
8373.00,1.08
8372.00,1.08
8371.00,1.08
8370.00,1.08
8369.00,1.08
8368.00,1.08
8367.00,1.08
8366.00,1.08
8365.00,1.08
8364.00,1.09
8363.00,1.09
8362.00,1.09
8361.00,1.09
8360.00,1.09
8359.00,1.09
8358.00,1.09
8357.00,1.09
8356.00,1.09
8355.00,1.09
8354.00,1.09
8353.00,1.09
8352.00,1.09
8351.00,1.09
8350.00,1.09
8349.00,1.09
8348.00,1.09
8347.00,1.09
8346.00,1.09
8345.00,1.09
8344.00,1.09
8343.00,1.09
8342.00,1.09
8341.00,1.09
8340.00,1.09
8339.00,1.09
8338.00,1.09
8337.00,1.09
8336.00,1.09
8335.00,1.09
8334.00,1.09
8333.00,1.09
8332.00,1.09
8331.00,1.09
8330.00,1.09
8329.00,1.09
8328.00,1.09
8327.00,1.09
8326.00,1.08
8325.00,1.08
8324.00,1.08
8323.00,1.08
8322.00,1.08
8321.00,1.08
8320.00,1.08
8319.00,1.08
8318.00,1.08
8317.00,1.09
8316.00,1.09
8315.00,1.09
8314.00,1.09
8313.00,1.09
8312.00,1.09
8311.00,1.09
8310.00,1.09
8309.00,1.09
8308.00,1.09
8307.00,1.09
8306.00,1.09
8305.00,1.09
8304.00,1.09
8303.00,1.09
8302.00,1.09
8301.00,1.09
8300.00,1.09
8299.00,1.09
8298.00,1.09
8297.00,1.09
8296.00,1.09
8295.00,1.09
8294.00,1.09
8293.00,1.09
8292.00,1.10
8291.00,1.10
8290.00,1.10
8289.00,1.10
8288.00,1.10
8287.00,1.10
8286.00,1.10
8285.00,1.11
8284.00,1.11
8283.00,1.11
8282.00,1.11
8281.00,1.11
8280.00,1.11
8279.00,1.11
8278.00,1.11
8277.00,1.11
8276.00,1.11
8275.00,1.11
8274.00,1.11
8273.00,1.11
8272.00,1.11
8271.00,1.11
8270.00,1.11
8269.00,1.11
8268.00,1.11
8267.00,1.11
8266.00,1.11
8265.00,1.11
8264.00,1.11
8263.00,1.11
8262.00,1.11
8261.00,1.11
8260.00,1.11
8259.00,1.11
8258.00,1.11
8257.00,1.11
8256.00,1.11
8255.00,1.11
8254.00,1.11
8253.00,1.11
8252.00,1.11
8251.00,1.11
8250.00,1.11
8249.00,1.11
8248.00,1.11
8247.00,1.11
8246.00,1.11
8245.00,1.11
8244.00,1.11
8243.00,1.11
8242.00,1.11
8241.00,1.11
8240.00,1.11
8239.00,1.11
8238.00,1.11
8237.00,1.11
8236.00,1.11
8235.00,1.11
8234.00,1.11
8233.00,1.11
8232.00,1.11
8231.00,1.11
8230.00,1.11
8229.00,1.11
8228.00,1.11
8227.00,1.11
8226.00,1.10
8225.00,1.10
8224.00,1.10
8223.00,1.10
8222.00,1.10
8221.00,1.11
8220.00,1.11
8219.00,1.11
8218.00,1.11
8217.00,1.11
8216.00,1.11
8215.00,1.11
8214.00,1.11
8213.00,1.11
8212.00,1.11
8211.00,1.12
8210.00,1.12
8209.00,1.12
8208.00,1.12
8207.00,1.12
8206.00,1.12
8205.00,1.12
8204.00,1.13
8203.00,1.13
8202.00,1.13
8201.00,1.13
8200.00,1.13
8199.00,1.13
8198.00,1.13
8197.00,1.13
8196.00,1.13
8195.00,1.13
8194.00,1.13
8193.00,1.13
8192.00,1.13
8191.00,1.13
8190.00,1.13
8189.00,1.13
8188.00,1.13
8187.00,1.13
8186.00,1.13
8185.00,1.13
8184.00,1.13
8183.00,1.13
8182.00,1.13
8181.00,1.13
8180.00,1.13
8179.00,1.13
8178.00,1.13
8177.00,1.13
8176.00,1.13
8175.00,1.13
8174.00,1.13
8173.00,1.13
8172.00,1.13
8171.00,1.13
8170.00,1.13
8169.00,1.13
8168.00,1.14
8167.00,1.14
8166.00,1.14
8165.00,1.14
8164.00,1.14
8163.00,1.14
8162.00,1.14
8161.00,1.14
8160.00,1.14
8159.00,1.14
8158.00,1.14
8157.00,1.15
8156.00,1.15
8155.00,1.15
8154.00,1.15
8153.00,1.15
8152.00,1.15
8151.00,1.15
8150.00,1.15
8149.00,1.15
8148.00,1.15
8147.00,1.15
8146.00,1.15
8145.00,1.15
8144.00,1.15
8143.00,1.15
8142.00,1.15
8141.00,1.15
8140.00,1.15
8139.00,1.15
8138.00,1.16
8137.00,1.16
8136.00,1.16
8135.00,1.16
8134.00,1.15
8133.00,1.15
8132.00,1.15
8131.00,1.15
8130.00,1.15
8129.00,1.15
8128.00,1.15
8127.00,1.16
8126.00,1.16
8125.00,1.16
8124.00,1.16
8123.00,1.16
8122.00,1.16
8121.00,1.16
8120.00,1.16
8119.00,1.16
8118.00,1.16
8117.00,1.16
8116.00,1.16
8115.00,1.16
8114.00,1.17
8113.00,1.17
8112.00,1.17
8111.00,1.17
8110.00,1.17
8109.00,1.16
8108.00,1.16
8107.00,1.16
8106.00,1.16
8105.00,1.16
8104.00,1.16
8103.00,1.16
8102.00,1.16
8101.00,1.16
8100.00,1.15
8099.00,1.15
8098.00,1.15
8097.00,1.15
8096.00,1.15
8095.00,1.15
8094.00,1.15
8093.00,1.15
8092.00,1.15
8091.00,1.15
8090.00,1.15
8089.00,1.15
8088.00,1.15
8087.00,1.16
8086.00,1.16
8085.00,1.16
8084.00,1.16
8083.00,1.16
8082.00,1.16
8081.00,1.16
8080.00,1.16
8079.00,1.16
8078.00,1.17
8077.00,1.17
8076.00,1.17
8075.00,1.17
8074.00,1.17
8073.00,1.17
8072.00,1.17
8071.00,1.17
8070.00,1.17
8069.00,1.17
8068.00,1.18
8067.00,1.18
8066.00,1.18
8065.00,1.18
8064.00,1.18
8063.00,1.18
8062.00,1.18
8061.00,1.18
8060.00,1.18
8059.00,1.18
8058.00,1.18
8057.00,1.19
8056.00,1.19
8055.00,1.18
8054.00,1.18
8053.00,1.18
8052.00,1.18
8051.00,1.18
8050.00,1.18
8049.00,1.18
8048.00,1.18
8047.00,1.18
8046.00,1.18
8045.00,1.18
8044.00,1.18
8043.00,1.18
8042.00,1.18
8041.00,1.18
8040.00,1.18
8039.00,1.18
8038.00,1.19
8037.00,1.19
8036.00,1.19
8035.00,1.19
8034.00,1.19
8033.00,1.18
8032.00,1.18
8031.00,1.18
8030.00,1.18
8029.00,1.18
8028.00,1.18
8027.00,1.18
8026.00,1.18
8025.00,1.18
8024.00,1.18
8023.00,1.18
8022.00,1.18
8021.00,1.17
8020.00,1.17
8019.00,1.17
8018.00,1.17
8017.00,1.17
8016.00,1.17
8015.00,1.17
8014.00,1.17
8013.00,1.17
8012.00,1.17
8011.00,1.18
8010.00,1.18
8009.00,1.18
8008.00,1.18
8007.00,1.18
8006.00,1.18
8005.00,1.18
8004.00,1.18
8003.00,1.18
8002.00,1.18
8001.00,1.18
8000.00,1.18
7999.00,1.18
7998.00,1.18
7997.00,1.18
7996.00,1.18
7995.00,1.19
7994.00,1.19
7993.00,1.19
7992.00,1.19
7991.00,1.19
7990.00,1.19
7989.00,1.19
7988.00,1.19
7987.00,1.19
7986.00,1.19
7985.00,1.19
7984.00,1.19
7983.00,1.19
7982.00,1.19
7981.00,1.19
7980.00,1.19
7979.00,1.19
7978.00,1.19
7977.00,1.19
7976.00,1.19
7975.00,1.19
7974.00,1.19
7973.00,1.19
7972.00,1.19
7971.00,1.19
7970.00,1.19
7969.00,1.19
7968.00,1.19
7967.00,1.19
7966.00,1.19
7965.00,1.20
7964.00,1.20
7963.00,1.20
7962.00,1.20
7961.00,1.20
7960.00,1.20
7959.00,1.20
7958.00,1.20
7957.00,1.20
7956.00,1.20
7955.00,1.20
7954.00,1.20
7953.00,1.20
7952.00,1.20
7951.00,1.19
7950.00,1.19
7949.00,1.19
7948.00,1.19
7947.00,1.19
7946.00,1.19
7945.00,1.19
7944.00,1.19
7943.00,1.19
7942.00,1.19
7941.00,1.20
7940.00,1.20
7939.00,1.20
7938.00,1.20
7937.00,1.20
7936.00,1.20
7935.00,1.20
7934.00,1.20
7933.00,1.20
7932.00,1.20
7931.00,1.20
7930.00,1.21
7929.00,1.21
7928.00,1.21
7927.00,1.21
7926.00,1.21
7925.00,1.21
7924.00,1.21
7923.00,1.20
7922.00,1.20
7921.00,1.20
7920.00,1.20
7919.00,1.20
7918.00,1.20
7917.00,1.20
7916.00,1.20
7915.00,1.19
7914.00,1.19
7913.00,1.19
7912.00,1.19
7911.00,1.19
7910.00,1.19
7909.00,1.19
7908.00,1.19
7907.00,1.19
7906.00,1.19
7905.00,1.19
7904.00,1.19
7903.00,1.19
7902.00,1.19
7901.00,1.19
7900.00,1.19
7899.00,1.19
7898.00,1.19
7897.00,1.19
7896.00,1.19
7895.00,1.19
7894.00,1.20
7893.00,1.20
7892.00,1.20
7891.00,1.20
7890.00,1.20
7889.00,1.20
7888.00,1.20
7887.00,1.20
7886.00,1.20
7885.00,1.20
7884.00,1.20
7883.00,1.20
7882.00,1.20
7881.00,1.20
7880.00,1.20
7879.00,1.20
7878.00,1.20
7877.00,1.20
7876.00,1.20
7875.00,1.20
7874.00,1.20
7873.00,1.20
7872.00,1.20
7871.00,1.20
7870.00,1.20
7869.00,1.20
7868.00,1.20
7867.00,1.20
7866.00,1.20
7865.00,1.20
7864.00,1.21
7863.00,1.21
7862.00,1.21
7861.00,1.21
7860.00,1.21
7859.00,1.21
7858.00,1.21
7857.00,1.20
7856.00,1.20
7855.00,1.20
7854.00,1.20
7853.00,1.20
7852.00,1.20
7851.00,1.20
7850.00,1.20
7849.00,1.20
7848.00,1.20
7847.00,1.20
7846.00,1.20
7845.00,1.20
7844.00,1.20
7843.00,1.20
7842.00,1.20
7841.00,1.20
7840.00,1.20
7839.00,1.20
7838.00,1.21
7837.00,1.21
7836.00,1.21
7835.00,1.21
7834.00,1.21
7833.00,1.21
7832.00,1.21
7831.00,1.21
7830.00,1.21
7829.00,1.21
7828.00,1.21
7827.00,1.22
7826.00,1.22
7825.00,1.22
7824.00,1.22
7823.00,1.22
7822.00,1.22
7821.00,1.22
7820.00,1.22
7819.00,1.22
7818.00,1.22
7817.00,1.22
7816.00,1.22
7815.00,1.22
7814.00,1.22
7813.00,1.22
7812.00,1.22
7811.00,1.22
7810.00,1.22
7809.00,1.21
7808.00,1.21
7807.00,1.21
7806.00,1.21
7805.00,1.21
7804.00,1.21
7803.00,1.21
7802.00,1.21
7801.00,1.21
7800.00,1.21
7799.00,1.21
7798.00,1.21
7797.00,1.21
7796.00,1.21
7795.00,1.21
7794.00,1.21
7793.00,1.21
7792.00,1.21
7791.00,1.21
7790.00,1.21
7789.00,1.21
7788.00,1.21
7787.00,1.21
7786.00,1.21
7785.00,1.21
7784.00,1.21
7783.00,1.21
7782.00,1.21
7781.00,1.21
7780.00,1.21
7779.00,1.21
7778.00,1.21
7777.00,1.21
7776.00,1.21
7775.00,1.21
7774.00,1.21
7773.00,1.21
7772.00,1.21
7771.00,1.21
7770.00,1.21
7769.00,1.21
7768.00,1.21
7767.00,1.21
7766.00,1.21
7765.00,1.21
7764.00,1.21
7763.00,1.21
7762.00,1.21
7761.00,1.21
7760.00,1.21
7759.00,1.21
7758.00,1.21
7757.00,1.21
7756.00,1.21
7755.00,1.21
7754.00,1.21
7753.00,1.21
7752.00,1.22
7751.00,1.22
7750.00,1.22
7749.00,1.22
7748.00,1.22
7747.00,1.22
7746.00,1.22
7745.00,1.22
7744.00,1.22
7743.00,1.22
7742.00,1.22
7741.00,1.22
7740.00,1.22
7739.00,1.22
7738.00,1.22
7737.00,1.22
7736.00,1.22
7735.00,1.22
7734.00,1.22
7733.00,1.22
7732.00,1.22
7731.00,1.22
7730.00,1.22
7729.00,1.22
7728.00,1.22
7727.00,1.22
7726.00,1.22
7725.00,1.22
7724.00,1.22
7723.00,1.22
7722.00,1.22
7721.00,1.22
7720.00,1.22
7719.00,1.22
7718.00,1.22
7717.00,1.22
7716.00,1.22
7715.00,1.22
7714.00,1.22
7713.00,1.22
7712.00,1.22
7711.00,1.22
7710.00,1.22
7709.00,1.22
7708.00,1.22
7707.00,1.22
7706.00,1.22
7705.00,1.22
7704.00,1.22
7703.00,1.21
7702.00,1.21
7701.00,1.21
7700.00,1.21
7699.00,1.21
7698.00,1.21
7697.00,1.22
7696.00,1.22
7695.00,1.22
7694.00,1.22
7693.00,1.22
7692.00,1.22
7691.00,1.22
7690.00,1.22
7689.00,1.22
7688.00,1.22
7687.00,1.22
7686.00,1.22
7685.00,1.22
7684.00,1.22
7683.00,1.22
7682.00,1.22
7681.00,1.22
7680.00,1.22
7679.00,1.22
7678.00,1.22
7677.00,1.22
7676.00,1.22
7675.00,1.22
7674.00,1.22
7673.00,1.22
7672.00,1.22
7671.00,1.22
7670.00,1.22
7669.00,1.22
7668.00,1.22
7667.00,1.22
7666.00,1.22
7665.00,1.22
7664.00,1.22
7663.00,1.22
7662.00,1.22
7661.00,1.22
7660.00,1.22
7659.00,1.22
7658.00,1.22
7657.00,1.22
7656.00,1.22
7655.00,1.22
7654.00,1.22
7653.00,1.22
7652.00,1.22
7651.00,1.22
7650.00,1.22
7649.00,1.22
7648.00,1.22
7647.00,1.22
7646.00,1.22
7645.00,1.22
7644.00,1.22
7643.00,1.21
7642.00,1.21
7641.00,1.21
7640.00,1.21
7639.00,1.21
7638.00,1.21
7637.00,1.21
7636.00,1.21
7635.00,1.21
7634.00,1.21
7633.00,1.21
7632.00,1.22
7631.00,1.22
7630.00,1.22
7629.00,1.22
7628.00,1.22
7627.00,1.22
7626.00,1.22
7625.00,1.22
7624.00,1.22
7623.00,1.22
7622.00,1.22
7621.00,1.22
7620.00,1.22
7619.00,1.22
7618.00,1.22
7617.00,1.22
7616.00,1.22
7615.00,1.22
7614.00,1.22
7613.00,1.22
7612.00,1.22
7611.00,1.22
7610.00,1.22
7609.00,1.22
7608.00,1.22
7607.00,1.22
7606.00,1.22
7605.00,1.22
7604.00,1.21
7603.00,1.21
7602.00,1.21
7601.00,1.21
7600.00,1.21
7599.00,1.21
7598.00,1.21
7597.00,1.21
7596.00,1.21
7595.00,1.21
7594.00,1.21
7593.00,1.21
7592.00,1.21
7591.00,1.21
7590.00,1.21
7589.00,1.21
7588.00,1.21
7587.00,1.21
7586.00,1.21
7585.00,1.21
7584.00,1.21
7583.00,1.21
7582.00,1.21
7581.00,1.21
7580.00,1.21
7579.00,1.21
7578.00,1.21
7577.00,1.21
7576.00,1.21
7575.00,1.21
7574.00,1.21
7573.00,1.21
7572.00,1.21
7571.00,1.21
7570.00,1.22
7569.00,1.22
7568.00,1.22
7567.00,1.22
7566.00,1.22
7565.00,1.22
7564.00,1.22
7563.00,1.22
7562.00,1.22
7561.00,1.22
7560.00,1.22
7559.00,1.22
7558.00,1.21
7557.00,1.21
7556.00,1.21
7555.00,1.21
7554.00,1.21
7553.00,1.21
7552.00,1.21
7551.00,1.21
7550.00,1.21
7549.00,1.20
7548.00,1.20
7547.00,1.20
7546.00,1.20
7545.00,1.20
7544.00,1.20
7543.00,1.20
7542.00,1.20
7541.00,1.20
7540.00,1.20
7539.00,1.20
7538.00,1.20
7537.00,1.20
7536.00,1.20
7535.00,1.20
7534.00,1.20
7533.00,1.20
7532.00,1.19
7531.00,1.19
7530.00,1.19
7529.00,1.19
7528.00,1.19
7527.00,1.19
7526.00,1.19
7525.00,1.19
7524.00,1.19
7523.00,1.19
7522.00,1.19
7521.00,1.19
7520.00,1.19
7519.00,1.19
7518.00,1.19
7517.00,1.19
7516.00,1.19
7515.00,1.19
7514.00,1.19
7513.00,1.19
7512.00,1.19
7511.00,1.19
7510.00,1.19
7509.00,1.19
7508.00,1.19
7507.00,1.19
7506.00,1.19
7505.00,1.19
7504.00,1.19
7503.00,1.19
7502.00,1.19
7501.00,1.19
7500.00,1.19
7499.00,1.19
7498.00,1.19
7497.00,1.19
7496.00,1.19
7495.00,1.20
7494.00,1.20
7493.00,1.20
7492.00,1.20
7491.00,1.20
7490.00,1.19
7489.00,1.19
7488.00,1.19
7487.00,1.19
7486.00,1.19
7485.00,1.19
7484.00,1.19
7483.00,1.19
7482.00,1.19
7481.00,1.19
7480.00,1.19
7479.00,1.19
7478.00,1.19
7477.00,1.19
7476.00,1.18
7475.00,1.18
7474.00,1.18
7473.00,1.18
7472.00,1.18
7471.00,1.18
7470.00,1.18
7469.00,1.17
7468.00,1.17
7467.00,1.17
7466.00,1.17
7465.00,1.17
7464.00,1.17
7463.00,1.17
7462.00,1.17
7461.00,1.17
7460.00,1.17
7459.00,1.17
7458.00,1.17
7457.00,1.17
7456.00,1.16
7455.00,1.16
7454.00,1.16
7453.00,1.16
7452.00,1.16
7451.00,1.16
7450.00,1.16
7449.00,1.16
7448.00,1.16
7447.00,1.16
7446.00,1.16
7445.00,1.16
7444.00,1.16
7443.00,1.16
7442.00,1.16
7441.00,1.16
7440.00,1.15
7439.00,1.15
7438.00,1.15
7437.00,1.15
7436.00,1.15
7435.00,1.15
7434.00,1.15
7433.00,1.15
7432.00,1.15
7431.00,1.15
7430.00,1.15
7429.00,1.15
7428.00,1.15
7427.00,1.15
7426.00,1.15
7425.00,1.15
7424.00,1.15
7423.00,1.15
7422.00,1.15
7421.00,1.15
7420.00,1.15
7419.00,1.15
7418.00,1.15
7417.00,1.14
7416.00,1.14
7415.00,1.14
7414.00,1.14
7413.00,1.14
7412.00,1.14
7411.00,1.14
7410.00,1.14
7409.00,1.14
7408.00,1.14
7407.00,1.14
7406.00,1.14
7405.00,1.13
7404.00,1.13
7403.00,1.13
7402.00,1.13
7401.00,1.13
7400.00,1.13
7399.00,1.13
7398.00,1.13
7397.00,1.12
7396.00,1.12
7395.00,1.12
7394.00,1.12
7393.00,1.12
7392.00,1.12
7391.00,1.11
7390.00,1.11
7389.00,1.11
7388.00,1.11
7387.00,1.11
7386.00,1.11
7385.00,1.10
7384.00,1.10
7383.00,1.10
7382.00,1.10
7381.00,1.10
7380.00,1.10
7379.00,1.10
7378.00,1.10
7377.00,1.10
7376.00,1.10
7375.00,1.10
7374.00,1.10
7373.00,1.10
7372.00,1.10
7371.00,1.10
7370.00,1.10
7369.00,1.10
7368.00,1.10
7367.00,1.10
7366.00,1.10
7365.00,1.10
7364.00,1.10
7363.00,1.10
7362.00,1.10
7361.00,1.10
7360.00,1.10
7359.00,1.10
7358.00,1.10
7357.00,1.10
7356.00,1.10
7355.00,1.10
7354.00,1.10
7353.00,1.10
7352.00,1.10
7351.00,1.09
7350.00,1.09
7349.00,1.09
7348.00,1.09
7347.00,1.09
7346.00,1.09
7345.00,1.09
7344.00,1.09
7343.00,1.09
7342.00,1.09
7341.00,1.09
7340.00,1.09
7339.00,1.09
7338.00,1.09
7337.00,1.09
7336.00,1.09
7335.00,1.09
7334.00,1.09
7333.00,1.09
7332.00,1.09
7331.00,1.09
7330.00,1.09
7329.00,1.09
7328.00,1.09
7327.00,1.09
7326.00,1.09
7325.00,1.09
7324.00,1.09
7323.00,1.09
7322.00,1.08
7321.00,1.08
7320.00,1.08
7319.00,1.08
7318.00,1.08
7317.00,1.08
7316.00,1.07
7315.00,1.07
7314.00,1.07
7313.00,1.07
7312.00,1.07
7311.00,1.07
7310.00,1.07
7309.00,1.07
7308.00,1.07
7307.00,1.06
7306.00,1.06
7305.00,1.06
7304.00,1.06
7303.00,1.06
7302.00,1.06
7301.00,1.06
7300.00,1.05
7299.00,1.05
7298.00,1.05
7297.00,1.05
7296.00,1.05
7295.00,1.05
7294.00,1.05
7293.00,1.05
7292.00,1.05
7291.00,1.05
7290.00,1.05
7289.00,1.05
7288.00,1.05
7287.00,1.05
7286.00,1.05
7285.00,1.05
7284.00,1.05
7283.00,1.05
7282.00,1.05
7281.00,1.05
7280.00,1.05
7279.00,1.05
7278.00,1.05
7277.00,1.05
7276.00,1.05
7275.00,1.05
7274.00,1.05
7273.00,1.05
7272.00,1.04
7271.00,1.04
7270.00,1.04
7269.00,1.04
7268.00,1.04
7267.00,1.04
7266.00,1.04
7265.00,1.04
7264.00,1.04
7263.00,1.04
7262.00,1.03
7261.00,1.03
7260.00,1.03
7259.00,1.03
7258.00,1.03
7257.00,1.03
7256.00,1.02
7255.00,1.02
7254.00,1.02
7253.00,1.02
7252.00,1.02
7251.00,1.01
7250.00,1.01
7249.00,1.01
7248.00,1.00
7247.00,1.00
7246.00,1.00
7245.00,1.00
7244.00,0.99
7243.00,0.99
7242.00,0.99
7241.00,0.98
7240.00,0.98
7239.00,0.98
7238.00,0.98
7237.00,0.97
7236.00,0.97
7235.00,0.97
7234.00,0.97
7233.00,0.97
7232.00,0.96
7231.00,0.96
7230.00,0.96
7229.00,0.96
7228.00,0.95
7227.00,0.95
7226.00,0.95
7225.00,0.95
7224.00,0.94
7223.00,0.94
7222.00,0.94
7221.00,0.94
7220.00,0.93
7219.00,0.93
7218.00,0.93
7217.00,0.93
7216.00,0.92
7215.00,0.92
7214.00,0.92
7213.00,0.92
7212.00,0.91
7211.00,0.91
7210.00,0.91
7209.00,0.91
7208.00,0.90
7207.00,0.90
7206.00,0.90
7205.00,0.89
7204.00,0.89
7203.00,0.89
7202.00,0.88
7201.00,0.88
7200.00,0.88
7199.00,0.88
7198.00,0.87
7197.00,0.87
7196.00,0.87
7195.00,0.86
7194.00,0.86
7193.00,0.86
7192.00,0.85
7191.00,0.85
7190.00,0.85
7189.00,0.85
7188.00,0.84
7187.00,0.84
7186.00,0.84
7185.00,0.83
7184.00,0.83
7183.00,0.83
7182.00,0.83
7181.00,0.82
7180.00,0.82
7179.00,0.82
7178.00,0.81
7177.00,0.81
7176.00,0.81
7175.00,0.80
7174.00,0.80
7173.00,0.80
7172.00,0.79
7171.00,0.79
7170.00,0.79
7169.00,0.78
7168.00,0.78
7167.00,0.78
7166.00,0.78
7165.00,0.77
7164.00,0.77
7163.00,0.77
7162.00,0.77
7161.00,0.77
7160.00,0.77
7159.00,0.77
7158.00,0.76
7157.00,0.76
7156.00,0.76
7155.00,0.76
7154.00,0.76
7153.00,0.76
7152.00,0.76
7151.00,0.76
7150.00,0.76
7149.00,0.75
7148.00,0.75
7147.00,0.75
7146.00,0.75
7145.00,0.74
7144.00,0.74
7143.00,0.74
7142.00,0.74
7141.00,0.73
7140.00,0.73
7139.00,0.73
7138.00,0.73
7137.00,0.73
7136.00,0.72
7135.00,0.72
7134.00,0.72
7133.00,0.72
7132.00,0.72
7131.00,0.72
7130.00,0.71
7129.00,0.71
7128.00,0.71
7127.00,0.71
7126.00,0.71
7125.00,0.71
7124.00,0.71
7123.00,0.71
7122.00,0.70
7121.00,0.70
7120.00,0.70
7119.00,0.70
7118.00,0.70
7117.00,0.69
7116.00,0.69
7115.00,0.69
7114.00,0.69
7113.00,0.68
7112.00,0.68
7111.00,0.68
7110.00,0.68
7109.00,0.68
7108.00,0.67
7107.00,0.67
7106.00,0.67
7105.00,0.67
7104.00,0.67
7103.00,0.67
7102.00,0.66
7101.00,0.66
7100.00,0.66
7099.00,0.66
7098.00,0.66
7097.00,0.66
7096.00,0.66
7095.00,0.66
7094.00,0.65
7093.00,0.65
7092.00,0.65
7091.00,0.65
7090.00,0.65
7089.00,0.65
7088.00,0.65
7087.00,0.64
7086.00,0.64
7085.00,0.64
7084.00,0.64
7083.00,0.64
7082.00,0.64
7081.00,0.64
7080.00,0.63
7079.00,0.63
7078.00,0.63
7077.00,0.63
7076.00,0.63
7075.00,0.63
7074.00,0.63
7073.00,0.63
7072.00,0.62
7071.00,0.62
7070.00,0.62
7069.00,0.62
7068.00,0.62
7067.00,0.62
7066.00,0.62
7065.00,0.62
7064.00,0.62
7063.00,0.62
7062.00,0.62
7061.00,0.61
7060.00,0.61
7059.00,0.61
7058.00,0.61
7057.00,0.61
7056.00,0.61
7055.00,0.61
7054.00,0.60
7053.00,0.60
7052.00,0.60
7051.00,0.60
7050.00,0.60
7049.00,0.60
7048.00,0.60
7047.00,0.60
7046.00,0.60
7045.00,0.60
7044.00,0.60
7043.00,0.60
7042.00,0.60
7041.00,0.60
7040.00,0.60
7039.00,0.60
7038.00,0.60
7037.00,0.60
7036.00,0.60
7035.00,0.60
7034.00,0.60
7033.00,0.60
7032.00,0.60
7031.00,0.60
7030.00,0.59
7029.00,0.59
7028.00,0.59
7027.00,0.59
7026.00,0.59
7025.00,0.59
7024.00,0.59
7023.00,0.59
7022.00,0.59
7021.00,0.59
7020.00,0.59
7019.00,0.59
7018.00,0.59
7017.00,0.59
7016.00,0.59
7015.00,0.59
7014.00,0.59
7013.00,0.59
7012.00,0.58
7011.00,0.58
7010.00,0.58
7009.00,0.58
7008.00,0.58
7007.00,0.58
7006.00,0.58
7005.00,0.58
7004.00,0.58
7003.00,0.58
7002.00,0.58
7001.00,0.58
7000.00,0.58
6999.00,0.58
6998.00,0.58
6997.00,0.58
6996.00,0.58
6995.00,0.58
6994.00,0.58
6993.00,0.58
6992.00,0.58
6991.00,0.58
6990.00,0.58
6989.00,0.58
6988.00,0.58
6987.00,0.58
6986.00,0.58
6985.00,0.58
6984.00,0.58
6983.00,0.58
6982.00,0.58
6981.00,0.58
6980.00,0.58
6979.00,0.58
6978.00,0.58
6977.00,0.58
6976.00,0.58
6975.00,0.58
6974.00,0.58
6973.00,0.58
6972.00,0.58
6971.00,0.58
6970.00,0.58
6969.00,0.58
6968.00,0.58
6967.00,0.57
6966.00,0.57
6965.00,0.57
6964.00,0.57
6963.00,0.57
6962.00,0.57
6961.00,0.57
6960.00,0.57
6959.00,0.57
6958.00,0.57
6957.00,0.57
6956.00,0.57
6955.00,0.57
6954.00,0.57
6953.00,0.57
6952.00,0.57
6951.00,0.57
6950.00,0.57
6949.00,0.57
6948.00,0.57
6947.00,0.57
6946.00,0.57
6945.00,0.57
6944.00,0.57
6943.00,0.57
6942.00,0.57
6941.00,0.56
6940.00,0.56
6939.00,0.56
6938.00,0.56
6937.00,0.56
6936.00,0.56
6935.00,0.56
6934.00,0.56
6933.00,0.56
6932.00,0.56
6931.00,0.56
6930.00,0.56
6929.00,0.57
6928.00,0.57
6927.00,0.57
6926.00,0.57
6925.00,0.57
6924.00,0.57
6923.00,0.57
6922.00,0.57
6921.00,0.57
6920.00,0.57
6919.00,0.57
6918.00,0.57
6917.00,0.56
6916.00,0.56
6915.00,0.56
6914.00,0.56
6913.00,0.56
6912.00,0.56
6911.00,0.56
6910.00,0.56
6909.00,0.56
6908.00,0.56
6907.00,0.56
6906.00,0.56
6905.00,0.56
6904.00,0.56
6903.00,0.56
6902.00,0.56
6901.00,0.56
6900.00,0.56
6899.00,0.56
6898.00,0.56
6897.00,0.56
6896.00,0.56
6895.00,0.56
6894.00,0.56
6893.00,0.56
6892.00,0.56
6891.00,0.56
6890.00,0.56
6889.00,0.56
6888.00,0.56
6887.00,0.56
6886.00,0.56
6885.00,0.56
6884.00,0.56
6883.00,0.56
6882.00,0.56
6881.00,0.56
6880.00,0.56
6879.00,0.56
6878.00,0.56
6877.00,0.56
6876.00,0.56
6875.00,0.56
6874.00,0.56
6873.00,0.56
6872.00,0.56
6871.00,0.56
6870.00,0.56
6869.00,0.56
6868.00,0.57
6867.00,0.57
6866.00,0.57
6865.00,0.57
6864.00,0.57
6863.00,0.57
6862.00,0.57
6861.00,0.57
6860.00,0.57
6859.00,0.57
6858.00,0.57
6857.00,0.57
6856.00,0.57
6855.00,0.57
6854.00,0.57
6853.00,0.57
6852.00,0.57
6851.00,0.57
6850.00,0.57
6849.00,0.57
6848.00,0.57
6847.00,0.57
6846.00,0.57
6845.00,0.57
6844.00,0.57
6843.00,0.57
6842.00,0.57
6841.00,0.57
6840.00,0.57
6839.00,0.57
6838.00,0.57
6837.00,0.57
6836.00,0.57
6835.00,0.57
6834.00,0.57
6833.00,0.57
6832.00,0.57
6831.00,0.57
6830.00,0.57
6829.00,0.57
6828.00,0.57
6827.00,0.57
6826.00,0.57
6825.00,0.57
6824.00,0.57
6823.00,0.57
6822.00,0.57
6821.00,0.57
6820.00,0.57
6819.00,0.57
6818.00,0.57
6817.00,0.57
6816.00,0.57
6815.00,0.57
6814.00,0.57
6813.00,0.57
6812.00,0.57
6811.00,0.57
6810.00,0.57
6809.00,0.57
6808.00,0.57
6807.00,0.57
6806.00,0.57
6805.00,0.57
6804.00,0.57
6803.00,0.57
6802.00,0.57
6801.00,0.57
6800.00,0.57
6799.00,0.57
6798.00,0.57
6797.00,0.57
6796.00,0.57
6795.00,0.57
6794.00,0.57
6793.00,0.58
6792.00,0.58
6791.00,0.58
6790.00,0.58
6789.00,0.58
6788.00,0.58
6787.00,0.58
6786.00,0.58
6785.00,0.58
6784.00,0.58
6783.00,0.58
6782.00,0.58
6781.00,0.58
6780.00,0.58
6779.00,0.58
6778.00,0.58
6777.00,0.58
6776.00,0.59
6775.00,0.59
6774.00,0.59
6773.00,0.59
6772.00,0.59
6771.00,0.59
6770.00,0.59
6769.00,0.59
6768.00,0.59
6767.00,0.59
6766.00,0.59
6765.00,0.59
6764.00,0.59
6763.00,0.59
6762.00,0.59
6761.00,0.60
6760.00,0.60
6759.00,0.60
6758.00,0.60
6757.00,0.60
6756.00,0.60
6755.00,0.60
6754.00,0.60
6753.00,0.60
6752.00,0.60
6751.00,0.60
6750.00,0.59
6749.00,0.59
6748.00,0.60
6747.00,0.60
6746.00,0.60
6745.00,0.60
6744.00,0.60
6743.00,0.60
6742.00,0.60
6741.00,0.60
6740.00,0.60
6739.00,0.60
6738.00,0.60
6737.00,0.60
6736.00,0.60
6735.00,0.60
6734.00,0.60
6733.00,0.60
6732.00,0.61
6731.00,0.61
6730.00,0.61
6729.00,0.61
6728.00,0.61
6727.00,0.61
6726.00,0.61
6725.00,0.61
6724.00,0.61
6723.00,0.61
6722.00,0.61
6721.00,0.61
6720.00,0.61
6719.00,0.61
6718.00,0.61
6717.00,0.61
6716.00,0.61
6715.00,0.61
6714.00,0.61
6713.00,0.61
6712.00,0.61
6711.00,0.61
6710.00,0.61
6709.00,0.61
6708.00,0.61
6707.00,0.61
6706.00,0.61
6705.00,0.61
6704.00,0.61
6703.00,0.61
6702.00,0.61
6701.00,0.61
6700.00,0.61
6699.00,0.61
6698.00,0.61
6697.00,0.61
6696.00,0.61
6695.00,0.61
6694.00,0.61
6693.00,0.61
6692.00,0.62
6691.00,0.62
6690.00,0.62
6689.00,0.62
6688.00,0.62
6687.00,0.62
6686.00,0.62
6685.00,0.62
6684.00,0.62
6683.00,0.62
6682.00,0.62
6681.00,0.62
6680.00,0.62
6679.00,0.62
6678.00,0.63
6677.00,0.63
6676.00,0.63
6675.00,0.63
6674.00,0.63
6673.00,0.63
6672.00,0.63
6671.00,0.63
6670.00,0.63
6669.00,0.63
6668.00,0.63
6667.00,0.63
6666.00,0.63
6665.00,0.63
6664.00,0.63
6663.00,0.64
6662.00,0.64
6661.00,0.64
6660.00,0.64
6659.00,0.64
6658.00,0.64
6657.00,0.64
6656.00,0.64
6655.00,0.65
6654.00,0.65
6653.00,0.65
6652.00,0.65
6651.00,0.65
6650.00,0.65
6649.00,0.65
6648.00,0.65
6647.00,0.65
6646.00,0.65
6645.00,0.65
6644.00,0.65
6643.00,0.65
6642.00,0.65
6641.00,0.65
6640.00,0.65
6639.00,0.65
6638.00,0.65
6637.00,0.65
6636.00,0.65
6635.00,0.65
6634.00,0.65
6633.00,0.65
6632.00,0.65
6631.00,0.65
6630.00,0.66
6629.00,0.66
6628.00,0.66
6627.00,0.66
6626.00,0.66
6625.00,0.66
6624.00,0.66
6623.00,0.67
6622.00,0.67
6621.00,0.67
6620.00,0.67
6619.00,0.67
6618.00,0.67
6617.00,0.67
6616.00,0.67
6615.00,0.67
6614.00,0.67
6613.00,0.67
6612.00,0.67
6611.00,0.67
6610.00,0.68
6609.00,0.68
6608.00,0.68
6607.00,0.68
6606.00,0.68
6605.00,0.68
6604.00,0.68
6603.00,0.68
6602.00,0.68
6601.00,0.68
6600.00,0.68
6599.00,0.68
6598.00,0.68
6597.00,0.68
6596.00,0.68
6595.00,0.69
6594.00,0.69
6593.00,0.69
6592.00,0.69
6591.00,0.69
6590.00,0.69
6589.00,0.69
6588.00,0.69
6587.00,0.69
6586.00,0.69
6585.00,0.69
6584.00,0.69
6583.00,0.69
6582.00,0.69
6581.00,0.69
6580.00,0.69
6579.00,0.69
6578.00,0.69
6577.00,0.69
6576.00,0.69
6575.00,0.69
6574.00,0.70
6573.00,0.70
6572.00,0.70
6571.00,0.70
6570.00,0.70
6569.00,0.70
6568.00,0.70
6567.00,0.70
6566.00,0.70
6565.00,0.70
6564.00,0.70
6563.00,0.70
6562.00,0.70
6561.00,0.70
6560.00,0.70
6559.00,0.70
6558.00,0.71
6557.00,0.71
6556.00,0.71
6555.00,0.71
6554.00,0.71
6553.00,0.71
6552.00,0.71
6551.00,0.71
6550.00,0.71
6549.00,0.72
6548.00,0.72
6547.00,0.72
6546.00,0.72
6545.00,0.72
6544.00,0.72
6543.00,0.72
6542.00,0.72
6541.00,0.72
6540.00,0.73
6539.00,0.73
6538.00,0.73
6537.00,0.73
6536.00,0.73
6535.00,0.73
6534.00,0.73
6533.00,0.73
6532.00,0.73
6531.00,0.73
6530.00,0.73
6529.00,0.73
6528.00,0.74
6527.00,0.74
6526.00,0.74
6525.00,0.74
6524.00,0.74
6523.00,0.74
6522.00,0.74
6521.00,0.74
6520.00,0.74
6519.00,0.74
6518.00,0.74
6517.00,0.74
6516.00,0.74
6515.00,0.74
6514.00,0.74
6513.00,0.74
6512.00,0.74
6511.00,0.74
6510.00,0.74
6509.00,0.74
6508.00,0.74
6507.00,0.74
6506.00,0.74
6505.00,0.74
6504.00,0.74
6503.00,0.74
6502.00,0.74
6501.00,0.74
6500.00,0.74
6499.00,0.74
6498.00,0.74
6497.00,0.74
6496.00,0.74
6495.00,0.75
6494.00,0.75
6493.00,0.75
6492.00,0.75
6491.00,0.75
6490.00,0.75
6489.00,0.75
6488.00,0.75
6487.00,0.75
6486.00,0.75
6485.00,0.75
6484.00,0.75
6483.00,0.75
6482.00,0.75
6481.00,0.75
6480.00,0.75
6479.00,0.75
6478.00,0.75
6477.00,0.75
6476.00,0.75
6475.00,0.75
6474.00,0.75
6473.00,0.75
6472.00,0.75
6471.00,0.76
6470.00,0.76
6469.00,0.76
6468.00,0.76
6467.00,0.76
6466.00,0.76
6465.00,0.76
6464.00,0.76
6463.00,0.76
6462.00,0.76
6461.00,0.76
6460.00,0.76
6459.00,0.76
6458.00,0.76
6457.00,0.76
6456.00,0.76
6455.00,0.76
6454.00,0.76
6453.00,0.76
6452.00,0.76
6451.00,0.76
6450.00,0.76
6449.00,0.76
6448.00,0.77
6447.00,0.77
6446.00,0.77
6445.00,0.77
6444.00,0.77
6443.00,0.77
6442.00,0.77
6441.00,0.77
6440.00,0.77
6439.00,0.77
6438.00,0.77
6437.00,0.77
6436.00,0.77
6435.00,0.77
6434.00,0.77
6433.00,0.77
6432.00,0.77
6431.00,0.77
6430.00,0.78
6429.00,0.78
6428.00,0.78
6427.00,0.78
6426.00,0.78
6425.00,0.78
6424.00,0.78
6423.00,0.78
6422.00,0.78
6421.00,0.78
6420.00,0.78
6419.00,0.78
6418.00,0.78
6417.00,0.78
6416.00,0.79
6415.00,0.79
6414.00,0.79
6413.00,0.79
6412.00,0.79
6411.00,0.79
6410.00,0.79
6409.00,0.79
6408.00,0.79
6407.00,0.79
6406.00,0.79
6405.00,0.79
6404.00,0.79
6403.00,0.79
6402.00,0.79
6401.00,0.79
6400.00,0.79
6399.00,0.79
6398.00,0.80
6397.00,0.80
6396.00,0.80
6395.00,0.80
6394.00,0.80
6393.00,0.80
6392.00,0.80
6391.00,0.80
6390.00,0.80
6389.00,0.80
6388.00,0.80
6387.00,0.80
6386.00,0.80
6385.00,0.80
6384.00,0.80
6383.00,0.80
6382.00,0.80
6381.00,0.80
6380.00,0.80
6379.00,0.80
6378.00,0.80
6377.00,0.80
6376.00,0.80
6375.00,0.80
6374.00,0.80
6373.00,0.80
6372.00,0.80
6371.00,0.80
6370.00,0.81
6369.00,0.81
6368.00,0.81
6367.00,0.81
6366.00,0.81
6365.00,0.81
6364.00,0.81
6363.00,0.81
6362.00,0.81
6361.00,0.81
6360.00,0.81
6359.00,0.81
6358.00,0.81
6357.00,0.81
6356.00,0.81
6355.00,0.81
6354.00,0.81
6353.00,0.81
6352.00,0.81
6351.00,0.81
6350.00,0.81
6349.00,0.81
6348.00,0.82
6347.00,0.82
6346.00,0.82
6345.00,0.82
6344.00,0.82
6343.00,0.82
6342.00,0.82
6341.00,0.82
6340.00,0.82
6339.00,0.82
6338.00,0.83
6337.00,0.83
6336.00,0.83
6335.00,0.83
6334.00,0.83
6333.00,0.83
6332.00,0.83
6331.00,0.83
6330.00,0.83
6329.00,0.83
6328.00,0.83
6327.00,0.84
6326.00,0.84
6325.00,0.84
6324.00,0.84
6323.00,0.84
6322.00,0.84
6321.00,0.84
6320.00,0.84
6319.00,0.84
6318.00,0.84
6317.00,0.84
6316.00,0.84
6315.00,0.84
6314.00,0.84
6313.00,0.84
6312.00,0.85
6311.00,0.85
6310.00,0.85
6309.00,0.85
6308.00,0.85
6307.00,0.85
6306.00,0.85
6305.00,0.85
6304.00,0.85
6303.00,0.85
6302.00,0.85
6301.00,0.85
6300.00,0.86
6299.00,0.86
6298.00,0.86
6297.00,0.86
6296.00,0.86
6295.00,0.86
6294.00,0.86
6293.00,0.86
6292.00,0.86
6291.00,0.86
6290.00,0.86
6289.00,0.86
6288.00,0.86
6287.00,0.86
6286.00,0.86
6285.00,0.86
6284.00,0.86
6283.00,0.87
6282.00,0.87
6281.00,0.87
6280.00,0.87
6279.00,0.87
6278.00,0.87
6277.00,0.87
6276.00,0.88
6275.00,0.88
6274.00,0.88
6273.00,0.88
6272.00,0.88
6271.00,0.88
6270.00,0.88
6269.00,0.89
6268.00,0.89
6267.00,0.89
6266.00,0.89
6265.00,0.89
6264.00,0.89
6263.00,0.89
6262.00,0.89
6261.00,0.89
6260.00,0.89
6259.00,0.90
6258.00,0.90
6257.00,0.90
6256.00,0.90
6255.00,0.90
6254.00,0.90
6253.00,0.90
6252.00,0.90
6251.00,0.90
6250.00,0.90
6249.00,0.90
6248.00,0.90
6247.00,0.90
6246.00,0.90
6245.00,0.90
6244.00,0.90
6243.00,0.91
6242.00,0.91
6241.00,0.91
6240.00,0.91
6239.00,0.91
6238.00,0.91
6237.00,0.91
6236.00,0.92
6235.00,0.92
6234.00,0.92
6233.00,0.92
6232.00,0.92
6231.00,0.92
6230.00,0.92
6229.00,0.92
6228.00,0.92
6227.00,0.93
6226.00,0.93
6225.00,0.93
6224.00,0.93
6223.00,0.93
6222.00,0.93
6221.00,0.93
6220.00,0.93
6219.00,0.93
6218.00,0.93
6217.00,0.93
6216.00,0.93
6215.00,0.93
6214.00,0.93
6213.00,0.94
6212.00,0.94
6211.00,0.94
6210.00,0.94
6209.00,0.94
6208.00,0.94
6207.00,0.94
6206.00,0.94
6205.00,0.94
6204.00,0.94
6203.00,0.94
6202.00,0.94
6201.00,0.94
6200.00,0.95
6199.00,0.95
6198.00,0.95
6197.00,0.95
6196.00,0.95
6195.00,0.95
6194.00,0.95
6193.00,0.95
6192.00,0.96
6191.00,0.96
6190.00,0.96
6189.00,0.96
6188.00,0.96
6187.00,0.96
6186.00,0.96
6185.00,0.96
6184.00,0.97
6183.00,0.97
6182.00,0.97
6181.00,0.97
6180.00,0.97
6179.00,0.97
6178.00,0.97
6177.00,0.97
6176.00,0.97
6175.00,0.98
6174.00,0.98
6173.00,0.98
6172.00,0.98
6171.00,0.98
6170.00,0.98
6169.00,0.98
6168.00,0.98
6167.00,0.98
6166.00,0.99
6165.00,0.99
6164.00,0.99
6163.00,0.99
6162.00,0.99
6161.00,0.99
6160.00,0.99
6159.00,1.00
6158.00,1.00
6157.00,1.00
6156.00,1.00
6155.00,1.00
6154.00,1.00
6153.00,1.00
6152.00,1.01
6151.00,1.01
6150.00,1.01
6149.00,1.01
6148.00,1.01
6147.00,1.01
6146.00,1.01
6145.00,1.01
6144.00,1.01
6143.00,1.02
6142.00,1.02
6141.00,1.02
6140.00,1.02
6139.00,1.02
6138.00,1.02
6137.00,1.02
6136.00,1.02
6135.00,1.03
6134.00,1.03
6133.00,1.03
6132.00,1.03
6131.00,1.03
6130.00,1.03
6129.00,1.04
6128.00,1.04
6127.00,1.04
6126.00,1.04
6125.00,1.04
6124.00,1.04
6123.00,1.05
6122.00,1.05
6121.00,1.05
6120.00,1.05
6119.00,1.05
6118.00,1.05
6117.00,1.05
6116.00,1.05
6115.00,1.06
6114.00,1.06
6113.00,1.06
6112.00,1.06
6111.00,1.06
6110.00,1.06
6109.00,1.06
6108.00,1.06
6107.00,1.06
6106.00,1.06
6105.00,1.07
6104.00,1.07
6103.00,1.07
6102.00,1.07
6101.00,1.07
6100.00,1.07
6099.00,1.07
6098.00,1.07
6097.00,1.07
6096.00,1.07
6095.00,1.07
6094.00,1.07
6093.00,1.07
6092.00,1.08
6091.00,1.08
6090.00,1.08
6089.00,1.08
6088.00,1.08
6087.00,1.08
6086.00,1.08
6085.00,1.08
6084.00,1.08
6083.00,1.09
6082.00,1.09
6081.00,1.09
6080.00,1.09
6079.00,1.09
6078.00,1.09
6077.00,1.09
6076.00,1.09
6075.00,1.09
6074.00,1.09
6073.00,1.09
6072.00,1.10
6071.00,1.10
6070.00,1.10
6069.00,1.10
6068.00,1.10
6067.00,1.10
6066.00,1.10
6065.00,1.10
6064.00,1.10
6063.00,1.10
6062.00,1.10
6061.00,1.10
6060.00,1.10
6059.00,1.10
6058.00,1.11
6057.00,1.11
6056.00,1.11
6055.00,1.11
6054.00,1.11
6053.00,1.11
6052.00,1.11
6051.00,1.11
6050.00,1.11
6049.00,1.11
6048.00,1.12
6047.00,1.12
6046.00,1.12
6045.00,1.12
6044.00,1.12
6043.00,1.12
6042.00,1.12
6041.00,1.12
6040.00,1.12
6039.00,1.13
6038.00,1.13
6037.00,1.13
6036.00,1.13
6035.00,1.13
6034.00,1.13
6033.00,1.13
6032.00,1.13
6031.00,1.13
6030.00,1.13
6029.00,1.13
6028.00,1.13
6027.00,1.13
6026.00,1.13
6025.00,1.13
6024.00,1.13
6023.00,1.13
6022.00,1.13
6021.00,1.13
6020.00,1.13
6019.00,1.13
6018.00,1.13
6017.00,1.13
6016.00,1.13
6015.00,1.13
6014.00,1.13
6013.00,1.13
6012.00,1.13
6011.00,1.13
6010.00,1.13
6009.00,1.13
6008.00,1.13
6007.00,1.13
6006.00,1.13
6005.00,1.13
6004.00,1.13
6003.00,1.13
6002.00,1.13
6001.00,1.13
6000.00,1.13
5999.00,1.13
5998.00,1.13
5997.00,1.13
5996.00,1.13
5995.00,1.13
5994.00,1.13
5993.00,1.12
5992.00,1.12
5991.00,1.12
5990.00,1.12
5989.00,1.12
5988.00,1.12
5987.00,1.12
5986.00,1.11
5985.00,1.11
5984.00,1.11
5983.00,1.11
5982.00,1.11
5981.00,1.10
5980.00,1.10
5979.00,1.10
5978.00,1.10
5977.00,1.09
5976.00,1.09
5975.00,1.09
5974.00,1.08
5973.00,1.08
5972.00,1.07
5971.00,1.07
5970.00,1.06
5969.00,1.06
5968.00,1.05
5967.00,1.05
5966.00,1.04
5965.00,1.03
5964.00,1.03
5963.00,1.02
5962.00,1.01
5961.00,1.01
5960.00,1.00
5959.00,1.00
5958.00,0.99
5957.00,0.98
5956.00,0.98
5955.00,0.97
5954.00,0.97
5953.00,0.96
5952.00,0.96
5951.00,0.95
5950.00,0.95
5949.00,0.94
5948.00,0.94
5947.00,0.94
5946.00,0.93
5945.00,0.93
5944.00,0.93
5943.00,0.93
5942.00,0.93
5941.00,0.92
5940.00,0.92
5939.00,0.92
5938.00,0.92
5937.00,0.92
5936.00,0.92
5935.00,0.92
5934.00,0.92
5933.00,0.92
5932.00,0.91
5931.00,0.91
5930.00,0.91
5929.00,0.91
5928.00,0.91
5927.00,0.91
5926.00,0.91
5925.00,0.91
5924.00,0.91
5923.00,0.91
5922.00,0.90
5921.00,0.90
5920.00,0.90
5919.00,0.90
5918.00,0.90
5917.00,0.90
5916.00,0.89
5915.00,0.89
5914.00,0.89
5913.00,0.89
5912.00,0.89
5911.00,0.89
5910.00,0.89
5909.00,0.88
5908.00,0.88
5907.00,0.88
5906.00,0.88
5905.00,0.88
5904.00,0.88
5903.00,0.88
5902.00,0.88
5901.00,0.88
5900.00,0.88
5899.00,0.88
5898.00,0.88
5897.00,0.88
5896.00,0.88
5895.00,0.88
5894.00,0.89
5893.00,0.89
5892.00,0.89
5891.00,0.89
5890.00,0.89
5889.00,0.89
5888.00,0.90
5887.00,0.90
5886.00,0.90
5885.00,0.90
5884.00,0.91
5883.00,0.91
5882.00,0.91
5881.00,0.91
5880.00,0.91
5879.00,0.92
5878.00,0.92
5877.00,0.92
5876.00,0.92
5875.00,0.92
5874.00,0.93
5873.00,0.93
5872.00,0.93
5871.00,0.93
5870.00,0.93
5869.00,0.94
5868.00,0.94
5867.00,0.94
5866.00,0.94
5865.00,0.94
5864.00,0.94
5863.00,0.94
5862.00,0.95
5861.00,0.95
5860.00,0.95
5859.00,0.95
5858.00,0.95
5857.00,0.95
5856.00,0.95
5855.00,0.95
5854.00,0.95
5853.00,0.95
5852.00,0.95
5851.00,0.95
5850.00,0.95
5849.00,0.96
5848.00,0.96
5847.00,0.96
5846.00,0.96
5845.00,0.96
5844.00,0.96
5843.00,0.96
5842.00,0.96
5841.00,0.96
5840.00,0.96
5839.00,0.96
5838.00,0.95
5837.00,0.95
5836.00,0.95
5835.00,0.95
5834.00,0.95
5833.00,0.95
5832.00,0.95
5831.00,0.96
5830.00,0.96
5829.00,0.96
5828.00,0.96
5827.00,0.96
5826.00,0.96
5825.00,0.96
5824.00,0.96
5823.00,0.96
5822.00,0.96
5821.00,0.96
5820.00,0.96
5819.00,0.96
5818.00,0.96
5817.00,0.96
5816.00,0.96
5815.00,0.96
5814.00,0.96
5813.00,0.96
5812.00,0.96
5811.00,0.96
5810.00,0.96
5809.00,0.96
5808.00,0.96
5807.00,0.96
5806.00,0.96
5805.00,0.96
5804.00,0.96
5803.00,0.96
5802.00,0.96
5801.00,0.96
5800.00,0.96
5799.00,0.96
5798.00,0.95
5797.00,0.95
5796.00,0.95
5795.00,0.95
5794.00,0.95
5793.00,0.95
5792.00,0.95
5791.00,0.95
5790.00,0.94
5789.00,0.94
5788.00,0.94
5787.00,0.94
5786.00,0.94
5785.00,0.93
5784.00,0.93
5783.00,0.93
5782.00,0.93
5781.00,0.93
5780.00,0.93
5779.00,0.93
5778.00,0.92
5777.00,0.92
5776.00,0.92
5775.00,0.92
5774.00,0.92
5773.00,0.92
5772.00,0.92
5771.00,0.92
5770.00,0.92
5769.00,0.92
5768.00,0.92
5767.00,0.92
5766.00,0.93
5765.00,0.93
5764.00,0.93
5763.00,0.93
5762.00,0.93
5761.00,0.93
5760.00,0.94
5759.00,0.94
5758.00,0.94
5757.00,0.94
5756.00,0.95
5755.00,0.95
5754.00,0.95
5753.00,0.96
5752.00,0.96
5751.00,0.96
5750.00,0.97
5749.00,0.97
5748.00,0.97
5747.00,0.97
5746.00,0.98
5745.00,0.98
5744.00,0.98
5743.00,0.98
5742.00,0.98
5741.00,0.99
5740.00,0.99
5739.00,0.99
5738.00,0.99
5737.00,0.99
5736.00,0.99
5735.00,0.99
5734.00,1.00
5733.00,1.00
5732.00,1.00
5731.00,1.00
5730.00,1.00
5729.00,1.00
5728.00,1.00
5727.00,1.00
5726.00,1.00
5725.00,1.01
5724.00,1.01
5723.00,1.01
5722.00,1.01
5721.00,1.01
5720.00,1.01
5719.00,1.01
5718.00,1.01
5717.00,1.01
5716.00,1.01
5715.00,1.01
5714.00,1.01
5713.00,1.01
5712.00,1.01
5711.00,1.01
5710.00,1.01
5709.00,1.01
5708.00,1.01
5707.00,1.01
5706.00,1.01
5705.00,1.01
5704.00,1.01
5703.00,1.01
5702.00,1.01
5701.00,1.01
5700.00,1.01
5699.00,1.00
5698.00,1.00
5697.00,1.00
5696.00,1.00
5695.00,1.00
5694.00,1.00
5693.00,1.00
5692.00,1.00
5691.00,1.00
5690.00,1.00
5689.00,0.99
5688.00,0.99
5687.00,0.99
5686.00,0.99
5685.00,0.99
5684.00,0.99
5683.00,0.99
5682.00,0.98
5681.00,0.98
5680.00,0.98
5679.00,0.98
5678.00,0.98
5677.00,0.98
5676.00,0.98
5675.00,0.98
5674.00,0.98
5673.00,0.98
5672.00,0.98
5671.00,0.98
5670.00,0.98
5669.00,0.98
5668.00,0.98
5667.00,0.98
5666.00,0.98
5665.00,0.98
5664.00,0.98
5663.00,0.99
5662.00,0.99
5661.00,0.99
5660.00,0.99
5659.00,0.99
5658.00,1.00
5657.00,1.00
5656.00,1.00
5655.00,1.00
5654.00,1.00
5653.00,1.01
5652.00,1.01
5651.00,1.01
5650.00,1.01
5649.00,1.01
5648.00,1.02
5647.00,1.02
5646.00,1.02
5645.00,1.02
5644.00,1.02
5643.00,1.02
5642.00,1.02
5641.00,1.03
5640.00,1.03
5639.00,1.03
5638.00,1.03
5637.00,1.03
5636.00,1.03
5635.00,1.03
5634.00,1.03
5633.00,1.03
5632.00,1.03
5631.00,1.04
5630.00,1.04
5629.00,1.04
5628.00,1.04
5627.00,1.04
5626.00,1.04
5625.00,1.04
5624.00,1.04
5623.00,1.04
5622.00,1.05
5621.00,1.05
5620.00,1.05
5619.00,1.05
5618.00,1.05
5617.00,1.05
5616.00,1.05
5615.00,1.06
5614.00,1.06
5613.00,1.06
5612.00,1.06
5611.00,1.06
5610.00,1.06
5609.00,1.06
5608.00,1.07
5607.00,1.07
5606.00,1.07
5605.00,1.07
5604.00,1.07
5603.00,1.07
5602.00,1.07
5601.00,1.08
5600.00,1.08
5599.00,1.08
5598.00,1.08
5597.00,1.08
5596.00,1.08
5595.00,1.08
5594.00,1.09
5593.00,1.09
5592.00,1.09
5591.00,1.09
5590.00,1.09
5589.00,1.09
5588.00,1.09
5587.00,1.09
5586.00,1.09
5585.00,1.10
5584.00,1.10
5583.00,1.10
5582.00,1.10
5581.00,1.10
5580.00,1.10
5579.00,1.10
5578.00,1.11
5577.00,1.11
5576.00,1.11
5575.00,1.11
5574.00,1.11
5573.00,1.11
5572.00,1.11
5571.00,1.12
5570.00,1.12
5569.00,1.12
5568.00,1.12
5567.00,1.12
5566.00,1.12
5565.00,1.12
5564.00,1.12
5563.00,1.12
5562.00,1.13
5561.00,1.13
5560.00,1.13
5559.00,1.13
5558.00,1.13
5557.00,1.13
5556.00,1.13
5555.00,1.13
5554.00,1.13
5553.00,1.14
5552.00,1.14
5551.00,1.14
5550.00,1.14
5549.00,1.14
5548.00,1.14
5547.00,1.14
5546.00,1.14
5545.00,1.14
5544.00,1.14
5543.00,1.15
5542.00,1.15
5541.00,1.15
5540.00,1.15
5539.00,1.15
5538.00,1.15
5537.00,1.15
5536.00,1.15
5535.00,1.15
5534.00,1.15
5533.00,1.15
5532.00,1.16
5531.00,1.16
5530.00,1.16
5529.00,1.16
5528.00,1.16
5527.00,1.16
5526.00,1.16
5525.00,1.16
5524.00,1.16
5523.00,1.16
5522.00,1.16
5521.00,1.16
5520.00,1.16
5519.00,1.16
5518.00,1.16
5517.00,1.16
5516.00,1.16
5515.00,1.16
5514.00,1.17
5513.00,1.17
5512.00,1.17
5511.00,1.17
5510.00,1.17
5509.00,1.17
5508.00,1.17
5507.00,1.17
5506.00,1.17
5505.00,1.17
5504.00,1.17
5503.00,1.17
5502.00,1.17
5501.00,1.17
5500.00,1.17
5499.00,1.17
5498.00,1.17
5497.00,1.17
5496.00,1.17
5495.00,1.18
5494.00,1.18
5493.00,1.18
5492.00,1.18
5491.00,1.18
5490.00,1.18
5489.00,1.18
5488.00,1.18
5487.00,1.18
5486.00,1.18
5485.00,1.18
5484.00,1.18
5483.00,1.19
5482.00,1.19
5481.00,1.19
5480.00,1.19
5479.00,1.19
5478.00,1.19
5477.00,1.19
5476.00,1.19
5475.00,1.19
5474.00,1.19
5473.00,1.19
5472.00,1.19
5471.00,1.20
5470.00,1.20
5469.00,1.20
5468.00,1.20
5467.00,1.20
5466.00,1.20
5465.00,1.20
5464.00,1.20
5463.00,1.21
5462.00,1.21
5461.00,1.21
5460.00,1.21
5459.00,1.21
5458.00,1.21
5457.00,1.21
5456.00,1.21
5455.00,1.21
5454.00,1.21
5453.00,1.21
5452.00,1.22
5451.00,1.22
5450.00,1.21
5449.00,1.21
5448.00,1.21
5447.00,1.21
5446.00,1.21
5445.00,1.21
5444.00,1.21
5443.00,1.21
5442.00,1.21
5441.00,1.21
5440.00,1.21
5439.00,1.21
5438.00,1.22
5437.00,1.22
5436.00,1.22
5435.00,1.22
5434.00,1.22
5433.00,1.22
5432.00,1.22
5431.00,1.22
5430.00,1.22
5429.00,1.22
5428.00,1.22
5427.00,1.22
5426.00,1.22
5425.00,1.22
5424.00,1.22
5423.00,1.22
5422.00,1.22
5421.00,1.22
5420.00,1.22
5419.00,1.22
5418.00,1.22
5417.00,1.22
5416.00,1.22
5415.00,1.22
5414.00,1.22
5413.00,1.22
5412.00,1.22
5411.00,1.22
5410.00,1.22
5409.00,1.22
5408.00,1.22
5407.00,1.22
5406.00,1.22
5405.00,1.22
5404.00,1.22
5403.00,1.22
5402.00,1.22
5401.00,1.22
5400.00,1.22
5399.00,1.22
5398.00,1.22
5397.00,1.22
5396.00,1.21
5395.00,1.21
5394.00,1.21
5393.00,1.21
5392.00,1.21
5391.00,1.21
5390.00,1.20
5389.00,1.20
5388.00,1.20
5387.00,1.20
5386.00,1.20
5385.00,1.19
5384.00,1.19
5383.00,1.19
5382.00,1.19
5381.00,1.18
5380.00,1.18
5379.00,1.18
5378.00,1.18
5377.00,1.17
5376.00,1.17
5375.00,1.17
5374.00,1.16
5373.00,1.16
5372.00,1.16
5371.00,1.15
5370.00,1.15
5369.00,1.14
5368.00,1.14
5367.00,1.14
5366.00,1.13
5365.00,1.13
5364.00,1.12
5363.00,1.12
5362.00,1.11
5361.00,1.11
5360.00,1.10
5359.00,1.10
5358.00,1.09
5357.00,1.09
5356.00,1.08
5355.00,1.07
5354.00,1.07
5353.00,1.06
5352.00,1.05
5351.00,1.05
5350.00,1.04
5349.00,1.03
5348.00,1.03
5347.00,1.02
5346.00,1.01
5345.00,1.00
5344.00,1.00
5343.00,0.99
5342.00,0.98
5341.00,0.97
5340.00,0.97
5339.00,0.96
5338.00,0.95
5337.00,0.95
5336.00,0.94
5335.00,0.93
5334.00,0.92
5333.00,0.92
5332.00,0.91
5331.00,0.91
5330.00,0.90
5329.00,0.89
5328.00,0.89
5327.00,0.88
5326.00,0.87
5325.00,0.87
5324.00,0.86
5323.00,0.86
5322.00,0.85
5321.00,0.85
5320.00,0.84
5319.00,0.83
5318.00,0.83
5317.00,0.82
5316.00,0.82
5315.00,0.81
5314.00,0.81
5313.00,0.80
5312.00,0.80
5311.00,0.80
5310.00,0.79
5309.00,0.79
5308.00,0.78
5307.00,0.78
5306.00,0.78
5305.00,0.77
5304.00,0.77
5303.00,0.77
5302.00,0.76
5301.00,0.76
5300.00,0.76
5299.00,0.76
5298.00,0.76
5297.00,0.75
5296.00,0.75
5295.00,0.75
5294.00,0.75
5293.00,0.75
5292.00,0.75
5291.00,0.75
5290.00,0.75
5289.00,0.74
5288.00,0.74
5287.00,0.74
5286.00,0.74
5285.00,0.74
5284.00,0.74
5283.00,0.74
5282.00,0.74
5281.00,0.74
5280.00,0.74
5279.00,0.74
5278.00,0.74
5277.00,0.74
5276.00,0.74
5275.00,0.74
5274.00,0.74
5273.00,0.74
5272.00,0.74
5271.00,0.74
5270.00,0.74
5269.00,0.74
5268.00,0.74
5267.00,0.74
5266.00,0.74
5265.00,0.74
5264.00,0.74
5263.00,0.74
5262.00,0.74
5261.00,0.74
5260.00,0.74
5259.00,0.74
5258.00,0.74
5257.00,0.74
5256.00,0.74
5255.00,0.74
5254.00,0.74
5253.00,0.74
5252.00,0.74
5251.00,0.74
5250.00,0.74
5249.00,0.74
5248.00,0.74
5247.00,0.74
5246.00,0.74
5245.00,0.74
5244.00,0.74
5243.00,0.74
5242.00,0.74
5241.00,0.74
5240.00,0.74
5239.00,0.74
5238.00,0.74
5237.00,0.74
5236.00,0.74
5235.00,0.74
5234.00,0.74
5233.00,0.74
5232.00,0.74
5231.00,0.74
5230.00,0.74
5229.00,0.74
5228.00,0.74
5227.00,0.74
5226.00,0.74
5225.00,0.74
5224.00,0.74
5223.00,0.74
5222.00,0.74
5221.00,0.74
5220.00,0.74
5219.00,0.74
5218.00,0.74
5217.00,0.74
5216.00,0.74
5215.00,0.74
5214.00,0.74
5213.00,0.74
5212.00,0.74
5211.00,0.74
5210.00,0.74
5209.00,0.74
5208.00,0.74
5207.00,0.74
5206.00,0.74
5205.00,0.74
5204.00,0.74
5203.00,0.74
5202.00,0.74
5201.00,0.74
5200.00,0.74
5199.00,0.75
5198.00,0.75
5197.00,0.75
5196.00,0.75
5195.00,0.75
5194.00,0.75
5193.00,0.75
5192.00,0.75
5191.00,0.75
5190.00,0.75
5189.00,0.75
5188.00,0.76
5187.00,0.76
5186.00,0.76
5185.00,0.76
5184.00,0.76
5183.00,0.76
5182.00,0.76
5181.00,0.76
5180.00,0.76
5179.00,0.76
5178.00,0.76
5177.00,0.77
5176.00,0.77
5175.00,0.77
5174.00,0.77
5173.00,0.77
5172.00,0.77
5171.00,0.77
5170.00,0.77
5169.00,0.77
5168.00,0.77
5167.00,0.77
5166.00,0.77
5165.00,0.77
5164.00,0.77
5163.00,0.77
5162.00,0.77
5161.00,0.77
5160.00,0.77
5159.00,0.77
5158.00,0.77
5157.00,0.77
5156.00,0.77
5155.00,0.77
5154.00,0.77
5153.00,0.77
5152.00,0.77
5151.00,0.77
5150.00,0.77
5149.00,0.77
5148.00,0.77
5147.00,0.77
5146.00,0.77
5145.00,0.77
5144.00,0.77
5143.00,0.77
5142.00,0.77
5141.00,0.77
5140.00,0.77
5139.00,0.77
5138.00,0.77
5137.00,0.77
5136.00,0.77
5135.00,0.77
5134.00,0.77
5133.00,0.77
5132.00,0.77
5131.00,0.77
5130.00,0.77
5129.00,0.77
5128.00,0.77
5127.00,0.77
5126.00,0.77
5125.00,0.77
5124.00,0.77
5123.00,0.77
5122.00,0.77
5121.00,0.77
5120.00,0.77
5119.00,0.77
5118.00,0.77
5117.00,0.78
5116.00,0.78
5115.00,0.78
5114.00,0.78
5113.00,0.78
5112.00,0.78
5111.00,0.78
5110.00,0.78
5109.00,0.78
5108.00,0.78
5107.00,0.78
5106.00,0.78
5105.00,0.78
5104.00,0.78
5103.00,0.79
5102.00,0.79
5101.00,0.79
5100.00,0.79
5099.00,0.79
5098.00,0.79
5097.00,0.79
5096.00,0.79
5095.00,0.79
5094.00,0.79
5093.00,0.79
5092.00,0.79
5091.00,0.79
5090.00,0.79
5089.00,0.79
5088.00,0.79
5087.00,0.79
5086.00,0.79
5085.00,0.79
5084.00,0.79
5083.00,0.79
5082.00,0.79
5081.00,0.79
5080.00,0.80
5079.00,0.80
5078.00,0.80
5077.00,0.80
5076.00,0.80
5075.00,0.80
5074.00,0.80
5073.00,0.80
5072.00,0.80
5071.00,0.80
5070.00,0.80
5069.00,0.80
5068.00,0.80
5067.00,0.80
5066.00,0.80
5065.00,0.80
5064.00,0.80
5063.00,0.80
5062.00,0.80
5061.00,0.80
5060.00,0.80
5059.00,0.80
5058.00,0.80
5057.00,0.80
5056.00,0.80
5055.00,0.80
5054.00,0.80
5053.00,0.80
5052.00,0.80
5051.00,0.80
5050.00,0.80
5049.00,0.80
5048.00,0.81
5047.00,0.81
5046.00,0.81
5045.00,0.81
5044.00,0.81
5043.00,0.81
5042.00,0.81
5041.00,0.81
5040.00,0.81
5039.00,0.81
5038.00,0.81
5037.00,0.81
5036.00,0.81
5035.00,0.81
5034.00,0.81
5033.00,0.81
5032.00,0.81
5031.00,0.81
5030.00,0.81
5029.00,0.81
5028.00,0.81
5027.00,0.81
5026.00,0.81
5025.00,0.81
5024.00,0.81
5023.00,0.81
5022.00,0.81
5021.00,0.81
5020.00,0.81
5019.00,0.81
5018.00,0.81
5017.00,0.81
5016.00,0.81
5015.00,0.82
5014.00,0.82
5013.00,0.82
5012.00,0.82
5011.00,0.82
5010.00,0.82
5009.00,0.82
5008.00,0.82
5007.00,0.82
5006.00,0.82
5005.00,0.82
5004.00,0.82
5003.00,0.82
5002.00,0.82
5001.00,0.82
5000.00,0.82
4999.00,0.82
4998.00,0.82
4997.00,0.82
4996.00,0.82
4995.00,0.82
4994.00,0.82
4993.00,0.82
4992.00,0.83
4991.00,0.83
4990.00,0.83
4989.00,0.83
4988.00,0.83
4987.00,0.83
4986.00,0.83
4985.00,0.83
4984.00,0.83
4983.00,0.83
4982.00,0.83
4981.00,0.83
4980.00,0.83
4979.00,0.83
4978.00,0.83
4977.00,0.83
4976.00,0.83
4975.00,0.83
4974.00,0.83
4973.00,0.83
4972.00,0.83
4971.00,0.83
4970.00,0.83
4969.00,0.83
4968.00,0.83
4967.00,0.83
4966.00,0.84
4965.00,0.84
4964.00,0.84
4963.00,0.84
4962.00,0.84
4961.00,0.84
4960.00,0.84
4959.00,0.84
4958.00,0.84
4957.00,0.84
4956.00,0.84
4955.00,0.84
4954.00,0.84
4953.00,0.85
4952.00,0.85
4951.00,0.85
4950.00,0.85
4949.00,0.85
4948.00,0.85
4947.00,0.85
4946.00,0.85
4945.00,0.85
4944.00,0.85
4943.00,0.86
4942.00,0.86
4941.00,0.86
4940.00,0.86
4939.00,0.86
4938.00,0.86
4937.00,0.86
4936.00,0.86
4935.00,0.86
4934.00,0.86
4933.00,0.86
4932.00,0.86
4931.00,0.86
4930.00,0.86
4929.00,0.86
4928.00,0.86
4927.00,0.86
4926.00,0.86
4925.00,0.86
4924.00,0.86
4923.00,0.86
4922.00,0.86
4921.00,0.86
4920.00,0.86
4919.00,0.86
4918.00,0.86
4917.00,0.87
4916.00,0.87
4915.00,0.87
4914.00,0.87
4913.00,0.87
4912.00,0.87
4911.00,0.87
4910.00,0.87
4909.00,0.87
4908.00,0.87
4907.00,0.87
4906.00,0.87
4905.00,0.87
4904.00,0.87
4903.00,0.87
4902.00,0.87
4901.00,0.87
4900.00,0.87
4899.00,0.87
4898.00,0.87
4897.00,0.87
4896.00,0.87
4895.00,0.87
4894.00,0.87
4893.00,0.87
4892.00,0.87
4891.00,0.87
4890.00,0.87
4889.00,0.87
4888.00,0.88
4887.00,0.88
4886.00,0.88
4885.00,0.88
4884.00,0.88
4883.00,0.88
4882.00,0.88
4881.00,0.88
4880.00,0.88
4879.00,0.88
4878.00,0.88
4877.00,0.88
4876.00,0.88
4875.00,0.88
4874.00,0.88
4873.00,0.88
4872.00,0.88
4871.00,0.88
4870.00,0.88
4869.00,0.88
4868.00,0.88
4867.00,0.88
4866.00,0.88
4865.00,0.88
4864.00,0.88
4863.00,0.88
4862.00,0.88
4861.00,0.88
4860.00,0.88
4859.00,0.88
4858.00,0.88
4857.00,0.88
4856.00,0.88
4855.00,0.88
4854.00,0.88
4853.00,0.88
4852.00,0.88
4851.00,0.88
4850.00,0.88
4849.00,0.89
4848.00,0.89
4847.00,0.89
4846.00,0.89
4845.00,0.89
4844.00,0.89
4843.00,0.89
4842.00,0.89
4841.00,0.89
4840.00,0.89
4839.00,0.90
4838.00,0.90
4837.00,0.90
4836.00,0.90
4835.00,0.90
4834.00,0.90
4833.00,0.90
4832.00,0.90
4831.00,0.90
4830.00,0.90
4829.00,0.90
4828.00,0.90
4827.00,0.90
4826.00,0.90
4825.00,0.90
4824.00,0.90
4823.00,0.90
4822.00,0.90
4821.00,0.90
4820.00,0.91
4819.00,0.91
4818.00,0.91
4817.00,0.91
4816.00,0.91
4815.00,0.91
4814.00,0.91
4813.00,0.91
4812.00,0.91
4811.00,0.91
4810.00,0.91
4809.00,0.91
4808.00,0.91
4807.00,0.91
4806.00,0.91
4805.00,0.91
4804.00,0.91
4803.00,0.91
4802.00,0.91
4801.00,0.91
4800.00,0.91
4799.00,0.91
4798.00,0.91
4797.00,0.91
4796.00,0.91
4795.00,0.91
4794.00,0.91
4793.00,0.91
4792.00,0.91
4791.00,0.91
4790.00,0.91
4789.00,0.92
4788.00,0.92
4787.00,0.92
4786.00,0.92
4785.00,0.92
4784.00,0.92
4783.00,0.92
4782.00,0.92
4781.00,0.92
4780.00,0.92
4779.00,0.92
4778.00,0.92
4777.00,0.93
4776.00,0.93
4775.00,0.93
4774.00,0.93
4773.00,0.93
4772.00,0.93
4771.00,0.93
4770.00,0.93
4769.00,0.93
4768.00,0.93
4767.00,0.93
4766.00,0.94
4765.00,0.94
4764.00,0.94
4763.00,0.94
4762.00,0.94
4761.00,0.94
4760.00,0.94
4759.00,0.95
4758.00,0.95
4757.00,0.95
4756.00,0.95
4755.00,0.95
4754.00,0.95
4753.00,0.95
4752.00,0.95
4751.00,0.95
4750.00,0.95
4749.00,0.95
4748.00,0.95
4747.00,0.95
4746.00,0.96
4745.00,0.96
4744.00,0.96
4743.00,0.96
4742.00,0.96
4741.00,0.96
4740.00,0.96
4739.00,0.96
4738.00,0.96
4737.00,0.96
4736.00,0.96
4735.00,0.96
4734.00,0.96
4733.00,0.96
4732.00,0.96
4731.00,0.96
4730.00,0.96
4729.00,0.97
4728.00,0.97
4727.00,0.97
4726.00,0.97
4725.00,0.97
4724.00,0.97
4723.00,0.97
4722.00,0.97
4721.00,0.97
4720.00,0.97
4719.00,0.97
4718.00,0.97
4717.00,0.97
4716.00,0.97
4715.00,0.97
4714.00,0.98
4713.00,0.98
4712.00,0.98
4711.00,0.98
4710.00,0.98
4709.00,0.98
4708.00,0.98
4707.00,0.98
4706.00,0.98
4705.00,0.98
4704.00,0.98
4703.00,0.99
4702.00,0.99
4701.00,0.99
4700.00,0.99
4699.00,0.99
4698.00,0.99
4697.00,0.99
4696.00,0.99
4695.00,1.00
4694.00,1.00
4693.00,1.00
4692.00,1.00
4691.00,1.00
4690.00,1.00
4689.00,1.00
4688.00,1.00
4687.00,1.00
4686.00,1.00
4685.00,1.00
4684.00,1.00
4683.00,1.00
4682.00,1.00
4681.00,1.00
4680.00,1.00
4679.00,1.00
4678.00,1.00
4677.00,1.00
4676.00,1.00
4675.00,1.00
4674.00,1.01
4673.00,1.01
4672.00,1.01
4671.00,1.01
4670.00,1.01
4669.00,1.01
4668.00,1.01
4667.00,1.01
4666.00,1.02
4665.00,1.02
4664.00,1.02
4663.00,1.02
4662.00,1.02
4661.00,1.02
4660.00,1.02
4659.00,1.02
4658.00,1.02
4657.00,1.02
4656.00,1.02
4655.00,1.02
4654.00,1.02
4653.00,1.02
4652.00,1.02
4651.00,1.02
4650.00,1.02
4649.00,1.02
4648.00,1.02
4647.00,1.03
4646.00,1.03
4645.00,1.03
4644.00,1.03
4643.00,1.03
4642.00,1.03
4641.00,1.03
4640.00,1.03
4639.00,1.03
4638.00,1.03
4637.00,1.03
4636.00,1.03
4635.00,1.03
4634.00,1.03
4633.00,1.03
4632.00,1.03
4631.00,1.03
4630.00,1.03
4629.00,1.03
4628.00,1.04
4627.00,1.04
4626.00,1.04
4625.00,1.04
4624.00,1.04
4623.00,1.04
4622.00,1.04
4621.00,1.04
4620.00,1.04
4619.00,1.04
4618.00,1.04
4617.00,1.05
4616.00,1.05
4615.00,1.05
4614.00,1.05
4613.00,1.05
4612.00,1.05
4611.00,1.05
4610.00,1.05
4609.00,1.05
4608.00,1.05
4607.00,1.05
4606.00,1.06
4605.00,1.06
4604.00,1.06
4603.00,1.06
4602.00,1.06
4601.00,1.06
4600.00,1.06
4599.00,1.06
4598.00,1.06
4597.00,1.06
4596.00,1.06
4595.00,1.06
4594.00,1.06
4593.00,1.06
4592.00,1.06
4591.00,1.06
4590.00,1.06
4589.00,1.06
4588.00,1.06
4587.00,1.06
4586.00,1.06
4585.00,1.06
4584.00,1.06
4583.00,1.06
4582.00,1.06
4581.00,1.06
4580.00,1.07
4579.00,1.07
4578.00,1.07
4577.00,1.07
4576.00,1.07
4575.00,1.07
4574.00,1.07
4573.00,1.07
4572.00,1.07
4571.00,1.07
4570.00,1.07
4569.00,1.07
4568.00,1.07
4567.00,1.07
4566.00,1.07
4565.00,1.07
4564.00,1.07
4563.00,1.07
4562.00,1.08
4561.00,1.08
4560.00,1.08
4559.00,1.08
4558.00,1.08
4557.00,1.08
4556.00,1.08
4555.00,1.08
4554.00,1.08
4553.00,1.08
4552.00,1.09
4551.00,1.09
4550.00,1.09
4549.00,1.09
4548.00,1.09
4547.00,1.09
4546.00,1.09
4545.00,1.09
4544.00,1.09
4543.00,1.09
4542.00,1.09
4541.00,1.09
4540.00,1.09
4539.00,1.09
4538.00,1.09
4537.00,1.09
4536.00,1.09
4535.00,1.09
4534.00,1.09
4533.00,1.08
4532.00,1.08
4531.00,1.08
4530.00,1.08
4529.00,1.09
4528.00,1.09
4527.00,1.09
4526.00,1.09
4525.00,1.09
4524.00,1.09
4523.00,1.09
4522.00,1.09
4521.00,1.09
4520.00,1.09
4519.00,1.09
4518.00,1.09
4517.00,1.09
4516.00,1.09
4515.00,1.09
4514.00,1.09
4513.00,1.09
4512.00,1.09
4511.00,1.09
4510.00,1.09
4509.00,1.09
4508.00,1.09
4507.00,1.09
4506.00,1.09
4505.00,1.09
4504.00,1.09
4503.00,1.09
4502.00,1.09
4501.00,1.09
4500.00,1.09
4499.00,1.09
4498.00,1.09
4497.00,1.09
4496.00,1.09
4495.00,1.09
4494.00,1.09
4493.00,1.09
4492.00,1.09
4491.00,1.09
4490.00,1.09
4489.00,1.09
4488.00,1.09
4487.00,1.09
4486.00,1.09
4485.00,1.09
4484.00,1.09
4483.00,1.09
4482.00,1.09
4481.00,1.09
4480.00,1.09
4479.00,1.09
4478.00,1.09
4477.00,1.08
4476.00,1.08
4475.00,1.08
4474.00,1.08
4473.00,1.08
4472.00,1.08
4471.00,1.08
4470.00,1.08
4469.00,1.07
4468.00,1.07
4467.00,1.07
4466.00,1.07
4465.00,1.07
4464.00,1.07
4463.00,1.07
4462.00,1.06
4461.00,1.06
4460.00,1.06
4459.00,1.06
4458.00,1.06
4457.00,1.06
4456.00,1.06
4455.00,1.05
4454.00,1.05
4453.00,1.05
4452.00,1.05
4451.00,1.05
4450.00,1.05
4449.00,1.05
4448.00,1.04
4447.00,1.04
4446.00,1.04
4445.00,1.04
4444.00,1.04
4443.00,1.04
4442.00,1.04
4441.00,1.04
4440.00,1.04
4439.00,1.03
4438.00,1.03
4437.00,1.03
4436.00,1.03
4435.00,1.03
4434.00,1.03
4433.00,1.03
4432.00,1.03
4431.00,1.03
4430.00,1.03
4429.00,1.03
4428.00,1.03
4427.00,1.03
4426.00,1.03
4425.00,1.03
4424.00,1.03
4423.00,1.03
4422.00,1.03
4421.00,1.03
4420.00,1.03
4419.00,1.02
4418.00,1.02
4417.00,1.02
4416.00,1.02
4415.00,1.02
4414.00,1.02
4413.00,1.02
4412.00,1.02
4411.00,1.03
4410.00,1.03
4409.00,1.03
4408.00,1.03
4407.00,1.03
4406.00,1.03
4405.00,1.03
4404.00,1.03
4403.00,1.03
4402.00,1.03
4401.00,1.03
4400.00,1.03
4399.00,1.03
4398.00,1.03
4397.00,1.03
4396.00,1.04
4395.00,1.04
4394.00,1.04
4393.00,1.04
4392.00,1.04
4391.00,1.04
4390.00,1.04
4389.00,1.04
4388.00,1.04
4387.00,1.05
4386.00,1.05
4385.00,1.05
4384.00,1.05
4383.00,1.05
4382.00,1.05
4381.00,1.05
4380.00,1.05
4379.00,1.05
4378.00,1.05
4377.00,1.05
4376.00,1.05
4375.00,1.05
4374.00,1.05
4373.00,1.05
4372.00,1.05
4371.00,1.05
4370.00,1.05
4369.00,1.05
4368.00,1.06
4367.00,1.06
4366.00,1.06
4365.00,1.06
4364.00,1.06
4363.00,1.06
4362.00,1.06
4361.00,1.06
4360.00,1.06
4359.00,1.06
4358.00,1.06
4357.00,1.06
4356.00,1.06
4355.00,1.06
4354.00,1.06
4353.00,1.06
4352.00,1.06
4351.00,1.06
4350.00,1.06
4349.00,1.06
4348.00,1.06
4347.00,1.06
4346.00,1.06
4345.00,1.07
4344.00,1.07
4343.00,1.07
4342.00,1.07
4341.00,1.07
4340.00,1.07
4339.00,1.07
4338.00,1.07
4337.00,1.07
4336.00,1.07
4335.00,1.07
4334.00,1.07
4333.00,1.07
4332.00,1.07
4331.00,1.08
4330.00,1.08
4329.00,1.08
4328.00,1.08
4327.00,1.08
4326.00,1.08
4325.00,1.08
4324.00,1.08
4323.00,1.08
4322.00,1.07
4321.00,1.07
4320.00,1.07
4319.00,1.08
4318.00,1.08
4317.00,1.08
4316.00,1.08
4315.00,1.08
4314.00,1.08
4313.00,1.08
4312.00,1.08
4311.00,1.08
4310.00,1.08
4309.00,1.09
4308.00,1.09
4307.00,1.09
4306.00,1.09
4305.00,1.09
4304.00,1.09
4303.00,1.09
4302.00,1.10
4301.00,1.10
4300.00,1.10
4299.00,1.10
4298.00,1.10
4297.00,1.10
4296.00,1.10
4295.00,1.10
4294.00,1.10
4293.00,1.10
4292.00,1.10
4291.00,1.10
4290.00,1.10
4289.00,1.10
4288.00,1.10
4287.00,1.10
4286.00,1.10
4285.00,1.10
4284.00,1.10
4283.00,1.10
4282.00,1.10
4281.00,1.10
4280.00,1.10
4279.00,1.10
4278.00,1.10
4277.00,1.10
4276.00,1.10
4275.00,1.10
4274.00,1.10
4273.00,1.10
4272.00,1.10
4271.00,1.10
4270.00,1.10
4269.00,1.10
4268.00,1.10
4267.00,1.10
4266.00,1.10
4265.00,1.10
4264.00,1.10
4263.00,1.10
4262.00,1.10
4261.00,1.10
4260.00,1.10
4259.00,1.10
4258.00,1.10
4257.00,1.10
4256.00,1.10
4255.00,1.10
4254.00,1.10
4253.00,1.10
4252.00,1.10
4251.00,1.11
4250.00,1.11
4249.00,1.11
4248.00,1.11
4247.00,1.11
4246.00,1.11
4245.00,1.11
4244.00,1.11
4243.00,1.11
4242.00,1.11
4241.00,1.11
4240.00,1.11
4239.00,1.11
4238.00,1.11
4237.00,1.11
4236.00,1.11
4235.00,1.11
4234.00,1.11
4233.00,1.11
4232.00,1.11
4231.00,1.11
4230.00,1.11
4229.00,1.11
4228.00,1.11
4227.00,1.11
4226.00,1.11
4225.00,1.12
4224.00,1.12
4223.00,1.12
4222.00,1.12
4221.00,1.12
4220.00,1.12
4219.00,1.12
4218.00,1.12
4217.00,1.12
4216.00,1.12
4215.00,1.12
4214.00,1.12
4213.00,1.12
4212.00,1.12
4211.00,1.12
4210.00,1.12
4209.00,1.12
4208.00,1.12
4207.00,1.12
4206.00,1.12
4205.00,1.12
4204.00,1.13
4203.00,1.13
4202.00,1.13
4201.00,1.13
4200.00,1.13
4199.00,1.13
4198.00,1.13
4197.00,1.13
4196.00,1.13
4195.00,1.13
4194.00,1.13
4193.00,1.13
4192.00,1.13
4191.00,1.13
4190.00,1.13
4189.00,1.13
4188.00,1.13
4187.00,1.13
4186.00,1.13
4185.00,1.13
4184.00,1.13
4183.00,1.13
4182.00,1.13
4181.00,1.13
4180.00,1.13
4179.00,1.13
4178.00,1.13
4177.00,1.13
4176.00,1.13
4175.00,1.13
4174.00,1.14
4173.00,1.14
4172.00,1.14
4171.00,1.14
4170.00,1.14
4169.00,1.14
4168.00,1.14
4167.00,1.14
4166.00,1.14
4165.00,1.14
4164.00,1.14
4163.00,1.14
4162.00,1.15
4161.00,1.15
4160.00,1.15
4159.00,1.15
4158.00,1.14
4157.00,1.14
4156.00,1.14
4155.00,1.14
4154.00,1.14
4153.00,1.14
4152.00,1.14
4151.00,1.14
4150.00,1.14
4149.00,1.14
4148.00,1.14
4147.00,1.14
4146.00,1.14
4145.00,1.14
4144.00,1.14
4143.00,1.14
4142.00,1.14
4141.00,1.14
4140.00,1.15
4139.00,1.15
4138.00,1.15
4137.00,1.15
4136.00,1.15
4135.00,1.15
4134.00,1.16
4133.00,1.16
4132.00,1.16
4131.00,1.16
4130.00,1.17
4129.00,1.17
4128.00,1.17
4127.00,1.17
4126.00,1.17
4125.00,1.17
4124.00,1.18
4123.00,1.18
4122.00,1.18
4121.00,1.18
4120.00,1.18
4119.00,1.17
4118.00,1.17
4117.00,1.17
4116.00,1.17
4115.00,1.17
4114.00,1.17
4113.00,1.17
4112.00,1.16
4111.00,1.16
4110.00,1.16
4109.00,1.16
4108.00,1.16
4107.00,1.16
4106.00,1.16
4105.00,1.16
4104.00,1.16
4103.00,1.16
4102.00,1.16
4101.00,1.16
4100.00,1.16
4099.00,1.16
4098.00,1.16
4097.00,1.16
4096.00,1.16
4095.00,1.16
4094.00,1.16
4093.00,1.16
4092.00,1.17
4091.00,1.17
4090.00,1.17
4089.00,1.17
4088.00,1.17
4087.00,1.17
4086.00,1.18
4085.00,1.18
4084.00,1.18
4083.00,1.18
4082.00,1.18
4081.00,1.18
4080.00,1.18
4079.00,1.18
4078.00,1.18
4077.00,1.19
4076.00,1.19
4075.00,1.19
4074.00,1.19
4073.00,1.19
4072.00,1.19
4071.00,1.19
4070.00,1.19
4069.00,1.19
4068.00,1.19
4067.00,1.19
4066.00,1.19
4065.00,1.19
4064.00,1.19
4063.00,1.19
4062.00,1.19
4061.00,1.19
4060.00,1.19
4059.00,1.19
4058.00,1.19
4057.00,1.19
4056.00,1.19
4055.00,1.19
4054.00,1.19
4053.00,1.20
4052.00,1.20
4051.00,1.20
4050.00,1.20
4049.00,1.20
4048.00,1.20
4047.00,1.20
4046.00,1.20
4045.00,1.20
4044.00,1.20
4043.00,1.20
4042.00,1.20
4041.00,1.20
4040.00,1.21
4039.00,1.21
4038.00,1.21
4037.00,1.21
4036.00,1.21
4035.00,1.21
4034.00,1.22
4033.00,1.22
4032.00,1.22
4031.00,1.22
4030.00,1.22
4029.00,1.22
4028.00,1.22
4027.00,1.22
4026.00,1.22
4025.00,1.22
4024.00,1.22
4023.00,1.22
4022.00,1.22
4021.00,1.22
4020.00,1.22
4019.00,1.22
4018.00,1.22
4017.00,1.22
4016.00,1.22
4015.00,1.21
4014.00,1.21
4013.00,1.21
4012.00,1.21
4011.00,1.21
4010.00,1.22
4009.00,1.22
4008.00,1.22
4007.00,1.22
4006.00,1.22
4005.00,1.22
4004.00,1.22
4003.00,1.22
4002.00,1.22
4001.00,1.22
4000.00,1.22
