创建为新数据集,样品 745 用户 Administrator 日期 星期五, 七月 20 2018
cm-1,%T
10000.00,1.44
9999.00,1.44
9998.00,1.45
9997.00,1.45
9996.00,1.45
9995.00,1.46
9994.00,1.46
9993.00,1.46
9992.00,1.46
9991.00,1.47
9990.00,1.47
9989.00,1.47
9988.00,1.47
9987.00,1.47
9986.00,1.47
9985.00,1.48
9984.00,1.48
9983.00,1.48
9982.00,1.48
9981.00,1.48
9980.00,1.48
9979.00,1.48
9978.00,1.48
9977.00,1.48
9976.00,1.48
9975.00,1.48
9974.00,1.47
9973.00,1.47
9972.00,1.47
9971.00,1.47
9970.00,1.46
9969.00,1.46
9968.00,1.46
9967.00,1.46
9966.00,1.45
9965.00,1.45
9964.00,1.45
9963.00,1.44
9962.00,1.44
9961.00,1.44
9960.00,1.43
9959.00,1.43
9958.00,1.43
9957.00,1.43
9956.00,1.43
9955.00,1.43
9954.00,1.42
9953.00,1.42
9952.00,1.42
9951.00,1.42
9950.00,1.42
9949.00,1.42
9948.00,1.42
9947.00,1.42
9946.00,1.42
9945.00,1.42
9944.00,1.42
9943.00,1.42
9942.00,1.42
9941.00,1.42
9940.00,1.42
9939.00,1.42
9938.00,1.42
9937.00,1.42
9936.00,1.42
9935.00,1.42
9934.00,1.42
9933.00,1.42
9932.00,1.42
9931.00,1.42
9930.00,1.42
9929.00,1.42
9928.00,1.42
9927.00,1.42
9926.00,1.42
9925.00,1.42
9924.00,1.42
9923.00,1.42
9922.00,1.42
9921.00,1.42
9920.00,1.42
9919.00,1.42
9918.00,1.42
9917.00,1.42
9916.00,1.42
9915.00,1.42
9914.00,1.42
9913.00,1.42
9912.00,1.43
9911.00,1.43
9910.00,1.43
9909.00,1.43
9908.00,1.43
9907.00,1.43
9906.00,1.44
9905.00,1.44
9904.00,1.44
9903.00,1.44
9902.00,1.44
9901.00,1.44
9900.00,1.44
9899.00,1.44
9898.00,1.44
9897.00,1.44
9896.00,1.44
9895.00,1.44
9894.00,1.44
9893.00,1.44
9892.00,1.44
9891.00,1.44
9890.00,1.44
9889.00,1.43
9888.00,1.43
9887.00,1.43
9886.00,1.43
9885.00,1.43
9884.00,1.42
9883.00,1.42
9882.00,1.42
9881.00,1.42
9880.00,1.42
9879.00,1.42
9878.00,1.42
9877.00,1.42
9876.00,1.42
9875.00,1.42
9874.00,1.42
9873.00,1.42
9872.00,1.42
9871.00,1.42
9870.00,1.42
9869.00,1.42
9868.00,1.42
9867.00,1.43
9866.00,1.43
9865.00,1.43
9864.00,1.43
9863.00,1.43
9862.00,1.43
9861.00,1.43
9860.00,1.43
9859.00,1.43
9858.00,1.43
9857.00,1.44
9856.00,1.44
9855.00,1.44
9854.00,1.44
9853.00,1.44
9852.00,1.44
9851.00,1.44
9850.00,1.44
9849.00,1.44
9848.00,1.44
9847.00,1.44
9846.00,1.44
9845.00,1.44
9844.00,1.44
9843.00,1.44
9842.00,1.44
9841.00,1.44
9840.00,1.44
9839.00,1.44
9838.00,1.44
9837.00,1.44
9836.00,1.44
9835.00,1.44
9834.00,1.44
9833.00,1.44
9832.00,1.44
9831.00,1.44
9830.00,1.44
9829.00,1.44
9828.00,1.44
9827.00,1.44
9826.00,1.44
9825.00,1.44
9824.00,1.44
9823.00,1.45
9822.00,1.45
9821.00,1.45
9820.00,1.45
9819.00,1.45
9818.00,1.45
9817.00,1.45
9816.00,1.45
9815.00,1.45
9814.00,1.45
9813.00,1.45
9812.00,1.45
9811.00,1.45
9810.00,1.45
9809.00,1.45
9808.00,1.45
9807.00,1.45
9806.00,1.45
9805.00,1.45
9804.00,1.45
9803.00,1.45
9802.00,1.45
9801.00,1.45
9800.00,1.45
9799.00,1.45
9798.00,1.45
9797.00,1.45
9796.00,1.45
9795.00,1.45
9794.00,1.45
9793.00,1.46
9792.00,1.46
9791.00,1.46
9790.00,1.46
9789.00,1.46
9788.00,1.46
9787.00,1.46
9786.00,1.46
9785.00,1.45
9784.00,1.45
9783.00,1.45
9782.00,1.45
9781.00,1.45
9780.00,1.45
9779.00,1.45
9778.00,1.44
9777.00,1.44
9776.00,1.44
9775.00,1.44
9774.00,1.44
9773.00,1.44
9772.00,1.44
9771.00,1.44
9770.00,1.44
9769.00,1.44
9768.00,1.44
9767.00,1.45
9766.00,1.45
9765.00,1.45
9764.00,1.45
9763.00,1.45
9762.00,1.45
9761.00,1.46
9760.00,1.46
9759.00,1.46
9758.00,1.46
9757.00,1.46
9756.00,1.46
9755.00,1.46
9754.00,1.46
9753.00,1.46
9752.00,1.46
9751.00,1.46
9750.00,1.46
9749.00,1.46
9748.00,1.46
9747.00,1.46
9746.00,1.46
9745.00,1.45
9744.00,1.45
9743.00,1.45
9742.00,1.45
9741.00,1.45
9740.00,1.45
9739.00,1.45
9738.00,1.45
9737.00,1.45
9736.00,1.45
9735.00,1.45
9734.00,1.45
9733.00,1.45
9732.00,1.45
9731.00,1.45
9730.00,1.45
9729.00,1.45
9728.00,1.45
9727.00,1.45
9726.00,1.45
9725.00,1.45
9724.00,1.45
9723.00,1.44
9722.00,1.44
9721.00,1.44
9720.00,1.44
9719.00,1.44
9718.00,1.43
9717.00,1.43
9716.00,1.43
9715.00,1.43
9714.00,1.42
9713.00,1.42
9712.00,1.42
9711.00,1.42
9710.00,1.42
9709.00,1.41
9708.00,1.41
9707.00,1.41
9706.00,1.41
9705.00,1.41
9704.00,1.41
9703.00,1.41
9702.00,1.41
9701.00,1.41
9700.00,1.41
9699.00,1.41
9698.00,1.41
9697.00,1.41
9696.00,1.42
9695.00,1.42
9694.00,1.42
9693.00,1.42
9692.00,1.42
9691.00,1.42
9690.00,1.42
9689.00,1.42
9688.00,1.42
9687.00,1.42
9686.00,1.42
9685.00,1.42
9684.00,1.42
9683.00,1.42
9682.00,1.42
9681.00,1.42
9680.00,1.42
9679.00,1.42
9678.00,1.43
9677.00,1.43
9676.00,1.43
9675.00,1.43
9674.00,1.43
9673.00,1.43
9672.00,1.43
9671.00,1.43
9670.00,1.43
9669.00,1.43
9668.00,1.43
9667.00,1.43
9666.00,1.43
9665.00,1.43
9664.00,1.43
9663.00,1.43
9662.00,1.43
9661.00,1.43
9660.00,1.43
9659.00,1.43
9658.00,1.43
9657.00,1.43
9656.00,1.43
9655.00,1.43
9654.00,1.43
9653.00,1.43
9652.00,1.43
9651.00,1.43
9650.00,1.43
9649.00,1.43
9648.00,1.43
9647.00,1.43
9646.00,1.43
9645.00,1.43
9644.00,1.43
9643.00,1.43
9642.00,1.43
9641.00,1.43
9640.00,1.43
9639.00,1.43
9638.00,1.43
9637.00,1.43
9636.00,1.43
9635.00,1.43
9634.00,1.43
9633.00,1.43
9632.00,1.43
9631.00,1.43
9630.00,1.43
9629.00,1.43
9628.00,1.43
9627.00,1.43
9626.00,1.43
9625.00,1.43
9624.00,1.43
9623.00,1.43
9622.00,1.43
9621.00,1.43
9620.00,1.43
9619.00,1.43
9618.00,1.43
9617.00,1.44
9616.00,1.44
9615.00,1.44
9614.00,1.44
9613.00,1.45
9612.00,1.45
9611.00,1.45
9610.00,1.45
9609.00,1.46
9608.00,1.46
9607.00,1.46
9606.00,1.46
9605.00,1.47
9604.00,1.47
9603.00,1.47
9602.00,1.47
9601.00,1.47
9600.00,1.47
9599.00,1.48
9598.00,1.48
9597.00,1.48
9596.00,1.48
9595.00,1.47
9594.00,1.47
9593.00,1.47
9592.00,1.47
9591.00,1.47
9590.00,1.47
9589.00,1.46
9588.00,1.46
9587.00,1.46
9586.00,1.46
9585.00,1.46
9584.00,1.45
9583.00,1.45
9582.00,1.45
9581.00,1.45
9580.00,1.45
9579.00,1.45
9578.00,1.45
9577.00,1.45
9576.00,1.45
9575.00,1.45
9574.00,1.45
9573.00,1.45
9572.00,1.45
9571.00,1.45
9570.00,1.45
9569.00,1.45
9568.00,1.46
9567.00,1.46
9566.00,1.46
9565.00,1.46
9564.00,1.46
9563.00,1.46
9562.00,1.46
9561.00,1.46
9560.00,1.46
9559.00,1.46
9558.00,1.46
9557.00,1.46
9556.00,1.46
9555.00,1.46
9554.00,1.46
9553.00,1.46
9552.00,1.46
9551.00,1.46
9550.00,1.46
9549.00,1.46
9548.00,1.46
9547.00,1.46
9546.00,1.46
9545.00,1.46
9544.00,1.46
9543.00,1.46
9542.00,1.46
9541.00,1.46
9540.00,1.46
9539.00,1.46
9538.00,1.46
9537.00,1.46
9536.00,1.46
9535.00,1.45
9534.00,1.45
9533.00,1.45
9532.00,1.45
9531.00,1.45
9530.00,1.45
9529.00,1.45
9528.00,1.45
9527.00,1.45
9526.00,1.45
9525.00,1.45
9524.00,1.45
9523.00,1.45
9522.00,1.45
9521.00,1.45
9520.00,1.45
9519.00,1.45
9518.00,1.45
9517.00,1.45
9516.00,1.45
9515.00,1.45
9514.00,1.45
9513.00,1.45
9512.00,1.46
9511.00,1.46
9510.00,1.46
9509.00,1.46
9508.00,1.46
9507.00,1.46
9506.00,1.46
9505.00,1.46
9504.00,1.46
9503.00,1.46
9502.00,1.46
9501.00,1.46
9500.00,1.46
9499.00,1.46
9498.00,1.46
9497.00,1.46
9496.00,1.46
9495.00,1.46
9494.00,1.46
9493.00,1.46
9492.00,1.46
9491.00,1.46
9490.00,1.46
9489.00,1.46
9488.00,1.46
9487.00,1.46
9486.00,1.46
9485.00,1.46
9484.00,1.46
9483.00,1.46
9482.00,1.46
9481.00,1.46
9480.00,1.46
9479.00,1.46
9478.00,1.46
9477.00,1.46
9476.00,1.46
9475.00,1.46
9474.00,1.46
9473.00,1.46
9472.00,1.46
9471.00,1.46
9470.00,1.47
9469.00,1.47
9468.00,1.47
9467.00,1.47
9466.00,1.47
9465.00,1.47
9464.00,1.47
9463.00,1.46
9462.00,1.46
9461.00,1.46
9460.00,1.46
9459.00,1.46
9458.00,1.46
9457.00,1.46
9456.00,1.46
9455.00,1.46
9454.00,1.46
9453.00,1.46
9452.00,1.46
9451.00,1.46
9450.00,1.46
9449.00,1.46
9448.00,1.46
9447.00,1.46
9446.00,1.46
9445.00,1.46
9444.00,1.46
9443.00,1.46
9442.00,1.46
9441.00,1.46
9440.00,1.47
9439.00,1.47
9438.00,1.47
9437.00,1.47
9436.00,1.47
9435.00,1.47
9434.00,1.47
9433.00,1.47
9432.00,1.47
9431.00,1.47
9430.00,1.47
9429.00,1.47
9428.00,1.47
9427.00,1.46
9426.00,1.46
9425.00,1.46
9424.00,1.46
9423.00,1.46
9422.00,1.46
9421.00,1.46
9420.00,1.46
9419.00,1.45
9418.00,1.45
9417.00,1.45
9416.00,1.45
9415.00,1.45
9414.00,1.45
9413.00,1.45
9412.00,1.45
9411.00,1.45
9410.00,1.45
9409.00,1.45
9408.00,1.45
9407.00,1.45
9406.00,1.45
9405.00,1.45
9404.00,1.45
9403.00,1.45
9402.00,1.45
9401.00,1.45
9400.00,1.45
9399.00,1.45
9398.00,1.45
9397.00,1.45
9396.00,1.45
9395.00,1.45
9394.00,1.45
9393.00,1.45
9392.00,1.45
9391.00,1.45
9390.00,1.45
9389.00,1.45
9388.00,1.45
9387.00,1.44
9386.00,1.44
9385.00,1.44
9384.00,1.44
9383.00,1.44
9382.00,1.44
9381.00,1.44
9380.00,1.44
9379.00,1.44
9378.00,1.44
9377.00,1.44
9376.00,1.44
9375.00,1.44
9374.00,1.44
9373.00,1.44
9372.00,1.44
9371.00,1.44
9370.00,1.44
9369.00,1.44
9368.00,1.44
9367.00,1.44
9366.00,1.44
9365.00,1.44
9364.00,1.44
9363.00,1.44
9362.00,1.44
9361.00,1.44
9360.00,1.44
9359.00,1.44
9358.00,1.44
9357.00,1.44
9356.00,1.44
9355.00,1.44
9354.00,1.44
9353.00,1.44
9352.00,1.43
9351.00,1.43
9350.00,1.43
9349.00,1.43
9348.00,1.43
9347.00,1.43
9346.00,1.43
9345.00,1.44
9344.00,1.44
9343.00,1.44
9342.00,1.44
9341.00,1.44
9340.00,1.44
9339.00,1.44
9338.00,1.45
9337.00,1.45
9336.00,1.45
9335.00,1.45
9334.00,1.45
9333.00,1.45
9332.00,1.46
9331.00,1.46
9330.00,1.46
9329.00,1.46
9328.00,1.46
9327.00,1.46
9326.00,1.46
9325.00,1.47
9324.00,1.47
9323.00,1.47
9322.00,1.47
9321.00,1.47
9320.00,1.47
9319.00,1.47
9318.00,1.47
9317.00,1.47
9316.00,1.47
9315.00,1.47
9314.00,1.47
9313.00,1.47
9312.00,1.47
9311.00,1.47
9310.00,1.47
9309.00,1.47
9308.00,1.47
9307.00,1.47
9306.00,1.46
9305.00,1.46
9304.00,1.46
9303.00,1.46
9302.00,1.46
9301.00,1.46
9300.00,1.45
9299.00,1.45
9298.00,1.45
9297.00,1.45
9296.00,1.45
9295.00,1.44
9294.00,1.44
9293.00,1.44
9292.00,1.44
9291.00,1.44
9290.00,1.44
9289.00,1.44
9288.00,1.44
9287.00,1.44
9286.00,1.44
9285.00,1.45
9284.00,1.45
9283.00,1.45
9282.00,1.45
9281.00,1.45
9280.00,1.46
9279.00,1.46
9278.00,1.46
9277.00,1.46
9276.00,1.46
9275.00,1.46
9274.00,1.47
9273.00,1.47
9272.00,1.47
9271.00,1.47
9270.00,1.47
9269.00,1.47
9268.00,1.46
9267.00,1.46
9266.00,1.46
9265.00,1.46
9264.00,1.46
9263.00,1.46
9262.00,1.46
9261.00,1.46
9260.00,1.46
9259.00,1.45
9258.00,1.45
9257.00,1.45
9256.00,1.45
9255.00,1.45
9254.00,1.45
9253.00,1.45
9252.00,1.45
9251.00,1.45
9250.00,1.46
9249.00,1.46
9248.00,1.46
9247.00,1.46
9246.00,1.46
9245.00,1.46
9244.00,1.46
9243.00,1.46
9242.00,1.46
9241.00,1.46
9240.00,1.46
9239.00,1.46
9238.00,1.46
9237.00,1.46
9236.00,1.46
9235.00,1.46
9234.00,1.46
9233.00,1.46
9232.00,1.46
9231.00,1.46
9230.00,1.46
9229.00,1.46
9228.00,1.46
9227.00,1.46
9226.00,1.46
9225.00,1.46
9224.00,1.46
9223.00,1.46
9222.00,1.46
9221.00,1.46
9220.00,1.46
9219.00,1.46
9218.00,1.46
9217.00,1.46
9216.00,1.46
9215.00,1.46
9214.00,1.46
9213.00,1.46
9212.00,1.46
9211.00,1.46
9210.00,1.46
9209.00,1.46
9208.00,1.46
9207.00,1.46
9206.00,1.46
9205.00,1.46
9204.00,1.46
9203.00,1.46
9202.00,1.46
9201.00,1.45
9200.00,1.45
9199.00,1.45
9198.00,1.45
9197.00,1.45
9196.00,1.45
9195.00,1.45
9194.00,1.45
9193.00,1.45
9192.00,1.45
9191.00,1.45
9190.00,1.45
9189.00,1.45
9188.00,1.45
9187.00,1.45
9186.00,1.45
9185.00,1.45
9184.00,1.45
9183.00,1.45
9182.00,1.45
9181.00,1.45
9180.00,1.45
9179.00,1.45
9178.00,1.45
9177.00,1.46
9176.00,1.46
9175.00,1.46
9174.00,1.46
9173.00,1.46
9172.00,1.46
9171.00,1.46
9170.00,1.46
9169.00,1.47
9168.00,1.47
9167.00,1.47
9166.00,1.47
9165.00,1.47
9164.00,1.47
9163.00,1.47
9162.00,1.48
9161.00,1.48
9160.00,1.48
9159.00,1.48
9158.00,1.48
9157.00,1.48
9156.00,1.47
9155.00,1.47
9154.00,1.47
9153.00,1.47
9152.00,1.47
9151.00,1.47
9150.00,1.47
9149.00,1.47
9148.00,1.47
9147.00,1.47
9146.00,1.47
9145.00,1.47
9144.00,1.47
9143.00,1.47
9142.00,1.47
9141.00,1.47
9140.00,1.47
9139.00,1.47
9138.00,1.47
9137.00,1.47
9136.00,1.47
9135.00,1.48
9134.00,1.48
9133.00,1.48
9132.00,1.48
9131.00,1.48
9130.00,1.48
9129.00,1.48
9128.00,1.48
9127.00,1.47
9126.00,1.47
9125.00,1.47
9124.00,1.47
9123.00,1.47
9122.00,1.47
9121.00,1.47
9120.00,1.47
9119.00,1.47
9118.00,1.47
9117.00,1.47
9116.00,1.47
9115.00,1.47
9114.00,1.47
9113.00,1.47
9112.00,1.47
9111.00,1.47
9110.00,1.47
9109.00,1.47
9108.00,1.46
9107.00,1.46
9106.00,1.46
9105.00,1.46
9104.00,1.46
9103.00,1.46
9102.00,1.46
9101.00,1.46
9100.00,1.46
9099.00,1.46
9098.00,1.46
9097.00,1.47
9096.00,1.47
9095.00,1.47
9094.00,1.47
9093.00,1.47
9092.00,1.47
9091.00,1.47
9090.00,1.47
9089.00,1.47
9088.00,1.47
9087.00,1.47
9086.00,1.47
9085.00,1.47
9084.00,1.47
9083.00,1.47
9082.00,1.47
9081.00,1.47
9080.00,1.47
9079.00,1.47
9078.00,1.47
9077.00,1.47
9076.00,1.47
9075.00,1.47
9074.00,1.47
9073.00,1.47
9072.00,1.47
9071.00,1.47
9070.00,1.47
9069.00,1.47
9068.00,1.47
9067.00,1.47
9066.00,1.47
9065.00,1.47
9064.00,1.47
9063.00,1.47
9062.00,1.47
9061.00,1.47
9060.00,1.47
9059.00,1.47
9058.00,1.47
9057.00,1.47
9056.00,1.46
9055.00,1.46
9054.00,1.46
9053.00,1.46
9052.00,1.46
9051.00,1.46
9050.00,1.46
9049.00,1.46
9048.00,1.46
9047.00,1.46
9046.00,1.46
9045.00,1.46
9044.00,1.45
9043.00,1.45
9042.00,1.45
9041.00,1.45
9040.00,1.45
9039.00,1.45
9038.00,1.45
9037.00,1.45
9036.00,1.45
9035.00,1.45
9034.00,1.45
9033.00,1.46
9032.00,1.46
9031.00,1.46
9030.00,1.46
9029.00,1.46
9028.00,1.46
9027.00,1.46
9026.00,1.46
9025.00,1.46
9024.00,1.46
9023.00,1.47
9022.00,1.47
9021.00,1.47
9020.00,1.47
9019.00,1.47
9018.00,1.47
9017.00,1.47
9016.00,1.47
9015.00,1.47
9014.00,1.47
9013.00,1.47
9012.00,1.47
9011.00,1.47
9010.00,1.47
9009.00,1.47
9008.00,1.47
9007.00,1.47
9006.00,1.47
9005.00,1.47
9004.00,1.47
9003.00,1.47
9002.00,1.47
9001.00,1.46
9000.00,1.46
8999.00,1.46
8998.00,1.46
8997.00,1.46
8996.00,1.46
8995.00,1.46
8994.00,1.46
8993.00,1.46
8992.00,1.46
8991.00,1.46
8990.00,1.46
8989.00,1.46
8988.00,1.46
8987.00,1.46
8986.00,1.47
8985.00,1.47
8984.00,1.47
8983.00,1.47
8982.00,1.47
8981.00,1.47
8980.00,1.47
8979.00,1.47
8978.00,1.47
8977.00,1.47
8976.00,1.47
8975.00,1.47
8974.00,1.47
8973.00,1.47
8972.00,1.47
8971.00,1.47
8970.00,1.47
8969.00,1.47
8968.00,1.47
8967.00,1.47
8966.00,1.47
8965.00,1.47
8964.00,1.47
8963.00,1.46
8962.00,1.46
8961.00,1.46
8960.00,1.46
8959.00,1.46
8958.00,1.46
8957.00,1.46
8956.00,1.46
8955.00,1.46
8954.00,1.46
8953.00,1.46
8952.00,1.46
8951.00,1.46
8950.00,1.47
8949.00,1.47
8948.00,1.47
8947.00,1.47
8946.00,1.47
8945.00,1.47
8944.00,1.47
8943.00,1.47
8942.00,1.47
8941.00,1.47
8940.00,1.47
8939.00,1.47
8938.00,1.47
8937.00,1.47
8936.00,1.47
8935.00,1.47
8934.00,1.47
8933.00,1.46
8932.00,1.46
8931.00,1.46
8930.00,1.46
8929.00,1.46
8928.00,1.46
8927.00,1.46
8926.00,1.46
8925.00,1.46
8924.00,1.46
8923.00,1.46
8922.00,1.46
8921.00,1.46
8920.00,1.46
8919.00,1.46
8918.00,1.46
8917.00,1.46
8916.00,1.46
8915.00,1.46
8914.00,1.46
8913.00,1.46
8912.00,1.46
8911.00,1.47
8910.00,1.47
8909.00,1.47
8908.00,1.47
8907.00,1.47
8906.00,1.47
8905.00,1.48
8904.00,1.48
8903.00,1.48
8902.00,1.48
8901.00,1.48
8900.00,1.48
8899.00,1.47
8898.00,1.47
8897.00,1.47
8896.00,1.47
8895.00,1.47
8894.00,1.47
8893.00,1.47
8892.00,1.47
8891.00,1.47
8890.00,1.47
8889.00,1.47
8888.00,1.47
8887.00,1.47
8886.00,1.47
8885.00,1.47
8884.00,1.47
8883.00,1.47
8882.00,1.47
8881.00,1.47
8880.00,1.47
8879.00,1.47
8878.00,1.47
8877.00,1.47
8876.00,1.47
8875.00,1.47
8874.00,1.47
8873.00,1.47
8872.00,1.46
8871.00,1.46
8870.00,1.46
8869.00,1.46
8868.00,1.46
8867.00,1.46
8866.00,1.46
8865.00,1.46
8864.00,1.46
8863.00,1.46
8862.00,1.46
8861.00,1.46
8860.00,1.47
8859.00,1.47
8858.00,1.47
8857.00,1.47
8856.00,1.47
8855.00,1.47
8854.00,1.47
8853.00,1.47
8852.00,1.47
8851.00,1.47
8850.00,1.47
8849.00,1.47
8848.00,1.47
8847.00,1.47
8846.00,1.47
8845.00,1.47
8844.00,1.47
8843.00,1.47
8842.00,1.47
8841.00,1.47
8840.00,1.47
8839.00,1.47
8838.00,1.46
8837.00,1.46
8836.00,1.46
8835.00,1.46
8834.00,1.46
8833.00,1.46
8832.00,1.46
8831.00,1.46
8830.00,1.46
8829.00,1.46
8828.00,1.46
8827.00,1.46
8826.00,1.46
8825.00,1.46
8824.00,1.46
8823.00,1.46
8822.00,1.46
8821.00,1.46
8820.00,1.46
8819.00,1.46
8818.00,1.46
8817.00,1.46
8816.00,1.46
8815.00,1.46
8814.00,1.45
8813.00,1.45
8812.00,1.45
8811.00,1.45
8810.00,1.45
8809.00,1.45
8808.00,1.45
8807.00,1.45
8806.00,1.45
8805.00,1.45
8804.00,1.45
8803.00,1.45
8802.00,1.45
8801.00,1.45
8800.00,1.44
8799.00,1.44
8798.00,1.44
8797.00,1.44
8796.00,1.44
8795.00,1.44
8794.00,1.44
8793.00,1.44
8792.00,1.44
8791.00,1.44
8790.00,1.44
8789.00,1.44
8788.00,1.44
8787.00,1.44
8786.00,1.44
8785.00,1.44
8784.00,1.44
8783.00,1.44
8782.00,1.43
8781.00,1.43
8780.00,1.43
8779.00,1.43
8778.00,1.43
8777.00,1.43
8776.00,1.43
8775.00,1.43
8774.00,1.42
8773.00,1.42
8772.00,1.42
8771.00,1.42
8770.00,1.42
8769.00,1.42
8768.00,1.42
8767.00,1.42
8766.00,1.42
8765.00,1.42
8764.00,1.42
8763.00,1.42
8762.00,1.42
8761.00,1.42
8760.00,1.42
8759.00,1.42
8758.00,1.42
8757.00,1.42
8756.00,1.42
8755.00,1.42
8754.00,1.42
8753.00,1.42
8752.00,1.42
8751.00,1.42
8750.00,1.42
8749.00,1.42
8748.00,1.42
8747.00,1.42
8746.00,1.42
8745.00,1.41
8744.00,1.41
8743.00,1.41
8742.00,1.41
8741.00,1.41
8740.00,1.41
8739.00,1.41
8738.00,1.41
8737.00,1.41
8736.00,1.41
8735.00,1.41
8734.00,1.41
8733.00,1.41
8732.00,1.41
8731.00,1.41
8730.00,1.41
8729.00,1.41
8728.00,1.41
8727.00,1.41
8726.00,1.41
8725.00,1.41
8724.00,1.41
8723.00,1.41
8722.00,1.41
8721.00,1.41
8720.00,1.41
8719.00,1.41
8718.00,1.41
8717.00,1.41
8716.00,1.41
8715.00,1.41
8714.00,1.41
8713.00,1.41
8712.00,1.41
8711.00,1.41
8710.00,1.41
8709.00,1.41
8708.00,1.41
8707.00,1.41
8706.00,1.41
8705.00,1.41
8704.00,1.41
8703.00,1.41
8702.00,1.41
8701.00,1.41
8700.00,1.41
8699.00,1.40
8698.00,1.40
8697.00,1.40
8696.00,1.40
8695.00,1.40
8694.00,1.40
8693.00,1.40
8692.00,1.40
8691.00,1.40
8690.00,1.39
8689.00,1.39
8688.00,1.39
8687.00,1.39
8686.00,1.39
8685.00,1.39
8684.00,1.39
8683.00,1.39
8682.00,1.39
8681.00,1.39
8680.00,1.39
8679.00,1.39
8678.00,1.39
8677.00,1.39
8676.00,1.39
8675.00,1.38
8674.00,1.38
8673.00,1.38
8672.00,1.38
8671.00,1.38
8670.00,1.38
8669.00,1.39
8668.00,1.39
8667.00,1.39
8666.00,1.39
8665.00,1.39
8664.00,1.39
8663.00,1.39
8662.00,1.39
8661.00,1.39
8660.00,1.39
8659.00,1.39
8658.00,1.39
8657.00,1.39
8656.00,1.39
8655.00,1.39
8654.00,1.39
8653.00,1.39
8652.00,1.39
8651.00,1.39
8650.00,1.39
8649.00,1.39
8648.00,1.39
8647.00,1.39
8646.00,1.39
8645.00,1.39
8644.00,1.39
8643.00,1.39
8642.00,1.39
8641.00,1.39
8640.00,1.39
8639.00,1.39
8638.00,1.39
8637.00,1.39
8636.00,1.39
8635.00,1.39
8634.00,1.39
8633.00,1.39
8632.00,1.39
8631.00,1.39
8630.00,1.39
8629.00,1.39
8628.00,1.39
8627.00,1.39
8626.00,1.39
8625.00,1.39
8624.00,1.39
8623.00,1.39
8622.00,1.39
8621.00,1.39
8620.00,1.39
8619.00,1.39
8618.00,1.38
8617.00,1.38
8616.00,1.38
8615.00,1.38
8614.00,1.38
8613.00,1.38
8612.00,1.38
8611.00,1.38
8610.00,1.38
8609.00,1.38
8608.00,1.38
8607.00,1.38
8606.00,1.38
8605.00,1.38
8604.00,1.38
8603.00,1.38
8602.00,1.38
8601.00,1.38
8600.00,1.38
8599.00,1.38
8598.00,1.38
8597.00,1.38
8596.00,1.38
8595.00,1.38
8594.00,1.37
8593.00,1.37
8592.00,1.37
8591.00,1.37
8590.00,1.37
8589.00,1.37
8588.00,1.37
8587.00,1.37
8586.00,1.37
8585.00,1.37
8584.00,1.37
8583.00,1.37
8582.00,1.37
8581.00,1.37
8580.00,1.37
8579.00,1.37
8578.00,1.37
8577.00,1.37
8576.00,1.37
8575.00,1.37
8574.00,1.36
8573.00,1.36
8572.00,1.36
8571.00,1.36
8570.00,1.36
8569.00,1.36
8568.00,1.36
8567.00,1.36
8566.00,1.36
8565.00,1.37
8564.00,1.37
8563.00,1.37
8562.00,1.37
8561.00,1.37
8560.00,1.37
8559.00,1.37
8558.00,1.37
8557.00,1.37
8556.00,1.37
8555.00,1.37
8554.00,1.37
8553.00,1.37
8552.00,1.37
8551.00,1.37
8550.00,1.36
8549.00,1.36
8548.00,1.36
8547.00,1.36
8546.00,1.36
8545.00,1.36
8544.00,1.36
8543.00,1.36
8542.00,1.35
8541.00,1.35
8540.00,1.35
8539.00,1.35
8538.00,1.35
8537.00,1.35
8536.00,1.35
8535.00,1.35
8534.00,1.35
8533.00,1.35
8532.00,1.35
8531.00,1.35
8530.00,1.36
8529.00,1.36
8528.00,1.36
8527.00,1.36
8526.00,1.36
8525.00,1.36
8524.00,1.36
8523.00,1.36
8522.00,1.36
8521.00,1.36
8520.00,1.36
8519.00,1.36
8518.00,1.36
8517.00,1.36
8516.00,1.36
8515.00,1.36
8514.00,1.36
8513.00,1.36
8512.00,1.36
8511.00,1.36
8510.00,1.36
8509.00,1.35
8508.00,1.35
8507.00,1.35
8506.00,1.35
8505.00,1.35
8504.00,1.35
8503.00,1.35
8502.00,1.35
8501.00,1.35
8500.00,1.35
8499.00,1.35
8498.00,1.35
8497.00,1.35
8496.00,1.35
8495.00,1.35
8494.00,1.35
8493.00,1.35
8492.00,1.35
8491.00,1.35
8490.00,1.35
8489.00,1.35
8488.00,1.35
8487.00,1.35
8486.00,1.35
8485.00,1.35
8484.00,1.35
8483.00,1.35
8482.00,1.35
8481.00,1.35
8480.00,1.34
8479.00,1.34
8478.00,1.34
8477.00,1.34
8476.00,1.34
8475.00,1.34
8474.00,1.34
8473.00,1.34
8472.00,1.34
8471.00,1.34
8470.00,1.34
8469.00,1.34
8468.00,1.34
8467.00,1.34
8466.00,1.33
8465.00,1.33
8464.00,1.33
8463.00,1.33
8462.00,1.33
8461.00,1.33
8460.00,1.33
8459.00,1.33
8458.00,1.33
8457.00,1.33
8456.00,1.33
8455.00,1.33
8454.00,1.33
8453.00,1.33
8452.00,1.32
8451.00,1.32
8450.00,1.32
8449.00,1.32
8448.00,1.32
8447.00,1.32
8446.00,1.32
8445.00,1.32
8444.00,1.32
8443.00,1.32
8442.00,1.32
8441.00,1.32
8440.00,1.32
8439.00,1.32
8438.00,1.32
8437.00,1.32
8436.00,1.32
8435.00,1.32
8434.00,1.32
8433.00,1.32
8432.00,1.32
8431.00,1.32
8430.00,1.32
8429.00,1.32
8428.00,1.32
8427.00,1.32
8426.00,1.32
8425.00,1.32
8424.00,1.32
8423.00,1.32
8422.00,1.32
8421.00,1.32
8420.00,1.33
8419.00,1.33
8418.00,1.33
8417.00,1.33
8416.00,1.33
8415.00,1.33
8414.00,1.33
8413.00,1.33
8412.00,1.33
8411.00,1.33
8410.00,1.34
8409.00,1.34
8408.00,1.34
8407.00,1.34
8406.00,1.34
8405.00,1.34
8404.00,1.34
8403.00,1.34
8402.00,1.34
8401.00,1.34
8400.00,1.34
8399.00,1.34
8398.00,1.34
8397.00,1.34
8396.00,1.34
8395.00,1.34
8394.00,1.34
8393.00,1.34
8392.00,1.35
8391.00,1.35
8390.00,1.35
8389.00,1.35
8388.00,1.35
8387.00,1.35
8386.00,1.35
8385.00,1.35
8384.00,1.35
8383.00,1.35
8382.00,1.35
8381.00,1.35
8380.00,1.35
8379.00,1.35
8378.00,1.34
8377.00,1.34
8376.00,1.34
8375.00,1.34
8374.00,1.34
8373.00,1.34
8372.00,1.34
8371.00,1.34
8370.00,1.34
8369.00,1.34
8368.00,1.34
8367.00,1.34
8366.00,1.34
8365.00,1.34
8364.00,1.34
8363.00,1.34
8362.00,1.34
8361.00,1.34
8360.00,1.34
8359.00,1.34
8358.00,1.34
8357.00,1.34
8356.00,1.34
8355.00,1.34
8354.00,1.34
8353.00,1.34
8352.00,1.35
8351.00,1.35
8350.00,1.35
8349.00,1.35
8348.00,1.35
8347.00,1.35
8346.00,1.35
8345.00,1.35
8344.00,1.35
8343.00,1.35
8342.00,1.35
8341.00,1.36
8340.00,1.36
8339.00,1.36
8338.00,1.36
8337.00,1.36
8336.00,1.36
8335.00,1.37
8334.00,1.37
8333.00,1.37
8332.00,1.37
8331.00,1.37
8330.00,1.37
8329.00,1.37
8328.00,1.37
8327.00,1.37
8326.00,1.37
8325.00,1.37
8324.00,1.37
8323.00,1.37
8322.00,1.37
8321.00,1.37
8320.00,1.37
8319.00,1.37
8318.00,1.37
8317.00,1.37
8316.00,1.37
8315.00,1.37
8314.00,1.37
8313.00,1.37
8312.00,1.37
8311.00,1.37
8310.00,1.36
8309.00,1.36
8308.00,1.36
8307.00,1.36
8306.00,1.36
8305.00,1.36
8304.00,1.36
8303.00,1.36
8302.00,1.36
8301.00,1.36
8300.00,1.36
8299.00,1.36
8298.00,1.36
8297.00,1.36
8296.00,1.36
8295.00,1.36
8294.00,1.36
8293.00,1.36
8292.00,1.36
8291.00,1.36
8290.00,1.37
8289.00,1.37
8288.00,1.37
8287.00,1.37
8286.00,1.37
8285.00,1.37
8284.00,1.37
8283.00,1.37
8282.00,1.37
8281.00,1.37
8280.00,1.37
8279.00,1.37
8278.00,1.37
8277.00,1.37
8276.00,1.37
8275.00,1.37
8274.00,1.37
8273.00,1.37
8272.00,1.37
8271.00,1.37
8270.00,1.37
8269.00,1.37
8268.00,1.37
8267.00,1.36
8266.00,1.36
8265.00,1.36
8264.00,1.36
8263.00,1.36
8262.00,1.36
8261.00,1.36
8260.00,1.36
8259.00,1.36
8258.00,1.36
8257.00,1.36
8256.00,1.36
8255.00,1.36
8254.00,1.36
8253.00,1.36
8252.00,1.36
8251.00,1.36
8250.00,1.36
8249.00,1.36
8248.00,1.36
8247.00,1.36
8246.00,1.36
8245.00,1.36
8244.00,1.36
8243.00,1.36
8242.00,1.36
8241.00,1.36
8240.00,1.36
8239.00,1.36
8238.00,1.37
8237.00,1.37
8236.00,1.37
8235.00,1.37
8234.00,1.37
8233.00,1.37
8232.00,1.37
8231.00,1.37
8230.00,1.37
8229.00,1.38
8228.00,1.38
8227.00,1.38
8226.00,1.38
8225.00,1.38
8224.00,1.38
8223.00,1.38
8222.00,1.38
8221.00,1.38
8220.00,1.38
8219.00,1.38
8218.00,1.38
8217.00,1.38
8216.00,1.38
8215.00,1.38
8214.00,1.38
8213.00,1.38
8212.00,1.38
8211.00,1.38
8210.00,1.38
8209.00,1.38
8208.00,1.38
8207.00,1.38
8206.00,1.38
8205.00,1.38
8204.00,1.38
8203.00,1.38
8202.00,1.38
8201.00,1.38
8200.00,1.38
8199.00,1.38
8198.00,1.39
8197.00,1.39
8196.00,1.39
8195.00,1.39
8194.00,1.39
8193.00,1.39
8192.00,1.39
8191.00,1.39
8190.00,1.39
8189.00,1.39
8188.00,1.39
8187.00,1.39
8186.00,1.39
8185.00,1.40
8184.00,1.40
8183.00,1.40
8182.00,1.40
8181.00,1.40
8180.00,1.40
8179.00,1.40
8178.00,1.40
8177.00,1.40
8176.00,1.40
8175.00,1.40
8174.00,1.40
8173.00,1.40
8172.00,1.40
8171.00,1.40
8170.00,1.40
8169.00,1.40
8168.00,1.40
8167.00,1.40
8166.00,1.40
8165.00,1.40
8164.00,1.40
8163.00,1.40
8162.00,1.40
8161.00,1.41
8160.00,1.41
8159.00,1.41
8158.00,1.41
8157.00,1.41
8156.00,1.40
8155.00,1.40
8154.00,1.40
8153.00,1.40
8152.00,1.40
8151.00,1.40
8150.00,1.40
8149.00,1.40
8148.00,1.40
8147.00,1.40
8146.00,1.40
8145.00,1.40
8144.00,1.40
8143.00,1.40
8142.00,1.40
8141.00,1.40
8140.00,1.40
8139.00,1.40
8138.00,1.40
8137.00,1.40
8136.00,1.40
8135.00,1.40
8134.00,1.40
8133.00,1.40
8132.00,1.40
8131.00,1.40
8130.00,1.40
8129.00,1.40
8128.00,1.40
8127.00,1.40
8126.00,1.40
8125.00,1.40
8124.00,1.40
8123.00,1.40
8122.00,1.40
8121.00,1.40
8120.00,1.40
8119.00,1.40
8118.00,1.40
8117.00,1.41
8116.00,1.41
8115.00,1.41
8114.00,1.41
8113.00,1.41
8112.00,1.41
8111.00,1.41
8110.00,1.41
8109.00,1.41
8108.00,1.41
8107.00,1.41
8106.00,1.41
8105.00,1.41
8104.00,1.41
8103.00,1.42
8102.00,1.42
8101.00,1.42
8100.00,1.42
8099.00,1.42
8098.00,1.42
8097.00,1.42
8096.00,1.42
8095.00,1.42
8094.00,1.42
8093.00,1.42
8092.00,1.42
8091.00,1.42
8090.00,1.42
8089.00,1.42
8088.00,1.42
8087.00,1.42
8086.00,1.42
8085.00,1.42
8084.00,1.42
8083.00,1.42
8082.00,1.42
8081.00,1.42
8080.00,1.41
8079.00,1.41
8078.00,1.41
8077.00,1.42
8076.00,1.42
8075.00,1.42
8074.00,1.42
8073.00,1.42
8072.00,1.42
8071.00,1.42
8070.00,1.42
8069.00,1.42
8068.00,1.42
8067.00,1.42
8066.00,1.42
8065.00,1.42
8064.00,1.42
8063.00,1.42
8062.00,1.42
8061.00,1.42
8060.00,1.42
8059.00,1.42
8058.00,1.42
8057.00,1.42
8056.00,1.42
8055.00,1.42
8054.00,1.42
8053.00,1.42
8052.00,1.42
8051.00,1.42
8050.00,1.42
8049.00,1.42
8048.00,1.42
8047.00,1.42
8046.00,1.42
8045.00,1.42
8044.00,1.42
8043.00,1.42
8042.00,1.42
8041.00,1.43
8040.00,1.43
8039.00,1.43
8038.00,1.43
8037.00,1.43
8036.00,1.43
8035.00,1.43
8034.00,1.43
8033.00,1.43
8032.00,1.43
8031.00,1.43
8030.00,1.43
8029.00,1.43
8028.00,1.44
8027.00,1.44
8026.00,1.44
8025.00,1.44
8024.00,1.44
8023.00,1.44
8022.00,1.44
8021.00,1.44
8020.00,1.44
8019.00,1.44
8018.00,1.44
8017.00,1.44
8016.00,1.44
8015.00,1.44
8014.00,1.44
8013.00,1.44
8012.00,1.44
8011.00,1.44
8010.00,1.44
8009.00,1.44
8008.00,1.44
8007.00,1.44
8006.00,1.44
8005.00,1.44
8004.00,1.44
8003.00,1.44
8002.00,1.44
8001.00,1.44
8000.00,1.44
7999.00,1.44
7998.00,1.44
7997.00,1.44
7996.00,1.44
7995.00,1.44
7994.00,1.44
7993.00,1.44
7992.00,1.44
7991.00,1.44
7990.00,1.44
7989.00,1.44
7988.00,1.44
7987.00,1.44
7986.00,1.44
7985.00,1.44
7984.00,1.44
7983.00,1.44
7982.00,1.44
7981.00,1.44
7980.00,1.44
7979.00,1.44
7978.00,1.44
7977.00,1.44
7976.00,1.44
7975.00,1.44
7974.00,1.44
7973.00,1.44
7972.00,1.44
7971.00,1.44
7970.00,1.44
7969.00,1.44
7968.00,1.44
7967.00,1.44
7966.00,1.44
7965.00,1.44
7964.00,1.44
7963.00,1.44
7962.00,1.44
7961.00,1.44
7960.00,1.44
7959.00,1.44
7958.00,1.44
7957.00,1.44
7956.00,1.44
7955.00,1.45
7954.00,1.45
7953.00,1.45
7952.00,1.45
7951.00,1.45
7950.00,1.45
7949.00,1.45
7948.00,1.45
7947.00,1.45
7946.00,1.45
7945.00,1.45
7944.00,1.45
7943.00,1.46
7942.00,1.46
7941.00,1.46
7940.00,1.46
7939.00,1.46
7938.00,1.46
7937.00,1.46
7936.00,1.46
7935.00,1.46
7934.00,1.46
7933.00,1.46
7932.00,1.46
7931.00,1.46
7930.00,1.45
7929.00,1.45
7928.00,1.45
7927.00,1.45
7926.00,1.45
7925.00,1.45
7924.00,1.45
7923.00,1.45
7922.00,1.45
7921.00,1.45
7920.00,1.45
7919.00,1.45
7918.00,1.44
7917.00,1.44
7916.00,1.44
7915.00,1.44
7914.00,1.44
7913.00,1.44
7912.00,1.44
7911.00,1.44
7910.00,1.45
7909.00,1.45
7908.00,1.45
7907.00,1.45
7906.00,1.45
7905.00,1.45
7904.00,1.45
7903.00,1.45
7902.00,1.45
7901.00,1.45
7900.00,1.45
7899.00,1.45
7898.00,1.45
7897.00,1.45
7896.00,1.45
7895.00,1.45
7894.00,1.45
7893.00,1.45
7892.00,1.45
7891.00,1.45
7890.00,1.45
7889.00,1.45
7888.00,1.45
7887.00,1.45
7886.00,1.45
7885.00,1.45
7884.00,1.45
7883.00,1.45
7882.00,1.45
7881.00,1.45
7880.00,1.45
7879.00,1.45
7878.00,1.45
7877.00,1.45
7876.00,1.45
7875.00,1.45
7874.00,1.45
7873.00,1.45
7872.00,1.45
7871.00,1.45
7870.00,1.45
7869.00,1.45
7868.00,1.45
7867.00,1.45
7866.00,1.45
7865.00,1.45
7864.00,1.45
7863.00,1.46
7862.00,1.46
7861.00,1.46
7860.00,1.46
7859.00,1.46
7858.00,1.46
7857.00,1.46
7856.00,1.46
7855.00,1.46
7854.00,1.46
7853.00,1.46
7852.00,1.46
7851.00,1.46
7850.00,1.46
7849.00,1.46
7848.00,1.46
7847.00,1.46
7846.00,1.46
7845.00,1.46
7844.00,1.46
7843.00,1.46
7842.00,1.46
7841.00,1.46
7840.00,1.46
7839.00,1.46
7838.00,1.46
7837.00,1.46
7836.00,1.46
7835.00,1.46
7834.00,1.46
7833.00,1.45
7832.00,1.45
7831.00,1.45
7830.00,1.45
7829.00,1.45
7828.00,1.45
7827.00,1.45
7826.00,1.45
7825.00,1.46
7824.00,1.46
7823.00,1.46
7822.00,1.46
7821.00,1.46
7820.00,1.46
7819.00,1.46
7818.00,1.46
7817.00,1.46
7816.00,1.46
7815.00,1.47
7814.00,1.47
7813.00,1.47
7812.00,1.47
7811.00,1.47
7810.00,1.47
7809.00,1.47
7808.00,1.47
7807.00,1.47
7806.00,1.47
7805.00,1.47
7804.00,1.47
7803.00,1.47
7802.00,1.47
7801.00,1.47
7800.00,1.47
7799.00,1.47
7798.00,1.47
7797.00,1.47
7796.00,1.47
7795.00,1.47
7794.00,1.47
7793.00,1.47
7792.00,1.46
7791.00,1.46
7790.00,1.46
7789.00,1.46
7788.00,1.46
7787.00,1.46
7786.00,1.46
7785.00,1.46
7784.00,1.46
7783.00,1.46
7782.00,1.46
7781.00,1.46
7780.00,1.46
7779.00,1.46
7778.00,1.46
7777.00,1.46
7776.00,1.46
7775.00,1.46
7774.00,1.46
7773.00,1.46
7772.00,1.46
7771.00,1.46
7770.00,1.46
7769.00,1.46
7768.00,1.46
7767.00,1.46
7766.00,1.46
7765.00,1.46
7764.00,1.46
7763.00,1.46
7762.00,1.46
7761.00,1.46
7760.00,1.46
7759.00,1.46
7758.00,1.46
7757.00,1.46
7756.00,1.47
7755.00,1.47
7754.00,1.47
7753.00,1.47
7752.00,1.47
7751.00,1.47
7750.00,1.47
7749.00,1.47
7748.00,1.47
7747.00,1.47
7746.00,1.47
7745.00,1.47
7744.00,1.47
7743.00,1.47
7742.00,1.47
7741.00,1.47
7740.00,1.47
7739.00,1.47
7738.00,1.47
7737.00,1.47
7736.00,1.47
7735.00,1.47
7734.00,1.47
7733.00,1.47
7732.00,1.47
7731.00,1.47
7730.00,1.47
7729.00,1.47
7728.00,1.47
7727.00,1.47
7726.00,1.47
7725.00,1.47
7724.00,1.47
7723.00,1.47
7722.00,1.47
7721.00,1.47
7720.00,1.47
7719.00,1.47
7718.00,1.47
7717.00,1.47
7716.00,1.47
7715.00,1.47
7714.00,1.47
7713.00,1.48
7712.00,1.48
7711.00,1.48
7710.00,1.48
7709.00,1.48
7708.00,1.48
7707.00,1.48
7706.00,1.48
7705.00,1.48
7704.00,1.48
7703.00,1.48
7702.00,1.48
7701.00,1.48
7700.00,1.47
7699.00,1.47
7698.00,1.47
7697.00,1.47
7696.00,1.47
7695.00,1.47
7694.00,1.47
7693.00,1.47
7692.00,1.47
7691.00,1.47
7690.00,1.47
7689.00,1.47
7688.00,1.47
7687.00,1.47
7686.00,1.47
7685.00,1.47
7684.00,1.47
7683.00,1.47
7682.00,1.47
7681.00,1.47
7680.00,1.47
7679.00,1.47
7678.00,1.47
7677.00,1.48
7676.00,1.48
7675.00,1.48
7674.00,1.48
7673.00,1.48
7672.00,1.48
7671.00,1.48
7670.00,1.48
7669.00,1.48
7668.00,1.48
7667.00,1.48
7666.00,1.48
7665.00,1.48
7664.00,1.48
7663.00,1.48
7662.00,1.47
7661.00,1.47
7660.00,1.47
7659.00,1.47
7658.00,1.47
7657.00,1.47
7656.00,1.47
7655.00,1.47
7654.00,1.47
7653.00,1.47
7652.00,1.47
7651.00,1.47
7650.00,1.47
7649.00,1.47
7648.00,1.47
7647.00,1.47
7646.00,1.47
7645.00,1.47
7644.00,1.47
7643.00,1.47
7642.00,1.47
7641.00,1.47
7640.00,1.47
7639.00,1.47
7638.00,1.47
7637.00,1.48
7636.00,1.48
7635.00,1.48
7634.00,1.48
7633.00,1.48
7632.00,1.48
7631.00,1.48
7630.00,1.48
7629.00,1.47
7628.00,1.47
7627.00,1.47
7626.00,1.47
7625.00,1.47
7624.00,1.47
7623.00,1.47
7622.00,1.47
7621.00,1.47
7620.00,1.47
7619.00,1.47
7618.00,1.47
7617.00,1.47
7616.00,1.47
7615.00,1.47
7614.00,1.47
7613.00,1.47
7612.00,1.47
7611.00,1.47
7610.00,1.47
7609.00,1.47
7608.00,1.47
7607.00,1.47
7606.00,1.47
7605.00,1.47
7604.00,1.47
7603.00,1.47
7602.00,1.47
7601.00,1.47
7600.00,1.47
7599.00,1.47
7598.00,1.47
7597.00,1.47
7596.00,1.47
7595.00,1.47
7594.00,1.47
7593.00,1.47
7592.00,1.47
7591.00,1.47
7590.00,1.47
7589.00,1.47
7588.00,1.47
7587.00,1.47
7586.00,1.47
7585.00,1.47
7584.00,1.47
7583.00,1.47
7582.00,1.47
7581.00,1.47
7580.00,1.47
7579.00,1.47
7578.00,1.47
7577.00,1.47
7576.00,1.47
7575.00,1.47
7574.00,1.47
7573.00,1.47
7572.00,1.47
7571.00,1.47
7570.00,1.47
7569.00,1.47
7568.00,1.47
7567.00,1.47
7566.00,1.47
7565.00,1.47
7564.00,1.47
7563.00,1.47
7562.00,1.46
7561.00,1.46
7560.00,1.46
7559.00,1.46
7558.00,1.46
7557.00,1.46
7556.00,1.46
7555.00,1.46
7554.00,1.46
7553.00,1.46
7552.00,1.46
7551.00,1.46
7550.00,1.46
7549.00,1.46
7548.00,1.46
7547.00,1.46
7546.00,1.46
7545.00,1.46
7544.00,1.46
7543.00,1.46
7542.00,1.46
7541.00,1.46
7540.00,1.46
7539.00,1.46
7538.00,1.46
7537.00,1.46
7536.00,1.46
7535.00,1.46
7534.00,1.46
7533.00,1.46
7532.00,1.46
7531.00,1.46
7530.00,1.46
7529.00,1.46
7528.00,1.46
7527.00,1.46
7526.00,1.46
7525.00,1.46
7524.00,1.46
7523.00,1.46
7522.00,1.46
7521.00,1.46
7520.00,1.46
7519.00,1.46
7518.00,1.46
7517.00,1.45
7516.00,1.45
7515.00,1.45
7514.00,1.45
7513.00,1.45
7512.00,1.45
7511.00,1.45
7510.00,1.45
7509.00,1.45
7508.00,1.45
7507.00,1.45
7506.00,1.44
7505.00,1.44
7504.00,1.44
7503.00,1.44
7502.00,1.44
7501.00,1.44
7500.00,1.44
7499.00,1.44
7498.00,1.43
7497.00,1.43
7496.00,1.43
7495.00,1.43
7494.00,1.43
7493.00,1.43
7492.00,1.43
7491.00,1.43
7490.00,1.43
7489.00,1.43
7488.00,1.43
7487.00,1.43
7486.00,1.43
7485.00,1.43
7484.00,1.43
7483.00,1.43
7482.00,1.43
7481.00,1.43
7480.00,1.43
7479.00,1.43
7478.00,1.43
7477.00,1.43
7476.00,1.43
7475.00,1.43
7474.00,1.43
7473.00,1.43
7472.00,1.43
7471.00,1.43
7470.00,1.43
7469.00,1.43
7468.00,1.43
7467.00,1.43
7466.00,1.43
7465.00,1.43
7464.00,1.42
7463.00,1.42
7462.00,1.42
7461.00,1.42
7460.00,1.42
7459.00,1.42
7458.00,1.42
7457.00,1.42
7456.00,1.42
7455.00,1.42
7454.00,1.42
7453.00,1.42
7452.00,1.42
7451.00,1.42
7450.00,1.42
7449.00,1.42
7448.00,1.42
7447.00,1.42
7446.00,1.42
7445.00,1.42
7444.00,1.42
7443.00,1.41
7442.00,1.41
7441.00,1.41
7440.00,1.41
7439.00,1.41
7438.00,1.41
7437.00,1.41
7436.00,1.41
7435.00,1.41
7434.00,1.41
7433.00,1.41
7432.00,1.41
7431.00,1.41
7430.00,1.41
7429.00,1.41
7428.00,1.41
7427.00,1.41
7426.00,1.41
7425.00,1.41
7424.00,1.40
7423.00,1.40
7422.00,1.40
7421.00,1.40
7420.00,1.40
7419.00,1.40
7418.00,1.40
7417.00,1.40
7416.00,1.39
7415.00,1.39
7414.00,1.39
7413.00,1.39
7412.00,1.39
7411.00,1.39
7410.00,1.39
7409.00,1.39
7408.00,1.39
7407.00,1.39
7406.00,1.39
7405.00,1.39
7404.00,1.39
7403.00,1.38
7402.00,1.38
7401.00,1.38
7400.00,1.38
7399.00,1.38
7398.00,1.38
7397.00,1.38
7396.00,1.38
7395.00,1.38
7394.00,1.38
7393.00,1.38
7392.00,1.38
7391.00,1.37
7390.00,1.37
7389.00,1.37
7388.00,1.37
7387.00,1.37
7386.00,1.37
7385.00,1.37
7384.00,1.37
7383.00,1.37
7382.00,1.37
7381.00,1.37
7380.00,1.37
7379.00,1.37
7378.00,1.37
7377.00,1.37
7376.00,1.37
7375.00,1.37
7374.00,1.37
7373.00,1.37
7372.00,1.37
7371.00,1.37
7370.00,1.37
7369.00,1.37
7368.00,1.37
7367.00,1.37
7366.00,1.37
7365.00,1.37
7364.00,1.37
7363.00,1.37
7362.00,1.37
7361.00,1.37
7360.00,1.36
7359.00,1.36
7358.00,1.36
7357.00,1.36
7356.00,1.36
7355.00,1.36
7354.00,1.36
7353.00,1.36
7352.00,1.36
7351.00,1.36
7350.00,1.36
7349.00,1.36
7348.00,1.35
7347.00,1.35
7346.00,1.35
7345.00,1.35
7344.00,1.35
7343.00,1.35
7342.00,1.35
7341.00,1.35
7340.00,1.35
7339.00,1.35
7338.00,1.35
7337.00,1.35
7336.00,1.35
7335.00,1.35
7334.00,1.35
7333.00,1.35
7332.00,1.35
7331.00,1.35
7330.00,1.35
7329.00,1.35
7328.00,1.35
7327.00,1.35
7326.00,1.35
7325.00,1.35
7324.00,1.35
7323.00,1.35
7322.00,1.35
7321.00,1.35
7320.00,1.35
7319.00,1.35
7318.00,1.35
7317.00,1.35
7316.00,1.35
7315.00,1.34
7314.00,1.34
7313.00,1.34
7312.00,1.34
7311.00,1.34
7310.00,1.34
7309.00,1.34
7308.00,1.33
7307.00,1.33
7306.00,1.33
7305.00,1.33
7304.00,1.33
7303.00,1.33
7302.00,1.33
7301.00,1.33
7300.00,1.33
7299.00,1.32
7298.00,1.32
7297.00,1.32
7296.00,1.32
7295.00,1.32
7294.00,1.32
7293.00,1.32
7292.00,1.32
7291.00,1.32
7290.00,1.32
7289.00,1.32
7288.00,1.32
7287.00,1.31
7286.00,1.31
7285.00,1.31
7284.00,1.31
7283.00,1.31
7282.00,1.31
7281.00,1.31
7280.00,1.31
7279.00,1.30
7278.00,1.30
7277.00,1.30
7276.00,1.30
7275.00,1.30
7274.00,1.30
7273.00,1.29
7272.00,1.29
7271.00,1.29
7270.00,1.29
7269.00,1.29
7268.00,1.29
7267.00,1.29
7266.00,1.28
7265.00,1.28
7264.00,1.28
7263.00,1.28
7262.00,1.28
7261.00,1.28
7260.00,1.28
7259.00,1.28
7258.00,1.27
7257.00,1.27
7256.00,1.27
7255.00,1.27
7254.00,1.27
7253.00,1.27
7252.00,1.26
7251.00,1.26
7250.00,1.26
7249.00,1.26
7248.00,1.26
7247.00,1.25
7246.00,1.25
7245.00,1.25
7244.00,1.25
7243.00,1.24
7242.00,1.24
7241.00,1.24
7240.00,1.23
7239.00,1.23
7238.00,1.22
7237.00,1.22
7236.00,1.22
7235.00,1.21
7234.00,1.21
7233.00,1.21
7232.00,1.20
7231.00,1.20
7230.00,1.20
7229.00,1.19
7228.00,1.19
7227.00,1.19
7226.00,1.18
7225.00,1.18
7224.00,1.18
7223.00,1.17
7222.00,1.17
7221.00,1.16
7220.00,1.16
7219.00,1.16
7218.00,1.15
7217.00,1.15
7216.00,1.15
7215.00,1.14
7214.00,1.14
7213.00,1.13
7212.00,1.13
7211.00,1.12
7210.00,1.12
7209.00,1.12
7208.00,1.11
7207.00,1.11
7206.00,1.10
7205.00,1.10
7204.00,1.10
7203.00,1.09
7202.00,1.09
7201.00,1.08
7200.00,1.08
7199.00,1.08
7198.00,1.07
7197.00,1.07
7196.00,1.07
7195.00,1.06
7194.00,1.06
7193.00,1.06
7192.00,1.06
7191.00,1.05
7190.00,1.05
7189.00,1.05
7188.00,1.04
7187.00,1.04
7186.00,1.04
7185.00,1.03
7184.00,1.03
7183.00,1.02
7182.00,1.02
7181.00,1.02
7180.00,1.01
7179.00,1.01
7178.00,1.00
7177.00,1.00
7176.00,1.00
7175.00,0.99
7174.00,0.99
7173.00,0.98
7172.00,0.98
7171.00,0.97
7170.00,0.97
7169.00,0.97
7168.00,0.96
7167.00,0.96
7166.00,0.95
7165.00,0.95
7164.00,0.95
7163.00,0.94
7162.00,0.94
7161.00,0.94
7160.00,0.94
7159.00,0.93
7158.00,0.93
7157.00,0.93
7156.00,0.93
7155.00,0.92
7154.00,0.92
7153.00,0.92
7152.00,0.92
7151.00,0.91
7150.00,0.91
7149.00,0.91
7148.00,0.91
7147.00,0.90
7146.00,0.90
7145.00,0.90
7144.00,0.89
7143.00,0.89
7142.00,0.89
7141.00,0.88
7140.00,0.88
7139.00,0.88
7138.00,0.88
7137.00,0.87
7136.00,0.87
7135.00,0.87
7134.00,0.87
7133.00,0.86
7132.00,0.86
7131.00,0.86
7130.00,0.86
7129.00,0.85
7128.00,0.85
7127.00,0.85
7126.00,0.84
7125.00,0.84
7124.00,0.84
7123.00,0.84
7122.00,0.83
7121.00,0.83
7120.00,0.83
7119.00,0.82
7118.00,0.82
7117.00,0.82
7116.00,0.81
7115.00,0.81
7114.00,0.80
7113.00,0.80
7112.00,0.80
7111.00,0.79
7110.00,0.79
7109.00,0.79
7108.00,0.79
7107.00,0.78
7106.00,0.78
7105.00,0.78
7104.00,0.78
7103.00,0.77
7102.00,0.77
7101.00,0.77
7100.00,0.77
7099.00,0.77
7098.00,0.76
7097.00,0.76
7096.00,0.76
7095.00,0.76
7094.00,0.76
7093.00,0.75
7092.00,0.75
7091.00,0.75
7090.00,0.75
7089.00,0.75
7088.00,0.74
7087.00,0.74
7086.00,0.74
7085.00,0.74
7084.00,0.74
7083.00,0.74
7082.00,0.73
7081.00,0.73
7080.00,0.73
7079.00,0.73
7078.00,0.73
7077.00,0.73
7076.00,0.73
7075.00,0.72
7074.00,0.72
7073.00,0.72
7072.00,0.72
7071.00,0.72
7070.00,0.71
7069.00,0.71
7068.00,0.71
7067.00,0.71
7066.00,0.71
7065.00,0.71
7064.00,0.70
7063.00,0.70
7062.00,0.70
7061.00,0.70
7060.00,0.70
7059.00,0.70
7058.00,0.69
7057.00,0.69
7056.00,0.69
7055.00,0.69
7054.00,0.69
7053.00,0.69
7052.00,0.69
7051.00,0.68
7050.00,0.68
7049.00,0.68
7048.00,0.68
7047.00,0.68
7046.00,0.68
7045.00,0.68
7044.00,0.67
7043.00,0.67
7042.00,0.67
7041.00,0.67
7040.00,0.67
7039.00,0.67
7038.00,0.67
7037.00,0.67
7036.00,0.67
7035.00,0.66
7034.00,0.66
7033.00,0.66
7032.00,0.66
7031.00,0.66
7030.00,0.66
7029.00,0.66
7028.00,0.66
7027.00,0.65
7026.00,0.65
7025.00,0.65
7024.00,0.65
7023.00,0.65
7022.00,0.65
7021.00,0.65
7020.00,0.65
7019.00,0.64
7018.00,0.64
7017.00,0.64
7016.00,0.64
7015.00,0.64
7014.00,0.64
7013.00,0.64
7012.00,0.64
7011.00,0.64
7010.00,0.64
7009.00,0.64
7008.00,0.64
7007.00,0.64
7006.00,0.64
7005.00,0.64
7004.00,0.64
7003.00,0.64
7002.00,0.64
7001.00,0.64
7000.00,0.64
6999.00,0.64
6998.00,0.64
6997.00,0.64
6996.00,0.63
6995.00,0.63
6994.00,0.63
6993.00,0.63
6992.00,0.63
6991.00,0.63
6990.00,0.63
6989.00,0.63
6988.00,0.63
6987.00,0.63
6986.00,0.63
6985.00,0.63
6984.00,0.63
6983.00,0.63
6982.00,0.63
6981.00,0.62
6980.00,0.62
6979.00,0.62
6978.00,0.62
6977.00,0.62
6976.00,0.62
6975.00,0.62
6974.00,0.62
6973.00,0.62
6972.00,0.62
6971.00,0.62
6970.00,0.62
6969.00,0.62
6968.00,0.61
6967.00,0.61
6966.00,0.61
6965.00,0.61
6964.00,0.61
6963.00,0.61
6962.00,0.61
6961.00,0.61
6960.00,0.61
6959.00,0.61
6958.00,0.61
6957.00,0.61
6956.00,0.61
6955.00,0.61
6954.00,0.61
6953.00,0.61
6952.00,0.61
6951.00,0.61
6950.00,0.61
6949.00,0.61
6948.00,0.61
6947.00,0.61
6946.00,0.61
6945.00,0.61
6944.00,0.61
6943.00,0.61
6942.00,0.61
6941.00,0.61
6940.00,0.61
6939.00,0.61
6938.00,0.61
6937.00,0.61
6936.00,0.60
6935.00,0.60
6934.00,0.60
6933.00,0.60
6932.00,0.60
6931.00,0.60
6930.00,0.60
6929.00,0.60
6928.00,0.60
6927.00,0.60
6926.00,0.60
6925.00,0.59
6924.00,0.59
6923.00,0.59
6922.00,0.59
6921.00,0.59
6920.00,0.59
6919.00,0.59
6918.00,0.59
6917.00,0.59
6916.00,0.59
6915.00,0.59
6914.00,0.59
6913.00,0.59
6912.00,0.59
6911.00,0.59
6910.00,0.60
6909.00,0.60
6908.00,0.60
6907.00,0.60
6906.00,0.60
6905.00,0.60
6904.00,0.60
6903.00,0.60
6902.00,0.60
6901.00,0.60
6900.00,0.60
6899.00,0.60
6898.00,0.60
6897.00,0.60
6896.00,0.60
6895.00,0.60
6894.00,0.60
6893.00,0.60
6892.00,0.60
6891.00,0.60
6890.00,0.60
6889.00,0.60
6888.00,0.60
6887.00,0.60
6886.00,0.60
6885.00,0.60
6884.00,0.60
6883.00,0.60
6882.00,0.60
6881.00,0.60
6880.00,0.60
6879.00,0.60
6878.00,0.60
6877.00,0.60
6876.00,0.60
6875.00,0.60
6874.00,0.60
6873.00,0.60
6872.00,0.60
6871.00,0.60
6870.00,0.60
6869.00,0.60
6868.00,0.60
6867.00,0.60
6866.00,0.60
6865.00,0.60
6864.00,0.60
6863.00,0.60
6862.00,0.60
6861.00,0.60
6860.00,0.60
6859.00,0.60
6858.00,0.60
6857.00,0.60
6856.00,0.60
6855.00,0.60
6854.00,0.60
6853.00,0.60
6852.00,0.60
6851.00,0.60
6850.00,0.60
6849.00,0.60
6848.00,0.60
6847.00,0.60
6846.00,0.60
6845.00,0.60
6844.00,0.60
6843.00,0.60
6842.00,0.60
6841.00,0.60
6840.00,0.60
6839.00,0.60
6838.00,0.60
6837.00,0.60
6836.00,0.60
6835.00,0.60
6834.00,0.60
6833.00,0.60
6832.00,0.60
6831.00,0.60
6830.00,0.60
6829.00,0.60
6828.00,0.60
6827.00,0.61
6826.00,0.61
6825.00,0.61
6824.00,0.61
6823.00,0.61
6822.00,0.61
6821.00,0.61
6820.00,0.61
6819.00,0.61
6818.00,0.61
6817.00,0.61
6816.00,0.61
6815.00,0.61
6814.00,0.61
6813.00,0.61
6812.00,0.61
6811.00,0.61
6810.00,0.61
6809.00,0.61
6808.00,0.61
6807.00,0.61
6806.00,0.61
6805.00,0.61
6804.00,0.62
6803.00,0.62
6802.00,0.62
6801.00,0.62
6800.00,0.62
6799.00,0.62
6798.00,0.62
6797.00,0.62
6796.00,0.62
6795.00,0.62
6794.00,0.62
6793.00,0.62
6792.00,0.62
6791.00,0.62
6790.00,0.62
6789.00,0.62
6788.00,0.63
6787.00,0.63
6786.00,0.63
6785.00,0.63
6784.00,0.63
6783.00,0.63
6782.00,0.63
6781.00,0.63
6780.00,0.63
6779.00,0.63
6778.00,0.63
6777.00,0.63
6776.00,0.63
6775.00,0.63
6774.00,0.63
6773.00,0.63
6772.00,0.64
6771.00,0.64
6770.00,0.64
6769.00,0.64
6768.00,0.64
6767.00,0.64
6766.00,0.64
6765.00,0.64
6764.00,0.64
6763.00,0.64
6762.00,0.64
6761.00,0.64
6760.00,0.64
6759.00,0.65
6758.00,0.65
6757.00,0.65
6756.00,0.65
6755.00,0.65
6754.00,0.65
6753.00,0.65
6752.00,0.65
6751.00,0.65
6750.00,0.65
6749.00,0.65
6748.00,0.65
6747.00,0.65
6746.00,0.65
6745.00,0.66
6744.00,0.66
6743.00,0.66
6742.00,0.66
6741.00,0.66
6740.00,0.66
6739.00,0.66
6738.00,0.66
6737.00,0.66
6736.00,0.66
6735.00,0.66
6734.00,0.66
6733.00,0.66
6732.00,0.66
6731.00,0.66
6730.00,0.66
6729.00,0.66
6728.00,0.66
6727.00,0.67
6726.00,0.67
6725.00,0.67
6724.00,0.67
6723.00,0.67
6722.00,0.67
6721.00,0.67
6720.00,0.67
6719.00,0.67
6718.00,0.67
6717.00,0.68
6716.00,0.68
6715.00,0.68
6714.00,0.68
6713.00,0.68
6712.00,0.68
6711.00,0.68
6710.00,0.68
6709.00,0.69
6708.00,0.69
6707.00,0.69
6706.00,0.69
6705.00,0.69
6704.00,0.69
6703.00,0.69
6702.00,0.70
6701.00,0.70
6700.00,0.70
6699.00,0.70
6698.00,0.70
6697.00,0.70
6696.00,0.70
6695.00,0.70
6694.00,0.70
6693.00,0.71
6692.00,0.71
6691.00,0.71
6690.00,0.71
6689.00,0.71
6688.00,0.71
6687.00,0.71
6686.00,0.71
6685.00,0.71
6684.00,0.72
6683.00,0.72
6682.00,0.72
6681.00,0.72
6680.00,0.72
6679.00,0.72
6678.00,0.72
6677.00,0.72
6676.00,0.72
6675.00,0.73
6674.00,0.73
6673.00,0.73
6672.00,0.73
6671.00,0.73
6670.00,0.73
6669.00,0.73
6668.00,0.73
6667.00,0.73
6666.00,0.74
6665.00,0.74
6664.00,0.74
6663.00,0.74
6662.00,0.74
6661.00,0.74
6660.00,0.74
6659.00,0.74
6658.00,0.74
6657.00,0.74
6656.00,0.74
6655.00,0.75
6654.00,0.75
6653.00,0.75
6652.00,0.75
6651.00,0.75
6650.00,0.75
6649.00,0.75
6648.00,0.75
6647.00,0.75
6646.00,0.75
6645.00,0.75
6644.00,0.75
6643.00,0.76
6642.00,0.76
6641.00,0.76
6640.00,0.76
6639.00,0.76
6638.00,0.76
6637.00,0.76
6636.00,0.77
6635.00,0.77
6634.00,0.77
6633.00,0.77
6632.00,0.77
6631.00,0.77
6630.00,0.78
6629.00,0.78
6628.00,0.78
6627.00,0.78
6626.00,0.78
6625.00,0.78
6624.00,0.78
6623.00,0.79
6622.00,0.79
6621.00,0.79
6620.00,0.79
6619.00,0.79
6618.00,0.79
6617.00,0.79
6616.00,0.79
6615.00,0.79
6614.00,0.80
6613.00,0.80
6612.00,0.80
6611.00,0.80
6610.00,0.80
6609.00,0.80
6608.00,0.80
6607.00,0.80
6606.00,0.80
6605.00,0.80
6604.00,0.80
6603.00,0.80
6602.00,0.80
6601.00,0.80
6600.00,0.80
6599.00,0.80
6598.00,0.80
6597.00,0.81
6596.00,0.81
6595.00,0.81
6594.00,0.81
6593.00,0.81
6592.00,0.81
6591.00,0.81
6590.00,0.81
6589.00,0.81
6588.00,0.81
6587.00,0.81
6586.00,0.81
6585.00,0.82
6584.00,0.82
6583.00,0.82
6582.00,0.82
6581.00,0.82
6580.00,0.82
6579.00,0.82
6578.00,0.82
6577.00,0.83
6576.00,0.83
6575.00,0.83
6574.00,0.83
6573.00,0.83
6572.00,0.84
6571.00,0.84
6570.00,0.84
6569.00,0.84
6568.00,0.84
6567.00,0.85
6566.00,0.85
6565.00,0.85
6564.00,0.85
6563.00,0.85
6562.00,0.85
6561.00,0.85
6560.00,0.85
6559.00,0.86
6558.00,0.86
6557.00,0.86
6556.00,0.86
6555.00,0.86
6554.00,0.86
6553.00,0.86
6552.00,0.86
6551.00,0.86
6550.00,0.86
6549.00,0.86
6548.00,0.86
6547.00,0.86
6546.00,0.86
6545.00,0.86
6544.00,0.87
6543.00,0.87
6542.00,0.87
6541.00,0.87
6540.00,0.87
6539.00,0.87
6538.00,0.87
6537.00,0.87
6536.00,0.87
6535.00,0.87
6534.00,0.87
6533.00,0.87
6532.00,0.88
6531.00,0.88
6530.00,0.88
6529.00,0.88
6528.00,0.88
6527.00,0.88
6526.00,0.88
6525.00,0.89
6524.00,0.89
6523.00,0.89
6522.00,0.89
6521.00,0.89
6520.00,0.89
6519.00,0.89
6518.00,0.89
6517.00,0.90
6516.00,0.90
6515.00,0.90
6514.00,0.90
6513.00,0.90
6512.00,0.90
6511.00,0.90
6510.00,0.90
6509.00,0.91
6508.00,0.91
6507.00,0.91
6506.00,0.91
6505.00,0.91
6504.00,0.91
6503.00,0.91
6502.00,0.91
6501.00,0.92
6500.00,0.92
6499.00,0.92
6498.00,0.92
6497.00,0.92
6496.00,0.92
6495.00,0.92
6494.00,0.92
6493.00,0.92
6492.00,0.92
6491.00,0.92
6490.00,0.93
6489.00,0.93
6488.00,0.93
6487.00,0.93
6486.00,0.93
6485.00,0.93
6484.00,0.93
6483.00,0.93
6482.00,0.93
6481.00,0.93
6480.00,0.93
6479.00,0.93
6478.00,0.93
6477.00,0.93
6476.00,0.94
6475.00,0.94
6474.00,0.94
6473.00,0.94
6472.00,0.94
6471.00,0.94
6470.00,0.94
6469.00,0.94
6468.00,0.94
6467.00,0.94
6466.00,0.95
6465.00,0.95
6464.00,0.95
6463.00,0.95
6462.00,0.95
6461.00,0.95
6460.00,0.95
6459.00,0.95
6458.00,0.95
6457.00,0.95
6456.00,0.95
6455.00,0.95
6454.00,0.95
6453.00,0.95
6452.00,0.95
6451.00,0.95
6450.00,0.96
6449.00,0.96
6448.00,0.96
6447.00,0.96
6446.00,0.96
6445.00,0.96
6444.00,0.96
6443.00,0.96
6442.00,0.97
6441.00,0.97
6440.00,0.97
6439.00,0.97
6438.00,0.97
6437.00,0.97
6436.00,0.97
6435.00,0.97
6434.00,0.97
6433.00,0.98
6432.00,0.98
6431.00,0.98
6430.00,0.98
6429.00,0.98
6428.00,0.98
6427.00,0.98
6426.00,0.98
6425.00,0.98
6424.00,0.98
6423.00,0.98
6422.00,0.98
6421.00,0.98
6420.00,0.98
6419.00,0.98
6418.00,0.98
6417.00,0.98
6416.00,0.98
6415.00,0.98
6414.00,0.98
6413.00,0.98
6412.00,0.98
6411.00,0.98
6410.00,0.98
6409.00,0.98
6408.00,0.99
6407.00,0.99
6406.00,0.99
6405.00,0.99
6404.00,0.99
6403.00,0.99
6402.00,0.99
6401.00,0.99
6400.00,1.00
6399.00,1.00
6398.00,1.00
6397.00,1.00
6396.00,1.00
6395.00,1.00
6394.00,1.00
6393.00,1.00
6392.00,1.00
6391.00,1.00
6390.00,1.00
6389.00,1.01
6388.00,1.01
6387.00,1.01
6386.00,1.01
6385.00,1.01
6384.00,1.01
6383.00,1.01
6382.00,1.01
6381.00,1.01
6380.00,1.01
6379.00,1.01
6378.00,1.01
6377.00,1.01
6376.00,1.02
6375.00,1.02
6374.00,1.02
6373.00,1.02
6372.00,1.02
6371.00,1.02
6370.00,1.02
6369.00,1.02
6368.00,1.02
6367.00,1.02
6366.00,1.03
6365.00,1.03
6364.00,1.03
6363.00,1.03
6362.00,1.03
6361.00,1.03
6360.00,1.03
6359.00,1.03
6358.00,1.04
6357.00,1.04
6356.00,1.04
6355.00,1.04
6354.00,1.04
6353.00,1.04
6352.00,1.04
6351.00,1.04
6350.00,1.04
6349.00,1.04
6348.00,1.05
6347.00,1.05
6346.00,1.05
6345.00,1.05
6344.00,1.05
6343.00,1.05
6342.00,1.05
6341.00,1.05
6340.00,1.06
6339.00,1.06
6338.00,1.06
6337.00,1.06
6336.00,1.06
6335.00,1.06
6334.00,1.06
6333.00,1.07
6332.00,1.07
6331.00,1.07
6330.00,1.07
6329.00,1.07
6328.00,1.07
6327.00,1.07
6326.00,1.08
6325.00,1.08
6324.00,1.08
6323.00,1.08
6322.00,1.08
6321.00,1.08
6320.00,1.08
6319.00,1.08
6318.00,1.08
6317.00,1.09
6316.00,1.09
6315.00,1.09
6314.00,1.09
6313.00,1.09
6312.00,1.09
6311.00,1.09
6310.00,1.09
6309.00,1.09
6308.00,1.09
6307.00,1.09
6306.00,1.10
6305.00,1.10
6304.00,1.10
6303.00,1.10
6302.00,1.10
6301.00,1.10
6300.00,1.10
6299.00,1.10
6298.00,1.10
6297.00,1.11
6296.00,1.11
6295.00,1.11
6294.00,1.11
6293.00,1.11
6292.00,1.11
6291.00,1.11
6290.00,1.11
6289.00,1.11
6288.00,1.11
6287.00,1.11
6286.00,1.12
6285.00,1.12
6284.00,1.12
6283.00,1.12
6282.00,1.12
6281.00,1.12
6280.00,1.12
6279.00,1.12
6278.00,1.13
6277.00,1.13
6276.00,1.13
6275.00,1.13
6274.00,1.13
6273.00,1.13
6272.00,1.13
6271.00,1.14
6270.00,1.14
6269.00,1.14
6268.00,1.14
6267.00,1.14
6266.00,1.14
6265.00,1.14
6264.00,1.15
6263.00,1.15
6262.00,1.15
6261.00,1.15
6260.00,1.15
6259.00,1.15
6258.00,1.15
6257.00,1.15
6256.00,1.16
6255.00,1.16
6254.00,1.16
6253.00,1.16
6252.00,1.16
6251.00,1.16
6250.00,1.16
6249.00,1.16
6248.00,1.17
6247.00,1.17
6246.00,1.17
6245.00,1.17
6244.00,1.17
6243.00,1.17
6242.00,1.17
6241.00,1.17
6240.00,1.18
6239.00,1.18
6238.00,1.18
6237.00,1.18
6236.00,1.18
6235.00,1.18
6234.00,1.18
6233.00,1.18
6232.00,1.18
6231.00,1.18
6230.00,1.19
6229.00,1.19
6228.00,1.19
6227.00,1.19
6226.00,1.19
6225.00,1.19
6224.00,1.20
6223.00,1.20
6222.00,1.20
6221.00,1.20
6220.00,1.20
6219.00,1.21
6218.00,1.21
6217.00,1.21
6216.00,1.21
6215.00,1.21
6214.00,1.21
6213.00,1.22
6212.00,1.22
6211.00,1.22
6210.00,1.22
6209.00,1.22
6208.00,1.22
6207.00,1.22
6206.00,1.23
6205.00,1.23
6204.00,1.23
6203.00,1.23
6202.00,1.23
6201.00,1.23
6200.00,1.23
6199.00,1.24
6198.00,1.24
6197.00,1.24
6196.00,1.24
6195.00,1.24
6194.00,1.24
6193.00,1.24
6192.00,1.24
6191.00,1.25
6190.00,1.25
6189.00,1.25
6188.00,1.25
6187.00,1.25
6186.00,1.25
6185.00,1.25
6184.00,1.25
6183.00,1.26
6182.00,1.26
6181.00,1.26
6180.00,1.26
6179.00,1.26
6178.00,1.26
6177.00,1.26
6176.00,1.27
6175.00,1.27
6174.00,1.27
6173.00,1.27
6172.00,1.27
6171.00,1.27
6170.00,1.28
6169.00,1.28
6168.00,1.28
6167.00,1.28
6166.00,1.28
6165.00,1.28
6164.00,1.28
6163.00,1.29
6162.00,1.29
6161.00,1.29
6160.00,1.29
6159.00,1.29
6158.00,1.29
6157.00,1.29
6156.00,1.29
6155.00,1.30
6154.00,1.30
6153.00,1.30
6152.00,1.30
6151.00,1.30
6150.00,1.30
6149.00,1.30
6148.00,1.30
6147.00,1.30
6146.00,1.31
6145.00,1.31
6144.00,1.31
6143.00,1.31
6142.00,1.31
6141.00,1.31
6140.00,1.31
6139.00,1.32
6138.00,1.32
6137.00,1.32
6136.00,1.32
6135.00,1.32
6134.00,1.32
6133.00,1.32
6132.00,1.33
6131.00,1.33
6130.00,1.33
6129.00,1.33
6128.00,1.33
6127.00,1.33
6126.00,1.33
6125.00,1.33
6124.00,1.34
6123.00,1.34
6122.00,1.34
6121.00,1.34
6120.00,1.34
6119.00,1.34
6118.00,1.34
6117.00,1.34
6116.00,1.34
6115.00,1.34
6114.00,1.34
6113.00,1.35
6112.00,1.35
6111.00,1.35
6110.00,1.35
6109.00,1.35
6108.00,1.35
6107.00,1.35
6106.00,1.36
6105.00,1.36
6104.00,1.36
6103.00,1.36
6102.00,1.36
6101.00,1.36
6100.00,1.36
6099.00,1.37
6098.00,1.37
6097.00,1.37
6096.00,1.37
6095.00,1.37
6094.00,1.37
6093.00,1.37
6092.00,1.38
6091.00,1.38
6090.00,1.38
6089.00,1.38
6088.00,1.38
6087.00,1.38
6086.00,1.38
6085.00,1.38
6084.00,1.39
6083.00,1.39
6082.00,1.39
6081.00,1.39
6080.00,1.39
6079.00,1.39
6078.00,1.39
6077.00,1.39
6076.00,1.40
6075.00,1.40
6074.00,1.40
6073.00,1.40
6072.00,1.40
6071.00,1.40
6070.00,1.40
6069.00,1.40
6068.00,1.40
6067.00,1.40
6066.00,1.41
6065.00,1.41
6064.00,1.41
6063.00,1.41
6062.00,1.41
6061.00,1.41
6060.00,1.41
6059.00,1.41
6058.00,1.42
6057.00,1.42
6056.00,1.42
6055.00,1.42
6054.00,1.42
6053.00,1.42
6052.00,1.42
6051.00,1.43
6050.00,1.43
6049.00,1.43
6048.00,1.43
6047.00,1.43
6046.00,1.43
6045.00,1.43
6044.00,1.43
6043.00,1.43
6042.00,1.43
6041.00,1.43
6040.00,1.43
6039.00,1.43
6038.00,1.43
6037.00,1.43
6036.00,1.43
6035.00,1.43
6034.00,1.43
6033.00,1.43
6032.00,1.43
6031.00,1.43
6030.00,1.43
6029.00,1.43
6028.00,1.43
6027.00,1.43
6026.00,1.43
6025.00,1.43
6024.00,1.43
6023.00,1.43
6022.00,1.43
6021.00,1.43
6020.00,1.43
6019.00,1.43
6018.00,1.43
6017.00,1.43
6016.00,1.43
6015.00,1.44
6014.00,1.44
6013.00,1.44
6012.00,1.44
6011.00,1.44
6010.00,1.44
6009.00,1.44
6008.00,1.44
6007.00,1.44
6006.00,1.44
6005.00,1.44
6004.00,1.44
6003.00,1.44
6002.00,1.44
6001.00,1.44
6000.00,1.43
5999.00,1.43
5998.00,1.43
5997.00,1.43
5996.00,1.43
5995.00,1.43
5994.00,1.43
5993.00,1.43
5992.00,1.43
5991.00,1.43
5990.00,1.42
5989.00,1.42
5988.00,1.42
5987.00,1.42
5986.00,1.42
5985.00,1.42
5984.00,1.41
5983.00,1.41
5982.00,1.41
5981.00,1.41
5980.00,1.40
5979.00,1.40
5978.00,1.40
5977.00,1.39
5976.00,1.39
5975.00,1.38
5974.00,1.38
5973.00,1.38
5972.00,1.37
5971.00,1.37
5970.00,1.36
5969.00,1.36
5968.00,1.35
5967.00,1.35
5966.00,1.34
5965.00,1.34
5964.00,1.33
5963.00,1.32
5962.00,1.32
5961.00,1.31
5960.00,1.31
5959.00,1.30
5958.00,1.30
5957.00,1.29
5956.00,1.29
5955.00,1.28
5954.00,1.28
5953.00,1.27
5952.00,1.27
5951.00,1.26
5950.00,1.26
5949.00,1.26
5948.00,1.25
5947.00,1.25
5946.00,1.25
5945.00,1.24
5944.00,1.24
5943.00,1.24
5942.00,1.24
5941.00,1.23
5940.00,1.23
5939.00,1.23
5938.00,1.23
5937.00,1.23
5936.00,1.23
5935.00,1.23
5934.00,1.22
5933.00,1.22
5932.00,1.22
5931.00,1.22
5930.00,1.22
5929.00,1.22
5928.00,1.22
5927.00,1.21
5926.00,1.21
5925.00,1.21
5924.00,1.21
5923.00,1.21
5922.00,1.20
5921.00,1.20
5920.00,1.20
5919.00,1.20
5918.00,1.20
5917.00,1.19
5916.00,1.19
5915.00,1.19
5914.00,1.19
5913.00,1.19
5912.00,1.18
5911.00,1.18
5910.00,1.18
5909.00,1.18
5908.00,1.18
5907.00,1.18
5906.00,1.18
5905.00,1.18
5904.00,1.18
5903.00,1.18
5902.00,1.18
5901.00,1.18
5900.00,1.18
5899.00,1.18
5898.00,1.18
5897.00,1.18
5896.00,1.18
5895.00,1.18
5894.00,1.18
5893.00,1.19
5892.00,1.19
5891.00,1.19
5890.00,1.19
5889.00,1.20
5888.00,1.20
5887.00,1.20
5886.00,1.20
5885.00,1.21
5884.00,1.21
5883.00,1.21
5882.00,1.22
5881.00,1.22
5880.00,1.22
5879.00,1.22
5878.00,1.23
5877.00,1.23
5876.00,1.23
5875.00,1.23
5874.00,1.23
5873.00,1.24
5872.00,1.24
5871.00,1.24
5870.00,1.24
5869.00,1.25
5868.00,1.25
5867.00,1.25
5866.00,1.25
5865.00,1.25
5864.00,1.25
5863.00,1.26
5862.00,1.26
5861.00,1.26
5860.00,1.26
5859.00,1.26
5858.00,1.26
5857.00,1.27
5856.00,1.27
5855.00,1.27
5854.00,1.27
5853.00,1.27
5852.00,1.27
5851.00,1.27
5850.00,1.27
5849.00,1.27
5848.00,1.27
5847.00,1.27
5846.00,1.27
5845.00,1.27
5844.00,1.27
5843.00,1.27
5842.00,1.27
5841.00,1.27
5840.00,1.27
5839.00,1.27
5838.00,1.27
5837.00,1.27
5836.00,1.27
5835.00,1.27
5834.00,1.27
5833.00,1.27
5832.00,1.27
5831.00,1.27
5830.00,1.27
5829.00,1.27
5828.00,1.27
5827.00,1.27
5826.00,1.27
5825.00,1.27
5824.00,1.27
5823.00,1.27
5822.00,1.27
5821.00,1.27
5820.00,1.27
5819.00,1.27
5818.00,1.27
5817.00,1.27
5816.00,1.27
5815.00,1.27
5814.00,1.27
5813.00,1.27
5812.00,1.27
5811.00,1.27
5810.00,1.27
5809.00,1.27
5808.00,1.27
5807.00,1.27
5806.00,1.27
5805.00,1.27
5804.00,1.27
5803.00,1.27
5802.00,1.27
5801.00,1.26
5800.00,1.26
5799.00,1.26
5798.00,1.26
5797.00,1.26
5796.00,1.25
5795.00,1.25
5794.00,1.25
5793.00,1.25
5792.00,1.24
5791.00,1.24
5790.00,1.24
5789.00,1.24
5788.00,1.24
5787.00,1.23
5786.00,1.23
5785.00,1.23
5784.00,1.23
5783.00,1.23
5782.00,1.22
5781.00,1.22
5780.00,1.22
5779.00,1.22
5778.00,1.22
5777.00,1.22
5776.00,1.22
5775.00,1.22
5774.00,1.22
5773.00,1.22
5772.00,1.22
5771.00,1.22
5770.00,1.22
5769.00,1.22
5768.00,1.22
5767.00,1.22
5766.00,1.22
5765.00,1.23
5764.00,1.23
5763.00,1.23
5762.00,1.23
5761.00,1.23
5760.00,1.24
5759.00,1.24
5758.00,1.24
5757.00,1.24
5756.00,1.25
5755.00,1.25
5754.00,1.25
5753.00,1.26
5752.00,1.26
5751.00,1.26
5750.00,1.26
5749.00,1.27
5748.00,1.27
5747.00,1.27
5746.00,1.27
5745.00,1.28
5744.00,1.28
5743.00,1.28
5742.00,1.28
5741.00,1.29
5740.00,1.29
5739.00,1.29
5738.00,1.29
5737.00,1.29
5736.00,1.29
5735.00,1.29
5734.00,1.30
5733.00,1.30
5732.00,1.30
5731.00,1.30
5730.00,1.30
5729.00,1.30
5728.00,1.30
5727.00,1.30
5726.00,1.30
5725.00,1.30
5724.00,1.30
5723.00,1.30
5722.00,1.30
5721.00,1.30
5720.00,1.30
5719.00,1.30
5718.00,1.30
5717.00,1.30
5716.00,1.30
5715.00,1.30
5714.00,1.30
5713.00,1.30
5712.00,1.30
5711.00,1.29
5710.00,1.29
5709.00,1.29
5708.00,1.29
5707.00,1.29
5706.00,1.29
5705.00,1.29
5704.00,1.29
5703.00,1.29
5702.00,1.29
5701.00,1.29
5700.00,1.28
5699.00,1.28
5698.00,1.28
5697.00,1.28
5696.00,1.28
5695.00,1.28
5694.00,1.28
5693.00,1.27
5692.00,1.27
5691.00,1.27
5690.00,1.27
5689.00,1.27
5688.00,1.27
5687.00,1.26
5686.00,1.26
5685.00,1.26
5684.00,1.26
5683.00,1.26
5682.00,1.26
5681.00,1.26
5680.00,1.26
5679.00,1.26
5678.00,1.26
5677.00,1.25
5676.00,1.25
5675.00,1.25
5674.00,1.25
5673.00,1.25
5672.00,1.25
5671.00,1.25
5670.00,1.25
5669.00,1.25
5668.00,1.25
5667.00,1.26
5666.00,1.26
5665.00,1.26
5664.00,1.26
5663.00,1.26
5662.00,1.26
5661.00,1.26
5660.00,1.26
5659.00,1.26
5658.00,1.26
5657.00,1.27
5656.00,1.27
5655.00,1.27
5654.00,1.27
5653.00,1.27
5652.00,1.27
5651.00,1.27
5650.00,1.27
5649.00,1.28
5648.00,1.28
5647.00,1.28
5646.00,1.28
5645.00,1.28
5644.00,1.28
5643.00,1.28
5642.00,1.28
5641.00,1.29
5640.00,1.29
5639.00,1.29
5638.00,1.29
5637.00,1.29
5636.00,1.29
5635.00,1.29
5634.00,1.29
5633.00,1.30
5632.00,1.30
5631.00,1.30
5630.00,1.30
5629.00,1.30
5628.00,1.30
5627.00,1.30
5626.00,1.30
5625.00,1.30
5624.00,1.30
5623.00,1.31
5622.00,1.31
5621.00,1.31
5620.00,1.31
5619.00,1.31
5618.00,1.31
5617.00,1.31
5616.00,1.31
5615.00,1.32
5614.00,1.32
5613.00,1.32
5612.00,1.32
5611.00,1.32
5610.00,1.32
5609.00,1.32
5608.00,1.32
5607.00,1.33
5606.00,1.33
5605.00,1.33
5604.00,1.33
5603.00,1.33
5602.00,1.33
5601.00,1.33
5600.00,1.34
5599.00,1.34
5598.00,1.34
5597.00,1.34
5596.00,1.34
5595.00,1.34
5594.00,1.34
5593.00,1.34
5592.00,1.35
5591.00,1.35
5590.00,1.35
5589.00,1.35
5588.00,1.35
5587.00,1.35
5586.00,1.35
5585.00,1.36
5584.00,1.36
5583.00,1.36
5582.00,1.36
5581.00,1.36
5580.00,1.36
5579.00,1.36
5578.00,1.36
5577.00,1.37
5576.00,1.37
5575.00,1.37
5574.00,1.37
5573.00,1.37
5572.00,1.37
5571.00,1.37
5570.00,1.38
5569.00,1.38
5568.00,1.38
5567.00,1.38
5566.00,1.38
5565.00,1.38
5564.00,1.38
5563.00,1.38
5562.00,1.38
5561.00,1.39
5560.00,1.39
5559.00,1.39
5558.00,1.39
5557.00,1.39
5556.00,1.39
5555.00,1.39
5554.00,1.39
5553.00,1.39
5552.00,1.39
5551.00,1.40
5550.00,1.40
5549.00,1.40
5548.00,1.40
5547.00,1.40
5546.00,1.40
5545.00,1.40
5544.00,1.40
5543.00,1.41
5542.00,1.41
5541.00,1.41
5540.00,1.41
5539.00,1.41
5538.00,1.41
5537.00,1.41
5536.00,1.41
5535.00,1.41
5534.00,1.42
5533.00,1.42
5532.00,1.42
5531.00,1.42
5530.00,1.42
5529.00,1.42
5528.00,1.42
5527.00,1.42
5526.00,1.42
5525.00,1.43
5524.00,1.43
5523.00,1.43
5522.00,1.43
5521.00,1.43
5520.00,1.43
5519.00,1.43
5518.00,1.43
5517.00,1.43
5516.00,1.43
5515.00,1.43
5514.00,1.43
5513.00,1.43
5512.00,1.43
5511.00,1.44
5510.00,1.44
5509.00,1.44
5508.00,1.44
5507.00,1.44
5506.00,1.44
5505.00,1.44
5504.00,1.44
5503.00,1.44
5502.00,1.44
5501.00,1.44
5500.00,1.44
5499.00,1.44
5498.00,1.44
5497.00,1.44
5496.00,1.44
5495.00,1.44
5494.00,1.45
5493.00,1.45
5492.00,1.45
5491.00,1.45
5490.00,1.45
5489.00,1.45
5488.00,1.45
5487.00,1.45
5486.00,1.45
5485.00,1.45
5484.00,1.46
5483.00,1.46
5482.00,1.46
5481.00,1.46
5480.00,1.46
5479.00,1.46
5478.00,1.46
5477.00,1.46
5476.00,1.46
5475.00,1.46
5474.00,1.46
5473.00,1.46
5472.00,1.46
5471.00,1.46
5470.00,1.46
5469.00,1.46
5468.00,1.47
5467.00,1.47
5466.00,1.47
5465.00,1.47
5464.00,1.47
5463.00,1.47
5462.00,1.47
5461.00,1.47
5460.00,1.47
5459.00,1.47
5458.00,1.47
5457.00,1.47
5456.00,1.47
5455.00,1.48
5454.00,1.48
5453.00,1.48
5452.00,1.48
5451.00,1.48
5450.00,1.48
5449.00,1.48
5448.00,1.48
5447.00,1.48
5446.00,1.48
5445.00,1.48
5444.00,1.48
5443.00,1.48
5442.00,1.48
5441.00,1.48
5440.00,1.48
5439.00,1.48
5438.00,1.48
5437.00,1.48
5436.00,1.48
5435.00,1.48
5434.00,1.48
5433.00,1.48
5432.00,1.48
5431.00,1.48
5430.00,1.48
5429.00,1.48
5428.00,1.48
5427.00,1.48
5426.00,1.48
5425.00,1.48
5424.00,1.48
5423.00,1.48
5422.00,1.48
5421.00,1.48
5420.00,1.48
5419.00,1.48
5418.00,1.48
5417.00,1.48
5416.00,1.48
5415.00,1.48
5414.00,1.48
5413.00,1.47
5412.00,1.47
5411.00,1.47
5410.00,1.47
5409.00,1.47
5408.00,1.47
5407.00,1.47
5406.00,1.47
5405.00,1.47
5404.00,1.47
5403.00,1.47
5402.00,1.47
5401.00,1.47
5400.00,1.47
5399.00,1.46
5398.00,1.46
5397.00,1.46
5396.00,1.46
5395.00,1.46
5394.00,1.46
5393.00,1.45
5392.00,1.45
5391.00,1.45
5390.00,1.45
5389.00,1.44
5388.00,1.44
5387.00,1.44
5386.00,1.43
5385.00,1.43
5384.00,1.43
5383.00,1.42
5382.00,1.42
5381.00,1.42
5380.00,1.41
5379.00,1.41
5378.00,1.40
5377.00,1.40
5376.00,1.39
5375.00,1.39
5374.00,1.38
5373.00,1.38
5372.00,1.37
5371.00,1.37
5370.00,1.36
5369.00,1.36
5368.00,1.35
5367.00,1.35
5366.00,1.34
5365.00,1.33
5364.00,1.33
5363.00,1.32
5362.00,1.31
5361.00,1.30
5360.00,1.30
5359.00,1.29
5358.00,1.28
5357.00,1.27
5356.00,1.26
5355.00,1.26
5354.00,1.25
5353.00,1.24
5352.00,1.23
5351.00,1.22
5350.00,1.21
5349.00,1.20
5348.00,1.19
5347.00,1.18
5346.00,1.17
5345.00,1.16
5344.00,1.15
5343.00,1.14
5342.00,1.13
5341.00,1.12
5340.00,1.11
5339.00,1.10
5338.00,1.08
5337.00,1.07
5336.00,1.06
5335.00,1.05
5334.00,1.04
5333.00,1.03
5332.00,1.02
5331.00,1.01
5330.00,1.00
5329.00,0.99
5328.00,0.98
5327.00,0.97
5326.00,0.96
5325.00,0.95
5324.00,0.94
5323.00,0.93
5322.00,0.92
5321.00,0.91
5320.00,0.90
5319.00,0.89
5318.00,0.88
5317.00,0.87
5316.00,0.86
5315.00,0.85
5314.00,0.84
5313.00,0.83
5312.00,0.82
5311.00,0.81
5310.00,0.80
5309.00,0.80
5308.00,0.79
5307.00,0.78
5306.00,0.77
5305.00,0.77
5304.00,0.76
5303.00,0.76
5302.00,0.75
5301.00,0.74
5300.00,0.74
5299.00,0.73
5298.00,0.73
5297.00,0.73
5296.00,0.72
5295.00,0.72
5294.00,0.71
5293.00,0.71
5292.00,0.71
5291.00,0.70
5290.00,0.70
5289.00,0.70
5288.00,0.70
5287.00,0.69
5286.00,0.69
5285.00,0.69
5284.00,0.69
5283.00,0.69
5282.00,0.68
5281.00,0.68
5280.00,0.68
5279.00,0.68
5278.00,0.68
5277.00,0.68
5276.00,0.67
5275.00,0.67
5274.00,0.67
5273.00,0.67
5272.00,0.67
5271.00,0.67
5270.00,0.67
5269.00,0.67
5268.00,0.66
5267.00,0.66
5266.00,0.66
5265.00,0.66
5264.00,0.66
5263.00,0.66
5262.00,0.66
5261.00,0.66
5260.00,0.66
5259.00,0.66
5258.00,0.66
5257.00,0.66
5256.00,0.66
5255.00,0.66
5254.00,0.66
5253.00,0.66
5252.00,0.66
5251.00,0.66
5250.00,0.66
5249.00,0.66
5248.00,0.66
5247.00,0.66
5246.00,0.66
5245.00,0.66
5244.00,0.66
5243.00,0.66
5242.00,0.66
5241.00,0.67
5240.00,0.67
5239.00,0.67
5238.00,0.67
5237.00,0.67
5236.00,0.67
5235.00,0.67
5234.00,0.67
5233.00,0.67
5232.00,0.67
5231.00,0.67
5230.00,0.67
5229.00,0.67
5228.00,0.67
5227.00,0.67
5226.00,0.67
5225.00,0.67
5224.00,0.67
5223.00,0.67
5222.00,0.67
5221.00,0.67
5220.00,0.67
5219.00,0.67
5218.00,0.67
5217.00,0.67
5216.00,0.67
5215.00,0.67
5214.00,0.67
5213.00,0.67
5212.00,0.67
5211.00,0.67
5210.00,0.67
5209.00,0.67
5208.00,0.67
5207.00,0.67
5206.00,0.67
5205.00,0.67
5204.00,0.67
5203.00,0.67
5202.00,0.67
5201.00,0.67
5200.00,0.68
5199.00,0.68
5198.00,0.68
5197.00,0.68
5196.00,0.68
5195.00,0.68
5194.00,0.68
5193.00,0.68
5192.00,0.68
5191.00,0.68
5190.00,0.68
5189.00,0.68
5188.00,0.68
5187.00,0.68
5186.00,0.68
5185.00,0.68
5184.00,0.68
5183.00,0.68
5182.00,0.68
5181.00,0.68
5180.00,0.68
5179.00,0.68
5178.00,0.68
5177.00,0.68
5176.00,0.68
5175.00,0.69
5174.00,0.69
5173.00,0.69
5172.00,0.69
5171.00,0.69
5170.00,0.69
5169.00,0.69
5168.00,0.69
5167.00,0.69
5166.00,0.69
5165.00,0.69
5164.00,0.69
5163.00,0.69
5162.00,0.69
5161.00,0.69
5160.00,0.70
5159.00,0.70
5158.00,0.70
5157.00,0.70
5156.00,0.70
5155.00,0.70
5154.00,0.70
5153.00,0.70
5152.00,0.71
5151.00,0.71
5150.00,0.71
5149.00,0.71
5148.00,0.71
5147.00,0.71
5146.00,0.71
5145.00,0.71
5144.00,0.71
5143.00,0.71
5142.00,0.71
5141.00,0.71
5140.00,0.72
5139.00,0.72
5138.00,0.72
5137.00,0.72
5136.00,0.72
5135.00,0.72
5134.00,0.72
5133.00,0.72
5132.00,0.72
5131.00,0.72
5130.00,0.72
5129.00,0.72
5128.00,0.72
5127.00,0.72
5126.00,0.72
5125.00,0.72
5124.00,0.72
5123.00,0.72
5122.00,0.72
5121.00,0.72
5120.00,0.72
5119.00,0.72
5118.00,0.72
5117.00,0.72
5116.00,0.72
5115.00,0.72
5114.00,0.72
5113.00,0.72
5112.00,0.73
5111.00,0.73
5110.00,0.73
5109.00,0.73
5108.00,0.73
5107.00,0.73
5106.00,0.73
5105.00,0.73
5104.00,0.73
5103.00,0.73
5102.00,0.73
5101.00,0.73
5100.00,0.73
5099.00,0.73
5098.00,0.73
5097.00,0.73
5096.00,0.73
5095.00,0.73
5094.00,0.73
5093.00,0.73
5092.00,0.73
5091.00,0.73
5090.00,0.74
5089.00,0.74
5088.00,0.74
5087.00,0.74
5086.00,0.74
5085.00,0.74
5084.00,0.74
5083.00,0.74
5082.00,0.74
5081.00,0.74
5080.00,0.74
5079.00,0.74
5078.00,0.74
5077.00,0.74
5076.00,0.74
5075.00,0.74
5074.00,0.74
5073.00,0.74
5072.00,0.75
5071.00,0.75
5070.00,0.75
5069.00,0.75
5068.00,0.75
5067.00,0.75
5066.00,0.75
5065.00,0.75
5064.00,0.75
5063.00,0.75
5062.00,0.75
5061.00,0.75
5060.00,0.75
5059.00,0.75
5058.00,0.75
5057.00,0.75
5056.00,0.75
5055.00,0.76
5054.00,0.76
5053.00,0.76
5052.00,0.76
5051.00,0.76
5050.00,0.76
5049.00,0.76
5048.00,0.76
5047.00,0.76
5046.00,0.76
5045.00,0.77
5044.00,0.77
5043.00,0.77
5042.00,0.77
5041.00,0.77
5040.00,0.77
5039.00,0.77
5038.00,0.77
5037.00,0.77
5036.00,0.77
5035.00,0.78
5034.00,0.78
5033.00,0.78
5032.00,0.78
5031.00,0.78
5030.00,0.78
5029.00,0.78
5028.00,0.78
5027.00,0.78
5026.00,0.78
5025.00,0.78
5024.00,0.78
5023.00,0.78
5022.00,0.78
5021.00,0.78
5020.00,0.78
5019.00,0.79
5018.00,0.79
5017.00,0.79
5016.00,0.79
5015.00,0.79
5014.00,0.79
5013.00,0.79
5012.00,0.79
5011.00,0.79
5010.00,0.79
5009.00,0.79
5008.00,0.79
5007.00,0.79
5006.00,0.79
5005.00,0.79
5004.00,0.79
5003.00,0.79
5002.00,0.79
5001.00,0.79
5000.00,0.79
4999.00,0.79
4998.00,0.80
4997.00,0.80
4996.00,0.80
4995.00,0.80
4994.00,0.80
4993.00,0.80
4992.00,0.80
4991.00,0.80
4990.00,0.80
4989.00,0.80
4988.00,0.81
4987.00,0.81
4986.00,0.81
4985.00,0.81
4984.00,0.81
4983.00,0.81
4982.00,0.81
4981.00,0.81
4980.00,0.82
4979.00,0.82
4978.00,0.82
4977.00,0.82
4976.00,0.82
4975.00,0.82
4974.00,0.82
4973.00,0.82
4972.00,0.82
4971.00,0.83
4970.00,0.83
4969.00,0.83
4968.00,0.83
4967.00,0.83
4966.00,0.83
4965.00,0.83
4964.00,0.83
4963.00,0.83
4962.00,0.84
4961.00,0.84
4960.00,0.84
4959.00,0.84
4958.00,0.84
4957.00,0.84
4956.00,0.84
4955.00,0.84
4954.00,0.85
4953.00,0.85
4952.00,0.85
4951.00,0.85
4950.00,0.85
4949.00,0.85
4948.00,0.85
4947.00,0.85
4946.00,0.85
4945.00,0.86
4944.00,0.86
4943.00,0.86
4942.00,0.86
4941.00,0.86
4940.00,0.86
4939.00,0.86
4938.00,0.86
4937.00,0.86
4936.00,0.86
4935.00,0.87
4934.00,0.87
4933.00,0.87
4932.00,0.87
4931.00,0.87
4930.00,0.87
4929.00,0.87
4928.00,0.87
4927.00,0.87
4926.00,0.87
4925.00,0.87
4924.00,0.87
4923.00,0.88
4922.00,0.88
4921.00,0.88
4920.00,0.88
4919.00,0.88
4918.00,0.88
4917.00,0.88
4916.00,0.88
4915.00,0.88
4914.00,0.89
4913.00,0.89
4912.00,0.89
4911.00,0.89
4910.00,0.89
4909.00,0.89
4908.00,0.89
4907.00,0.89
4906.00,0.89
4905.00,0.89
4904.00,0.90
4903.00,0.90
4902.00,0.90
4901.00,0.90
4900.00,0.90
4899.00,0.90
4898.00,0.90
4897.00,0.90
4896.00,0.90
4895.00,0.90
4894.00,0.91
4893.00,0.91
4892.00,0.91
4891.00,0.91
4890.00,0.91
4889.00,0.91
4888.00,0.91
4887.00,0.91
4886.00,0.91
4885.00,0.91
4884.00,0.91
4883.00,0.92
4882.00,0.92
4881.00,0.92
4880.00,0.92
4879.00,0.92
4878.00,0.92
4877.00,0.92
4876.00,0.92
4875.00,0.92
4874.00,0.92
4873.00,0.92
4872.00,0.92
4871.00,0.93
4870.00,0.93
4869.00,0.93
4868.00,0.93
4867.00,0.93
4866.00,0.93
4865.00,0.93
4864.00,0.93
4863.00,0.93
4862.00,0.94
4861.00,0.94
4860.00,0.94
4859.00,0.94
4858.00,0.94
4857.00,0.94
4856.00,0.94
4855.00,0.94
4854.00,0.95
4853.00,0.95
4852.00,0.95
4851.00,0.95
4850.00,0.95
4849.00,0.95
4848.00,0.95
4847.00,0.95
4846.00,0.95
4845.00,0.96
4844.00,0.96
4843.00,0.96
4842.00,0.96
4841.00,0.96
4840.00,0.96
4839.00,0.96
4838.00,0.96
4837.00,0.96
4836.00,0.96
4835.00,0.97
4834.00,0.97
4833.00,0.97
4832.00,0.97
4831.00,0.97
4830.00,0.97
4829.00,0.97
4828.00,0.97
4827.00,0.98
4826.00,0.98
4825.00,0.98
4824.00,0.98
4823.00,0.98
4822.00,0.98
4821.00,0.98
4820.00,0.99
4819.00,0.99
4818.00,0.99
4817.00,0.99
4816.00,0.99
4815.00,0.99
4814.00,0.99
4813.00,1.00
4812.00,1.00
4811.00,1.00
4810.00,1.00
4809.00,1.00
4808.00,1.00
4807.00,1.00
4806.00,1.01
4805.00,1.01
4804.00,1.01
4803.00,1.01
4802.00,1.01
4801.00,1.01
4800.00,1.01
4799.00,1.01
4798.00,1.02
4797.00,1.02
4796.00,1.02
4795.00,1.02
4794.00,1.02
4793.00,1.02
4792.00,1.02
4791.00,1.02
4790.00,1.03
4789.00,1.03
4788.00,1.03
4787.00,1.03
4786.00,1.03
4785.00,1.03
4784.00,1.04
4783.00,1.04
4782.00,1.04
4781.00,1.04
4780.00,1.04
4779.00,1.04
4778.00,1.05
4777.00,1.05
4776.00,1.05
4775.00,1.05
4774.00,1.05
4773.00,1.05
4772.00,1.05
4771.00,1.05
4770.00,1.06
4769.00,1.06
4768.00,1.06
4767.00,1.06
4766.00,1.06
4765.00,1.06
4764.00,1.07
4763.00,1.07
4762.00,1.07
4761.00,1.07
4760.00,1.08
4759.00,1.08
4758.00,1.08
4757.00,1.08
4756.00,1.09
4755.00,1.09
4754.00,1.09
4753.00,1.09
4752.00,1.09
4751.00,1.10
4750.00,1.10
4749.00,1.10
4748.00,1.10
4747.00,1.11
4746.00,1.11
4745.00,1.11
4744.00,1.11
4743.00,1.11
4742.00,1.11
4741.00,1.12
4740.00,1.12
4739.00,1.12
4738.00,1.12
4737.00,1.12
4736.00,1.13
4735.00,1.13
4734.00,1.13
4733.00,1.13
4732.00,1.13
4731.00,1.13
4730.00,1.14
4729.00,1.14
4728.00,1.14
4727.00,1.14
4726.00,1.14
4725.00,1.15
4724.00,1.15
4723.00,1.15
4722.00,1.15
4721.00,1.15
4720.00,1.16
4719.00,1.16
4718.00,1.16
4717.00,1.16
4716.00,1.16
4715.00,1.17
4714.00,1.17
4713.00,1.17
4712.00,1.17
4711.00,1.17
4710.00,1.18
4709.00,1.18
4708.00,1.18
4707.00,1.18
4706.00,1.19
4705.00,1.19
4704.00,1.19
4703.00,1.20
4702.00,1.20
4701.00,1.20
4700.00,1.20
4699.00,1.21
4698.00,1.21
4697.00,1.21
4696.00,1.21
4695.00,1.22
4694.00,1.22
4693.00,1.22
4692.00,1.22
4691.00,1.23
4690.00,1.23
4689.00,1.23
4688.00,1.23
4687.00,1.24
4686.00,1.24
4685.00,1.24
4684.00,1.24
4683.00,1.24
4682.00,1.25
4681.00,1.25
4680.00,1.25
4679.00,1.25
4678.00,1.25
4677.00,1.25
4676.00,1.25
4675.00,1.26
4674.00,1.26
4673.00,1.26
4672.00,1.26
4671.00,1.26
4670.00,1.26
4669.00,1.26
4668.00,1.27
4667.00,1.27
4666.00,1.27
4665.00,1.27
4664.00,1.27
4663.00,1.27
4662.00,1.28
4661.00,1.28
4660.00,1.28
4659.00,1.28
4658.00,1.28
4657.00,1.28
4656.00,1.29
4655.00,1.29
4654.00,1.29
4653.00,1.29
4652.00,1.29
4651.00,1.29
4650.00,1.30
4649.00,1.30
4648.00,1.30
4647.00,1.30
4646.00,1.30
4645.00,1.31
4644.00,1.31
4643.00,1.31
4642.00,1.31
4641.00,1.31
4640.00,1.32
4639.00,1.32
4638.00,1.32
4637.00,1.32
4636.00,1.32
4635.00,1.33
4634.00,1.33
4633.00,1.33
4632.00,1.33
4631.00,1.33
4630.00,1.33
4629.00,1.34
4628.00,1.34
4627.00,1.34
4626.00,1.34
4625.00,1.34
4624.00,1.34
4623.00,1.34
4622.00,1.35
4621.00,1.35
4620.00,1.35
4619.00,1.35
4618.00,1.35
4617.00,1.35
4616.00,1.35
4615.00,1.35
4614.00,1.35
4613.00,1.35
4612.00,1.35
4611.00,1.35
4610.00,1.35
4609.00,1.35
4608.00,1.35
4607.00,1.36
4606.00,1.36
4605.00,1.36
4604.00,1.36
4603.00,1.36
4602.00,1.36
4601.00,1.36
4600.00,1.36
4599.00,1.36
4598.00,1.37
4597.00,1.37
4596.00,1.37
4595.00,1.37
4594.00,1.37
4593.00,1.37
4592.00,1.37
4591.00,1.38
4590.00,1.38
4589.00,1.38
4588.00,1.38
4587.00,1.38
4586.00,1.38
4585.00,1.38
4584.00,1.38
4583.00,1.38
4582.00,1.39
4581.00,1.39
4580.00,1.39
4579.00,1.39
4578.00,1.39
4577.00,1.39
4576.00,1.39
4575.00,1.40
4574.00,1.40
4573.00,1.40
4572.00,1.40
4571.00,1.40
4570.00,1.41
4569.00,1.41
4568.00,1.41
4567.00,1.41
4566.00,1.41
4565.00,1.41
4564.00,1.41
4563.00,1.41
4562.00,1.42
4561.00,1.42
4560.00,1.42
4559.00,1.42
4558.00,1.42
4557.00,1.42
4556.00,1.42
4555.00,1.42
4554.00,1.42
4553.00,1.42
4552.00,1.42
4551.00,1.42
4550.00,1.42
4549.00,1.42
4548.00,1.42
4547.00,1.43
4546.00,1.43
4545.00,1.43
4544.00,1.43
4543.00,1.43
4542.00,1.43
4541.00,1.44
4540.00,1.44
4539.00,1.44
4538.00,1.44
4537.00,1.44
4536.00,1.44
4535.00,1.44
4534.00,1.44
4533.00,1.44
4532.00,1.44
4531.00,1.44
4530.00,1.45
4529.00,1.45
4528.00,1.45
4527.00,1.45
4526.00,1.45
4525.00,1.45
4524.00,1.45
4523.00,1.45
4522.00,1.45
4521.00,1.45
4520.00,1.45
4519.00,1.45
4518.00,1.45
4517.00,1.45
4516.00,1.45
4515.00,1.45
4514.00,1.45
4513.00,1.45
4512.00,1.45
4511.00,1.45
4510.00,1.45
4509.00,1.45
4508.00,1.45
4507.00,1.45
4506.00,1.45
4505.00,1.45
4504.00,1.45
4503.00,1.45
4502.00,1.45
4501.00,1.45
4500.00,1.45
4499.00,1.45
4498.00,1.45
4497.00,1.45
4496.00,1.45
4495.00,1.45
4494.00,1.45
4493.00,1.45
4492.00,1.45
4491.00,1.44
4490.00,1.44
4489.00,1.44
4488.00,1.44
4487.00,1.44
4486.00,1.43
4485.00,1.43
4484.00,1.43
4483.00,1.43
4482.00,1.43
4481.00,1.42
4480.00,1.42
4479.00,1.42
4478.00,1.42
4477.00,1.41
4476.00,1.41
4475.00,1.41
4474.00,1.41
4473.00,1.40
4472.00,1.40
4471.00,1.40
4470.00,1.40
4469.00,1.39
4468.00,1.39
4467.00,1.39
4466.00,1.38
4465.00,1.38
4464.00,1.38
4463.00,1.37
4462.00,1.37
4461.00,1.37
4460.00,1.36
4459.00,1.36
4458.00,1.36
4457.00,1.35
4456.00,1.35
4455.00,1.34
4454.00,1.34
4453.00,1.33
4452.00,1.33
4451.00,1.32
4450.00,1.32
4449.00,1.31
4448.00,1.31
4447.00,1.30
4446.00,1.30
4445.00,1.29
4444.00,1.29
4443.00,1.28
4442.00,1.28
4441.00,1.27
4440.00,1.27
4439.00,1.26
4438.00,1.26
4437.00,1.25
4436.00,1.24
4435.00,1.24
4434.00,1.23
4433.00,1.23
4432.00,1.22
4431.00,1.22
4430.00,1.21
4429.00,1.21
4428.00,1.20
4427.00,1.20
4426.00,1.19
4425.00,1.19
4424.00,1.19
4423.00,1.18
4422.00,1.18
4421.00,1.18
4420.00,1.17
4419.00,1.17
4418.00,1.17
4417.00,1.17
4416.00,1.17
4415.00,1.17
4414.00,1.16
4413.00,1.16
4412.00,1.17
4411.00,1.17
4410.00,1.17
4409.00,1.17
4408.00,1.17
4407.00,1.17
4406.00,1.17
4405.00,1.17
4404.00,1.17
4403.00,1.18
4402.00,1.18
4401.00,1.18
4400.00,1.18
4399.00,1.18
4398.00,1.18
4397.00,1.19
4396.00,1.19
4395.00,1.19
4394.00,1.19
4393.00,1.19
4392.00,1.20
4391.00,1.20
4390.00,1.20
4389.00,1.20
4388.00,1.20
4387.00,1.21
4386.00,1.21
4385.00,1.21
4384.00,1.21
4383.00,1.22
4382.00,1.22
4381.00,1.22
4380.00,1.22
4379.00,1.23
4378.00,1.23
4377.00,1.23
4376.00,1.23
4375.00,1.24
4374.00,1.24
4373.00,1.24
4372.00,1.24
4371.00,1.24
4370.00,1.24
4369.00,1.24
4368.00,1.24
4367.00,1.24
4366.00,1.24
4365.00,1.24
4364.00,1.24
4363.00,1.24
4362.00,1.24
4361.00,1.23
4360.00,1.23
4359.00,1.23
4358.00,1.23
4357.00,1.23
4356.00,1.23
4355.00,1.23
4354.00,1.22
4353.00,1.22
4352.00,1.22
4351.00,1.22
4350.00,1.22
4349.00,1.22
4348.00,1.21
4347.00,1.21
4346.00,1.21
4345.00,1.21
4344.00,1.21
4343.00,1.21
4342.00,1.21
4341.00,1.21
4340.00,1.21
4339.00,1.21
4338.00,1.21
4337.00,1.21
4336.00,1.21
4335.00,1.22
4334.00,1.22
4333.00,1.22
4332.00,1.22
4331.00,1.23
4330.00,1.23
4329.00,1.23
4328.00,1.23
4327.00,1.24
4326.00,1.24
4325.00,1.24
4324.00,1.25
4323.00,1.25
4322.00,1.25
4321.00,1.26
4320.00,1.26
4319.00,1.26
4318.00,1.27
4317.00,1.27
4316.00,1.27
4315.00,1.27
4314.00,1.28
4313.00,1.28
4312.00,1.28
4311.00,1.29
4310.00,1.29
4309.00,1.29
4308.00,1.29
4307.00,1.30
4306.00,1.30
4305.00,1.30
4304.00,1.30
4303.00,1.31
4302.00,1.31
4301.00,1.31
4300.00,1.31
4299.00,1.32
4298.00,1.32
4297.00,1.32
4296.00,1.32
4295.00,1.32
4294.00,1.32
4293.00,1.32
4292.00,1.33
4291.00,1.33
4290.00,1.33
4289.00,1.33
4288.00,1.33
4287.00,1.33
4286.00,1.33
4285.00,1.33
4284.00,1.33
4283.00,1.33
4282.00,1.33
4281.00,1.33
4280.00,1.33
4279.00,1.33
4278.00,1.33
4277.00,1.33
4276.00,1.33
4275.00,1.33
4274.00,1.33
4273.00,1.33
4272.00,1.33
4271.00,1.33
4270.00,1.32
4269.00,1.32
4268.00,1.32
4267.00,1.32
4266.00,1.32
4265.00,1.31
4264.00,1.31
4263.00,1.31
4262.00,1.31
4261.00,1.31
4260.00,1.31
4259.00,1.31
4258.00,1.30
4257.00,1.30
4256.00,1.30
4255.00,1.30
4254.00,1.31
4253.00,1.31
4252.00,1.31
4251.00,1.31
4250.00,1.31
4249.00,1.32
4248.00,1.32
4247.00,1.32
4246.00,1.32
4245.00,1.33
4244.00,1.33
4243.00,1.33
4242.00,1.34
4241.00,1.34
4240.00,1.34
4239.00,1.34
4238.00,1.34
4237.00,1.35
4236.00,1.35
4235.00,1.35
4234.00,1.35
4233.00,1.35
4232.00,1.35
4231.00,1.35
4230.00,1.35
4229.00,1.35
4228.00,1.35
4227.00,1.35
4226.00,1.35
4225.00,1.35
4224.00,1.35
4223.00,1.35
4222.00,1.35
4221.00,1.35
4220.00,1.35
4219.00,1.35
4218.00,1.35
4217.00,1.35
4216.00,1.35
4215.00,1.35
4214.00,1.35
4213.00,1.35
4212.00,1.35
4211.00,1.35
4210.00,1.35
4209.00,1.35
4208.00,1.35
4207.00,1.35
4206.00,1.35
4205.00,1.35
4204.00,1.35
4203.00,1.35
4202.00,1.35
4201.00,1.35
4200.00,1.35
4199.00,1.35
4198.00,1.35
4197.00,1.35
4196.00,1.35
4195.00,1.36
4194.00,1.36
4193.00,1.36
4192.00,1.36
4191.00,1.36
4190.00,1.36
4189.00,1.36
4188.00,1.36
4187.00,1.37
4186.00,1.37
4185.00,1.37
4184.00,1.37
4183.00,1.37
4182.00,1.37
4181.00,1.37
4180.00,1.37
4179.00,1.37
4178.00,1.38
4177.00,1.38
4176.00,1.38
4175.00,1.38
4174.00,1.38
4173.00,1.38
4172.00,1.38
4171.00,1.38
4170.00,1.38
4169.00,1.38
4168.00,1.38
4167.00,1.38
4166.00,1.38
4165.00,1.38
4164.00,1.38
4163.00,1.38
4162.00,1.38
4161.00,1.38
4160.00,1.38
4159.00,1.38
4158.00,1.38
4157.00,1.38
4156.00,1.38
4155.00,1.38
4154.00,1.38
4153.00,1.38
4152.00,1.38
4151.00,1.38
4150.00,1.37
4149.00,1.37
4148.00,1.37
4147.00,1.37
4146.00,1.37
4145.00,1.37
4144.00,1.37
4143.00,1.37
4142.00,1.37
4141.00,1.37
4140.00,1.37
4139.00,1.37
4138.00,1.37
4137.00,1.37
4136.00,1.37
4135.00,1.37
4134.00,1.37
4133.00,1.37
4132.00,1.37
4131.00,1.37
4130.00,1.37
4129.00,1.37
4128.00,1.37
4127.00,1.37
4126.00,1.37
4125.00,1.37
4124.00,1.38
4123.00,1.38
4122.00,1.38
4121.00,1.38
4120.00,1.38
4119.00,1.38
4118.00,1.38
4117.00,1.38
4116.00,1.39
4115.00,1.39
4114.00,1.39
4113.00,1.39
4112.00,1.39
4111.00,1.39
4110.00,1.39
4109.00,1.40
4108.00,1.40
4107.00,1.40
4106.00,1.40
4105.00,1.40
4104.00,1.40
4103.00,1.41
4102.00,1.41
4101.00,1.41
4100.00,1.41
4099.00,1.41
4098.00,1.41
4097.00,1.41
4096.00,1.41
4095.00,1.41
4094.00,1.41
4093.00,1.41
4092.00,1.42
4091.00,1.42
4090.00,1.42
4089.00,1.42
4088.00,1.42
4087.00,1.42
4086.00,1.42
4085.00,1.42
4084.00,1.43
4083.00,1.43
4082.00,1.43
4081.00,1.43
4080.00,1.43
4079.00,1.43
4078.00,1.43
4077.00,1.43
4076.00,1.43
4075.00,1.43
4074.00,1.43
4073.00,1.43
4072.00,1.43
4071.00,1.43
4070.00,1.43
4069.00,1.43
4068.00,1.43
4067.00,1.43
4066.00,1.43
4065.00,1.43
4064.00,1.43
4063.00,1.44
4062.00,1.44
4061.00,1.44
4060.00,1.44
4059.00,1.44
4058.00,1.44
4057.00,1.44
4056.00,1.44
4055.00,1.44
4054.00,1.45
4053.00,1.45
4052.00,1.45
4051.00,1.45
4050.00,1.45
4049.00,1.45
4048.00,1.45
4047.00,1.45
4046.00,1.45
4045.00,1.45
4044.00,1.45
4043.00,1.45
4042.00,1.45
4041.00,1.45
4040.00,1.45
4039.00,1.45
4038.00,1.45
4037.00,1.45
4036.00,1.45
4035.00,1.45
4034.00,1.45
4033.00,1.45
4032.00,1.45
4031.00,1.45
4030.00,1.45
4029.00,1.45
4028.00,1.45
4027.00,1.45
4026.00,1.45
4025.00,1.45
4024.00,1.45
4023.00,1.45
4022.00,1.45
4021.00,1.45
4020.00,1.45
4019.00,1.45
4018.00,1.45
4017.00,1.45
4016.00,1.45
4015.00,1.45
4014.00,1.45
4013.00,1.45
4012.00,1.45
4011.00,1.46
4010.00,1.46
4009.00,1.46
4008.00,1.46
4007.00,1.46
4006.00,1.46
4005.00,1.47
4004.00,1.47
4003.00,1.47
4002.00,1.47
4001.00,1.48
4000.00,1.48
