创建为新数据集,样品 751 用户 Administrator 日期 星期五, 七月 20 2018
cm-1,%T
10000.00,1.17
9999.00,1.16
9998.00,1.16
9997.00,1.16
9996.00,1.16
9995.00,1.16
9994.00,1.16
9993.00,1.16
9992.00,1.16
9991.00,1.16
9990.00,1.16
9989.00,1.17
9988.00,1.17
9987.00,1.17
9986.00,1.17
9985.00,1.17
9984.00,1.16
9983.00,1.16
9982.00,1.16
9981.00,1.16
9980.00,1.16
9979.00,1.16
9978.00,1.16
9977.00,1.16
9976.00,1.16
9975.00,1.16
9974.00,1.16
9973.00,1.16
9972.00,1.16
9971.00,1.16
9970.00,1.16
9969.00,1.15
9968.00,1.15
9967.00,1.15
9966.00,1.15
9965.00,1.15
9964.00,1.15
9963.00,1.15
9962.00,1.15
9961.00,1.15
9960.00,1.15
9959.00,1.15
9958.00,1.15
9957.00,1.15
9956.00,1.15
9955.00,1.15
9954.00,1.15
9953.00,1.15
9952.00,1.15
9951.00,1.15
9950.00,1.15
9949.00,1.16
9948.00,1.16
9947.00,1.16
9946.00,1.16
9945.00,1.16
9944.00,1.16
9943.00,1.16
9942.00,1.16
9941.00,1.16
9940.00,1.16
9939.00,1.16
9938.00,1.16
9937.00,1.16
9936.00,1.16
9935.00,1.16
9934.00,1.15
9933.00,1.15
9932.00,1.15
9931.00,1.15
9930.00,1.14
9929.00,1.14
9928.00,1.14
9927.00,1.13
9926.00,1.13
9925.00,1.13
9924.00,1.13
9923.00,1.12
9922.00,1.12
9921.00,1.12
9920.00,1.12
9919.00,1.12
9918.00,1.12
9917.00,1.12
9916.00,1.12
9915.00,1.12
9914.00,1.12
9913.00,1.12
9912.00,1.12
9911.00,1.12
9910.00,1.13
9909.00,1.13
9908.00,1.13
9907.00,1.13
9906.00,1.14
9905.00,1.14
9904.00,1.14
9903.00,1.14
9902.00,1.14
9901.00,1.14
9900.00,1.15
9899.00,1.15
9898.00,1.15
9897.00,1.15
9896.00,1.15
9895.00,1.15
9894.00,1.15
9893.00,1.15
9892.00,1.14
9891.00,1.14
9890.00,1.14
9889.00,1.14
9888.00,1.14
9887.00,1.14
9886.00,1.14
9885.00,1.14
9884.00,1.14
9883.00,1.14
9882.00,1.14
9881.00,1.14
9880.00,1.14
9879.00,1.14
9878.00,1.14
9877.00,1.14
9876.00,1.14
9875.00,1.14
9874.00,1.15
9873.00,1.15
9872.00,1.15
9871.00,1.15
9870.00,1.15
9869.00,1.15
9868.00,1.16
9867.00,1.16
9866.00,1.16
9865.00,1.16
9864.00,1.16
9863.00,1.16
9862.00,1.16
9861.00,1.16
9860.00,1.16
9859.00,1.16
9858.00,1.16
9857.00,1.16
9856.00,1.15
9855.00,1.15
9854.00,1.15
9853.00,1.15
9852.00,1.14
9851.00,1.14
9850.00,1.14
9849.00,1.13
9848.00,1.13
9847.00,1.13
9846.00,1.13
9845.00,1.12
9844.00,1.12
9843.00,1.12
9842.00,1.12
9841.00,1.12
9840.00,1.12
9839.00,1.12
9838.00,1.12
9837.00,1.12
9836.00,1.11
9835.00,1.11
9834.00,1.11
9833.00,1.11
9832.00,1.11
9831.00,1.11
9830.00,1.11
9829.00,1.11
9828.00,1.11
9827.00,1.11
9826.00,1.11
9825.00,1.11
9824.00,1.11
9823.00,1.11
9822.00,1.11
9821.00,1.11
9820.00,1.12
9819.00,1.12
9818.00,1.12
9817.00,1.12
9816.00,1.12
9815.00,1.12
9814.00,1.12
9813.00,1.12
9812.00,1.12
9811.00,1.13
9810.00,1.13
9809.00,1.13
9808.00,1.13
9807.00,1.13
9806.00,1.13
9805.00,1.13
9804.00,1.13
9803.00,1.13
9802.00,1.13
9801.00,1.13
9800.00,1.13
9799.00,1.14
9798.00,1.14
9797.00,1.14
9796.00,1.14
9795.00,1.14
9794.00,1.15
9793.00,1.15
9792.00,1.15
9791.00,1.15
9790.00,1.15
9789.00,1.16
9788.00,1.16
9787.00,1.16
9786.00,1.16
9785.00,1.16
9784.00,1.16
9783.00,1.16
9782.00,1.16
9781.00,1.16
9780.00,1.16
9779.00,1.16
9778.00,1.16
9777.00,1.16
9776.00,1.15
9775.00,1.15
9774.00,1.15
9773.00,1.15
9772.00,1.14
9771.00,1.14
9770.00,1.14
9769.00,1.14
9768.00,1.13
9767.00,1.13
9766.00,1.13
9765.00,1.13
9764.00,1.13
9763.00,1.13
9762.00,1.12
9761.00,1.12
9760.00,1.12
9759.00,1.12
9758.00,1.13
9757.00,1.13
9756.00,1.13
9755.00,1.13
9754.00,1.13
9753.00,1.13
9752.00,1.13
9751.00,1.13
9750.00,1.13
9749.00,1.13
9748.00,1.13
9747.00,1.14
9746.00,1.14
9745.00,1.14
9744.00,1.14
9743.00,1.14
9742.00,1.14
9741.00,1.14
9740.00,1.14
9739.00,1.14
9738.00,1.14
9737.00,1.14
9736.00,1.14
9735.00,1.14
9734.00,1.13
9733.00,1.13
9732.00,1.13
9731.00,1.13
9730.00,1.12
9729.00,1.12
9728.00,1.12
9727.00,1.12
9726.00,1.12
9725.00,1.12
9724.00,1.12
9723.00,1.12
9722.00,1.11
9721.00,1.11
9720.00,1.11
9719.00,1.11
9718.00,1.11
9717.00,1.12
9716.00,1.12
9715.00,1.12
9714.00,1.12
9713.00,1.12
9712.00,1.12
9711.00,1.12
9710.00,1.12
9709.00,1.12
9708.00,1.12
9707.00,1.12
9706.00,1.12
9705.00,1.12
9704.00,1.12
9703.00,1.12
9702.00,1.12
9701.00,1.12
9700.00,1.12
9699.00,1.12
9698.00,1.12
9697.00,1.12
9696.00,1.12
9695.00,1.12
9694.00,1.12
9693.00,1.13
9692.00,1.13
9691.00,1.13
9690.00,1.13
9689.00,1.13
9688.00,1.13
9687.00,1.13
9686.00,1.13
9685.00,1.13
9684.00,1.13
9683.00,1.13
9682.00,1.13
9681.00,1.13
9680.00,1.13
9679.00,1.13
9678.00,1.13
9677.00,1.13
9676.00,1.13
9675.00,1.13
9674.00,1.14
9673.00,1.14
9672.00,1.14
9671.00,1.14
9670.00,1.14
9669.00,1.14
9668.00,1.14
9667.00,1.14
9666.00,1.14
9665.00,1.14
9664.00,1.14
9663.00,1.14
9662.00,1.14
9661.00,1.14
9660.00,1.14
9659.00,1.14
9658.00,1.14
9657.00,1.14
9656.00,1.14
9655.00,1.14
9654.00,1.14
9653.00,1.14
9652.00,1.14
9651.00,1.14
9650.00,1.14
9649.00,1.14
9648.00,1.14
9647.00,1.14
9646.00,1.14
9645.00,1.14
9644.00,1.14
9643.00,1.14
9642.00,1.14
9641.00,1.14
9640.00,1.14
9639.00,1.14
9638.00,1.14
9637.00,1.14
9636.00,1.14
9635.00,1.14
9634.00,1.14
9633.00,1.14
9632.00,1.14
9631.00,1.13
9630.00,1.13
9629.00,1.13
9628.00,1.13
9627.00,1.13
9626.00,1.13
9625.00,1.13
9624.00,1.12
9623.00,1.12
9622.00,1.12
9621.00,1.12
9620.00,1.12
9619.00,1.12
9618.00,1.12
9617.00,1.12
9616.00,1.12
9615.00,1.11
9614.00,1.11
9613.00,1.12
9612.00,1.12
9611.00,1.12
9610.00,1.12
9609.00,1.12
9608.00,1.12
9607.00,1.12
9606.00,1.12
9605.00,1.13
9604.00,1.13
9603.00,1.13
9602.00,1.13
9601.00,1.13
9600.00,1.13
9599.00,1.14
9598.00,1.14
9597.00,1.14
9596.00,1.14
9595.00,1.14
9594.00,1.14
9593.00,1.14
9592.00,1.14
9591.00,1.14
9590.00,1.15
9589.00,1.15
9588.00,1.15
9587.00,1.15
9586.00,1.15
9585.00,1.15
9584.00,1.15
9583.00,1.15
9582.00,1.15
9581.00,1.15
9580.00,1.15
9579.00,1.15
9578.00,1.15
9577.00,1.15
9576.00,1.15
9575.00,1.15
9574.00,1.15
9573.00,1.15
9572.00,1.15
9571.00,1.15
9570.00,1.15
9569.00,1.15
9568.00,1.14
9567.00,1.14
9566.00,1.14
9565.00,1.14
9564.00,1.14
9563.00,1.14
9562.00,1.13
9561.00,1.13
9560.00,1.13
9559.00,1.13
9558.00,1.13
9557.00,1.13
9556.00,1.13
9555.00,1.12
9554.00,1.12
9553.00,1.12
9552.00,1.12
9551.00,1.12
9550.00,1.12
9549.00,1.12
9548.00,1.12
9547.00,1.12
9546.00,1.12
9545.00,1.12
9544.00,1.12
9543.00,1.12
9542.00,1.12
9541.00,1.12
9540.00,1.12
9539.00,1.12
9538.00,1.13
9537.00,1.13
9536.00,1.13
9535.00,1.13
9534.00,1.14
9533.00,1.14
9532.00,1.14
9531.00,1.14
9530.00,1.15
9529.00,1.15
9528.00,1.15
9527.00,1.15
9526.00,1.15
9525.00,1.15
9524.00,1.15
9523.00,1.15
9522.00,1.15
9521.00,1.15
9520.00,1.15
9519.00,1.15
9518.00,1.15
9517.00,1.15
9516.00,1.15
9515.00,1.14
9514.00,1.14
9513.00,1.14
9512.00,1.14
9511.00,1.14
9510.00,1.14
9509.00,1.14
9508.00,1.14
9507.00,1.14
9506.00,1.14
9505.00,1.14
9504.00,1.14
9503.00,1.14
9502.00,1.14
9501.00,1.14
9500.00,1.14
9499.00,1.14
9498.00,1.14
9497.00,1.14
9496.00,1.14
9495.00,1.14
9494.00,1.14
9493.00,1.14
9492.00,1.14
9491.00,1.14
9490.00,1.14
9489.00,1.13
9488.00,1.13
9487.00,1.13
9486.00,1.13
9485.00,1.13
9484.00,1.13
9483.00,1.13
9482.00,1.13
9481.00,1.13
9480.00,1.13
9479.00,1.13
9478.00,1.13
9477.00,1.13
9476.00,1.13
9475.00,1.13
9474.00,1.14
9473.00,1.14
9472.00,1.14
9471.00,1.14
9470.00,1.14
9469.00,1.14
9468.00,1.15
9467.00,1.15
9466.00,1.15
9465.00,1.15
9464.00,1.15
9463.00,1.15
9462.00,1.15
9461.00,1.15
9460.00,1.15
9459.00,1.15
9458.00,1.15
9457.00,1.15
9456.00,1.15
9455.00,1.15
9454.00,1.15
9453.00,1.15
9452.00,1.15
9451.00,1.15
9450.00,1.15
9449.00,1.15
9448.00,1.15
9447.00,1.15
9446.00,1.15
9445.00,1.15
9444.00,1.15
9443.00,1.15
9442.00,1.15
9441.00,1.15
9440.00,1.15
9439.00,1.15
9438.00,1.15
9437.00,1.15
9436.00,1.15
9435.00,1.15
9434.00,1.15
9433.00,1.15
9432.00,1.15
9431.00,1.15
9430.00,1.15
9429.00,1.15
9428.00,1.16
9427.00,1.16
9426.00,1.16
9425.00,1.16
9424.00,1.16
9423.00,1.16
9422.00,1.16
9421.00,1.16
9420.00,1.16
9419.00,1.16
9418.00,1.16
9417.00,1.16
9416.00,1.15
9415.00,1.15
9414.00,1.15
9413.00,1.15
9412.00,1.15
9411.00,1.15
9410.00,1.15
9409.00,1.15
9408.00,1.15
9407.00,1.14
9406.00,1.14
9405.00,1.14
9404.00,1.14
9403.00,1.14
9402.00,1.14
9401.00,1.13
9400.00,1.13
9399.00,1.13
9398.00,1.13
9397.00,1.13
9396.00,1.13
9395.00,1.12
9394.00,1.12
9393.00,1.12
9392.00,1.12
9391.00,1.12
9390.00,1.12
9389.00,1.12
9388.00,1.13
9387.00,1.13
9386.00,1.13
9385.00,1.13
9384.00,1.13
9383.00,1.14
9382.00,1.14
9381.00,1.14
9380.00,1.14
9379.00,1.14
9378.00,1.14
9377.00,1.15
9376.00,1.15
9375.00,1.15
9374.00,1.15
9373.00,1.15
9372.00,1.15
9371.00,1.15
9370.00,1.14
9369.00,1.14
9368.00,1.14
9367.00,1.14
9366.00,1.14
9365.00,1.14
9364.00,1.14
9363.00,1.14
9362.00,1.14
9361.00,1.14
9360.00,1.14
9359.00,1.14
9358.00,1.14
9357.00,1.14
9356.00,1.14
9355.00,1.14
9354.00,1.15
9353.00,1.15
9352.00,1.15
9351.00,1.15
9350.00,1.15
9349.00,1.15
9348.00,1.15
9347.00,1.16
9346.00,1.16
9345.00,1.16
9344.00,1.16
9343.00,1.16
9342.00,1.16
9341.00,1.16
9340.00,1.16
9339.00,1.16
9338.00,1.16
9337.00,1.16
9336.00,1.16
9335.00,1.16
9334.00,1.16
9333.00,1.15
9332.00,1.15
9331.00,1.15
9330.00,1.15
9329.00,1.15
9328.00,1.15
9327.00,1.15
9326.00,1.15
9325.00,1.15
9324.00,1.15
9323.00,1.15
9322.00,1.15
9321.00,1.15
9320.00,1.15
9319.00,1.15
9318.00,1.15
9317.00,1.15
9316.00,1.16
9315.00,1.16
9314.00,1.16
9313.00,1.16
9312.00,1.16
9311.00,1.16
9310.00,1.16
9309.00,1.16
9308.00,1.16
9307.00,1.16
9306.00,1.16
9305.00,1.16
9304.00,1.16
9303.00,1.16
9302.00,1.16
9301.00,1.16
9300.00,1.16
9299.00,1.16
9298.00,1.16
9297.00,1.16
9296.00,1.16
9295.00,1.16
9294.00,1.16
9293.00,1.16
9292.00,1.16
9291.00,1.16
9290.00,1.16
9289.00,1.16
9288.00,1.16
9287.00,1.16
9286.00,1.16
9285.00,1.16
9284.00,1.16
9283.00,1.16
9282.00,1.16
9281.00,1.16
9280.00,1.15
9279.00,1.15
9278.00,1.15
9277.00,1.15
9276.00,1.15
9275.00,1.15
9274.00,1.15
9273.00,1.15
9272.00,1.15
9271.00,1.15
9270.00,1.14
9269.00,1.14
9268.00,1.14
9267.00,1.14
9266.00,1.14
9265.00,1.14
9264.00,1.14
9263.00,1.14
9262.00,1.14
9261.00,1.14
9260.00,1.14
9259.00,1.14
9258.00,1.14
9257.00,1.14
9256.00,1.14
9255.00,1.14
9254.00,1.14
9253.00,1.14
9252.00,1.14
9251.00,1.14
9250.00,1.14
9249.00,1.14
9248.00,1.14
9247.00,1.14
9246.00,1.15
9245.00,1.15
9244.00,1.15
9243.00,1.15
9242.00,1.15
9241.00,1.15
9240.00,1.15
9239.00,1.15
9238.00,1.15
9237.00,1.15
9236.00,1.15
9235.00,1.15
9234.00,1.16
9233.00,1.16
9232.00,1.16
9231.00,1.16
9230.00,1.16
9229.00,1.16
9228.00,1.16
9227.00,1.16
9226.00,1.16
9225.00,1.16
9224.00,1.16
9223.00,1.16
9222.00,1.16
9221.00,1.16
9220.00,1.16
9219.00,1.16
9218.00,1.16
9217.00,1.16
9216.00,1.16
9215.00,1.16
9214.00,1.16
9213.00,1.15
9212.00,1.15
9211.00,1.15
9210.00,1.15
9209.00,1.15
9208.00,1.15
9207.00,1.14
9206.00,1.14
9205.00,1.14
9204.00,1.14
9203.00,1.14
9202.00,1.14
9201.00,1.14
9200.00,1.14
9199.00,1.14
9198.00,1.14
9197.00,1.14
9196.00,1.14
9195.00,1.14
9194.00,1.14
9193.00,1.14
9192.00,1.14
9191.00,1.14
9190.00,1.14
9189.00,1.14
9188.00,1.14
9187.00,1.14
9186.00,1.14
9185.00,1.14
9184.00,1.14
9183.00,1.14
9182.00,1.14
9181.00,1.14
9180.00,1.14
9179.00,1.14
9178.00,1.14
9177.00,1.14
9176.00,1.14
9175.00,1.14
9174.00,1.14
9173.00,1.14
9172.00,1.14
9171.00,1.14
9170.00,1.14
9169.00,1.14
9168.00,1.14
9167.00,1.14
9166.00,1.14
9165.00,1.14
9164.00,1.15
9163.00,1.15
9162.00,1.15
9161.00,1.15
9160.00,1.15
9159.00,1.15
9158.00,1.15
9157.00,1.15
9156.00,1.16
9155.00,1.16
9154.00,1.16
9153.00,1.16
9152.00,1.16
9151.00,1.16
9150.00,1.16
9149.00,1.16
9148.00,1.16
9147.00,1.16
9146.00,1.16
9145.00,1.16
9144.00,1.16
9143.00,1.16
9142.00,1.16
9141.00,1.16
9140.00,1.16
9139.00,1.15
9138.00,1.15
9137.00,1.15
9136.00,1.15
9135.00,1.15
9134.00,1.15
9133.00,1.15
9132.00,1.15
9131.00,1.14
9130.00,1.14
9129.00,1.14
9128.00,1.15
9127.00,1.15
9126.00,1.15
9125.00,1.15
9124.00,1.15
9123.00,1.15
9122.00,1.15
9121.00,1.15
9120.00,1.15
9119.00,1.15
9118.00,1.15
9117.00,1.15
9116.00,1.15
9115.00,1.15
9114.00,1.15
9113.00,1.15
9112.00,1.15
9111.00,1.15
9110.00,1.15
9109.00,1.15
9108.00,1.15
9107.00,1.15
9106.00,1.15
9105.00,1.15
9104.00,1.15
9103.00,1.15
9102.00,1.15
9101.00,1.15
9100.00,1.15
9099.00,1.15
9098.00,1.15
9097.00,1.15
9096.00,1.15
9095.00,1.15
9094.00,1.15
9093.00,1.16
9092.00,1.16
9091.00,1.16
9090.00,1.16
9089.00,1.16
9088.00,1.16
9087.00,1.16
9086.00,1.16
9085.00,1.16
9084.00,1.16
9083.00,1.16
9082.00,1.16
9081.00,1.16
9080.00,1.16
9079.00,1.16
9078.00,1.15
9077.00,1.15
9076.00,1.15
9075.00,1.15
9074.00,1.14
9073.00,1.14
9072.00,1.14
9071.00,1.14
9070.00,1.14
9069.00,1.13
9068.00,1.13
9067.00,1.13
9066.00,1.13
9065.00,1.13
9064.00,1.13
9063.00,1.13
9062.00,1.13
9061.00,1.13
9060.00,1.13
9059.00,1.13
9058.00,1.14
9057.00,1.14
9056.00,1.14
9055.00,1.14
9054.00,1.14
9053.00,1.14
9052.00,1.14
9051.00,1.14
9050.00,1.15
9049.00,1.15
9048.00,1.15
9047.00,1.15
9046.00,1.15
9045.00,1.15
9044.00,1.15
9043.00,1.15
9042.00,1.15
9041.00,1.15
9040.00,1.15
9039.00,1.15
9038.00,1.15
9037.00,1.15
9036.00,1.15
9035.00,1.15
9034.00,1.16
9033.00,1.16
9032.00,1.16
9031.00,1.16
9030.00,1.16
9029.00,1.16
9028.00,1.16
9027.00,1.16
9026.00,1.16
9025.00,1.16
9024.00,1.16
9023.00,1.16
9022.00,1.16
9021.00,1.16
9020.00,1.16
9019.00,1.16
9018.00,1.16
9017.00,1.16
9016.00,1.16
9015.00,1.16
9014.00,1.16
9013.00,1.16
9012.00,1.16
9011.00,1.16
9010.00,1.16
9009.00,1.16
9008.00,1.16
9007.00,1.16
9006.00,1.16
9005.00,1.16
9004.00,1.16
9003.00,1.15
9002.00,1.15
9001.00,1.15
9000.00,1.15
8999.00,1.15
8998.00,1.14
8997.00,1.14
8996.00,1.14
8995.00,1.14
8994.00,1.13
8993.00,1.13
8992.00,1.13
8991.00,1.13
8990.00,1.13
8989.00,1.13
8988.00,1.13
8987.00,1.13
8986.00,1.13
8985.00,1.13
8984.00,1.13
8983.00,1.13
8982.00,1.13
8981.00,1.13
8980.00,1.13
8979.00,1.14
8978.00,1.14
8977.00,1.14
8976.00,1.14
8975.00,1.15
8974.00,1.15
8973.00,1.15
8972.00,1.15
8971.00,1.15
8970.00,1.15
8969.00,1.15
8968.00,1.15
8967.00,1.15
8966.00,1.15
8965.00,1.15
8964.00,1.15
8963.00,1.15
8962.00,1.15
8961.00,1.15
8960.00,1.15
8959.00,1.15
8958.00,1.15
8957.00,1.15
8956.00,1.15
8955.00,1.15
8954.00,1.15
8953.00,1.15
8952.00,1.15
8951.00,1.15
8950.00,1.15
8949.00,1.15
8948.00,1.15
8947.00,1.15
8946.00,1.15
8945.00,1.15
8944.00,1.15
8943.00,1.15
8942.00,1.15
8941.00,1.15
8940.00,1.15
8939.00,1.15
8938.00,1.15
8937.00,1.15
8936.00,1.15
8935.00,1.15
8934.00,1.15
8933.00,1.15
8932.00,1.15
8931.00,1.15
8930.00,1.15
8929.00,1.16
8928.00,1.16
8927.00,1.16
8926.00,1.16
8925.00,1.16
8924.00,1.16
8923.00,1.16
8922.00,1.16
8921.00,1.16
8920.00,1.16
8919.00,1.16
8918.00,1.16
8917.00,1.16
8916.00,1.16
8915.00,1.16
8914.00,1.16
8913.00,1.16
8912.00,1.15
8911.00,1.15
8910.00,1.15
8909.00,1.15
8908.00,1.15
8907.00,1.15
8906.00,1.15
8905.00,1.15
8904.00,1.15
8903.00,1.15
8902.00,1.15
8901.00,1.14
8900.00,1.14
8899.00,1.14
8898.00,1.15
8897.00,1.15
8896.00,1.15
8895.00,1.15
8894.00,1.15
8893.00,1.15
8892.00,1.15
8891.00,1.15
8890.00,1.15
8889.00,1.15
8888.00,1.15
8887.00,1.15
8886.00,1.15
8885.00,1.15
8884.00,1.15
8883.00,1.15
8882.00,1.15
8881.00,1.15
8880.00,1.15
8879.00,1.15
8878.00,1.15
8877.00,1.15
8876.00,1.15
8875.00,1.15
8874.00,1.15
8873.00,1.15
8872.00,1.15
8871.00,1.15
8870.00,1.15
8869.00,1.14
8868.00,1.14
8867.00,1.14
8866.00,1.14
8865.00,1.14
8864.00,1.14
8863.00,1.14
8862.00,1.13
8861.00,1.13
8860.00,1.13
8859.00,1.13
8858.00,1.13
8857.00,1.13
8856.00,1.13
8855.00,1.13
8854.00,1.13
8853.00,1.13
8852.00,1.13
8851.00,1.13
8850.00,1.13
8849.00,1.13
8848.00,1.14
8847.00,1.14
8846.00,1.14
8845.00,1.14
8844.00,1.14
8843.00,1.14
8842.00,1.15
8841.00,1.15
8840.00,1.15
8839.00,1.15
8838.00,1.15
8837.00,1.15
8836.00,1.15
8835.00,1.15
8834.00,1.15
8833.00,1.15
8832.00,1.15
8831.00,1.15
8830.00,1.15
8829.00,1.15
8828.00,1.15
8827.00,1.15
8826.00,1.14
8825.00,1.14
8824.00,1.14
8823.00,1.14
8822.00,1.13
8821.00,1.13
8820.00,1.13
8819.00,1.13
8818.00,1.12
8817.00,1.12
8816.00,1.12
8815.00,1.12
8814.00,1.12
8813.00,1.12
8812.00,1.12
8811.00,1.12
8810.00,1.12
8809.00,1.12
8808.00,1.12
8807.00,1.12
8806.00,1.12
8805.00,1.12
8804.00,1.12
8803.00,1.12
8802.00,1.12
8801.00,1.12
8800.00,1.12
8799.00,1.12
8798.00,1.12
8797.00,1.12
8796.00,1.12
8795.00,1.12
8794.00,1.12
8793.00,1.12
8792.00,1.11
8791.00,1.11
8790.00,1.11
8789.00,1.11
8788.00,1.11
8787.00,1.11
8786.00,1.11
8785.00,1.11
8784.00,1.11
8783.00,1.11
8782.00,1.11
8781.00,1.11
8780.00,1.11
8779.00,1.11
8778.00,1.11
8777.00,1.11
8776.00,1.11
8775.00,1.11
8774.00,1.11
8773.00,1.11
8772.00,1.11
8771.00,1.11
8770.00,1.11
8769.00,1.11
8768.00,1.11
8767.00,1.11
8766.00,1.11
8765.00,1.11
8764.00,1.11
8763.00,1.10
8762.00,1.10
8761.00,1.10
8760.00,1.10
8759.00,1.10
8758.00,1.10
8757.00,1.09
8756.00,1.09
8755.00,1.09
8754.00,1.09
8753.00,1.09
8752.00,1.09
8751.00,1.09
8750.00,1.09
8749.00,1.09
8748.00,1.09
8747.00,1.09
8746.00,1.10
8745.00,1.10
8744.00,1.10
8743.00,1.10
8742.00,1.10
8741.00,1.11
8740.00,1.11
8739.00,1.11
8738.00,1.11
8737.00,1.11
8736.00,1.11
8735.00,1.11
8734.00,1.11
8733.00,1.11
8732.00,1.11
8731.00,1.11
8730.00,1.10
8729.00,1.10
8728.00,1.10
8727.00,1.10
8726.00,1.10
8725.00,1.09
8724.00,1.09
8723.00,1.09
8722.00,1.09
8721.00,1.09
8720.00,1.08
8719.00,1.08
8718.00,1.08
8717.00,1.08
8716.00,1.08
8715.00,1.08
8714.00,1.08
8713.00,1.08
8712.00,1.08
8711.00,1.08
8710.00,1.08
8709.00,1.08
8708.00,1.08
8707.00,1.08
8706.00,1.08
8705.00,1.08
8704.00,1.08
8703.00,1.08
8702.00,1.08
8701.00,1.09
8700.00,1.09
8699.00,1.09
8698.00,1.09
8697.00,1.09
8696.00,1.09
8695.00,1.09
8694.00,1.09
8693.00,1.09
8692.00,1.09
8691.00,1.09
8690.00,1.09
8689.00,1.09
8688.00,1.09
8687.00,1.10
8686.00,1.10
8685.00,1.09
8684.00,1.09
8683.00,1.09
8682.00,1.09
8681.00,1.09
8680.00,1.09
8679.00,1.09
8678.00,1.09
8677.00,1.09
8676.00,1.09
8675.00,1.09
8674.00,1.09
8673.00,1.08
8672.00,1.08
8671.00,1.08
8670.00,1.08
8669.00,1.08
8668.00,1.08
8667.00,1.08
8666.00,1.08
8665.00,1.08
8664.00,1.08
8663.00,1.08
8662.00,1.08
8661.00,1.08
8660.00,1.08
8659.00,1.08
8658.00,1.08
8657.00,1.08
8656.00,1.08
8655.00,1.08
8654.00,1.08
8653.00,1.08
8652.00,1.07
8651.00,1.07
8650.00,1.07
8649.00,1.07
8648.00,1.07
8647.00,1.07
8646.00,1.07
8645.00,1.07
8644.00,1.07
8643.00,1.07
8642.00,1.07
8641.00,1.07
8640.00,1.07
8639.00,1.07
8638.00,1.07
8637.00,1.07
8636.00,1.07
8635.00,1.07
8634.00,1.07
8633.00,1.07
8632.00,1.07
8631.00,1.07
8630.00,1.07
8629.00,1.07
8628.00,1.07
8627.00,1.07
8626.00,1.07
8625.00,1.08
8624.00,1.08
8623.00,1.08
8622.00,1.08
8621.00,1.08
8620.00,1.08
8619.00,1.08
8618.00,1.08
8617.00,1.08
8616.00,1.08
8615.00,1.08
8614.00,1.08
8613.00,1.08
8612.00,1.08
8611.00,1.08
8610.00,1.08
8609.00,1.08
8608.00,1.08
8607.00,1.08
8606.00,1.08
8605.00,1.08
8604.00,1.08
8603.00,1.08
8602.00,1.08
8601.00,1.08
8600.00,1.07
8599.00,1.07
8598.00,1.07
8597.00,1.07
8596.00,1.07
8595.00,1.07
8594.00,1.07
8593.00,1.07
8592.00,1.07
8591.00,1.06
8590.00,1.06
8589.00,1.06
8588.00,1.06
8587.00,1.06
8586.00,1.06
8585.00,1.06
8584.00,1.05
8583.00,1.05
8582.00,1.05
8581.00,1.05
8580.00,1.05
8579.00,1.05
8578.00,1.05
8577.00,1.04
8576.00,1.04
8575.00,1.04
8574.00,1.04
8573.00,1.04
8572.00,1.04
8571.00,1.04
8570.00,1.04
8569.00,1.03
8568.00,1.03
8567.00,1.03
8566.00,1.03
8565.00,1.03
8564.00,1.03
8563.00,1.03
8562.00,1.03
8561.00,1.03
8560.00,1.03
8559.00,1.02
8558.00,1.02
8557.00,1.02
8556.00,1.02
8555.00,1.02
8554.00,1.02
8553.00,1.02
8552.00,1.02
8551.00,1.02
8550.00,1.02
8549.00,1.03
8548.00,1.03
8547.00,1.03
8546.00,1.03
8545.00,1.03
8544.00,1.03
8543.00,1.03
8542.00,1.03
8541.00,1.03
8540.00,1.03
8539.00,1.03
8538.00,1.04
8537.00,1.04
8536.00,1.04
8535.00,1.04
8534.00,1.04
8533.00,1.04
8532.00,1.03
8531.00,1.03
8530.00,1.03
8529.00,1.03
8528.00,1.03
8527.00,1.03
8526.00,1.03
8525.00,1.03
8524.00,1.03
8523.00,1.03
8522.00,1.03
8521.00,1.03
8520.00,1.03
8519.00,1.03
8518.00,1.03
8517.00,1.03
8516.00,1.03
8515.00,1.02
8514.00,1.02
8513.00,1.02
8512.00,1.02
8511.00,1.02
8510.00,1.02
8509.00,1.02
8508.00,1.01
8507.00,1.01
8506.00,1.01
8505.00,1.01
8504.00,1.01
8503.00,1.00
8502.00,1.00
8501.00,1.00
8500.00,1.00
8499.00,1.00
8498.00,1.00
8497.00,1.00
8496.00,1.00
8495.00,1.00
8494.00,1.00
8493.00,1.00
8492.00,1.00
8491.00,1.00
8490.00,1.00
8489.00,1.01
8488.00,1.01
8487.00,1.01
8486.00,1.01
8485.00,1.01
8484.00,1.01
8483.00,1.01
8482.00,1.01
8481.00,1.01
8480.00,1.01
8479.00,1.01
8478.00,1.01
8477.00,1.01
8476.00,1.01
8475.00,1.01
8474.00,1.00
8473.00,1.00
8472.00,1.00
8471.00,1.00
8470.00,1.00
8469.00,1.00
8468.00,1.00
8467.00,1.00
8466.00,1.00
8465.00,1.00
8464.00,1.00
8463.00,1.00
8462.00,1.00
8461.00,1.00
8460.00,1.00
8459.00,1.00
8458.00,1.00
8457.00,1.00
8456.00,1.00
8455.00,1.00
8454.00,1.00
8453.00,1.00
8452.00,1.00
8451.00,1.00
8450.00,1.00
8449.00,1.00
8448.00,1.00
8447.00,1.00
8446.00,1.00
8445.00,0.99
8444.00,0.99
8443.00,0.99
8442.00,0.99
8441.00,0.99
8440.00,0.99
8439.00,0.99
8438.00,0.99
8437.00,0.99
8436.00,0.99
8435.00,0.99
8434.00,0.99
8433.00,0.98
8432.00,0.98
8431.00,0.98
8430.00,0.98
8429.00,0.98
8428.00,0.98
8427.00,0.98
8426.00,0.97
8425.00,0.97
8424.00,0.97
8423.00,0.97
8422.00,0.97
8421.00,0.97
8420.00,0.97
8419.00,0.97
8418.00,0.98
8417.00,0.98
8416.00,0.98
8415.00,0.98
8414.00,0.98
8413.00,0.99
8412.00,0.99
8411.00,0.99
8410.00,0.99
8409.00,1.00
8408.00,1.00
8407.00,1.00
8406.00,1.01
8405.00,1.01
8404.00,1.01
8403.00,1.01
8402.00,1.01
8401.00,1.02
8400.00,1.02
8399.00,1.02
8398.00,1.02
8397.00,1.02
8396.00,1.02
8395.00,1.02
8394.00,1.02
8393.00,1.02
8392.00,1.02
8391.00,1.02
8390.00,1.02
8389.00,1.02
8388.00,1.02
8387.00,1.02
8386.00,1.02
8385.00,1.02
8384.00,1.02
8383.00,1.02
8382.00,1.02
8381.00,1.02
8380.00,1.02
8379.00,1.02
8378.00,1.02
8377.00,1.02
8376.00,1.02
8375.00,1.02
8374.00,1.02
8373.00,1.02
8372.00,1.02
8371.00,1.02
8370.00,1.02
8369.00,1.02
8368.00,1.02
8367.00,1.03
8366.00,1.03
8365.00,1.03
8364.00,1.03
8363.00,1.03
8362.00,1.03
8361.00,1.03
8360.00,1.03
8359.00,1.03
8358.00,1.03
8357.00,1.03
8356.00,1.03
8355.00,1.03
8354.00,1.02
8353.00,1.02
8352.00,1.02
8351.00,1.02
8350.00,1.02
8349.00,1.02
8348.00,1.02
8347.00,1.02
8346.00,1.02
8345.00,1.02
8344.00,1.02
8343.00,1.02
8342.00,1.02
8341.00,1.02
8340.00,1.02
8339.00,1.02
8338.00,1.02
8337.00,1.02
8336.00,1.02
8335.00,1.03
8334.00,1.03
8333.00,1.03
8332.00,1.03
8331.00,1.03
8330.00,1.04
8329.00,1.04
8328.00,1.04
8327.00,1.04
8326.00,1.04
8325.00,1.04
8324.00,1.04
8323.00,1.04
8322.00,1.04
8321.00,1.04
8320.00,1.03
8319.00,1.03
8318.00,1.03
8317.00,1.03
8316.00,1.03
8315.00,1.03
8314.00,1.03
8313.00,1.02
8312.00,1.02
8311.00,1.02
8310.00,1.02
8309.00,1.02
8308.00,1.02
8307.00,1.02
8306.00,1.02
8305.00,1.02
8304.00,1.02
8303.00,1.02
8302.00,1.02
8301.00,1.02
8300.00,1.02
8299.00,1.02
8298.00,1.02
8297.00,1.02
8296.00,1.02
8295.00,1.02
8294.00,1.02
8293.00,1.03
8292.00,1.03
8291.00,1.03
8290.00,1.03
8289.00,1.03
8288.00,1.03
8287.00,1.03
8286.00,1.03
8285.00,1.03
8284.00,1.03
8283.00,1.03
8282.00,1.04
8281.00,1.04
8280.00,1.04
8279.00,1.04
8278.00,1.04
8277.00,1.04
8276.00,1.04
8275.00,1.04
8274.00,1.04
8273.00,1.04
8272.00,1.04
8271.00,1.04
8270.00,1.04
8269.00,1.04
8268.00,1.04
8267.00,1.04
8266.00,1.04
8265.00,1.04
8264.00,1.04
8263.00,1.04
8262.00,1.04
8261.00,1.04
8260.00,1.04
8259.00,1.04
8258.00,1.04
8257.00,1.04
8256.00,1.04
8255.00,1.04
8254.00,1.04
8253.00,1.04
8252.00,1.04
8251.00,1.04
8250.00,1.05
8249.00,1.05
8248.00,1.05
8247.00,1.05
8246.00,1.05
8245.00,1.05
8244.00,1.05
8243.00,1.05
8242.00,1.05
8241.00,1.05
8240.00,1.05
8239.00,1.05
8238.00,1.05
8237.00,1.05
8236.00,1.05
8235.00,1.05
8234.00,1.05
8233.00,1.05
8232.00,1.05
8231.00,1.05
8230.00,1.06
8229.00,1.06
8228.00,1.06
8227.00,1.06
8226.00,1.06
8225.00,1.06
8224.00,1.06
8223.00,1.06
8222.00,1.06
8221.00,1.06
8220.00,1.06
8219.00,1.06
8218.00,1.06
8217.00,1.06
8216.00,1.06
8215.00,1.06
8214.00,1.06
8213.00,1.06
8212.00,1.06
8211.00,1.06
8210.00,1.06
8209.00,1.07
8208.00,1.07
8207.00,1.07
8206.00,1.07
8205.00,1.07
8204.00,1.07
8203.00,1.07
8202.00,1.08
8201.00,1.08
8200.00,1.08
8199.00,1.08
8198.00,1.08
8197.00,1.08
8196.00,1.08
8195.00,1.08
8194.00,1.08
8193.00,1.08
8192.00,1.08
8191.00,1.08
8190.00,1.08
8189.00,1.08
8188.00,1.08
8187.00,1.08
8186.00,1.08
8185.00,1.08
8184.00,1.08
8183.00,1.08
8182.00,1.08
8181.00,1.08
8180.00,1.08
8179.00,1.08
8178.00,1.08
8177.00,1.08
8176.00,1.09
8175.00,1.09
8174.00,1.09
8173.00,1.09
8172.00,1.09
8171.00,1.09
8170.00,1.09
8169.00,1.09
8168.00,1.09
8167.00,1.09
8166.00,1.09
8165.00,1.09
8164.00,1.09
8163.00,1.09
8162.00,1.09
8161.00,1.09
8160.00,1.09
8159.00,1.09
8158.00,1.09
8157.00,1.09
8156.00,1.09
8155.00,1.09
8154.00,1.09
8153.00,1.09
8152.00,1.09
8151.00,1.09
8150.00,1.09
8149.00,1.09
8148.00,1.09
8147.00,1.09
8146.00,1.09
8145.00,1.09
8144.00,1.09
8143.00,1.09
8142.00,1.09
8141.00,1.09
8140.00,1.09
8139.00,1.09
8138.00,1.09
8137.00,1.09
8136.00,1.09
8135.00,1.09
8134.00,1.09
8133.00,1.09
8132.00,1.09
8131.00,1.09
8130.00,1.09
8129.00,1.09
8128.00,1.09
8127.00,1.09
8126.00,1.09
8125.00,1.09
8124.00,1.09
8123.00,1.09
8122.00,1.09
8121.00,1.09
8120.00,1.09
8119.00,1.09
8118.00,1.09
8117.00,1.10
8116.00,1.10
8115.00,1.10
8114.00,1.10
8113.00,1.10
8112.00,1.10
8111.00,1.10
8110.00,1.10
8109.00,1.10
8108.00,1.10
8107.00,1.10
8106.00,1.10
8105.00,1.10
8104.00,1.10
8103.00,1.10
8102.00,1.10
8101.00,1.10
8100.00,1.10
8099.00,1.10
8098.00,1.10
8097.00,1.10
8096.00,1.10
8095.00,1.10
8094.00,1.10
8093.00,1.11
8092.00,1.11
8091.00,1.11
8090.00,1.11
8089.00,1.11
8088.00,1.11
8087.00,1.11
8086.00,1.11
8085.00,1.11
8084.00,1.11
8083.00,1.11
8082.00,1.11
8081.00,1.11
8080.00,1.11
8079.00,1.11
8078.00,1.12
8077.00,1.12
8076.00,1.12
8075.00,1.12
8074.00,1.12
8073.00,1.12
8072.00,1.12
8071.00,1.12
8070.00,1.12
8069.00,1.12
8068.00,1.12
8067.00,1.12
8066.00,1.12
8065.00,1.12
8064.00,1.12
8063.00,1.12
8062.00,1.12
8061.00,1.12
8060.00,1.12
8059.00,1.12
8058.00,1.12
8057.00,1.12
8056.00,1.12
8055.00,1.12
8054.00,1.12
8053.00,1.12
8052.00,1.12
8051.00,1.12
8050.00,1.12
8049.00,1.12
8048.00,1.12
8047.00,1.12
8046.00,1.12
8045.00,1.12
8044.00,1.12
8043.00,1.12
8042.00,1.12
8041.00,1.12
8040.00,1.12
8039.00,1.12
8038.00,1.12
8037.00,1.12
8036.00,1.12
8035.00,1.12
8034.00,1.12
8033.00,1.12
8032.00,1.12
8031.00,1.12
8030.00,1.12
8029.00,1.12
8028.00,1.12
8027.00,1.12
8026.00,1.12
8025.00,1.12
8024.00,1.12
8023.00,1.12
8022.00,1.12
8021.00,1.12
8020.00,1.12
8019.00,1.12
8018.00,1.12
8017.00,1.12
8016.00,1.12
8015.00,1.12
8014.00,1.12
8013.00,1.12
8012.00,1.11
8011.00,1.11
8010.00,1.11
8009.00,1.11
8008.00,1.11
8007.00,1.11
8006.00,1.11
8005.00,1.11
8004.00,1.12
8003.00,1.12
8002.00,1.12
8001.00,1.12
8000.00,1.12
7999.00,1.12
7998.00,1.12
7997.00,1.12
7996.00,1.12
7995.00,1.12
7994.00,1.12
7993.00,1.12
7992.00,1.12
7991.00,1.13
7990.00,1.13
7989.00,1.13
7988.00,1.13
7987.00,1.13
7986.00,1.13
7985.00,1.13
7984.00,1.13
7983.00,1.13
7982.00,1.13
7981.00,1.13
7980.00,1.13
7979.00,1.13
7978.00,1.13
7977.00,1.14
7976.00,1.14
7975.00,1.14
7974.00,1.14
7973.00,1.14
7972.00,1.14
7971.00,1.14
7970.00,1.14
7969.00,1.14
7968.00,1.14
7967.00,1.14
7966.00,1.14
7965.00,1.14
7964.00,1.14
7963.00,1.14
7962.00,1.13
7961.00,1.13
7960.00,1.13
7959.00,1.14
7958.00,1.14
7957.00,1.14
7956.00,1.14
7955.00,1.14
7954.00,1.14
7953.00,1.14
7952.00,1.14
7951.00,1.14
7950.00,1.14
7949.00,1.14
7948.00,1.14
7947.00,1.14
7946.00,1.14
7945.00,1.14
7944.00,1.14
7943.00,1.14
7942.00,1.14
7941.00,1.14
7940.00,1.14
7939.00,1.14
7938.00,1.14
7937.00,1.14
7936.00,1.14
7935.00,1.14
7934.00,1.14
7933.00,1.14
7932.00,1.14
7931.00,1.14
7930.00,1.14
7929.00,1.14
7928.00,1.14
7927.00,1.14
7926.00,1.14
7925.00,1.14
7924.00,1.14
7923.00,1.14
7922.00,1.14
7921.00,1.14
7920.00,1.14
7919.00,1.14
7918.00,1.14
7917.00,1.14
7916.00,1.14
7915.00,1.14
7914.00,1.14
7913.00,1.14
7912.00,1.14
7911.00,1.14
7910.00,1.14
7909.00,1.14
7908.00,1.14
7907.00,1.14
7906.00,1.14
7905.00,1.14
7904.00,1.14
7903.00,1.14
7902.00,1.14
7901.00,1.14
7900.00,1.14
7899.00,1.14
7898.00,1.14
7897.00,1.14
7896.00,1.14
7895.00,1.14
7894.00,1.14
7893.00,1.14
7892.00,1.14
7891.00,1.14
7890.00,1.14
7889.00,1.14
7888.00,1.14
7887.00,1.14
7886.00,1.14
7885.00,1.14
7884.00,1.14
7883.00,1.15
7882.00,1.15
7881.00,1.15
7880.00,1.15
7879.00,1.15
7878.00,1.15
7877.00,1.15
7876.00,1.15
7875.00,1.15
7874.00,1.15
7873.00,1.15
7872.00,1.15
7871.00,1.15
7870.00,1.15
7869.00,1.15
7868.00,1.15
7867.00,1.15
7866.00,1.15
7865.00,1.15
7864.00,1.15
7863.00,1.15
7862.00,1.15
7861.00,1.15
7860.00,1.15
7859.00,1.15
7858.00,1.15
7857.00,1.15
7856.00,1.15
7855.00,1.15
7854.00,1.15
7853.00,1.15
7852.00,1.15
7851.00,1.15
7850.00,1.15
7849.00,1.15
7848.00,1.16
7847.00,1.16
7846.00,1.16
7845.00,1.16
7844.00,1.16
7843.00,1.16
7842.00,1.16
7841.00,1.16
7840.00,1.16
7839.00,1.16
7838.00,1.16
7837.00,1.16
7836.00,1.16
7835.00,1.16
7834.00,1.16
7833.00,1.16
7832.00,1.16
7831.00,1.15
7830.00,1.15
7829.00,1.16
7828.00,1.16
7827.00,1.16
7826.00,1.16
7825.00,1.16
7824.00,1.16
7823.00,1.16
7822.00,1.16
7821.00,1.16
7820.00,1.16
7819.00,1.16
7818.00,1.16
7817.00,1.16
7816.00,1.16
7815.00,1.16
7814.00,1.16
7813.00,1.16
7812.00,1.16
7811.00,1.16
7810.00,1.16
7809.00,1.16
7808.00,1.16
7807.00,1.16
7806.00,1.16
7805.00,1.16
7804.00,1.16
7803.00,1.16
7802.00,1.16
7801.00,1.16
7800.00,1.16
7799.00,1.16
7798.00,1.16
7797.00,1.16
7796.00,1.16
7795.00,1.16
7794.00,1.16
7793.00,1.16
7792.00,1.16
7791.00,1.16
7790.00,1.16
7789.00,1.16
7788.00,1.16
7787.00,1.16
7786.00,1.16
7785.00,1.16
7784.00,1.16
7783.00,1.16
7782.00,1.16
7781.00,1.16
7780.00,1.16
7779.00,1.16
7778.00,1.16
7777.00,1.16
7776.00,1.16
7775.00,1.16
7774.00,1.16
7773.00,1.16
7772.00,1.16
7771.00,1.16
7770.00,1.16
7769.00,1.16
7768.00,1.16
7767.00,1.16
7766.00,1.16
7765.00,1.16
7764.00,1.16
7763.00,1.16
7762.00,1.16
7761.00,1.16
7760.00,1.16
7759.00,1.16
7758.00,1.16
7757.00,1.16
7756.00,1.16
7755.00,1.16
7754.00,1.16
7753.00,1.16
7752.00,1.16
7751.00,1.16
7750.00,1.16
7749.00,1.16
7748.00,1.16
7747.00,1.16
7746.00,1.16
7745.00,1.16
7744.00,1.16
7743.00,1.16
7742.00,1.16
7741.00,1.16
7740.00,1.16
7739.00,1.16
7738.00,1.16
7737.00,1.16
7736.00,1.16
7735.00,1.16
7734.00,1.16
7733.00,1.16
7732.00,1.16
7731.00,1.16
7730.00,1.16
7729.00,1.16
7728.00,1.16
7727.00,1.16
7726.00,1.15
7725.00,1.15
7724.00,1.15
7723.00,1.15
7722.00,1.15
7721.00,1.15
7720.00,1.15
7719.00,1.15
7718.00,1.15
7717.00,1.15
7716.00,1.15
7715.00,1.15
7714.00,1.15
7713.00,1.15
7712.00,1.15
7711.00,1.15
7710.00,1.15
7709.00,1.15
7708.00,1.15
7707.00,1.15
7706.00,1.15
7705.00,1.15
7704.00,1.15
7703.00,1.16
7702.00,1.16
7701.00,1.16
7700.00,1.16
7699.00,1.16
7698.00,1.16
7697.00,1.16
7696.00,1.16
7695.00,1.16
7694.00,1.16
7693.00,1.16
7692.00,1.16
7691.00,1.16
7690.00,1.16
7689.00,1.16
7688.00,1.16
7687.00,1.16
7686.00,1.16
7685.00,1.16
7684.00,1.16
7683.00,1.16
7682.00,1.16
7681.00,1.16
7680.00,1.16
7679.00,1.16
7678.00,1.16
7677.00,1.16
7676.00,1.16
7675.00,1.16
7674.00,1.16
7673.00,1.16
7672.00,1.16
7671.00,1.16
7670.00,1.16
7669.00,1.16
7668.00,1.16
7667.00,1.16
7666.00,1.16
7665.00,1.16
7664.00,1.16
7663.00,1.16
7662.00,1.16
7661.00,1.16
7660.00,1.16
7659.00,1.16
7658.00,1.16
7657.00,1.16
7656.00,1.16
7655.00,1.16
7654.00,1.16
7653.00,1.16
7652.00,1.16
7651.00,1.16
7650.00,1.16
7649.00,1.16
7648.00,1.16
7647.00,1.16
7646.00,1.16
7645.00,1.16
7644.00,1.16
7643.00,1.16
7642.00,1.16
7641.00,1.16
7640.00,1.16
7639.00,1.16
7638.00,1.16
7637.00,1.16
7636.00,1.16
7635.00,1.16
7634.00,1.16
7633.00,1.16
7632.00,1.16
7631.00,1.16
7630.00,1.16
7629.00,1.16
7628.00,1.16
7627.00,1.16
7626.00,1.16
7625.00,1.16
7624.00,1.16
7623.00,1.16
7622.00,1.16
7621.00,1.16
7620.00,1.16
7619.00,1.16
7618.00,1.16
7617.00,1.16
7616.00,1.16
7615.00,1.16
7614.00,1.16
7613.00,1.17
7612.00,1.17
7611.00,1.17
7610.00,1.17
7609.00,1.17
7608.00,1.17
7607.00,1.17
7606.00,1.17
7605.00,1.17
7604.00,1.17
7603.00,1.17
7602.00,1.16
7601.00,1.16
7600.00,1.16
7599.00,1.16
7598.00,1.16
7597.00,1.16
7596.00,1.16
7595.00,1.16
7594.00,1.16
7593.00,1.16
7592.00,1.16
7591.00,1.16
7590.00,1.16
7589.00,1.16
7588.00,1.16
7587.00,1.15
7586.00,1.15
7585.00,1.15
7584.00,1.15
7583.00,1.15
7582.00,1.15
7581.00,1.15
7580.00,1.15
7579.00,1.15
7578.00,1.15
7577.00,1.15
7576.00,1.15
7575.00,1.15
7574.00,1.15
7573.00,1.15
7572.00,1.15
7571.00,1.15
7570.00,1.15
7569.00,1.15
7568.00,1.15
7567.00,1.15
7566.00,1.15
7565.00,1.15
7564.00,1.15
7563.00,1.15
7562.00,1.15
7561.00,1.15
7560.00,1.15
7559.00,1.15
7558.00,1.15
7557.00,1.15
7556.00,1.15
7555.00,1.15
7554.00,1.15
7553.00,1.15
7552.00,1.15
7551.00,1.15
7550.00,1.15
7549.00,1.15
7548.00,1.15
7547.00,1.15
7546.00,1.15
7545.00,1.15
7544.00,1.14
7543.00,1.14
7542.00,1.14
7541.00,1.14
7540.00,1.14
7539.00,1.14
7538.00,1.14
7537.00,1.14
7536.00,1.14
7535.00,1.14
7534.00,1.14
7533.00,1.14
7532.00,1.15
7531.00,1.15
7530.00,1.15
7529.00,1.15
7528.00,1.15
7527.00,1.15
7526.00,1.15
7525.00,1.15
7524.00,1.15
7523.00,1.15
7522.00,1.15
7521.00,1.15
7520.00,1.15
7519.00,1.15
7518.00,1.15
7517.00,1.15
7516.00,1.15
7515.00,1.15
7514.00,1.15
7513.00,1.15
7512.00,1.15
7511.00,1.15
7510.00,1.15
7509.00,1.15
7508.00,1.14
7507.00,1.14
7506.00,1.14
7505.00,1.14
7504.00,1.14
7503.00,1.14
7502.00,1.14
7501.00,1.14
7500.00,1.13
7499.00,1.13
7498.00,1.13
7497.00,1.13
7496.00,1.13
7495.00,1.12
7494.00,1.12
7493.00,1.12
7492.00,1.12
7491.00,1.12
7490.00,1.11
7489.00,1.11
7488.00,1.11
7487.00,1.11
7486.00,1.11
7485.00,1.11
7484.00,1.11
7483.00,1.11
7482.00,1.11
7481.00,1.11
7480.00,1.11
7479.00,1.11
7478.00,1.11
7477.00,1.11
7476.00,1.11
7475.00,1.11
7474.00,1.11
7473.00,1.11
7472.00,1.11
7471.00,1.11
7470.00,1.11
7469.00,1.11
7468.00,1.11
7467.00,1.11
7466.00,1.11
7465.00,1.11
7464.00,1.11
7463.00,1.11
7462.00,1.10
7461.00,1.10
7460.00,1.10
7459.00,1.10
7458.00,1.10
7457.00,1.10
7456.00,1.10
7455.00,1.10
7454.00,1.10
7453.00,1.10
7452.00,1.10
7451.00,1.10
7450.00,1.10
7449.00,1.10
7448.00,1.10
7447.00,1.10
7446.00,1.10
7445.00,1.10
7444.00,1.10
7443.00,1.10
7442.00,1.09
7441.00,1.09
7440.00,1.09
7439.00,1.09
7438.00,1.09
7437.00,1.09
7436.00,1.09
7435.00,1.09
7434.00,1.09
7433.00,1.09
7432.00,1.09
7431.00,1.09
7430.00,1.09
7429.00,1.09
7428.00,1.08
7427.00,1.08
7426.00,1.08
7425.00,1.08
7424.00,1.08
7423.00,1.08
7422.00,1.08
7421.00,1.08
7420.00,1.08
7419.00,1.08
7418.00,1.08
7417.00,1.08
7416.00,1.08
7415.00,1.08
7414.00,1.08
7413.00,1.08
7412.00,1.08
7411.00,1.08
7410.00,1.08
7409.00,1.07
7408.00,1.07
7407.00,1.07
7406.00,1.07
7405.00,1.07
7404.00,1.07
7403.00,1.06
7402.00,1.06
7401.00,1.06
7400.00,1.06
7399.00,1.06
7398.00,1.06
7397.00,1.05
7396.00,1.05
7395.00,1.05
7394.00,1.05
7393.00,1.05
7392.00,1.05
7391.00,1.05
7390.00,1.04
7389.00,1.04
7388.00,1.04
7387.00,1.04
7386.00,1.04
7385.00,1.04
7384.00,1.04
7383.00,1.04
7382.00,1.04
7381.00,1.04
7380.00,1.04
7379.00,1.04
7378.00,1.04
7377.00,1.03
7376.00,1.03
7375.00,1.03
7374.00,1.03
7373.00,1.03
7372.00,1.04
7371.00,1.04
7370.00,1.04
7369.00,1.04
7368.00,1.04
7367.00,1.04
7366.00,1.04
7365.00,1.04
7364.00,1.04
7363.00,1.04
7362.00,1.04
7361.00,1.03
7360.00,1.03
7359.00,1.03
7358.00,1.03
7357.00,1.03
7356.00,1.03
7355.00,1.03
7354.00,1.03
7353.00,1.03
7352.00,1.03
7351.00,1.03
7350.00,1.02
7349.00,1.02
7348.00,1.02
7347.00,1.02
7346.00,1.02
7345.00,1.02
7344.00,1.02
7343.00,1.02
7342.00,1.02
7341.00,1.02
7340.00,1.02
7339.00,1.02
7338.00,1.02
7337.00,1.02
7336.00,1.02
7335.00,1.02
7334.00,1.02
7333.00,1.02
7332.00,1.02
7331.00,1.02
7330.00,1.01
7329.00,1.01
7328.00,1.01
7327.00,1.01
7326.00,1.01
7325.00,1.01
7324.00,1.01
7323.00,1.01
7322.00,1.01
7321.00,1.01
7320.00,1.01
7319.00,1.01
7318.00,1.01
7317.00,1.01
7316.00,1.01
7315.00,1.01
7314.00,1.01
7313.00,1.01
7312.00,1.01
7311.00,1.01
7310.00,1.01
7309.00,1.01
7308.00,1.01
7307.00,1.00
7306.00,1.00
7305.00,1.00
7304.00,1.00
7303.00,1.00
7302.00,1.00
7301.00,1.00
7300.00,1.00
7299.00,1.00
7298.00,1.00
7297.00,1.00
7296.00,0.99
7295.00,0.99
7294.00,0.99
7293.00,0.99
7292.00,0.99
7291.00,0.99
7290.00,0.99
7289.00,0.99
7288.00,0.98
7287.00,0.98
7286.00,0.98
7285.00,0.98
7284.00,0.98
7283.00,0.98
7282.00,0.98
7281.00,0.97
7280.00,0.97
7279.00,0.97
7278.00,0.97
7277.00,0.97
7276.00,0.97
7275.00,0.97
7274.00,0.97
7273.00,0.97
7272.00,0.97
7271.00,0.96
7270.00,0.96
7269.00,0.96
7268.00,0.96
7267.00,0.96
7266.00,0.96
7265.00,0.96
7264.00,0.96
7263.00,0.96
7262.00,0.96
7261.00,0.96
7260.00,0.96
7259.00,0.96
7258.00,0.95
7257.00,0.95
7256.00,0.95
7255.00,0.95
7254.00,0.95
7253.00,0.94
7252.00,0.94
7251.00,0.94
7250.00,0.94
7249.00,0.93
7248.00,0.93
7247.00,0.93
7246.00,0.93
7245.00,0.92
7244.00,0.92
7243.00,0.92
7242.00,0.91
7241.00,0.91
7240.00,0.91
7239.00,0.90
7238.00,0.90
7237.00,0.90
7236.00,0.89
7235.00,0.89
7234.00,0.89
7233.00,0.88
7232.00,0.88
7231.00,0.88
7230.00,0.88
7229.00,0.87
7228.00,0.87
7227.00,0.87
7226.00,0.86
7225.00,0.86
7224.00,0.86
7223.00,0.85
7222.00,0.85
7221.00,0.85
7220.00,0.85
7219.00,0.84
7218.00,0.84
7217.00,0.84
7216.00,0.83
7215.00,0.83
7214.00,0.83
7213.00,0.82
7212.00,0.82
7211.00,0.82
7210.00,0.81
7209.00,0.81
7208.00,0.81
7207.00,0.80
7206.00,0.80
7205.00,0.80
7204.00,0.80
7203.00,0.79
7202.00,0.79
7201.00,0.79
7200.00,0.79
7199.00,0.78
7198.00,0.78
7197.00,0.78
7196.00,0.78
7195.00,0.77
7194.00,0.77
7193.00,0.77
7192.00,0.77
7191.00,0.76
7190.00,0.76
7189.00,0.76
7188.00,0.76
7187.00,0.75
7186.00,0.75
7185.00,0.75
7184.00,0.75
7183.00,0.74
7182.00,0.74
7181.00,0.74
7180.00,0.74
7179.00,0.74
7178.00,0.73
7177.00,0.73
7176.00,0.73
7175.00,0.72
7174.00,0.72
7173.00,0.72
7172.00,0.72
7171.00,0.71
7170.00,0.71
7169.00,0.71
7168.00,0.71
7167.00,0.70
7166.00,0.70
7165.00,0.70
7164.00,0.69
7163.00,0.69
7162.00,0.69
7161.00,0.69
7160.00,0.68
7159.00,0.68
7158.00,0.68
7157.00,0.68
7156.00,0.68
7155.00,0.67
7154.00,0.67
7153.00,0.67
7152.00,0.67
7151.00,0.67
7150.00,0.66
7149.00,0.66
7148.00,0.66
7147.00,0.66
7146.00,0.66
7145.00,0.66
7144.00,0.66
7143.00,0.65
7142.00,0.65
7141.00,0.65
7140.00,0.65
7139.00,0.65
7138.00,0.64
7137.00,0.64
7136.00,0.64
7135.00,0.64
7134.00,0.64
7133.00,0.63
7132.00,0.63
7131.00,0.63
7130.00,0.63
7129.00,0.63
7128.00,0.62
7127.00,0.62
7126.00,0.62
7125.00,0.62
7124.00,0.62
7123.00,0.61
7122.00,0.61
7121.00,0.61
7120.00,0.61
7119.00,0.61
7118.00,0.61
7117.00,0.60
7116.00,0.60
7115.00,0.60
7114.00,0.60
7113.00,0.60
7112.00,0.60
7111.00,0.59
7110.00,0.59
7109.00,0.59
7108.00,0.59
7107.00,0.59
7106.00,0.59
7105.00,0.58
7104.00,0.58
7103.00,0.58
7102.00,0.58
7101.00,0.58
7100.00,0.57
7099.00,0.57
7098.00,0.57
7097.00,0.57
7096.00,0.57
7095.00,0.57
7094.00,0.56
7093.00,0.56
7092.00,0.56
7091.00,0.56
7090.00,0.56
7089.00,0.56
7088.00,0.56
7087.00,0.56
7086.00,0.56
7085.00,0.56
7084.00,0.56
7083.00,0.56
7082.00,0.56
7081.00,0.56
7080.00,0.56
7079.00,0.56
7078.00,0.56
7077.00,0.55
7076.00,0.55
7075.00,0.55
7074.00,0.55
7073.00,0.55
7072.00,0.55
7071.00,0.55
7070.00,0.55
7069.00,0.55
7068.00,0.55
7067.00,0.54
7066.00,0.54
7065.00,0.54
7064.00,0.54
7063.00,0.54
7062.00,0.54
7061.00,0.54
7060.00,0.54
7059.00,0.54
7058.00,0.54
7057.00,0.54
7056.00,0.54
7055.00,0.54
7054.00,0.54
7053.00,0.54
7052.00,0.54
7051.00,0.54
7050.00,0.54
7049.00,0.54
7048.00,0.54
7047.00,0.54
7046.00,0.54
7045.00,0.54
7044.00,0.54
7043.00,0.54
7042.00,0.54
7041.00,0.54
7040.00,0.54
7039.00,0.54
7038.00,0.53
7037.00,0.53
7036.00,0.53
7035.00,0.53
7034.00,0.53
7033.00,0.53
7032.00,0.53
7031.00,0.53
7030.00,0.53
7029.00,0.53
7028.00,0.53
7027.00,0.53
7026.00,0.53
7025.00,0.53
7024.00,0.53
7023.00,0.53
7022.00,0.52
7021.00,0.52
7020.00,0.52
7019.00,0.52
7018.00,0.52
7017.00,0.52
7016.00,0.52
7015.00,0.52
7014.00,0.52
7013.00,0.52
7012.00,0.52
7011.00,0.52
7010.00,0.52
7009.00,0.52
7008.00,0.52
7007.00,0.52
7006.00,0.52
7005.00,0.52
7004.00,0.52
7003.00,0.52
7002.00,0.52
7001.00,0.52
7000.00,0.52
6999.00,0.52
6998.00,0.52
6997.00,0.52
6996.00,0.52
6995.00,0.52
6994.00,0.52
6993.00,0.52
6992.00,0.52
6991.00,0.52
6990.00,0.52
6989.00,0.51
6988.00,0.51
6987.00,0.51
6986.00,0.51
6985.00,0.51
6984.00,0.51
6983.00,0.52
6982.00,0.52
6981.00,0.52
6980.00,0.52
6979.00,0.52
6978.00,0.52
6977.00,0.52
6976.00,0.52
6975.00,0.52
6974.00,0.52
6973.00,0.52
6972.00,0.52
6971.00,0.52
6970.00,0.52
6969.00,0.52
6968.00,0.52
6967.00,0.52
6966.00,0.52
6965.00,0.52
6964.00,0.52
6963.00,0.52
6962.00,0.51
6961.00,0.51
6960.00,0.51
6959.00,0.51
6958.00,0.51
6957.00,0.51
6956.00,0.51
6955.00,0.51
6954.00,0.51
6953.00,0.51
6952.00,0.51
6951.00,0.51
6950.00,0.51
6949.00,0.51
6948.00,0.51
6947.00,0.51
6946.00,0.51
6945.00,0.51
6944.00,0.51
6943.00,0.51
6942.00,0.51
6941.00,0.51
6940.00,0.51
6939.00,0.51
6938.00,0.51
6937.00,0.51
6936.00,0.51
6935.00,0.51
6934.00,0.51
6933.00,0.51
6932.00,0.51
6931.00,0.51
6930.00,0.51
6929.00,0.51
6928.00,0.51
6927.00,0.51
6926.00,0.51
6925.00,0.51
6924.00,0.51
6923.00,0.51
6922.00,0.51
6921.00,0.51
6920.00,0.51
6919.00,0.51
6918.00,0.51
6917.00,0.51
6916.00,0.51
6915.00,0.51
6914.00,0.51
6913.00,0.51
6912.00,0.51
6911.00,0.51
6910.00,0.51
6909.00,0.51
6908.00,0.51
6907.00,0.51
6906.00,0.51
6905.00,0.51
6904.00,0.51
6903.00,0.51
6902.00,0.51
6901.00,0.51
6900.00,0.51
6899.00,0.51
6898.00,0.51
6897.00,0.51
6896.00,0.51
6895.00,0.51
6894.00,0.51
6893.00,0.51
6892.00,0.51
6891.00,0.51
6890.00,0.51
6889.00,0.51
6888.00,0.51
6887.00,0.51
6886.00,0.51
6885.00,0.51
6884.00,0.51
6883.00,0.51
6882.00,0.51
6881.00,0.51
6880.00,0.51
6879.00,0.52
6878.00,0.52
6877.00,0.52
6876.00,0.52
6875.00,0.52
6874.00,0.52
6873.00,0.52
6872.00,0.52
6871.00,0.52
6870.00,0.52
6869.00,0.52
6868.00,0.52
6867.00,0.52
6866.00,0.52
6865.00,0.52
6864.00,0.52
6863.00,0.52
6862.00,0.52
6861.00,0.52
6860.00,0.52
6859.00,0.52
6858.00,0.53
6857.00,0.53
6856.00,0.53
6855.00,0.53
6854.00,0.53
6853.00,0.53
6852.00,0.53
6851.00,0.53
6850.00,0.53
6849.00,0.53
6848.00,0.53
6847.00,0.53
6846.00,0.53
6845.00,0.53
6844.00,0.53
6843.00,0.53
6842.00,0.53
6841.00,0.53
6840.00,0.53
6839.00,0.53
6838.00,0.53
6837.00,0.53
6836.00,0.53
6835.00,0.53
6834.00,0.53
6833.00,0.53
6832.00,0.53
6831.00,0.53
6830.00,0.53
6829.00,0.53
6828.00,0.53
6827.00,0.53
6826.00,0.53
6825.00,0.53
6824.00,0.53
6823.00,0.53
6822.00,0.53
6821.00,0.53
6820.00,0.53
6819.00,0.53
6818.00,0.53
6817.00,0.53
6816.00,0.53
6815.00,0.53
6814.00,0.53
6813.00,0.53
6812.00,0.53
6811.00,0.53
6810.00,0.53
6809.00,0.53
6808.00,0.53
6807.00,0.53
6806.00,0.53
6805.00,0.53
6804.00,0.53
6803.00,0.53
6802.00,0.53
6801.00,0.53
6800.00,0.53
6799.00,0.53
6798.00,0.53
6797.00,0.53
6796.00,0.53
6795.00,0.53
6794.00,0.53
6793.00,0.53
6792.00,0.53
6791.00,0.53
6790.00,0.53
6789.00,0.53
6788.00,0.53
6787.00,0.53
6786.00,0.53
6785.00,0.53
6784.00,0.53
6783.00,0.53
6782.00,0.53
6781.00,0.53
6780.00,0.53
6779.00,0.53
6778.00,0.53
6777.00,0.53
6776.00,0.53
6775.00,0.53
6774.00,0.53
6773.00,0.53
6772.00,0.53
6771.00,0.53
6770.00,0.54
6769.00,0.54
6768.00,0.54
6767.00,0.54
6766.00,0.54
6765.00,0.54
6764.00,0.54
6763.00,0.54
6762.00,0.54
6761.00,0.54
6760.00,0.54
6759.00,0.54
6758.00,0.54
6757.00,0.54
6756.00,0.54
6755.00,0.54
6754.00,0.55
6753.00,0.55
6752.00,0.55
6751.00,0.55
6750.00,0.55
6749.00,0.55
6748.00,0.55
6747.00,0.55
6746.00,0.55
6745.00,0.55
6744.00,0.55
6743.00,0.55
6742.00,0.55
6741.00,0.55
6740.00,0.55
6739.00,0.55
6738.00,0.55
6737.00,0.55
6736.00,0.55
6735.00,0.55
6734.00,0.55
6733.00,0.55
6732.00,0.55
6731.00,0.55
6730.00,0.55
6729.00,0.55
6728.00,0.55
6727.00,0.55
6726.00,0.55
6725.00,0.55
6724.00,0.55
6723.00,0.55
6722.00,0.55
6721.00,0.55
6720.00,0.56
6719.00,0.56
6718.00,0.56
6717.00,0.56
6716.00,0.56
6715.00,0.56
6714.00,0.56
6713.00,0.56
6712.00,0.56
6711.00,0.56
6710.00,0.56
6709.00,0.56
6708.00,0.56
6707.00,0.56
6706.00,0.56
6705.00,0.56
6704.00,0.56
6703.00,0.56
6702.00,0.56
6701.00,0.56
6700.00,0.56
6699.00,0.56
6698.00,0.56
6697.00,0.57
6696.00,0.57
6695.00,0.57
6694.00,0.57
6693.00,0.57
6692.00,0.57
6691.00,0.57
6690.00,0.57
6689.00,0.57
6688.00,0.57
6687.00,0.57
6686.00,0.57
6685.00,0.57
6684.00,0.57
6683.00,0.57
6682.00,0.57
6681.00,0.57
6680.00,0.57
6679.00,0.57
6678.00,0.57
6677.00,0.57
6676.00,0.57
6675.00,0.57
6674.00,0.57
6673.00,0.57
6672.00,0.57
6671.00,0.57
6670.00,0.58
6669.00,0.58
6668.00,0.58
6667.00,0.58
6666.00,0.58
6665.00,0.58
6664.00,0.58
6663.00,0.58
6662.00,0.59
6661.00,0.59
6660.00,0.59
6659.00,0.59
6658.00,0.59
6657.00,0.59
6656.00,0.59
6655.00,0.59
6654.00,0.59
6653.00,0.59
6652.00,0.59
6651.00,0.59
6650.00,0.59
6649.00,0.59
6648.00,0.59
6647.00,0.59
6646.00,0.59
6645.00,0.59
6644.00,0.60
6643.00,0.60
6642.00,0.60
6641.00,0.60
6640.00,0.60
6639.00,0.60
6638.00,0.60
6637.00,0.60
6636.00,0.60
6635.00,0.60
6634.00,0.60
6633.00,0.60
6632.00,0.60
6631.00,0.60
6630.00,0.60
6629.00,0.60
6628.00,0.60
6627.00,0.60
6626.00,0.60
6625.00,0.60
6624.00,0.60
6623.00,0.60
6622.00,0.60
6621.00,0.60
6620.00,0.60
6619.00,0.60
6618.00,0.60
6617.00,0.60
6616.00,0.60
6615.00,0.60
6614.00,0.60
6613.00,0.60
6612.00,0.60
6611.00,0.60
6610.00,0.60
6609.00,0.61
6608.00,0.61
6607.00,0.61
6606.00,0.61
6605.00,0.61
6604.00,0.61
6603.00,0.62
6602.00,0.62
6601.00,0.62
6600.00,0.62
6599.00,0.62
6598.00,0.62
6597.00,0.62
6596.00,0.62
6595.00,0.62
6594.00,0.63
6593.00,0.63
6592.00,0.63
6591.00,0.63
6590.00,0.63
6589.00,0.63
6588.00,0.63
6587.00,0.63
6586.00,0.63
6585.00,0.63
6584.00,0.63
6583.00,0.63
6582.00,0.63
6581.00,0.63
6580.00,0.63
6579.00,0.63
6578.00,0.63
6577.00,0.63
6576.00,0.63
6575.00,0.64
6574.00,0.64
6573.00,0.64
6572.00,0.64
6571.00,0.64
6570.00,0.64
6569.00,0.64
6568.00,0.64
6567.00,0.64
6566.00,0.64
6565.00,0.64
6564.00,0.64
6563.00,0.65
6562.00,0.65
6561.00,0.65
6560.00,0.65
6559.00,0.65
6558.00,0.65
6557.00,0.65
6556.00,0.65
6555.00,0.65
6554.00,0.65
6553.00,0.65
6552.00,0.65
6551.00,0.66
6550.00,0.66
6549.00,0.66
6548.00,0.66
6547.00,0.66
6546.00,0.66
6545.00,0.66
6544.00,0.66
6543.00,0.66
6542.00,0.66
6541.00,0.66
6540.00,0.66
6539.00,0.66
6538.00,0.66
6537.00,0.67
6536.00,0.67
6535.00,0.67
6534.00,0.67
6533.00,0.67
6532.00,0.67
6531.00,0.67
6530.00,0.67
6529.00,0.67
6528.00,0.67
6527.00,0.67
6526.00,0.67
6525.00,0.67
6524.00,0.67
6523.00,0.67
6522.00,0.67
6521.00,0.67
6520.00,0.67
6519.00,0.68
6518.00,0.68
6517.00,0.68
6516.00,0.68
6515.00,0.68
6514.00,0.68
6513.00,0.68
6512.00,0.68
6511.00,0.68
6510.00,0.68
6509.00,0.68
6508.00,0.68
6507.00,0.68
6506.00,0.68
6505.00,0.68
6504.00,0.68
6503.00,0.68
6502.00,0.68
6501.00,0.68
6500.00,0.68
6499.00,0.69
6498.00,0.69
6497.00,0.69
6496.00,0.69
6495.00,0.69
6494.00,0.69
6493.00,0.69
6492.00,0.69
6491.00,0.69
6490.00,0.69
6489.00,0.69
6488.00,0.69
6487.00,0.69
6486.00,0.69
6485.00,0.69
6484.00,0.69
6483.00,0.69
6482.00,0.69
6481.00,0.69
6480.00,0.69
6479.00,0.69
6478.00,0.69
6477.00,0.69
6476.00,0.69
6475.00,0.70
6474.00,0.70
6473.00,0.70
6472.00,0.70
6471.00,0.70
6470.00,0.70
6469.00,0.70
6468.00,0.70
6467.00,0.70
6466.00,0.70
6465.00,0.70
6464.00,0.70
6463.00,0.70
6462.00,0.70
6461.00,0.70
6460.00,0.70
6459.00,0.70
6458.00,0.70
6457.00,0.70
6456.00,0.70
6455.00,0.70
6454.00,0.70
6453.00,0.70
6452.00,0.70
6451.00,0.70
6450.00,0.70
6449.00,0.71
6448.00,0.71
6447.00,0.71
6446.00,0.71
6445.00,0.71
6444.00,0.71
6443.00,0.71
6442.00,0.71
6441.00,0.71
6440.00,0.71
6439.00,0.72
6438.00,0.72
6437.00,0.72
6436.00,0.72
6435.00,0.72
6434.00,0.72
6433.00,0.72
6432.00,0.72
6431.00,0.72
6430.00,0.72
6429.00,0.72
6428.00,0.72
6427.00,0.72
6426.00,0.72
6425.00,0.72
6424.00,0.72
6423.00,0.72
6422.00,0.72
6421.00,0.72
6420.00,0.72
6419.00,0.72
6418.00,0.72
6417.00,0.72
6416.00,0.72
6415.00,0.72
6414.00,0.72
6413.00,0.72
6412.00,0.73
6411.00,0.73
6410.00,0.73
6409.00,0.73
6408.00,0.73
6407.00,0.73
6406.00,0.73
6405.00,0.73
6404.00,0.73
6403.00,0.73
6402.00,0.73
6401.00,0.73
6400.00,0.74
6399.00,0.74
6398.00,0.74
6397.00,0.74
6396.00,0.74
6395.00,0.74
6394.00,0.74
6393.00,0.74
6392.00,0.74
6391.00,0.74
6390.00,0.74
6389.00,0.74
6388.00,0.74
6387.00,0.74
6386.00,0.74
6385.00,0.74
6384.00,0.74
6383.00,0.74
6382.00,0.74
6381.00,0.74
6380.00,0.74
6379.00,0.74
6378.00,0.74
6377.00,0.75
6376.00,0.75
6375.00,0.75
6374.00,0.75
6373.00,0.75
6372.00,0.75
6371.00,0.75
6370.00,0.75
6369.00,0.75
6368.00,0.75
6367.00,0.75
6366.00,0.75
6365.00,0.75
6364.00,0.76
6363.00,0.76
6362.00,0.76
6361.00,0.76
6360.00,0.76
6359.00,0.76
6358.00,0.76
6357.00,0.76
6356.00,0.76
6355.00,0.76
6354.00,0.76
6353.00,0.76
6352.00,0.76
6351.00,0.76
6350.00,0.76
6349.00,0.76
6348.00,0.76
6347.00,0.77
6346.00,0.77
6345.00,0.77
6344.00,0.77
6343.00,0.77
6342.00,0.77
6341.00,0.77
6340.00,0.77
6339.00,0.77
6338.00,0.78
6337.00,0.78
6336.00,0.78
6335.00,0.78
6334.00,0.78
6333.00,0.78
6332.00,0.78
6331.00,0.78
6330.00,0.78
6329.00,0.78
6328.00,0.78
6327.00,0.78
6326.00,0.78
6325.00,0.78
6324.00,0.78
6323.00,0.78
6322.00,0.78
6321.00,0.78
6320.00,0.79
6319.00,0.79
6318.00,0.79
6317.00,0.79
6316.00,0.79
6315.00,0.79
6314.00,0.79
6313.00,0.79
6312.00,0.79
6311.00,0.79
6310.00,0.79
6309.00,0.79
6308.00,0.80
6307.00,0.80
6306.00,0.80
6305.00,0.80
6304.00,0.80
6303.00,0.80
6302.00,0.80
6301.00,0.80
6300.00,0.80
6299.00,0.80
6298.00,0.80
6297.00,0.80
6296.00,0.81
6295.00,0.81
6294.00,0.81
6293.00,0.81
6292.00,0.81
6291.00,0.81
6290.00,0.81
6289.00,0.81
6288.00,0.81
6287.00,0.81
6286.00,0.81
6285.00,0.81
6284.00,0.82
6283.00,0.82
6282.00,0.82
6281.00,0.82
6280.00,0.82
6279.00,0.82
6278.00,0.82
6277.00,0.82
6276.00,0.82
6275.00,0.83
6274.00,0.83
6273.00,0.83
6272.00,0.83
6271.00,0.83
6270.00,0.83
6269.00,0.83
6268.00,0.83
6267.00,0.83
6266.00,0.83
6265.00,0.83
6264.00,0.83
6263.00,0.83
6262.00,0.83
6261.00,0.83
6260.00,0.83
6259.00,0.83
6258.00,0.84
6257.00,0.84
6256.00,0.84
6255.00,0.84
6254.00,0.84
6253.00,0.84
6252.00,0.84
6251.00,0.84
6250.00,0.84
6249.00,0.84
6248.00,0.84
6247.00,0.84
6246.00,0.85
6245.00,0.85
6244.00,0.85
6243.00,0.85
6242.00,0.85
6241.00,0.85
6240.00,0.86
6239.00,0.86
6238.00,0.86
6237.00,0.86
6236.00,0.86
6235.00,0.86
6234.00,0.87
6233.00,0.87
6232.00,0.87
6231.00,0.87
6230.00,0.87
6229.00,0.87
6228.00,0.87
6227.00,0.87
6226.00,0.87
6225.00,0.87
6224.00,0.88
6223.00,0.88
6222.00,0.88
6221.00,0.88
6220.00,0.88
6219.00,0.88
6218.00,0.88
6217.00,0.88
6216.00,0.88
6215.00,0.88
6214.00,0.89
6213.00,0.89
6212.00,0.89
6211.00,0.89
6210.00,0.89
6209.00,0.89
6208.00,0.89
6207.00,0.89
6206.00,0.90
6205.00,0.90
6204.00,0.90
6203.00,0.90
6202.00,0.90
6201.00,0.90
6200.00,0.90
6199.00,0.90
6198.00,0.90
6197.00,0.90
6196.00,0.91
6195.00,0.91
6194.00,0.91
6193.00,0.91
6192.00,0.91
6191.00,0.91
6190.00,0.91
6189.00,0.91
6188.00,0.91
6187.00,0.91
6186.00,0.91
6185.00,0.91
6184.00,0.92
6183.00,0.92
6182.00,0.92
6181.00,0.92
6180.00,0.92
6179.00,0.92
6178.00,0.92
6177.00,0.92
6176.00,0.92
6175.00,0.92
6174.00,0.93
6173.00,0.93
6172.00,0.93
6171.00,0.93
6170.00,0.93
6169.00,0.93
6168.00,0.93
6167.00,0.94
6166.00,0.94
6165.00,0.94
6164.00,0.94
6163.00,0.94
6162.00,0.94
6161.00,0.94
6160.00,0.94
6159.00,0.95
6158.00,0.95
6157.00,0.95
6156.00,0.95
6155.00,0.95
6154.00,0.95
6153.00,0.96
6152.00,0.96
6151.00,0.96
6150.00,0.96
6149.00,0.96
6148.00,0.96
6147.00,0.96
6146.00,0.97
6145.00,0.97
6144.00,0.97
6143.00,0.97
6142.00,0.97
6141.00,0.97
6140.00,0.97
6139.00,0.97
6138.00,0.98
6137.00,0.98
6136.00,0.98
6135.00,0.98
6134.00,0.98
6133.00,0.98
6132.00,0.98
6131.00,0.98
6130.00,0.99
6129.00,0.99
6128.00,0.99
6127.00,0.99
6126.00,0.99
6125.00,0.99
6124.00,0.99
6123.00,0.99
6122.00,1.00
6121.00,1.00
6120.00,1.00
6119.00,1.00
6118.00,1.00
6117.00,1.00
6116.00,1.00
6115.00,1.00
6114.00,1.01
6113.00,1.01
6112.00,1.01
6111.00,1.01
6110.00,1.01
6109.00,1.01
6108.00,1.01
6107.00,1.01
6106.00,1.01
6105.00,1.02
6104.00,1.02
6103.00,1.02
6102.00,1.02
6101.00,1.02
6100.00,1.02
6099.00,1.02
6098.00,1.03
6097.00,1.03
6096.00,1.03
6095.00,1.03
6094.00,1.03
6093.00,1.03
6092.00,1.04
6091.00,1.04
6090.00,1.04
6089.00,1.04
6088.00,1.04
6087.00,1.04
6086.00,1.04
6085.00,1.04
6084.00,1.05
6083.00,1.05
6082.00,1.05
6081.00,1.05
6080.00,1.05
6079.00,1.05
6078.00,1.05
6077.00,1.05
6076.00,1.05
6075.00,1.05
6074.00,1.05
6073.00,1.05
6072.00,1.06
6071.00,1.06
6070.00,1.06
6069.00,1.06
6068.00,1.06
6067.00,1.06
6066.00,1.06
6065.00,1.06
6064.00,1.06
6063.00,1.06
6062.00,1.06
6061.00,1.06
6060.00,1.06
6059.00,1.06
6058.00,1.06
6057.00,1.06
6056.00,1.06
6055.00,1.06
6054.00,1.07
6053.00,1.07
6052.00,1.07
6051.00,1.07
6050.00,1.07
6049.00,1.07
6048.00,1.07
6047.00,1.07
6046.00,1.07
6045.00,1.07
6044.00,1.07
6043.00,1.07
6042.00,1.08
6041.00,1.08
6040.00,1.08
6039.00,1.08
6038.00,1.08
6037.00,1.08
6036.00,1.08
6035.00,1.08
6034.00,1.08
6033.00,1.08
6032.00,1.08
6031.00,1.08
6030.00,1.08
6029.00,1.08
6028.00,1.08
6027.00,1.08
6026.00,1.08
6025.00,1.08
6024.00,1.08
6023.00,1.08
6022.00,1.08
6021.00,1.08
6020.00,1.09
6019.00,1.09
6018.00,1.09
6017.00,1.09
6016.00,1.09
6015.00,1.09
6014.00,1.09
6013.00,1.09
6012.00,1.09
6011.00,1.09
6010.00,1.09
6009.00,1.09
6008.00,1.09
6007.00,1.09
6006.00,1.09
6005.00,1.09
6004.00,1.09
6003.00,1.09
6002.00,1.09
6001.00,1.09
6000.00,1.09
5999.00,1.09
5998.00,1.08
5997.00,1.08
5996.00,1.08
5995.00,1.08
5994.00,1.08
5993.00,1.08
5992.00,1.08
5991.00,1.08
5990.00,1.07
5989.00,1.07
5988.00,1.07
5987.00,1.07
5986.00,1.07
5985.00,1.07
5984.00,1.06
5983.00,1.06
5982.00,1.06
5981.00,1.06
5980.00,1.05
5979.00,1.05
5978.00,1.05
5977.00,1.04
5976.00,1.04
5975.00,1.04
5974.00,1.03
5973.00,1.03
5972.00,1.03
5971.00,1.02
5970.00,1.02
5969.00,1.01
5968.00,1.01
5967.00,1.01
5966.00,1.00
5965.00,1.00
5964.00,0.99
5963.00,0.99
5962.00,0.98
5961.00,0.98
5960.00,0.97
5959.00,0.97
5958.00,0.96
5957.00,0.96
5956.00,0.95
5955.00,0.95
5954.00,0.94
5953.00,0.94
5952.00,0.93
5951.00,0.93
5950.00,0.92
5949.00,0.92
5948.00,0.92
5947.00,0.91
5946.00,0.91
5945.00,0.91
5944.00,0.91
5943.00,0.90
5942.00,0.90
5941.00,0.90
5940.00,0.90
5939.00,0.90
5938.00,0.90
5937.00,0.90
5936.00,0.90
5935.00,0.90
5934.00,0.89
5933.00,0.89
5932.00,0.89
5931.00,0.89
5930.00,0.89
5929.00,0.89
5928.00,0.89
5927.00,0.89
5926.00,0.89
5925.00,0.89
5924.00,0.88
5923.00,0.88
5922.00,0.88
5921.00,0.88
5920.00,0.88
5919.00,0.87
5918.00,0.87
5917.00,0.87
5916.00,0.87
5915.00,0.87
5914.00,0.87
5913.00,0.86
5912.00,0.86
5911.00,0.86
5910.00,0.86
5909.00,0.86
5908.00,0.86
5907.00,0.86
5906.00,0.86
5905.00,0.86
5904.00,0.86
5903.00,0.86
5902.00,0.86
5901.00,0.86
5900.00,0.86
5899.00,0.86
5898.00,0.86
5897.00,0.86
5896.00,0.86
5895.00,0.87
5894.00,0.87
5893.00,0.87
5892.00,0.87
5891.00,0.87
5890.00,0.87
5889.00,0.88
5888.00,0.88
5887.00,0.88
5886.00,0.88
5885.00,0.89
5884.00,0.89
5883.00,0.89
5882.00,0.89
5881.00,0.90
5880.00,0.90
5879.00,0.90
5878.00,0.90
5877.00,0.90
5876.00,0.91
5875.00,0.91
5874.00,0.91
5873.00,0.91
5872.00,0.91
5871.00,0.92
5870.00,0.92
5869.00,0.92
5868.00,0.92
5867.00,0.92
5866.00,0.92
5865.00,0.92
5864.00,0.92
5863.00,0.93
5862.00,0.93
5861.00,0.93
5860.00,0.93
5859.00,0.93
5858.00,0.93
5857.00,0.93
5856.00,0.94
5855.00,0.94
5854.00,0.94
5853.00,0.94
5852.00,0.94
5851.00,0.94
5850.00,0.94
5849.00,0.94
5848.00,0.94
5847.00,0.94
5846.00,0.94
5845.00,0.94
5844.00,0.94
5843.00,0.94
5842.00,0.94
5841.00,0.94
5840.00,0.94
5839.00,0.94
5838.00,0.94
5837.00,0.94
5836.00,0.94
5835.00,0.94
5834.00,0.94
5833.00,0.94
5832.00,0.94
5831.00,0.94
5830.00,0.94
5829.00,0.94
5828.00,0.94
5827.00,0.94
5826.00,0.94
5825.00,0.94
5824.00,0.94
5823.00,0.94
5822.00,0.94
5821.00,0.94
5820.00,0.94
5819.00,0.94
5818.00,0.94
5817.00,0.94
5816.00,0.94
5815.00,0.94
5814.00,0.94
5813.00,0.94
5812.00,0.94
5811.00,0.94
5810.00,0.94
5809.00,0.94
5808.00,0.94
5807.00,0.94
5806.00,0.94
5805.00,0.94
5804.00,0.94
5803.00,0.94
5802.00,0.94
5801.00,0.94
5800.00,0.94
5799.00,0.94
5798.00,0.93
5797.00,0.93
5796.00,0.93
5795.00,0.93
5794.00,0.93
5793.00,0.93
5792.00,0.92
5791.00,0.92
5790.00,0.92
5789.00,0.92
5788.00,0.92
5787.00,0.92
5786.00,0.91
5785.00,0.91
5784.00,0.91
5783.00,0.91
5782.00,0.91
5781.00,0.91
5780.00,0.91
5779.00,0.91
5778.00,0.91
5777.00,0.91
5776.00,0.91
5775.00,0.91
5774.00,0.91
5773.00,0.91
5772.00,0.91
5771.00,0.91
5770.00,0.91
5769.00,0.91
5768.00,0.91
5767.00,0.91
5766.00,0.91
5765.00,0.91
5764.00,0.91
5763.00,0.91
5762.00,0.91
5761.00,0.91
5760.00,0.91
5759.00,0.92
5758.00,0.92
5757.00,0.92
5756.00,0.92
5755.00,0.93
5754.00,0.93
5753.00,0.93
5752.00,0.93
5751.00,0.94
5750.00,0.94
5749.00,0.94
5748.00,0.94
5747.00,0.95
5746.00,0.95
5745.00,0.95
5744.00,0.95
5743.00,0.96
5742.00,0.96
5741.00,0.96
5740.00,0.96
5739.00,0.96
5738.00,0.97
5737.00,0.97
5736.00,0.97
5735.00,0.97
5734.00,0.97
5733.00,0.97
5732.00,0.98
5731.00,0.98
5730.00,0.98
5729.00,0.98
5728.00,0.98
5727.00,0.98
5726.00,0.98
5725.00,0.98
5724.00,0.98
5723.00,0.98
5722.00,0.98
5721.00,0.98
5720.00,0.98
5719.00,0.98
5718.00,0.98
5717.00,0.98
5716.00,0.98
5715.00,0.98
5714.00,0.98
5713.00,0.98
5712.00,0.98
5711.00,0.98
5710.00,0.98
5709.00,0.98
5708.00,0.98
5707.00,0.98
5706.00,0.98
5705.00,0.98
5704.00,0.98
5703.00,0.98
5702.00,0.97
5701.00,0.97
5700.00,0.97
5699.00,0.97
5698.00,0.97
5697.00,0.97
5696.00,0.96
5695.00,0.96
5694.00,0.96
5693.00,0.96
5692.00,0.96
5691.00,0.96
5690.00,0.95
5689.00,0.95
5688.00,0.95
5687.00,0.95
5686.00,0.95
5685.00,0.95
5684.00,0.95
5683.00,0.95
5682.00,0.95
5681.00,0.95
5680.00,0.95
5679.00,0.95
5678.00,0.95
5677.00,0.95
5676.00,0.95
5675.00,0.95
5674.00,0.95
5673.00,0.95
5672.00,0.95
5671.00,0.95
5670.00,0.95
5669.00,0.95
5668.00,0.95
5667.00,0.95
5666.00,0.95
5665.00,0.95
5664.00,0.95
5663.00,0.95
5662.00,0.95
5661.00,0.96
5660.00,0.96
5659.00,0.96
5658.00,0.96
5657.00,0.96
5656.00,0.96
5655.00,0.96
5654.00,0.96
5653.00,0.96
5652.00,0.96
5651.00,0.96
5650.00,0.96
5649.00,0.97
5648.00,0.97
5647.00,0.97
5646.00,0.97
5645.00,0.97
5644.00,0.97
5643.00,0.97
5642.00,0.98
5641.00,0.98
5640.00,0.98
5639.00,0.98
5638.00,0.98
5637.00,0.98
5636.00,0.98
5635.00,0.99
5634.00,0.99
5633.00,0.99
5632.00,0.99
5631.00,0.99
5630.00,0.99
5629.00,0.99
5628.00,0.99
5627.00,1.00
5626.00,1.00
5625.00,1.00
5624.00,1.00
5623.00,1.00
5622.00,1.00
5621.00,1.00
5620.00,1.01
5619.00,1.01
5618.00,1.01
5617.00,1.01
5616.00,1.01
5615.00,1.01
5614.00,1.01
5613.00,1.01
5612.00,1.01
5611.00,1.02
5610.00,1.02
5609.00,1.02
5608.00,1.02
5607.00,1.02
5606.00,1.02
5605.00,1.02
5604.00,1.02
5603.00,1.02
5602.00,1.03
5601.00,1.03
5600.00,1.03
5599.00,1.03
5598.00,1.03
5597.00,1.03
5596.00,1.03
5595.00,1.04
5594.00,1.04
5593.00,1.04
5592.00,1.04
5591.00,1.04
5590.00,1.04
5589.00,1.04
5588.00,1.05
5587.00,1.05
5586.00,1.05
5585.00,1.05
5584.00,1.05
5583.00,1.05
5582.00,1.05
5581.00,1.05
5580.00,1.06
5579.00,1.06
5578.00,1.06
5577.00,1.06
5576.00,1.06
5575.00,1.06
5574.00,1.06
5573.00,1.06
5572.00,1.06
5571.00,1.06
5570.00,1.06
5569.00,1.06
5568.00,1.06
5567.00,1.07
5566.00,1.07
5565.00,1.07
5564.00,1.07
5563.00,1.07
5562.00,1.07
5561.00,1.07
5560.00,1.07
5559.00,1.07
5558.00,1.08
5557.00,1.08
5556.00,1.08
5555.00,1.08
5554.00,1.08
5553.00,1.08
5552.00,1.08
5551.00,1.09
5550.00,1.09
5549.00,1.09
5548.00,1.09
5547.00,1.09
5546.00,1.09
5545.00,1.09
5544.00,1.09
5543.00,1.10
5542.00,1.10
5541.00,1.10
5540.00,1.10
5539.00,1.10
5538.00,1.10
5537.00,1.10
5536.00,1.10
5535.00,1.11
5534.00,1.11
5533.00,1.11
5532.00,1.11
5531.00,1.11
5530.00,1.11
5529.00,1.11
5528.00,1.11
5527.00,1.11
5526.00,1.11
5525.00,1.11
5524.00,1.11
5523.00,1.11
5522.00,1.11
5521.00,1.11
5520.00,1.11
5519.00,1.11
5518.00,1.11
5517.00,1.11
5516.00,1.11
5515.00,1.12
5514.00,1.12
5513.00,1.12
5512.00,1.12
5511.00,1.12
5510.00,1.12
5509.00,1.12
5508.00,1.12
5507.00,1.12
5506.00,1.13
5505.00,1.13
5504.00,1.13
5503.00,1.13
5502.00,1.13
5501.00,1.13
5500.00,1.13
5499.00,1.13
5498.00,1.13
5497.00,1.13
5496.00,1.13
5495.00,1.13
5494.00,1.13
5493.00,1.14
5492.00,1.14
5491.00,1.14
5490.00,1.14
5489.00,1.14
5488.00,1.14
5487.00,1.14
5486.00,1.14
5485.00,1.14
5484.00,1.14
5483.00,1.14
5482.00,1.14
5481.00,1.14
5480.00,1.15
5479.00,1.15
5478.00,1.15
5477.00,1.15
5476.00,1.15
5475.00,1.15
5474.00,1.15
5473.00,1.15
5472.00,1.15
5471.00,1.15
5470.00,1.15
5469.00,1.15
5468.00,1.15
5467.00,1.15
5466.00,1.15
5465.00,1.15
5464.00,1.16
5463.00,1.16
5462.00,1.16
5461.00,1.16
5460.00,1.16
5459.00,1.16
5458.00,1.16
5457.00,1.16
5456.00,1.16
5455.00,1.16
5454.00,1.16
5453.00,1.16
5452.00,1.16
5451.00,1.16
5450.00,1.16
5449.00,1.16
5448.00,1.16
5447.00,1.16
5446.00,1.16
5445.00,1.16
5444.00,1.16
5443.00,1.16
5442.00,1.16
5441.00,1.16
5440.00,1.16
5439.00,1.16
5438.00,1.17
5437.00,1.17
5436.00,1.17
5435.00,1.17
5434.00,1.17
5433.00,1.17
5432.00,1.17
5431.00,1.17
5430.00,1.17
5429.00,1.17
5428.00,1.17
5427.00,1.17
5426.00,1.16
5425.00,1.16
5424.00,1.16
5423.00,1.16
5422.00,1.16
5421.00,1.16
5420.00,1.16
5419.00,1.16
5418.00,1.16
5417.00,1.16
5416.00,1.16
5415.00,1.16
5414.00,1.16
5413.00,1.16
5412.00,1.16
5411.00,1.16
5410.00,1.16
5409.00,1.16
5408.00,1.16
5407.00,1.16
5406.00,1.16
5405.00,1.16
5404.00,1.16
5403.00,1.16
5402.00,1.16
5401.00,1.16
5400.00,1.16
5399.00,1.15
5398.00,1.15
5397.00,1.15
5396.00,1.15
5395.00,1.15
5394.00,1.15
5393.00,1.14
5392.00,1.14
5391.00,1.14
5390.00,1.14
5389.00,1.14
5388.00,1.13
5387.00,1.13
5386.00,1.13
5385.00,1.13
5384.00,1.12
5383.00,1.12
5382.00,1.12
5381.00,1.12
5380.00,1.11
5379.00,1.11
5378.00,1.11
5377.00,1.10
5376.00,1.10
5375.00,1.10
5374.00,1.09
5373.00,1.09
5372.00,1.08
5371.00,1.08
5370.00,1.08
5369.00,1.07
5368.00,1.07
5367.00,1.06
5366.00,1.06
5365.00,1.05
5364.00,1.05
5363.00,1.04
5362.00,1.04
5361.00,1.03
5360.00,1.02
5359.00,1.02
5358.00,1.01
5357.00,1.01
5356.00,1.00
5355.00,0.99
5354.00,0.99
5353.00,0.98
5352.00,0.97
5351.00,0.97
5350.00,0.96
5349.00,0.95
5348.00,0.95
5347.00,0.94
5346.00,0.93
5345.00,0.93
5344.00,0.92
5343.00,0.92
5342.00,0.91
5341.00,0.90
5340.00,0.90
5339.00,0.89
5338.00,0.89
5337.00,0.88
5336.00,0.87
5335.00,0.87
5334.00,0.86
5333.00,0.86
5332.00,0.85
5331.00,0.85
5330.00,0.84
5329.00,0.84
5328.00,0.83
5327.00,0.83
5326.00,0.82
5325.00,0.82
5324.00,0.81
5323.00,0.81
5322.00,0.81
5321.00,0.80
5320.00,0.80
5319.00,0.79
5318.00,0.79
5317.00,0.79
5316.00,0.78
5315.00,0.78
5314.00,0.78
5313.00,0.77
5312.00,0.77
5311.00,0.77
5310.00,0.76
5309.00,0.76
5308.00,0.76
5307.00,0.76
5306.00,0.75
5305.00,0.75
5304.00,0.75
5303.00,0.75
5302.00,0.75
5301.00,0.75
5300.00,0.75
5299.00,0.75
5298.00,0.74
5297.00,0.74
5296.00,0.74
5295.00,0.74
5294.00,0.74
5293.00,0.74
5292.00,0.74
5291.00,0.74
5290.00,0.74
5289.00,0.74
5288.00,0.74
5287.00,0.74
5286.00,0.74
5285.00,0.74
5284.00,0.74
5283.00,0.74
5282.00,0.74
5281.00,0.74
5280.00,0.74
5279.00,0.74
5278.00,0.74
5277.00,0.74
5276.00,0.74
5275.00,0.74
5274.00,0.74
5273.00,0.74
5272.00,0.74
5271.00,0.74
5270.00,0.74
5269.00,0.73
5268.00,0.73
5267.00,0.73
5266.00,0.73
5265.00,0.73
5264.00,0.73
5263.00,0.73
5262.00,0.73
5261.00,0.73
5260.00,0.73
5259.00,0.73
5258.00,0.73
5257.00,0.73
5256.00,0.73
5255.00,0.73
5254.00,0.73
5253.00,0.73
5252.00,0.73
5251.00,0.73
5250.00,0.73
5249.00,0.73
5248.00,0.73
5247.00,0.73
5246.00,0.73
5245.00,0.73
5244.00,0.73
5243.00,0.73
5242.00,0.73
5241.00,0.73
5240.00,0.73
5239.00,0.73
5238.00,0.73
5237.00,0.73
5236.00,0.73
5235.00,0.73
5234.00,0.73
5233.00,0.73
5232.00,0.73
5231.00,0.73
5230.00,0.73
5229.00,0.73
5228.00,0.73
5227.00,0.74
5226.00,0.74
5225.00,0.74
5224.00,0.74
5223.00,0.74
5222.00,0.74
5221.00,0.74
5220.00,0.74
5219.00,0.74
5218.00,0.74
5217.00,0.74
5216.00,0.74
5215.00,0.74
5214.00,0.74
5213.00,0.74
5212.00,0.74
5211.00,0.74
5210.00,0.74
5209.00,0.74
5208.00,0.74
5207.00,0.74
5206.00,0.74
5205.00,0.74
5204.00,0.74
5203.00,0.74
5202.00,0.74
5201.00,0.74
5200.00,0.74
5199.00,0.75
5198.00,0.75
5197.00,0.75
5196.00,0.75
5195.00,0.75
5194.00,0.75
5193.00,0.75
5192.00,0.75
5191.00,0.75
5190.00,0.75
5189.00,0.75
5188.00,0.75
5187.00,0.75
5186.00,0.75
5185.00,0.75
5184.00,0.76
5183.00,0.76
5182.00,0.76
5181.00,0.76
5180.00,0.76
5179.00,0.76
5178.00,0.76
5177.00,0.76
5176.00,0.76
5175.00,0.76
5174.00,0.76
5173.00,0.76
5172.00,0.76
5171.00,0.76
5170.00,0.76
5169.00,0.76
5168.00,0.76
5167.00,0.76
5166.00,0.76
5165.00,0.76
5164.00,0.76
5163.00,0.76
5162.00,0.76
5161.00,0.76
5160.00,0.76
5159.00,0.76
5158.00,0.76
5157.00,0.76
5156.00,0.76
5155.00,0.76
5154.00,0.76
5153.00,0.76
5152.00,0.76
5151.00,0.76
5150.00,0.76
5149.00,0.76
5148.00,0.76
5147.00,0.76
5146.00,0.76
5145.00,0.76
5144.00,0.77
5143.00,0.77
5142.00,0.77
5141.00,0.77
5140.00,0.77
5139.00,0.77
5138.00,0.77
5137.00,0.77
5136.00,0.77
5135.00,0.77
5134.00,0.77
5133.00,0.77
5132.00,0.77
5131.00,0.77
5130.00,0.77
5129.00,0.77
5128.00,0.77
5127.00,0.77
5126.00,0.77
5125.00,0.77
5124.00,0.77
5123.00,0.77
5122.00,0.77
5121.00,0.77
5120.00,0.77
5119.00,0.77
5118.00,0.77
5117.00,0.77
5116.00,0.77
5115.00,0.77
5114.00,0.77
5113.00,0.77
5112.00,0.77
5111.00,0.77
5110.00,0.77
5109.00,0.77
5108.00,0.77
5107.00,0.77
5106.00,0.77
5105.00,0.77
5104.00,0.77
5103.00,0.77
5102.00,0.77
5101.00,0.77
5100.00,0.77
5099.00,0.78
5098.00,0.78
5097.00,0.78
5096.00,0.78
5095.00,0.78
5094.00,0.78
5093.00,0.78
5092.00,0.78
5091.00,0.78
5090.00,0.78
5089.00,0.78
5088.00,0.78
5087.00,0.78
5086.00,0.78
5085.00,0.78
5084.00,0.78
5083.00,0.78
5082.00,0.78
5081.00,0.78
5080.00,0.78
5079.00,0.78
5078.00,0.78
5077.00,0.78
5076.00,0.78
5075.00,0.78
5074.00,0.78
5073.00,0.78
5072.00,0.78
5071.00,0.78
5070.00,0.78
5069.00,0.78
5068.00,0.78
5067.00,0.78
5066.00,0.78
5065.00,0.79
5064.00,0.79
5063.00,0.79
5062.00,0.79
5061.00,0.79
5060.00,0.79
5059.00,0.79
5058.00,0.79
5057.00,0.79
5056.00,0.79
5055.00,0.79
5054.00,0.79
5053.00,0.79
5052.00,0.79
5051.00,0.79
5050.00,0.79
5049.00,0.80
5048.00,0.80
5047.00,0.80
5046.00,0.80
5045.00,0.80
5044.00,0.80
5043.00,0.80
5042.00,0.80
5041.00,0.80
5040.00,0.80
5039.00,0.80
5038.00,0.80
5037.00,0.80
5036.00,0.80
5035.00,0.80
5034.00,0.80
5033.00,0.80
5032.00,0.80
5031.00,0.80
5030.00,0.80
5029.00,0.80
5028.00,0.80
5027.00,0.80
5026.00,0.80
5025.00,0.80
5024.00,0.80
5023.00,0.80
5022.00,0.80
5021.00,0.80
5020.00,0.80
5019.00,0.80
5018.00,0.80
5017.00,0.80
5016.00,0.80
5015.00,0.80
5014.00,0.80
5013.00,0.80
5012.00,0.80
5011.00,0.80
5010.00,0.80
5009.00,0.81
5008.00,0.81
5007.00,0.81
5006.00,0.81
5005.00,0.81
5004.00,0.81
5003.00,0.81
5002.00,0.81
5001.00,0.81
5000.00,0.81
4999.00,0.81
4998.00,0.81
4997.00,0.81
4996.00,0.81
4995.00,0.81
4994.00,0.81
4993.00,0.81
4992.00,0.81
4991.00,0.81
4990.00,0.81
4989.00,0.81
4988.00,0.81
4987.00,0.81
4986.00,0.81
4985.00,0.81
4984.00,0.81
4983.00,0.81
4982.00,0.81
4981.00,0.81
4980.00,0.81
4979.00,0.82
4978.00,0.82
4977.00,0.82
4976.00,0.82
4975.00,0.82
4974.00,0.82
4973.00,0.82
4972.00,0.82
4971.00,0.82
4970.00,0.82
4969.00,0.82
4968.00,0.82
4967.00,0.82
4966.00,0.82
4965.00,0.82
4964.00,0.82
4963.00,0.83
4962.00,0.83
4961.00,0.83
4960.00,0.83
4959.00,0.83
4958.00,0.83
4957.00,0.83
4956.00,0.83
4955.00,0.83
4954.00,0.83
4953.00,0.83
4952.00,0.83
4951.00,0.83
4950.00,0.84
4949.00,0.84
4948.00,0.84
4947.00,0.84
4946.00,0.84
4945.00,0.84
4944.00,0.84
4943.00,0.84
4942.00,0.84
4941.00,0.84
4940.00,0.84
4939.00,0.84
4938.00,0.84
4937.00,0.84
4936.00,0.84
4935.00,0.84
4934.00,0.84
4933.00,0.84
4932.00,0.84
4931.00,0.84
4930.00,0.84
4929.00,0.84
4928.00,0.84
4927.00,0.84
4926.00,0.84
4925.00,0.84
4924.00,0.84
4923.00,0.84
4922.00,0.85
4921.00,0.85
4920.00,0.85
4919.00,0.85
4918.00,0.85
4917.00,0.85
4916.00,0.85
4915.00,0.85
4914.00,0.85
4913.00,0.85
4912.00,0.85
4911.00,0.85
4910.00,0.85
4909.00,0.85
4908.00,0.85
4907.00,0.85
4906.00,0.85
4905.00,0.85
4904.00,0.85
4903.00,0.85
4902.00,0.85
4901.00,0.85
4900.00,0.85
4899.00,0.85
4898.00,0.85
4897.00,0.85
4896.00,0.85
4895.00,0.85
4894.00,0.85
4893.00,0.85
4892.00,0.85
4891.00,0.85
4890.00,0.85
4889.00,0.85
4888.00,0.85
4887.00,0.85
4886.00,0.86
4885.00,0.86
4884.00,0.86
4883.00,0.86
4882.00,0.86
4881.00,0.86
4880.00,0.86
4879.00,0.86
4878.00,0.86
4877.00,0.86
4876.00,0.86
4875.00,0.86
4874.00,0.86
4873.00,0.86
4872.00,0.86
4871.00,0.86
4870.00,0.86
4869.00,0.87
4868.00,0.87
4867.00,0.87
4866.00,0.87
4865.00,0.87
4864.00,0.87
4863.00,0.87
4862.00,0.87
4861.00,0.87
4860.00,0.87
4859.00,0.87
4858.00,0.87
4857.00,0.87
4856.00,0.87
4855.00,0.87
4854.00,0.87
4853.00,0.87
4852.00,0.87
4851.00,0.87
4850.00,0.87
4849.00,0.87
4848.00,0.87
4847.00,0.87
4846.00,0.87
4845.00,0.87
4844.00,0.87
4843.00,0.87
4842.00,0.88
4841.00,0.88
4840.00,0.88
4839.00,0.88
4838.00,0.88
4837.00,0.88
4836.00,0.88
4835.00,0.88
4834.00,0.88
4833.00,0.88
4832.00,0.88
4831.00,0.88
4830.00,0.87
4829.00,0.87
4828.00,0.87
4827.00,0.87
4826.00,0.87
4825.00,0.87
4824.00,0.87
4823.00,0.87
4822.00,0.88
4821.00,0.88
4820.00,0.88
4819.00,0.88
4818.00,0.88
4817.00,0.88
4816.00,0.88
4815.00,0.88
4814.00,0.88
4813.00,0.88
4812.00,0.88
4811.00,0.88
4810.00,0.88
4809.00,0.88
4808.00,0.88
4807.00,0.88
4806.00,0.88
4805.00,0.88
4804.00,0.88
4803.00,0.88
4802.00,0.88
4801.00,0.89
4800.00,0.89
4799.00,0.89
4798.00,0.89
4797.00,0.89
4796.00,0.89
4795.00,0.89
4794.00,0.89
4793.00,0.89
4792.00,0.89
4791.00,0.89
4790.00,0.89
4789.00,0.89
4788.00,0.89
4787.00,0.89
4786.00,0.89
4785.00,0.89
4784.00,0.89
4783.00,0.90
4782.00,0.90
4781.00,0.90
4780.00,0.90
4779.00,0.90
4778.00,0.90
4777.00,0.90
4776.00,0.90
4775.00,0.90
4774.00,0.90
4773.00,0.90
4772.00,0.90
4771.00,0.90
4770.00,0.90
4769.00,0.90
4768.00,0.90
4767.00,0.90
4766.00,0.90
4765.00,0.90
4764.00,0.91
4763.00,0.91
4762.00,0.91
4761.00,0.91
4760.00,0.91
4759.00,0.91
4758.00,0.91
4757.00,0.91
4756.00,0.91
4755.00,0.91
4754.00,0.91
4753.00,0.91
4752.00,0.91
4751.00,0.91
4750.00,0.92
4749.00,0.92
4748.00,0.92
4747.00,0.92
4746.00,0.92
4745.00,0.92
4744.00,0.92
4743.00,0.92
4742.00,0.92
4741.00,0.92
4740.00,0.92
4739.00,0.92
4738.00,0.93
4737.00,0.93
4736.00,0.93
4735.00,0.93
4734.00,0.93
4733.00,0.93
4732.00,0.93
4731.00,0.93
4730.00,0.93
4729.00,0.93
4728.00,0.93
4727.00,0.93
4726.00,0.93
4725.00,0.93
4724.00,0.93
4723.00,0.93
4722.00,0.93
4721.00,0.93
4720.00,0.93
4719.00,0.93
4718.00,0.93
4717.00,0.93
4716.00,0.93
4715.00,0.94
4714.00,0.94
4713.00,0.94
4712.00,0.94
4711.00,0.94
4710.00,0.94
4709.00,0.94
4708.00,0.94
4707.00,0.94
4706.00,0.94
4705.00,0.94
4704.00,0.94
4703.00,0.94
4702.00,0.94
4701.00,0.94
4700.00,0.94
4699.00,0.94
4698.00,0.94
4697.00,0.95
4696.00,0.95
4695.00,0.95
4694.00,0.95
4693.00,0.95
4692.00,0.95
4691.00,0.95
4690.00,0.95
4689.00,0.95
4688.00,0.95
4687.00,0.96
4686.00,0.96
4685.00,0.96
4684.00,0.96
4683.00,0.96
4682.00,0.96
4681.00,0.96
4680.00,0.96
4679.00,0.96
4678.00,0.96
4677.00,0.96
4676.00,0.96
4675.00,0.96
4674.00,0.96
4673.00,0.96
4672.00,0.97
4671.00,0.97
4670.00,0.97
4669.00,0.97
4668.00,0.97
4667.00,0.97
4666.00,0.97
4665.00,0.97
4664.00,0.97
4663.00,0.97
4662.00,0.97
4661.00,0.97
4660.00,0.97
4659.00,0.97
4658.00,0.97
4657.00,0.97
4656.00,0.97
4655.00,0.97
4654.00,0.98
4653.00,0.98
4652.00,0.98
4651.00,0.98
4650.00,0.98
4649.00,0.98
4648.00,0.98
4647.00,0.98
4646.00,0.98
4645.00,0.98
4644.00,0.98
4643.00,0.99
4642.00,0.99
4641.00,0.99
4640.00,0.99
4639.00,0.99
4638.00,0.99
4637.00,0.99
4636.00,0.99
4635.00,0.99
4634.00,0.99
4633.00,0.99
4632.00,0.99
4631.00,0.99
4630.00,0.99
4629.00,0.99
4628.00,0.99
4627.00,0.99
4626.00,0.99
4625.00,0.99
4624.00,0.99
4623.00,0.99
4622.00,0.99
4621.00,0.99
4620.00,0.99
4619.00,0.99
4618.00,0.99
4617.00,0.99
4616.00,0.99
4615.00,0.99
4614.00,0.99
4613.00,1.00
4612.00,1.00
4611.00,1.00
4610.00,1.00
4609.00,1.00
4608.00,1.00
4607.00,1.00
4606.00,1.00
4605.00,1.00
4604.00,1.00
4603.00,1.00
4602.00,1.00
4601.00,1.00
4600.00,1.00
4599.00,1.00
4598.00,1.00
4597.00,1.00
4596.00,1.00
4595.00,1.00
4594.00,1.01
4593.00,1.01
4592.00,1.01
4591.00,1.01
4590.00,1.01
4589.00,1.01
4588.00,1.01
4587.00,1.01
4586.00,1.01
4585.00,1.01
4584.00,1.01
4583.00,1.01
4582.00,1.01
4581.00,1.01
4580.00,1.01
4579.00,1.01
4578.00,1.01
4577.00,1.01
4576.00,1.01
4575.00,1.01
4574.00,1.01
4573.00,1.01
4572.00,1.01
4571.00,1.01
4570.00,1.01
4569.00,1.01
4568.00,1.01
4567.00,1.01
4566.00,1.01
4565.00,1.01
4564.00,1.01
4563.00,1.01
4562.00,1.01
4561.00,1.01
4560.00,1.01
4559.00,1.01
4558.00,1.02
4557.00,1.02
4556.00,1.02
4555.00,1.02
4554.00,1.02
4553.00,1.02
4552.00,1.02
4551.00,1.02
4550.00,1.02
4549.00,1.02
4548.00,1.02
4547.00,1.02
4546.00,1.02
4545.00,1.02
4544.00,1.02
4543.00,1.02
4542.00,1.02
4541.00,1.02
4540.00,1.02
4539.00,1.02
4538.00,1.02
4537.00,1.02
4536.00,1.02
4535.00,1.02
4534.00,1.02
4533.00,1.02
4532.00,1.02
4531.00,1.02
4530.00,1.02
4529.00,1.02
4528.00,1.02
4527.00,1.02
4526.00,1.02
4525.00,1.03
4524.00,1.03
4523.00,1.03
4522.00,1.03
4521.00,1.03
4520.00,1.03
4519.00,1.03
4518.00,1.03
4517.00,1.03
4516.00,1.03
4515.00,1.04
4514.00,1.04
4513.00,1.04
4512.00,1.04
4511.00,1.04
4510.00,1.04
4509.00,1.04
4508.00,1.04
4507.00,1.04
4506.00,1.04
4505.00,1.04
4504.00,1.04
4503.00,1.04
4502.00,1.04
4501.00,1.04
4500.00,1.04
4499.00,1.04
4498.00,1.04
4497.00,1.04
4496.00,1.04
4495.00,1.04
4494.00,1.04
4493.00,1.04
4492.00,1.04
4491.00,1.04
4490.00,1.04
4489.00,1.04
4488.00,1.04
4487.00,1.04
4486.00,1.04
4485.00,1.04
4484.00,1.04
4483.00,1.04
4482.00,1.04
4481.00,1.04
4480.00,1.04
4479.00,1.03
4478.00,1.03
4477.00,1.03
4476.00,1.03
4475.00,1.03
4474.00,1.03
4473.00,1.03
4472.00,1.03
4471.00,1.03
4470.00,1.03
4469.00,1.03
4468.00,1.02
4467.00,1.02
4466.00,1.02
4465.00,1.02
4464.00,1.02
4463.00,1.02
4462.00,1.02
4461.00,1.02
4460.00,1.02
4459.00,1.02
4458.00,1.02
4457.00,1.01
4456.00,1.01
4455.00,1.01
4454.00,1.01
4453.00,1.01
4452.00,1.01
4451.00,1.01
4450.00,1.01
4449.00,1.00
4448.00,1.00
4447.00,1.00
4446.00,1.00
4445.00,1.00
4444.00,1.00
4443.00,0.99
4442.00,0.99
4441.00,0.99
4440.00,0.99
4439.00,0.99
4438.00,0.99
4437.00,0.99
4436.00,0.99
4435.00,0.99
4434.00,0.99
4433.00,0.99
4432.00,0.99
4431.00,0.99
4430.00,0.99
4429.00,0.99
4428.00,0.99
4427.00,0.99
4426.00,0.99
4425.00,0.99
4424.00,0.99
4423.00,0.99
4422.00,0.99
4421.00,0.99
4420.00,0.99
4419.00,0.99
4418.00,0.99
4417.00,0.99
4416.00,0.99
4415.00,0.99
4414.00,0.99
4413.00,0.99
4412.00,1.00
4411.00,1.00
4410.00,1.00
4409.00,1.00
4408.00,1.00
4407.00,1.00
4406.00,1.00
4405.00,1.00
4404.00,1.00
4403.00,1.00
4402.00,1.00
4401.00,1.00
4400.00,1.00
4399.00,1.00
4398.00,1.00
4397.00,1.00
4396.00,1.00
4395.00,1.00
4394.00,1.00
4393.00,1.00
4392.00,1.00
4391.00,1.00
4390.00,1.00
4389.00,1.00
4388.00,1.00
4387.00,1.00
4386.00,1.00
4385.00,1.00
4384.00,1.00
4383.00,1.00
4382.00,1.00
4381.00,1.00
4380.00,1.00
4379.00,1.01
4378.00,1.01
4377.00,1.01
4376.00,1.01
4375.00,1.01
4374.00,1.01
4373.00,1.01
4372.00,1.01
4371.00,1.01
4370.00,1.01
4369.00,1.01
4368.00,1.01
4367.00,1.01
4366.00,1.02
4365.00,1.02
4364.00,1.02
4363.00,1.02
4362.00,1.02
4361.00,1.02
4360.00,1.02
4359.00,1.02
4358.00,1.02
4357.00,1.02
4356.00,1.02
4355.00,1.02
4354.00,1.02
4353.00,1.02
4352.00,1.02
4351.00,1.02
4350.00,1.02
4349.00,1.02
4348.00,1.02
4347.00,1.02
4346.00,1.03
4345.00,1.03
4344.00,1.03
4343.00,1.03
4342.00,1.03
4341.00,1.03
4340.00,1.03
4339.00,1.03
4338.00,1.03
4337.00,1.03
4336.00,1.03
4335.00,1.03
4334.00,1.03
4333.00,1.03
4332.00,1.03
4331.00,1.03
4330.00,1.04
4329.00,1.04
4328.00,1.04
4327.00,1.04
4326.00,1.04
4325.00,1.04
4324.00,1.04
4323.00,1.04
4322.00,1.04
4321.00,1.04
4320.00,1.04
4319.00,1.04
4318.00,1.04
4317.00,1.04
4316.00,1.04
4315.00,1.04
4314.00,1.04
4313.00,1.04
4312.00,1.04
4311.00,1.04
4310.00,1.05
4309.00,1.05
4308.00,1.05
4307.00,1.05
4306.00,1.05
4305.00,1.05
4304.00,1.05
4303.00,1.05
4302.00,1.05
4301.00,1.05
4300.00,1.05
4299.00,1.05
4298.00,1.05
4297.00,1.05
4296.00,1.05
4295.00,1.05
4294.00,1.05
4293.00,1.05
4292.00,1.05
4291.00,1.05
4290.00,1.05
4289.00,1.06
4288.00,1.06
4287.00,1.06
4286.00,1.06
4285.00,1.06
4284.00,1.06
4283.00,1.06
4282.00,1.06
4281.00,1.06
4280.00,1.06
4279.00,1.06
4278.00,1.06
4277.00,1.06
4276.00,1.05
4275.00,1.05
4274.00,1.05
4273.00,1.05
4272.00,1.05
4271.00,1.05
4270.00,1.05
4269.00,1.05
4268.00,1.05
4267.00,1.05
4266.00,1.05
4265.00,1.05
4264.00,1.06
4263.00,1.06
4262.00,1.06
4261.00,1.06
4260.00,1.06
4259.00,1.06
4258.00,1.06
4257.00,1.06
4256.00,1.06
4255.00,1.06
4254.00,1.06
4253.00,1.06
4252.00,1.06
4251.00,1.06
4250.00,1.06
4249.00,1.06
4248.00,1.06
4247.00,1.06
4246.00,1.06
4245.00,1.07
4244.00,1.07
4243.00,1.07
4242.00,1.07
4241.00,1.07
4240.00,1.07
4239.00,1.08
4238.00,1.08
4237.00,1.08
4236.00,1.08
4235.00,1.08
4234.00,1.08
4233.00,1.08
4232.00,1.08
4231.00,1.08
4230.00,1.08
4229.00,1.08
4228.00,1.08
4227.00,1.08
4226.00,1.08
4225.00,1.08
4224.00,1.08
4223.00,1.08
4222.00,1.08
4221.00,1.08
4220.00,1.08
4219.00,1.08
4218.00,1.08
4217.00,1.08
4216.00,1.08
4215.00,1.08
4214.00,1.08
4213.00,1.08
4212.00,1.08
4211.00,1.08
4210.00,1.08
4209.00,1.08
4208.00,1.08
4207.00,1.08
4206.00,1.08
4205.00,1.08
4204.00,1.08
4203.00,1.08
4202.00,1.08
4201.00,1.09
4200.00,1.09
4199.00,1.09
4198.00,1.09
4197.00,1.09
4196.00,1.09
4195.00,1.09
4194.00,1.09
4193.00,1.09
4192.00,1.09
4191.00,1.09
4190.00,1.09
4189.00,1.09
4188.00,1.10
4187.00,1.10
4186.00,1.10
4185.00,1.10
4184.00,1.10
4183.00,1.10
4182.00,1.10
4181.00,1.10
4180.00,1.10
4179.00,1.10
4178.00,1.10
4177.00,1.09
4176.00,1.09
4175.00,1.09
4174.00,1.09
4173.00,1.09
4172.00,1.09
4171.00,1.09
4170.00,1.09
4169.00,1.10
4168.00,1.10
4167.00,1.10
4166.00,1.10
4165.00,1.10
4164.00,1.10
4163.00,1.10
4162.00,1.10
4161.00,1.10
4160.00,1.10
4159.00,1.10
4158.00,1.10
4157.00,1.10
4156.00,1.10
4155.00,1.10
4154.00,1.11
4153.00,1.11
4152.00,1.11
4151.00,1.11
4150.00,1.11
4149.00,1.11
4148.00,1.11
4147.00,1.11
4146.00,1.11
4145.00,1.11
4144.00,1.11
4143.00,1.11
4142.00,1.11
4141.00,1.11
4140.00,1.11
4139.00,1.11
4138.00,1.11
4137.00,1.11
4136.00,1.11
4135.00,1.11
4134.00,1.11
4133.00,1.11
4132.00,1.11
4131.00,1.11
4130.00,1.11
4129.00,1.11
4128.00,1.11
4127.00,1.11
4126.00,1.11
4125.00,1.12
4124.00,1.12
4123.00,1.12
4122.00,1.12
4121.00,1.12
4120.00,1.12
4119.00,1.12
4118.00,1.12
4117.00,1.12
4116.00,1.12
4115.00,1.12
4114.00,1.12
4113.00,1.12
4112.00,1.12
4111.00,1.12
4110.00,1.12
4109.00,1.12
4108.00,1.12
4107.00,1.12
4106.00,1.12
4105.00,1.12
4104.00,1.12
4103.00,1.12
4102.00,1.12
4101.00,1.12
4100.00,1.12
4099.00,1.12
4098.00,1.12
4097.00,1.13
4096.00,1.13
4095.00,1.13
4094.00,1.13
4093.00,1.13
4092.00,1.13
4091.00,1.13
4090.00,1.13
4089.00,1.13
4088.00,1.13
4087.00,1.13
4086.00,1.13
4085.00,1.13
4084.00,1.13
4083.00,1.13
4082.00,1.13
4081.00,1.13
4080.00,1.13
4079.00,1.13
4078.00,1.13
4077.00,1.13
4076.00,1.13
4075.00,1.13
4074.00,1.13
4073.00,1.13
4072.00,1.13
4071.00,1.13
4070.00,1.13
4069.00,1.13
4068.00,1.13
4067.00,1.13
4066.00,1.13
4065.00,1.13
4064.00,1.14
4063.00,1.14
4062.00,1.14
4061.00,1.14
4060.00,1.14
4059.00,1.14
4058.00,1.14
4057.00,1.14
4056.00,1.14
4055.00,1.15
4054.00,1.15
4053.00,1.15
4052.00,1.15
4051.00,1.15
4050.00,1.15
4049.00,1.15
4048.00,1.15
4047.00,1.15
4046.00,1.15
4045.00,1.15
4044.00,1.15
4043.00,1.15
4042.00,1.15
4041.00,1.15
4040.00,1.15
4039.00,1.15
4038.00,1.15
4037.00,1.15
4036.00,1.15
4035.00,1.15
4034.00,1.15
4033.00,1.15
4032.00,1.15
4031.00,1.15
4030.00,1.15
4029.00,1.15
4028.00,1.15
4027.00,1.15
4026.00,1.15
4025.00,1.15
4024.00,1.15
4023.00,1.15
4022.00,1.15
4021.00,1.15
4020.00,1.15
4019.00,1.15
4018.00,1.14
4017.00,1.15
4016.00,1.15
4015.00,1.15
4014.00,1.15
4013.00,1.15
4012.00,1.15
4011.00,1.15
4010.00,1.15
4009.00,1.15
4008.00,1.15
4007.00,1.15
4006.00,1.16
4005.00,1.16
4004.00,1.16
4003.00,1.16
4002.00,1.16
4001.00,1.17
4000.00,1.17
