创建为新数据集,样品 760 用户 Administrator 日期 星期五, 七月 20 2018
cm-1,%T
10000.00,0.84
9999.00,0.84
9998.00,0.84
9997.00,0.84
9996.00,0.83
9995.00,0.83
9994.00,0.83
9993.00,0.83
9992.00,0.83
9991.00,0.82
9990.00,0.82
9989.00,0.82
9988.00,0.82
9987.00,0.82
9986.00,0.82
9985.00,0.81
9984.00,0.81
9983.00,0.81
9982.00,0.81
9981.00,0.81
9980.00,0.82
9979.00,0.82
9978.00,0.82
9977.00,0.82
9976.00,0.82
9975.00,0.83
9974.00,0.83
9973.00,0.83
9972.00,0.83
9971.00,0.83
9970.00,0.84
9969.00,0.84
9968.00,0.84
9967.00,0.84
9966.00,0.84
9965.00,0.84
9964.00,0.84
9963.00,0.84
9962.00,0.84
9961.00,0.83
9960.00,0.83
9959.00,0.83
9958.00,0.83
9957.00,0.83
9956.00,0.82
9955.00,0.82
9954.00,0.82
9953.00,0.82
9952.00,0.82
9951.00,0.82
9950.00,0.82
9949.00,0.82
9948.00,0.82
9947.00,0.82
9946.00,0.82
9945.00,0.82
9944.00,0.82
9943.00,0.82
9942.00,0.82
9941.00,0.82
9940.00,0.82
9939.00,0.82
9938.00,0.82
9937.00,0.82
9936.00,0.82
9935.00,0.82
9934.00,0.82
9933.00,0.82
9932.00,0.81
9931.00,0.81
9930.00,0.81
9929.00,0.81
9928.00,0.81
9927.00,0.81
9926.00,0.80
9925.00,0.80
9924.00,0.80
9923.00,0.80
9922.00,0.80
9921.00,0.80
9920.00,0.80
9919.00,0.80
9918.00,0.81
9917.00,0.81
9916.00,0.81
9915.00,0.81
9914.00,0.82
9913.00,0.82
9912.00,0.82
9911.00,0.82
9910.00,0.83
9909.00,0.83
9908.00,0.83
9907.00,0.83
9906.00,0.83
9905.00,0.83
9904.00,0.84
9903.00,0.84
9902.00,0.84
9901.00,0.84
9900.00,0.84
9899.00,0.84
9898.00,0.84
9897.00,0.84
9896.00,0.84
9895.00,0.83
9894.00,0.83
9893.00,0.83
9892.00,0.83
9891.00,0.83
9890.00,0.83
9889.00,0.83
9888.00,0.82
9887.00,0.82
9886.00,0.82
9885.00,0.82
9884.00,0.82
9883.00,0.81
9882.00,0.81
9881.00,0.81
9880.00,0.81
9879.00,0.81
9878.00,0.81
9877.00,0.81
9876.00,0.81
9875.00,0.81
9874.00,0.81
9873.00,0.81
9872.00,0.81
9871.00,0.81
9870.00,0.81
9869.00,0.81
9868.00,0.81
9867.00,0.81
9866.00,0.82
9865.00,0.82
9864.00,0.82
9863.00,0.82
9862.00,0.81
9861.00,0.81
9860.00,0.81
9859.00,0.81
9858.00,0.81
9857.00,0.81
9856.00,0.80
9855.00,0.80
9854.00,0.80
9853.00,0.80
9852.00,0.79
9851.00,0.79
9850.00,0.79
9849.00,0.79
9848.00,0.78
9847.00,0.78
9846.00,0.78
9845.00,0.78
9844.00,0.78
9843.00,0.78
9842.00,0.78
9841.00,0.78
9840.00,0.78
9839.00,0.78
9838.00,0.78
9837.00,0.79
9836.00,0.79
9835.00,0.79
9834.00,0.79
9833.00,0.79
9832.00,0.80
9831.00,0.80
9830.00,0.80
9829.00,0.80
9828.00,0.80
9827.00,0.80
9826.00,0.80
9825.00,0.80
9824.00,0.81
9823.00,0.81
9822.00,0.81
9821.00,0.81
9820.00,0.81
9819.00,0.81
9818.00,0.81
9817.00,0.81
9816.00,0.81
9815.00,0.81
9814.00,0.81
9813.00,0.81
9812.00,0.81
9811.00,0.81
9810.00,0.81
9809.00,0.81
9808.00,0.81
9807.00,0.82
9806.00,0.82
9805.00,0.82
9804.00,0.82
9803.00,0.82
9802.00,0.82
9801.00,0.83
9800.00,0.83
9799.00,0.83
9798.00,0.83
9797.00,0.83
9796.00,0.84
9795.00,0.84
9794.00,0.84
9793.00,0.84
9792.00,0.84
9791.00,0.84
9790.00,0.84
9789.00,0.84
9788.00,0.83
9787.00,0.83
9786.00,0.83
9785.00,0.83
9784.00,0.82
9783.00,0.82
9782.00,0.82
9781.00,0.81
9780.00,0.81
9779.00,0.81
9778.00,0.81
9777.00,0.80
9776.00,0.80
9775.00,0.80
9774.00,0.80
9773.00,0.80
9772.00,0.80
9771.00,0.80
9770.00,0.80
9769.00,0.80
9768.00,0.80
9767.00,0.80
9766.00,0.80
9765.00,0.81
9764.00,0.81
9763.00,0.81
9762.00,0.81
9761.00,0.81
9760.00,0.81
9759.00,0.81
9758.00,0.81
9757.00,0.81
9756.00,0.81
9755.00,0.82
9754.00,0.82
9753.00,0.82
9752.00,0.82
9751.00,0.82
9750.00,0.82
9749.00,0.82
9748.00,0.82
9747.00,0.82
9746.00,0.82
9745.00,0.82
9744.00,0.82
9743.00,0.82
9742.00,0.82
9741.00,0.82
9740.00,0.82
9739.00,0.82
9738.00,0.82
9737.00,0.82
9736.00,0.82
9735.00,0.82
9734.00,0.82
9733.00,0.82
9732.00,0.82
9731.00,0.82
9730.00,0.82
9729.00,0.81
9728.00,0.81
9727.00,0.81
9726.00,0.81
9725.00,0.81
9724.00,0.80
9723.00,0.80
9722.00,0.80
9721.00,0.80
9720.00,0.80
9719.00,0.80
9718.00,0.80
9717.00,0.80
9716.00,0.80
9715.00,0.80
9714.00,0.80
9713.00,0.80
9712.00,0.80
9711.00,0.80
9710.00,0.80
9709.00,0.80
9708.00,0.81
9707.00,0.81
9706.00,0.81
9705.00,0.81
9704.00,0.81
9703.00,0.81
9702.00,0.81
9701.00,0.81
9700.00,0.81
9699.00,0.81
9698.00,0.81
9697.00,0.81
9696.00,0.81
9695.00,0.81
9694.00,0.81
9693.00,0.81
9692.00,0.81
9691.00,0.81
9690.00,0.81
9689.00,0.81
9688.00,0.81
9687.00,0.81
9686.00,0.81
9685.00,0.81
9684.00,0.81
9683.00,0.81
9682.00,0.81
9681.00,0.81
9680.00,0.81
9679.00,0.81
9678.00,0.81
9677.00,0.81
9676.00,0.81
9675.00,0.81
9674.00,0.80
9673.00,0.80
9672.00,0.80
9671.00,0.80
9670.00,0.80
9669.00,0.80
9668.00,0.80
9667.00,0.80
9666.00,0.80
9665.00,0.80
9664.00,0.80
9663.00,0.80
9662.00,0.80
9661.00,0.80
9660.00,0.81
9659.00,0.81
9658.00,0.81
9657.00,0.81
9656.00,0.81
9655.00,0.81
9654.00,0.82
9653.00,0.82
9652.00,0.82
9651.00,0.82
9650.00,0.82
9649.00,0.81
9648.00,0.81
9647.00,0.81
9646.00,0.81
9645.00,0.81
9644.00,0.81
9643.00,0.81
9642.00,0.81
9641.00,0.81
9640.00,0.81
9639.00,0.80
9638.00,0.80
9637.00,0.80
9636.00,0.80
9635.00,0.80
9634.00,0.80
9633.00,0.80
9632.00,0.80
9631.00,0.80
9630.00,0.80
9629.00,0.80
9628.00,0.80
9627.00,0.80
9626.00,0.80
9625.00,0.80
9624.00,0.80
9623.00,0.80
9622.00,0.80
9621.00,0.80
9620.00,0.80
9619.00,0.80
9618.00,0.80
9617.00,0.81
9616.00,0.81
9615.00,0.81
9614.00,0.81
9613.00,0.81
9612.00,0.81
9611.00,0.81
9610.00,0.81
9609.00,0.82
9608.00,0.82
9607.00,0.82
9606.00,0.82
9605.00,0.82
9604.00,0.82
9603.00,0.82
9602.00,0.82
9601.00,0.83
9600.00,0.83
9599.00,0.83
9598.00,0.83
9597.00,0.82
9596.00,0.82
9595.00,0.82
9594.00,0.82
9593.00,0.82
9592.00,0.82
9591.00,0.82
9590.00,0.81
9589.00,0.81
9588.00,0.81
9587.00,0.81
9586.00,0.81
9585.00,0.81
9584.00,0.80
9583.00,0.80
9582.00,0.80
9581.00,0.80
9580.00,0.80
9579.00,0.80
9578.00,0.80
9577.00,0.80
9576.00,0.80
9575.00,0.80
9574.00,0.80
9573.00,0.80
9572.00,0.80
9571.00,0.80
9570.00,0.80
9569.00,0.81
9568.00,0.81
9567.00,0.81
9566.00,0.81
9565.00,0.81
9564.00,0.81
9563.00,0.81
9562.00,0.81
9561.00,0.80
9560.00,0.80
9559.00,0.80
9558.00,0.80
9557.00,0.80
9556.00,0.80
9555.00,0.80
9554.00,0.80
9553.00,0.80
9552.00,0.80
9551.00,0.80
9550.00,0.79
9549.00,0.79
9548.00,0.79
9547.00,0.79
9546.00,0.79
9545.00,0.79
9544.00,0.79
9543.00,0.79
9542.00,0.79
9541.00,0.80
9540.00,0.80
9539.00,0.80
9538.00,0.80
9537.00,0.80
9536.00,0.80
9535.00,0.80
9534.00,0.80
9533.00,0.80
9532.00,0.80
9531.00,0.80
9530.00,0.81
9529.00,0.81
9528.00,0.81
9527.00,0.81
9526.00,0.81
9525.00,0.81
9524.00,0.81
9523.00,0.81
9522.00,0.81
9521.00,0.82
9520.00,0.82
9519.00,0.82
9518.00,0.82
9517.00,0.82
9516.00,0.82
9515.00,0.82
9514.00,0.82
9513.00,0.82
9512.00,0.83
9511.00,0.83
9510.00,0.83
9509.00,0.83
9508.00,0.83
9507.00,0.83
9506.00,0.83
9505.00,0.83
9504.00,0.83
9503.00,0.82
9502.00,0.82
9501.00,0.82
9500.00,0.82
9499.00,0.82
9498.00,0.82
9497.00,0.82
9496.00,0.82
9495.00,0.82
9494.00,0.82
9493.00,0.82
9492.00,0.82
9491.00,0.82
9490.00,0.83
9489.00,0.83
9488.00,0.83
9487.00,0.83
9486.00,0.83
9485.00,0.83
9484.00,0.83
9483.00,0.83
9482.00,0.83
9481.00,0.83
9480.00,0.83
9479.00,0.83
9478.00,0.83
9477.00,0.83
9476.00,0.82
9475.00,0.82
9474.00,0.82
9473.00,0.82
9472.00,0.82
9471.00,0.82
9470.00,0.82
9469.00,0.82
9468.00,0.82
9467.00,0.82
9466.00,0.82
9465.00,0.82
9464.00,0.82
9463.00,0.82
9462.00,0.81
9461.00,0.81
9460.00,0.81
9459.00,0.81
9458.00,0.81
9457.00,0.81
9456.00,0.81
9455.00,0.81
9454.00,0.81
9453.00,0.81
9452.00,0.81
9451.00,0.81
9450.00,0.81
9449.00,0.81
9448.00,0.81
9447.00,0.81
9446.00,0.81
9445.00,0.81
9444.00,0.81
9443.00,0.81
9442.00,0.82
9441.00,0.82
9440.00,0.82
9439.00,0.82
9438.00,0.82
9437.00,0.82
9436.00,0.82
9435.00,0.83
9434.00,0.83
9433.00,0.83
9432.00,0.83
9431.00,0.83
9430.00,0.83
9429.00,0.83
9428.00,0.83
9427.00,0.83
9426.00,0.83
9425.00,0.83
9424.00,0.83
9423.00,0.83
9422.00,0.83
9421.00,0.83
9420.00,0.83
9419.00,0.83
9418.00,0.82
9417.00,0.82
9416.00,0.82
9415.00,0.82
9414.00,0.82
9413.00,0.82
9412.00,0.82
9411.00,0.81
9410.00,0.81
9409.00,0.81
9408.00,0.81
9407.00,0.81
9406.00,0.81
9405.00,0.80
9404.00,0.80
9403.00,0.80
9402.00,0.80
9401.00,0.80
9400.00,0.80
9399.00,0.80
9398.00,0.80
9397.00,0.80
9396.00,0.80
9395.00,0.81
9394.00,0.81
9393.00,0.81
9392.00,0.81
9391.00,0.81
9390.00,0.81
9389.00,0.82
9388.00,0.82
9387.00,0.82
9386.00,0.82
9385.00,0.82
9384.00,0.82
9383.00,0.82
9382.00,0.82
9381.00,0.82
9380.00,0.82
9379.00,0.82
9378.00,0.82
9377.00,0.82
9376.00,0.82
9375.00,0.82
9374.00,0.82
9373.00,0.82
9372.00,0.82
9371.00,0.82
9370.00,0.82
9369.00,0.82
9368.00,0.82
9367.00,0.82
9366.00,0.82
9365.00,0.82
9364.00,0.82
9363.00,0.82
9362.00,0.82
9361.00,0.82
9360.00,0.82
9359.00,0.82
9358.00,0.82
9357.00,0.82
9356.00,0.82
9355.00,0.82
9354.00,0.82
9353.00,0.82
9352.00,0.82
9351.00,0.82
9350.00,0.82
9349.00,0.82
9348.00,0.82
9347.00,0.82
9346.00,0.82
9345.00,0.82
9344.00,0.82
9343.00,0.83
9342.00,0.83
9341.00,0.83
9340.00,0.83
9339.00,0.83
9338.00,0.83
9337.00,0.83
9336.00,0.83
9335.00,0.83
9334.00,0.83
9333.00,0.83
9332.00,0.83
9331.00,0.83
9330.00,0.83
9329.00,0.83
9328.00,0.83
9327.00,0.83
9326.00,0.83
9325.00,0.83
9324.00,0.83
9323.00,0.83
9322.00,0.83
9321.00,0.83
9320.00,0.83
9319.00,0.83
9318.00,0.83
9317.00,0.83
9316.00,0.83
9315.00,0.83
9314.00,0.83
9313.00,0.83
9312.00,0.83
9311.00,0.83
9310.00,0.83
9309.00,0.83
9308.00,0.83
9307.00,0.82
9306.00,0.82
9305.00,0.82
9304.00,0.82
9303.00,0.82
9302.00,0.82
9301.00,0.82
9300.00,0.82
9299.00,0.83
9298.00,0.83
9297.00,0.83
9296.00,0.83
9295.00,0.83
9294.00,0.83
9293.00,0.83
9292.00,0.84
9291.00,0.84
9290.00,0.84
9289.00,0.84
9288.00,0.84
9287.00,0.84
9286.00,0.84
9285.00,0.84
9284.00,0.84
9283.00,0.84
9282.00,0.83
9281.00,0.83
9280.00,0.83
9279.00,0.83
9278.00,0.83
9277.00,0.83
9276.00,0.83
9275.00,0.82
9274.00,0.82
9273.00,0.82
9272.00,0.82
9271.00,0.82
9270.00,0.82
9269.00,0.82
9268.00,0.83
9267.00,0.83
9266.00,0.83
9265.00,0.83
9264.00,0.83
9263.00,0.83
9262.00,0.83
9261.00,0.83
9260.00,0.83
9259.00,0.83
9258.00,0.83
9257.00,0.83
9256.00,0.83
9255.00,0.83
9254.00,0.83
9253.00,0.83
9252.00,0.83
9251.00,0.83
9250.00,0.83
9249.00,0.83
9248.00,0.83
9247.00,0.83
9246.00,0.82
9245.00,0.82
9244.00,0.82
9243.00,0.82
9242.00,0.82
9241.00,0.82
9240.00,0.82
9239.00,0.82
9238.00,0.82
9237.00,0.82
9236.00,0.82
9235.00,0.82
9234.00,0.82
9233.00,0.82
9232.00,0.82
9231.00,0.82
9230.00,0.82
9229.00,0.82
9228.00,0.82
9227.00,0.82
9226.00,0.82
9225.00,0.82
9224.00,0.82
9223.00,0.82
9222.00,0.82
9221.00,0.82
9220.00,0.82
9219.00,0.82
9218.00,0.82
9217.00,0.82
9216.00,0.82
9215.00,0.82
9214.00,0.82
9213.00,0.82
9212.00,0.82
9211.00,0.82
9210.00,0.83
9209.00,0.83
9208.00,0.83
9207.00,0.83
9206.00,0.83
9205.00,0.83
9204.00,0.83
9203.00,0.83
9202.00,0.83
9201.00,0.83
9200.00,0.83
9199.00,0.83
9198.00,0.83
9197.00,0.83
9196.00,0.83
9195.00,0.83
9194.00,0.83
9193.00,0.83
9192.00,0.83
9191.00,0.83
9190.00,0.83
9189.00,0.82
9188.00,0.82
9187.00,0.82
9186.00,0.82
9185.00,0.82
9184.00,0.81
9183.00,0.81
9182.00,0.81
9181.00,0.81
9180.00,0.81
9179.00,0.81
9178.00,0.81
9177.00,0.81
9176.00,0.81
9175.00,0.81
9174.00,0.81
9173.00,0.81
9172.00,0.81
9171.00,0.81
9170.00,0.81
9169.00,0.82
9168.00,0.82
9167.00,0.82
9166.00,0.82
9165.00,0.82
9164.00,0.82
9163.00,0.83
9162.00,0.83
9161.00,0.83
9160.00,0.83
9159.00,0.83
9158.00,0.83
9157.00,0.83
9156.00,0.83
9155.00,0.83
9154.00,0.83
9153.00,0.83
9152.00,0.83
9151.00,0.83
9150.00,0.83
9149.00,0.83
9148.00,0.83
9147.00,0.83
9146.00,0.83
9145.00,0.83
9144.00,0.83
9143.00,0.82
9142.00,0.82
9141.00,0.82
9140.00,0.82
9139.00,0.82
9138.00,0.82
9137.00,0.82
9136.00,0.82
9135.00,0.82
9134.00,0.82
9133.00,0.82
9132.00,0.82
9131.00,0.82
9130.00,0.82
9129.00,0.83
9128.00,0.83
9127.00,0.83
9126.00,0.83
9125.00,0.83
9124.00,0.83
9123.00,0.84
9122.00,0.84
9121.00,0.84
9120.00,0.84
9119.00,0.84
9118.00,0.84
9117.00,0.84
9116.00,0.84
9115.00,0.84
9114.00,0.84
9113.00,0.84
9112.00,0.83
9111.00,0.83
9110.00,0.83
9109.00,0.83
9108.00,0.83
9107.00,0.83
9106.00,0.83
9105.00,0.83
9104.00,0.83
9103.00,0.82
9102.00,0.82
9101.00,0.82
9100.00,0.82
9099.00,0.82
9098.00,0.82
9097.00,0.82
9096.00,0.83
9095.00,0.83
9094.00,0.83
9093.00,0.83
9092.00,0.83
9091.00,0.83
9090.00,0.83
9089.00,0.83
9088.00,0.83
9087.00,0.83
9086.00,0.84
9085.00,0.84
9084.00,0.84
9083.00,0.84
9082.00,0.84
9081.00,0.84
9080.00,0.84
9079.00,0.84
9078.00,0.84
9077.00,0.84
9076.00,0.84
9075.00,0.84
9074.00,0.83
9073.00,0.83
9072.00,0.83
9071.00,0.83
9070.00,0.83
9069.00,0.82
9068.00,0.82
9067.00,0.82
9066.00,0.82
9065.00,0.82
9064.00,0.81
9063.00,0.81
9062.00,0.81
9061.00,0.81
9060.00,0.81
9059.00,0.81
9058.00,0.81
9057.00,0.81
9056.00,0.81
9055.00,0.81
9054.00,0.81
9053.00,0.81
9052.00,0.82
9051.00,0.82
9050.00,0.82
9049.00,0.82
9048.00,0.82
9047.00,0.82
9046.00,0.82
9045.00,0.82
9044.00,0.82
9043.00,0.82
9042.00,0.82
9041.00,0.82
9040.00,0.82
9039.00,0.82
9038.00,0.82
9037.00,0.82
9036.00,0.82
9035.00,0.82
9034.00,0.82
9033.00,0.82
9032.00,0.82
9031.00,0.82
9030.00,0.81
9029.00,0.81
9028.00,0.81
9027.00,0.81
9026.00,0.81
9025.00,0.81
9024.00,0.81
9023.00,0.81
9022.00,0.81
9021.00,0.81
9020.00,0.81
9019.00,0.81
9018.00,0.81
9017.00,0.81
9016.00,0.81
9015.00,0.81
9014.00,0.81
9013.00,0.81
9012.00,0.81
9011.00,0.81
9010.00,0.81
9009.00,0.81
9008.00,0.81
9007.00,0.81
9006.00,0.81
9005.00,0.81
9004.00,0.81
9003.00,0.81
9002.00,0.81
9001.00,0.81
9000.00,0.81
8999.00,0.81
8998.00,0.82
8997.00,0.82
8996.00,0.82
8995.00,0.82
8994.00,0.82
8993.00,0.82
8992.00,0.82
8991.00,0.82
8990.00,0.82
8989.00,0.83
8988.00,0.83
8987.00,0.83
8986.00,0.83
8985.00,0.83
8984.00,0.83
8983.00,0.83
8982.00,0.83
8981.00,0.83
8980.00,0.83
8979.00,0.83
8978.00,0.83
8977.00,0.83
8976.00,0.83
8975.00,0.83
8974.00,0.83
8973.00,0.83
8972.00,0.83
8971.00,0.83
8970.00,0.83
8969.00,0.83
8968.00,0.82
8967.00,0.82
8966.00,0.82
8965.00,0.82
8964.00,0.82
8963.00,0.82
8962.00,0.82
8961.00,0.82
8960.00,0.82
8959.00,0.82
8958.00,0.82
8957.00,0.82
8956.00,0.82
8955.00,0.82
8954.00,0.82
8953.00,0.82
8952.00,0.82
8951.00,0.82
8950.00,0.82
8949.00,0.82
8948.00,0.82
8947.00,0.82
8946.00,0.82
8945.00,0.82
8944.00,0.82
8943.00,0.82
8942.00,0.82
8941.00,0.82
8940.00,0.82
8939.00,0.82
8938.00,0.82
8937.00,0.82
8936.00,0.82
8935.00,0.82
8934.00,0.82
8933.00,0.82
8932.00,0.83
8931.00,0.83
8930.00,0.83
8929.00,0.83
8928.00,0.83
8927.00,0.83
8926.00,0.83
8925.00,0.83
8924.00,0.83
8923.00,0.83
8922.00,0.83
8921.00,0.83
8920.00,0.83
8919.00,0.83
8918.00,0.83
8917.00,0.83
8916.00,0.83
8915.00,0.83
8914.00,0.83
8913.00,0.83
8912.00,0.83
8911.00,0.83
8910.00,0.83
8909.00,0.83
8908.00,0.83
8907.00,0.84
8906.00,0.84
8905.00,0.84
8904.00,0.84
8903.00,0.84
8902.00,0.84
8901.00,0.84
8900.00,0.84
8899.00,0.84
8898.00,0.84
8897.00,0.83
8896.00,0.83
8895.00,0.83
8894.00,0.83
8893.00,0.83
8892.00,0.84
8891.00,0.84
8890.00,0.84
8889.00,0.84
8888.00,0.84
8887.00,0.84
8886.00,0.84
8885.00,0.84
8884.00,0.84
8883.00,0.84
8882.00,0.84
8881.00,0.84
8880.00,0.84
8879.00,0.84
8878.00,0.83
8877.00,0.83
8876.00,0.83
8875.00,0.83
8874.00,0.83
8873.00,0.83
8872.00,0.83
8871.00,0.83
8870.00,0.83
8869.00,0.83
8868.00,0.82
8867.00,0.82
8866.00,0.82
8865.00,0.82
8864.00,0.82
8863.00,0.82
8862.00,0.82
8861.00,0.82
8860.00,0.82
8859.00,0.83
8858.00,0.83
8857.00,0.83
8856.00,0.83
8855.00,0.83
8854.00,0.83
8853.00,0.83
8852.00,0.83
8851.00,0.83
8850.00,0.83
8849.00,0.83
8848.00,0.83
8847.00,0.83
8846.00,0.83
8845.00,0.83
8844.00,0.83
8843.00,0.83
8842.00,0.83
8841.00,0.83
8840.00,0.83
8839.00,0.82
8838.00,0.82
8837.00,0.82
8836.00,0.82
8835.00,0.82
8834.00,0.82
8833.00,0.82
8832.00,0.82
8831.00,0.82
8830.00,0.82
8829.00,0.82
8828.00,0.82
8827.00,0.82
8826.00,0.82
8825.00,0.82
8824.00,0.82
8823.00,0.82
8822.00,0.82
8821.00,0.82
8820.00,0.82
8819.00,0.82
8818.00,0.82
8817.00,0.82
8816.00,0.82
8815.00,0.82
8814.00,0.82
8813.00,0.82
8812.00,0.81
8811.00,0.81
8810.00,0.81
8809.00,0.81
8808.00,0.81
8807.00,0.81
8806.00,0.81
8805.00,0.81
8804.00,0.81
8803.00,0.81
8802.00,0.81
8801.00,0.80
8800.00,0.80
8799.00,0.80
8798.00,0.80
8797.00,0.80
8796.00,0.80
8795.00,0.80
8794.00,0.80
8793.00,0.80
8792.00,0.80
8791.00,0.80
8790.00,0.81
8789.00,0.81
8788.00,0.81
8787.00,0.81
8786.00,0.81
8785.00,0.81
8784.00,0.81
8783.00,0.81
8782.00,0.81
8781.00,0.81
8780.00,0.81
8779.00,0.81
8778.00,0.81
8777.00,0.81
8776.00,0.81
8775.00,0.81
8774.00,0.81
8773.00,0.81
8772.00,0.81
8771.00,0.81
8770.00,0.81
8769.00,0.81
8768.00,0.81
8767.00,0.81
8766.00,0.81
8765.00,0.81
8764.00,0.81
8763.00,0.81
8762.00,0.81
8761.00,0.81
8760.00,0.81
8759.00,0.81
8758.00,0.81
8757.00,0.81
8756.00,0.80
8755.00,0.80
8754.00,0.80
8753.00,0.80
8752.00,0.80
8751.00,0.80
8750.00,0.80
8749.00,0.80
8748.00,0.80
8747.00,0.80
8746.00,0.80
8745.00,0.80
8744.00,0.80
8743.00,0.80
8742.00,0.80
8741.00,0.80
8740.00,0.80
8739.00,0.80
8738.00,0.80
8737.00,0.80
8736.00,0.80
8735.00,0.80
8734.00,0.80
8733.00,0.80
8732.00,0.80
8731.00,0.80
8730.00,0.80
8729.00,0.80
8728.00,0.81
8727.00,0.81
8726.00,0.81
8725.00,0.81
8724.00,0.81
8723.00,0.81
8722.00,0.81
8721.00,0.81
8720.00,0.81
8719.00,0.81
8718.00,0.81
8717.00,0.81
8716.00,0.81
8715.00,0.81
8714.00,0.80
8713.00,0.80
8712.00,0.80
8711.00,0.80
8710.00,0.80
8709.00,0.80
8708.00,0.80
8707.00,0.80
8706.00,0.80
8705.00,0.80
8704.00,0.80
8703.00,0.80
8702.00,0.81
8701.00,0.81
8700.00,0.81
8699.00,0.81
8698.00,0.81
8697.00,0.81
8696.00,0.81
8695.00,0.81
8694.00,0.81
8693.00,0.81
8692.00,0.81
8691.00,0.81
8690.00,0.81
8689.00,0.81
8688.00,0.81
8687.00,0.81
8686.00,0.80
8685.00,0.80
8684.00,0.80
8683.00,0.80
8682.00,0.80
8681.00,0.79
8680.00,0.79
8679.00,0.79
8678.00,0.79
8677.00,0.78
8676.00,0.78
8675.00,0.78
8674.00,0.78
8673.00,0.78
8672.00,0.78
8671.00,0.78
8670.00,0.78
8669.00,0.78
8668.00,0.78
8667.00,0.78
8666.00,0.78
8665.00,0.78
8664.00,0.78
8663.00,0.78
8662.00,0.78
8661.00,0.79
8660.00,0.79
8659.00,0.79
8658.00,0.79
8657.00,0.79
8656.00,0.79
8655.00,0.80
8654.00,0.80
8653.00,0.80
8652.00,0.80
8651.00,0.80
8650.00,0.80
8649.00,0.80
8648.00,0.80
8647.00,0.80
8646.00,0.80
8645.00,0.79
8644.00,0.79
8643.00,0.79
8642.00,0.79
8641.00,0.79
8640.00,0.79
8639.00,0.78
8638.00,0.78
8637.00,0.78
8636.00,0.78
8635.00,0.78
8634.00,0.78
8633.00,0.78
8632.00,0.77
8631.00,0.77
8630.00,0.77
8629.00,0.77
8628.00,0.77
8627.00,0.77
8626.00,0.77
8625.00,0.77
8624.00,0.77
8623.00,0.77
8622.00,0.77
8621.00,0.77
8620.00,0.77
8619.00,0.77
8618.00,0.77
8617.00,0.77
8616.00,0.77
8615.00,0.77
8614.00,0.77
8613.00,0.77
8612.00,0.77
8611.00,0.77
8610.00,0.77
8609.00,0.77
8608.00,0.77
8607.00,0.77
8606.00,0.77
8605.00,0.77
8604.00,0.77
8603.00,0.77
8602.00,0.77
8601.00,0.77
8600.00,0.77
8599.00,0.77
8598.00,0.77
8597.00,0.77
8596.00,0.77
8595.00,0.77
8594.00,0.78
8593.00,0.78
8592.00,0.78
8591.00,0.78
8590.00,0.78
8589.00,0.78
8588.00,0.78
8587.00,0.78
8586.00,0.78
8585.00,0.78
8584.00,0.78
8583.00,0.78
8582.00,0.78
8581.00,0.78
8580.00,0.78
8579.00,0.78
8578.00,0.78
8577.00,0.78
8576.00,0.78
8575.00,0.78
8574.00,0.78
8573.00,0.78
8572.00,0.78
8571.00,0.78
8570.00,0.78
8569.00,0.78
8568.00,0.78
8567.00,0.78
8566.00,0.78
8565.00,0.78
8564.00,0.78
8563.00,0.78
8562.00,0.78
8561.00,0.78
8560.00,0.78
8559.00,0.78
8558.00,0.78
8557.00,0.78
8556.00,0.78
8555.00,0.77
8554.00,0.77
8553.00,0.77
8552.00,0.77
8551.00,0.77
8550.00,0.77
8549.00,0.77
8548.00,0.77
8547.00,0.77
8546.00,0.77
8545.00,0.77
8544.00,0.77
8543.00,0.76
8542.00,0.76
8541.00,0.76
8540.00,0.76
8539.00,0.76
8538.00,0.76
8537.00,0.76
8536.00,0.75
8535.00,0.75
8534.00,0.75
8533.00,0.75
8532.00,0.75
8531.00,0.75
8530.00,0.75
8529.00,0.75
8528.00,0.75
8527.00,0.75
8526.00,0.75
8525.00,0.75
8524.00,0.75
8523.00,0.75
8522.00,0.76
8521.00,0.76
8520.00,0.76
8519.00,0.76
8518.00,0.76
8517.00,0.76
8516.00,0.76
8515.00,0.76
8514.00,0.76
8513.00,0.76
8512.00,0.76
8511.00,0.76
8510.00,0.76
8509.00,0.76
8508.00,0.76
8507.00,0.76
8506.00,0.76
8505.00,0.76
8504.00,0.76
8503.00,0.75
8502.00,0.75
8501.00,0.75
8500.00,0.75
8499.00,0.75
8498.00,0.75
8497.00,0.75
8496.00,0.75
8495.00,0.75
8494.00,0.75
8493.00,0.75
8492.00,0.75
8491.00,0.75
8490.00,0.75
8489.00,0.75
8488.00,0.75
8487.00,0.75
8486.00,0.75
8485.00,0.74
8484.00,0.74
8483.00,0.74
8482.00,0.74
8481.00,0.74
8480.00,0.74
8479.00,0.74
8478.00,0.74
8477.00,0.74
8476.00,0.74
8475.00,0.74
8474.00,0.74
8473.00,0.74
8472.00,0.74
8471.00,0.74
8470.00,0.74
8469.00,0.74
8468.00,0.74
8467.00,0.74
8466.00,0.73
8465.00,0.73
8464.00,0.73
8463.00,0.73
8462.00,0.73
8461.00,0.73
8460.00,0.73
8459.00,0.73
8458.00,0.73
8457.00,0.72
8456.00,0.72
8455.00,0.72
8454.00,0.72
8453.00,0.72
8452.00,0.72
8451.00,0.72
8450.00,0.72
8449.00,0.72
8448.00,0.72
8447.00,0.72
8446.00,0.72
8445.00,0.72
8444.00,0.73
8443.00,0.73
8442.00,0.73
8441.00,0.73
8440.00,0.73
8439.00,0.73
8438.00,0.73
8437.00,0.73
8436.00,0.73
8435.00,0.73
8434.00,0.73
8433.00,0.73
8432.00,0.73
8431.00,0.73
8430.00,0.73
8429.00,0.73
8428.00,0.73
8427.00,0.73
8426.00,0.73
8425.00,0.73
8424.00,0.73
8423.00,0.73
8422.00,0.73
8421.00,0.73
8420.00,0.73
8419.00,0.72
8418.00,0.72
8417.00,0.72
8416.00,0.72
8415.00,0.72
8414.00,0.72
8413.00,0.72
8412.00,0.72
8411.00,0.72
8410.00,0.72
8409.00,0.72
8408.00,0.72
8407.00,0.72
8406.00,0.73
8405.00,0.73
8404.00,0.73
8403.00,0.73
8402.00,0.73
8401.00,0.73
8400.00,0.73
8399.00,0.74
8398.00,0.74
8397.00,0.74
8396.00,0.74
8395.00,0.74
8394.00,0.74
8393.00,0.74
8392.00,0.74
8391.00,0.74
8390.00,0.75
8389.00,0.75
8388.00,0.75
8387.00,0.75
8386.00,0.75
8385.00,0.75
8384.00,0.75
8383.00,0.75
8382.00,0.75
8381.00,0.75
8380.00,0.75
8379.00,0.75
8378.00,0.75
8377.00,0.75
8376.00,0.75
8375.00,0.75
8374.00,0.75
8373.00,0.75
8372.00,0.75
8371.00,0.75
8370.00,0.75
8369.00,0.75
8368.00,0.75
8367.00,0.75
8366.00,0.75
8365.00,0.76
8364.00,0.76
8363.00,0.76
8362.00,0.76
8361.00,0.76
8360.00,0.76
8359.00,0.76
8358.00,0.76
8357.00,0.76
8356.00,0.76
8355.00,0.76
8354.00,0.76
8353.00,0.76
8352.00,0.76
8351.00,0.76
8350.00,0.76
8349.00,0.76
8348.00,0.76
8347.00,0.76
8346.00,0.76
8345.00,0.76
8344.00,0.76
8343.00,0.76
8342.00,0.76
8341.00,0.76
8340.00,0.76
8339.00,0.76
8338.00,0.76
8337.00,0.76
8336.00,0.76
8335.00,0.76
8334.00,0.76
8333.00,0.76
8332.00,0.76
8331.00,0.76
8330.00,0.76
8329.00,0.76
8328.00,0.76
8327.00,0.76
8326.00,0.76
8325.00,0.76
8324.00,0.76
8323.00,0.76
8322.00,0.76
8321.00,0.76
8320.00,0.76
8319.00,0.76
8318.00,0.76
8317.00,0.76
8316.00,0.76
8315.00,0.76
8314.00,0.76
8313.00,0.76
8312.00,0.76
8311.00,0.76
8310.00,0.76
8309.00,0.76
8308.00,0.76
8307.00,0.76
8306.00,0.76
8305.00,0.75
8304.00,0.75
8303.00,0.75
8302.00,0.75
8301.00,0.75
8300.00,0.75
8299.00,0.75
8298.00,0.76
8297.00,0.76
8296.00,0.76
8295.00,0.76
8294.00,0.76
8293.00,0.76
8292.00,0.76
8291.00,0.76
8290.00,0.76
8289.00,0.76
8288.00,0.76
8287.00,0.76
8286.00,0.76
8285.00,0.76
8284.00,0.76
8283.00,0.76
8282.00,0.76
8281.00,0.76
8280.00,0.77
8279.00,0.77
8278.00,0.77
8277.00,0.77
8276.00,0.77
8275.00,0.77
8274.00,0.77
8273.00,0.77
8272.00,0.77
8271.00,0.77
8270.00,0.77
8269.00,0.77
8268.00,0.77
8267.00,0.77
8266.00,0.77
8265.00,0.77
8264.00,0.77
8263.00,0.77
8262.00,0.77
8261.00,0.77
8260.00,0.77
8259.00,0.77
8258.00,0.77
8257.00,0.77
8256.00,0.77
8255.00,0.77
8254.00,0.77
8253.00,0.77
8252.00,0.77
8251.00,0.77
8250.00,0.77
8249.00,0.77
8248.00,0.77
8247.00,0.77
8246.00,0.77
8245.00,0.77
8244.00,0.77
8243.00,0.77
8242.00,0.77
8241.00,0.77
8240.00,0.77
8239.00,0.77
8238.00,0.77
8237.00,0.77
8236.00,0.77
8235.00,0.77
8234.00,0.77
8233.00,0.77
8232.00,0.77
8231.00,0.77
8230.00,0.77
8229.00,0.77
8228.00,0.77
8227.00,0.77
8226.00,0.77
8225.00,0.77
8224.00,0.77
8223.00,0.77
8222.00,0.77
8221.00,0.77
8220.00,0.77
8219.00,0.77
8218.00,0.77
8217.00,0.77
8216.00,0.77
8215.00,0.77
8214.00,0.77
8213.00,0.78
8212.00,0.78
8211.00,0.78
8210.00,0.78
8209.00,0.78
8208.00,0.78
8207.00,0.78
8206.00,0.78
8205.00,0.78
8204.00,0.78
8203.00,0.78
8202.00,0.78
8201.00,0.78
8200.00,0.78
8199.00,0.78
8198.00,0.78
8197.00,0.78
8196.00,0.78
8195.00,0.78
8194.00,0.78
8193.00,0.78
8192.00,0.78
8191.00,0.78
8190.00,0.78
8189.00,0.78
8188.00,0.78
8187.00,0.78
8186.00,0.78
8185.00,0.78
8184.00,0.78
8183.00,0.78
8182.00,0.78
8181.00,0.78
8180.00,0.78
8179.00,0.78
8178.00,0.78
8177.00,0.78
8176.00,0.78
8175.00,0.78
8174.00,0.78
8173.00,0.78
8172.00,0.78
8171.00,0.78
8170.00,0.78
8169.00,0.79
8168.00,0.79
8167.00,0.79
8166.00,0.79
8165.00,0.79
8164.00,0.79
8163.00,0.79
8162.00,0.79
8161.00,0.79
8160.00,0.79
8159.00,0.79
8158.00,0.79
8157.00,0.79
8156.00,0.79
8155.00,0.79
8154.00,0.79
8153.00,0.79
8152.00,0.79
8151.00,0.79
8150.00,0.79
8149.00,0.79
8148.00,0.79
8147.00,0.78
8146.00,0.78
8145.00,0.78
8144.00,0.78
8143.00,0.78
8142.00,0.78
8141.00,0.78
8140.00,0.78
8139.00,0.78
8138.00,0.78
8137.00,0.78
8136.00,0.78
8135.00,0.78
8134.00,0.78
8133.00,0.78
8132.00,0.78
8131.00,0.78
8130.00,0.78
8129.00,0.78
8128.00,0.78
8127.00,0.78
8126.00,0.78
8125.00,0.78
8124.00,0.78
8123.00,0.78
8122.00,0.78
8121.00,0.78
8120.00,0.78
8119.00,0.78
8118.00,0.78
8117.00,0.78
8116.00,0.79
8115.00,0.79
8114.00,0.79
8113.00,0.79
8112.00,0.79
8111.00,0.79
8110.00,0.79
8109.00,0.79
8108.00,0.79
8107.00,0.79
8106.00,0.79
8105.00,0.79
8104.00,0.80
8103.00,0.80
8102.00,0.80
8101.00,0.80
8100.00,0.80
8099.00,0.80
8098.00,0.80
8097.00,0.80
8096.00,0.80
8095.00,0.80
8094.00,0.80
8093.00,0.80
8092.00,0.80
8091.00,0.80
8090.00,0.80
8089.00,0.80
8088.00,0.80
8087.00,0.80
8086.00,0.80
8085.00,0.80
8084.00,0.80
8083.00,0.80
8082.00,0.80
8081.00,0.80
8080.00,0.80
8079.00,0.80
8078.00,0.80
8077.00,0.80
8076.00,0.80
8075.00,0.80
8074.00,0.80
8073.00,0.80
8072.00,0.80
8071.00,0.80
8070.00,0.80
8069.00,0.80
8068.00,0.80
8067.00,0.80
8066.00,0.80
8065.00,0.80
8064.00,0.80
8063.00,0.80
8062.00,0.80
8061.00,0.80
8060.00,0.80
8059.00,0.80
8058.00,0.81
8057.00,0.81
8056.00,0.81
8055.00,0.81
8054.00,0.81
8053.00,0.81
8052.00,0.81
8051.00,0.81
8050.00,0.81
8049.00,0.81
8048.00,0.81
8047.00,0.81
8046.00,0.81
8045.00,0.81
8044.00,0.81
8043.00,0.81
8042.00,0.82
8041.00,0.82
8040.00,0.82
8039.00,0.82
8038.00,0.82
8037.00,0.82
8036.00,0.82
8035.00,0.82
8034.00,0.82
8033.00,0.82
8032.00,0.82
8031.00,0.82
8030.00,0.82
8029.00,0.82
8028.00,0.82
8027.00,0.82
8026.00,0.81
8025.00,0.81
8024.00,0.81
8023.00,0.81
8022.00,0.81
8021.00,0.81
8020.00,0.81
8019.00,0.81
8018.00,0.81
8017.00,0.81
8016.00,0.81
8015.00,0.81
8014.00,0.81
8013.00,0.81
8012.00,0.81
8011.00,0.81
8010.00,0.81
8009.00,0.81
8008.00,0.81
8007.00,0.81
8006.00,0.81
8005.00,0.81
8004.00,0.81
8003.00,0.81
8002.00,0.81
8001.00,0.81
8000.00,0.81
7999.00,0.81
7998.00,0.81
7997.00,0.81
7996.00,0.81
7995.00,0.81
7994.00,0.81
7993.00,0.81
7992.00,0.81
7991.00,0.81
7990.00,0.81
7989.00,0.81
7988.00,0.81
7987.00,0.81
7986.00,0.81
7985.00,0.81
7984.00,0.81
7983.00,0.81
7982.00,0.81
7981.00,0.81
7980.00,0.81
7979.00,0.81
7978.00,0.81
7977.00,0.81
7976.00,0.81
7975.00,0.81
7974.00,0.81
7973.00,0.81
7972.00,0.81
7971.00,0.81
7970.00,0.82
7969.00,0.82
7968.00,0.82
7967.00,0.82
7966.00,0.82
7965.00,0.82
7964.00,0.82
7963.00,0.82
7962.00,0.82
7961.00,0.82
7960.00,0.82
7959.00,0.82
7958.00,0.82
7957.00,0.82
7956.00,0.82
7955.00,0.82
7954.00,0.82
7953.00,0.82
7952.00,0.82
7951.00,0.82
7950.00,0.82
7949.00,0.82
7948.00,0.82
7947.00,0.82
7946.00,0.82
7945.00,0.82
7944.00,0.82
7943.00,0.82
7942.00,0.82
7941.00,0.82
7940.00,0.82
7939.00,0.82
7938.00,0.82
7937.00,0.82
7936.00,0.82
7935.00,0.82
7934.00,0.82
7933.00,0.82
7932.00,0.82
7931.00,0.82
7930.00,0.82
7929.00,0.82
7928.00,0.82
7927.00,0.82
7926.00,0.82
7925.00,0.82
7924.00,0.82
7923.00,0.82
7922.00,0.82
7921.00,0.82
7920.00,0.82
7919.00,0.82
7918.00,0.82
7917.00,0.82
7916.00,0.82
7915.00,0.82
7914.00,0.82
7913.00,0.82
7912.00,0.82
7911.00,0.82
7910.00,0.82
7909.00,0.82
7908.00,0.82
7907.00,0.82
7906.00,0.82
7905.00,0.82
7904.00,0.82
7903.00,0.82
7902.00,0.82
7901.00,0.82
7900.00,0.82
7899.00,0.82
7898.00,0.82
7897.00,0.82
7896.00,0.82
7895.00,0.82
7894.00,0.82
7893.00,0.82
7892.00,0.82
7891.00,0.82
7890.00,0.82
7889.00,0.82
7888.00,0.82
7887.00,0.82
7886.00,0.82
7885.00,0.82
7884.00,0.82
7883.00,0.82
7882.00,0.82
7881.00,0.82
7880.00,0.82
7879.00,0.82
7878.00,0.82
7877.00,0.83
7876.00,0.83
7875.00,0.83
7874.00,0.83
7873.00,0.83
7872.00,0.83
7871.00,0.83
7870.00,0.83
7869.00,0.83
7868.00,0.83
7867.00,0.83
7866.00,0.83
7865.00,0.83
7864.00,0.83
7863.00,0.83
7862.00,0.83
7861.00,0.83
7860.00,0.83
7859.00,0.83
7858.00,0.83
7857.00,0.83
7856.00,0.83
7855.00,0.83
7854.00,0.83
7853.00,0.83
7852.00,0.83
7851.00,0.83
7850.00,0.83
7849.00,0.83
7848.00,0.83
7847.00,0.83
7846.00,0.83
7845.00,0.83
7844.00,0.83
7843.00,0.83
7842.00,0.83
7841.00,0.83
7840.00,0.83
7839.00,0.83
7838.00,0.83
7837.00,0.83
7836.00,0.83
7835.00,0.83
7834.00,0.83
7833.00,0.83
7832.00,0.83
7831.00,0.83
7830.00,0.83
7829.00,0.83
7828.00,0.83
7827.00,0.83
7826.00,0.83
7825.00,0.83
7824.00,0.83
7823.00,0.83
7822.00,0.84
7821.00,0.84
7820.00,0.84
7819.00,0.84
7818.00,0.84
7817.00,0.84
7816.00,0.84
7815.00,0.84
7814.00,0.84
7813.00,0.84
7812.00,0.84
7811.00,0.84
7810.00,0.84
7809.00,0.84
7808.00,0.84
7807.00,0.84
7806.00,0.84
7805.00,0.84
7804.00,0.84
7803.00,0.83
7802.00,0.83
7801.00,0.83
7800.00,0.83
7799.00,0.83
7798.00,0.83
7797.00,0.83
7796.00,0.83
7795.00,0.83
7794.00,0.83
7793.00,0.83
7792.00,0.82
7791.00,0.82
7790.00,0.82
7789.00,0.82
7788.00,0.82
7787.00,0.82
7786.00,0.82
7785.00,0.82
7784.00,0.82
7783.00,0.83
7782.00,0.83
7781.00,0.83
7780.00,0.83
7779.00,0.83
7778.00,0.83
7777.00,0.83
7776.00,0.83
7775.00,0.83
7774.00,0.83
7773.00,0.83
7772.00,0.83
7771.00,0.83
7770.00,0.83
7769.00,0.82
7768.00,0.82
7767.00,0.82
7766.00,0.82
7765.00,0.82
7764.00,0.82
7763.00,0.82
7762.00,0.82
7761.00,0.82
7760.00,0.82
7759.00,0.82
7758.00,0.82
7757.00,0.82
7756.00,0.82
7755.00,0.82
7754.00,0.83
7753.00,0.83
7752.00,0.83
7751.00,0.83
7750.00,0.83
7749.00,0.83
7748.00,0.83
7747.00,0.83
7746.00,0.83
7745.00,0.83
7744.00,0.83
7743.00,0.83
7742.00,0.84
7741.00,0.84
7740.00,0.84
7739.00,0.84
7738.00,0.84
7737.00,0.84
7736.00,0.83
7735.00,0.83
7734.00,0.83
7733.00,0.83
7732.00,0.83
7731.00,0.83
7730.00,0.83
7729.00,0.83
7728.00,0.83
7727.00,0.84
7726.00,0.84
7725.00,0.84
7724.00,0.84
7723.00,0.84
7722.00,0.84
7721.00,0.84
7720.00,0.84
7719.00,0.84
7718.00,0.84
7717.00,0.84
7716.00,0.84
7715.00,0.84
7714.00,0.84
7713.00,0.84
7712.00,0.83
7711.00,0.83
7710.00,0.83
7709.00,0.83
7708.00,0.83
7707.00,0.83
7706.00,0.83
7705.00,0.83
7704.00,0.83
7703.00,0.83
7702.00,0.83
7701.00,0.83
7700.00,0.83
7699.00,0.83
7698.00,0.83
7697.00,0.83
7696.00,0.83
7695.00,0.83
7694.00,0.83
7693.00,0.83
7692.00,0.83
7691.00,0.83
7690.00,0.83
7689.00,0.83
7688.00,0.83
7687.00,0.83
7686.00,0.83
7685.00,0.83
7684.00,0.83
7683.00,0.84
7682.00,0.84
7681.00,0.84
7680.00,0.84
7679.00,0.84
7678.00,0.84
7677.00,0.84
7676.00,0.84
7675.00,0.83
7674.00,0.83
7673.00,0.83
7672.00,0.83
7671.00,0.83
7670.00,0.83
7669.00,0.83
7668.00,0.83
7667.00,0.83
7666.00,0.83
7665.00,0.83
7664.00,0.83
7663.00,0.83
7662.00,0.83
7661.00,0.83
7660.00,0.83
7659.00,0.83
7658.00,0.83
7657.00,0.83
7656.00,0.83
7655.00,0.83
7654.00,0.84
7653.00,0.84
7652.00,0.84
7651.00,0.84
7650.00,0.84
7649.00,0.84
7648.00,0.84
7647.00,0.84
7646.00,0.84
7645.00,0.84
7644.00,0.84
7643.00,0.84
7642.00,0.84
7641.00,0.84
7640.00,0.84
7639.00,0.84
7638.00,0.84
7637.00,0.84
7636.00,0.84
7635.00,0.84
7634.00,0.84
7633.00,0.83
7632.00,0.83
7631.00,0.83
7630.00,0.83
7629.00,0.83
7628.00,0.83
7627.00,0.83
7626.00,0.83
7625.00,0.83
7624.00,0.83
7623.00,0.83
7622.00,0.83
7621.00,0.83
7620.00,0.82
7619.00,0.82
7618.00,0.82
7617.00,0.82
7616.00,0.82
7615.00,0.82
7614.00,0.82
7613.00,0.82
7612.00,0.82
7611.00,0.82
7610.00,0.82
7609.00,0.82
7608.00,0.82
7607.00,0.82
7606.00,0.82
7605.00,0.82
7604.00,0.82
7603.00,0.82
7602.00,0.82
7601.00,0.82
7600.00,0.82
7599.00,0.82
7598.00,0.82
7597.00,0.82
7596.00,0.83
7595.00,0.83
7594.00,0.83
7593.00,0.83
7592.00,0.83
7591.00,0.83
7590.00,0.83
7589.00,0.83
7588.00,0.83
7587.00,0.83
7586.00,0.83
7585.00,0.83
7584.00,0.83
7583.00,0.83
7582.00,0.83
7581.00,0.83
7580.00,0.83
7579.00,0.83
7578.00,0.83
7577.00,0.83
7576.00,0.83
7575.00,0.83
7574.00,0.83
7573.00,0.83
7572.00,0.83
7571.00,0.83
7570.00,0.83
7569.00,0.83
7568.00,0.83
7567.00,0.83
7566.00,0.83
7565.00,0.83
7564.00,0.83
7563.00,0.83
7562.00,0.83
7561.00,0.83
7560.00,0.83
7559.00,0.83
7558.00,0.83
7557.00,0.83
7556.00,0.83
7555.00,0.83
7554.00,0.83
7553.00,0.83
7552.00,0.83
7551.00,0.83
7550.00,0.83
7549.00,0.83
7548.00,0.83
7547.00,0.83
7546.00,0.83
7545.00,0.83
7544.00,0.83
7543.00,0.83
7542.00,0.83
7541.00,0.83
7540.00,0.83
7539.00,0.83
7538.00,0.83
7537.00,0.83
7536.00,0.83
7535.00,0.83
7534.00,0.83
7533.00,0.83
7532.00,0.83
7531.00,0.83
7530.00,0.83
7529.00,0.83
7528.00,0.82
7527.00,0.82
7526.00,0.82
7525.00,0.82
7524.00,0.82
7523.00,0.82
7522.00,0.82
7521.00,0.82
7520.00,0.82
7519.00,0.82
7518.00,0.82
7517.00,0.82
7516.00,0.82
7515.00,0.82
7514.00,0.82
7513.00,0.82
7512.00,0.82
7511.00,0.82
7510.00,0.82
7509.00,0.82
7508.00,0.82
7507.00,0.82
7506.00,0.82
7505.00,0.82
7504.00,0.82
7503.00,0.82
7502.00,0.82
7501.00,0.82
7500.00,0.82
7499.00,0.82
7498.00,0.82
7497.00,0.82
7496.00,0.82
7495.00,0.82
7494.00,0.82
7493.00,0.82
7492.00,0.82
7491.00,0.82
7490.00,0.82
7489.00,0.81
7488.00,0.81
7487.00,0.81
7486.00,0.81
7485.00,0.81
7484.00,0.81
7483.00,0.81
7482.00,0.81
7481.00,0.81
7480.00,0.81
7479.00,0.81
7478.00,0.81
7477.00,0.81
7476.00,0.81
7475.00,0.81
7474.00,0.81
7473.00,0.81
7472.00,0.81
7471.00,0.81
7470.00,0.81
7469.00,0.81
7468.00,0.81
7467.00,0.81
7466.00,0.81
7465.00,0.81
7464.00,0.81
7463.00,0.81
7462.00,0.81
7461.00,0.81
7460.00,0.81
7459.00,0.81
7458.00,0.80
7457.00,0.80
7456.00,0.80
7455.00,0.80
7454.00,0.80
7453.00,0.80
7452.00,0.80
7451.00,0.80
7450.00,0.80
7449.00,0.80
7448.00,0.80
7447.00,0.80
7446.00,0.80
7445.00,0.80
7444.00,0.80
7443.00,0.80
7442.00,0.80
7441.00,0.80
7440.00,0.80
7439.00,0.80
7438.00,0.80
7437.00,0.80
7436.00,0.80
7435.00,0.80
7434.00,0.80
7433.00,0.80
7432.00,0.80
7431.00,0.80
7430.00,0.80
7429.00,0.80
7428.00,0.80
7427.00,0.80
7426.00,0.80
7425.00,0.80
7424.00,0.80
7423.00,0.80
7422.00,0.79
7421.00,0.79
7420.00,0.79
7419.00,0.79
7418.00,0.79
7417.00,0.79
7416.00,0.79
7415.00,0.79
7414.00,0.79
7413.00,0.79
7412.00,0.78
7411.00,0.78
7410.00,0.78
7409.00,0.78
7408.00,0.78
7407.00,0.78
7406.00,0.78
7405.00,0.78
7404.00,0.78
7403.00,0.78
7402.00,0.78
7401.00,0.78
7400.00,0.78
7399.00,0.78
7398.00,0.78
7397.00,0.78
7396.00,0.77
7395.00,0.77
7394.00,0.77
7393.00,0.77
7392.00,0.77
7391.00,0.77
7390.00,0.77
7389.00,0.77
7388.00,0.77
7387.00,0.77
7386.00,0.76
7385.00,0.76
7384.00,0.76
7383.00,0.76
7382.00,0.76
7381.00,0.76
7380.00,0.76
7379.00,0.76
7378.00,0.76
7377.00,0.76
7376.00,0.76
7375.00,0.76
7374.00,0.76
7373.00,0.76
7372.00,0.76
7371.00,0.76
7370.00,0.76
7369.00,0.76
7368.00,0.76
7367.00,0.76
7366.00,0.76
7365.00,0.76
7364.00,0.76
7363.00,0.76
7362.00,0.76
7361.00,0.76
7360.00,0.75
7359.00,0.75
7358.00,0.75
7357.00,0.75
7356.00,0.75
7355.00,0.75
7354.00,0.75
7353.00,0.75
7352.00,0.75
7351.00,0.75
7350.00,0.75
7349.00,0.75
7348.00,0.75
7347.00,0.75
7346.00,0.75
7345.00,0.75
7344.00,0.75
7343.00,0.75
7342.00,0.75
7341.00,0.75
7340.00,0.75
7339.00,0.75
7338.00,0.75
7337.00,0.75
7336.00,0.75
7335.00,0.74
7334.00,0.74
7333.00,0.74
7332.00,0.74
7331.00,0.74
7330.00,0.74
7329.00,0.74
7328.00,0.74
7327.00,0.74
7326.00,0.74
7325.00,0.74
7324.00,0.74
7323.00,0.75
7322.00,0.75
7321.00,0.75
7320.00,0.75
7319.00,0.75
7318.00,0.75
7317.00,0.75
7316.00,0.75
7315.00,0.75
7314.00,0.75
7313.00,0.75
7312.00,0.75
7311.00,0.75
7310.00,0.75
7309.00,0.75
7308.00,0.75
7307.00,0.75
7306.00,0.75
7305.00,0.75
7304.00,0.75
7303.00,0.75
7302.00,0.75
7301.00,0.75
7300.00,0.74
7299.00,0.74
7298.00,0.74
7297.00,0.74
7296.00,0.74
7295.00,0.74
7294.00,0.74
7293.00,0.74
7292.00,0.74
7291.00,0.74
7290.00,0.74
7289.00,0.73
7288.00,0.73
7287.00,0.73
7286.00,0.73
7285.00,0.73
7284.00,0.73
7283.00,0.73
7282.00,0.72
7281.00,0.72
7280.00,0.72
7279.00,0.72
7278.00,0.72
7277.00,0.72
7276.00,0.72
7275.00,0.72
7274.00,0.72
7273.00,0.72
7272.00,0.72
7271.00,0.72
7270.00,0.72
7269.00,0.72
7268.00,0.72
7267.00,0.72
7266.00,0.72
7265.00,0.72
7264.00,0.72
7263.00,0.72
7262.00,0.72
7261.00,0.72
7260.00,0.71
7259.00,0.71
7258.00,0.71
7257.00,0.71
7256.00,0.71
7255.00,0.71
7254.00,0.71
7253.00,0.71
7252.00,0.71
7251.00,0.70
7250.00,0.70
7249.00,0.70
7248.00,0.70
7247.00,0.70
7246.00,0.70
7245.00,0.69
7244.00,0.69
7243.00,0.69
7242.00,0.69
7241.00,0.68
7240.00,0.68
7239.00,0.68
7238.00,0.68
7237.00,0.67
7236.00,0.67
7235.00,0.67
7234.00,0.67
7233.00,0.66
7232.00,0.66
7231.00,0.66
7230.00,0.66
7229.00,0.66
7228.00,0.65
7227.00,0.65
7226.00,0.65
7225.00,0.65
7224.00,0.65
7223.00,0.65
7222.00,0.65
7221.00,0.64
7220.00,0.64
7219.00,0.64
7218.00,0.64
7217.00,0.64
7216.00,0.64
7215.00,0.64
7214.00,0.63
7213.00,0.63
7212.00,0.63
7211.00,0.63
7210.00,0.63
7209.00,0.63
7208.00,0.62
7207.00,0.62
7206.00,0.62
7205.00,0.62
7204.00,0.62
7203.00,0.61
7202.00,0.61
7201.00,0.61
7200.00,0.61
7199.00,0.61
7198.00,0.61
7197.00,0.61
7196.00,0.60
7195.00,0.60
7194.00,0.60
7193.00,0.60
7192.00,0.60
7191.00,0.60
7190.00,0.60
7189.00,0.59
7188.00,0.59
7187.00,0.59
7186.00,0.59
7185.00,0.59
7184.00,0.59
7183.00,0.59
7182.00,0.58
7181.00,0.58
7180.00,0.58
7179.00,0.58
7178.00,0.58
7177.00,0.58
7176.00,0.58
7175.00,0.58
7174.00,0.57
7173.00,0.57
7172.00,0.57
7171.00,0.57
7170.00,0.57
7169.00,0.57
7168.00,0.57
7167.00,0.56
7166.00,0.56
7165.00,0.56
7164.00,0.56
7163.00,0.56
7162.00,0.56
7161.00,0.55
7160.00,0.55
7159.00,0.55
7158.00,0.55
7157.00,0.55
7156.00,0.55
7155.00,0.55
7154.00,0.54
7153.00,0.54
7152.00,0.54
7151.00,0.54
7150.00,0.54
7149.00,0.54
7148.00,0.54
7147.00,0.53
7146.00,0.53
7145.00,0.53
7144.00,0.53
7143.00,0.53
7142.00,0.53
7141.00,0.52
7140.00,0.52
7139.00,0.52
7138.00,0.52
7137.00,0.52
7136.00,0.52
7135.00,0.52
7134.00,0.51
7133.00,0.51
7132.00,0.51
7131.00,0.51
7130.00,0.51
7129.00,0.51
7128.00,0.51
7127.00,0.50
7126.00,0.50
7125.00,0.50
7124.00,0.50
7123.00,0.50
7122.00,0.50
7121.00,0.50
7120.00,0.49
7119.00,0.49
7118.00,0.49
7117.00,0.49
7116.00,0.49
7115.00,0.49
7114.00,0.49
7113.00,0.48
7112.00,0.48
7111.00,0.48
7110.00,0.48
7109.00,0.48
7108.00,0.48
7107.00,0.48
7106.00,0.47
7105.00,0.47
7104.00,0.47
7103.00,0.47
7102.00,0.47
7101.00,0.47
7100.00,0.47
7099.00,0.47
7098.00,0.46
7097.00,0.46
7096.00,0.46
7095.00,0.46
7094.00,0.46
7093.00,0.46
7092.00,0.46
7091.00,0.46
7090.00,0.46
7089.00,0.46
7088.00,0.46
7087.00,0.45
7086.00,0.45
7085.00,0.45
7084.00,0.45
7083.00,0.45
7082.00,0.45
7081.00,0.45
7080.00,0.45
7079.00,0.45
7078.00,0.44
7077.00,0.44
7076.00,0.44
7075.00,0.44
7074.00,0.44
7073.00,0.44
7072.00,0.44
7071.00,0.44
7070.00,0.44
7069.00,0.44
7068.00,0.44
7067.00,0.44
7066.00,0.44
7065.00,0.44
7064.00,0.44
7063.00,0.44
7062.00,0.44
7061.00,0.44
7060.00,0.44
7059.00,0.44
7058.00,0.44
7057.00,0.44
7056.00,0.44
7055.00,0.44
7054.00,0.44
7053.00,0.44
7052.00,0.44
7051.00,0.44
7050.00,0.44
7049.00,0.43
7048.00,0.43
7047.00,0.43
7046.00,0.43
7045.00,0.43
7044.00,0.43
7043.00,0.43
7042.00,0.43
7041.00,0.43
7040.00,0.43
7039.00,0.43
7038.00,0.43
7037.00,0.43
7036.00,0.43
7035.00,0.43
7034.00,0.43
7033.00,0.43
7032.00,0.43
7031.00,0.43
7030.00,0.42
7029.00,0.42
7028.00,0.42
7027.00,0.42
7026.00,0.42
7025.00,0.42
7024.00,0.42
7023.00,0.42
7022.00,0.42
7021.00,0.42
7020.00,0.42
7019.00,0.42
7018.00,0.42
7017.00,0.42
7016.00,0.42
7015.00,0.42
7014.00,0.42
7013.00,0.42
7012.00,0.42
7011.00,0.41
7010.00,0.41
7009.00,0.41
7008.00,0.41
7007.00,0.41
7006.00,0.41
7005.00,0.41
7004.00,0.41
7003.00,0.41
7002.00,0.41
7001.00,0.41
7000.00,0.41
6999.00,0.41
6998.00,0.41
6997.00,0.41
6996.00,0.41
6995.00,0.41
6994.00,0.40
6993.00,0.40
6992.00,0.40
6991.00,0.40
6990.00,0.40
6989.00,0.40
6988.00,0.40
6987.00,0.40
6986.00,0.40
6985.00,0.40
6984.00,0.40
6983.00,0.40
6982.00,0.40
6981.00,0.40
6980.00,0.40
6979.00,0.40
6978.00,0.40
6977.00,0.40
6976.00,0.40
6975.00,0.40
6974.00,0.40
6973.00,0.40
6972.00,0.40
6971.00,0.40
6970.00,0.40
6969.00,0.40
6968.00,0.40
6967.00,0.40
6966.00,0.40
6965.00,0.40
6964.00,0.40
6963.00,0.40
6962.00,0.40
6961.00,0.40
6960.00,0.40
6959.00,0.40
6958.00,0.40
6957.00,0.40
6956.00,0.40
6955.00,0.40
6954.00,0.40
6953.00,0.40
6952.00,0.40
6951.00,0.40
6950.00,0.40
6949.00,0.40
6948.00,0.40
6947.00,0.40
6946.00,0.40
6945.00,0.40
6944.00,0.40
6943.00,0.40
6942.00,0.40
6941.00,0.40
6940.00,0.40
6939.00,0.40
6938.00,0.40
6937.00,0.40
6936.00,0.40
6935.00,0.40
6934.00,0.40
6933.00,0.40
6932.00,0.40
6931.00,0.40
6930.00,0.40
6929.00,0.40
6928.00,0.40
6927.00,0.40
6926.00,0.40
6925.00,0.40
6924.00,0.40
6923.00,0.40
6922.00,0.40
6921.00,0.40
6920.00,0.39
6919.00,0.39
6918.00,0.39
6917.00,0.39
6916.00,0.39
6915.00,0.39
6914.00,0.39
6913.00,0.39
6912.00,0.39
6911.00,0.39
6910.00,0.39
6909.00,0.39
6908.00,0.39
6907.00,0.39
6906.00,0.39
6905.00,0.39
6904.00,0.39
6903.00,0.39
6902.00,0.39
6901.00,0.39
6900.00,0.39
6899.00,0.39
6898.00,0.39
6897.00,0.39
6896.00,0.39
6895.00,0.39
6894.00,0.39
6893.00,0.39
6892.00,0.39
6891.00,0.39
6890.00,0.39
6889.00,0.39
6888.00,0.39
6887.00,0.39
6886.00,0.39
6885.00,0.39
6884.00,0.39
6883.00,0.39
6882.00,0.39
6881.00,0.39
6880.00,0.39
6879.00,0.39
6878.00,0.39
6877.00,0.39
6876.00,0.39
6875.00,0.39
6874.00,0.39
6873.00,0.39
6872.00,0.39
6871.00,0.39
6870.00,0.39
6869.00,0.39
6868.00,0.39
6867.00,0.39
6866.00,0.39
6865.00,0.39
6864.00,0.39
6863.00,0.39
6862.00,0.39
6861.00,0.39
6860.00,0.39
6859.00,0.39
6858.00,0.39
6857.00,0.39
6856.00,0.39
6855.00,0.39
6854.00,0.39
6853.00,0.39
6852.00,0.39
6851.00,0.39
6850.00,0.39
6849.00,0.39
6848.00,0.39
6847.00,0.39
6846.00,0.39
6845.00,0.39
6844.00,0.39
6843.00,0.39
6842.00,0.39
6841.00,0.39
6840.00,0.40
6839.00,0.40
6838.00,0.40
6837.00,0.40
6836.00,0.40
6835.00,0.40
6834.00,0.40
6833.00,0.40
6832.00,0.40
6831.00,0.40
6830.00,0.40
6829.00,0.40
6828.00,0.40
6827.00,0.40
6826.00,0.40
6825.00,0.40
6824.00,0.40
6823.00,0.40
6822.00,0.40
6821.00,0.40
6820.00,0.40
6819.00,0.40
6818.00,0.40
6817.00,0.40
6816.00,0.40
6815.00,0.40
6814.00,0.40
6813.00,0.40
6812.00,0.40
6811.00,0.40
6810.00,0.40
6809.00,0.40
6808.00,0.40
6807.00,0.40
6806.00,0.40
6805.00,0.40
6804.00,0.40
6803.00,0.40
6802.00,0.40
6801.00,0.40
6800.00,0.40
6799.00,0.40
6798.00,0.40
6797.00,0.40
6796.00,0.40
6795.00,0.41
6794.00,0.41
6793.00,0.41
6792.00,0.41
6791.00,0.41
6790.00,0.41
6789.00,0.41
6788.00,0.41
6787.00,0.41
6786.00,0.41
6785.00,0.41
6784.00,0.41
6783.00,0.41
6782.00,0.41
6781.00,0.41
6780.00,0.41
6779.00,0.41
6778.00,0.41
6777.00,0.41
6776.00,0.41
6775.00,0.41
6774.00,0.41
6773.00,0.41
6772.00,0.41
6771.00,0.41
6770.00,0.41
6769.00,0.41
6768.00,0.41
6767.00,0.41
6766.00,0.41
6765.00,0.41
6764.00,0.41
6763.00,0.41
6762.00,0.41
6761.00,0.41
6760.00,0.41
6759.00,0.41
6758.00,0.41
6757.00,0.42
6756.00,0.42
6755.00,0.42
6754.00,0.42
6753.00,0.42
6752.00,0.42
6751.00,0.42
6750.00,0.42
6749.00,0.42
6748.00,0.42
6747.00,0.42
6746.00,0.42
6745.00,0.42
6744.00,0.42
6743.00,0.42
6742.00,0.42
6741.00,0.43
6740.00,0.43
6739.00,0.43
6738.00,0.43
6737.00,0.43
6736.00,0.43
6735.00,0.43
6734.00,0.43
6733.00,0.43
6732.00,0.43
6731.00,0.43
6730.00,0.43
6729.00,0.43
6728.00,0.43
6727.00,0.43
6726.00,0.43
6725.00,0.43
6724.00,0.43
6723.00,0.43
6722.00,0.43
6721.00,0.43
6720.00,0.43
6719.00,0.43
6718.00,0.43
6717.00,0.43
6716.00,0.43
6715.00,0.43
6714.00,0.43
6713.00,0.43
6712.00,0.43
6711.00,0.43
6710.00,0.43
6709.00,0.43
6708.00,0.43
6707.00,0.44
6706.00,0.44
6705.00,0.44
6704.00,0.44
6703.00,0.44
6702.00,0.44
6701.00,0.44
6700.00,0.44
6699.00,0.44
6698.00,0.44
6697.00,0.44
6696.00,0.44
6695.00,0.44
6694.00,0.44
6693.00,0.44
6692.00,0.44
6691.00,0.44
6690.00,0.44
6689.00,0.44
6688.00,0.44
6687.00,0.44
6686.00,0.44
6685.00,0.44
6684.00,0.44
6683.00,0.44
6682.00,0.44
6681.00,0.44
6680.00,0.44
6679.00,0.44
6678.00,0.44
6677.00,0.44
6676.00,0.44
6675.00,0.44
6674.00,0.44
6673.00,0.44
6672.00,0.44
6671.00,0.44
6670.00,0.44
6669.00,0.44
6668.00,0.44
6667.00,0.44
6666.00,0.44
6665.00,0.45
6664.00,0.45
6663.00,0.45
6662.00,0.45
6661.00,0.45
6660.00,0.45
6659.00,0.45
6658.00,0.45
6657.00,0.45
6656.00,0.45
6655.00,0.45
6654.00,0.45
6653.00,0.45
6652.00,0.45
6651.00,0.46
6650.00,0.46
6649.00,0.46
6648.00,0.46
6647.00,0.46
6646.00,0.46
6645.00,0.46
6644.00,0.46
6643.00,0.46
6642.00,0.46
6641.00,0.46
6640.00,0.46
6639.00,0.46
6638.00,0.46
6637.00,0.46
6636.00,0.46
6635.00,0.47
6634.00,0.47
6633.00,0.47
6632.00,0.47
6631.00,0.47
6630.00,0.47
6629.00,0.47
6628.00,0.47
6627.00,0.47
6626.00,0.47
6625.00,0.47
6624.00,0.47
6623.00,0.48
6622.00,0.48
6621.00,0.48
6620.00,0.48
6619.00,0.48
6618.00,0.48
6617.00,0.48
6616.00,0.48
6615.00,0.48
6614.00,0.48
6613.00,0.48
6612.00,0.48
6611.00,0.48
6610.00,0.48
6609.00,0.48
6608.00,0.48
6607.00,0.48
6606.00,0.48
6605.00,0.48
6604.00,0.48
6603.00,0.48
6602.00,0.48
6601.00,0.48
6600.00,0.48
6599.00,0.49
6598.00,0.49
6597.00,0.49
6596.00,0.49
6595.00,0.49
6594.00,0.49
6593.00,0.49
6592.00,0.49
6591.00,0.49
6590.00,0.49
6589.00,0.49
6588.00,0.49
6587.00,0.49
6586.00,0.49
6585.00,0.49
6584.00,0.49
6583.00,0.49
6582.00,0.49
6581.00,0.49
6580.00,0.49
6579.00,0.49
6578.00,0.49
6577.00,0.49
6576.00,0.49
6575.00,0.49
6574.00,0.49
6573.00,0.49
6572.00,0.49
6571.00,0.49
6570.00,0.49
6569.00,0.50
6568.00,0.50
6567.00,0.50
6566.00,0.50
6565.00,0.50
6564.00,0.50
6563.00,0.50
6562.00,0.50
6561.00,0.50
6560.00,0.50
6559.00,0.50
6558.00,0.50
6557.00,0.50
6556.00,0.50
6555.00,0.51
6554.00,0.51
6553.00,0.51
6552.00,0.51
6551.00,0.51
6550.00,0.51
6549.00,0.51
6548.00,0.51
6547.00,0.51
6546.00,0.51
6545.00,0.51
6544.00,0.51
6543.00,0.51
6542.00,0.51
6541.00,0.51
6540.00,0.51
6539.00,0.51
6538.00,0.51
6537.00,0.51
6536.00,0.51
6535.00,0.51
6534.00,0.51
6533.00,0.51
6532.00,0.51
6531.00,0.51
6530.00,0.51
6529.00,0.52
6528.00,0.52
6527.00,0.52
6526.00,0.52
6525.00,0.52
6524.00,0.52
6523.00,0.52
6522.00,0.52
6521.00,0.52
6520.00,0.52
6519.00,0.52
6518.00,0.52
6517.00,0.52
6516.00,0.52
6515.00,0.53
6514.00,0.53
6513.00,0.53
6512.00,0.53
6511.00,0.53
6510.00,0.53
6509.00,0.53
6508.00,0.53
6507.00,0.53
6506.00,0.53
6505.00,0.53
6504.00,0.53
6503.00,0.53
6502.00,0.53
6501.00,0.53
6500.00,0.53
6499.00,0.53
6498.00,0.53
6497.00,0.53
6496.00,0.53
6495.00,0.53
6494.00,0.53
6493.00,0.53
6492.00,0.53
6491.00,0.53
6490.00,0.53
6489.00,0.53
6488.00,0.53
6487.00,0.53
6486.00,0.53
6485.00,0.53
6484.00,0.53
6483.00,0.54
6482.00,0.54
6481.00,0.54
6480.00,0.54
6479.00,0.54
6478.00,0.54
6477.00,0.54
6476.00,0.54
6475.00,0.54
6474.00,0.54
6473.00,0.54
6472.00,0.54
6471.00,0.54
6470.00,0.54
6469.00,0.54
6468.00,0.54
6467.00,0.54
6466.00,0.54
6465.00,0.54
6464.00,0.54
6463.00,0.54
6462.00,0.54
6461.00,0.54
6460.00,0.54
6459.00,0.54
6458.00,0.54
6457.00,0.54
6456.00,0.54
6455.00,0.54
6454.00,0.54
6453.00,0.54
6452.00,0.55
6451.00,0.55
6450.00,0.55
6449.00,0.55
6448.00,0.55
6447.00,0.55
6446.00,0.55
6445.00,0.55
6444.00,0.55
6443.00,0.55
6442.00,0.55
6441.00,0.55
6440.00,0.55
6439.00,0.55
6438.00,0.55
6437.00,0.55
6436.00,0.55
6435.00,0.55
6434.00,0.55
6433.00,0.55
6432.00,0.55
6431.00,0.55
6430.00,0.55
6429.00,0.55
6428.00,0.55
6427.00,0.55
6426.00,0.55
6425.00,0.55
6424.00,0.55
6423.00,0.55
6422.00,0.55
6421.00,0.55
6420.00,0.55
6419.00,0.55
6418.00,0.55
6417.00,0.55
6416.00,0.55
6415.00,0.55
6414.00,0.55
6413.00,0.55
6412.00,0.55
6411.00,0.55
6410.00,0.55
6409.00,0.56
6408.00,0.56
6407.00,0.56
6406.00,0.56
6405.00,0.56
6404.00,0.56
6403.00,0.56
6402.00,0.56
6401.00,0.56
6400.00,0.56
6399.00,0.56
6398.00,0.56
6397.00,0.56
6396.00,0.56
6395.00,0.56
6394.00,0.56
6393.00,0.56
6392.00,0.56
6391.00,0.56
6390.00,0.56
6389.00,0.56
6388.00,0.56
6387.00,0.56
6386.00,0.56
6385.00,0.56
6384.00,0.56
6383.00,0.56
6382.00,0.56
6381.00,0.56
6380.00,0.56
6379.00,0.56
6378.00,0.56
6377.00,0.56
6376.00,0.56
6375.00,0.56
6374.00,0.56
6373.00,0.56
6372.00,0.56
6371.00,0.56
6370.00,0.56
6369.00,0.56
6368.00,0.56
6367.00,0.56
6366.00,0.56
6365.00,0.57
6364.00,0.57
6363.00,0.57
6362.00,0.57
6361.00,0.57
6360.00,0.57
6359.00,0.57
6358.00,0.57
6357.00,0.57
6356.00,0.57
6355.00,0.57
6354.00,0.57
6353.00,0.57
6352.00,0.57
6351.00,0.57
6350.00,0.57
6349.00,0.57
6348.00,0.58
6347.00,0.58
6346.00,0.58
6345.00,0.58
6344.00,0.58
6343.00,0.58
6342.00,0.58
6341.00,0.58
6340.00,0.58
6339.00,0.58
6338.00,0.58
6337.00,0.58
6336.00,0.58
6335.00,0.58
6334.00,0.58
6333.00,0.58
6332.00,0.58
6331.00,0.58
6330.00,0.58
6329.00,0.58
6328.00,0.58
6327.00,0.58
6326.00,0.58
6325.00,0.58
6324.00,0.59
6323.00,0.59
6322.00,0.59
6321.00,0.59
6320.00,0.59
6319.00,0.59
6318.00,0.59
6317.00,0.59
6316.00,0.59
6315.00,0.59
6314.00,0.59
6313.00,0.59
6312.00,0.59
6311.00,0.59
6310.00,0.59
6309.00,0.59
6308.00,0.59
6307.00,0.60
6306.00,0.60
6305.00,0.60
6304.00,0.60
6303.00,0.60
6302.00,0.60
6301.00,0.60
6300.00,0.60
6299.00,0.60
6298.00,0.60
6297.00,0.60
6296.00,0.61
6295.00,0.61
6294.00,0.61
6293.00,0.61
6292.00,0.61
6291.00,0.61
6290.00,0.61
6289.00,0.61
6288.00,0.61
6287.00,0.61
6286.00,0.61
6285.00,0.62
6284.00,0.62
6283.00,0.62
6282.00,0.62
6281.00,0.62
6280.00,0.62
6279.00,0.62
6278.00,0.62
6277.00,0.62
6276.00,0.62
6275.00,0.62
6274.00,0.62
6273.00,0.62
6272.00,0.62
6271.00,0.62
6270.00,0.62
6269.00,0.62
6268.00,0.62
6267.00,0.62
6266.00,0.62
6265.00,0.62
6264.00,0.62
6263.00,0.62
6262.00,0.62
6261.00,0.62
6260.00,0.62
6259.00,0.62
6258.00,0.62
6257.00,0.63
6256.00,0.63
6255.00,0.63
6254.00,0.63
6253.00,0.63
6252.00,0.63
6251.00,0.63
6250.00,0.63
6249.00,0.63
6248.00,0.63
6247.00,0.63
6246.00,0.63
6245.00,0.64
6244.00,0.64
6243.00,0.64
6242.00,0.64
6241.00,0.64
6240.00,0.64
6239.00,0.64
6238.00,0.64
6237.00,0.64
6236.00,0.64
6235.00,0.64
6234.00,0.64
6233.00,0.64
6232.00,0.64
6231.00,0.64
6230.00,0.65
6229.00,0.65
6228.00,0.65
6227.00,0.65
6226.00,0.65
6225.00,0.65
6224.00,0.65
6223.00,0.65
6222.00,0.65
6221.00,0.65
6220.00,0.65
6219.00,0.66
6218.00,0.66
6217.00,0.66
6216.00,0.66
6215.00,0.66
6214.00,0.66
6213.00,0.66
6212.00,0.66
6211.00,0.66
6210.00,0.66
6209.00,0.66
6208.00,0.66
6207.00,0.67
6206.00,0.67
6205.00,0.67
6204.00,0.67
6203.00,0.67
6202.00,0.67
6201.00,0.67
6200.00,0.67
6199.00,0.67
6198.00,0.67
6197.00,0.67
6196.00,0.67
6195.00,0.67
6194.00,0.67
6193.00,0.67
6192.00,0.67
6191.00,0.68
6190.00,0.68
6189.00,0.68
6188.00,0.68
6187.00,0.68
6186.00,0.68
6185.00,0.68
6184.00,0.68
6183.00,0.68
6182.00,0.68
6181.00,0.68
6180.00,0.68
6179.00,0.68
6178.00,0.68
6177.00,0.68
6176.00,0.68
6175.00,0.69
6174.00,0.69
6173.00,0.69
6172.00,0.69
6171.00,0.69
6170.00,0.69
6169.00,0.69
6168.00,0.69
6167.00,0.69
6166.00,0.69
6165.00,0.69
6164.00,0.70
6163.00,0.70
6162.00,0.70
6161.00,0.70
6160.00,0.70
6159.00,0.70
6158.00,0.70
6157.00,0.70
6156.00,0.70
6155.00,0.70
6154.00,0.70
6153.00,0.70
6152.00,0.71
6151.00,0.71
6150.00,0.71
6149.00,0.71
6148.00,0.71
6147.00,0.71
6146.00,0.71
6145.00,0.71
6144.00,0.71
6143.00,0.71
6142.00,0.72
6141.00,0.72
6140.00,0.72
6139.00,0.72
6138.00,0.72
6137.00,0.72
6136.00,0.72
6135.00,0.72
6134.00,0.72
6133.00,0.72
6132.00,0.72
6131.00,0.73
6130.00,0.73
6129.00,0.73
6128.00,0.73
6127.00,0.73
6126.00,0.73
6125.00,0.73
6124.00,0.73
6123.00,0.73
6122.00,0.73
6121.00,0.73
6120.00,0.73
6119.00,0.73
6118.00,0.74
6117.00,0.74
6116.00,0.74
6115.00,0.74
6114.00,0.74
6113.00,0.74
6112.00,0.74
6111.00,0.74
6110.00,0.74
6109.00,0.74
6108.00,0.74
6107.00,0.74
6106.00,0.74
6105.00,0.74
6104.00,0.74
6103.00,0.75
6102.00,0.75
6101.00,0.75
6100.00,0.75
6099.00,0.75
6098.00,0.75
6097.00,0.75
6096.00,0.75
6095.00,0.75
6094.00,0.75
6093.00,0.76
6092.00,0.76
6091.00,0.76
6090.00,0.76
6089.00,0.76
6088.00,0.76
6087.00,0.76
6086.00,0.76
6085.00,0.76
6084.00,0.76
6083.00,0.76
6082.00,0.76
6081.00,0.76
6080.00,0.76
6079.00,0.76
6078.00,0.76
6077.00,0.76
6076.00,0.76
6075.00,0.76
6074.00,0.76
6073.00,0.76
6072.00,0.76
6071.00,0.76
6070.00,0.76
6069.00,0.76
6068.00,0.77
6067.00,0.77
6066.00,0.77
6065.00,0.77
6064.00,0.77
6063.00,0.77
6062.00,0.77
6061.00,0.77
6060.00,0.77
6059.00,0.77
6058.00,0.77
6057.00,0.78
6056.00,0.78
6055.00,0.78
6054.00,0.78
6053.00,0.78
6052.00,0.78
6051.00,0.78
6050.00,0.78
6049.00,0.78
6048.00,0.78
6047.00,0.78
6046.00,0.78
6045.00,0.78
6044.00,0.78
6043.00,0.78
6042.00,0.78
6041.00,0.78
6040.00,0.78
6039.00,0.78
6038.00,0.78
6037.00,0.78
6036.00,0.78
6035.00,0.79
6034.00,0.79
6033.00,0.79
6032.00,0.79
6031.00,0.79
6030.00,0.79
6029.00,0.79
6028.00,0.79
6027.00,0.79
6026.00,0.79
6025.00,0.79
6024.00,0.79
6023.00,0.79
6022.00,0.79
6021.00,0.79
6020.00,0.79
6019.00,0.79
6018.00,0.79
6017.00,0.79
6016.00,0.79
6015.00,0.79
6014.00,0.79
6013.00,0.79
6012.00,0.79
6011.00,0.79
6010.00,0.79
6009.00,0.79
6008.00,0.79
6007.00,0.79
6006.00,0.79
6005.00,0.79
6004.00,0.79
6003.00,0.79
6002.00,0.79
6001.00,0.79
6000.00,0.79
5999.00,0.79
5998.00,0.79
5997.00,0.79
5996.00,0.79
5995.00,0.79
5994.00,0.79
5993.00,0.79
5992.00,0.78
5991.00,0.78
5990.00,0.78
5989.00,0.78
5988.00,0.78
5987.00,0.78
5986.00,0.78
5985.00,0.78
5984.00,0.77
5983.00,0.77
5982.00,0.77
5981.00,0.77
5980.00,0.77
5979.00,0.76
5978.00,0.76
5977.00,0.76
5976.00,0.76
5975.00,0.75
5974.00,0.75
5973.00,0.75
5972.00,0.74
5971.00,0.74
5970.00,0.74
5969.00,0.73
5968.00,0.73
5967.00,0.73
5966.00,0.72
5965.00,0.72
5964.00,0.72
5963.00,0.71
5962.00,0.71
5961.00,0.70
5960.00,0.70
5959.00,0.69
5958.00,0.69
5957.00,0.69
5956.00,0.68
5955.00,0.68
5954.00,0.67
5953.00,0.67
5952.00,0.66
5951.00,0.66
5950.00,0.66
5949.00,0.65
5948.00,0.65
5947.00,0.65
5946.00,0.65
5945.00,0.64
5944.00,0.64
5943.00,0.64
5942.00,0.64
5941.00,0.64
5940.00,0.64
5939.00,0.64
5938.00,0.64
5937.00,0.64
5936.00,0.64
5935.00,0.64
5934.00,0.64
5933.00,0.64
5932.00,0.64
5931.00,0.63
5930.00,0.63
5929.00,0.63
5928.00,0.63
5927.00,0.63
5926.00,0.63
5925.00,0.63
5924.00,0.63
5923.00,0.63
5922.00,0.63
5921.00,0.63
5920.00,0.63
5919.00,0.63
5918.00,0.62
5917.00,0.62
5916.00,0.62
5915.00,0.62
5914.00,0.62
5913.00,0.62
5912.00,0.62
5911.00,0.61
5910.00,0.61
5909.00,0.61
5908.00,0.61
5907.00,0.61
5906.00,0.61
5905.00,0.61
5904.00,0.61
5903.00,0.61
5902.00,0.61
5901.00,0.61
5900.00,0.61
5899.00,0.61
5898.00,0.61
5897.00,0.61
5896.00,0.61
5895.00,0.61
5894.00,0.61
5893.00,0.61
5892.00,0.61
5891.00,0.62
5890.00,0.62
5889.00,0.62
5888.00,0.62
5887.00,0.62
5886.00,0.62
5885.00,0.62
5884.00,0.62
5883.00,0.63
5882.00,0.63
5881.00,0.63
5880.00,0.63
5879.00,0.63
5878.00,0.63
5877.00,0.64
5876.00,0.64
5875.00,0.64
5874.00,0.64
5873.00,0.64
5872.00,0.64
5871.00,0.64
5870.00,0.65
5869.00,0.65
5868.00,0.65
5867.00,0.65
5866.00,0.65
5865.00,0.65
5864.00,0.65
5863.00,0.65
5862.00,0.66
5861.00,0.66
5860.00,0.66
5859.00,0.66
5858.00,0.66
5857.00,0.66
5856.00,0.66
5855.00,0.66
5854.00,0.66
5853.00,0.66
5852.00,0.66
5851.00,0.66
5850.00,0.66
5849.00,0.66
5848.00,0.66
5847.00,0.66
5846.00,0.66
5845.00,0.66
5844.00,0.66
5843.00,0.66
5842.00,0.66
5841.00,0.66
5840.00,0.66
5839.00,0.66
5838.00,0.66
5837.00,0.66
5836.00,0.66
5835.00,0.66
5834.00,0.66
5833.00,0.66
5832.00,0.66
5831.00,0.66
5830.00,0.66
5829.00,0.66
5828.00,0.66
5827.00,0.66
5826.00,0.66
5825.00,0.66
5824.00,0.66
5823.00,0.66
5822.00,0.66
5821.00,0.66
5820.00,0.66
5819.00,0.66
5818.00,0.66
5817.00,0.66
5816.00,0.66
5815.00,0.66
5814.00,0.66
5813.00,0.66
5812.00,0.66
5811.00,0.66
5810.00,0.66
5809.00,0.66
5808.00,0.66
5807.00,0.66
5806.00,0.66
5805.00,0.66
5804.00,0.66
5803.00,0.66
5802.00,0.66
5801.00,0.66
5800.00,0.66
5799.00,0.66
5798.00,0.66
5797.00,0.66
5796.00,0.66
5795.00,0.66
5794.00,0.66
5793.00,0.65
5792.00,0.65
5791.00,0.65
5790.00,0.65
5789.00,0.65
5788.00,0.65
5787.00,0.64
5786.00,0.64
5785.00,0.64
5784.00,0.64
5783.00,0.64
5782.00,0.64
5781.00,0.64
5780.00,0.64
5779.00,0.64
5778.00,0.63
5777.00,0.63
5776.00,0.63
5775.00,0.63
5774.00,0.63
5773.00,0.63
5772.00,0.63
5771.00,0.64
5770.00,0.64
5769.00,0.64
5768.00,0.64
5767.00,0.64
5766.00,0.64
5765.00,0.64
5764.00,0.64
5763.00,0.64
5762.00,0.65
5761.00,0.65
5760.00,0.65
5759.00,0.65
5758.00,0.65
5757.00,0.66
5756.00,0.66
5755.00,0.66
5754.00,0.66
5753.00,0.66
5752.00,0.67
5751.00,0.67
5750.00,0.67
5749.00,0.67
5748.00,0.67
5747.00,0.68
5746.00,0.68
5745.00,0.68
5744.00,0.68
5743.00,0.68
5742.00,0.68
5741.00,0.69
5740.00,0.69
5739.00,0.69
5738.00,0.69
5737.00,0.69
5736.00,0.69
5735.00,0.69
5734.00,0.69
5733.00,0.69
5732.00,0.69
5731.00,0.69
5730.00,0.69
5729.00,0.70
5728.00,0.70
5727.00,0.70
5726.00,0.70
5725.00,0.70
5724.00,0.70
5723.00,0.70
5722.00,0.70
5721.00,0.70
5720.00,0.70
5719.00,0.70
5718.00,0.70
5717.00,0.70
5716.00,0.70
5715.00,0.70
5714.00,0.70
5713.00,0.70
5712.00,0.70
5711.00,0.70
5710.00,0.70
5709.00,0.70
5708.00,0.70
5707.00,0.70
5706.00,0.70
5705.00,0.70
5704.00,0.70
5703.00,0.70
5702.00,0.70
5701.00,0.70
5700.00,0.70
5699.00,0.70
5698.00,0.70
5697.00,0.70
5696.00,0.70
5695.00,0.70
5694.00,0.69
5693.00,0.69
5692.00,0.69
5691.00,0.69
5690.00,0.69
5689.00,0.69
5688.00,0.69
5687.00,0.69
5686.00,0.69
5685.00,0.69
5684.00,0.69
5683.00,0.69
5682.00,0.69
5681.00,0.68
5680.00,0.68
5679.00,0.68
5678.00,0.68
5677.00,0.68
5676.00,0.68
5675.00,0.68
5674.00,0.68
5673.00,0.68
5672.00,0.68
5671.00,0.68
5670.00,0.68
5669.00,0.68
5668.00,0.68
5667.00,0.68
5666.00,0.68
5665.00,0.68
5664.00,0.68
5663.00,0.69
5662.00,0.69
5661.00,0.69
5660.00,0.69
5659.00,0.69
5658.00,0.69
5657.00,0.69
5656.00,0.69
5655.00,0.69
5654.00,0.69
5653.00,0.69
5652.00,0.70
5651.00,0.70
5650.00,0.70
5649.00,0.70
5648.00,0.70
5647.00,0.70
5646.00,0.70
5645.00,0.70
5644.00,0.70
5643.00,0.71
5642.00,0.71
5641.00,0.71
5640.00,0.71
5639.00,0.71
5638.00,0.71
5637.00,0.71
5636.00,0.71
5635.00,0.72
5634.00,0.72
5633.00,0.72
5632.00,0.72
5631.00,0.72
5630.00,0.72
5629.00,0.72
5628.00,0.72
5627.00,0.72
5626.00,0.72
5625.00,0.73
5624.00,0.73
5623.00,0.73
5622.00,0.73
5621.00,0.73
5620.00,0.73
5619.00,0.73
5618.00,0.73
5617.00,0.73
5616.00,0.73
5615.00,0.74
5614.00,0.74
5613.00,0.74
5612.00,0.74
5611.00,0.74
5610.00,0.74
5609.00,0.74
5608.00,0.74
5607.00,0.74
5606.00,0.74
5605.00,0.74
5604.00,0.74
5603.00,0.74
5602.00,0.74
5601.00,0.74
5600.00,0.74
5599.00,0.75
5598.00,0.75
5597.00,0.75
5596.00,0.75
5595.00,0.75
5594.00,0.75
5593.00,0.75
5592.00,0.75
5591.00,0.75
5590.00,0.76
5589.00,0.76
5588.00,0.76
5587.00,0.76
5586.00,0.76
5585.00,0.76
5584.00,0.76
5583.00,0.76
5582.00,0.76
5581.00,0.76
5580.00,0.76
5579.00,0.76
5578.00,0.77
5577.00,0.77
5576.00,0.77
5575.00,0.77
5574.00,0.77
5573.00,0.77
5572.00,0.77
5571.00,0.77
5570.00,0.77
5569.00,0.77
5568.00,0.77
5567.00,0.77
5566.00,0.78
5565.00,0.78
5564.00,0.78
5563.00,0.78
5562.00,0.78
5561.00,0.78
5560.00,0.78
5559.00,0.78
5558.00,0.78
5557.00,0.78
5556.00,0.78
5555.00,0.79
5554.00,0.79
5553.00,0.79
5552.00,0.79
5551.00,0.79
5550.00,0.79
5549.00,0.79
5548.00,0.79
5547.00,0.79
5546.00,0.79
5545.00,0.79
5544.00,0.79
5543.00,0.79
5542.00,0.79
5541.00,0.79
5540.00,0.79
5539.00,0.79
5538.00,0.80
5537.00,0.80
5536.00,0.80
5535.00,0.80
5534.00,0.80
5533.00,0.80
5532.00,0.80
5531.00,0.80
5530.00,0.80
5529.00,0.80
5528.00,0.80
5527.00,0.80
5526.00,0.80
5525.00,0.80
5524.00,0.80
5523.00,0.80
5522.00,0.80
5521.00,0.81
5520.00,0.81
5519.00,0.81
5518.00,0.81
5517.00,0.81
5516.00,0.81
5515.00,0.81
5514.00,0.81
5513.00,0.81
5512.00,0.81
5511.00,0.81
5510.00,0.81
5509.00,0.81
5508.00,0.81
5507.00,0.81
5506.00,0.81
5505.00,0.81
5504.00,0.81
5503.00,0.81
5502.00,0.81
5501.00,0.81
5500.00,0.81
5499.00,0.81
5498.00,0.81
5497.00,0.81
5496.00,0.81
5495.00,0.81
5494.00,0.81
5493.00,0.81
5492.00,0.81
5491.00,0.81
5490.00,0.81
5489.00,0.81
5488.00,0.81
5487.00,0.81
5486.00,0.81
5485.00,0.81
5484.00,0.82
5483.00,0.82
5482.00,0.82
5481.00,0.82
5480.00,0.82
5479.00,0.82
5478.00,0.82
5477.00,0.82
5476.00,0.82
5475.00,0.82
5474.00,0.82
5473.00,0.82
5472.00,0.83
5471.00,0.83
5470.00,0.83
5469.00,0.83
5468.00,0.83
5467.00,0.83
5466.00,0.83
5465.00,0.83
5464.00,0.83
5463.00,0.83
5462.00,0.83
5461.00,0.83
5460.00,0.84
5459.00,0.84
5458.00,0.84
5457.00,0.84
5456.00,0.84
5455.00,0.84
5454.00,0.84
5453.00,0.84
5452.00,0.84
5451.00,0.84
5450.00,0.84
5449.00,0.84
5448.00,0.84
5447.00,0.84
5446.00,0.84
5445.00,0.84
5444.00,0.84
5443.00,0.84
5442.00,0.84
5441.00,0.84
5440.00,0.84
5439.00,0.84
5438.00,0.84
5437.00,0.84
5436.00,0.84
5435.00,0.84
5434.00,0.84
5433.00,0.84
5432.00,0.84
5431.00,0.84
5430.00,0.84
5429.00,0.84
5428.00,0.84
5427.00,0.84
5426.00,0.84
5425.00,0.84
5424.00,0.84
5423.00,0.84
5422.00,0.84
5421.00,0.84
5420.00,0.84
5419.00,0.84
5418.00,0.84
5417.00,0.84
5416.00,0.84
5415.00,0.84
5414.00,0.84
5413.00,0.84
5412.00,0.84
5411.00,0.84
5410.00,0.84
5409.00,0.84
5408.00,0.84
5407.00,0.84
5406.00,0.84
5405.00,0.84
5404.00,0.84
5403.00,0.84
5402.00,0.84
5401.00,0.84
5400.00,0.84
5399.00,0.84
5398.00,0.84
5397.00,0.84
5396.00,0.84
5395.00,0.84
5394.00,0.84
5393.00,0.84
5392.00,0.84
5391.00,0.83
5390.00,0.83
5389.00,0.83
5388.00,0.83
5387.00,0.83
5386.00,0.83
5385.00,0.83
5384.00,0.82
5383.00,0.82
5382.00,0.82
5381.00,0.82
5380.00,0.82
5379.00,0.82
5378.00,0.81
5377.00,0.81
5376.00,0.81
5375.00,0.81
5374.00,0.81
5373.00,0.81
5372.00,0.80
5371.00,0.80
5370.00,0.80
5369.00,0.80
5368.00,0.80
5367.00,0.79
5366.00,0.79
5365.00,0.79
5364.00,0.79
5363.00,0.78
5362.00,0.78
5361.00,0.78
5360.00,0.77
5359.00,0.77
5358.00,0.77
5357.00,0.76
5356.00,0.76
5355.00,0.75
5354.00,0.75
5353.00,0.74
5352.00,0.74
5351.00,0.73
5350.00,0.73
5349.00,0.72
5348.00,0.72
5347.00,0.71
5346.00,0.71
5345.00,0.70
5344.00,0.69
5343.00,0.69
5342.00,0.68
5341.00,0.68
5340.00,0.67
5339.00,0.67
5338.00,0.66
5337.00,0.66
5336.00,0.65
5335.00,0.65
5334.00,0.64
5333.00,0.64
5332.00,0.63
5331.00,0.63
5330.00,0.62
5329.00,0.62
5328.00,0.61
5327.00,0.61
5326.00,0.60
5325.00,0.60
5324.00,0.59
5323.00,0.59
5322.00,0.58
5321.00,0.58
5320.00,0.58
5319.00,0.57
5318.00,0.57
5317.00,0.56
5316.00,0.56
5315.00,0.56
5314.00,0.55
5313.00,0.55
5312.00,0.54
5311.00,0.54
5310.00,0.54
5309.00,0.53
5308.00,0.53
5307.00,0.53
5306.00,0.53
5305.00,0.52
5304.00,0.52
5303.00,0.52
5302.00,0.52
5301.00,0.51
5300.00,0.51
5299.00,0.51
5298.00,0.51
5297.00,0.51
5296.00,0.51
5295.00,0.50
5294.00,0.50
5293.00,0.50
5292.00,0.50
5291.00,0.50
5290.00,0.50
5289.00,0.50
5288.00,0.50
5287.00,0.49
5286.00,0.49
5285.00,0.49
5284.00,0.49
5283.00,0.49
5282.00,0.49
5281.00,0.49
5280.00,0.49
5279.00,0.49
5278.00,0.49
5277.00,0.49
5276.00,0.48
5275.00,0.48
5274.00,0.48
5273.00,0.48
5272.00,0.48
5271.00,0.48
5270.00,0.48
5269.00,0.48
5268.00,0.48
5267.00,0.48
5266.00,0.48
5265.00,0.48
5264.00,0.48
5263.00,0.48
5262.00,0.48
5261.00,0.48
5260.00,0.48
5259.00,0.48
5258.00,0.48
5257.00,0.48
5256.00,0.48
5255.00,0.48
5254.00,0.48
5253.00,0.48
5252.00,0.48
5251.00,0.48
5250.00,0.48
5249.00,0.48
5248.00,0.48
5247.00,0.48
5246.00,0.48
5245.00,0.48
5244.00,0.48
5243.00,0.48
5242.00,0.49
5241.00,0.49
5240.00,0.49
5239.00,0.49
5238.00,0.49
5237.00,0.49
5236.00,0.49
5235.00,0.49
5234.00,0.49
5233.00,0.49
5232.00,0.49
5231.00,0.49
5230.00,0.49
5229.00,0.49
5228.00,0.49
5227.00,0.49
5226.00,0.49
5225.00,0.49
5224.00,0.49
5223.00,0.49
5222.00,0.49
5221.00,0.49
5220.00,0.49
5219.00,0.49
5218.00,0.49
5217.00,0.49
5216.00,0.49
5215.00,0.49
5214.00,0.49
5213.00,0.49
5212.00,0.49
5211.00,0.49
5210.00,0.49
5209.00,0.49
5208.00,0.49
5207.00,0.49
5206.00,0.49
5205.00,0.49
5204.00,0.49
5203.00,0.49
5202.00,0.49
5201.00,0.49
5200.00,0.49
5199.00,0.49
5198.00,0.49
5197.00,0.49
5196.00,0.49
5195.00,0.49
5194.00,0.50
5193.00,0.50
5192.00,0.50
5191.00,0.50
5190.00,0.50
5189.00,0.50
5188.00,0.50
5187.00,0.50
5186.00,0.50
5185.00,0.50
5184.00,0.50
5183.00,0.50
5182.00,0.50
5181.00,0.50
5180.00,0.50
5179.00,0.50
5178.00,0.50
5177.00,0.50
5176.00,0.50
5175.00,0.50
5174.00,0.50
5173.00,0.50
5172.00,0.50
5171.00,0.50
5170.00,0.50
5169.00,0.50
5168.00,0.50
5167.00,0.50
5166.00,0.50
5165.00,0.50
5164.00,0.50
5163.00,0.50
5162.00,0.50
5161.00,0.50
5160.00,0.50
5159.00,0.50
5158.00,0.50
5157.00,0.50
5156.00,0.50
5155.00,0.50
5154.00,0.50
5153.00,0.50
5152.00,0.50
5151.00,0.50
5150.00,0.50
5149.00,0.50
5148.00,0.51
5147.00,0.51
5146.00,0.51
5145.00,0.51
5144.00,0.51
5143.00,0.51
5142.00,0.51
5141.00,0.51
5140.00,0.51
5139.00,0.51
5138.00,0.51
5137.00,0.51
5136.00,0.51
5135.00,0.51
5134.00,0.51
5133.00,0.51
5132.00,0.51
5131.00,0.51
5130.00,0.51
5129.00,0.51
5128.00,0.51
5127.00,0.51
5126.00,0.51
5125.00,0.51
5124.00,0.51
5123.00,0.51
5122.00,0.51
5121.00,0.51
5120.00,0.51
5119.00,0.51
5118.00,0.51
5117.00,0.51
5116.00,0.51
5115.00,0.51
5114.00,0.51
5113.00,0.51
5112.00,0.51
5111.00,0.52
5110.00,0.52
5109.00,0.52
5108.00,0.52
5107.00,0.52
5106.00,0.52
5105.00,0.52
5104.00,0.52
5103.00,0.52
5102.00,0.52
5101.00,0.52
5100.00,0.52
5099.00,0.52
5098.00,0.52
5097.00,0.52
5096.00,0.52
5095.00,0.52
5094.00,0.52
5093.00,0.52
5092.00,0.52
5091.00,0.52
5090.00,0.52
5089.00,0.52
5088.00,0.52
5087.00,0.52
5086.00,0.52
5085.00,0.52
5084.00,0.53
5083.00,0.53
5082.00,0.53
5081.00,0.53
5080.00,0.53
5079.00,0.53
5078.00,0.53
5077.00,0.53
5076.00,0.53
5075.00,0.53
5074.00,0.53
5073.00,0.53
5072.00,0.53
5071.00,0.53
5070.00,0.53
5069.00,0.53
5068.00,0.53
5067.00,0.53
5066.00,0.53
5065.00,0.53
5064.00,0.53
5063.00,0.53
5062.00,0.53
5061.00,0.53
5060.00,0.53
5059.00,0.53
5058.00,0.53
5057.00,0.53
5056.00,0.53
5055.00,0.53
5054.00,0.53
5053.00,0.53
5052.00,0.53
5051.00,0.53
5050.00,0.53
5049.00,0.53
5048.00,0.53
5047.00,0.53
5046.00,0.53
5045.00,0.53
5044.00,0.53
5043.00,0.53
5042.00,0.53
5041.00,0.54
5040.00,0.54
5039.00,0.54
5038.00,0.54
5037.00,0.54
5036.00,0.54
5035.00,0.54
5034.00,0.54
5033.00,0.54
5032.00,0.54
5031.00,0.54
5030.00,0.54
5029.00,0.54
5028.00,0.54
5027.00,0.54
5026.00,0.54
5025.00,0.54
5024.00,0.54
5023.00,0.54
5022.00,0.54
5021.00,0.54
5020.00,0.54
5019.00,0.54
5018.00,0.54
5017.00,0.54
5016.00,0.55
5015.00,0.55
5014.00,0.55
5013.00,0.55
5012.00,0.55
5011.00,0.55
5010.00,0.55
5009.00,0.55
5008.00,0.55
5007.00,0.55
5006.00,0.55
5005.00,0.55
5004.00,0.55
5003.00,0.55
5002.00,0.55
5001.00,0.55
5000.00,0.55
4999.00,0.55
4998.00,0.55
4997.00,0.55
4996.00,0.55
4995.00,0.55
4994.00,0.55
4993.00,0.55
4992.00,0.55
4991.00,0.55
4990.00,0.55
4989.00,0.55
4988.00,0.55
4987.00,0.55
4986.00,0.55
4985.00,0.55
4984.00,0.55
4983.00,0.55
4982.00,0.55
4981.00,0.55
4980.00,0.55
4979.00,0.55
4978.00,0.55
4977.00,0.56
4976.00,0.56
4975.00,0.56
4974.00,0.56
4973.00,0.56
4972.00,0.56
4971.00,0.56
4970.00,0.56
4969.00,0.56
4968.00,0.56
4967.00,0.56
4966.00,0.56
4965.00,0.56
4964.00,0.56
4963.00,0.56
4962.00,0.56
4961.00,0.56
4960.00,0.56
4959.00,0.56
4958.00,0.56
4957.00,0.56
4956.00,0.56
4955.00,0.57
4954.00,0.57
4953.00,0.57
4952.00,0.57
4951.00,0.57
4950.00,0.57
4949.00,0.57
4948.00,0.57
4947.00,0.57
4946.00,0.57
4945.00,0.57
4944.00,0.57
4943.00,0.57
4942.00,0.57
4941.00,0.57
4940.00,0.57
4939.00,0.57
4938.00,0.58
4937.00,0.58
4936.00,0.58
4935.00,0.58
4934.00,0.58
4933.00,0.58
4932.00,0.58
4931.00,0.58
4930.00,0.58
4929.00,0.58
4928.00,0.58
4927.00,0.58
4926.00,0.58
4925.00,0.58
4924.00,0.58
4923.00,0.59
4922.00,0.59
4921.00,0.59
4920.00,0.59
4919.00,0.59
4918.00,0.59
4917.00,0.59
4916.00,0.59
4915.00,0.59
4914.00,0.59
4913.00,0.59
4912.00,0.59
4911.00,0.59
4910.00,0.59
4909.00,0.59
4908.00,0.59
4907.00,0.59
4906.00,0.59
4905.00,0.59
4904.00,0.59
4903.00,0.59
4902.00,0.59
4901.00,0.59
4900.00,0.59
4899.00,0.59
4898.00,0.59
4897.00,0.59
4896.00,0.59
4895.00,0.59
4894.00,0.59
4893.00,0.59
4892.00,0.59
4891.00,0.59
4890.00,0.59
4889.00,0.59
4888.00,0.59
4887.00,0.59
4886.00,0.59
4885.00,0.59
4884.00,0.59
4883.00,0.59
4882.00,0.59
4881.00,0.59
4880.00,0.59
4879.00,0.59
4878.00,0.59
4877.00,0.59
4876.00,0.59
4875.00,0.59
4874.00,0.59
4873.00,0.59
4872.00,0.59
4871.00,0.59
4870.00,0.59
4869.00,0.59
4868.00,0.59
4867.00,0.59
4866.00,0.59
4865.00,0.60
4864.00,0.60
4863.00,0.60
4862.00,0.60
4861.00,0.60
4860.00,0.60
4859.00,0.60
4858.00,0.60
4857.00,0.60
4856.00,0.60
4855.00,0.60
4854.00,0.60
4853.00,0.60
4852.00,0.60
4851.00,0.60
4850.00,0.60
4849.00,0.60
4848.00,0.60
4847.00,0.60
4846.00,0.61
4845.00,0.61
4844.00,0.61
4843.00,0.61
4842.00,0.61
4841.00,0.61
4840.00,0.61
4839.00,0.61
4838.00,0.61
4837.00,0.61
4836.00,0.61
4835.00,0.61
4834.00,0.61
4833.00,0.61
4832.00,0.61
4831.00,0.61
4830.00,0.61
4829.00,0.61
4828.00,0.61
4827.00,0.61
4826.00,0.61
4825.00,0.61
4824.00,0.61
4823.00,0.61
4822.00,0.61
4821.00,0.61
4820.00,0.61
4819.00,0.61
4818.00,0.61
4817.00,0.61
4816.00,0.61
4815.00,0.61
4814.00,0.61
4813.00,0.61
4812.00,0.61
4811.00,0.62
4810.00,0.62
4809.00,0.62
4808.00,0.62
4807.00,0.62
4806.00,0.62
4805.00,0.62
4804.00,0.62
4803.00,0.62
4802.00,0.62
4801.00,0.62
4800.00,0.62
4799.00,0.62
4798.00,0.62
4797.00,0.62
4796.00,0.62
4795.00,0.62
4794.00,0.62
4793.00,0.62
4792.00,0.62
4791.00,0.62
4790.00,0.62
4789.00,0.62
4788.00,0.62
4787.00,0.63
4786.00,0.63
4785.00,0.63
4784.00,0.63
4783.00,0.63
4782.00,0.63
4781.00,0.63
4780.00,0.63
4779.00,0.63
4778.00,0.63
4777.00,0.63
4776.00,0.63
4775.00,0.63
4774.00,0.63
4773.00,0.63
4772.00,0.63
4771.00,0.63
4770.00,0.63
4769.00,0.63
4768.00,0.63
4767.00,0.63
4766.00,0.63
4765.00,0.63
4764.00,0.63
4763.00,0.63
4762.00,0.63
4761.00,0.63
4760.00,0.63
4759.00,0.63
4758.00,0.64
4757.00,0.64
4756.00,0.64
4755.00,0.64
4754.00,0.64
4753.00,0.64
4752.00,0.64
4751.00,0.64
4750.00,0.64
4749.00,0.64
4748.00,0.65
4747.00,0.65
4746.00,0.65
4745.00,0.65
4744.00,0.65
4743.00,0.65
4742.00,0.65
4741.00,0.65
4740.00,0.65
4739.00,0.65
4738.00,0.66
4737.00,0.66
4736.00,0.66
4735.00,0.66
4734.00,0.66
4733.00,0.66
4732.00,0.66
4731.00,0.66
4730.00,0.66
4729.00,0.66
4728.00,0.67
4727.00,0.67
4726.00,0.67
4725.00,0.67
4724.00,0.67
4723.00,0.67
4722.00,0.67
4721.00,0.67
4720.00,0.67
4719.00,0.67
4718.00,0.67
4717.00,0.67
4716.00,0.67
4715.00,0.67
4714.00,0.68
4713.00,0.68
4712.00,0.68
4711.00,0.68
4710.00,0.68
4709.00,0.68
4708.00,0.68
4707.00,0.68
4706.00,0.68
4705.00,0.68
4704.00,0.68
4703.00,0.68
4702.00,0.68
4701.00,0.68
4700.00,0.68
4699.00,0.68
4698.00,0.68
4697.00,0.68
4696.00,0.68
4695.00,0.68
4694.00,0.69
4693.00,0.69
4692.00,0.69
4691.00,0.69
4690.00,0.69
4689.00,0.69
4688.00,0.69
4687.00,0.69
4686.00,0.69
4685.00,0.69
4684.00,0.69
4683.00,0.69
4682.00,0.69
4681.00,0.69
4680.00,0.70
4679.00,0.70
4678.00,0.70
4677.00,0.70
4676.00,0.70
4675.00,0.70
4674.00,0.70
4673.00,0.70
4672.00,0.70
4671.00,0.70
4670.00,0.70
4669.00,0.70
4668.00,0.70
4667.00,0.71
4666.00,0.71
4665.00,0.71
4664.00,0.71
4663.00,0.71
4662.00,0.71
4661.00,0.71
4660.00,0.71
4659.00,0.71
4658.00,0.71
4657.00,0.71
4656.00,0.71
4655.00,0.71
4654.00,0.71
4653.00,0.72
4652.00,0.72
4651.00,0.72
4650.00,0.72
4649.00,0.72
4648.00,0.72
4647.00,0.72
4646.00,0.72
4645.00,0.72
4644.00,0.72
4643.00,0.72
4642.00,0.72
4641.00,0.72
4640.00,0.72
4639.00,0.72
4638.00,0.72
4637.00,0.72
4636.00,0.72
4635.00,0.72
4634.00,0.72
4633.00,0.72
4632.00,0.72
4631.00,0.72
4630.00,0.72
4629.00,0.72
4628.00,0.73
4627.00,0.73
4626.00,0.73
4625.00,0.73
4624.00,0.73
4623.00,0.73
4622.00,0.73
4621.00,0.73
4620.00,0.73
4619.00,0.73
4618.00,0.73
4617.00,0.73
4616.00,0.73
4615.00,0.73
4614.00,0.73
4613.00,0.73
4612.00,0.73
4611.00,0.73
4610.00,0.73
4609.00,0.73
4608.00,0.73
4607.00,0.73
4606.00,0.73
4605.00,0.73
4604.00,0.74
4603.00,0.74
4602.00,0.74
4601.00,0.74
4600.00,0.74
4599.00,0.74
4598.00,0.74
4597.00,0.74
4596.00,0.74
4595.00,0.74
4594.00,0.74
4593.00,0.74
4592.00,0.74
4591.00,0.74
4590.00,0.74
4589.00,0.74
4588.00,0.74
4587.00,0.74
4586.00,0.74
4585.00,0.74
4584.00,0.75
4583.00,0.75
4582.00,0.75
4581.00,0.75
4580.00,0.75
4579.00,0.75
4578.00,0.75
4577.00,0.75
4576.00,0.75
4575.00,0.75
4574.00,0.75
4573.00,0.75
4572.00,0.75
4571.00,0.75
4570.00,0.75
4569.00,0.75
4568.00,0.75
4567.00,0.75
4566.00,0.75
4565.00,0.75
4564.00,0.75
4563.00,0.75
4562.00,0.75
4561.00,0.75
4560.00,0.76
4559.00,0.76
4558.00,0.76
4557.00,0.76
4556.00,0.76
4555.00,0.76
4554.00,0.76
4553.00,0.76
4552.00,0.76
4551.00,0.76
4550.00,0.76
4549.00,0.76
4548.00,0.76
4547.00,0.76
4546.00,0.76
4545.00,0.76
4544.00,0.76
4543.00,0.76
4542.00,0.76
4541.00,0.76
4540.00,0.76
4539.00,0.76
4538.00,0.76
4537.00,0.76
4536.00,0.76
4535.00,0.76
4534.00,0.76
4533.00,0.76
4532.00,0.77
4531.00,0.77
4530.00,0.77
4529.00,0.77
4528.00,0.77
4527.00,0.77
4526.00,0.77
4525.00,0.77
4524.00,0.77
4523.00,0.77
4522.00,0.77
4521.00,0.77
4520.00,0.77
4519.00,0.77
4518.00,0.77
4517.00,0.77
4516.00,0.77
4515.00,0.77
4514.00,0.77
4513.00,0.77
4512.00,0.77
4511.00,0.76
4510.00,0.76
4509.00,0.76
4508.00,0.76
4507.00,0.76
4506.00,0.76
4505.00,0.76
4504.00,0.76
4503.00,0.76
4502.00,0.76
4501.00,0.76
4500.00,0.76
4499.00,0.76
4498.00,0.76
4497.00,0.76
4496.00,0.76
4495.00,0.76
4494.00,0.76
4493.00,0.76
4492.00,0.76
4491.00,0.76
4490.00,0.76
4489.00,0.76
4488.00,0.76
4487.00,0.76
4486.00,0.76
4485.00,0.76
4484.00,0.76
4483.00,0.76
4482.00,0.76
4481.00,0.76
4480.00,0.76
4479.00,0.76
4478.00,0.76
4477.00,0.76
4476.00,0.75
4475.00,0.75
4474.00,0.75
4473.00,0.75
4472.00,0.75
4471.00,0.75
4470.00,0.75
4469.00,0.75
4468.00,0.75
4467.00,0.74
4466.00,0.74
4465.00,0.74
4464.00,0.74
4463.00,0.74
4462.00,0.74
4461.00,0.74
4460.00,0.74
4459.00,0.74
4458.00,0.74
4457.00,0.73
4456.00,0.73
4455.00,0.73
4454.00,0.73
4453.00,0.73
4452.00,0.73
4451.00,0.73
4450.00,0.72
4449.00,0.72
4448.00,0.72
4447.00,0.72
4446.00,0.72
4445.00,0.72
4444.00,0.71
4443.00,0.71
4442.00,0.71
4441.00,0.71
4440.00,0.71
4439.00,0.71
4438.00,0.71
4437.00,0.71
4436.00,0.70
4435.00,0.70
4434.00,0.70
4433.00,0.70
4432.00,0.70
4431.00,0.70
4430.00,0.70
4429.00,0.70
4428.00,0.70
4427.00,0.70
4426.00,0.70
4425.00,0.70
4424.00,0.70
4423.00,0.70
4422.00,0.70
4421.00,0.70
4420.00,0.70
4419.00,0.70
4418.00,0.70
4417.00,0.70
4416.00,0.70
4415.00,0.70
4414.00,0.70
4413.00,0.70
4412.00,0.70
4411.00,0.70
4410.00,0.70
4409.00,0.70
4408.00,0.70
4407.00,0.70
4406.00,0.70
4405.00,0.70
4404.00,0.70
4403.00,0.70
4402.00,0.70
4401.00,0.70
4400.00,0.70
4399.00,0.70
4398.00,0.71
4397.00,0.71
4396.00,0.71
4395.00,0.71
4394.00,0.71
4393.00,0.71
4392.00,0.71
4391.00,0.71
4390.00,0.71
4389.00,0.71
4388.00,0.71
4387.00,0.71
4386.00,0.71
4385.00,0.71
4384.00,0.71
4383.00,0.71
4382.00,0.71
4381.00,0.71
4380.00,0.71
4379.00,0.71
4378.00,0.71
4377.00,0.71
4376.00,0.71
4375.00,0.71
4374.00,0.71
4373.00,0.71
4372.00,0.71
4371.00,0.71
4370.00,0.71
4369.00,0.71
4368.00,0.71
4367.00,0.71
4366.00,0.71
4365.00,0.71
4364.00,0.71
4363.00,0.71
4362.00,0.71
4361.00,0.71
4360.00,0.71
4359.00,0.71
4358.00,0.71
4357.00,0.71
4356.00,0.71
4355.00,0.71
4354.00,0.71
4353.00,0.71
4352.00,0.71
4351.00,0.71
4350.00,0.71
4349.00,0.72
4348.00,0.72
4347.00,0.72
4346.00,0.72
4345.00,0.72
4344.00,0.72
4343.00,0.72
4342.00,0.72
4341.00,0.72
4340.00,0.72
4339.00,0.72
4338.00,0.72
4337.00,0.72
4336.00,0.72
4335.00,0.72
4334.00,0.72
4333.00,0.72
4332.00,0.72
4331.00,0.72
4330.00,0.72
4329.00,0.72
4328.00,0.72
4327.00,0.72
4326.00,0.72
4325.00,0.72
4324.00,0.72
4323.00,0.72
4322.00,0.72
4321.00,0.72
4320.00,0.72
4319.00,0.72
4318.00,0.73
4317.00,0.73
4316.00,0.73
4315.00,0.73
4314.00,0.73
4313.00,0.73
4312.00,0.73
4311.00,0.73
4310.00,0.73
4309.00,0.73
4308.00,0.74
4307.00,0.74
4306.00,0.74
4305.00,0.74
4304.00,0.74
4303.00,0.74
4302.00,0.74
4301.00,0.74
4300.00,0.74
4299.00,0.74
4298.00,0.74
4297.00,0.74
4296.00,0.74
4295.00,0.74
4294.00,0.74
4293.00,0.74
4292.00,0.74
4291.00,0.74
4290.00,0.74
4289.00,0.74
4288.00,0.74
4287.00,0.75
4286.00,0.75
4285.00,0.75
4284.00,0.75
4283.00,0.75
4282.00,0.75
4281.00,0.75
4280.00,0.75
4279.00,0.75
4278.00,0.75
4277.00,0.75
4276.00,0.75
4275.00,0.75
4274.00,0.75
4273.00,0.75
4272.00,0.75
4271.00,0.75
4270.00,0.75
4269.00,0.75
4268.00,0.75
4267.00,0.75
4266.00,0.76
4265.00,0.76
4264.00,0.76
4263.00,0.76
4262.00,0.75
4261.00,0.75
4260.00,0.75
4259.00,0.75
4258.00,0.75
4257.00,0.75
4256.00,0.75
4255.00,0.75
4254.00,0.75
4253.00,0.75
4252.00,0.75
4251.00,0.75
4250.00,0.75
4249.00,0.75
4248.00,0.75
4247.00,0.75
4246.00,0.75
4245.00,0.75
4244.00,0.76
4243.00,0.76
4242.00,0.76
4241.00,0.76
4240.00,0.76
4239.00,0.76
4238.00,0.76
4237.00,0.76
4236.00,0.76
4235.00,0.76
4234.00,0.76
4233.00,0.76
4232.00,0.76
4231.00,0.76
4230.00,0.76
4229.00,0.76
4228.00,0.76
4227.00,0.76
4226.00,0.76
4225.00,0.77
4224.00,0.77
4223.00,0.77
4222.00,0.77
4221.00,0.77
4220.00,0.77
4219.00,0.77
4218.00,0.77
4217.00,0.77
4216.00,0.77
4215.00,0.77
4214.00,0.77
4213.00,0.77
4212.00,0.77
4211.00,0.77
4210.00,0.77
4209.00,0.77
4208.00,0.77
4207.00,0.77
4206.00,0.77
4205.00,0.77
4204.00,0.77
4203.00,0.77
4202.00,0.77
4201.00,0.77
4200.00,0.77
4199.00,0.78
4198.00,0.78
4197.00,0.78
4196.00,0.78
4195.00,0.78
4194.00,0.78
4193.00,0.78
4192.00,0.78
4191.00,0.78
4190.00,0.78
4189.00,0.78
4188.00,0.78
4187.00,0.78
4186.00,0.78
4185.00,0.78
4184.00,0.78
4183.00,0.78
4182.00,0.78
4181.00,0.78
4180.00,0.78
4179.00,0.78
4178.00,0.78
4177.00,0.78
4176.00,0.79
4175.00,0.79
4174.00,0.79
4173.00,0.79
4172.00,0.79
4171.00,0.79
4170.00,0.79
4169.00,0.79
4168.00,0.79
4167.00,0.79
4166.00,0.79
4165.00,0.79
4164.00,0.79
4163.00,0.79
4162.00,0.79
4161.00,0.79
4160.00,0.79
4159.00,0.79
4158.00,0.79
4157.00,0.79
4156.00,0.79
4155.00,0.79
4154.00,0.79
4153.00,0.79
4152.00,0.79
4151.00,0.79
4150.00,0.79
4149.00,0.79
4148.00,0.79
4147.00,0.79
4146.00,0.79
4145.00,0.79
4144.00,0.79
4143.00,0.79
4142.00,0.79
4141.00,0.79
4140.00,0.79
4139.00,0.79
4138.00,0.79
4137.00,0.79
4136.00,0.79
4135.00,0.79
4134.00,0.79
4133.00,0.79
4132.00,0.79
4131.00,0.79
4130.00,0.80
4129.00,0.80
4128.00,0.80
4127.00,0.80
4126.00,0.80
4125.00,0.80
4124.00,0.80
4123.00,0.80
4122.00,0.80
4121.00,0.80
4120.00,0.80
4119.00,0.80
4118.00,0.80
4117.00,0.80
4116.00,0.80
4115.00,0.80
4114.00,0.80
4113.00,0.80
4112.00,0.80
4111.00,0.80
4110.00,0.80
4109.00,0.80
4108.00,0.80
4107.00,0.80
4106.00,0.80
4105.00,0.80
4104.00,0.80
4103.00,0.80
4102.00,0.80
4101.00,0.80
4100.00,0.80
4099.00,0.80
4098.00,0.81
4097.00,0.81
4096.00,0.81
4095.00,0.81
4094.00,0.80
4093.00,0.80
4092.00,0.80
4091.00,0.80
4090.00,0.80
4089.00,0.80
4088.00,0.80
4087.00,0.80
4086.00,0.80
4085.00,0.81
4084.00,0.81
4083.00,0.81
4082.00,0.81
4081.00,0.81
4080.00,0.81
4079.00,0.81
4078.00,0.81
4077.00,0.81
4076.00,0.81
4075.00,0.81
4074.00,0.81
4073.00,0.81
4072.00,0.81
4071.00,0.81
4070.00,0.81
4069.00,0.82
4068.00,0.82
4067.00,0.82
4066.00,0.82
4065.00,0.82
4064.00,0.82
4063.00,0.82
4062.00,0.82
4061.00,0.82
4060.00,0.82
4059.00,0.82
4058.00,0.82
4057.00,0.82
4056.00,0.82
4055.00,0.82
4054.00,0.82
4053.00,0.82
4052.00,0.82
4051.00,0.81
4050.00,0.81
4049.00,0.81
4048.00,0.81
4047.00,0.81
4046.00,0.81
4045.00,0.81
4044.00,0.81
4043.00,0.81
4042.00,0.81
4041.00,0.81
4040.00,0.81
4039.00,0.81
4038.00,0.81
4037.00,0.81
4036.00,0.81
4035.00,0.81
4034.00,0.81
4033.00,0.81
4032.00,0.82
4031.00,0.82
4030.00,0.82
4029.00,0.82
4028.00,0.82
4027.00,0.83
4026.00,0.83
4025.00,0.83
4024.00,0.83
4023.00,0.83
4022.00,0.84
4021.00,0.84
4020.00,0.84
4019.00,0.84
4018.00,0.84
4017.00,0.84
4016.00,0.84
4015.00,0.84
4014.00,0.84
4013.00,0.84
4012.00,0.84
4011.00,0.84
4010.00,0.84
4009.00,0.84
4008.00,0.84
4007.00,0.84
4006.00,0.84
4005.00,0.84
4004.00,0.84
4003.00,0.84
4002.00,0.84
4001.00,0.84
4000.00,0.84
