创建为新数据集,样品 763 用户 Administrator 日期 星期五, 七月 20 2018
cm-1,%T
10000.00,0.82
9999.00,0.82
9998.00,0.83
9997.00,0.83
9996.00,0.83
9995.00,0.83
9994.00,0.83
9993.00,0.83
9992.00,0.83
9991.00,0.83
9990.00,0.83
9989.00,0.83
9988.00,0.83
9987.00,0.82
9986.00,0.82
9985.00,0.82
9984.00,0.82
9983.00,0.82
9982.00,0.82
9981.00,0.81
9980.00,0.81
9979.00,0.81
9978.00,0.81
9977.00,0.81
9976.00,0.81
9975.00,0.80
9974.00,0.80
9973.00,0.80
9972.00,0.80
9971.00,0.80
9970.00,0.80
9969.00,0.80
9968.00,0.80
9967.00,0.80
9966.00,0.80
9965.00,0.80
9964.00,0.80
9963.00,0.79
9962.00,0.79
9961.00,0.79
9960.00,0.79
9959.00,0.79
9958.00,0.78
9957.00,0.78
9956.00,0.78
9955.00,0.77
9954.00,0.77
9953.00,0.77
9952.00,0.77
9951.00,0.76
9950.00,0.76
9949.00,0.76
9948.00,0.76
9947.00,0.76
9946.00,0.76
9945.00,0.76
9944.00,0.76
9943.00,0.76
9942.00,0.77
9941.00,0.77
9940.00,0.77
9939.00,0.77
9938.00,0.77
9937.00,0.77
9936.00,0.77
9935.00,0.78
9934.00,0.78
9933.00,0.78
9932.00,0.78
9931.00,0.78
9930.00,0.78
9929.00,0.78
9928.00,0.78
9927.00,0.78
9926.00,0.78
9925.00,0.78
9924.00,0.78
9923.00,0.78
9922.00,0.78
9921.00,0.78
9920.00,0.78
9919.00,0.78
9918.00,0.79
9917.00,0.79
9916.00,0.79
9915.00,0.79
9914.00,0.79
9913.00,0.79
9912.00,0.80
9911.00,0.80
9910.00,0.80
9909.00,0.80
9908.00,0.81
9907.00,0.81
9906.00,0.81
9905.00,0.82
9904.00,0.82
9903.00,0.82
9902.00,0.82
9901.00,0.82
9900.00,0.82
9899.00,0.82
9898.00,0.82
9897.00,0.82
9896.00,0.82
9895.00,0.82
9894.00,0.82
9893.00,0.82
9892.00,0.82
9891.00,0.81
9890.00,0.81
9889.00,0.81
9888.00,0.81
9887.00,0.80
9886.00,0.80
9885.00,0.80
9884.00,0.80
9883.00,0.79
9882.00,0.79
9881.00,0.79
9880.00,0.79
9879.00,0.79
9878.00,0.79
9877.00,0.79
9876.00,0.79
9875.00,0.79
9874.00,0.80
9873.00,0.80
9872.00,0.80
9871.00,0.80
9870.00,0.80
9869.00,0.80
9868.00,0.80
9867.00,0.80
9866.00,0.81
9865.00,0.81
9864.00,0.81
9863.00,0.81
9862.00,0.81
9861.00,0.80
9860.00,0.80
9859.00,0.80
9858.00,0.80
9857.00,0.80
9856.00,0.80
9855.00,0.80
9854.00,0.80
9853.00,0.80
9852.00,0.80
9851.00,0.80
9850.00,0.80
9849.00,0.80
9848.00,0.80
9847.00,0.80
9846.00,0.81
9845.00,0.81
9844.00,0.81
9843.00,0.81
9842.00,0.81
9841.00,0.81
9840.00,0.81
9839.00,0.81
9838.00,0.81
9837.00,0.81
9836.00,0.81
9835.00,0.81
9834.00,0.81
9833.00,0.81
9832.00,0.81
9831.00,0.81
9830.00,0.80
9829.00,0.80
9828.00,0.80
9827.00,0.80
9826.00,0.80
9825.00,0.80
9824.00,0.80
9823.00,0.80
9822.00,0.80
9821.00,0.80
9820.00,0.79
9819.00,0.79
9818.00,0.79
9817.00,0.79
9816.00,0.79
9815.00,0.78
9814.00,0.78
9813.00,0.78
9812.00,0.78
9811.00,0.78
9810.00,0.77
9809.00,0.77
9808.00,0.77
9807.00,0.77
9806.00,0.78
9805.00,0.78
9804.00,0.78
9803.00,0.78
9802.00,0.78
9801.00,0.79
9800.00,0.79
9799.00,0.79
9798.00,0.80
9797.00,0.80
9796.00,0.80
9795.00,0.81
9794.00,0.81
9793.00,0.81
9792.00,0.81
9791.00,0.82
9790.00,0.82
9789.00,0.82
9788.00,0.82
9787.00,0.82
9786.00,0.82
9785.00,0.82
9784.00,0.82
9783.00,0.82
9782.00,0.82
9781.00,0.82
9780.00,0.82
9779.00,0.82
9778.00,0.82
9777.00,0.82
9776.00,0.82
9775.00,0.82
9774.00,0.82
9773.00,0.82
9772.00,0.81
9771.00,0.81
9770.00,0.81
9769.00,0.81
9768.00,0.81
9767.00,0.81
9766.00,0.80
9765.00,0.80
9764.00,0.80
9763.00,0.80
9762.00,0.80
9761.00,0.79
9760.00,0.79
9759.00,0.79
9758.00,0.79
9757.00,0.79
9756.00,0.78
9755.00,0.78
9754.00,0.78
9753.00,0.78
9752.00,0.78
9751.00,0.77
9750.00,0.77
9749.00,0.77
9748.00,0.77
9747.00,0.77
9746.00,0.77
9745.00,0.77
9744.00,0.77
9743.00,0.77
9742.00,0.77
9741.00,0.77
9740.00,0.77
9739.00,0.78
9738.00,0.78
9737.00,0.78
9736.00,0.78
9735.00,0.78
9734.00,0.78
9733.00,0.78
9732.00,0.79
9731.00,0.79
9730.00,0.79
9729.00,0.79
9728.00,0.79
9727.00,0.80
9726.00,0.80
9725.00,0.80
9724.00,0.80
9723.00,0.80
9722.00,0.80
9721.00,0.80
9720.00,0.81
9719.00,0.81
9718.00,0.81
9717.00,0.81
9716.00,0.81
9715.00,0.81
9714.00,0.81
9713.00,0.81
9712.00,0.80
9711.00,0.80
9710.00,0.80
9709.00,0.80
9708.00,0.80
9707.00,0.80
9706.00,0.80
9705.00,0.80
9704.00,0.79
9703.00,0.79
9702.00,0.79
9701.00,0.79
9700.00,0.79
9699.00,0.79
9698.00,0.79
9697.00,0.79
9696.00,0.79
9695.00,0.79
9694.00,0.79
9693.00,0.79
9692.00,0.79
9691.00,0.79
9690.00,0.79
9689.00,0.79
9688.00,0.79
9687.00,0.79
9686.00,0.79
9685.00,0.79
9684.00,0.79
9683.00,0.79
9682.00,0.79
9681.00,0.79
9680.00,0.79
9679.00,0.79
9678.00,0.79
9677.00,0.79
9676.00,0.78
9675.00,0.78
9674.00,0.78
9673.00,0.78
9672.00,0.78
9671.00,0.78
9670.00,0.78
9669.00,0.78
9668.00,0.78
9667.00,0.78
9666.00,0.78
9665.00,0.78
9664.00,0.78
9663.00,0.78
9662.00,0.78
9661.00,0.78
9660.00,0.78
9659.00,0.78
9658.00,0.78
9657.00,0.78
9656.00,0.78
9655.00,0.78
9654.00,0.78
9653.00,0.78
9652.00,0.79
9651.00,0.79
9650.00,0.79
9649.00,0.79
9648.00,0.79
9647.00,0.80
9646.00,0.80
9645.00,0.80
9644.00,0.81
9643.00,0.81
9642.00,0.81
9641.00,0.81
9640.00,0.81
9639.00,0.81
9638.00,0.81
9637.00,0.81
9636.00,0.81
9635.00,0.81
9634.00,0.81
9633.00,0.81
9632.00,0.81
9631.00,0.81
9630.00,0.81
9629.00,0.80
9628.00,0.80
9627.00,0.80
9626.00,0.80
9625.00,0.80
9624.00,0.80
9623.00,0.79
9622.00,0.79
9621.00,0.79
9620.00,0.79
9619.00,0.79
9618.00,0.79
9617.00,0.79
9616.00,0.79
9615.00,0.79
9614.00,0.79
9613.00,0.79
9612.00,0.79
9611.00,0.79
9610.00,0.79
9609.00,0.79
9608.00,0.79
9607.00,0.79
9606.00,0.79
9605.00,0.79
9604.00,0.80
9603.00,0.80
9602.00,0.80
9601.00,0.80
9600.00,0.80
9599.00,0.80
9598.00,0.80
9597.00,0.80
9596.00,0.80
9595.00,0.80
9594.00,0.80
9593.00,0.80
9592.00,0.80
9591.00,0.80
9590.00,0.80
9589.00,0.80
9588.00,0.80
9587.00,0.80
9586.00,0.80
9585.00,0.80
9584.00,0.80
9583.00,0.80
9582.00,0.80
9581.00,0.79
9580.00,0.79
9579.00,0.79
9578.00,0.79
9577.00,0.79
9576.00,0.79
9575.00,0.79
9574.00,0.79
9573.00,0.79
9572.00,0.79
9571.00,0.79
9570.00,0.80
9569.00,0.80
9568.00,0.80
9567.00,0.80
9566.00,0.80
9565.00,0.80
9564.00,0.80
9563.00,0.80
9562.00,0.81
9561.00,0.81
9560.00,0.81
9559.00,0.81
9558.00,0.81
9557.00,0.81
9556.00,0.81
9555.00,0.81
9554.00,0.81
9553.00,0.81
9552.00,0.81
9551.00,0.81
9550.00,0.81
9549.00,0.81
9548.00,0.81
9547.00,0.80
9546.00,0.80
9545.00,0.80
9544.00,0.80
9543.00,0.80
9542.00,0.80
9541.00,0.80
9540.00,0.80
9539.00,0.79
9538.00,0.79
9537.00,0.79
9536.00,0.79
9535.00,0.79
9534.00,0.79
9533.00,0.79
9532.00,0.79
9531.00,0.80
9530.00,0.80
9529.00,0.80
9528.00,0.80
9527.00,0.80
9526.00,0.80
9525.00,0.80
9524.00,0.80
9523.00,0.80
9522.00,0.80
9521.00,0.80
9520.00,0.80
9519.00,0.80
9518.00,0.80
9517.00,0.80
9516.00,0.80
9515.00,0.80
9514.00,0.80
9513.00,0.80
9512.00,0.80
9511.00,0.79
9510.00,0.79
9509.00,0.79
9508.00,0.79
9507.00,0.79
9506.00,0.79
9505.00,0.78
9504.00,0.78
9503.00,0.78
9502.00,0.78
9501.00,0.78
9500.00,0.78
9499.00,0.78
9498.00,0.77
9497.00,0.77
9496.00,0.77
9495.00,0.77
9494.00,0.77
9493.00,0.77
9492.00,0.77
9491.00,0.78
9490.00,0.78
9489.00,0.78
9488.00,0.78
9487.00,0.78
9486.00,0.78
9485.00,0.78
9484.00,0.78
9483.00,0.78
9482.00,0.79
9481.00,0.79
9480.00,0.79
9479.00,0.79
9478.00,0.79
9477.00,0.79
9476.00,0.79
9475.00,0.79
9474.00,0.80
9473.00,0.80
9472.00,0.80
9471.00,0.80
9470.00,0.80
9469.00,0.80
9468.00,0.80
9467.00,0.80
9466.00,0.80
9465.00,0.81
9464.00,0.81
9463.00,0.81
9462.00,0.81
9461.00,0.81
9460.00,0.81
9459.00,0.81
9458.00,0.81
9457.00,0.81
9456.00,0.80
9455.00,0.80
9454.00,0.80
9453.00,0.80
9452.00,0.80
9451.00,0.80
9450.00,0.80
9449.00,0.79
9448.00,0.79
9447.00,0.79
9446.00,0.79
9445.00,0.79
9444.00,0.79
9443.00,0.78
9442.00,0.78
9441.00,0.78
9440.00,0.78
9439.00,0.78
9438.00,0.78
9437.00,0.77
9436.00,0.77
9435.00,0.77
9434.00,0.77
9433.00,0.77
9432.00,0.77
9431.00,0.77
9430.00,0.77
9429.00,0.77
9428.00,0.77
9427.00,0.77
9426.00,0.77
9425.00,0.77
9424.00,0.77
9423.00,0.77
9422.00,0.77
9421.00,0.77
9420.00,0.77
9419.00,0.77
9418.00,0.77
9417.00,0.77
9416.00,0.77
9415.00,0.77
9414.00,0.77
9413.00,0.77
9412.00,0.77
9411.00,0.77
9410.00,0.77
9409.00,0.77
9408.00,0.77
9407.00,0.77
9406.00,0.78
9405.00,0.78
9404.00,0.78
9403.00,0.78
9402.00,0.78
9401.00,0.78
9400.00,0.78
9399.00,0.79
9398.00,0.79
9397.00,0.79
9396.00,0.79
9395.00,0.79
9394.00,0.79
9393.00,0.79
9392.00,0.79
9391.00,0.79
9390.00,0.80
9389.00,0.80
9388.00,0.80
9387.00,0.80
9386.00,0.80
9385.00,0.80
9384.00,0.80
9383.00,0.80
9382.00,0.80
9381.00,0.80
9380.00,0.80
9379.00,0.80
9378.00,0.80
9377.00,0.80
9376.00,0.80
9375.00,0.80
9374.00,0.80
9373.00,0.80
9372.00,0.80
9371.00,0.80
9370.00,0.81
9369.00,0.81
9368.00,0.81
9367.00,0.81
9366.00,0.81
9365.00,0.81
9364.00,0.81
9363.00,0.81
9362.00,0.82
9361.00,0.82
9360.00,0.82
9359.00,0.82
9358.00,0.82
9357.00,0.82
9356.00,0.82
9355.00,0.82
9354.00,0.82
9353.00,0.82
9352.00,0.82
9351.00,0.82
9350.00,0.82
9349.00,0.82
9348.00,0.82
9347.00,0.81
9346.00,0.81
9345.00,0.81
9344.00,0.80
9343.00,0.80
9342.00,0.80
9341.00,0.79
9340.00,0.79
9339.00,0.79
9338.00,0.78
9337.00,0.78
9336.00,0.78
9335.00,0.78
9334.00,0.77
9333.00,0.77
9332.00,0.77
9331.00,0.77
9330.00,0.77
9329.00,0.77
9328.00,0.77
9327.00,0.77
9326.00,0.77
9325.00,0.77
9324.00,0.77
9323.00,0.77
9322.00,0.77
9321.00,0.77
9320.00,0.77
9319.00,0.77
9318.00,0.78
9317.00,0.78
9316.00,0.78
9315.00,0.78
9314.00,0.78
9313.00,0.78
9312.00,0.78
9311.00,0.78
9310.00,0.78
9309.00,0.78
9308.00,0.79
9307.00,0.79
9306.00,0.79
9305.00,0.79
9304.00,0.79
9303.00,0.79
9302.00,0.79
9301.00,0.80
9300.00,0.80
9299.00,0.80
9298.00,0.80
9297.00,0.80
9296.00,0.80
9295.00,0.80
9294.00,0.80
9293.00,0.80
9292.00,0.80
9291.00,0.80
9290.00,0.80
9289.00,0.80
9288.00,0.80
9287.00,0.80
9286.00,0.80
9285.00,0.79
9284.00,0.79
9283.00,0.79
9282.00,0.79
9281.00,0.79
9280.00,0.79
9279.00,0.79
9278.00,0.79
9277.00,0.79
9276.00,0.80
9275.00,0.80
9274.00,0.80
9273.00,0.80
9272.00,0.80
9271.00,0.80
9270.00,0.80
9269.00,0.81
9268.00,0.81
9267.00,0.81
9266.00,0.81
9265.00,0.81
9264.00,0.81
9263.00,0.81
9262.00,0.81
9261.00,0.81
9260.00,0.81
9259.00,0.81
9258.00,0.81
9257.00,0.81
9256.00,0.81
9255.00,0.80
9254.00,0.80
9253.00,0.80
9252.00,0.80
9251.00,0.80
9250.00,0.79
9249.00,0.79
9248.00,0.79
9247.00,0.79
9246.00,0.79
9245.00,0.79
9244.00,0.79
9243.00,0.79
9242.00,0.79
9241.00,0.79
9240.00,0.79
9239.00,0.79
9238.00,0.79
9237.00,0.79
9236.00,0.80
9235.00,0.80
9234.00,0.80
9233.00,0.80
9232.00,0.80
9231.00,0.80
9230.00,0.81
9229.00,0.81
9228.00,0.81
9227.00,0.81
9226.00,0.81
9225.00,0.81
9224.00,0.81
9223.00,0.81
9222.00,0.81
9221.00,0.81
9220.00,0.81
9219.00,0.81
9218.00,0.81
9217.00,0.81
9216.00,0.81
9215.00,0.81
9214.00,0.81
9213.00,0.81
9212.00,0.81
9211.00,0.81
9210.00,0.81
9209.00,0.80
9208.00,0.80
9207.00,0.80
9206.00,0.80
9205.00,0.80
9204.00,0.80
9203.00,0.80
9202.00,0.80
9201.00,0.79
9200.00,0.79
9199.00,0.79
9198.00,0.79
9197.00,0.79
9196.00,0.78
9195.00,0.78
9194.00,0.78
9193.00,0.78
9192.00,0.78
9191.00,0.78
9190.00,0.78
9189.00,0.78
9188.00,0.78
9187.00,0.78
9186.00,0.78
9185.00,0.78
9184.00,0.78
9183.00,0.78
9182.00,0.78
9181.00,0.78
9180.00,0.78
9179.00,0.78
9178.00,0.78
9177.00,0.78
9176.00,0.78
9175.00,0.78
9174.00,0.78
9173.00,0.78
9172.00,0.78
9171.00,0.78
9170.00,0.78
9169.00,0.78
9168.00,0.78
9167.00,0.78
9166.00,0.78
9165.00,0.79
9164.00,0.79
9163.00,0.79
9162.00,0.79
9161.00,0.79
9160.00,0.79
9159.00,0.79
9158.00,0.80
9157.00,0.80
9156.00,0.80
9155.00,0.80
9154.00,0.80
9153.00,0.80
9152.00,0.80
9151.00,0.80
9150.00,0.80
9149.00,0.80
9148.00,0.79
9147.00,0.79
9146.00,0.79
9145.00,0.79
9144.00,0.79
9143.00,0.79
9142.00,0.79
9141.00,0.79
9140.00,0.79
9139.00,0.79
9138.00,0.79
9137.00,0.79
9136.00,0.79
9135.00,0.79
9134.00,0.79
9133.00,0.79
9132.00,0.79
9131.00,0.79
9130.00,0.79
9129.00,0.79
9128.00,0.79
9127.00,0.79
9126.00,0.79
9125.00,0.79
9124.00,0.79
9123.00,0.79
9122.00,0.79
9121.00,0.79
9120.00,0.79
9119.00,0.80
9118.00,0.80
9117.00,0.80
9116.00,0.80
9115.00,0.80
9114.00,0.80
9113.00,0.80
9112.00,0.80
9111.00,0.80
9110.00,0.80
9109.00,0.80
9108.00,0.80
9107.00,0.80
9106.00,0.79
9105.00,0.79
9104.00,0.79
9103.00,0.79
9102.00,0.79
9101.00,0.79
9100.00,0.79
9099.00,0.79
9098.00,0.79
9097.00,0.79
9096.00,0.79
9095.00,0.79
9094.00,0.79
9093.00,0.79
9092.00,0.79
9091.00,0.79
9090.00,0.79
9089.00,0.79
9088.00,0.79
9087.00,0.80
9086.00,0.80
9085.00,0.80
9084.00,0.80
9083.00,0.80
9082.00,0.80
9081.00,0.80
9080.00,0.80
9079.00,0.80
9078.00,0.80
9077.00,0.80
9076.00,0.80
9075.00,0.80
9074.00,0.80
9073.00,0.80
9072.00,0.81
9071.00,0.81
9070.00,0.81
9069.00,0.81
9068.00,0.81
9067.00,0.81
9066.00,0.81
9065.00,0.81
9064.00,0.81
9063.00,0.81
9062.00,0.81
9061.00,0.82
9060.00,0.82
9059.00,0.82
9058.00,0.82
9057.00,0.82
9056.00,0.82
9055.00,0.82
9054.00,0.82
9053.00,0.82
9052.00,0.82
9051.00,0.82
9050.00,0.82
9049.00,0.82
9048.00,0.82
9047.00,0.81
9046.00,0.81
9045.00,0.81
9044.00,0.81
9043.00,0.81
9042.00,0.81
9041.00,0.81
9040.00,0.81
9039.00,0.80
9038.00,0.80
9037.00,0.80
9036.00,0.80
9035.00,0.80
9034.00,0.80
9033.00,0.80
9032.00,0.80
9031.00,0.80
9030.00,0.80
9029.00,0.80
9028.00,0.80
9027.00,0.80
9026.00,0.80
9025.00,0.80
9024.00,0.81
9023.00,0.81
9022.00,0.81
9021.00,0.81
9020.00,0.81
9019.00,0.81
9018.00,0.81
9017.00,0.81
9016.00,0.81
9015.00,0.81
9014.00,0.81
9013.00,0.80
9012.00,0.80
9011.00,0.80
9010.00,0.80
9009.00,0.80
9008.00,0.80
9007.00,0.80
9006.00,0.80
9005.00,0.80
9004.00,0.80
9003.00,0.80
9002.00,0.80
9001.00,0.80
9000.00,0.80
8999.00,0.80
8998.00,0.80
8997.00,0.80
8996.00,0.80
8995.00,0.80
8994.00,0.80
8993.00,0.80
8992.00,0.80
8991.00,0.80
8990.00,0.80
8989.00,0.80
8988.00,0.80
8987.00,0.80
8986.00,0.80
8985.00,0.80
8984.00,0.80
8983.00,0.80
8982.00,0.80
8981.00,0.80
8980.00,0.80
8979.00,0.81
8978.00,0.81
8977.00,0.81
8976.00,0.81
8975.00,0.81
8974.00,0.81
8973.00,0.81
8972.00,0.81
8971.00,0.81
8970.00,0.81
8969.00,0.81
8968.00,0.81
8967.00,0.80
8966.00,0.80
8965.00,0.80
8964.00,0.80
8963.00,0.80
8962.00,0.80
8961.00,0.80
8960.00,0.80
8959.00,0.80
8958.00,0.80
8957.00,0.80
8956.00,0.80
8955.00,0.80
8954.00,0.80
8953.00,0.80
8952.00,0.80
8951.00,0.80
8950.00,0.80
8949.00,0.80
8948.00,0.80
8947.00,0.80
8946.00,0.79
8945.00,0.79
8944.00,0.79
8943.00,0.79
8942.00,0.79
8941.00,0.79
8940.00,0.79
8939.00,0.79
8938.00,0.79
8937.00,0.79
8936.00,0.80
8935.00,0.80
8934.00,0.80
8933.00,0.80
8932.00,0.80
8931.00,0.80
8930.00,0.80
8929.00,0.80
8928.00,0.80
8927.00,0.81
8926.00,0.81
8925.00,0.81
8924.00,0.81
8923.00,0.81
8922.00,0.81
8921.00,0.81
8920.00,0.81
8919.00,0.81
8918.00,0.81
8917.00,0.81
8916.00,0.81
8915.00,0.81
8914.00,0.81
8913.00,0.81
8912.00,0.81
8911.00,0.81
8910.00,0.82
8909.00,0.82
8908.00,0.82
8907.00,0.82
8906.00,0.82
8905.00,0.82
8904.00,0.82
8903.00,0.82
8902.00,0.82
8901.00,0.82
8900.00,0.82
8899.00,0.82
8898.00,0.82
8897.00,0.82
8896.00,0.82
8895.00,0.81
8894.00,0.81
8893.00,0.81
8892.00,0.81
8891.00,0.81
8890.00,0.81
8889.00,0.81
8888.00,0.82
8887.00,0.82
8886.00,0.82
8885.00,0.82
8884.00,0.82
8883.00,0.82
8882.00,0.82
8881.00,0.82
8880.00,0.82
8879.00,0.82
8878.00,0.82
8877.00,0.81
8876.00,0.81
8875.00,0.81
8874.00,0.81
8873.00,0.81
8872.00,0.81
8871.00,0.81
8870.00,0.81
8869.00,0.81
8868.00,0.80
8867.00,0.80
8866.00,0.80
8865.00,0.80
8864.00,0.80
8863.00,0.80
8862.00,0.80
8861.00,0.80
8860.00,0.80
8859.00,0.80
8858.00,0.80
8857.00,0.80
8856.00,0.80
8855.00,0.80
8854.00,0.80
8853.00,0.80
8852.00,0.80
8851.00,0.80
8850.00,0.80
8849.00,0.80
8848.00,0.80
8847.00,0.80
8846.00,0.80
8845.00,0.80
8844.00,0.80
8843.00,0.80
8842.00,0.79
8841.00,0.79
8840.00,0.79
8839.00,0.79
8838.00,0.80
8837.00,0.80
8836.00,0.80
8835.00,0.80
8834.00,0.80
8833.00,0.80
8832.00,0.80
8831.00,0.80
8830.00,0.80
8829.00,0.80
8828.00,0.80
8827.00,0.80
8826.00,0.80
8825.00,0.80
8824.00,0.80
8823.00,0.80
8822.00,0.80
8821.00,0.80
8820.00,0.80
8819.00,0.80
8818.00,0.80
8817.00,0.80
8816.00,0.79
8815.00,0.79
8814.00,0.79
8813.00,0.79
8812.00,0.79
8811.00,0.79
8810.00,0.79
8809.00,0.79
8808.00,0.79
8807.00,0.79
8806.00,0.79
8805.00,0.78
8804.00,0.78
8803.00,0.78
8802.00,0.78
8801.00,0.78
8800.00,0.78
8799.00,0.78
8798.00,0.78
8797.00,0.78
8796.00,0.78
8795.00,0.78
8794.00,0.78
8793.00,0.78
8792.00,0.78
8791.00,0.78
8790.00,0.78
8789.00,0.78
8788.00,0.78
8787.00,0.78
8786.00,0.79
8785.00,0.79
8784.00,0.79
8783.00,0.79
8782.00,0.79
8781.00,0.79
8780.00,0.79
8779.00,0.79
8778.00,0.79
8777.00,0.79
8776.00,0.79
8775.00,0.79
8774.00,0.79
8773.00,0.79
8772.00,0.79
8771.00,0.79
8770.00,0.79
8769.00,0.79
8768.00,0.79
8767.00,0.79
8766.00,0.79
8765.00,0.79
8764.00,0.79
8763.00,0.79
8762.00,0.79
8761.00,0.79
8760.00,0.79
8759.00,0.79
8758.00,0.79
8757.00,0.79
8756.00,0.79
8755.00,0.79
8754.00,0.79
8753.00,0.79
8752.00,0.79
8751.00,0.79
8750.00,0.79
8749.00,0.79
8748.00,0.79
8747.00,0.79
8746.00,0.79
8745.00,0.79
8744.00,0.79
8743.00,0.79
8742.00,0.79
8741.00,0.80
8740.00,0.80
8739.00,0.80
8738.00,0.80
8737.00,0.80
8736.00,0.80
8735.00,0.80
8734.00,0.80
8733.00,0.80
8732.00,0.80
8731.00,0.80
8730.00,0.80
8729.00,0.80
8728.00,0.80
8727.00,0.80
8726.00,0.79
8725.00,0.79
8724.00,0.79
8723.00,0.79
8722.00,0.79
8721.00,0.79
8720.00,0.79
8719.00,0.79
8718.00,0.78
8717.00,0.78
8716.00,0.78
8715.00,0.78
8714.00,0.78
8713.00,0.78
8712.00,0.79
8711.00,0.79
8710.00,0.79
8709.00,0.79
8708.00,0.79
8707.00,0.79
8706.00,0.79
8705.00,0.79
8704.00,0.79
8703.00,0.79
8702.00,0.79
8701.00,0.79
8700.00,0.79
8699.00,0.78
8698.00,0.78
8697.00,0.79
8696.00,0.79
8695.00,0.79
8694.00,0.79
8693.00,0.79
8692.00,0.79
8691.00,0.79
8690.00,0.79
8689.00,0.79
8688.00,0.79
8687.00,0.79
8686.00,0.79
8685.00,0.79
8684.00,0.79
8683.00,0.79
8682.00,0.79
8681.00,0.79
8680.00,0.79
8679.00,0.79
8678.00,0.79
8677.00,0.79
8676.00,0.79
8675.00,0.79
8674.00,0.79
8673.00,0.79
8672.00,0.79
8671.00,0.79
8670.00,0.78
8669.00,0.78
8668.00,0.78
8667.00,0.78
8666.00,0.78
8665.00,0.78
8664.00,0.78
8663.00,0.77
8662.00,0.77
8661.00,0.77
8660.00,0.77
8659.00,0.77
8658.00,0.77
8657.00,0.77
8656.00,0.77
8655.00,0.77
8654.00,0.77
8653.00,0.77
8652.00,0.77
8651.00,0.77
8650.00,0.77
8649.00,0.77
8648.00,0.77
8647.00,0.77
8646.00,0.77
8645.00,0.77
8644.00,0.77
8643.00,0.77
8642.00,0.77
8641.00,0.77
8640.00,0.78
8639.00,0.78
8638.00,0.78
8637.00,0.78
8636.00,0.78
8635.00,0.78
8634.00,0.78
8633.00,0.78
8632.00,0.78
8631.00,0.78
8630.00,0.77
8629.00,0.77
8628.00,0.77
8627.00,0.77
8626.00,0.77
8625.00,0.77
8624.00,0.77
8623.00,0.77
8622.00,0.77
8621.00,0.77
8620.00,0.78
8619.00,0.78
8618.00,0.78
8617.00,0.78
8616.00,0.78
8615.00,0.78
8614.00,0.78
8613.00,0.78
8612.00,0.78
8611.00,0.78
8610.00,0.78
8609.00,0.78
8608.00,0.78
8607.00,0.78
8606.00,0.78
8605.00,0.78
8604.00,0.78
8603.00,0.78
8602.00,0.78
8601.00,0.78
8600.00,0.78
8599.00,0.78
8598.00,0.78
8597.00,0.78
8596.00,0.77
8595.00,0.77
8594.00,0.77
8593.00,0.77
8592.00,0.77
8591.00,0.77
8590.00,0.77
8589.00,0.77
8588.00,0.77
8587.00,0.77
8586.00,0.77
8585.00,0.77
8584.00,0.77
8583.00,0.77
8582.00,0.77
8581.00,0.77
8580.00,0.77
8579.00,0.77
8578.00,0.77
8577.00,0.77
8576.00,0.77
8575.00,0.77
8574.00,0.77
8573.00,0.77
8572.00,0.77
8571.00,0.77
8570.00,0.77
8569.00,0.77
8568.00,0.77
8567.00,0.77
8566.00,0.77
8565.00,0.77
8564.00,0.77
8563.00,0.77
8562.00,0.77
8561.00,0.77
8560.00,0.77
8559.00,0.77
8558.00,0.77
8557.00,0.77
8556.00,0.77
8555.00,0.77
8554.00,0.77
8553.00,0.77
8552.00,0.77
8551.00,0.77
8550.00,0.77
8549.00,0.77
8548.00,0.77
8547.00,0.77
8546.00,0.77
8545.00,0.77
8544.00,0.78
8543.00,0.78
8542.00,0.78
8541.00,0.78
8540.00,0.78
8539.00,0.78
8538.00,0.78
8537.00,0.78
8536.00,0.78
8535.00,0.78
8534.00,0.78
8533.00,0.77
8532.00,0.77
8531.00,0.77
8530.00,0.77
8529.00,0.77
8528.00,0.77
8527.00,0.76
8526.00,0.76
8525.00,0.76
8524.00,0.76
8523.00,0.76
8522.00,0.76
8521.00,0.75
8520.00,0.75
8519.00,0.75
8518.00,0.75
8517.00,0.75
8516.00,0.75
8515.00,0.75
8514.00,0.75
8513.00,0.75
8512.00,0.75
8511.00,0.75
8510.00,0.75
8509.00,0.75
8508.00,0.75
8507.00,0.76
8506.00,0.76
8505.00,0.76
8504.00,0.76
8503.00,0.76
8502.00,0.76
8501.00,0.76
8500.00,0.76
8499.00,0.76
8498.00,0.76
8497.00,0.76
8496.00,0.76
8495.00,0.76
8494.00,0.76
8493.00,0.76
8492.00,0.76
8491.00,0.76
8490.00,0.76
8489.00,0.76
8488.00,0.76
8487.00,0.76
8486.00,0.76
8485.00,0.76
8484.00,0.76
8483.00,0.76
8482.00,0.76
8481.00,0.75
8480.00,0.75
8479.00,0.75
8478.00,0.75
8477.00,0.75
8476.00,0.75
8475.00,0.75
8474.00,0.74
8473.00,0.74
8472.00,0.74
8471.00,0.74
8470.00,0.74
8469.00,0.74
8468.00,0.74
8467.00,0.74
8466.00,0.74
8465.00,0.74
8464.00,0.74
8463.00,0.74
8462.00,0.74
8461.00,0.74
8460.00,0.74
8459.00,0.74
8458.00,0.74
8457.00,0.74
8456.00,0.74
8455.00,0.74
8454.00,0.74
8453.00,0.74
8452.00,0.74
8451.00,0.74
8450.00,0.74
8449.00,0.74
8448.00,0.74
8447.00,0.74
8446.00,0.74
8445.00,0.74
8444.00,0.74
8443.00,0.74
8442.00,0.74
8441.00,0.74
8440.00,0.74
8439.00,0.74
8438.00,0.74
8437.00,0.74
8436.00,0.74
8435.00,0.73
8434.00,0.73
8433.00,0.73
8432.00,0.73
8431.00,0.73
8430.00,0.73
8429.00,0.73
8428.00,0.73
8427.00,0.73
8426.00,0.73
8425.00,0.73
8424.00,0.73
8423.00,0.73
8422.00,0.73
8421.00,0.74
8420.00,0.74
8419.00,0.74
8418.00,0.74
8417.00,0.74
8416.00,0.74
8415.00,0.74
8414.00,0.74
8413.00,0.74
8412.00,0.74
8411.00,0.74
8410.00,0.73
8409.00,0.73
8408.00,0.73
8407.00,0.73
8406.00,0.73
8405.00,0.73
8404.00,0.74
8403.00,0.74
8402.00,0.74
8401.00,0.74
8400.00,0.74
8399.00,0.74
8398.00,0.74
8397.00,0.74
8396.00,0.74
8395.00,0.74
8394.00,0.74
8393.00,0.74
8392.00,0.74
8391.00,0.74
8390.00,0.75
8389.00,0.75
8388.00,0.75
8387.00,0.75
8386.00,0.75
8385.00,0.75
8384.00,0.75
8383.00,0.75
8382.00,0.75
8381.00,0.75
8380.00,0.75
8379.00,0.75
8378.00,0.75
8377.00,0.75
8376.00,0.75
8375.00,0.75
8374.00,0.75
8373.00,0.75
8372.00,0.75
8371.00,0.76
8370.00,0.76
8369.00,0.76
8368.00,0.76
8367.00,0.76
8366.00,0.76
8365.00,0.76
8364.00,0.76
8363.00,0.76
8362.00,0.76
8361.00,0.76
8360.00,0.76
8359.00,0.76
8358.00,0.76
8357.00,0.76
8356.00,0.76
8355.00,0.76
8354.00,0.76
8353.00,0.77
8352.00,0.77
8351.00,0.77
8350.00,0.77
8349.00,0.77
8348.00,0.77
8347.00,0.77
8346.00,0.77
8345.00,0.77
8344.00,0.77
8343.00,0.77
8342.00,0.77
8341.00,0.77
8340.00,0.77
8339.00,0.77
8338.00,0.77
8337.00,0.77
8336.00,0.77
8335.00,0.77
8334.00,0.77
8333.00,0.77
8332.00,0.77
8331.00,0.77
8330.00,0.77
8329.00,0.77
8328.00,0.77
8327.00,0.77
8326.00,0.77
8325.00,0.77
8324.00,0.77
8323.00,0.77
8322.00,0.77
8321.00,0.77
8320.00,0.77
8319.00,0.77
8318.00,0.77
8317.00,0.77
8316.00,0.77
8315.00,0.76
8314.00,0.76
8313.00,0.76
8312.00,0.76
8311.00,0.76
8310.00,0.76
8309.00,0.76
8308.00,0.76
8307.00,0.76
8306.00,0.76
8305.00,0.76
8304.00,0.76
8303.00,0.76
8302.00,0.76
8301.00,0.76
8300.00,0.76
8299.00,0.76
8298.00,0.76
8297.00,0.76
8296.00,0.76
8295.00,0.76
8294.00,0.76
8293.00,0.76
8292.00,0.76
8291.00,0.76
8290.00,0.75
8289.00,0.75
8288.00,0.75
8287.00,0.75
8286.00,0.75
8285.00,0.75
8284.00,0.74
8283.00,0.74
8282.00,0.74
8281.00,0.74
8280.00,0.74
8279.00,0.74
8278.00,0.74
8277.00,0.74
8276.00,0.74
8275.00,0.74
8274.00,0.74
8273.00,0.74
8272.00,0.74
8271.00,0.75
8270.00,0.75
8269.00,0.75
8268.00,0.75
8267.00,0.75
8266.00,0.75
8265.00,0.75
8264.00,0.75
8263.00,0.75
8262.00,0.75
8261.00,0.75
8260.00,0.75
8259.00,0.75
8258.00,0.75
8257.00,0.75
8256.00,0.75
8255.00,0.75
8254.00,0.75
8253.00,0.75
8252.00,0.76
8251.00,0.76
8250.00,0.76
8249.00,0.76
8248.00,0.76
8247.00,0.77
8246.00,0.77
8245.00,0.77
8244.00,0.77
8243.00,0.77
8242.00,0.78
8241.00,0.78
8240.00,0.78
8239.00,0.78
8238.00,0.78
8237.00,0.78
8236.00,0.78
8235.00,0.78
8234.00,0.78
8233.00,0.78
8232.00,0.78
8231.00,0.78
8230.00,0.78
8229.00,0.78
8228.00,0.78
8227.00,0.78
8226.00,0.78
8225.00,0.78
8224.00,0.78
8223.00,0.78
8222.00,0.78
8221.00,0.78
8220.00,0.78
8219.00,0.78
8218.00,0.78
8217.00,0.78
8216.00,0.78
8215.00,0.78
8214.00,0.78
8213.00,0.78
8212.00,0.78
8211.00,0.78
8210.00,0.77
8209.00,0.77
8208.00,0.77
8207.00,0.77
8206.00,0.77
8205.00,0.77
8204.00,0.77
8203.00,0.77
8202.00,0.77
8201.00,0.77
8200.00,0.76
8199.00,0.76
8198.00,0.76
8197.00,0.76
8196.00,0.76
8195.00,0.76
8194.00,0.77
8193.00,0.77
8192.00,0.77
8191.00,0.77
8190.00,0.77
8189.00,0.77
8188.00,0.77
8187.00,0.77
8186.00,0.77
8185.00,0.78
8184.00,0.78
8183.00,0.78
8182.00,0.78
8181.00,0.78
8180.00,0.78
8179.00,0.78
8178.00,0.78
8177.00,0.78
8176.00,0.78
8175.00,0.78
8174.00,0.78
8173.00,0.78
8172.00,0.78
8171.00,0.78
8170.00,0.78
8169.00,0.78
8168.00,0.78
8167.00,0.77
8166.00,0.77
8165.00,0.77
8164.00,0.77
8163.00,0.77
8162.00,0.77
8161.00,0.77
8160.00,0.77
8159.00,0.77
8158.00,0.77
8157.00,0.77
8156.00,0.77
8155.00,0.77
8154.00,0.77
8153.00,0.77
8152.00,0.78
8151.00,0.78
8150.00,0.78
8149.00,0.78
8148.00,0.78
8147.00,0.78
8146.00,0.78
8145.00,0.78
8144.00,0.78
8143.00,0.78
8142.00,0.79
8141.00,0.79
8140.00,0.79
8139.00,0.79
8138.00,0.79
8137.00,0.79
8136.00,0.79
8135.00,0.79
8134.00,0.79
8133.00,0.79
8132.00,0.79
8131.00,0.79
8130.00,0.79
8129.00,0.79
8128.00,0.79
8127.00,0.79
8126.00,0.79
8125.00,0.79
8124.00,0.79
8123.00,0.79
8122.00,0.79
8121.00,0.79
8120.00,0.79
8119.00,0.79
8118.00,0.79
8117.00,0.79
8116.00,0.79
8115.00,0.79
8114.00,0.79
8113.00,0.79
8112.00,0.79
8111.00,0.79
8110.00,0.80
8109.00,0.80
8108.00,0.80
8107.00,0.80
8106.00,0.80
8105.00,0.80
8104.00,0.80
8103.00,0.80
8102.00,0.79
8101.00,0.79
8100.00,0.79
8099.00,0.79
8098.00,0.79
8097.00,0.79
8096.00,0.79
8095.00,0.79
8094.00,0.79
8093.00,0.79
8092.00,0.79
8091.00,0.79
8090.00,0.79
8089.00,0.79
8088.00,0.79
8087.00,0.79
8086.00,0.79
8085.00,0.79
8084.00,0.79
8083.00,0.79
8082.00,0.79
8081.00,0.79
8080.00,0.79
8079.00,0.79
8078.00,0.79
8077.00,0.79
8076.00,0.79
8075.00,0.79
8074.00,0.79
8073.00,0.79
8072.00,0.80
8071.00,0.80
8070.00,0.80
8069.00,0.80
8068.00,0.80
8067.00,0.79
8066.00,0.79
8065.00,0.79
8064.00,0.79
8063.00,0.79
8062.00,0.79
8061.00,0.79
8060.00,0.79
8059.00,0.79
8058.00,0.79
8057.00,0.79
8056.00,0.80
8055.00,0.80
8054.00,0.80
8053.00,0.80
8052.00,0.80
8051.00,0.80
8050.00,0.80
8049.00,0.80
8048.00,0.80
8047.00,0.80
8046.00,0.80
8045.00,0.80
8044.00,0.80
8043.00,0.80
8042.00,0.80
8041.00,0.80
8040.00,0.80
8039.00,0.80
8038.00,0.79
8037.00,0.79
8036.00,0.79
8035.00,0.79
8034.00,0.79
8033.00,0.79
8032.00,0.79
8031.00,0.79
8030.00,0.79
8029.00,0.79
8028.00,0.79
8027.00,0.79
8026.00,0.79
8025.00,0.79
8024.00,0.79
8023.00,0.79
8022.00,0.79
8021.00,0.79
8020.00,0.79
8019.00,0.79
8018.00,0.79
8017.00,0.79
8016.00,0.79
8015.00,0.79
8014.00,0.79
8013.00,0.79
8012.00,0.79
8011.00,0.79
8010.00,0.79
8009.00,0.79
8008.00,0.79
8007.00,0.79
8006.00,0.79
8005.00,0.80
8004.00,0.80
8003.00,0.80
8002.00,0.80
8001.00,0.80
8000.00,0.80
7999.00,0.80
7998.00,0.80
7997.00,0.80
7996.00,0.81
7995.00,0.81
7994.00,0.81
7993.00,0.81
7992.00,0.81
7991.00,0.81
7990.00,0.81
7989.00,0.81
7988.00,0.81
7987.00,0.80
7986.00,0.80
7985.00,0.80
7984.00,0.80
7983.00,0.80
7982.00,0.80
7981.00,0.80
7980.00,0.80
7979.00,0.80
7978.00,0.80
7977.00,0.80
7976.00,0.80
7975.00,0.80
7974.00,0.80
7973.00,0.80
7972.00,0.80
7971.00,0.80
7970.00,0.80
7969.00,0.80
7968.00,0.81
7967.00,0.81
7966.00,0.81
7965.00,0.81
7964.00,0.81
7963.00,0.81
7962.00,0.81
7961.00,0.81
7960.00,0.81
7959.00,0.81
7958.00,0.81
7957.00,0.81
7956.00,0.81
7955.00,0.81
7954.00,0.81
7953.00,0.81
7952.00,0.81
7951.00,0.81
7950.00,0.81
7949.00,0.81
7948.00,0.81
7947.00,0.81
7946.00,0.81
7945.00,0.81
7944.00,0.81
7943.00,0.81
7942.00,0.81
7941.00,0.81
7940.00,0.81
7939.00,0.81
7938.00,0.81
7937.00,0.81
7936.00,0.81
7935.00,0.81
7934.00,0.81
7933.00,0.81
7932.00,0.81
7931.00,0.81
7930.00,0.81
7929.00,0.81
7928.00,0.81
7927.00,0.81
7926.00,0.81
7925.00,0.81
7924.00,0.81
7923.00,0.81
7922.00,0.81
7921.00,0.81
7920.00,0.81
7919.00,0.81
7918.00,0.81
7917.00,0.81
7916.00,0.81
7915.00,0.81
7914.00,0.81
7913.00,0.81
7912.00,0.81
7911.00,0.81
7910.00,0.81
7909.00,0.81
7908.00,0.81
7907.00,0.81
7906.00,0.81
7905.00,0.81
7904.00,0.81
7903.00,0.81
7902.00,0.81
7901.00,0.81
7900.00,0.81
7899.00,0.81
7898.00,0.81
7897.00,0.81
7896.00,0.81
7895.00,0.80
7894.00,0.80
7893.00,0.80
7892.00,0.80
7891.00,0.80
7890.00,0.81
7889.00,0.81
7888.00,0.81
7887.00,0.81
7886.00,0.81
7885.00,0.81
7884.00,0.81
7883.00,0.81
7882.00,0.81
7881.00,0.81
7880.00,0.81
7879.00,0.81
7878.00,0.81
7877.00,0.81
7876.00,0.81
7875.00,0.81
7874.00,0.81
7873.00,0.81
7872.00,0.81
7871.00,0.81
7870.00,0.81
7869.00,0.81
7868.00,0.81
7867.00,0.81
7866.00,0.81
7865.00,0.81
7864.00,0.81
7863.00,0.81
7862.00,0.81
7861.00,0.81
7860.00,0.81
7859.00,0.81
7858.00,0.81
7857.00,0.81
7856.00,0.81
7855.00,0.81
7854.00,0.81
7853.00,0.82
7852.00,0.82
7851.00,0.82
7850.00,0.82
7849.00,0.82
7848.00,0.82
7847.00,0.82
7846.00,0.82
7845.00,0.82
7844.00,0.82
7843.00,0.82
7842.00,0.82
7841.00,0.82
7840.00,0.82
7839.00,0.82
7838.00,0.82
7837.00,0.82
7836.00,0.81
7835.00,0.81
7834.00,0.81
7833.00,0.81
7832.00,0.81
7831.00,0.81
7830.00,0.81
7829.00,0.81
7828.00,0.81
7827.00,0.81
7826.00,0.81
7825.00,0.81
7824.00,0.81
7823.00,0.81
7822.00,0.81
7821.00,0.81
7820.00,0.81
7819.00,0.81
7818.00,0.81
7817.00,0.81
7816.00,0.81
7815.00,0.81
7814.00,0.81
7813.00,0.81
7812.00,0.81
7811.00,0.81
7810.00,0.81
7809.00,0.82
7808.00,0.82
7807.00,0.82
7806.00,0.82
7805.00,0.82
7804.00,0.82
7803.00,0.82
7802.00,0.82
7801.00,0.82
7800.00,0.82
7799.00,0.82
7798.00,0.81
7797.00,0.81
7796.00,0.81
7795.00,0.81
7794.00,0.81
7793.00,0.81
7792.00,0.81
7791.00,0.81
7790.00,0.81
7789.00,0.81
7788.00,0.81
7787.00,0.81
7786.00,0.81
7785.00,0.81
7784.00,0.81
7783.00,0.81
7782.00,0.81
7781.00,0.81
7780.00,0.81
7779.00,0.81
7778.00,0.81
7777.00,0.82
7776.00,0.82
7775.00,0.82
7774.00,0.82
7773.00,0.82
7772.00,0.82
7771.00,0.82
7770.00,0.82
7769.00,0.82
7768.00,0.82
7767.00,0.82
7766.00,0.82
7765.00,0.82
7764.00,0.82
7763.00,0.82
7762.00,0.82
7761.00,0.82
7760.00,0.82
7759.00,0.82
7758.00,0.82
7757.00,0.82
7756.00,0.82
7755.00,0.82
7754.00,0.82
7753.00,0.82
7752.00,0.82
7751.00,0.82
7750.00,0.82
7749.00,0.82
7748.00,0.82
7747.00,0.82
7746.00,0.82
7745.00,0.82
7744.00,0.82
7743.00,0.82
7742.00,0.82
7741.00,0.82
7740.00,0.82
7739.00,0.82
7738.00,0.82
7737.00,0.82
7736.00,0.82
7735.00,0.82
7734.00,0.82
7733.00,0.82
7732.00,0.82
7731.00,0.82
7730.00,0.82
7729.00,0.82
7728.00,0.82
7727.00,0.82
7726.00,0.82
7725.00,0.82
7724.00,0.82
7723.00,0.82
7722.00,0.82
7721.00,0.82
7720.00,0.82
7719.00,0.82
7718.00,0.82
7717.00,0.82
7716.00,0.82
7715.00,0.82
7714.00,0.82
7713.00,0.83
7712.00,0.83
7711.00,0.83
7710.00,0.83
7709.00,0.83
7708.00,0.83
7707.00,0.83
7706.00,0.83
7705.00,0.83
7704.00,0.83
7703.00,0.83
7702.00,0.83
7701.00,0.82
7700.00,0.82
7699.00,0.82
7698.00,0.82
7697.00,0.82
7696.00,0.82
7695.00,0.82
7694.00,0.82
7693.00,0.82
7692.00,0.83
7691.00,0.83
7690.00,0.83
7689.00,0.83
7688.00,0.83
7687.00,0.83
7686.00,0.83
7685.00,0.83
7684.00,0.83
7683.00,0.83
7682.00,0.83
7681.00,0.83
7680.00,0.82
7679.00,0.82
7678.00,0.82
7677.00,0.82
7676.00,0.82
7675.00,0.82
7674.00,0.82
7673.00,0.82
7672.00,0.82
7671.00,0.82
7670.00,0.82
7669.00,0.82
7668.00,0.82
7667.00,0.82
7666.00,0.81
7665.00,0.81
7664.00,0.81
7663.00,0.81
7662.00,0.81
7661.00,0.82
7660.00,0.82
7659.00,0.82
7658.00,0.82
7657.00,0.82
7656.00,0.82
7655.00,0.82
7654.00,0.82
7653.00,0.82
7652.00,0.82
7651.00,0.82
7650.00,0.82
7649.00,0.82
7648.00,0.82
7647.00,0.82
7646.00,0.82
7645.00,0.82
7644.00,0.82
7643.00,0.82
7642.00,0.82
7641.00,0.82
7640.00,0.82
7639.00,0.82
7638.00,0.82
7637.00,0.82
7636.00,0.82
7635.00,0.82
7634.00,0.82
7633.00,0.82
7632.00,0.82
7631.00,0.82
7630.00,0.82
7629.00,0.82
7628.00,0.82
7627.00,0.82
7626.00,0.82
7625.00,0.82
7624.00,0.82
7623.00,0.82
7622.00,0.82
7621.00,0.82
7620.00,0.82
7619.00,0.82
7618.00,0.82
7617.00,0.82
7616.00,0.82
7615.00,0.82
7614.00,0.82
7613.00,0.82
7612.00,0.82
7611.00,0.82
7610.00,0.82
7609.00,0.82
7608.00,0.82
7607.00,0.82
7606.00,0.82
7605.00,0.82
7604.00,0.82
7603.00,0.82
7602.00,0.82
7601.00,0.82
7600.00,0.82
7599.00,0.82
7598.00,0.82
7597.00,0.82
7596.00,0.82
7595.00,0.82
7594.00,0.82
7593.00,0.82
7592.00,0.82
7591.00,0.82
7590.00,0.82
7589.00,0.82
7588.00,0.82
7587.00,0.82
7586.00,0.82
7585.00,0.82
7584.00,0.82
7583.00,0.82
7582.00,0.82
7581.00,0.82
7580.00,0.82
7579.00,0.82
7578.00,0.82
7577.00,0.82
7576.00,0.82
7575.00,0.82
7574.00,0.82
7573.00,0.82
7572.00,0.82
7571.00,0.82
7570.00,0.82
7569.00,0.82
7568.00,0.82
7567.00,0.82
7566.00,0.82
7565.00,0.82
7564.00,0.82
7563.00,0.82
7562.00,0.82
7561.00,0.82
7560.00,0.82
7559.00,0.82
7558.00,0.82
7557.00,0.82
7556.00,0.82
7555.00,0.82
7554.00,0.82
7553.00,0.82
7552.00,0.82
7551.00,0.82
7550.00,0.82
7549.00,0.82
7548.00,0.82
7547.00,0.82
7546.00,0.82
7545.00,0.82
7544.00,0.82
7543.00,0.82
7542.00,0.82
7541.00,0.82
7540.00,0.82
7539.00,0.82
7538.00,0.82
7537.00,0.82
7536.00,0.82
7535.00,0.82
7534.00,0.82
7533.00,0.82
7532.00,0.82
7531.00,0.82
7530.00,0.82
7529.00,0.82
7528.00,0.82
7527.00,0.82
7526.00,0.82
7525.00,0.82
7524.00,0.82
7523.00,0.81
7522.00,0.81
7521.00,0.81
7520.00,0.81
7519.00,0.81
7518.00,0.81
7517.00,0.81
7516.00,0.81
7515.00,0.81
7514.00,0.81
7513.00,0.81
7512.00,0.81
7511.00,0.81
7510.00,0.81
7509.00,0.81
7508.00,0.81
7507.00,0.81
7506.00,0.81
7505.00,0.81
7504.00,0.81
7503.00,0.81
7502.00,0.81
7501.00,0.81
7500.00,0.81
7499.00,0.81
7498.00,0.81
7497.00,0.81
7496.00,0.81
7495.00,0.81
7494.00,0.81
7493.00,0.81
7492.00,0.81
7491.00,0.81
7490.00,0.81
7489.00,0.81
7488.00,0.81
7487.00,0.81
7486.00,0.81
7485.00,0.81
7484.00,0.81
7483.00,0.81
7482.00,0.81
7481.00,0.81
7480.00,0.81
7479.00,0.81
7478.00,0.81
7477.00,0.81
7476.00,0.81
7475.00,0.81
7474.00,0.81
7473.00,0.81
7472.00,0.81
7471.00,0.81
7470.00,0.81
7469.00,0.81
7468.00,0.81
7467.00,0.81
7466.00,0.81
7465.00,0.81
7464.00,0.81
7463.00,0.81
7462.00,0.80
7461.00,0.80
7460.00,0.80
7459.00,0.80
7458.00,0.80
7457.00,0.80
7456.00,0.80
7455.00,0.80
7454.00,0.80
7453.00,0.80
7452.00,0.80
7451.00,0.80
7450.00,0.80
7449.00,0.80
7448.00,0.80
7447.00,0.80
7446.00,0.80
7445.00,0.80
7444.00,0.80
7443.00,0.80
7442.00,0.80
7441.00,0.80
7440.00,0.80
7439.00,0.80
7438.00,0.80
7437.00,0.80
7436.00,0.80
7435.00,0.80
7434.00,0.80
7433.00,0.80
7432.00,0.80
7431.00,0.80
7430.00,0.80
7429.00,0.80
7428.00,0.80
7427.00,0.80
7426.00,0.80
7425.00,0.80
7424.00,0.80
7423.00,0.80
7422.00,0.79
7421.00,0.79
7420.00,0.79
7419.00,0.79
7418.00,0.79
7417.00,0.79
7416.00,0.79
7415.00,0.79
7414.00,0.79
7413.00,0.79
7412.00,0.79
7411.00,0.79
7410.00,0.79
7409.00,0.79
7408.00,0.79
7407.00,0.79
7406.00,0.79
7405.00,0.79
7404.00,0.79
7403.00,0.79
7402.00,0.79
7401.00,0.79
7400.00,0.79
7399.00,0.79
7398.00,0.79
7397.00,0.79
7396.00,0.79
7395.00,0.79
7394.00,0.79
7393.00,0.78
7392.00,0.78
7391.00,0.78
7390.00,0.78
7389.00,0.78
7388.00,0.78
7387.00,0.78
7386.00,0.78
7385.00,0.78
7384.00,0.78
7383.00,0.78
7382.00,0.77
7381.00,0.77
7380.00,0.77
7379.00,0.77
7378.00,0.77
7377.00,0.77
7376.00,0.77
7375.00,0.77
7374.00,0.77
7373.00,0.77
7372.00,0.77
7371.00,0.77
7370.00,0.77
7369.00,0.77
7368.00,0.77
7367.00,0.77
7366.00,0.77
7365.00,0.77
7364.00,0.77
7363.00,0.77
7362.00,0.77
7361.00,0.77
7360.00,0.77
7359.00,0.77
7358.00,0.77
7357.00,0.77
7356.00,0.77
7355.00,0.77
7354.00,0.77
7353.00,0.77
7352.00,0.77
7351.00,0.77
7350.00,0.77
7349.00,0.77
7348.00,0.77
7347.00,0.77
7346.00,0.77
7345.00,0.77
7344.00,0.77
7343.00,0.77
7342.00,0.77
7341.00,0.77
7340.00,0.77
7339.00,0.77
7338.00,0.77
7337.00,0.77
7336.00,0.77
7335.00,0.77
7334.00,0.77
7333.00,0.77
7332.00,0.77
7331.00,0.76
7330.00,0.76
7329.00,0.76
7328.00,0.76
7327.00,0.76
7326.00,0.76
7325.00,0.76
7324.00,0.76
7323.00,0.76
7322.00,0.76
7321.00,0.76
7320.00,0.76
7319.00,0.76
7318.00,0.76
7317.00,0.76
7316.00,0.76
7315.00,0.76
7314.00,0.76
7313.00,0.76
7312.00,0.76
7311.00,0.76
7310.00,0.76
7309.00,0.76
7308.00,0.76
7307.00,0.76
7306.00,0.76
7305.00,0.76
7304.00,0.76
7303.00,0.76
7302.00,0.76
7301.00,0.76
7300.00,0.76
7299.00,0.76
7298.00,0.76
7297.00,0.76
7296.00,0.76
7295.00,0.76
7294.00,0.75
7293.00,0.75
7292.00,0.75
7291.00,0.75
7290.00,0.75
7289.00,0.75
7288.00,0.75
7287.00,0.75
7286.00,0.75
7285.00,0.75
7284.00,0.75
7283.00,0.75
7282.00,0.75
7281.00,0.75
7280.00,0.75
7279.00,0.74
7278.00,0.74
7277.00,0.74
7276.00,0.74
7275.00,0.74
7274.00,0.74
7273.00,0.74
7272.00,0.74
7271.00,0.74
7270.00,0.74
7269.00,0.74
7268.00,0.74
7267.00,0.74
7266.00,0.74
7265.00,0.74
7264.00,0.73
7263.00,0.73
7262.00,0.73
7261.00,0.73
7260.00,0.73
7259.00,0.73
7258.00,0.73
7257.00,0.73
7256.00,0.73
7255.00,0.73
7254.00,0.73
7253.00,0.73
7252.00,0.72
7251.00,0.72
7250.00,0.72
7249.00,0.72
7248.00,0.72
7247.00,0.72
7246.00,0.72
7245.00,0.72
7244.00,0.72
7243.00,0.71
7242.00,0.71
7241.00,0.71
7240.00,0.71
7239.00,0.71
7238.00,0.71
7237.00,0.70
7236.00,0.70
7235.00,0.70
7234.00,0.70
7233.00,0.70
7232.00,0.70
7231.00,0.69
7230.00,0.69
7229.00,0.69
7228.00,0.69
7227.00,0.69
7226.00,0.69
7225.00,0.69
7224.00,0.69
7223.00,0.68
7222.00,0.68
7221.00,0.68
7220.00,0.68
7219.00,0.68
7218.00,0.68
7217.00,0.68
7216.00,0.67
7215.00,0.67
7214.00,0.67
7213.00,0.67
7212.00,0.67
7211.00,0.67
7210.00,0.67
7209.00,0.66
7208.00,0.66
7207.00,0.66
7206.00,0.66
7205.00,0.66
7204.00,0.66
7203.00,0.66
7202.00,0.66
7201.00,0.65
7200.00,0.65
7199.00,0.65
7198.00,0.65
7197.00,0.65
7196.00,0.65
7195.00,0.64
7194.00,0.64
7193.00,0.64
7192.00,0.64
7191.00,0.64
7190.00,0.64
7189.00,0.63
7188.00,0.63
7187.00,0.63
7186.00,0.63
7185.00,0.62
7184.00,0.62
7183.00,0.62
7182.00,0.62
7181.00,0.62
7180.00,0.61
7179.00,0.61
7178.00,0.61
7177.00,0.61
7176.00,0.60
7175.00,0.60
7174.00,0.60
7173.00,0.60
7172.00,0.59
7171.00,0.59
7170.00,0.59
7169.00,0.59
7168.00,0.58
7167.00,0.58
7166.00,0.58
7165.00,0.58
7164.00,0.58
7163.00,0.58
7162.00,0.57
7161.00,0.57
7160.00,0.57
7159.00,0.57
7158.00,0.57
7157.00,0.57
7156.00,0.57
7155.00,0.57
7154.00,0.56
7153.00,0.56
7152.00,0.56
7151.00,0.56
7150.00,0.56
7149.00,0.56
7148.00,0.56
7147.00,0.56
7146.00,0.55
7145.00,0.55
7144.00,0.55
7143.00,0.55
7142.00,0.55
7141.00,0.55
7140.00,0.55
7139.00,0.55
7138.00,0.54
7137.00,0.54
7136.00,0.54
7135.00,0.54
7134.00,0.54
7133.00,0.54
7132.00,0.54
7131.00,0.53
7130.00,0.53
7129.00,0.53
7128.00,0.53
7127.00,0.53
7126.00,0.52
7125.00,0.52
7124.00,0.52
7123.00,0.52
7122.00,0.52
7121.00,0.52
7120.00,0.51
7119.00,0.51
7118.00,0.51
7117.00,0.51
7116.00,0.51
7115.00,0.51
7114.00,0.51
7113.00,0.51
7112.00,0.50
7111.00,0.50
7110.00,0.50
7109.00,0.50
7108.00,0.50
7107.00,0.50
7106.00,0.50
7105.00,0.50
7104.00,0.50
7103.00,0.50
7102.00,0.50
7101.00,0.49
7100.00,0.49
7099.00,0.49
7098.00,0.49
7097.00,0.49
7096.00,0.49
7095.00,0.49
7094.00,0.49
7093.00,0.48
7092.00,0.48
7091.00,0.48
7090.00,0.48
7089.00,0.48
7088.00,0.48
7087.00,0.47
7086.00,0.47
7085.00,0.47
7084.00,0.47
7083.00,0.47
7082.00,0.47
7081.00,0.47
7080.00,0.47
7079.00,0.46
7078.00,0.46
7077.00,0.46
7076.00,0.46
7075.00,0.46
7074.00,0.46
7073.00,0.46
7072.00,0.46
7071.00,0.46
7070.00,0.46
7069.00,0.46
7068.00,0.46
7067.00,0.45
7066.00,0.45
7065.00,0.45
7064.00,0.45
7063.00,0.45
7062.00,0.45
7061.00,0.45
7060.00,0.45
7059.00,0.45
7058.00,0.44
7057.00,0.44
7056.00,0.44
7055.00,0.44
7054.00,0.44
7053.00,0.44
7052.00,0.44
7051.00,0.44
7050.00,0.44
7049.00,0.44
7048.00,0.43
7047.00,0.43
7046.00,0.43
7045.00,0.43
7044.00,0.43
7043.00,0.43
7042.00,0.43
7041.00,0.43
7040.00,0.43
7039.00,0.43
7038.00,0.43
7037.00,0.43
7036.00,0.43
7035.00,0.43
7034.00,0.43
7033.00,0.43
7032.00,0.43
7031.00,0.43
7030.00,0.43
7029.00,0.43
7028.00,0.43
7027.00,0.43
7026.00,0.43
7025.00,0.43
7024.00,0.43
7023.00,0.42
7022.00,0.42
7021.00,0.42
7020.00,0.42
7019.00,0.42
7018.00,0.42
7017.00,0.42
7016.00,0.42
7015.00,0.42
7014.00,0.42
7013.00,0.42
7012.00,0.42
7011.00,0.42
7010.00,0.42
7009.00,0.42
7008.00,0.42
7007.00,0.42
7006.00,0.42
7005.00,0.42
7004.00,0.42
7003.00,0.42
7002.00,0.42
7001.00,0.42
7000.00,0.42
6999.00,0.42
6998.00,0.42
6997.00,0.42
6996.00,0.42
6995.00,0.42
6994.00,0.42
6993.00,0.41
6992.00,0.41
6991.00,0.41
6990.00,0.41
6989.00,0.41
6988.00,0.41
6987.00,0.41
6986.00,0.40
6985.00,0.40
6984.00,0.40
6983.00,0.40
6982.00,0.40
6981.00,0.40
6980.00,0.40
6979.00,0.40
6978.00,0.40
6977.00,0.40
6976.00,0.40
6975.00,0.40
6974.00,0.40
6973.00,0.40
6972.00,0.40
6971.00,0.40
6970.00,0.40
6969.00,0.40
6968.00,0.39
6967.00,0.39
6966.00,0.39
6965.00,0.39
6964.00,0.39
6963.00,0.39
6962.00,0.39
6961.00,0.39
6960.00,0.39
6959.00,0.39
6958.00,0.39
6957.00,0.39
6956.00,0.39
6955.00,0.39
6954.00,0.39
6953.00,0.39
6952.00,0.39
6951.00,0.39
6950.00,0.38
6949.00,0.38
6948.00,0.38
6947.00,0.38
6946.00,0.38
6945.00,0.38
6944.00,0.38
6943.00,0.38
6942.00,0.38
6941.00,0.38
6940.00,0.38
6939.00,0.38
6938.00,0.38
6937.00,0.38
6936.00,0.38
6935.00,0.38
6934.00,0.38
6933.00,0.38
6932.00,0.38
6931.00,0.38
6930.00,0.38
6929.00,0.38
6928.00,0.38
6927.00,0.38
6926.00,0.38
6925.00,0.38
6924.00,0.38
6923.00,0.38
6922.00,0.38
6921.00,0.38
6920.00,0.38
6919.00,0.38
6918.00,0.38
6917.00,0.38
6916.00,0.38
6915.00,0.38
6914.00,0.38
6913.00,0.38
6912.00,0.38
6911.00,0.38
6910.00,0.38
6909.00,0.38
6908.00,0.38
6907.00,0.38
6906.00,0.38
6905.00,0.38
6904.00,0.38
6903.00,0.38
6902.00,0.38
6901.00,0.38
6900.00,0.38
6899.00,0.38
6898.00,0.38
6897.00,0.38
6896.00,0.38
6895.00,0.38
6894.00,0.38
6893.00,0.38
6892.00,0.38
6891.00,0.38
6890.00,0.38
6889.00,0.38
6888.00,0.38
6887.00,0.39
6886.00,0.39
6885.00,0.39
6884.00,0.39
6883.00,0.39
6882.00,0.39
6881.00,0.39
6880.00,0.39
6879.00,0.39
6878.00,0.39
6877.00,0.39
6876.00,0.38
6875.00,0.38
6874.00,0.38
6873.00,0.38
6872.00,0.38
6871.00,0.38
6870.00,0.38
6869.00,0.38
6868.00,0.38
6867.00,0.38
6866.00,0.38
6865.00,0.38
6864.00,0.38
6863.00,0.38
6862.00,0.38
6861.00,0.38
6860.00,0.38
6859.00,0.38
6858.00,0.38
6857.00,0.38
6856.00,0.38
6855.00,0.38
6854.00,0.38
6853.00,0.38
6852.00,0.38
6851.00,0.38
6850.00,0.38
6849.00,0.38
6848.00,0.38
6847.00,0.38
6846.00,0.38
6845.00,0.38
6844.00,0.38
6843.00,0.39
6842.00,0.39
6841.00,0.39
6840.00,0.39
6839.00,0.39
6838.00,0.39
6837.00,0.39
6836.00,0.39
6835.00,0.39
6834.00,0.39
6833.00,0.39
6832.00,0.39
6831.00,0.39
6830.00,0.39
6829.00,0.39
6828.00,0.39
6827.00,0.39
6826.00,0.39
6825.00,0.39
6824.00,0.39
6823.00,0.39
6822.00,0.39
6821.00,0.39
6820.00,0.39
6819.00,0.39
6818.00,0.39
6817.00,0.39
6816.00,0.39
6815.00,0.39
6814.00,0.38
6813.00,0.38
6812.00,0.38
6811.00,0.38
6810.00,0.38
6809.00,0.38
6808.00,0.38
6807.00,0.38
6806.00,0.38
6805.00,0.38
6804.00,0.38
6803.00,0.38
6802.00,0.38
6801.00,0.38
6800.00,0.39
6799.00,0.39
6798.00,0.39
6797.00,0.39
6796.00,0.39
6795.00,0.39
6794.00,0.39
6793.00,0.39
6792.00,0.39
6791.00,0.39
6790.00,0.40
6789.00,0.40
6788.00,0.40
6787.00,0.40
6786.00,0.40
6785.00,0.40
6784.00,0.40
6783.00,0.40
6782.00,0.40
6781.00,0.40
6780.00,0.40
6779.00,0.41
6778.00,0.41
6777.00,0.41
6776.00,0.41
6775.00,0.41
6774.00,0.41
6773.00,0.41
6772.00,0.41
6771.00,0.41
6770.00,0.41
6769.00,0.41
6768.00,0.41
6767.00,0.41
6766.00,0.41
6765.00,0.41
6764.00,0.41
6763.00,0.41
6762.00,0.41
6761.00,0.41
6760.00,0.41
6759.00,0.41
6758.00,0.41
6757.00,0.41
6756.00,0.42
6755.00,0.42
6754.00,0.42
6753.00,0.42
6752.00,0.42
6751.00,0.42
6750.00,0.42
6749.00,0.42
6748.00,0.42
6747.00,0.42
6746.00,0.42
6745.00,0.42
6744.00,0.42
6743.00,0.42
6742.00,0.42
6741.00,0.42
6740.00,0.42
6739.00,0.42
6738.00,0.42
6737.00,0.42
6736.00,0.42
6735.00,0.42
6734.00,0.42
6733.00,0.42
6732.00,0.42
6731.00,0.42
6730.00,0.42
6729.00,0.42
6728.00,0.42
6727.00,0.42
6726.00,0.43
6725.00,0.43
6724.00,0.43
6723.00,0.43
6722.00,0.43
6721.00,0.43
6720.00,0.43
6719.00,0.43
6718.00,0.43
6717.00,0.43
6716.00,0.43
6715.00,0.43
6714.00,0.43
6713.00,0.43
6712.00,0.43
6711.00,0.43
6710.00,0.43
6709.00,0.44
6708.00,0.44
6707.00,0.44
6706.00,0.44
6705.00,0.44
6704.00,0.44
6703.00,0.44
6702.00,0.44
6701.00,0.44
6700.00,0.44
6699.00,0.44
6698.00,0.44
6697.00,0.44
6696.00,0.44
6695.00,0.44
6694.00,0.44
6693.00,0.44
6692.00,0.44
6691.00,0.44
6690.00,0.44
6689.00,0.44
6688.00,0.44
6687.00,0.44
6686.00,0.44
6685.00,0.45
6684.00,0.45
6683.00,0.45
6682.00,0.45
6681.00,0.45
6680.00,0.45
6679.00,0.45
6678.00,0.45
6677.00,0.45
6676.00,0.45
6675.00,0.45
6674.00,0.45
6673.00,0.45
6672.00,0.46
6671.00,0.46
6670.00,0.46
6669.00,0.46
6668.00,0.46
6667.00,0.46
6666.00,0.46
6665.00,0.46
6664.00,0.46
6663.00,0.46
6662.00,0.47
6661.00,0.47
6660.00,0.47
6659.00,0.47
6658.00,0.47
6657.00,0.47
6656.00,0.47
6655.00,0.47
6654.00,0.47
6653.00,0.47
6652.00,0.47
6651.00,0.47
6650.00,0.47
6649.00,0.48
6648.00,0.48
6647.00,0.48
6646.00,0.48
6645.00,0.48
6644.00,0.48
6643.00,0.48
6642.00,0.48
6641.00,0.48
6640.00,0.48
6639.00,0.48
6638.00,0.48
6637.00,0.48
6636.00,0.48
6635.00,0.48
6634.00,0.48
6633.00,0.48
6632.00,0.48
6631.00,0.49
6630.00,0.49
6629.00,0.49
6628.00,0.49
6627.00,0.49
6626.00,0.49
6625.00,0.49
6624.00,0.49
6623.00,0.49
6622.00,0.49
6621.00,0.49
6620.00,0.49
6619.00,0.49
6618.00,0.49
6617.00,0.49
6616.00,0.49
6615.00,0.50
6614.00,0.50
6613.00,0.50
6612.00,0.50
6611.00,0.50
6610.00,0.50
6609.00,0.50
6608.00,0.50
6607.00,0.50
6606.00,0.50
6605.00,0.50
6604.00,0.50
6603.00,0.50
6602.00,0.50
6601.00,0.50
6600.00,0.50
6599.00,0.50
6598.00,0.50
6597.00,0.50
6596.00,0.50
6595.00,0.50
6594.00,0.50
6593.00,0.50
6592.00,0.50
6591.00,0.50
6590.00,0.50
6589.00,0.50
6588.00,0.50
6587.00,0.50
6586.00,0.50
6585.00,0.51
6584.00,0.51
6583.00,0.51
6582.00,0.51
6581.00,0.51
6580.00,0.51
6579.00,0.51
6578.00,0.51
6577.00,0.51
6576.00,0.51
6575.00,0.51
6574.00,0.51
6573.00,0.52
6572.00,0.52
6571.00,0.52
6570.00,0.52
6569.00,0.52
6568.00,0.52
6567.00,0.52
6566.00,0.52
6565.00,0.52
6564.00,0.52
6563.00,0.52
6562.00,0.52
6561.00,0.52
6560.00,0.52
6559.00,0.53
6558.00,0.53
6557.00,0.53
6556.00,0.53
6555.00,0.53
6554.00,0.53
6553.00,0.53
6552.00,0.53
6551.00,0.53
6550.00,0.53
6549.00,0.53
6548.00,0.53
6547.00,0.53
6546.00,0.53
6545.00,0.54
6544.00,0.54
6543.00,0.54
6542.00,0.54
6541.00,0.54
6540.00,0.54
6539.00,0.54
6538.00,0.54
6537.00,0.54
6536.00,0.54
6535.00,0.54
6534.00,0.54
6533.00,0.54
6532.00,0.54
6531.00,0.54
6530.00,0.54
6529.00,0.54
6528.00,0.54
6527.00,0.55
6526.00,0.55
6525.00,0.55
6524.00,0.55
6523.00,0.55
6522.00,0.55
6521.00,0.55
6520.00,0.55
6519.00,0.55
6518.00,0.55
6517.00,0.55
6516.00,0.55
6515.00,0.55
6514.00,0.55
6513.00,0.55
6512.00,0.55
6511.00,0.55
6510.00,0.55
6509.00,0.55
6508.00,0.55
6507.00,0.55
6506.00,0.55
6505.00,0.55
6504.00,0.55
6503.00,0.55
6502.00,0.55
6501.00,0.55
6500.00,0.55
6499.00,0.55
6498.00,0.55
6497.00,0.56
6496.00,0.56
6495.00,0.56
6494.00,0.56
6493.00,0.56
6492.00,0.56
6491.00,0.56
6490.00,0.56
6489.00,0.56
6488.00,0.56
6487.00,0.56
6486.00,0.56
6485.00,0.56
6484.00,0.56
6483.00,0.56
6482.00,0.56
6481.00,0.56
6480.00,0.56
6479.00,0.56
6478.00,0.56
6477.00,0.56
6476.00,0.56
6475.00,0.56
6474.00,0.56
6473.00,0.56
6472.00,0.56
6471.00,0.56
6470.00,0.56
6469.00,0.56
6468.00,0.56
6467.00,0.56
6466.00,0.56
6465.00,0.56
6464.00,0.56
6463.00,0.56
6462.00,0.56
6461.00,0.56
6460.00,0.56
6459.00,0.56
6458.00,0.56
6457.00,0.56
6456.00,0.56
6455.00,0.57
6454.00,0.57
6453.00,0.57
6452.00,0.57
6451.00,0.57
6450.00,0.57
6449.00,0.57
6448.00,0.57
6447.00,0.57
6446.00,0.57
6445.00,0.57
6444.00,0.57
6443.00,0.57
6442.00,0.57
6441.00,0.57
6440.00,0.57
6439.00,0.57
6438.00,0.58
6437.00,0.58
6436.00,0.58
6435.00,0.58
6434.00,0.58
6433.00,0.58
6432.00,0.58
6431.00,0.58
6430.00,0.58
6429.00,0.58
6428.00,0.58
6427.00,0.58
6426.00,0.58
6425.00,0.58
6424.00,0.58
6423.00,0.58
6422.00,0.58
6421.00,0.59
6420.00,0.59
6419.00,0.59
6418.00,0.59
6417.00,0.59
6416.00,0.59
6415.00,0.59
6414.00,0.59
6413.00,0.59
6412.00,0.59
6411.00,0.59
6410.00,0.59
6409.00,0.59
6408.00,0.59
6407.00,0.59
6406.00,0.59
6405.00,0.59
6404.00,0.59
6403.00,0.59
6402.00,0.59
6401.00,0.59
6400.00,0.59
6399.00,0.59
6398.00,0.59
6397.00,0.59
6396.00,0.59
6395.00,0.59
6394.00,0.59
6393.00,0.59
6392.00,0.59
6391.00,0.59
6390.00,0.59
6389.00,0.59
6388.00,0.59
6387.00,0.59
6386.00,0.59
6385.00,0.59
6384.00,0.59
6383.00,0.60
6382.00,0.60
6381.00,0.60
6380.00,0.60
6379.00,0.60
6378.00,0.60
6377.00,0.60
6376.00,0.60
6375.00,0.60
6374.00,0.60
6373.00,0.60
6372.00,0.60
6371.00,0.60
6370.00,0.60
6369.00,0.60
6368.00,0.60
6367.00,0.60
6366.00,0.60
6365.00,0.60
6364.00,0.61
6363.00,0.61
6362.00,0.61
6361.00,0.61
6360.00,0.61
6359.00,0.61
6358.00,0.61
6357.00,0.61
6356.00,0.61
6355.00,0.61
6354.00,0.61
6353.00,0.61
6352.00,0.61
6351.00,0.61
6350.00,0.61
6349.00,0.61
6348.00,0.61
6347.00,0.61
6346.00,0.61
6345.00,0.61
6344.00,0.61
6343.00,0.61
6342.00,0.62
6341.00,0.62
6340.00,0.62
6339.00,0.62
6338.00,0.62
6337.00,0.62
6336.00,0.62
6335.00,0.62
6334.00,0.62
6333.00,0.62
6332.00,0.62
6331.00,0.62
6330.00,0.62
6329.00,0.62
6328.00,0.63
6327.00,0.63
6326.00,0.63
6325.00,0.63
6324.00,0.63
6323.00,0.63
6322.00,0.63
6321.00,0.63
6320.00,0.63
6319.00,0.63
6318.00,0.63
6317.00,0.63
6316.00,0.63
6315.00,0.63
6314.00,0.63
6313.00,0.63
6312.00,0.63
6311.00,0.63
6310.00,0.63
6309.00,0.63
6308.00,0.63
6307.00,0.63
6306.00,0.63
6305.00,0.64
6304.00,0.64
6303.00,0.64
6302.00,0.64
6301.00,0.64
6300.00,0.64
6299.00,0.64
6298.00,0.64
6297.00,0.64
6296.00,0.64
6295.00,0.64
6294.00,0.64
6293.00,0.64
6292.00,0.64
6291.00,0.64
6290.00,0.64
6289.00,0.64
6288.00,0.64
6287.00,0.64
6286.00,0.65
6285.00,0.65
6284.00,0.65
6283.00,0.65
6282.00,0.65
6281.00,0.65
6280.00,0.65
6279.00,0.65
6278.00,0.65
6277.00,0.65
6276.00,0.65
6275.00,0.65
6274.00,0.65
6273.00,0.65
6272.00,0.65
6271.00,0.66
6270.00,0.66
6269.00,0.66
6268.00,0.66
6267.00,0.66
6266.00,0.66
6265.00,0.66
6264.00,0.66
6263.00,0.66
6262.00,0.66
6261.00,0.66
6260.00,0.66
6259.00,0.66
6258.00,0.66
6257.00,0.66
6256.00,0.66
6255.00,0.66
6254.00,0.66
6253.00,0.66
6252.00,0.66
6251.00,0.67
6250.00,0.67
6249.00,0.67
6248.00,0.67
6247.00,0.67
6246.00,0.67
6245.00,0.67
6244.00,0.67
6243.00,0.67
6242.00,0.67
6241.00,0.67
6240.00,0.67
6239.00,0.67
6238.00,0.67
6237.00,0.67
6236.00,0.68
6235.00,0.68
6234.00,0.68
6233.00,0.68
6232.00,0.68
6231.00,0.68
6230.00,0.68
6229.00,0.68
6228.00,0.68
6227.00,0.68
6226.00,0.68
6225.00,0.69
6224.00,0.69
6223.00,0.69
6222.00,0.69
6221.00,0.69
6220.00,0.69
6219.00,0.69
6218.00,0.69
6217.00,0.69
6216.00,0.69
6215.00,0.69
6214.00,0.69
6213.00,0.69
6212.00,0.69
6211.00,0.69
6210.00,0.69
6209.00,0.69
6208.00,0.70
6207.00,0.70
6206.00,0.70
6205.00,0.70
6204.00,0.70
6203.00,0.70
6202.00,0.70
6201.00,0.70
6200.00,0.70
6199.00,0.70
6198.00,0.70
6197.00,0.70
6196.00,0.70
6195.00,0.70
6194.00,0.70
6193.00,0.70
6192.00,0.70
6191.00,0.70
6190.00,0.70
6189.00,0.71
6188.00,0.71
6187.00,0.71
6186.00,0.71
6185.00,0.71
6184.00,0.71
6183.00,0.71
6182.00,0.71
6181.00,0.71
6180.00,0.71
6179.00,0.71
6178.00,0.71
6177.00,0.72
6176.00,0.72
6175.00,0.72
6174.00,0.72
6173.00,0.72
6172.00,0.72
6171.00,0.72
6170.00,0.72
6169.00,0.72
6168.00,0.72
6167.00,0.72
6166.00,0.72
6165.00,0.72
6164.00,0.72
6163.00,0.72
6162.00,0.72
6161.00,0.73
6160.00,0.73
6159.00,0.73
6158.00,0.73
6157.00,0.73
6156.00,0.73
6155.00,0.73
6154.00,0.73
6153.00,0.73
6152.00,0.73
6151.00,0.73
6150.00,0.73
6149.00,0.74
6148.00,0.74
6147.00,0.74
6146.00,0.74
6145.00,0.74
6144.00,0.74
6143.00,0.74
6142.00,0.74
6141.00,0.74
6140.00,0.74
6139.00,0.74
6138.00,0.74
6137.00,0.74
6136.00,0.74
6135.00,0.74
6134.00,0.75
6133.00,0.75
6132.00,0.75
6131.00,0.75
6130.00,0.75
6129.00,0.75
6128.00,0.75
6127.00,0.75
6126.00,0.75
6125.00,0.75
6124.00,0.75
6123.00,0.75
6122.00,0.75
6121.00,0.76
6120.00,0.76
6119.00,0.76
6118.00,0.76
6117.00,0.76
6116.00,0.76
6115.00,0.76
6114.00,0.76
6113.00,0.76
6112.00,0.76
6111.00,0.76
6110.00,0.76
6109.00,0.76
6108.00,0.76
6107.00,0.77
6106.00,0.77
6105.00,0.77
6104.00,0.77
6103.00,0.77
6102.00,0.77
6101.00,0.77
6100.00,0.77
6099.00,0.77
6098.00,0.77
6097.00,0.77
6096.00,0.77
6095.00,0.77
6094.00,0.77
6093.00,0.78
6092.00,0.78
6091.00,0.78
6090.00,0.78
6089.00,0.78
6088.00,0.78
6087.00,0.78
6086.00,0.78
6085.00,0.78
6084.00,0.78
6083.00,0.78
6082.00,0.78
6081.00,0.78
6080.00,0.78
6079.00,0.78
6078.00,0.78
6077.00,0.79
6076.00,0.79
6075.00,0.79
6074.00,0.79
6073.00,0.79
6072.00,0.79
6071.00,0.79
6070.00,0.79
6069.00,0.79
6068.00,0.79
6067.00,0.79
6066.00,0.79
6065.00,0.79
6064.00,0.79
6063.00,0.79
6062.00,0.79
6061.00,0.79
6060.00,0.79
6059.00,0.79
6058.00,0.79
6057.00,0.79
6056.00,0.79
6055.00,0.80
6054.00,0.80
6053.00,0.80
6052.00,0.80
6051.00,0.80
6050.00,0.80
6049.00,0.80
6048.00,0.80
6047.00,0.80
6046.00,0.80
6045.00,0.80
6044.00,0.80
6043.00,0.80
6042.00,0.80
6041.00,0.80
6040.00,0.80
6039.00,0.80
6038.00,0.80
6037.00,0.80
6036.00,0.80
6035.00,0.80
6034.00,0.80
6033.00,0.80
6032.00,0.80
6031.00,0.80
6030.00,0.80
6029.00,0.80
6028.00,0.80
6027.00,0.80
6026.00,0.80
6025.00,0.80
6024.00,0.80
6023.00,0.80
6022.00,0.80
6021.00,0.80
6020.00,0.80
6019.00,0.80
6018.00,0.80
6017.00,0.80
6016.00,0.80
6015.00,0.80
6014.00,0.80
6013.00,0.80
6012.00,0.80
6011.00,0.80
6010.00,0.80
6009.00,0.80
6008.00,0.80
6007.00,0.80
6006.00,0.80
6005.00,0.80
6004.00,0.80
6003.00,0.80
6002.00,0.80
6001.00,0.80
6000.00,0.80
5999.00,0.80
5998.00,0.80
5997.00,0.80
5996.00,0.80
5995.00,0.80
5994.00,0.80
5993.00,0.79
5992.00,0.79
5991.00,0.79
5990.00,0.79
5989.00,0.79
5988.00,0.79
5987.00,0.79
5986.00,0.79
5985.00,0.79
5984.00,0.79
5983.00,0.79
5982.00,0.79
5981.00,0.79
5980.00,0.78
5979.00,0.78
5978.00,0.78
5977.00,0.78
5976.00,0.78
5975.00,0.78
5974.00,0.77
5973.00,0.77
5972.00,0.77
5971.00,0.77
5970.00,0.76
5969.00,0.76
5968.00,0.76
5967.00,0.75
5966.00,0.75
5965.00,0.75
5964.00,0.74
5963.00,0.74
5962.00,0.74
5961.00,0.73
5960.00,0.73
5959.00,0.72
5958.00,0.72
5957.00,0.72
5956.00,0.71
5955.00,0.71
5954.00,0.71
5953.00,0.70
5952.00,0.70
5951.00,0.70
5950.00,0.69
5949.00,0.69
5948.00,0.69
5947.00,0.69
5946.00,0.69
5945.00,0.68
5944.00,0.68
5943.00,0.68
5942.00,0.68
5941.00,0.68
5940.00,0.68
5939.00,0.68
5938.00,0.68
5937.00,0.68
5936.00,0.68
5935.00,0.68
5934.00,0.68
5933.00,0.68
5932.00,0.68
5931.00,0.68
5930.00,0.68
5929.00,0.68
5928.00,0.68
5927.00,0.67
5926.00,0.67
5925.00,0.67
5924.00,0.67
5923.00,0.67
5922.00,0.67
5921.00,0.67
5920.00,0.67
5919.00,0.67
5918.00,0.67
5917.00,0.66
5916.00,0.66
5915.00,0.66
5914.00,0.66
5913.00,0.66
5912.00,0.66
5911.00,0.65
5910.00,0.65
5909.00,0.65
5908.00,0.65
5907.00,0.65
5906.00,0.65
5905.00,0.65
5904.00,0.65
5903.00,0.65
5902.00,0.64
5901.00,0.64
5900.00,0.64
5899.00,0.64
5898.00,0.64
5897.00,0.65
5896.00,0.65
5895.00,0.65
5894.00,0.65
5893.00,0.65
5892.00,0.65
5891.00,0.65
5890.00,0.65
5889.00,0.66
5888.00,0.66
5887.00,0.66
5886.00,0.66
5885.00,0.66
5884.00,0.66
5883.00,0.67
5882.00,0.67
5881.00,0.67
5880.00,0.67
5879.00,0.67
5878.00,0.68
5877.00,0.68
5876.00,0.68
5875.00,0.68
5874.00,0.68
5873.00,0.68
5872.00,0.69
5871.00,0.69
5870.00,0.69
5869.00,0.69
5868.00,0.69
5867.00,0.69
5866.00,0.69
5865.00,0.69
5864.00,0.69
5863.00,0.70
5862.00,0.70
5861.00,0.70
5860.00,0.70
5859.00,0.70
5858.00,0.70
5857.00,0.70
5856.00,0.70
5855.00,0.70
5854.00,0.70
5853.00,0.70
5852.00,0.70
5851.00,0.70
5850.00,0.70
5849.00,0.70
5848.00,0.70
5847.00,0.70
5846.00,0.70
5845.00,0.70
5844.00,0.70
5843.00,0.70
5842.00,0.70
5841.00,0.70
5840.00,0.70
5839.00,0.70
5838.00,0.70
5837.00,0.70
5836.00,0.70
5835.00,0.70
5834.00,0.70
5833.00,0.70
5832.00,0.70
5831.00,0.70
5830.00,0.70
5829.00,0.70
5828.00,0.70
5827.00,0.70
5826.00,0.70
5825.00,0.70
5824.00,0.70
5823.00,0.70
5822.00,0.70
5821.00,0.70
5820.00,0.70
5819.00,0.70
5818.00,0.70
5817.00,0.70
5816.00,0.70
5815.00,0.70
5814.00,0.70
5813.00,0.70
5812.00,0.70
5811.00,0.70
5810.00,0.70
5809.00,0.70
5808.00,0.70
5807.00,0.70
5806.00,0.70
5805.00,0.70
5804.00,0.70
5803.00,0.70
5802.00,0.70
5801.00,0.70
5800.00,0.70
5799.00,0.70
5798.00,0.70
5797.00,0.70
5796.00,0.70
5795.00,0.69
5794.00,0.69
5793.00,0.69
5792.00,0.69
5791.00,0.69
5790.00,0.69
5789.00,0.69
5788.00,0.69
5787.00,0.68
5786.00,0.68
5785.00,0.68
5784.00,0.68
5783.00,0.68
5782.00,0.68
5781.00,0.68
5780.00,0.68
5779.00,0.68
5778.00,0.68
5777.00,0.68
5776.00,0.68
5775.00,0.68
5774.00,0.68
5773.00,0.68
5772.00,0.68
5771.00,0.68
5770.00,0.68
5769.00,0.68
5768.00,0.68
5767.00,0.68
5766.00,0.68
5765.00,0.68
5764.00,0.68
5763.00,0.68
5762.00,0.68
5761.00,0.68
5760.00,0.68
5759.00,0.68
5758.00,0.69
5757.00,0.69
5756.00,0.69
5755.00,0.69
5754.00,0.69
5753.00,0.69
5752.00,0.69
5751.00,0.70
5750.00,0.70
5749.00,0.70
5748.00,0.70
5747.00,0.70
5746.00,0.70
5745.00,0.71
5744.00,0.71
5743.00,0.71
5742.00,0.71
5741.00,0.71
5740.00,0.71
5739.00,0.71
5738.00,0.72
5737.00,0.72
5736.00,0.72
5735.00,0.72
5734.00,0.72
5733.00,0.72
5732.00,0.72
5731.00,0.72
5730.00,0.72
5729.00,0.72
5728.00,0.72
5727.00,0.72
5726.00,0.72
5725.00,0.72
5724.00,0.72
5723.00,0.72
5722.00,0.72
5721.00,0.72
5720.00,0.72
5719.00,0.72
5718.00,0.73
5717.00,0.73
5716.00,0.73
5715.00,0.73
5714.00,0.73
5713.00,0.73
5712.00,0.72
5711.00,0.72
5710.00,0.72
5709.00,0.72
5708.00,0.72
5707.00,0.72
5706.00,0.72
5705.00,0.72
5704.00,0.72
5703.00,0.72
5702.00,0.72
5701.00,0.72
5700.00,0.72
5699.00,0.72
5698.00,0.72
5697.00,0.72
5696.00,0.71
5695.00,0.71
5694.00,0.71
5693.00,0.71
5692.00,0.71
5691.00,0.71
5690.00,0.71
5689.00,0.71
5688.00,0.71
5687.00,0.71
5686.00,0.71
5685.00,0.71
5684.00,0.71
5683.00,0.71
5682.00,0.71
5681.00,0.71
5680.00,0.71
5679.00,0.71
5678.00,0.71
5677.00,0.71
5676.00,0.71
5675.00,0.71
5674.00,0.71
5673.00,0.71
5672.00,0.71
5671.00,0.71
5670.00,0.71
5669.00,0.71
5668.00,0.71
5667.00,0.71
5666.00,0.71
5665.00,0.71
5664.00,0.71
5663.00,0.71
5662.00,0.71
5661.00,0.71
5660.00,0.71
5659.00,0.71
5658.00,0.71
5657.00,0.71
5656.00,0.71
5655.00,0.71
5654.00,0.71
5653.00,0.71
5652.00,0.71
5651.00,0.71
5650.00,0.71
5649.00,0.71
5648.00,0.72
5647.00,0.72
5646.00,0.72
5645.00,0.72
5644.00,0.72
5643.00,0.72
5642.00,0.72
5641.00,0.72
5640.00,0.73
5639.00,0.73
5638.00,0.73
5637.00,0.73
5636.00,0.73
5635.00,0.73
5634.00,0.73
5633.00,0.73
5632.00,0.73
5631.00,0.73
5630.00,0.74
5629.00,0.74
5628.00,0.74
5627.00,0.74
5626.00,0.74
5625.00,0.74
5624.00,0.74
5623.00,0.74
5622.00,0.74
5621.00,0.74
5620.00,0.74
5619.00,0.74
5618.00,0.74
5617.00,0.74
5616.00,0.74
5615.00,0.74
5614.00,0.75
5613.00,0.75
5612.00,0.75
5611.00,0.75
5610.00,0.75
5609.00,0.75
5608.00,0.75
5607.00,0.75
5606.00,0.75
5605.00,0.75
5604.00,0.75
5603.00,0.75
5602.00,0.76
5601.00,0.76
5600.00,0.76
5599.00,0.76
5598.00,0.76
5597.00,0.76
5596.00,0.76
5595.00,0.76
5594.00,0.76
5593.00,0.76
5592.00,0.76
5591.00,0.76
5590.00,0.76
5589.00,0.77
5588.00,0.77
5587.00,0.77
5586.00,0.77
5585.00,0.77
5584.00,0.77
5583.00,0.77
5582.00,0.77
5581.00,0.77
5580.00,0.77
5579.00,0.77
5578.00,0.77
5577.00,0.77
5576.00,0.78
5575.00,0.78
5574.00,0.78
5573.00,0.78
5572.00,0.78
5571.00,0.78
5570.00,0.78
5569.00,0.78
5568.00,0.78
5567.00,0.78
5566.00,0.78
5565.00,0.78
5564.00,0.78
5563.00,0.78
5562.00,0.78
5561.00,0.78
5560.00,0.78
5559.00,0.78
5558.00,0.78
5557.00,0.79
5556.00,0.79
5555.00,0.79
5554.00,0.79
5553.00,0.79
5552.00,0.79
5551.00,0.79
5550.00,0.79
5549.00,0.79
5548.00,0.79
5547.00,0.79
5546.00,0.79
5545.00,0.80
5544.00,0.80
5543.00,0.80
5542.00,0.80
5541.00,0.80
5540.00,0.80
5539.00,0.80
5538.00,0.80
5537.00,0.80
5536.00,0.80
5535.00,0.80
5534.00,0.80
5533.00,0.80
5532.00,0.80
5531.00,0.80
5530.00,0.80
5529.00,0.80
5528.00,0.80
5527.00,0.80
5526.00,0.80
5525.00,0.80
5524.00,0.80
5523.00,0.80
5522.00,0.80
5521.00,0.80
5520.00,0.80
5519.00,0.80
5518.00,0.80
5517.00,0.80
5516.00,0.80
5515.00,0.80
5514.00,0.80
5513.00,0.80
5512.00,0.80
5511.00,0.80
5510.00,0.80
5509.00,0.80
5508.00,0.80
5507.00,0.80
5506.00,0.80
5505.00,0.80
5504.00,0.80
5503.00,0.80
5502.00,0.80
5501.00,0.80
5500.00,0.81
5499.00,0.81
5498.00,0.81
5497.00,0.81
5496.00,0.81
5495.00,0.81
5494.00,0.81
5493.00,0.81
5492.00,0.81
5491.00,0.81
5490.00,0.81
5489.00,0.81
5488.00,0.81
5487.00,0.81
5486.00,0.81
5485.00,0.81
5484.00,0.81
5483.00,0.81
5482.00,0.81
5481.00,0.81
5480.00,0.81
5479.00,0.81
5478.00,0.82
5477.00,0.82
5476.00,0.82
5475.00,0.82
5474.00,0.82
5473.00,0.82
5472.00,0.82
5471.00,0.82
5470.00,0.82
5469.00,0.82
5468.00,0.82
5467.00,0.82
5466.00,0.82
5465.00,0.82
5464.00,0.82
5463.00,0.82
5462.00,0.82
5461.00,0.82
5460.00,0.82
5459.00,0.82
5458.00,0.82
5457.00,0.83
5456.00,0.83
5455.00,0.83
5454.00,0.83
5453.00,0.83
5452.00,0.83
5451.00,0.83
5450.00,0.83
5449.00,0.83
5448.00,0.83
5447.00,0.83
5446.00,0.83
5445.00,0.82
5444.00,0.82
5443.00,0.82
5442.00,0.82
5441.00,0.82
5440.00,0.82
5439.00,0.82
5438.00,0.82
5437.00,0.82
5436.00,0.82
5435.00,0.83
5434.00,0.83
5433.00,0.83
5432.00,0.83
5431.00,0.83
5430.00,0.83
5429.00,0.83
5428.00,0.83
5427.00,0.83
5426.00,0.83
5425.00,0.83
5424.00,0.83
5423.00,0.83
5422.00,0.83
5421.00,0.83
5420.00,0.83
5419.00,0.83
5418.00,0.83
5417.00,0.83
5416.00,0.83
5415.00,0.82
5414.00,0.82
5413.00,0.82
5412.00,0.82
5411.00,0.82
5410.00,0.82
5409.00,0.82
5408.00,0.82
5407.00,0.83
5406.00,0.83
5405.00,0.83
5404.00,0.83
5403.00,0.83
5402.00,0.83
5401.00,0.83
5400.00,0.83
5399.00,0.83
5398.00,0.83
5397.00,0.83
5396.00,0.82
5395.00,0.82
5394.00,0.82
5393.00,0.82
5392.00,0.82
5391.00,0.82
5390.00,0.82
5389.00,0.82
5388.00,0.82
5387.00,0.82
5386.00,0.82
5385.00,0.82
5384.00,0.81
5383.00,0.81
5382.00,0.81
5381.00,0.81
5380.00,0.81
5379.00,0.81
5378.00,0.81
5377.00,0.81
5376.00,0.80
5375.00,0.80
5374.00,0.80
5373.00,0.80
5372.00,0.80
5371.00,0.79
5370.00,0.79
5369.00,0.79
5368.00,0.79
5367.00,0.78
5366.00,0.78
5365.00,0.78
5364.00,0.77
5363.00,0.77
5362.00,0.77
5361.00,0.76
5360.00,0.76
5359.00,0.75
5358.00,0.75
5357.00,0.75
5356.00,0.74
5355.00,0.74
5354.00,0.73
5353.00,0.73
5352.00,0.72
5351.00,0.72
5350.00,0.71
5349.00,0.71
5348.00,0.70
5347.00,0.70
5346.00,0.69
5345.00,0.69
5344.00,0.68
5343.00,0.68
5342.00,0.67
5341.00,0.67
5340.00,0.66
5339.00,0.66
5338.00,0.65
5337.00,0.64
5336.00,0.64
5335.00,0.63
5334.00,0.63
5333.00,0.62
5332.00,0.62
5331.00,0.61
5330.00,0.61
5329.00,0.60
5328.00,0.60
5327.00,0.59
5326.00,0.59
5325.00,0.58
5324.00,0.57
5323.00,0.57
5322.00,0.56
5321.00,0.56
5320.00,0.55
5319.00,0.55
5318.00,0.54
5317.00,0.53
5316.00,0.53
5315.00,0.52
5314.00,0.52
5313.00,0.51
5312.00,0.51
5311.00,0.50
5310.00,0.49
5309.00,0.49
5308.00,0.48
5307.00,0.48
5306.00,0.47
5305.00,0.47
5304.00,0.46
5303.00,0.46
5302.00,0.45
5301.00,0.45
5300.00,0.45
5299.00,0.44
5298.00,0.44
5297.00,0.44
5296.00,0.43
5295.00,0.43
5294.00,0.43
5293.00,0.42
5292.00,0.42
5291.00,0.42
5290.00,0.42
5289.00,0.41
5288.00,0.41
5287.00,0.41
5286.00,0.41
5285.00,0.40
5284.00,0.40
5283.00,0.40
5282.00,0.40
5281.00,0.40
5280.00,0.40
5279.00,0.40
5278.00,0.39
5277.00,0.39
5276.00,0.39
5275.00,0.39
5274.00,0.39
5273.00,0.39
5272.00,0.39
5271.00,0.39
5270.00,0.39
5269.00,0.39
5268.00,0.39
5267.00,0.39
5266.00,0.39
5265.00,0.39
5264.00,0.39
5263.00,0.39
5262.00,0.38
5261.00,0.38
5260.00,0.38
5259.00,0.38
5258.00,0.38
5257.00,0.38
5256.00,0.38
5255.00,0.38
5254.00,0.38
5253.00,0.38
5252.00,0.38
5251.00,0.38
5250.00,0.38
5249.00,0.38
5248.00,0.38
5247.00,0.38
5246.00,0.38
5245.00,0.38
5244.00,0.38
5243.00,0.38
5242.00,0.38
5241.00,0.38
5240.00,0.38
5239.00,0.38
5238.00,0.38
5237.00,0.38
5236.00,0.38
5235.00,0.38
5234.00,0.38
5233.00,0.38
5232.00,0.38
5231.00,0.38
5230.00,0.38
5229.00,0.38
5228.00,0.38
5227.00,0.38
5226.00,0.38
5225.00,0.38
5224.00,0.38
5223.00,0.38
5222.00,0.38
5221.00,0.38
5220.00,0.38
5219.00,0.38
5218.00,0.38
5217.00,0.38
5216.00,0.38
5215.00,0.38
5214.00,0.38
5213.00,0.38
5212.00,0.38
5211.00,0.38
5210.00,0.38
5209.00,0.38
5208.00,0.38
5207.00,0.38
5206.00,0.38
5205.00,0.38
5204.00,0.38
5203.00,0.38
5202.00,0.38
5201.00,0.38
5200.00,0.38
5199.00,0.38
5198.00,0.39
5197.00,0.39
5196.00,0.39
5195.00,0.39
5194.00,0.39
5193.00,0.39
5192.00,0.39
5191.00,0.39
5190.00,0.39
5189.00,0.39
5188.00,0.39
5187.00,0.39
5186.00,0.39
5185.00,0.39
5184.00,0.39
5183.00,0.39
5182.00,0.39
5181.00,0.39
5180.00,0.39
5179.00,0.39
5178.00,0.39
5177.00,0.39
5176.00,0.39
5175.00,0.39
5174.00,0.39
5173.00,0.39
5172.00,0.39
5171.00,0.39
5170.00,0.39
5169.00,0.39
5168.00,0.39
5167.00,0.39
5166.00,0.39
5165.00,0.39
5164.00,0.39
5163.00,0.39
5162.00,0.39
5161.00,0.39
5160.00,0.39
5159.00,0.39
5158.00,0.39
5157.00,0.39
5156.00,0.40
5155.00,0.40
5154.00,0.40
5153.00,0.40
5152.00,0.40
5151.00,0.40
5150.00,0.40
5149.00,0.40
5148.00,0.40
5147.00,0.40
5146.00,0.40
5145.00,0.40
5144.00,0.40
5143.00,0.40
5142.00,0.40
5141.00,0.40
5140.00,0.40
5139.00,0.40
5138.00,0.40
5137.00,0.40
5136.00,0.40
5135.00,0.40
5134.00,0.40
5133.00,0.40
5132.00,0.40
5131.00,0.40
5130.00,0.40
5129.00,0.40
5128.00,0.40
5127.00,0.40
5126.00,0.40
5125.00,0.40
5124.00,0.40
5123.00,0.40
5122.00,0.40
5121.00,0.40
5120.00,0.40
5119.00,0.40
5118.00,0.41
5117.00,0.41
5116.00,0.41
5115.00,0.41
5114.00,0.41
5113.00,0.41
5112.00,0.41
5111.00,0.41
5110.00,0.41
5109.00,0.41
5108.00,0.41
5107.00,0.41
5106.00,0.41
5105.00,0.41
5104.00,0.41
5103.00,0.41
5102.00,0.41
5101.00,0.41
5100.00,0.41
5099.00,0.41
5098.00,0.41
5097.00,0.41
5096.00,0.41
5095.00,0.42
5094.00,0.42
5093.00,0.42
5092.00,0.42
5091.00,0.42
5090.00,0.42
5089.00,0.42
5088.00,0.42
5087.00,0.42
5086.00,0.42
5085.00,0.42
5084.00,0.42
5083.00,0.42
5082.00,0.42
5081.00,0.42
5080.00,0.42
5079.00,0.42
5078.00,0.42
5077.00,0.42
5076.00,0.42
5075.00,0.42
5074.00,0.42
5073.00,0.42
5072.00,0.42
5071.00,0.42
5070.00,0.42
5069.00,0.42
5068.00,0.42
5067.00,0.42
5066.00,0.43
5065.00,0.43
5064.00,0.43
5063.00,0.43
5062.00,0.43
5061.00,0.43
5060.00,0.43
5059.00,0.43
5058.00,0.43
5057.00,0.43
5056.00,0.43
5055.00,0.43
5054.00,0.43
5053.00,0.43
5052.00,0.43
5051.00,0.44
5050.00,0.44
5049.00,0.44
5048.00,0.44
5047.00,0.44
5046.00,0.44
5045.00,0.44
5044.00,0.44
5043.00,0.44
5042.00,0.44
5041.00,0.44
5040.00,0.44
5039.00,0.44
5038.00,0.44
5037.00,0.44
5036.00,0.44
5035.00,0.44
5034.00,0.44
5033.00,0.45
5032.00,0.45
5031.00,0.45
5030.00,0.45
5029.00,0.45
5028.00,0.45
5027.00,0.45
5026.00,0.45
5025.00,0.45
5024.00,0.45
5023.00,0.45
5022.00,0.45
5021.00,0.45
5020.00,0.45
5019.00,0.45
5018.00,0.45
5017.00,0.45
5016.00,0.45
5015.00,0.46
5014.00,0.46
5013.00,0.46
5012.00,0.46
5011.00,0.46
5010.00,0.46
5009.00,0.46
5008.00,0.46
5007.00,0.46
5006.00,0.46
5005.00,0.46
5004.00,0.46
5003.00,0.46
5002.00,0.46
5001.00,0.47
5000.00,0.47
4999.00,0.47
4998.00,0.47
4997.00,0.47
4996.00,0.47
4995.00,0.47
4994.00,0.47
4993.00,0.47
4992.00,0.47
4991.00,0.47
4990.00,0.47
4989.00,0.47
4988.00,0.47
4987.00,0.48
4986.00,0.48
4985.00,0.48
4984.00,0.48
4983.00,0.48
4982.00,0.48
4981.00,0.48
4980.00,0.48
4979.00,0.48
4978.00,0.48
4977.00,0.48
4976.00,0.48
4975.00,0.48
4974.00,0.48
4973.00,0.48
4972.00,0.48
4971.00,0.49
4970.00,0.49
4969.00,0.49
4968.00,0.49
4967.00,0.49
4966.00,0.49
4965.00,0.49
4964.00,0.49
4963.00,0.49
4962.00,0.49
4961.00,0.49
4960.00,0.49
4959.00,0.49
4958.00,0.49
4957.00,0.49
4956.00,0.49
4955.00,0.50
4954.00,0.50
4953.00,0.50
4952.00,0.50
4951.00,0.50
4950.00,0.50
4949.00,0.50
4948.00,0.50
4947.00,0.50
4946.00,0.50
4945.00,0.50
4944.00,0.50
4943.00,0.50
4942.00,0.50
4941.00,0.50
4940.00,0.50
4939.00,0.50
4938.00,0.50
4937.00,0.50
4936.00,0.51
4935.00,0.51
4934.00,0.51
4933.00,0.51
4932.00,0.51
4931.00,0.51
4930.00,0.51
4929.00,0.51
4928.00,0.51
4927.00,0.51
4926.00,0.51
4925.00,0.51
4924.00,0.51
4923.00,0.51
4922.00,0.51
4921.00,0.52
4920.00,0.52
4919.00,0.52
4918.00,0.52
4917.00,0.52
4916.00,0.52
4915.00,0.52
4914.00,0.52
4913.00,0.52
4912.00,0.52
4911.00,0.52
4910.00,0.52
4909.00,0.52
4908.00,0.52
4907.00,0.52
4906.00,0.52
4905.00,0.52
4904.00,0.52
4903.00,0.52
4902.00,0.53
4901.00,0.53
4900.00,0.53
4899.00,0.53
4898.00,0.53
4897.00,0.53
4896.00,0.53
4895.00,0.53
4894.00,0.53
4893.00,0.53
4892.00,0.53
4891.00,0.53
4890.00,0.53
4889.00,0.53
4888.00,0.53
4887.00,0.53
4886.00,0.53
4885.00,0.53
4884.00,0.53
4883.00,0.53
4882.00,0.53
4881.00,0.53
4880.00,0.54
4879.00,0.54
4878.00,0.54
4877.00,0.54
4876.00,0.54
4875.00,0.54
4874.00,0.54
4873.00,0.54
4872.00,0.54
4871.00,0.54
4870.00,0.54
4869.00,0.54
4868.00,0.54
4867.00,0.54
4866.00,0.54
4865.00,0.54
4864.00,0.54
4863.00,0.55
4862.00,0.55
4861.00,0.55
4860.00,0.55
4859.00,0.55
4858.00,0.55
4857.00,0.55
4856.00,0.55
4855.00,0.55
4854.00,0.55
4853.00,0.55
4852.00,0.55
4851.00,0.55
4850.00,0.55
4849.00,0.55
4848.00,0.55
4847.00,0.55
4846.00,0.55
4845.00,0.55
4844.00,0.55
4843.00,0.55
4842.00,0.55
4841.00,0.55
4840.00,0.55
4839.00,0.56
4838.00,0.56
4837.00,0.56
4836.00,0.56
4835.00,0.56
4834.00,0.56
4833.00,0.56
4832.00,0.56
4831.00,0.56
4830.00,0.56
4829.00,0.56
4828.00,0.56
4827.00,0.56
4826.00,0.56
4825.00,0.56
4824.00,0.56
4823.00,0.56
4822.00,0.56
4821.00,0.56
4820.00,0.56
4819.00,0.57
4818.00,0.57
4817.00,0.57
4816.00,0.57
4815.00,0.57
4814.00,0.57
4813.00,0.57
4812.00,0.57
4811.00,0.57
4810.00,0.57
4809.00,0.57
4808.00,0.57
4807.00,0.57
4806.00,0.57
4805.00,0.57
4804.00,0.58
4803.00,0.58
4802.00,0.58
4801.00,0.58
4800.00,0.58
4799.00,0.58
4798.00,0.58
4797.00,0.58
4796.00,0.58
4795.00,0.58
4794.00,0.58
4793.00,0.59
4792.00,0.59
4791.00,0.59
4790.00,0.59
4789.00,0.59
4788.00,0.59
4787.00,0.59
4786.00,0.59
4785.00,0.59
4784.00,0.59
4783.00,0.59
4782.00,0.59
4781.00,0.59
4780.00,0.60
4779.00,0.60
4778.00,0.60
4777.00,0.60
4776.00,0.60
4775.00,0.60
4774.00,0.60
4773.00,0.61
4772.00,0.61
4771.00,0.61
4770.00,0.61
4769.00,0.61
4768.00,0.61
4767.00,0.62
4766.00,0.62
4765.00,0.62
4764.00,0.62
4763.00,0.62
4762.00,0.62
4761.00,0.62
4760.00,0.62
4759.00,0.62
4758.00,0.62
4757.00,0.63
4756.00,0.63
4755.00,0.63
4754.00,0.63
4753.00,0.63
4752.00,0.63
4751.00,0.63
4750.00,0.63
4749.00,0.63
4748.00,0.63
4747.00,0.63
4746.00,0.63
4745.00,0.64
4744.00,0.64
4743.00,0.64
4742.00,0.64
4741.00,0.64
4740.00,0.64
4739.00,0.64
4738.00,0.64
4737.00,0.64
4736.00,0.65
4735.00,0.65
4734.00,0.65
4733.00,0.65
4732.00,0.65
4731.00,0.65
4730.00,0.65
4729.00,0.65
4728.00,0.66
4727.00,0.66
4726.00,0.66
4725.00,0.66
4724.00,0.66
4723.00,0.66
4722.00,0.66
4721.00,0.67
4720.00,0.67
4719.00,0.67
4718.00,0.67
4717.00,0.67
4716.00,0.67
4715.00,0.68
4714.00,0.68
4713.00,0.68
4712.00,0.68
4711.00,0.68
4710.00,0.68
4709.00,0.68
4708.00,0.69
4707.00,0.69
4706.00,0.69
4705.00,0.69
4704.00,0.69
4703.00,0.69
4702.00,0.69
4701.00,0.69
4700.00,0.70
4699.00,0.70
4698.00,0.70
4697.00,0.70
4696.00,0.70
4695.00,0.70
4694.00,0.70
4693.00,0.70
4692.00,0.71
4691.00,0.71
4690.00,0.71
4689.00,0.71
4688.00,0.71
4687.00,0.71
4686.00,0.71
4685.00,0.71
4684.00,0.71
4683.00,0.71
4682.00,0.71
4681.00,0.71
4680.00,0.72
4679.00,0.72
4678.00,0.72
4677.00,0.72
4676.00,0.72
4675.00,0.72
4674.00,0.72
4673.00,0.72
4672.00,0.72
4671.00,0.72
4670.00,0.72
4669.00,0.73
4668.00,0.73
4667.00,0.73
4666.00,0.73
4665.00,0.73
4664.00,0.73
4663.00,0.73
4662.00,0.73
4661.00,0.73
4660.00,0.74
4659.00,0.74
4658.00,0.74
4657.00,0.74
4656.00,0.74
4655.00,0.74
4654.00,0.74
4653.00,0.74
4652.00,0.74
4651.00,0.75
4650.00,0.75
4649.00,0.75
4648.00,0.75
4647.00,0.75
4646.00,0.75
4645.00,0.75
4644.00,0.75
4643.00,0.75
4642.00,0.75
4641.00,0.76
4640.00,0.76
4639.00,0.76
4638.00,0.76
4637.00,0.76
4636.00,0.76
4635.00,0.76
4634.00,0.76
4633.00,0.76
4632.00,0.76
4631.00,0.76
4630.00,0.76
4629.00,0.76
4628.00,0.76
4627.00,0.76
4626.00,0.76
4625.00,0.76
4624.00,0.76
4623.00,0.76
4622.00,0.77
4621.00,0.77
4620.00,0.77
4619.00,0.77
4618.00,0.77
4617.00,0.77
4616.00,0.77
4615.00,0.77
4614.00,0.77
4613.00,0.77
4612.00,0.77
4611.00,0.77
4610.00,0.77
4609.00,0.77
4608.00,0.77
4607.00,0.78
4606.00,0.78
4605.00,0.78
4604.00,0.78
4603.00,0.78
4602.00,0.78
4601.00,0.78
4600.00,0.78
4599.00,0.78
4598.00,0.78
4597.00,0.78
4596.00,0.78
4595.00,0.78
4594.00,0.78
4593.00,0.78
4592.00,0.78
4591.00,0.78
4590.00,0.79
4589.00,0.79
4588.00,0.79
4587.00,0.79
4586.00,0.79
4585.00,0.79
4584.00,0.79
4583.00,0.79
4582.00,0.79
4581.00,0.79
4580.00,0.79
4579.00,0.79
4578.00,0.79
4577.00,0.80
4576.00,0.80
4575.00,0.80
4574.00,0.80
4573.00,0.80
4572.00,0.80
4571.00,0.80
4570.00,0.80
4569.00,0.80
4568.00,0.80
4567.00,0.80
4566.00,0.80
4565.00,0.80
4564.00,0.80
4563.00,0.80
4562.00,0.80
4561.00,0.81
4560.00,0.81
4559.00,0.81
4558.00,0.81
4557.00,0.81
4556.00,0.81
4555.00,0.81
4554.00,0.81
4553.00,0.81
4552.00,0.81
4551.00,0.81
4550.00,0.81
4549.00,0.81
4548.00,0.81
4547.00,0.82
4546.00,0.82
4545.00,0.82
4544.00,0.82
4543.00,0.82
4542.00,0.82
4541.00,0.82
4540.00,0.82
4539.00,0.82
4538.00,0.82
4537.00,0.82
4536.00,0.82
4535.00,0.82
4534.00,0.82
4533.00,0.82
4532.00,0.82
4531.00,0.82
4530.00,0.82
4529.00,0.82
4528.00,0.82
4527.00,0.82
4526.00,0.82
4525.00,0.82
4524.00,0.82
4523.00,0.82
4522.00,0.82
4521.00,0.82
4520.00,0.82
4519.00,0.82
4518.00,0.82
4517.00,0.82
4516.00,0.82
4515.00,0.82
4514.00,0.82
4513.00,0.82
4512.00,0.82
4511.00,0.82
4510.00,0.82
4509.00,0.82
4508.00,0.82
4507.00,0.82
4506.00,0.83
4505.00,0.83
4504.00,0.83
4503.00,0.83
4502.00,0.83
4501.00,0.83
4500.00,0.83
4499.00,0.82
4498.00,0.82
4497.00,0.82
4496.00,0.82
4495.00,0.82
4494.00,0.82
4493.00,0.82
4492.00,0.82
4491.00,0.82
4490.00,0.82
4489.00,0.82
4488.00,0.81
4487.00,0.81
4486.00,0.81
4485.00,0.81
4484.00,0.81
4483.00,0.81
4482.00,0.81
4481.00,0.81
4480.00,0.81
4479.00,0.81
4478.00,0.81
4477.00,0.80
4476.00,0.80
4475.00,0.80
4474.00,0.80
4473.00,0.80
4472.00,0.80
4471.00,0.80
4470.00,0.80
4469.00,0.79
4468.00,0.79
4467.00,0.79
4466.00,0.79
4465.00,0.79
4464.00,0.78
4463.00,0.78
4462.00,0.78
4461.00,0.78
4460.00,0.78
4459.00,0.77
4458.00,0.77
4457.00,0.77
4456.00,0.77
4455.00,0.76
4454.00,0.76
4453.00,0.76
4452.00,0.75
4451.00,0.75
4450.00,0.75
4449.00,0.74
4448.00,0.74
4447.00,0.74
4446.00,0.73
4445.00,0.73
4444.00,0.73
4443.00,0.72
4442.00,0.72
4441.00,0.72
4440.00,0.71
4439.00,0.71
4438.00,0.71
4437.00,0.70
4436.00,0.70
4435.00,0.70
4434.00,0.69
4433.00,0.69
4432.00,0.69
4431.00,0.68
4430.00,0.68
4429.00,0.68
4428.00,0.67
4427.00,0.67
4426.00,0.67
4425.00,0.66
4424.00,0.66
4423.00,0.66
4422.00,0.66
4421.00,0.65
4420.00,0.65
4419.00,0.65
4418.00,0.65
4417.00,0.65
4416.00,0.65
4415.00,0.65
4414.00,0.65
4413.00,0.65
4412.00,0.65
4411.00,0.65
4410.00,0.65
4409.00,0.65
4408.00,0.65
4407.00,0.65
4406.00,0.65
4405.00,0.65
4404.00,0.65
4403.00,0.65
4402.00,0.65
4401.00,0.66
4400.00,0.66
4399.00,0.66
4398.00,0.66
4397.00,0.66
4396.00,0.66
4395.00,0.66
4394.00,0.66
4393.00,0.67
4392.00,0.67
4391.00,0.67
4390.00,0.67
4389.00,0.67
4388.00,0.67
4387.00,0.67
4386.00,0.67
4385.00,0.68
4384.00,0.68
4383.00,0.68
4382.00,0.68
4381.00,0.68
4380.00,0.68
4379.00,0.68
4378.00,0.68
4377.00,0.68
4376.00,0.69
4375.00,0.69
4374.00,0.69
4373.00,0.69
4372.00,0.69
4371.00,0.69
4370.00,0.69
4369.00,0.69
4368.00,0.69
4367.00,0.69
4366.00,0.69
4365.00,0.69
4364.00,0.69
4363.00,0.69
4362.00,0.69
4361.00,0.69
4360.00,0.68
4359.00,0.68
4358.00,0.68
4357.00,0.68
4356.00,0.68
4355.00,0.68
4354.00,0.68
4353.00,0.68
4352.00,0.68
4351.00,0.68
4350.00,0.68
4349.00,0.68
4348.00,0.68
4347.00,0.68
4346.00,0.68
4345.00,0.68
4344.00,0.68
4343.00,0.68
4342.00,0.68
4341.00,0.68
4340.00,0.68
4339.00,0.68
4338.00,0.68
4337.00,0.68
4336.00,0.68
4335.00,0.68
4334.00,0.68
4333.00,0.68
4332.00,0.68
4331.00,0.68
4330.00,0.69
4329.00,0.69
4328.00,0.69
4327.00,0.69
4326.00,0.69
4325.00,0.69
4324.00,0.70
4323.00,0.70
4322.00,0.70
4321.00,0.70
4320.00,0.70
4319.00,0.70
4318.00,0.71
4317.00,0.71
4316.00,0.71
4315.00,0.71
4314.00,0.71
4313.00,0.71
4312.00,0.71
4311.00,0.72
4310.00,0.72
4309.00,0.72
4308.00,0.72
4307.00,0.72
4306.00,0.72
4305.00,0.72
4304.00,0.72
4303.00,0.73
4302.00,0.73
4301.00,0.73
4300.00,0.73
4299.00,0.73
4298.00,0.74
4297.00,0.74
4296.00,0.74
4295.00,0.74
4294.00,0.74
4293.00,0.75
4292.00,0.75
4291.00,0.75
4290.00,0.75
4289.00,0.75
4288.00,0.75
4287.00,0.75
4286.00,0.75
4285.00,0.75
4284.00,0.75
4283.00,0.75
4282.00,0.75
4281.00,0.75
4280.00,0.75
4279.00,0.75
4278.00,0.75
4277.00,0.75
4276.00,0.75
4275.00,0.75
4274.00,0.75
4273.00,0.75
4272.00,0.75
4271.00,0.75
4270.00,0.75
4269.00,0.75
4268.00,0.75
4267.00,0.75
4266.00,0.75
4265.00,0.75
4264.00,0.75
4263.00,0.75
4262.00,0.75
4261.00,0.75
4260.00,0.75
4259.00,0.75
4258.00,0.75
4257.00,0.75
4256.00,0.75
4255.00,0.75
4254.00,0.75
4253.00,0.75
4252.00,0.75
4251.00,0.75
4250.00,0.75
4249.00,0.75
4248.00,0.75
4247.00,0.75
4246.00,0.75
4245.00,0.75
4244.00,0.75
4243.00,0.76
4242.00,0.76
4241.00,0.76
4240.00,0.76
4239.00,0.76
4238.00,0.76
4237.00,0.76
4236.00,0.76
4235.00,0.77
4234.00,0.77
4233.00,0.77
4232.00,0.77
4231.00,0.77
4230.00,0.77
4229.00,0.77
4228.00,0.77
4227.00,0.77
4226.00,0.77
4225.00,0.77
4224.00,0.77
4223.00,0.77
4222.00,0.77
4221.00,0.77
4220.00,0.77
4219.00,0.77
4218.00,0.77
4217.00,0.77
4216.00,0.77
4215.00,0.78
4214.00,0.78
4213.00,0.78
4212.00,0.78
4211.00,0.78
4210.00,0.78
4209.00,0.78
4208.00,0.78
4207.00,0.78
4206.00,0.78
4205.00,0.78
4204.00,0.78
4203.00,0.78
4202.00,0.78
4201.00,0.78
4200.00,0.78
4199.00,0.78
4198.00,0.78
4197.00,0.78
4196.00,0.78
4195.00,0.78
4194.00,0.78
4193.00,0.78
4192.00,0.78
4191.00,0.79
4190.00,0.79
4189.00,0.79
4188.00,0.79
4187.00,0.79
4186.00,0.79
4185.00,0.79
4184.00,0.79
4183.00,0.79
4182.00,0.79
4181.00,0.79
4180.00,0.79
4179.00,0.79
4178.00,0.79
4177.00,0.79
4176.00,0.79
4175.00,0.79
4174.00,0.79
4173.00,0.79
4172.00,0.79
4171.00,0.79
4170.00,0.79
4169.00,0.79
4168.00,0.79
4167.00,0.79
4166.00,0.79
4165.00,0.79
4164.00,0.79
4163.00,0.79
4162.00,0.79
4161.00,0.78
4160.00,0.78
4159.00,0.78
4158.00,0.78
4157.00,0.78
4156.00,0.78
4155.00,0.78
4154.00,0.78
4153.00,0.78
4152.00,0.78
4151.00,0.78
4150.00,0.78
4149.00,0.78
4148.00,0.78
4147.00,0.78
4146.00,0.78
4145.00,0.78
4144.00,0.78
4143.00,0.78
4142.00,0.78
4141.00,0.78
4140.00,0.78
4139.00,0.78
4138.00,0.78
4137.00,0.79
4136.00,0.79
4135.00,0.79
4134.00,0.79
4133.00,0.79
4132.00,0.79
4131.00,0.79
4130.00,0.79
4129.00,0.79
4128.00,0.79
4127.00,0.79
4126.00,0.79
4125.00,0.80
4124.00,0.80
4123.00,0.80
4122.00,0.80
4121.00,0.80
4120.00,0.80
4119.00,0.80
4118.00,0.80
4117.00,0.80
4116.00,0.80
4115.00,0.80
4114.00,0.80
4113.00,0.80
4112.00,0.80
4111.00,0.80
4110.00,0.80
4109.00,0.80
4108.00,0.80
4107.00,0.80
4106.00,0.80
4105.00,0.80
4104.00,0.80
4103.00,0.80
4102.00,0.80
4101.00,0.80
4100.00,0.80
4099.00,0.80
4098.00,0.80
4097.00,0.80
4096.00,0.80
4095.00,0.80
4094.00,0.80
4093.00,0.80
4092.00,0.80
4091.00,0.80
4090.00,0.80
4089.00,0.80
4088.00,0.80
4087.00,0.80
4086.00,0.80
4085.00,0.80
4084.00,0.80
4083.00,0.80
4082.00,0.80
4081.00,0.80
4080.00,0.80
4079.00,0.80
4078.00,0.80
4077.00,0.80
4076.00,0.80
4075.00,0.80
4074.00,0.80
4073.00,0.80
4072.00,0.80
4071.00,0.80
4070.00,0.80
4069.00,0.80
4068.00,0.80
4067.00,0.80
4066.00,0.80
4065.00,0.80
4064.00,0.81
4063.00,0.81
4062.00,0.81
4061.00,0.81
4060.00,0.81
4059.00,0.81
4058.00,0.81
4057.00,0.81
4056.00,0.81
4055.00,0.81
4054.00,0.81
4053.00,0.81
4052.00,0.82
4051.00,0.82
4050.00,0.82
4049.00,0.82
4048.00,0.82
4047.00,0.82
4046.00,0.82
4045.00,0.82
4044.00,0.82
4043.00,0.82
4042.00,0.82
4041.00,0.82
4040.00,0.82
4039.00,0.82
4038.00,0.82
4037.00,0.82
4036.00,0.82
4035.00,0.82
4034.00,0.82
4033.00,0.82
4032.00,0.82
4031.00,0.82
4030.00,0.82
4029.00,0.82
4028.00,0.82
4027.00,0.82
4026.00,0.82
4025.00,0.82
4024.00,0.82
4023.00,0.82
4022.00,0.82
4021.00,0.82
4020.00,0.82
4019.00,0.82
4018.00,0.82
4017.00,0.82
4016.00,0.82
4015.00,0.82
4014.00,0.82
4013.00,0.82
4012.00,0.82
4011.00,0.82
4010.00,0.82
4009.00,0.82
4008.00,0.82
4007.00,0.82
4006.00,0.82
4005.00,0.82
4004.00,0.82
4003.00,0.82
4002.00,0.83
4001.00,0.83
4000.00,0.83
