创建为新数据集,样品 766 用户 Administrator 日期 星期五, 七月 20 2018
cm-1,%T
10000.00,0.75
9999.00,0.75
9998.00,0.75
9997.00,0.75
9996.00,0.75
9995.00,0.75
9994.00,0.75
9993.00,0.75
9992.00,0.75
9991.00,0.75
9990.00,0.75
9989.00,0.75
9988.00,0.75
9987.00,0.75
9986.00,0.75
9985.00,0.75
9984.00,0.75
9983.00,0.75
9982.00,0.75
9981.00,0.75
9980.00,0.75
9979.00,0.75
9978.00,0.74
9977.00,0.74
9976.00,0.74
9975.00,0.74
9974.00,0.74
9973.00,0.74
9972.00,0.73
9971.00,0.73
9970.00,0.73
9969.00,0.73
9968.00,0.73
9967.00,0.73
9966.00,0.73
9965.00,0.73
9964.00,0.74
9963.00,0.74
9962.00,0.74
9961.00,0.74
9960.00,0.74
9959.00,0.74
9958.00,0.75
9957.00,0.75
9956.00,0.75
9955.00,0.75
9954.00,0.75
9953.00,0.75
9952.00,0.75
9951.00,0.75
9950.00,0.75
9949.00,0.75
9948.00,0.75
9947.00,0.75
9946.00,0.75
9945.00,0.75
9944.00,0.74
9943.00,0.74
9942.00,0.74
9941.00,0.74
9940.00,0.75
9939.00,0.75
9938.00,0.75
9937.00,0.75
9936.00,0.75
9935.00,0.75
9934.00,0.76
9933.00,0.76
9932.00,0.76
9931.00,0.77
9930.00,0.77
9929.00,0.77
9928.00,0.78
9927.00,0.78
9926.00,0.78
9925.00,0.78
9924.00,0.78
9923.00,0.78
9922.00,0.78
9921.00,0.78
9920.00,0.78
9919.00,0.77
9918.00,0.77
9917.00,0.77
9916.00,0.76
9915.00,0.76
9914.00,0.76
9913.00,0.75
9912.00,0.75
9911.00,0.74
9910.00,0.74
9909.00,0.74
9908.00,0.74
9907.00,0.73
9906.00,0.73
9905.00,0.73
9904.00,0.73
9903.00,0.73
9902.00,0.73
9901.00,0.73
9900.00,0.73
9899.00,0.73
9898.00,0.73
9897.00,0.73
9896.00,0.73
9895.00,0.73
9894.00,0.73
9893.00,0.73
9892.00,0.73
9891.00,0.72
9890.00,0.72
9889.00,0.72
9888.00,0.72
9887.00,0.72
9886.00,0.72
9885.00,0.72
9884.00,0.72
9883.00,0.72
9882.00,0.72
9881.00,0.72
9880.00,0.72
9879.00,0.72
9878.00,0.72
9877.00,0.72
9876.00,0.73
9875.00,0.73
9874.00,0.73
9873.00,0.73
9872.00,0.73
9871.00,0.73
9870.00,0.74
9869.00,0.74
9868.00,0.74
9867.00,0.73
9866.00,0.73
9865.00,0.73
9864.00,0.73
9863.00,0.73
9862.00,0.73
9861.00,0.72
9860.00,0.72
9859.00,0.72
9858.00,0.72
9857.00,0.71
9856.00,0.71
9855.00,0.71
9854.00,0.71
9853.00,0.71
9852.00,0.71
9851.00,0.71
9850.00,0.71
9849.00,0.71
9848.00,0.71
9847.00,0.71
9846.00,0.72
9845.00,0.72
9844.00,0.72
9843.00,0.72
9842.00,0.72
9841.00,0.72
9840.00,0.72
9839.00,0.72
9838.00,0.72
9837.00,0.72
9836.00,0.72
9835.00,0.71
9834.00,0.71
9833.00,0.71
9832.00,0.71
9831.00,0.70
9830.00,0.70
9829.00,0.70
9828.00,0.70
9827.00,0.70
9826.00,0.69
9825.00,0.69
9824.00,0.69
9823.00,0.69
9822.00,0.69
9821.00,0.69
9820.00,0.69
9819.00,0.69
9818.00,0.69
9817.00,0.70
9816.00,0.70
9815.00,0.70
9814.00,0.70
9813.00,0.70
9812.00,0.70
9811.00,0.71
9810.00,0.71
9809.00,0.71
9808.00,0.71
9807.00,0.71
9806.00,0.71
9805.00,0.71
9804.00,0.71
9803.00,0.71
9802.00,0.71
9801.00,0.71
9800.00,0.70
9799.00,0.70
9798.00,0.70
9797.00,0.70
9796.00,0.70
9795.00,0.70
9794.00,0.69
9793.00,0.69
9792.00,0.69
9791.00,0.69
9790.00,0.69
9789.00,0.69
9788.00,0.70
9787.00,0.70
9786.00,0.70
9785.00,0.70
9784.00,0.71
9783.00,0.71
9782.00,0.71
9781.00,0.72
9780.00,0.72
9779.00,0.72
9778.00,0.73
9777.00,0.73
9776.00,0.73
9775.00,0.73
9774.00,0.74
9773.00,0.74
9772.00,0.74
9771.00,0.74
9770.00,0.74
9769.00,0.74
9768.00,0.75
9767.00,0.75
9766.00,0.75
9765.00,0.75
9764.00,0.75
9763.00,0.75
9762.00,0.75
9761.00,0.75
9760.00,0.75
9759.00,0.75
9758.00,0.75
9757.00,0.75
9756.00,0.75
9755.00,0.75
9754.00,0.75
9753.00,0.75
9752.00,0.75
9751.00,0.75
9750.00,0.75
9749.00,0.75
9748.00,0.74
9747.00,0.74
9746.00,0.74
9745.00,0.74
9744.00,0.74
9743.00,0.73
9742.00,0.73
9741.00,0.73
9740.00,0.72
9739.00,0.72
9738.00,0.72
9737.00,0.72
9736.00,0.71
9735.00,0.71
9734.00,0.71
9733.00,0.70
9732.00,0.70
9731.00,0.70
9730.00,0.69
9729.00,0.69
9728.00,0.69
9727.00,0.69
9726.00,0.69
9725.00,0.69
9724.00,0.69
9723.00,0.69
9722.00,0.69
9721.00,0.69
9720.00,0.69
9719.00,0.69
9718.00,0.69
9717.00,0.70
9716.00,0.70
9715.00,0.70
9714.00,0.70
9713.00,0.70
9712.00,0.70
9711.00,0.71
9710.00,0.71
9709.00,0.71
9708.00,0.71
9707.00,0.71
9706.00,0.71
9705.00,0.71
9704.00,0.71
9703.00,0.71
9702.00,0.71
9701.00,0.71
9700.00,0.71
9699.00,0.71
9698.00,0.71
9697.00,0.71
9696.00,0.71
9695.00,0.71
9694.00,0.71
9693.00,0.71
9692.00,0.71
9691.00,0.71
9690.00,0.71
9689.00,0.71
9688.00,0.70
9687.00,0.70
9686.00,0.70
9685.00,0.70
9684.00,0.70
9683.00,0.70
9682.00,0.70
9681.00,0.70
9680.00,0.70
9679.00,0.70
9678.00,0.70
9677.00,0.70
9676.00,0.70
9675.00,0.70
9674.00,0.70
9673.00,0.70
9672.00,0.70
9671.00,0.70
9670.00,0.70
9669.00,0.70
9668.00,0.70
9667.00,0.70
9666.00,0.70
9665.00,0.70
9664.00,0.70
9663.00,0.70
9662.00,0.70
9661.00,0.70
9660.00,0.70
9659.00,0.70
9658.00,0.70
9657.00,0.70
9656.00,0.70
9655.00,0.70
9654.00,0.70
9653.00,0.70
9652.00,0.70
9651.00,0.70
9650.00,0.70
9649.00,0.70
9648.00,0.70
9647.00,0.70
9646.00,0.70
9645.00,0.70
9644.00,0.70
9643.00,0.70
9642.00,0.70
9641.00,0.71
9640.00,0.71
9639.00,0.71
9638.00,0.71
9637.00,0.71
9636.00,0.71
9635.00,0.71
9634.00,0.71
9633.00,0.71
9632.00,0.71
9631.00,0.71
9630.00,0.71
9629.00,0.71
9628.00,0.71
9627.00,0.71
9626.00,0.71
9625.00,0.71
9624.00,0.71
9623.00,0.71
9622.00,0.71
9621.00,0.71
9620.00,0.71
9619.00,0.71
9618.00,0.71
9617.00,0.71
9616.00,0.71
9615.00,0.71
9614.00,0.71
9613.00,0.71
9612.00,0.72
9611.00,0.72
9610.00,0.72
9609.00,0.72
9608.00,0.72
9607.00,0.72
9606.00,0.72
9605.00,0.72
9604.00,0.73
9603.00,0.73
9602.00,0.73
9601.00,0.73
9600.00,0.73
9599.00,0.73
9598.00,0.73
9597.00,0.73
9596.00,0.73
9595.00,0.73
9594.00,0.73
9593.00,0.73
9592.00,0.73
9591.00,0.73
9590.00,0.73
9589.00,0.72
9588.00,0.72
9587.00,0.72
9586.00,0.71
9585.00,0.71
9584.00,0.71
9583.00,0.71
9582.00,0.70
9581.00,0.70
9580.00,0.70
9579.00,0.70
9578.00,0.70
9577.00,0.70
9576.00,0.70
9575.00,0.70
9574.00,0.70
9573.00,0.70
9572.00,0.70
9571.00,0.71
9570.00,0.71
9569.00,0.71
9568.00,0.71
9567.00,0.72
9566.00,0.72
9565.00,0.72
9564.00,0.72
9563.00,0.72
9562.00,0.73
9561.00,0.73
9560.00,0.73
9559.00,0.73
9558.00,0.73
9557.00,0.73
9556.00,0.73
9555.00,0.73
9554.00,0.73
9553.00,0.73
9552.00,0.72
9551.00,0.72
9550.00,0.72
9549.00,0.72
9548.00,0.72
9547.00,0.72
9546.00,0.71
9545.00,0.71
9544.00,0.71
9543.00,0.71
9542.00,0.71
9541.00,0.70
9540.00,0.70
9539.00,0.70
9538.00,0.70
9537.00,0.70
9536.00,0.70
9535.00,0.69
9534.00,0.69
9533.00,0.69
9532.00,0.69
9531.00,0.69
9530.00,0.69
9529.00,0.69
9528.00,0.69
9527.00,0.70
9526.00,0.70
9525.00,0.70
9524.00,0.70
9523.00,0.70
9522.00,0.71
9521.00,0.71
9520.00,0.71
9519.00,0.71
9518.00,0.72
9517.00,0.72
9516.00,0.72
9515.00,0.72
9514.00,0.73
9513.00,0.73
9512.00,0.73
9511.00,0.73
9510.00,0.73
9509.00,0.74
9508.00,0.74
9507.00,0.74
9506.00,0.74
9505.00,0.74
9504.00,0.74
9503.00,0.74
9502.00,0.75
9501.00,0.75
9500.00,0.75
9499.00,0.75
9498.00,0.75
9497.00,0.75
9496.00,0.75
9495.00,0.75
9494.00,0.75
9493.00,0.75
9492.00,0.75
9491.00,0.75
9490.00,0.75
9489.00,0.75
9488.00,0.75
9487.00,0.75
9486.00,0.74
9485.00,0.74
9484.00,0.74
9483.00,0.74
9482.00,0.74
9481.00,0.74
9480.00,0.74
9479.00,0.74
9478.00,0.74
9477.00,0.74
9476.00,0.74
9475.00,0.74
9474.00,0.74
9473.00,0.74
9472.00,0.74
9471.00,0.74
9470.00,0.74
9469.00,0.73
9468.00,0.73
9467.00,0.73
9466.00,0.73
9465.00,0.73
9464.00,0.73
9463.00,0.73
9462.00,0.73
9461.00,0.73
9460.00,0.73
9459.00,0.73
9458.00,0.73
9457.00,0.73
9456.00,0.73
9455.00,0.73
9454.00,0.73
9453.00,0.73
9452.00,0.74
9451.00,0.74
9450.00,0.74
9449.00,0.74
9448.00,0.74
9447.00,0.74
9446.00,0.74
9445.00,0.74
9444.00,0.74
9443.00,0.74
9442.00,0.74
9441.00,0.75
9440.00,0.75
9439.00,0.74
9438.00,0.74
9437.00,0.74
9436.00,0.74
9435.00,0.74
9434.00,0.74
9433.00,0.74
9432.00,0.74
9431.00,0.74
9430.00,0.73
9429.00,0.73
9428.00,0.73
9427.00,0.73
9426.00,0.73
9425.00,0.73
9424.00,0.73
9423.00,0.73
9422.00,0.73
9421.00,0.73
9420.00,0.73
9419.00,0.73
9418.00,0.73
9417.00,0.73
9416.00,0.73
9415.00,0.73
9414.00,0.72
9413.00,0.72
9412.00,0.72
9411.00,0.72
9410.00,0.72
9409.00,0.72
9408.00,0.72
9407.00,0.71
9406.00,0.71
9405.00,0.71
9404.00,0.71
9403.00,0.70
9402.00,0.70
9401.00,0.70
9400.00,0.70
9399.00,0.70
9398.00,0.69
9397.00,0.69
9396.00,0.69
9395.00,0.69
9394.00,0.69
9393.00,0.69
9392.00,0.69
9391.00,0.69
9390.00,0.70
9389.00,0.70
9388.00,0.70
9387.00,0.70
9386.00,0.70
9385.00,0.70
9384.00,0.71
9383.00,0.71
9382.00,0.71
9381.00,0.71
9380.00,0.71
9379.00,0.71
9378.00,0.72
9377.00,0.72
9376.00,0.72
9375.00,0.72
9374.00,0.72
9373.00,0.72
9372.00,0.72
9371.00,0.72
9370.00,0.72
9369.00,0.72
9368.00,0.72
9367.00,0.72
9366.00,0.72
9365.00,0.72
9364.00,0.72
9363.00,0.72
9362.00,0.72
9361.00,0.72
9360.00,0.71
9359.00,0.71
9358.00,0.71
9357.00,0.71
9356.00,0.71
9355.00,0.71
9354.00,0.71
9353.00,0.71
9352.00,0.71
9351.00,0.71
9350.00,0.71
9349.00,0.71
9348.00,0.71
9347.00,0.71
9346.00,0.71
9345.00,0.71
9344.00,0.72
9343.00,0.72
9342.00,0.72
9341.00,0.72
9340.00,0.72
9339.00,0.72
9338.00,0.72
9337.00,0.72
9336.00,0.72
9335.00,0.72
9334.00,0.71
9333.00,0.71
9332.00,0.71
9331.00,0.71
9330.00,0.71
9329.00,0.71
9328.00,0.71
9327.00,0.71
9326.00,0.71
9325.00,0.71
9324.00,0.70
9323.00,0.70
9322.00,0.70
9321.00,0.70
9320.00,0.70
9319.00,0.70
9318.00,0.70
9317.00,0.70
9316.00,0.71
9315.00,0.71
9314.00,0.71
9313.00,0.71
9312.00,0.71
9311.00,0.71
9310.00,0.71
9309.00,0.71
9308.00,0.72
9307.00,0.72
9306.00,0.72
9305.00,0.72
9304.00,0.72
9303.00,0.72
9302.00,0.72
9301.00,0.72
9300.00,0.72
9299.00,0.72
9298.00,0.72
9297.00,0.72
9296.00,0.72
9295.00,0.72
9294.00,0.72
9293.00,0.72
9292.00,0.72
9291.00,0.72
9290.00,0.72
9289.00,0.72
9288.00,0.72
9287.00,0.71
9286.00,0.71
9285.00,0.71
9284.00,0.71
9283.00,0.71
9282.00,0.71
9281.00,0.71
9280.00,0.71
9279.00,0.71
9278.00,0.71
9277.00,0.71
9276.00,0.71
9275.00,0.71
9274.00,0.71
9273.00,0.71
9272.00,0.71
9271.00,0.71
9270.00,0.71
9269.00,0.71
9268.00,0.72
9267.00,0.72
9266.00,0.72
9265.00,0.72
9264.00,0.72
9263.00,0.73
9262.00,0.73
9261.00,0.73
9260.00,0.73
9259.00,0.73
9258.00,0.73
9257.00,0.74
9256.00,0.74
9255.00,0.74
9254.00,0.74
9253.00,0.74
9252.00,0.74
9251.00,0.75
9250.00,0.75
9249.00,0.75
9248.00,0.75
9247.00,0.75
9246.00,0.75
9245.00,0.75
9244.00,0.75
9243.00,0.75
9242.00,0.75
9241.00,0.75
9240.00,0.75
9239.00,0.75
9238.00,0.74
9237.00,0.74
9236.00,0.74
9235.00,0.74
9234.00,0.74
9233.00,0.73
9232.00,0.73
9231.00,0.73
9230.00,0.73
9229.00,0.73
9228.00,0.72
9227.00,0.72
9226.00,0.72
9225.00,0.72
9224.00,0.72
9223.00,0.72
9222.00,0.72
9221.00,0.72
9220.00,0.72
9219.00,0.72
9218.00,0.72
9217.00,0.71
9216.00,0.71
9215.00,0.71
9214.00,0.71
9213.00,0.71
9212.00,0.71
9211.00,0.71
9210.00,0.71
9209.00,0.71
9208.00,0.71
9207.00,0.71
9206.00,0.71
9205.00,0.71
9204.00,0.71
9203.00,0.71
9202.00,0.71
9201.00,0.71
9200.00,0.71
9199.00,0.71
9198.00,0.71
9197.00,0.71
9196.00,0.71
9195.00,0.71
9194.00,0.71
9193.00,0.71
9192.00,0.71
9191.00,0.71
9190.00,0.72
9189.00,0.72
9188.00,0.72
9187.00,0.73
9186.00,0.73
9185.00,0.73
9184.00,0.74
9183.00,0.74
9182.00,0.74
9181.00,0.75
9180.00,0.75
9179.00,0.75
9178.00,0.75
9177.00,0.75
9176.00,0.76
9175.00,0.76
9174.00,0.76
9173.00,0.75
9172.00,0.75
9171.00,0.75
9170.00,0.75
9169.00,0.75
9168.00,0.74
9167.00,0.74
9166.00,0.74
9165.00,0.73
9164.00,0.73
9163.00,0.73
9162.00,0.72
9161.00,0.72
9160.00,0.72
9159.00,0.72
9158.00,0.72
9157.00,0.71
9156.00,0.71
9155.00,0.72
9154.00,0.72
9153.00,0.72
9152.00,0.72
9151.00,0.72
9150.00,0.72
9149.00,0.73
9148.00,0.73
9147.00,0.73
9146.00,0.73
9145.00,0.73
9144.00,0.74
9143.00,0.74
9142.00,0.74
9141.00,0.74
9140.00,0.74
9139.00,0.74
9138.00,0.74
9137.00,0.74
9136.00,0.74
9135.00,0.74
9134.00,0.74
9133.00,0.74
9132.00,0.74
9131.00,0.74
9130.00,0.74
9129.00,0.74
9128.00,0.74
9127.00,0.74
9126.00,0.74
9125.00,0.74
9124.00,0.74
9123.00,0.74
9122.00,0.74
9121.00,0.74
9120.00,0.74
9119.00,0.74
9118.00,0.74
9117.00,0.74
9116.00,0.74
9115.00,0.74
9114.00,0.75
9113.00,0.75
9112.00,0.75
9111.00,0.75
9110.00,0.75
9109.00,0.75
9108.00,0.75
9107.00,0.75
9106.00,0.75
9105.00,0.75
9104.00,0.75
9103.00,0.75
9102.00,0.75
9101.00,0.75
9100.00,0.75
9099.00,0.74
9098.00,0.74
9097.00,0.74
9096.00,0.74
9095.00,0.74
9094.00,0.74
9093.00,0.73
9092.00,0.73
9091.00,0.73
9090.00,0.73
9089.00,0.73
9088.00,0.73
9087.00,0.73
9086.00,0.73
9085.00,0.73
9084.00,0.73
9083.00,0.73
9082.00,0.73
9081.00,0.73
9080.00,0.73
9079.00,0.73
9078.00,0.73
9077.00,0.74
9076.00,0.74
9075.00,0.74
9074.00,0.74
9073.00,0.74
9072.00,0.74
9071.00,0.74
9070.00,0.74
9069.00,0.74
9068.00,0.75
9067.00,0.75
9066.00,0.75
9065.00,0.75
9064.00,0.75
9063.00,0.74
9062.00,0.74
9061.00,0.74
9060.00,0.74
9059.00,0.74
9058.00,0.74
9057.00,0.74
9056.00,0.74
9055.00,0.74
9054.00,0.73
9053.00,0.73
9052.00,0.73
9051.00,0.73
9050.00,0.73
9049.00,0.73
9048.00,0.73
9047.00,0.73
9046.00,0.73
9045.00,0.73
9044.00,0.73
9043.00,0.73
9042.00,0.73
9041.00,0.73
9040.00,0.73
9039.00,0.73
9038.00,0.73
9037.00,0.73
9036.00,0.73
9035.00,0.74
9034.00,0.74
9033.00,0.74
9032.00,0.74
9031.00,0.74
9030.00,0.74
9029.00,0.74
9028.00,0.74
9027.00,0.74
9026.00,0.74
9025.00,0.74
9024.00,0.74
9023.00,0.74
9022.00,0.74
9021.00,0.74
9020.00,0.73
9019.00,0.73
9018.00,0.73
9017.00,0.73
9016.00,0.73
9015.00,0.73
9014.00,0.73
9013.00,0.73
9012.00,0.73
9011.00,0.73
9010.00,0.73
9009.00,0.73
9008.00,0.73
9007.00,0.73
9006.00,0.72
9005.00,0.72
9004.00,0.72
9003.00,0.72
9002.00,0.72
9001.00,0.72
9000.00,0.72
8999.00,0.72
8998.00,0.72
8997.00,0.72
8996.00,0.72
8995.00,0.72
8994.00,0.72
8993.00,0.72
8992.00,0.72
8991.00,0.72
8990.00,0.73
8989.00,0.73
8988.00,0.73
8987.00,0.73
8986.00,0.73
8985.00,0.73
8984.00,0.73
8983.00,0.74
8982.00,0.74
8981.00,0.74
8980.00,0.74
8979.00,0.74
8978.00,0.74
8977.00,0.75
8976.00,0.75
8975.00,0.75
8974.00,0.75
8973.00,0.75
8972.00,0.75
8971.00,0.75
8970.00,0.75
8969.00,0.75
8968.00,0.75
8967.00,0.75
8966.00,0.75
8965.00,0.74
8964.00,0.74
8963.00,0.74
8962.00,0.74
8961.00,0.74
8960.00,0.74
8959.00,0.74
8958.00,0.74
8957.00,0.73
8956.00,0.73
8955.00,0.73
8954.00,0.73
8953.00,0.73
8952.00,0.73
8951.00,0.73
8950.00,0.73
8949.00,0.73
8948.00,0.72
8947.00,0.72
8946.00,0.72
8945.00,0.72
8944.00,0.72
8943.00,0.72
8942.00,0.72
8941.00,0.72
8940.00,0.73
8939.00,0.73
8938.00,0.73
8937.00,0.73
8936.00,0.73
8935.00,0.73
8934.00,0.73
8933.00,0.73
8932.00,0.73
8931.00,0.73
8930.00,0.73
8929.00,0.73
8928.00,0.73
8927.00,0.73
8926.00,0.73
8925.00,0.73
8924.00,0.73
8923.00,0.73
8922.00,0.73
8921.00,0.73
8920.00,0.73
8919.00,0.73
8918.00,0.74
8917.00,0.74
8916.00,0.74
8915.00,0.74
8914.00,0.74
8913.00,0.74
8912.00,0.74
8911.00,0.74
8910.00,0.74
8909.00,0.74
8908.00,0.74
8907.00,0.74
8906.00,0.74
8905.00,0.74
8904.00,0.74
8903.00,0.74
8902.00,0.74
8901.00,0.74
8900.00,0.74
8899.00,0.74
8898.00,0.74
8897.00,0.74
8896.00,0.74
8895.00,0.74
8894.00,0.74
8893.00,0.74
8892.00,0.74
8891.00,0.74
8890.00,0.74
8889.00,0.74
8888.00,0.74
8887.00,0.74
8886.00,0.74
8885.00,0.74
8884.00,0.74
8883.00,0.74
8882.00,0.74
8881.00,0.74
8880.00,0.74
8879.00,0.74
8878.00,0.74
8877.00,0.75
8876.00,0.75
8875.00,0.75
8874.00,0.75
8873.00,0.75
8872.00,0.75
8871.00,0.75
8870.00,0.75
8869.00,0.75
8868.00,0.75
8867.00,0.75
8866.00,0.75
8865.00,0.74
8864.00,0.74
8863.00,0.74
8862.00,0.74
8861.00,0.74
8860.00,0.74
8859.00,0.74
8858.00,0.74
8857.00,0.74
8856.00,0.74
8855.00,0.74
8854.00,0.74
8853.00,0.74
8852.00,0.74
8851.00,0.74
8850.00,0.74
8849.00,0.74
8848.00,0.74
8847.00,0.74
8846.00,0.74
8845.00,0.74
8844.00,0.74
8843.00,0.74
8842.00,0.74
8841.00,0.74
8840.00,0.74
8839.00,0.74
8838.00,0.74
8837.00,0.74
8836.00,0.74
8835.00,0.74
8834.00,0.74
8833.00,0.74
8832.00,0.74
8831.00,0.73
8830.00,0.73
8829.00,0.73
8828.00,0.73
8827.00,0.73
8826.00,0.73
8825.00,0.73
8824.00,0.73
8823.00,0.73
8822.00,0.73
8821.00,0.72
8820.00,0.72
8819.00,0.72
8818.00,0.72
8817.00,0.72
8816.00,0.72
8815.00,0.72
8814.00,0.72
8813.00,0.72
8812.00,0.72
8811.00,0.72
8810.00,0.72
8809.00,0.73
8808.00,0.73
8807.00,0.73
8806.00,0.73
8805.00,0.73
8804.00,0.73
8803.00,0.73
8802.00,0.73
8801.00,0.73
8800.00,0.73
8799.00,0.73
8798.00,0.73
8797.00,0.73
8796.00,0.73
8795.00,0.73
8794.00,0.73
8793.00,0.73
8792.00,0.73
8791.00,0.73
8790.00,0.73
8789.00,0.73
8788.00,0.73
8787.00,0.73
8786.00,0.73
8785.00,0.73
8784.00,0.73
8783.00,0.73
8782.00,0.73
8781.00,0.73
8780.00,0.73
8779.00,0.73
8778.00,0.73
8777.00,0.73
8776.00,0.73
8775.00,0.72
8774.00,0.72
8773.00,0.72
8772.00,0.72
8771.00,0.72
8770.00,0.72
8769.00,0.72
8768.00,0.72
8767.00,0.71
8766.00,0.71
8765.00,0.71
8764.00,0.71
8763.00,0.71
8762.00,0.71
8761.00,0.71
8760.00,0.71
8759.00,0.71
8758.00,0.71
8757.00,0.71
8756.00,0.71
8755.00,0.71
8754.00,0.71
8753.00,0.71
8752.00,0.71
8751.00,0.71
8750.00,0.71
8749.00,0.71
8748.00,0.71
8747.00,0.71
8746.00,0.70
8745.00,0.70
8744.00,0.70
8743.00,0.70
8742.00,0.70
8741.00,0.70
8740.00,0.70
8739.00,0.70
8738.00,0.70
8737.00,0.70
8736.00,0.70
8735.00,0.70
8734.00,0.70
8733.00,0.70
8732.00,0.70
8731.00,0.70
8730.00,0.70
8729.00,0.70
8728.00,0.70
8727.00,0.70
8726.00,0.70
8725.00,0.70
8724.00,0.70
8723.00,0.70
8722.00,0.70
8721.00,0.70
8720.00,0.70
8719.00,0.70
8718.00,0.70
8717.00,0.70
8716.00,0.70
8715.00,0.70
8714.00,0.70
8713.00,0.70
8712.00,0.70
8711.00,0.70
8710.00,0.70
8709.00,0.70
8708.00,0.69
8707.00,0.69
8706.00,0.69
8705.00,0.69
8704.00,0.69
8703.00,0.69
8702.00,0.69
8701.00,0.69
8700.00,0.69
8699.00,0.69
8698.00,0.69
8697.00,0.69
8696.00,0.69
8695.00,0.69
8694.00,0.70
8693.00,0.70
8692.00,0.70
8691.00,0.70
8690.00,0.70
8689.00,0.70
8688.00,0.70
8687.00,0.71
8686.00,0.71
8685.00,0.71
8684.00,0.71
8683.00,0.71
8682.00,0.71
8681.00,0.71
8680.00,0.71
8679.00,0.71
8678.00,0.71
8677.00,0.71
8676.00,0.70
8675.00,0.70
8674.00,0.70
8673.00,0.70
8672.00,0.70
8671.00,0.70
8670.00,0.70
8669.00,0.69
8668.00,0.69
8667.00,0.69
8666.00,0.69
8665.00,0.69
8664.00,0.69
8663.00,0.69
8662.00,0.69
8661.00,0.69
8660.00,0.69
8659.00,0.69
8658.00,0.69
8657.00,0.69
8656.00,0.69
8655.00,0.69
8654.00,0.69
8653.00,0.69
8652.00,0.69
8651.00,0.69
8650.00,0.69
8649.00,0.69
8648.00,0.69
8647.00,0.69
8646.00,0.68
8645.00,0.68
8644.00,0.68
8643.00,0.68
8642.00,0.68
8641.00,0.68
8640.00,0.68
8639.00,0.68
8638.00,0.68
8637.00,0.68
8636.00,0.68
8635.00,0.68
8634.00,0.68
8633.00,0.69
8632.00,0.69
8631.00,0.69
8630.00,0.69
8629.00,0.69
8628.00,0.69
8627.00,0.70
8626.00,0.70
8625.00,0.70
8624.00,0.70
8623.00,0.70
8622.00,0.70
8621.00,0.70
8620.00,0.70
8619.00,0.70
8618.00,0.70
8617.00,0.70
8616.00,0.70
8615.00,0.70
8614.00,0.70
8613.00,0.70
8612.00,0.70
8611.00,0.70
8610.00,0.70
8609.00,0.70
8608.00,0.69
8607.00,0.69
8606.00,0.69
8605.00,0.69
8604.00,0.69
8603.00,0.69
8602.00,0.69
8601.00,0.69
8600.00,0.69
8599.00,0.69
8598.00,0.69
8597.00,0.68
8596.00,0.68
8595.00,0.68
8594.00,0.68
8593.00,0.68
8592.00,0.68
8591.00,0.68
8590.00,0.68
8589.00,0.68
8588.00,0.68
8587.00,0.68
8586.00,0.68
8585.00,0.68
8584.00,0.68
8583.00,0.68
8582.00,0.68
8581.00,0.68
8580.00,0.69
8579.00,0.69
8578.00,0.69
8577.00,0.69
8576.00,0.69
8575.00,0.69
8574.00,0.69
8573.00,0.69
8572.00,0.69
8571.00,0.69
8570.00,0.69
8569.00,0.69
8568.00,0.69
8567.00,0.69
8566.00,0.69
8565.00,0.69
8564.00,0.68
8563.00,0.68
8562.00,0.68
8561.00,0.68
8560.00,0.68
8559.00,0.68
8558.00,0.68
8557.00,0.68
8556.00,0.67
8555.00,0.67
8554.00,0.67
8553.00,0.67
8552.00,0.67
8551.00,0.67
8550.00,0.67
8549.00,0.67
8548.00,0.67
8547.00,0.67
8546.00,0.67
8545.00,0.67
8544.00,0.67
8543.00,0.67
8542.00,0.67
8541.00,0.67
8540.00,0.67
8539.00,0.67
8538.00,0.67
8537.00,0.66
8536.00,0.66
8535.00,0.66
8534.00,0.66
8533.00,0.66
8532.00,0.66
8531.00,0.66
8530.00,0.65
8529.00,0.65
8528.00,0.65
8527.00,0.65
8526.00,0.65
8525.00,0.65
8524.00,0.65
8523.00,0.65
8522.00,0.65
8521.00,0.65
8520.00,0.65
8519.00,0.65
8518.00,0.65
8517.00,0.65
8516.00,0.65
8515.00,0.65
8514.00,0.65
8513.00,0.65
8512.00,0.65
8511.00,0.65
8510.00,0.65
8509.00,0.65
8508.00,0.65
8507.00,0.65
8506.00,0.66
8505.00,0.66
8504.00,0.66
8503.00,0.66
8502.00,0.66
8501.00,0.66
8500.00,0.66
8499.00,0.66
8498.00,0.66
8497.00,0.65
8496.00,0.65
8495.00,0.65
8494.00,0.65
8493.00,0.65
8492.00,0.65
8491.00,0.65
8490.00,0.65
8489.00,0.65
8488.00,0.65
8487.00,0.65
8486.00,0.65
8485.00,0.65
8484.00,0.65
8483.00,0.65
8482.00,0.64
8481.00,0.64
8480.00,0.64
8479.00,0.64
8478.00,0.64
8477.00,0.64
8476.00,0.64
8475.00,0.64
8474.00,0.64
8473.00,0.64
8472.00,0.64
8471.00,0.64
8470.00,0.64
8469.00,0.64
8468.00,0.64
8467.00,0.64
8466.00,0.64
8465.00,0.64
8464.00,0.64
8463.00,0.64
8462.00,0.64
8461.00,0.64
8460.00,0.64
8459.00,0.64
8458.00,0.64
8457.00,0.64
8456.00,0.64
8455.00,0.64
8454.00,0.64
8453.00,0.64
8452.00,0.64
8451.00,0.64
8450.00,0.64
8449.00,0.64
8448.00,0.64
8447.00,0.64
8446.00,0.64
8445.00,0.64
8444.00,0.64
8443.00,0.64
8442.00,0.63
8441.00,0.63
8440.00,0.63
8439.00,0.63
8438.00,0.63
8437.00,0.63
8436.00,0.63
8435.00,0.63
8434.00,0.63
8433.00,0.63
8432.00,0.63
8431.00,0.63
8430.00,0.63
8429.00,0.63
8428.00,0.63
8427.00,0.63
8426.00,0.63
8425.00,0.63
8424.00,0.63
8423.00,0.63
8422.00,0.63
8421.00,0.63
8420.00,0.64
8419.00,0.64
8418.00,0.64
8417.00,0.64
8416.00,0.64
8415.00,0.64
8414.00,0.64
8413.00,0.64
8412.00,0.65
8411.00,0.65
8410.00,0.65
8409.00,0.65
8408.00,0.65
8407.00,0.65
8406.00,0.65
8405.00,0.65
8404.00,0.65
8403.00,0.65
8402.00,0.65
8401.00,0.65
8400.00,0.65
8399.00,0.65
8398.00,0.65
8397.00,0.65
8396.00,0.65
8395.00,0.65
8394.00,0.65
8393.00,0.65
8392.00,0.65
8391.00,0.65
8390.00,0.65
8389.00,0.66
8388.00,0.66
8387.00,0.66
8386.00,0.66
8385.00,0.66
8384.00,0.66
8383.00,0.66
8382.00,0.66
8381.00,0.66
8380.00,0.66
8379.00,0.66
8378.00,0.66
8377.00,0.66
8376.00,0.66
8375.00,0.66
8374.00,0.67
8373.00,0.67
8372.00,0.67
8371.00,0.67
8370.00,0.67
8369.00,0.67
8368.00,0.67
8367.00,0.67
8366.00,0.67
8365.00,0.67
8364.00,0.67
8363.00,0.67
8362.00,0.67
8361.00,0.67
8360.00,0.67
8359.00,0.67
8358.00,0.67
8357.00,0.67
8356.00,0.67
8355.00,0.67
8354.00,0.67
8353.00,0.67
8352.00,0.67
8351.00,0.67
8350.00,0.67
8349.00,0.67
8348.00,0.67
8347.00,0.67
8346.00,0.67
8345.00,0.67
8344.00,0.66
8343.00,0.66
8342.00,0.66
8341.00,0.66
8340.00,0.66
8339.00,0.66
8338.00,0.66
8337.00,0.66
8336.00,0.66
8335.00,0.66
8334.00,0.66
8333.00,0.66
8332.00,0.66
8331.00,0.66
8330.00,0.66
8329.00,0.66
8328.00,0.66
8327.00,0.67
8326.00,0.67
8325.00,0.67
8324.00,0.67
8323.00,0.67
8322.00,0.67
8321.00,0.67
8320.00,0.67
8319.00,0.67
8318.00,0.67
8317.00,0.67
8316.00,0.67
8315.00,0.67
8314.00,0.67
8313.00,0.67
8312.00,0.67
8311.00,0.67
8310.00,0.67
8309.00,0.67
8308.00,0.67
8307.00,0.67
8306.00,0.67
8305.00,0.67
8304.00,0.67
8303.00,0.67
8302.00,0.67
8301.00,0.67
8300.00,0.66
8299.00,0.66
8298.00,0.66
8297.00,0.66
8296.00,0.66
8295.00,0.66
8294.00,0.66
8293.00,0.66
8292.00,0.66
8291.00,0.66
8290.00,0.66
8289.00,0.67
8288.00,0.67
8287.00,0.67
8286.00,0.67
8285.00,0.67
8284.00,0.67
8283.00,0.67
8282.00,0.67
8281.00,0.67
8280.00,0.67
8279.00,0.67
8278.00,0.67
8277.00,0.67
8276.00,0.67
8275.00,0.67
8274.00,0.67
8273.00,0.67
8272.00,0.67
8271.00,0.67
8270.00,0.67
8269.00,0.67
8268.00,0.67
8267.00,0.67
8266.00,0.67
8265.00,0.67
8264.00,0.67
8263.00,0.67
8262.00,0.67
8261.00,0.67
8260.00,0.67
8259.00,0.67
8258.00,0.67
8257.00,0.67
8256.00,0.67
8255.00,0.67
8254.00,0.67
8253.00,0.67
8252.00,0.67
8251.00,0.67
8250.00,0.67
8249.00,0.67
8248.00,0.67
8247.00,0.67
8246.00,0.67
8245.00,0.67
8244.00,0.67
8243.00,0.67
8242.00,0.67
8241.00,0.67
8240.00,0.67
8239.00,0.67
8238.00,0.67
8237.00,0.67
8236.00,0.67
8235.00,0.67
8234.00,0.67
8233.00,0.67
8232.00,0.67
8231.00,0.67
8230.00,0.67
8229.00,0.67
8228.00,0.67
8227.00,0.67
8226.00,0.67
8225.00,0.67
8224.00,0.68
8223.00,0.68
8222.00,0.68
8221.00,0.68
8220.00,0.68
8219.00,0.68
8218.00,0.68
8217.00,0.68
8216.00,0.68
8215.00,0.69
8214.00,0.69
8213.00,0.69
8212.00,0.69
8211.00,0.69
8210.00,0.69
8209.00,0.69
8208.00,0.69
8207.00,0.69
8206.00,0.69
8205.00,0.69
8204.00,0.69
8203.00,0.69
8202.00,0.69
8201.00,0.69
8200.00,0.69
8199.00,0.69
8198.00,0.69
8197.00,0.69
8196.00,0.69
8195.00,0.69
8194.00,0.69
8193.00,0.69
8192.00,0.69
8191.00,0.69
8190.00,0.69
8189.00,0.69
8188.00,0.69
8187.00,0.69
8186.00,0.69
8185.00,0.69
8184.00,0.69
8183.00,0.69
8182.00,0.69
8181.00,0.69
8180.00,0.69
8179.00,0.69
8178.00,0.69
8177.00,0.69
8176.00,0.69
8175.00,0.69
8174.00,0.69
8173.00,0.69
8172.00,0.69
8171.00,0.69
8170.00,0.69
8169.00,0.69
8168.00,0.69
8167.00,0.70
8166.00,0.70
8165.00,0.70
8164.00,0.70
8163.00,0.70
8162.00,0.70
8161.00,0.70
8160.00,0.70
8159.00,0.70
8158.00,0.70
8157.00,0.70
8156.00,0.70
8155.00,0.70
8154.00,0.70
8153.00,0.70
8152.00,0.70
8151.00,0.70
8150.00,0.70
8149.00,0.70
8148.00,0.70
8147.00,0.70
8146.00,0.70
8145.00,0.70
8144.00,0.70
8143.00,0.70
8142.00,0.70
8141.00,0.70
8140.00,0.70
8139.00,0.70
8138.00,0.70
8137.00,0.70
8136.00,0.70
8135.00,0.70
8134.00,0.70
8133.00,0.70
8132.00,0.70
8131.00,0.70
8130.00,0.71
8129.00,0.71
8128.00,0.71
8127.00,0.71
8126.00,0.71
8125.00,0.71
8124.00,0.71
8123.00,0.71
8122.00,0.71
8121.00,0.71
8120.00,0.71
8119.00,0.71
8118.00,0.71
8117.00,0.71
8116.00,0.71
8115.00,0.71
8114.00,0.71
8113.00,0.71
8112.00,0.71
8111.00,0.71
8110.00,0.71
8109.00,0.71
8108.00,0.71
8107.00,0.71
8106.00,0.71
8105.00,0.71
8104.00,0.71
8103.00,0.71
8102.00,0.71
8101.00,0.71
8100.00,0.71
8099.00,0.71
8098.00,0.71
8097.00,0.71
8096.00,0.71
8095.00,0.71
8094.00,0.71
8093.00,0.71
8092.00,0.71
8091.00,0.71
8090.00,0.71
8089.00,0.71
8088.00,0.71
8087.00,0.71
8086.00,0.71
8085.00,0.71
8084.00,0.71
8083.00,0.71
8082.00,0.71
8081.00,0.71
8080.00,0.71
8079.00,0.71
8078.00,0.71
8077.00,0.71
8076.00,0.71
8075.00,0.71
8074.00,0.71
8073.00,0.71
8072.00,0.71
8071.00,0.71
8070.00,0.72
8069.00,0.72
8068.00,0.72
8067.00,0.72
8066.00,0.72
8065.00,0.72
8064.00,0.72
8063.00,0.72
8062.00,0.72
8061.00,0.72
8060.00,0.72
8059.00,0.72
8058.00,0.73
8057.00,0.73
8056.00,0.73
8055.00,0.73
8054.00,0.73
8053.00,0.73
8052.00,0.73
8051.00,0.73
8050.00,0.73
8049.00,0.73
8048.00,0.73
8047.00,0.73
8046.00,0.73
8045.00,0.73
8044.00,0.73
8043.00,0.72
8042.00,0.72
8041.00,0.72
8040.00,0.72
8039.00,0.72
8038.00,0.72
8037.00,0.72
8036.00,0.72
8035.00,0.72
8034.00,0.72
8033.00,0.71
8032.00,0.71
8031.00,0.71
8030.00,0.71
8029.00,0.71
8028.00,0.71
8027.00,0.71
8026.00,0.71
8025.00,0.71
8024.00,0.71
8023.00,0.71
8022.00,0.71
8021.00,0.71
8020.00,0.71
8019.00,0.72
8018.00,0.72
8017.00,0.72
8016.00,0.72
8015.00,0.72
8014.00,0.72
8013.00,0.72
8012.00,0.72
8011.00,0.72
8010.00,0.72
8009.00,0.72
8008.00,0.73
8007.00,0.73
8006.00,0.73
8005.00,0.73
8004.00,0.73
8003.00,0.73
8002.00,0.73
8001.00,0.73
8000.00,0.73
7999.00,0.73
7998.00,0.73
7997.00,0.73
7996.00,0.73
7995.00,0.73
7994.00,0.73
7993.00,0.73
7992.00,0.73
7991.00,0.73
7990.00,0.73
7989.00,0.73
7988.00,0.73
7987.00,0.73
7986.00,0.73
7985.00,0.73
7984.00,0.73
7983.00,0.73
7982.00,0.73
7981.00,0.73
7980.00,0.73
7979.00,0.73
7978.00,0.73
7977.00,0.73
7976.00,0.73
7975.00,0.73
7974.00,0.73
7973.00,0.73
7972.00,0.73
7971.00,0.73
7970.00,0.73
7969.00,0.73
7968.00,0.73
7967.00,0.73
7966.00,0.73
7965.00,0.73
7964.00,0.73
7963.00,0.73
7962.00,0.73
7961.00,0.73
7960.00,0.73
7959.00,0.73
7958.00,0.73
7957.00,0.73
7956.00,0.73
7955.00,0.73
7954.00,0.73
7953.00,0.73
7952.00,0.73
7951.00,0.73
7950.00,0.73
7949.00,0.73
7948.00,0.73
7947.00,0.73
7946.00,0.73
7945.00,0.73
7944.00,0.73
7943.00,0.73
7942.00,0.73
7941.00,0.73
7940.00,0.73
7939.00,0.73
7938.00,0.73
7937.00,0.74
7936.00,0.74
7935.00,0.74
7934.00,0.74
7933.00,0.74
7932.00,0.74
7931.00,0.74
7930.00,0.74
7929.00,0.74
7928.00,0.74
7927.00,0.74
7926.00,0.74
7925.00,0.74
7924.00,0.74
7923.00,0.74
7922.00,0.74
7921.00,0.74
7920.00,0.74
7919.00,0.74
7918.00,0.74
7917.00,0.74
7916.00,0.74
7915.00,0.74
7914.00,0.74
7913.00,0.74
7912.00,0.74
7911.00,0.74
7910.00,0.74
7909.00,0.74
7908.00,0.74
7907.00,0.73
7906.00,0.73
7905.00,0.73
7904.00,0.73
7903.00,0.73
7902.00,0.73
7901.00,0.73
7900.00,0.73
7899.00,0.73
7898.00,0.73
7897.00,0.73
7896.00,0.73
7895.00,0.73
7894.00,0.73
7893.00,0.73
7892.00,0.73
7891.00,0.73
7890.00,0.73
7889.00,0.73
7888.00,0.73
7887.00,0.73
7886.00,0.73
7885.00,0.73
7884.00,0.73
7883.00,0.73
7882.00,0.73
7881.00,0.74
7880.00,0.74
7879.00,0.74
7878.00,0.74
7877.00,0.74
7876.00,0.74
7875.00,0.74
7874.00,0.74
7873.00,0.74
7872.00,0.74
7871.00,0.74
7870.00,0.74
7869.00,0.74
7868.00,0.74
7867.00,0.74
7866.00,0.74
7865.00,0.74
7864.00,0.74
7863.00,0.74
7862.00,0.74
7861.00,0.74
7860.00,0.74
7859.00,0.74
7858.00,0.74
7857.00,0.74
7856.00,0.74
7855.00,0.74
7854.00,0.74
7853.00,0.74
7852.00,0.74
7851.00,0.74
7850.00,0.74
7849.00,0.74
7848.00,0.74
7847.00,0.74
7846.00,0.74
7845.00,0.74
7844.00,0.74
7843.00,0.74
7842.00,0.74
7841.00,0.74
7840.00,0.75
7839.00,0.75
7838.00,0.75
7837.00,0.75
7836.00,0.75
7835.00,0.75
7834.00,0.75
7833.00,0.75
7832.00,0.75
7831.00,0.75
7830.00,0.75
7829.00,0.75
7828.00,0.75
7827.00,0.75
7826.00,0.75
7825.00,0.75
7824.00,0.75
7823.00,0.75
7822.00,0.75
7821.00,0.75
7820.00,0.75
7819.00,0.75
7818.00,0.75
7817.00,0.75
7816.00,0.75
7815.00,0.75
7814.00,0.75
7813.00,0.75
7812.00,0.75
7811.00,0.75
7810.00,0.75
7809.00,0.75
7808.00,0.75
7807.00,0.75
7806.00,0.75
7805.00,0.75
7804.00,0.75
7803.00,0.75
7802.00,0.75
7801.00,0.75
7800.00,0.74
7799.00,0.74
7798.00,0.74
7797.00,0.75
7796.00,0.75
7795.00,0.75
7794.00,0.75
7793.00,0.75
7792.00,0.75
7791.00,0.75
7790.00,0.75
7789.00,0.75
7788.00,0.75
7787.00,0.75
7786.00,0.75
7785.00,0.75
7784.00,0.75
7783.00,0.75
7782.00,0.75
7781.00,0.75
7780.00,0.75
7779.00,0.75
7778.00,0.75
7777.00,0.75
7776.00,0.75
7775.00,0.75
7774.00,0.75
7773.00,0.75
7772.00,0.75
7771.00,0.75
7770.00,0.75
7769.00,0.75
7768.00,0.75
7767.00,0.75
7766.00,0.75
7765.00,0.75
7764.00,0.75
7763.00,0.75
7762.00,0.75
7761.00,0.75
7760.00,0.75
7759.00,0.74
7758.00,0.74
7757.00,0.74
7756.00,0.74
7755.00,0.74
7754.00,0.74
7753.00,0.74
7752.00,0.74
7751.00,0.74
7750.00,0.74
7749.00,0.74
7748.00,0.74
7747.00,0.74
7746.00,0.74
7745.00,0.74
7744.00,0.74
7743.00,0.74
7742.00,0.75
7741.00,0.75
7740.00,0.75
7739.00,0.75
7738.00,0.75
7737.00,0.75
7736.00,0.75
7735.00,0.75
7734.00,0.75
7733.00,0.75
7732.00,0.75
7731.00,0.75
7730.00,0.75
7729.00,0.75
7728.00,0.75
7727.00,0.75
7726.00,0.75
7725.00,0.75
7724.00,0.75
7723.00,0.75
7722.00,0.74
7721.00,0.74
7720.00,0.74
7719.00,0.74
7718.00,0.74
7717.00,0.74
7716.00,0.74
7715.00,0.74
7714.00,0.74
7713.00,0.74
7712.00,0.74
7711.00,0.74
7710.00,0.75
7709.00,0.75
7708.00,0.75
7707.00,0.75
7706.00,0.75
7705.00,0.75
7704.00,0.75
7703.00,0.75
7702.00,0.75
7701.00,0.75
7700.00,0.75
7699.00,0.75
7698.00,0.75
7697.00,0.75
7696.00,0.75
7695.00,0.75
7694.00,0.75
7693.00,0.75
7692.00,0.75
7691.00,0.75
7690.00,0.75
7689.00,0.75
7688.00,0.75
7687.00,0.75
7686.00,0.75
7685.00,0.75
7684.00,0.75
7683.00,0.75
7682.00,0.75
7681.00,0.75
7680.00,0.75
7679.00,0.75
7678.00,0.75
7677.00,0.75
7676.00,0.75
7675.00,0.75
7674.00,0.75
7673.00,0.75
7672.00,0.75
7671.00,0.75
7670.00,0.75
7669.00,0.75
7668.00,0.75
7667.00,0.75
7666.00,0.75
7665.00,0.75
7664.00,0.75
7663.00,0.75
7662.00,0.75
7661.00,0.75
7660.00,0.75
7659.00,0.75
7658.00,0.75
7657.00,0.75
7656.00,0.75
7655.00,0.75
7654.00,0.75
7653.00,0.75
7652.00,0.75
7651.00,0.75
7650.00,0.75
7649.00,0.75
7648.00,0.75
7647.00,0.75
7646.00,0.75
7645.00,0.75
7644.00,0.75
7643.00,0.75
7642.00,0.75
7641.00,0.75
7640.00,0.75
7639.00,0.75
7638.00,0.75
7637.00,0.75
7636.00,0.75
7635.00,0.75
7634.00,0.75
7633.00,0.75
7632.00,0.75
7631.00,0.75
7630.00,0.75
7629.00,0.74
7628.00,0.74
7627.00,0.74
7626.00,0.74
7625.00,0.74
7624.00,0.74
7623.00,0.74
7622.00,0.74
7621.00,0.74
7620.00,0.74
7619.00,0.74
7618.00,0.74
7617.00,0.74
7616.00,0.75
7615.00,0.75
7614.00,0.75
7613.00,0.75
7612.00,0.75
7611.00,0.75
7610.00,0.75
7609.00,0.75
7608.00,0.75
7607.00,0.75
7606.00,0.75
7605.00,0.75
7604.00,0.75
7603.00,0.75
7602.00,0.75
7601.00,0.75
7600.00,0.75
7599.00,0.75
7598.00,0.75
7597.00,0.75
7596.00,0.75
7595.00,0.75
7594.00,0.75
7593.00,0.75
7592.00,0.75
7591.00,0.75
7590.00,0.75
7589.00,0.75
7588.00,0.75
7587.00,0.75
7586.00,0.75
7585.00,0.75
7584.00,0.75
7583.00,0.75
7582.00,0.75
7581.00,0.75
7580.00,0.75
7579.00,0.75
7578.00,0.75
7577.00,0.75
7576.00,0.75
7575.00,0.75
7574.00,0.75
7573.00,0.75
7572.00,0.75
7571.00,0.75
7570.00,0.75
7569.00,0.75
7568.00,0.75
7567.00,0.75
7566.00,0.75
7565.00,0.75
7564.00,0.75
7563.00,0.75
7562.00,0.75
7561.00,0.75
7560.00,0.75
7559.00,0.75
7558.00,0.75
7557.00,0.75
7556.00,0.75
7555.00,0.75
7554.00,0.75
7553.00,0.75
7552.00,0.75
7551.00,0.75
7550.00,0.75
7549.00,0.75
7548.00,0.75
7547.00,0.75
7546.00,0.75
7545.00,0.75
7544.00,0.75
7543.00,0.75
7542.00,0.75
7541.00,0.75
7540.00,0.75
7539.00,0.75
7538.00,0.75
7537.00,0.74
7536.00,0.74
7535.00,0.74
7534.00,0.74
7533.00,0.74
7532.00,0.74
7531.00,0.74
7530.00,0.74
7529.00,0.74
7528.00,0.74
7527.00,0.74
7526.00,0.74
7525.00,0.74
7524.00,0.74
7523.00,0.74
7522.00,0.74
7521.00,0.74
7520.00,0.74
7519.00,0.74
7518.00,0.74
7517.00,0.74
7516.00,0.74
7515.00,0.74
7514.00,0.74
7513.00,0.74
7512.00,0.74
7511.00,0.74
7510.00,0.74
7509.00,0.74
7508.00,0.74
7507.00,0.74
7506.00,0.74
7505.00,0.74
7504.00,0.74
7503.00,0.74
7502.00,0.74
7501.00,0.74
7500.00,0.74
7499.00,0.74
7498.00,0.74
7497.00,0.74
7496.00,0.74
7495.00,0.74
7494.00,0.74
7493.00,0.74
7492.00,0.74
7491.00,0.74
7490.00,0.73
7489.00,0.73
7488.00,0.73
7487.00,0.73
7486.00,0.73
7485.00,0.73
7484.00,0.73
7483.00,0.73
7482.00,0.73
7481.00,0.73
7480.00,0.73
7479.00,0.73
7478.00,0.73
7477.00,0.73
7476.00,0.73
7475.00,0.73
7474.00,0.73
7473.00,0.73
7472.00,0.73
7471.00,0.72
7470.00,0.72
7469.00,0.72
7468.00,0.72
7467.00,0.72
7466.00,0.72
7465.00,0.72
7464.00,0.72
7463.00,0.72
7462.00,0.72
7461.00,0.72
7460.00,0.72
7459.00,0.72
7458.00,0.72
7457.00,0.72
7456.00,0.72
7455.00,0.72
7454.00,0.72
7453.00,0.72
7452.00,0.72
7451.00,0.71
7450.00,0.71
7449.00,0.71
7448.00,0.71
7447.00,0.71
7446.00,0.71
7445.00,0.71
7444.00,0.71
7443.00,0.71
7442.00,0.71
7441.00,0.71
7440.00,0.70
7439.00,0.70
7438.00,0.70
7437.00,0.70
7436.00,0.70
7435.00,0.70
7434.00,0.70
7433.00,0.70
7432.00,0.70
7431.00,0.70
7430.00,0.70
7429.00,0.70
7428.00,0.70
7427.00,0.70
7426.00,0.70
7425.00,0.70
7424.00,0.70
7423.00,0.70
7422.00,0.70
7421.00,0.70
7420.00,0.70
7419.00,0.70
7418.00,0.70
7417.00,0.70
7416.00,0.70
7415.00,0.70
7414.00,0.70
7413.00,0.70
7412.00,0.70
7411.00,0.70
7410.00,0.70
7409.00,0.70
7408.00,0.70
7407.00,0.70
7406.00,0.70
7405.00,0.70
7404.00,0.70
7403.00,0.70
7402.00,0.69
7401.00,0.69
7400.00,0.69
7399.00,0.69
7398.00,0.69
7397.00,0.69
7396.00,0.69
7395.00,0.69
7394.00,0.69
7393.00,0.68
7392.00,0.68
7391.00,0.68
7390.00,0.68
7389.00,0.68
7388.00,0.68
7387.00,0.68
7386.00,0.68
7385.00,0.68
7384.00,0.68
7383.00,0.68
7382.00,0.68
7381.00,0.68
7380.00,0.68
7379.00,0.68
7378.00,0.68
7377.00,0.67
7376.00,0.67
7375.00,0.67
7374.00,0.67
7373.00,0.67
7372.00,0.67
7371.00,0.67
7370.00,0.67
7369.00,0.67
7368.00,0.67
7367.00,0.67
7366.00,0.67
7365.00,0.67
7364.00,0.67
7363.00,0.67
7362.00,0.67
7361.00,0.67
7360.00,0.67
7359.00,0.67
7358.00,0.67
7357.00,0.67
7356.00,0.67
7355.00,0.67
7354.00,0.67
7353.00,0.67
7352.00,0.67
7351.00,0.67
7350.00,0.67
7349.00,0.67
7348.00,0.67
7347.00,0.66
7346.00,0.66
7345.00,0.66
7344.00,0.66
7343.00,0.66
7342.00,0.66
7341.00,0.66
7340.00,0.66
7339.00,0.67
7338.00,0.67
7337.00,0.67
7336.00,0.67
7335.00,0.67
7334.00,0.67
7333.00,0.67
7332.00,0.67
7331.00,0.67
7330.00,0.67
7329.00,0.67
7328.00,0.67
7327.00,0.67
7326.00,0.67
7325.00,0.67
7324.00,0.67
7323.00,0.67
7322.00,0.67
7321.00,0.67
7320.00,0.67
7319.00,0.67
7318.00,0.67
7317.00,0.67
7316.00,0.67
7315.00,0.67
7314.00,0.67
7313.00,0.67
7312.00,0.67
7311.00,0.66
7310.00,0.66
7309.00,0.66
7308.00,0.66
7307.00,0.66
7306.00,0.66
7305.00,0.66
7304.00,0.65
7303.00,0.65
7302.00,0.65
7301.00,0.65
7300.00,0.65
7299.00,0.65
7298.00,0.64
7297.00,0.64
7296.00,0.64
7295.00,0.64
7294.00,0.64
7293.00,0.64
7292.00,0.64
7291.00,0.64
7290.00,0.64
7289.00,0.64
7288.00,0.64
7287.00,0.64
7286.00,0.64
7285.00,0.64
7284.00,0.64
7283.00,0.64
7282.00,0.64
7281.00,0.64
7280.00,0.64
7279.00,0.64
7278.00,0.63
7277.00,0.63
7276.00,0.63
7275.00,0.63
7274.00,0.63
7273.00,0.63
7272.00,0.63
7271.00,0.63
7270.00,0.63
7269.00,0.63
7268.00,0.63
7267.00,0.63
7266.00,0.63
7265.00,0.63
7264.00,0.62
7263.00,0.62
7262.00,0.62
7261.00,0.62
7260.00,0.62
7259.00,0.62
7258.00,0.62
7257.00,0.62
7256.00,0.62
7255.00,0.62
7254.00,0.61
7253.00,0.61
7252.00,0.61
7251.00,0.61
7250.00,0.61
7249.00,0.61
7248.00,0.60
7247.00,0.60
7246.00,0.60
7245.00,0.60
7244.00,0.60
7243.00,0.60
7242.00,0.59
7241.00,0.59
7240.00,0.59
7239.00,0.59
7238.00,0.58
7237.00,0.58
7236.00,0.58
7235.00,0.58
7234.00,0.57
7233.00,0.57
7232.00,0.57
7231.00,0.57
7230.00,0.57
7229.00,0.56
7228.00,0.56
7227.00,0.56
7226.00,0.56
7225.00,0.55
7224.00,0.55
7223.00,0.55
7222.00,0.55
7221.00,0.54
7220.00,0.54
7219.00,0.54
7218.00,0.54
7217.00,0.54
7216.00,0.53
7215.00,0.53
7214.00,0.53
7213.00,0.53
7212.00,0.52
7211.00,0.52
7210.00,0.52
7209.00,0.52
7208.00,0.52
7207.00,0.51
7206.00,0.51
7205.00,0.51
7204.00,0.51
7203.00,0.51
7202.00,0.50
7201.00,0.50
7200.00,0.50
7199.00,0.50
7198.00,0.50
7197.00,0.49
7196.00,0.49
7195.00,0.49
7194.00,0.49
7193.00,0.49
7192.00,0.48
7191.00,0.48
7190.00,0.48
7189.00,0.48
7188.00,0.48
7187.00,0.48
7186.00,0.47
7185.00,0.47
7184.00,0.47
7183.00,0.47
7182.00,0.47
7181.00,0.47
7180.00,0.47
7179.00,0.46
7178.00,0.46
7177.00,0.46
7176.00,0.46
7175.00,0.46
7174.00,0.46
7173.00,0.46
7172.00,0.45
7171.00,0.45
7170.00,0.45
7169.00,0.45
7168.00,0.45
7167.00,0.44
7166.00,0.44
7165.00,0.44
7164.00,0.44
7163.00,0.43
7162.00,0.43
7161.00,0.43
7160.00,0.43
7159.00,0.43
7158.00,0.43
7157.00,0.42
7156.00,0.42
7155.00,0.42
7154.00,0.42
7153.00,0.42
7152.00,0.42
7151.00,0.42
7150.00,0.42
7149.00,0.41
7148.00,0.41
7147.00,0.41
7146.00,0.41
7145.00,0.41
7144.00,0.40
7143.00,0.40
7142.00,0.40
7141.00,0.40
7140.00,0.40
7139.00,0.39
7138.00,0.39
7137.00,0.39
7136.00,0.39
7135.00,0.39
7134.00,0.39
7133.00,0.38
7132.00,0.38
7131.00,0.38
7130.00,0.38
7129.00,0.38
7128.00,0.38
7127.00,0.38
7126.00,0.37
7125.00,0.37
7124.00,0.37
7123.00,0.37
7122.00,0.37
7121.00,0.37
7120.00,0.37
7119.00,0.37
7118.00,0.36
7117.00,0.36
7116.00,0.36
7115.00,0.36
7114.00,0.36
7113.00,0.36
7112.00,0.36
7111.00,0.36
7110.00,0.35
7109.00,0.35
7108.00,0.35
7107.00,0.35
7106.00,0.35
7105.00,0.35
7104.00,0.35
7103.00,0.34
7102.00,0.34
7101.00,0.34
7100.00,0.34
7099.00,0.34
7098.00,0.34
7097.00,0.34
7096.00,0.34
7095.00,0.34
7094.00,0.34
7093.00,0.34
7092.00,0.34
7091.00,0.33
7090.00,0.33
7089.00,0.33
7088.00,0.33
7087.00,0.33
7086.00,0.33
7085.00,0.33
7084.00,0.33
7083.00,0.33
7082.00,0.33
7081.00,0.33
7080.00,0.33
7079.00,0.33
7078.00,0.33
7077.00,0.33
7076.00,0.33
7075.00,0.32
7074.00,0.32
7073.00,0.32
7072.00,0.32
7071.00,0.32
7070.00,0.32
7069.00,0.32
7068.00,0.32
7067.00,0.32
7066.00,0.32
7065.00,0.32
7064.00,0.32
7063.00,0.32
7062.00,0.32
7061.00,0.31
7060.00,0.31
7059.00,0.31
7058.00,0.31
7057.00,0.31
7056.00,0.31
7055.00,0.31
7054.00,0.31
7053.00,0.31
7052.00,0.31
7051.00,0.31
7050.00,0.31
7049.00,0.31
7048.00,0.31
7047.00,0.31
7046.00,0.31
7045.00,0.31
7044.00,0.31
7043.00,0.31
7042.00,0.31
7041.00,0.31
7040.00,0.31
7039.00,0.31
7038.00,0.31
7037.00,0.31
7036.00,0.31
7035.00,0.31
7034.00,0.31
7033.00,0.31
7032.00,0.31
7031.00,0.31
7030.00,0.31
7029.00,0.31
7028.00,0.31
7027.00,0.31
7026.00,0.31
7025.00,0.30
7024.00,0.30
7023.00,0.30
7022.00,0.30
7021.00,0.30
7020.00,0.30
7019.00,0.30
7018.00,0.30
7017.00,0.30
7016.00,0.30
7015.00,0.30
7014.00,0.30
7013.00,0.30
7012.00,0.30
7011.00,0.29
7010.00,0.29
7009.00,0.29
7008.00,0.29
7007.00,0.29
7006.00,0.29
7005.00,0.29
7004.00,0.29
7003.00,0.29
7002.00,0.29
7001.00,0.29
7000.00,0.29
6999.00,0.29
6998.00,0.29
6997.00,0.29
6996.00,0.29
6995.00,0.29
6994.00,0.29
6993.00,0.29
6992.00,0.29
6991.00,0.29
6990.00,0.29
6989.00,0.29
6988.00,0.29
6987.00,0.29
6986.00,0.29
6985.00,0.29
6984.00,0.29
6983.00,0.29
6982.00,0.29
6981.00,0.29
6980.00,0.29
6979.00,0.29
6978.00,0.29
6977.00,0.29
6976.00,0.29
6975.00,0.29
6974.00,0.29
6973.00,0.29
6972.00,0.29
6971.00,0.29
6970.00,0.29
6969.00,0.28
6968.00,0.28
6967.00,0.28
6966.00,0.28
6965.00,0.28
6964.00,0.28
6963.00,0.28
6962.00,0.28
6961.00,0.28
6960.00,0.28
6959.00,0.28
6958.00,0.28
6957.00,0.28
6956.00,0.28
6955.00,0.28
6954.00,0.28
6953.00,0.28
6952.00,0.28
6951.00,0.28
6950.00,0.28
6949.00,0.28
6948.00,0.28
6947.00,0.28
6946.00,0.28
6945.00,0.28
6944.00,0.28
6943.00,0.28
6942.00,0.28
6941.00,0.28
6940.00,0.28
6939.00,0.28
6938.00,0.28
6937.00,0.28
6936.00,0.28
6935.00,0.28
6934.00,0.28
6933.00,0.28
6932.00,0.28
6931.00,0.28
6930.00,0.28
6929.00,0.28
6928.00,0.28
6927.00,0.28
6926.00,0.28
6925.00,0.28
6924.00,0.28
6923.00,0.28
6922.00,0.28
6921.00,0.28
6920.00,0.28
6919.00,0.28
6918.00,0.28
6917.00,0.28
6916.00,0.28
6915.00,0.28
6914.00,0.28
6913.00,0.28
6912.00,0.28
6911.00,0.28
6910.00,0.28
6909.00,0.28
6908.00,0.28
6907.00,0.28
6906.00,0.28
6905.00,0.28
6904.00,0.28
6903.00,0.28
6902.00,0.28
6901.00,0.28
6900.00,0.28
6899.00,0.28
6898.00,0.28
6897.00,0.28
6896.00,0.28
6895.00,0.28
6894.00,0.28
6893.00,0.28
6892.00,0.28
6891.00,0.28
6890.00,0.28
6889.00,0.28
6888.00,0.27
6887.00,0.27
6886.00,0.27
6885.00,0.27
6884.00,0.28
6883.00,0.28
6882.00,0.28
6881.00,0.28
6880.00,0.28
6879.00,0.28
6878.00,0.28
6877.00,0.28
6876.00,0.28
6875.00,0.28
6874.00,0.28
6873.00,0.28
6872.00,0.28
6871.00,0.28
6870.00,0.28
6869.00,0.28
6868.00,0.28
6867.00,0.28
6866.00,0.28
6865.00,0.28
6864.00,0.29
6863.00,0.29
6862.00,0.29
6861.00,0.29
6860.00,0.29
6859.00,0.28
6858.00,0.28
6857.00,0.28
6856.00,0.28
6855.00,0.28
6854.00,0.28
6853.00,0.28
6852.00,0.28
6851.00,0.28
6850.00,0.28
6849.00,0.28
6848.00,0.28
6847.00,0.28
6846.00,0.28
6845.00,0.28
6844.00,0.28
6843.00,0.28
6842.00,0.28
6841.00,0.28
6840.00,0.28
6839.00,0.28
6838.00,0.28
6837.00,0.28
6836.00,0.28
6835.00,0.28
6834.00,0.28
6833.00,0.28
6832.00,0.28
6831.00,0.28
6830.00,0.28
6829.00,0.28
6828.00,0.28
6827.00,0.28
6826.00,0.28
6825.00,0.28
6824.00,0.28
6823.00,0.28
6822.00,0.28
6821.00,0.28
6820.00,0.28
6819.00,0.28
6818.00,0.29
6817.00,0.29
6816.00,0.29
6815.00,0.29
6814.00,0.29
6813.00,0.29
6812.00,0.29
6811.00,0.29
6810.00,0.29
6809.00,0.29
6808.00,0.29
6807.00,0.29
6806.00,0.29
6805.00,0.29
6804.00,0.29
6803.00,0.29
6802.00,0.29
6801.00,0.29
6800.00,0.29
6799.00,0.29
6798.00,0.29
6797.00,0.29
6796.00,0.29
6795.00,0.29
6794.00,0.29
6793.00,0.29
6792.00,0.29
6791.00,0.29
6790.00,0.29
6789.00,0.29
6788.00,0.29
6787.00,0.29
6786.00,0.29
6785.00,0.29
6784.00,0.29
6783.00,0.30
6782.00,0.30
6781.00,0.30
6780.00,0.30
6779.00,0.30
6778.00,0.30
6777.00,0.30
6776.00,0.30
6775.00,0.30
6774.00,0.30
6773.00,0.30
6772.00,0.30
6771.00,0.30
6770.00,0.30
6769.00,0.30
6768.00,0.30
6767.00,0.30
6766.00,0.30
6765.00,0.30
6764.00,0.30
6763.00,0.30
6762.00,0.30
6761.00,0.30
6760.00,0.30
6759.00,0.30
6758.00,0.30
6757.00,0.30
6756.00,0.30
6755.00,0.30
6754.00,0.30
6753.00,0.30
6752.00,0.30
6751.00,0.30
6750.00,0.30
6749.00,0.30
6748.00,0.30
6747.00,0.30
6746.00,0.30
6745.00,0.30
6744.00,0.30
6743.00,0.30
6742.00,0.30
6741.00,0.30
6740.00,0.30
6739.00,0.30
6738.00,0.30
6737.00,0.30
6736.00,0.30
6735.00,0.30
6734.00,0.30
6733.00,0.30
6732.00,0.30
6731.00,0.30
6730.00,0.30
6729.00,0.30
6728.00,0.30
6727.00,0.30
6726.00,0.30
6725.00,0.30
6724.00,0.30
6723.00,0.30
6722.00,0.31
6721.00,0.31
6720.00,0.31
6719.00,0.31
6718.00,0.31
6717.00,0.31
6716.00,0.31
6715.00,0.31
6714.00,0.31
6713.00,0.31
6712.00,0.31
6711.00,0.31
6710.00,0.31
6709.00,0.31
6708.00,0.31
6707.00,0.31
6706.00,0.31
6705.00,0.32
6704.00,0.32
6703.00,0.32
6702.00,0.32
6701.00,0.32
6700.00,0.32
6699.00,0.32
6698.00,0.32
6697.00,0.32
6696.00,0.32
6695.00,0.32
6694.00,0.32
6693.00,0.32
6692.00,0.32
6691.00,0.32
6690.00,0.32
6689.00,0.32
6688.00,0.32
6687.00,0.32
6686.00,0.32
6685.00,0.32
6684.00,0.32
6683.00,0.32
6682.00,0.33
6681.00,0.33
6680.00,0.33
6679.00,0.33
6678.00,0.33
6677.00,0.33
6676.00,0.33
6675.00,0.33
6674.00,0.33
6673.00,0.33
6672.00,0.33
6671.00,0.33
6670.00,0.33
6669.00,0.33
6668.00,0.33
6667.00,0.33
6666.00,0.33
6665.00,0.33
6664.00,0.33
6663.00,0.34
6662.00,0.34
6661.00,0.34
6660.00,0.34
6659.00,0.34
6658.00,0.34
6657.00,0.34
6656.00,0.34
6655.00,0.34
6654.00,0.34
6653.00,0.34
6652.00,0.34
6651.00,0.34
6650.00,0.34
6649.00,0.34
6648.00,0.34
6647.00,0.34
6646.00,0.34
6645.00,0.34
6644.00,0.34
6643.00,0.34
6642.00,0.34
6641.00,0.34
6640.00,0.34
6639.00,0.34
6638.00,0.34
6637.00,0.35
6636.00,0.35
6635.00,0.35
6634.00,0.35
6633.00,0.35
6632.00,0.35
6631.00,0.35
6630.00,0.35
6629.00,0.35
6628.00,0.35
6627.00,0.35
6626.00,0.35
6625.00,0.35
6624.00,0.35
6623.00,0.36
6622.00,0.36
6621.00,0.36
6620.00,0.36
6619.00,0.36
6618.00,0.36
6617.00,0.36
6616.00,0.36
6615.00,0.36
6614.00,0.36
6613.00,0.36
6612.00,0.36
6611.00,0.36
6610.00,0.36
6609.00,0.36
6608.00,0.36
6607.00,0.37
6606.00,0.37
6605.00,0.37
6604.00,0.37
6603.00,0.37
6602.00,0.37
6601.00,0.37
6600.00,0.37
6599.00,0.37
6598.00,0.37
6597.00,0.38
6596.00,0.38
6595.00,0.38
6594.00,0.38
6593.00,0.38
6592.00,0.38
6591.00,0.38
6590.00,0.38
6589.00,0.38
6588.00,0.38
6587.00,0.38
6586.00,0.38
6585.00,0.38
6584.00,0.38
6583.00,0.38
6582.00,0.38
6581.00,0.38
6580.00,0.38
6579.00,0.38
6578.00,0.38
6577.00,0.38
6576.00,0.38
6575.00,0.38
6574.00,0.38
6573.00,0.38
6572.00,0.38
6571.00,0.38
6570.00,0.38
6569.00,0.38
6568.00,0.38
6567.00,0.38
6566.00,0.38
6565.00,0.38
6564.00,0.38
6563.00,0.38
6562.00,0.38
6561.00,0.38
6560.00,0.38
6559.00,0.39
6558.00,0.39
6557.00,0.39
6556.00,0.39
6555.00,0.39
6554.00,0.39
6553.00,0.39
6552.00,0.39
6551.00,0.39
6550.00,0.39
6549.00,0.39
6548.00,0.39
6547.00,0.39
6546.00,0.39
6545.00,0.39
6544.00,0.39
6543.00,0.39
6542.00,0.39
6541.00,0.39
6540.00,0.40
6539.00,0.40
6538.00,0.40
6537.00,0.40
6536.00,0.40
6535.00,0.40
6534.00,0.40
6533.00,0.40
6532.00,0.40
6531.00,0.40
6530.00,0.40
6529.00,0.40
6528.00,0.40
6527.00,0.40
6526.00,0.40
6525.00,0.40
6524.00,0.40
6523.00,0.40
6522.00,0.40
6521.00,0.40
6520.00,0.40
6519.00,0.40
6518.00,0.40
6517.00,0.40
6516.00,0.41
6515.00,0.41
6514.00,0.41
6513.00,0.41
6512.00,0.41
6511.00,0.41
6510.00,0.41
6509.00,0.41
6508.00,0.41
6507.00,0.41
6506.00,0.41
6505.00,0.41
6504.00,0.41
6503.00,0.41
6502.00,0.41
6501.00,0.41
6500.00,0.41
6499.00,0.42
6498.00,0.42
6497.00,0.42
6496.00,0.42
6495.00,0.42
6494.00,0.42
6493.00,0.42
6492.00,0.42
6491.00,0.42
6490.00,0.42
6489.00,0.42
6488.00,0.42
6487.00,0.42
6486.00,0.42
6485.00,0.42
6484.00,0.42
6483.00,0.42
6482.00,0.42
6481.00,0.42
6480.00,0.42
6479.00,0.42
6478.00,0.42
6477.00,0.42
6476.00,0.42
6475.00,0.42
6474.00,0.42
6473.00,0.43
6472.00,0.43
6471.00,0.43
6470.00,0.43
6469.00,0.43
6468.00,0.43
6467.00,0.43
6466.00,0.43
6465.00,0.43
6464.00,0.43
6463.00,0.43
6462.00,0.43
6461.00,0.43
6460.00,0.43
6459.00,0.43
6458.00,0.43
6457.00,0.43
6456.00,0.44
6455.00,0.44
6454.00,0.44
6453.00,0.44
6452.00,0.44
6451.00,0.44
6450.00,0.44
6449.00,0.44
6448.00,0.44
6447.00,0.44
6446.00,0.44
6445.00,0.44
6444.00,0.44
6443.00,0.44
6442.00,0.44
6441.00,0.44
6440.00,0.44
6439.00,0.44
6438.00,0.44
6437.00,0.44
6436.00,0.44
6435.00,0.44
6434.00,0.44
6433.00,0.44
6432.00,0.44
6431.00,0.44
6430.00,0.44
6429.00,0.44
6428.00,0.44
6427.00,0.44
6426.00,0.44
6425.00,0.44
6424.00,0.44
6423.00,0.44
6422.00,0.44
6421.00,0.44
6420.00,0.44
6419.00,0.44
6418.00,0.45
6417.00,0.45
6416.00,0.45
6415.00,0.45
6414.00,0.45
6413.00,0.45
6412.00,0.45
6411.00,0.45
6410.00,0.45
6409.00,0.45
6408.00,0.45
6407.00,0.45
6406.00,0.45
6405.00,0.45
6404.00,0.45
6403.00,0.45
6402.00,0.45
6401.00,0.45
6400.00,0.45
6399.00,0.45
6398.00,0.45
6397.00,0.45
6396.00,0.45
6395.00,0.45
6394.00,0.45
6393.00,0.45
6392.00,0.45
6391.00,0.45
6390.00,0.45
6389.00,0.45
6388.00,0.45
6387.00,0.45
6386.00,0.45
6385.00,0.45
6384.00,0.45
6383.00,0.46
6382.00,0.46
6381.00,0.46
6380.00,0.46
6379.00,0.46
6378.00,0.46
6377.00,0.46
6376.00,0.46
6375.00,0.46
6374.00,0.46
6373.00,0.46
6372.00,0.46
6371.00,0.46
6370.00,0.46
6369.00,0.46
6368.00,0.46
6367.00,0.46
6366.00,0.46
6365.00,0.46
6364.00,0.46
6363.00,0.46
6362.00,0.46
6361.00,0.46
6360.00,0.46
6359.00,0.46
6358.00,0.46
6357.00,0.46
6356.00,0.46
6355.00,0.47
6354.00,0.47
6353.00,0.47
6352.00,0.47
6351.00,0.47
6350.00,0.47
6349.00,0.47
6348.00,0.47
6347.00,0.47
6346.00,0.47
6345.00,0.47
6344.00,0.47
6343.00,0.47
6342.00,0.47
6341.00,0.47
6340.00,0.47
6339.00,0.47
6338.00,0.48
6337.00,0.48
6336.00,0.48
6335.00,0.48
6334.00,0.48
6333.00,0.48
6332.00,0.48
6331.00,0.48
6330.00,0.48
6329.00,0.48
6328.00,0.48
6327.00,0.49
6326.00,0.49
6325.00,0.49
6324.00,0.49
6323.00,0.49
6322.00,0.49
6321.00,0.49
6320.00,0.49
6319.00,0.49
6318.00,0.49
6317.00,0.49
6316.00,0.49
6315.00,0.49
6314.00,0.50
6313.00,0.50
6312.00,0.50
6311.00,0.50
6310.00,0.50
6309.00,0.50
6308.00,0.50
6307.00,0.50
6306.00,0.50
6305.00,0.50
6304.00,0.50
6303.00,0.50
6302.00,0.50
6301.00,0.50
6300.00,0.51
6299.00,0.51
6298.00,0.51
6297.00,0.51
6296.00,0.51
6295.00,0.51
6294.00,0.51
6293.00,0.51
6292.00,0.51
6291.00,0.51
6290.00,0.51
6289.00,0.51
6288.00,0.51
6287.00,0.51
6286.00,0.51
6285.00,0.51
6284.00,0.51
6283.00,0.51
6282.00,0.51
6281.00,0.51
6280.00,0.51
6279.00,0.51
6278.00,0.51
6277.00,0.51
6276.00,0.52
6275.00,0.52
6274.00,0.52
6273.00,0.52
6272.00,0.52
6271.00,0.52
6270.00,0.52
6269.00,0.52
6268.00,0.52
6267.00,0.52
6266.00,0.53
6265.00,0.53
6264.00,0.53
6263.00,0.53
6262.00,0.53
6261.00,0.53
6260.00,0.53
6259.00,0.53
6258.00,0.53
6257.00,0.53
6256.00,0.53
6255.00,0.54
6254.00,0.54
6253.00,0.54
6252.00,0.54
6251.00,0.54
6250.00,0.54
6249.00,0.54
6248.00,0.54
6247.00,0.54
6246.00,0.54
6245.00,0.54
6244.00,0.54
6243.00,0.54
6242.00,0.54
6241.00,0.55
6240.00,0.55
6239.00,0.55
6238.00,0.55
6237.00,0.55
6236.00,0.55
6235.00,0.55
6234.00,0.55
6233.00,0.55
6232.00,0.55
6231.00,0.55
6230.00,0.55
6229.00,0.55
6228.00,0.55
6227.00,0.55
6226.00,0.55
6225.00,0.55
6224.00,0.55
6223.00,0.56
6222.00,0.56
6221.00,0.56
6220.00,0.56
6219.00,0.56
6218.00,0.56
6217.00,0.56
6216.00,0.56
6215.00,0.56
6214.00,0.56
6213.00,0.56
6212.00,0.56
6211.00,0.57
6210.00,0.57
6209.00,0.57
6208.00,0.57
6207.00,0.57
6206.00,0.57
6205.00,0.57
6204.00,0.57
6203.00,0.57
6202.00,0.57
6201.00,0.57
6200.00,0.57
6199.00,0.57
6198.00,0.57
6197.00,0.57
6196.00,0.57
6195.00,0.57
6194.00,0.57
6193.00,0.58
6192.00,0.58
6191.00,0.58
6190.00,0.58
6189.00,0.58
6188.00,0.58
6187.00,0.58
6186.00,0.58
6185.00,0.58
6184.00,0.58
6183.00,0.59
6182.00,0.59
6181.00,0.59
6180.00,0.59
6179.00,0.59
6178.00,0.59
6177.00,0.59
6176.00,0.59
6175.00,0.59
6174.00,0.59
6173.00,0.60
6172.00,0.60
6171.00,0.60
6170.00,0.60
6169.00,0.60
6168.00,0.60
6167.00,0.60
6166.00,0.60
6165.00,0.60
6164.00,0.60
6163.00,0.60
6162.00,0.60
6161.00,0.60
6160.00,0.60
6159.00,0.61
6158.00,0.61
6157.00,0.61
6156.00,0.61
6155.00,0.61
6154.00,0.61
6153.00,0.61
6152.00,0.61
6151.00,0.61
6150.00,0.62
6149.00,0.62
6148.00,0.62
6147.00,0.62
6146.00,0.62
6145.00,0.62
6144.00,0.62
6143.00,0.62
6142.00,0.63
6141.00,0.63
6140.00,0.63
6139.00,0.63
6138.00,0.63
6137.00,0.63
6136.00,0.63
6135.00,0.63
6134.00,0.63
6133.00,0.64
6132.00,0.64
6131.00,0.64
6130.00,0.64
6129.00,0.64
6128.00,0.64
6127.00,0.64
6126.00,0.64
6125.00,0.64
6124.00,0.65
6123.00,0.65
6122.00,0.65
6121.00,0.65
6120.00,0.65
6119.00,0.65
6118.00,0.65
6117.00,0.65
6116.00,0.65
6115.00,0.65
6114.00,0.65
6113.00,0.65
6112.00,0.65
6111.00,0.66
6110.00,0.66
6109.00,0.66
6108.00,0.66
6107.00,0.66
6106.00,0.66
6105.00,0.66
6104.00,0.66
6103.00,0.66
6102.00,0.66
6101.00,0.66
6100.00,0.66
6099.00,0.66
6098.00,0.67
6097.00,0.67
6096.00,0.67
6095.00,0.67
6094.00,0.67
6093.00,0.67
6092.00,0.67
6091.00,0.67
6090.00,0.67
6089.00,0.67
6088.00,0.67
6087.00,0.67
6086.00,0.68
6085.00,0.68
6084.00,0.68
6083.00,0.68
6082.00,0.68
6081.00,0.68
6080.00,0.68
6079.00,0.68
6078.00,0.68
6077.00,0.68
6076.00,0.68
6075.00,0.68
6074.00,0.69
6073.00,0.69
6072.00,0.69
6071.00,0.69
6070.00,0.69
6069.00,0.69
6068.00,0.69
6067.00,0.69
6066.00,0.69
6065.00,0.69
6064.00,0.69
6063.00,0.69
6062.00,0.69
6061.00,0.69
6060.00,0.69
6059.00,0.69
6058.00,0.69
6057.00,0.69
6056.00,0.69
6055.00,0.69
6054.00,0.69
6053.00,0.69
6052.00,0.69
6051.00,0.70
6050.00,0.70
6049.00,0.70
6048.00,0.70
6047.00,0.70
6046.00,0.70
6045.00,0.70
6044.00,0.70
6043.00,0.70
6042.00,0.70
6041.00,0.70
6040.00,0.70
6039.00,0.70
6038.00,0.70
6037.00,0.70
6036.00,0.70
6035.00,0.70
6034.00,0.70
6033.00,0.71
6032.00,0.71
6031.00,0.71
6030.00,0.71
6029.00,0.71
6028.00,0.71
6027.00,0.71
6026.00,0.71
6025.00,0.71
6024.00,0.71
6023.00,0.71
6022.00,0.71
6021.00,0.71
6020.00,0.71
6019.00,0.71
6018.00,0.71
6017.00,0.71
6016.00,0.71
6015.00,0.71
6014.00,0.71
6013.00,0.71
6012.00,0.71
6011.00,0.71
6010.00,0.71
6009.00,0.71
6008.00,0.71
6007.00,0.71
6006.00,0.71
6005.00,0.71
6004.00,0.70
6003.00,0.70
6002.00,0.70
6001.00,0.70
6000.00,0.70
5999.00,0.70
5998.00,0.70
5997.00,0.70
5996.00,0.70
5995.00,0.70
5994.00,0.70
5993.00,0.70
5992.00,0.70
5991.00,0.70
5990.00,0.70
5989.00,0.70
5988.00,0.70
5987.00,0.70
5986.00,0.70
5985.00,0.69
5984.00,0.69
5983.00,0.69
5982.00,0.69
5981.00,0.69
5980.00,0.69
5979.00,0.68
5978.00,0.68
5977.00,0.68
5976.00,0.68
5975.00,0.67
5974.00,0.67
5973.00,0.67
5972.00,0.66
5971.00,0.66
5970.00,0.66
5969.00,0.65
5968.00,0.65
5967.00,0.65
5966.00,0.64
5965.00,0.64
5964.00,0.63
5963.00,0.63
5962.00,0.63
5961.00,0.62
5960.00,0.62
5959.00,0.62
5958.00,0.61
5957.00,0.61
5956.00,0.60
5955.00,0.60
5954.00,0.60
5953.00,0.59
5952.00,0.59
5951.00,0.59
5950.00,0.59
5949.00,0.58
5948.00,0.58
5947.00,0.58
5946.00,0.58
5945.00,0.57
5944.00,0.57
5943.00,0.57
5942.00,0.57
5941.00,0.57
5940.00,0.57
5939.00,0.56
5938.00,0.56
5937.00,0.56
5936.00,0.56
5935.00,0.56
5934.00,0.56
5933.00,0.56
5932.00,0.56
5931.00,0.56
5930.00,0.56
5929.00,0.56
5928.00,0.56
5927.00,0.56
5926.00,0.56
5925.00,0.56
5924.00,0.56
5923.00,0.56
5922.00,0.55
5921.00,0.55
5920.00,0.55
5919.00,0.55
5918.00,0.55
5917.00,0.55
5916.00,0.55
5915.00,0.55
5914.00,0.55
5913.00,0.54
5912.00,0.54
5911.00,0.54
5910.00,0.54
5909.00,0.54
5908.00,0.54
5907.00,0.54
5906.00,0.54
5905.00,0.53
5904.00,0.53
5903.00,0.53
5902.00,0.53
5901.00,0.53
5900.00,0.53
5899.00,0.53
5898.00,0.53
5897.00,0.53
5896.00,0.53
5895.00,0.53
5894.00,0.54
5893.00,0.54
5892.00,0.54
5891.00,0.54
5890.00,0.54
5889.00,0.54
5888.00,0.54
5887.00,0.54
5886.00,0.55
5885.00,0.55
5884.00,0.55
5883.00,0.55
5882.00,0.55
5881.00,0.55
5880.00,0.56
5879.00,0.56
5878.00,0.56
5877.00,0.56
5876.00,0.56
5875.00,0.56
5874.00,0.56
5873.00,0.57
5872.00,0.57
5871.00,0.57
5870.00,0.57
5869.00,0.57
5868.00,0.57
5867.00,0.57
5866.00,0.57
5865.00,0.57
5864.00,0.58
5863.00,0.58
5862.00,0.58
5861.00,0.58
5860.00,0.58
5859.00,0.58
5858.00,0.58
5857.00,0.58
5856.00,0.58
5855.00,0.58
5854.00,0.58
5853.00,0.58
5852.00,0.59
5851.00,0.59
5850.00,0.59
5849.00,0.59
5848.00,0.59
5847.00,0.59
5846.00,0.59
5845.00,0.59
5844.00,0.59
5843.00,0.59
5842.00,0.59
5841.00,0.59
5840.00,0.59
5839.00,0.59
5838.00,0.59
5837.00,0.59
5836.00,0.59
5835.00,0.59
5834.00,0.59
5833.00,0.59
5832.00,0.59
5831.00,0.59
5830.00,0.59
5829.00,0.59
5828.00,0.59
5827.00,0.59
5826.00,0.59
5825.00,0.59
5824.00,0.59
5823.00,0.59
5822.00,0.59
5821.00,0.59
5820.00,0.59
5819.00,0.59
5818.00,0.59
5817.00,0.59
5816.00,0.59
5815.00,0.59
5814.00,0.59
5813.00,0.59
5812.00,0.59
5811.00,0.59
5810.00,0.59
5809.00,0.59
5808.00,0.59
5807.00,0.59
5806.00,0.59
5805.00,0.59
5804.00,0.59
5803.00,0.59
5802.00,0.59
5801.00,0.59
5800.00,0.59
5799.00,0.59
5798.00,0.58
5797.00,0.58
5796.00,0.58
5795.00,0.58
5794.00,0.58
5793.00,0.58
5792.00,0.58
5791.00,0.58
5790.00,0.58
5789.00,0.57
5788.00,0.57
5787.00,0.57
5786.00,0.57
5785.00,0.57
5784.00,0.57
5783.00,0.57
5782.00,0.57
5781.00,0.56
5780.00,0.56
5779.00,0.56
5778.00,0.56
5777.00,0.56
5776.00,0.56
5775.00,0.56
5774.00,0.56
5773.00,0.56
5772.00,0.56
5771.00,0.56
5770.00,0.56
5769.00,0.56
5768.00,0.56
5767.00,0.56
5766.00,0.56
5765.00,0.57
5764.00,0.57
5763.00,0.57
5762.00,0.57
5761.00,0.57
5760.00,0.57
5759.00,0.57
5758.00,0.57
5757.00,0.58
5756.00,0.58
5755.00,0.58
5754.00,0.58
5753.00,0.58
5752.00,0.58
5751.00,0.59
5750.00,0.59
5749.00,0.59
5748.00,0.59
5747.00,0.59
5746.00,0.59
5745.00,0.60
5744.00,0.60
5743.00,0.60
5742.00,0.60
5741.00,0.60
5740.00,0.60
5739.00,0.60
5738.00,0.61
5737.00,0.61
5736.00,0.61
5735.00,0.61
5734.00,0.61
5733.00,0.61
5732.00,0.61
5731.00,0.61
5730.00,0.61
5729.00,0.61
5728.00,0.62
5727.00,0.62
5726.00,0.62
5725.00,0.62
5724.00,0.62
5723.00,0.62
5722.00,0.62
5721.00,0.62
5720.00,0.62
5719.00,0.62
5718.00,0.62
5717.00,0.62
5716.00,0.62
5715.00,0.62
5714.00,0.62
5713.00,0.61
5712.00,0.61
5711.00,0.61
5710.00,0.61
5709.00,0.61
5708.00,0.61
5707.00,0.61
5706.00,0.61
5705.00,0.61
5704.00,0.61
5703.00,0.61
5702.00,0.61
5701.00,0.61
5700.00,0.61
5699.00,0.61
5698.00,0.61
5697.00,0.61
5696.00,0.61
5695.00,0.61
5694.00,0.61
5693.00,0.61
5692.00,0.61
5691.00,0.60
5690.00,0.60
5689.00,0.60
5688.00,0.60
5687.00,0.60
5686.00,0.60
5685.00,0.60
5684.00,0.60
5683.00,0.60
5682.00,0.60
5681.00,0.60
5680.00,0.60
5679.00,0.60
5678.00,0.60
5677.00,0.60
5676.00,0.60
5675.00,0.60
5674.00,0.60
5673.00,0.60
5672.00,0.60
5671.00,0.60
5670.00,0.60
5669.00,0.60
5668.00,0.60
5667.00,0.60
5666.00,0.60
5665.00,0.60
5664.00,0.60
5663.00,0.60
5662.00,0.60
5661.00,0.60
5660.00,0.60
5659.00,0.60
5658.00,0.60
5657.00,0.60
5656.00,0.60
5655.00,0.61
5654.00,0.61
5653.00,0.61
5652.00,0.61
5651.00,0.61
5650.00,0.61
5649.00,0.61
5648.00,0.61
5647.00,0.61
5646.00,0.62
5645.00,0.62
5644.00,0.62
5643.00,0.62
5642.00,0.62
5641.00,0.62
5640.00,0.62
5639.00,0.62
5638.00,0.63
5637.00,0.63
5636.00,0.63
5635.00,0.63
5634.00,0.63
5633.00,0.63
5632.00,0.63
5631.00,0.63
5630.00,0.63
5629.00,0.63
5628.00,0.63
5627.00,0.63
5626.00,0.63
5625.00,0.63
5624.00,0.63
5623.00,0.63
5622.00,0.64
5621.00,0.64
5620.00,0.64
5619.00,0.64
5618.00,0.64
5617.00,0.64
5616.00,0.64
5615.00,0.64
5614.00,0.64
5613.00,0.65
5612.00,0.65
5611.00,0.65
5610.00,0.65
5609.00,0.65
5608.00,0.65
5607.00,0.65
5606.00,0.65
5605.00,0.65
5604.00,0.66
5603.00,0.66
5602.00,0.66
5601.00,0.66
5600.00,0.66
5599.00,0.66
5598.00,0.66
5597.00,0.66
5596.00,0.66
5595.00,0.66
5594.00,0.66
5593.00,0.67
5592.00,0.67
5591.00,0.67
5590.00,0.67
5589.00,0.67
5588.00,0.67
5587.00,0.67
5586.00,0.67
5585.00,0.67
5584.00,0.67
5583.00,0.67
5582.00,0.67
5581.00,0.67
5580.00,0.67
5579.00,0.67
5578.00,0.68
5577.00,0.68
5576.00,0.68
5575.00,0.68
5574.00,0.68
5573.00,0.68
5572.00,0.68
5571.00,0.68
5570.00,0.68
5569.00,0.68
5568.00,0.68
5567.00,0.68
5566.00,0.68
5565.00,0.68
5564.00,0.69
5563.00,0.69
5562.00,0.69
5561.00,0.69
5560.00,0.69
5559.00,0.69
5558.00,0.69
5557.00,0.69
5556.00,0.69
5555.00,0.69
5554.00,0.69
5553.00,0.69
5552.00,0.70
5551.00,0.70
5550.00,0.70
5549.00,0.70
5548.00,0.70
5547.00,0.70
5546.00,0.70
5545.00,0.70
5544.00,0.70
5543.00,0.70
5542.00,0.70
5541.00,0.70
5540.00,0.70
5539.00,0.70
5538.00,0.71
5537.00,0.71
5536.00,0.71
5535.00,0.71
5534.00,0.71
5533.00,0.71
5532.00,0.71
5531.00,0.71
5530.00,0.71
5529.00,0.71
5528.00,0.71
5527.00,0.71
5526.00,0.71
5525.00,0.71
5524.00,0.71
5523.00,0.71
5522.00,0.71
5521.00,0.71
5520.00,0.71
5519.00,0.71
5518.00,0.71
5517.00,0.71
5516.00,0.71
5515.00,0.71
5514.00,0.71
5513.00,0.71
5512.00,0.72
5511.00,0.72
5510.00,0.72
5509.00,0.72
5508.00,0.72
5507.00,0.72
5506.00,0.72
5505.00,0.72
5504.00,0.72
5503.00,0.72
5502.00,0.72
5501.00,0.72
5500.00,0.72
5499.00,0.72
5498.00,0.72
5497.00,0.72
5496.00,0.72
5495.00,0.72
5494.00,0.72
5493.00,0.72
5492.00,0.72
5491.00,0.72
5490.00,0.72
5489.00,0.72
5488.00,0.72
5487.00,0.72
5486.00,0.73
5485.00,0.73
5484.00,0.73
5483.00,0.73
5482.00,0.73
5481.00,0.73
5480.00,0.73
5479.00,0.73
5478.00,0.73
5477.00,0.73
5476.00,0.73
5475.00,0.73
5474.00,0.73
5473.00,0.74
5472.00,0.74
5471.00,0.74
5470.00,0.74
5469.00,0.74
5468.00,0.74
5467.00,0.74
5466.00,0.74
5465.00,0.74
5464.00,0.74
5463.00,0.74
5462.00,0.74
5461.00,0.74
5460.00,0.74
5459.00,0.74
5458.00,0.74
5457.00,0.74
5456.00,0.74
5455.00,0.74
5454.00,0.74
5453.00,0.74
5452.00,0.74
5451.00,0.74
5450.00,0.74
5449.00,0.74
5448.00,0.74
5447.00,0.74
5446.00,0.74
5445.00,0.74
5444.00,0.74
5443.00,0.74
5442.00,0.74
5441.00,0.74
5440.00,0.75
5439.00,0.75
5438.00,0.75
5437.00,0.75
5436.00,0.75
5435.00,0.75
5434.00,0.75
5433.00,0.75
5432.00,0.75
5431.00,0.75
5430.00,0.75
5429.00,0.75
5428.00,0.75
5427.00,0.75
5426.00,0.75
5425.00,0.75
5424.00,0.75
5423.00,0.75
5422.00,0.75
5421.00,0.75
5420.00,0.75
5419.00,0.75
5418.00,0.75
5417.00,0.75
5416.00,0.75
5415.00,0.75
5414.00,0.75
5413.00,0.75
5412.00,0.75
5411.00,0.75
5410.00,0.75
5409.00,0.75
5408.00,0.75
5407.00,0.75
5406.00,0.74
5405.00,0.74
5404.00,0.74
5403.00,0.74
5402.00,0.74
5401.00,0.74
5400.00,0.74
5399.00,0.74
5398.00,0.74
5397.00,0.74
5396.00,0.74
5395.00,0.74
5394.00,0.74
5393.00,0.74
5392.00,0.74
5391.00,0.74
5390.00,0.74
5389.00,0.74
5388.00,0.73
5387.00,0.73
5386.00,0.73
5385.00,0.73
5384.00,0.73
5383.00,0.72
5382.00,0.72
5381.00,0.72
5380.00,0.72
5379.00,0.72
5378.00,0.71
5377.00,0.71
5376.00,0.71
5375.00,0.71
5374.00,0.70
5373.00,0.70
5372.00,0.70
5371.00,0.69
5370.00,0.69
5369.00,0.69
5368.00,0.68
5367.00,0.68
5366.00,0.68
5365.00,0.67
5364.00,0.67
5363.00,0.66
5362.00,0.66
5361.00,0.66
5360.00,0.65
5359.00,0.65
5358.00,0.64
5357.00,0.64
5356.00,0.63
5355.00,0.63
5354.00,0.62
5353.00,0.62
5352.00,0.61
5351.00,0.61
5350.00,0.60
5349.00,0.60
5348.00,0.59
5347.00,0.59
5346.00,0.58
5345.00,0.58
5344.00,0.57
5343.00,0.57
5342.00,0.56
5341.00,0.56
5340.00,0.55
5339.00,0.55
5338.00,0.54
5337.00,0.54
5336.00,0.53
5335.00,0.53
5334.00,0.52
5333.00,0.52
5332.00,0.51
5331.00,0.51
5330.00,0.50
5329.00,0.50
5328.00,0.49
5327.00,0.49
5326.00,0.48
5325.00,0.48
5324.00,0.47
5323.00,0.47
5322.00,0.47
5321.00,0.46
5320.00,0.46
5319.00,0.45
5318.00,0.45
5317.00,0.44
5316.00,0.44
5315.00,0.44
5314.00,0.43
5313.00,0.43
5312.00,0.43
5311.00,0.42
5310.00,0.42
5309.00,0.42
5308.00,0.42
5307.00,0.41
5306.00,0.41
5305.00,0.41
5304.00,0.41
5303.00,0.41
5302.00,0.40
5301.00,0.40
5300.00,0.40
5299.00,0.40
5298.00,0.40
5297.00,0.40
5296.00,0.40
5295.00,0.40
5294.00,0.39
5293.00,0.39
5292.00,0.39
5291.00,0.39
5290.00,0.39
5289.00,0.39
5288.00,0.39
5287.00,0.39
5286.00,0.39
5285.00,0.39
5284.00,0.39
5283.00,0.39
5282.00,0.39
5281.00,0.39
5280.00,0.39
5279.00,0.39
5278.00,0.39
5277.00,0.39
5276.00,0.39
5275.00,0.39
5274.00,0.39
5273.00,0.39
5272.00,0.39
5271.00,0.39
5270.00,0.39
5269.00,0.39
5268.00,0.39
5267.00,0.39
5266.00,0.39
5265.00,0.39
5264.00,0.39
5263.00,0.38
5262.00,0.38
5261.00,0.38
5260.00,0.38
5259.00,0.38
5258.00,0.38
5257.00,0.38
5256.00,0.38
5255.00,0.38
5254.00,0.38
5253.00,0.38
5252.00,0.38
5251.00,0.38
5250.00,0.38
5249.00,0.38
5248.00,0.38
5247.00,0.38
5246.00,0.38
5245.00,0.38
5244.00,0.38
5243.00,0.39
5242.00,0.39
5241.00,0.39
5240.00,0.39
5239.00,0.39
5238.00,0.39
5237.00,0.39
5236.00,0.39
5235.00,0.39
5234.00,0.39
5233.00,0.39
5232.00,0.39
5231.00,0.39
5230.00,0.39
5229.00,0.39
5228.00,0.39
5227.00,0.39
5226.00,0.39
5225.00,0.39
5224.00,0.39
5223.00,0.39
5222.00,0.39
5221.00,0.39
5220.00,0.39
5219.00,0.39
5218.00,0.39
5217.00,0.39
5216.00,0.39
5215.00,0.39
5214.00,0.39
5213.00,0.39
5212.00,0.39
5211.00,0.39
5210.00,0.39
5209.00,0.39
5208.00,0.39
5207.00,0.39
5206.00,0.39
5205.00,0.39
5204.00,0.39
5203.00,0.39
5202.00,0.39
5201.00,0.39
5200.00,0.39
5199.00,0.39
5198.00,0.39
5197.00,0.40
5196.00,0.40
5195.00,0.40
5194.00,0.40
5193.00,0.40
5192.00,0.40
5191.00,0.40
5190.00,0.40
5189.00,0.40
5188.00,0.40
5187.00,0.40
5186.00,0.40
5185.00,0.40
5184.00,0.40
5183.00,0.40
5182.00,0.40
5181.00,0.40
5180.00,0.40
5179.00,0.40
5178.00,0.40
5177.00,0.40
5176.00,0.40
5175.00,0.40
5174.00,0.40
5173.00,0.40
5172.00,0.40
5171.00,0.40
5170.00,0.41
5169.00,0.41
5168.00,0.41
5167.00,0.41
5166.00,0.41
5165.00,0.41
5164.00,0.41
5163.00,0.41
5162.00,0.41
5161.00,0.41
5160.00,0.41
5159.00,0.41
5158.00,0.41
5157.00,0.41
5156.00,0.41
5155.00,0.41
5154.00,0.41
5153.00,0.41
5152.00,0.41
5151.00,0.41
5150.00,0.41
5149.00,0.41
5148.00,0.41
5147.00,0.41
5146.00,0.41
5145.00,0.41
5144.00,0.41
5143.00,0.41
5142.00,0.41
5141.00,0.41
5140.00,0.41
5139.00,0.41
5138.00,0.41
5137.00,0.41
5136.00,0.41
5135.00,0.41
5134.00,0.41
5133.00,0.41
5132.00,0.41
5131.00,0.41
5130.00,0.41
5129.00,0.41
5128.00,0.41
5127.00,0.41
5126.00,0.41
5125.00,0.41
5124.00,0.41
5123.00,0.41
5122.00,0.41
5121.00,0.41
5120.00,0.42
5119.00,0.42
5118.00,0.42
5117.00,0.42
5116.00,0.42
5115.00,0.42
5114.00,0.42
5113.00,0.42
5112.00,0.42
5111.00,0.42
5110.00,0.42
5109.00,0.42
5108.00,0.42
5107.00,0.42
5106.00,0.42
5105.00,0.42
5104.00,0.42
5103.00,0.42
5102.00,0.42
5101.00,0.42
5100.00,0.42
5099.00,0.42
5098.00,0.42
5097.00,0.42
5096.00,0.42
5095.00,0.42
5094.00,0.42
5093.00,0.42
5092.00,0.42
5091.00,0.42
5090.00,0.42
5089.00,0.42
5088.00,0.42
5087.00,0.42
5086.00,0.42
5085.00,0.42
5084.00,0.42
5083.00,0.42
5082.00,0.42
5081.00,0.42
5080.00,0.43
5079.00,0.43
5078.00,0.43
5077.00,0.43
5076.00,0.43
5075.00,0.43
5074.00,0.43
5073.00,0.43
5072.00,0.43
5071.00,0.43
5070.00,0.43
5069.00,0.43
5068.00,0.43
5067.00,0.43
5066.00,0.43
5065.00,0.43
5064.00,0.43
5063.00,0.43
5062.00,0.43
5061.00,0.43
5060.00,0.43
5059.00,0.43
5058.00,0.43
5057.00,0.43
5056.00,0.43
5055.00,0.43
5054.00,0.43
5053.00,0.43
5052.00,0.44
5051.00,0.44
5050.00,0.44
5049.00,0.44
5048.00,0.44
5047.00,0.44
5046.00,0.44
5045.00,0.44
5044.00,0.44
5043.00,0.44
5042.00,0.44
5041.00,0.44
5040.00,0.44
5039.00,0.44
5038.00,0.44
5037.00,0.44
5036.00,0.44
5035.00,0.44
5034.00,0.44
5033.00,0.44
5032.00,0.44
5031.00,0.44
5030.00,0.44
5029.00,0.44
5028.00,0.44
5027.00,0.44
5026.00,0.44
5025.00,0.44
5024.00,0.44
5023.00,0.44
5022.00,0.44
5021.00,0.44
5020.00,0.44
5019.00,0.44
5018.00,0.44
5017.00,0.44
5016.00,0.44
5015.00,0.44
5014.00,0.44
5013.00,0.44
5012.00,0.44
5011.00,0.44
5010.00,0.44
5009.00,0.45
5008.00,0.45
5007.00,0.45
5006.00,0.45
5005.00,0.45
5004.00,0.45
5003.00,0.45
5002.00,0.45
5001.00,0.45
5000.00,0.45
4999.00,0.45
4998.00,0.45
4997.00,0.45
4996.00,0.45
4995.00,0.45
4994.00,0.45
4993.00,0.45
4992.00,0.45
4991.00,0.45
4990.00,0.45
4989.00,0.45
4988.00,0.46
4987.00,0.46
4986.00,0.46
4985.00,0.46
4984.00,0.46
4983.00,0.46
4982.00,0.46
4981.00,0.46
4980.00,0.46
4979.00,0.46
4978.00,0.46
4977.00,0.46
4976.00,0.46
4975.00,0.46
4974.00,0.46
4973.00,0.46
4972.00,0.46
4971.00,0.46
4970.00,0.46
4969.00,0.46
4968.00,0.46
4967.00,0.46
4966.00,0.46
4965.00,0.46
4964.00,0.46
4963.00,0.46
4962.00,0.46
4961.00,0.46
4960.00,0.46
4959.00,0.46
4958.00,0.46
4957.00,0.46
4956.00,0.46
4955.00,0.46
4954.00,0.46
4953.00,0.46
4952.00,0.46
4951.00,0.47
4950.00,0.47
4949.00,0.47
4948.00,0.47
4947.00,0.47
4946.00,0.47
4945.00,0.47
4944.00,0.47
4943.00,0.47
4942.00,0.47
4941.00,0.47
4940.00,0.47
4939.00,0.47
4938.00,0.47
4937.00,0.47
4936.00,0.48
4935.00,0.48
4934.00,0.48
4933.00,0.48
4932.00,0.48
4931.00,0.48
4930.00,0.48
4929.00,0.48
4928.00,0.48
4927.00,0.48
4926.00,0.48
4925.00,0.48
4924.00,0.48
4923.00,0.48
4922.00,0.48
4921.00,0.48
4920.00,0.48
4919.00,0.48
4918.00,0.48
4917.00,0.48
4916.00,0.48
4915.00,0.48
4914.00,0.48
4913.00,0.48
4912.00,0.48
4911.00,0.48
4910.00,0.49
4909.00,0.49
4908.00,0.49
4907.00,0.49
4906.00,0.49
4905.00,0.49
4904.00,0.49
4903.00,0.49
4902.00,0.49
4901.00,0.49
4900.00,0.49
4899.00,0.49
4898.00,0.49
4897.00,0.49
4896.00,0.49
4895.00,0.49
4894.00,0.49
4893.00,0.49
4892.00,0.49
4891.00,0.49
4890.00,0.49
4889.00,0.49
4888.00,0.49
4887.00,0.49
4886.00,0.49
4885.00,0.49
4884.00,0.49
4883.00,0.49
4882.00,0.49
4881.00,0.49
4880.00,0.49
4879.00,0.49
4878.00,0.49
4877.00,0.49
4876.00,0.49
4875.00,0.49
4874.00,0.49
4873.00,0.49
4872.00,0.49
4871.00,0.49
4870.00,0.49
4869.00,0.49
4868.00,0.49
4867.00,0.49
4866.00,0.49
4865.00,0.49
4864.00,0.49
4863.00,0.49
4862.00,0.49
4861.00,0.49
4860.00,0.49
4859.00,0.49
4858.00,0.49
4857.00,0.49
4856.00,0.49
4855.00,0.49
4854.00,0.50
4853.00,0.50
4852.00,0.50
4851.00,0.50
4850.00,0.50
4849.00,0.50
4848.00,0.50
4847.00,0.50
4846.00,0.50
4845.00,0.50
4844.00,0.50
4843.00,0.50
4842.00,0.50
4841.00,0.50
4840.00,0.50
4839.00,0.50
4838.00,0.50
4837.00,0.50
4836.00,0.50
4835.00,0.50
4834.00,0.50
4833.00,0.51
4832.00,0.51
4831.00,0.51
4830.00,0.51
4829.00,0.51
4828.00,0.51
4827.00,0.51
4826.00,0.51
4825.00,0.51
4824.00,0.51
4823.00,0.51
4822.00,0.51
4821.00,0.51
4820.00,0.51
4819.00,0.51
4818.00,0.51
4817.00,0.51
4816.00,0.51
4815.00,0.51
4814.00,0.51
4813.00,0.51
4812.00,0.51
4811.00,0.51
4810.00,0.51
4809.00,0.51
4808.00,0.51
4807.00,0.52
4806.00,0.52
4805.00,0.52
4804.00,0.52
4803.00,0.52
4802.00,0.52
4801.00,0.52
4800.00,0.52
4799.00,0.52
4798.00,0.52
4797.00,0.52
4796.00,0.52
4795.00,0.52
4794.00,0.52
4793.00,0.53
4792.00,0.53
4791.00,0.53
4790.00,0.53
4789.00,0.53
4788.00,0.53
4787.00,0.53
4786.00,0.53
4785.00,0.53
4784.00,0.53
4783.00,0.54
4782.00,0.54
4781.00,0.54
4780.00,0.54
4779.00,0.54
4778.00,0.54
4777.00,0.54
4776.00,0.54
4775.00,0.54
4774.00,0.54
4773.00,0.54
4772.00,0.54
4771.00,0.54
4770.00,0.54
4769.00,0.54
4768.00,0.54
4767.00,0.54
4766.00,0.54
4765.00,0.54
4764.00,0.54
4763.00,0.54
4762.00,0.54
4761.00,0.54
4760.00,0.54
4759.00,0.54
4758.00,0.55
4757.00,0.55
4756.00,0.55
4755.00,0.55
4754.00,0.55
4753.00,0.55
4752.00,0.55
4751.00,0.55
4750.00,0.55
4749.00,0.55
4748.00,0.55
4747.00,0.55
4746.00,0.55
4745.00,0.56
4744.00,0.56
4743.00,0.56
4742.00,0.56
4741.00,0.56
4740.00,0.56
4739.00,0.56
4738.00,0.56
4737.00,0.56
4736.00,0.56
4735.00,0.56
4734.00,0.56
4733.00,0.56
4732.00,0.56
4731.00,0.56
4730.00,0.57
4729.00,0.57
4728.00,0.57
4727.00,0.57
4726.00,0.57
4725.00,0.57
4724.00,0.57
4723.00,0.57
4722.00,0.57
4721.00,0.57
4720.00,0.57
4719.00,0.57
4718.00,0.57
4717.00,0.57
4716.00,0.57
4715.00,0.57
4714.00,0.57
4713.00,0.57
4712.00,0.57
4711.00,0.57
4710.00,0.57
4709.00,0.57
4708.00,0.57
4707.00,0.57
4706.00,0.58
4705.00,0.58
4704.00,0.58
4703.00,0.58
4702.00,0.58
4701.00,0.58
4700.00,0.58
4699.00,0.58
4698.00,0.58
4697.00,0.58
4696.00,0.58
4695.00,0.58
4694.00,0.58
4693.00,0.58
4692.00,0.59
4691.00,0.59
4690.00,0.59
4689.00,0.59
4688.00,0.59
4687.00,0.59
4686.00,0.59
4685.00,0.59
4684.00,0.59
4683.00,0.59
4682.00,0.59
4681.00,0.59
4680.00,0.59
4679.00,0.59
4678.00,0.59
4677.00,0.60
4676.00,0.60
4675.00,0.60
4674.00,0.60
4673.00,0.60
4672.00,0.60
4671.00,0.60
4670.00,0.60
4669.00,0.60
4668.00,0.60
4667.00,0.60
4666.00,0.60
4665.00,0.60
4664.00,0.60
4663.00,0.60
4662.00,0.61
4661.00,0.61
4660.00,0.61
4659.00,0.61
4658.00,0.61
4657.00,0.61
4656.00,0.61
4655.00,0.61
4654.00,0.61
4653.00,0.61
4652.00,0.61
4651.00,0.61
4650.00,0.61
4649.00,0.61
4648.00,0.61
4647.00,0.61
4646.00,0.62
4645.00,0.62
4644.00,0.62
4643.00,0.62
4642.00,0.62
4641.00,0.62
4640.00,0.62
4639.00,0.62
4638.00,0.62
4637.00,0.62
4636.00,0.62
4635.00,0.62
4634.00,0.62
4633.00,0.62
4632.00,0.62
4631.00,0.62
4630.00,0.62
4629.00,0.62
4628.00,0.62
4627.00,0.62
4626.00,0.62
4625.00,0.62
4624.00,0.62
4623.00,0.62
4622.00,0.62
4621.00,0.62
4620.00,0.63
4619.00,0.63
4618.00,0.63
4617.00,0.63
4616.00,0.63
4615.00,0.63
4614.00,0.63
4613.00,0.63
4612.00,0.63
4611.00,0.63
4610.00,0.63
4609.00,0.63
4608.00,0.63
4607.00,0.63
4606.00,0.63
4605.00,0.63
4604.00,0.63
4603.00,0.64
4602.00,0.64
4601.00,0.64
4600.00,0.64
4599.00,0.64
4598.00,0.64
4597.00,0.64
4596.00,0.64
4595.00,0.64
4594.00,0.64
4593.00,0.64
4592.00,0.64
4591.00,0.64
4590.00,0.64
4589.00,0.64
4588.00,0.64
4587.00,0.64
4586.00,0.64
4585.00,0.64
4584.00,0.64
4583.00,0.64
4582.00,0.64
4581.00,0.64
4580.00,0.64
4579.00,0.64
4578.00,0.64
4577.00,0.65
4576.00,0.65
4575.00,0.65
4574.00,0.65
4573.00,0.65
4572.00,0.65
4571.00,0.65
4570.00,0.65
4569.00,0.65
4568.00,0.65
4567.00,0.65
4566.00,0.65
4565.00,0.65
4564.00,0.65
4563.00,0.65
4562.00,0.65
4561.00,0.66
4560.00,0.66
4559.00,0.66
4558.00,0.66
4557.00,0.66
4556.00,0.66
4555.00,0.66
4554.00,0.66
4553.00,0.66
4552.00,0.66
4551.00,0.66
4550.00,0.66
4549.00,0.66
4548.00,0.66
4547.00,0.66
4546.00,0.66
4545.00,0.66
4544.00,0.66
4543.00,0.66
4542.00,0.66
4541.00,0.66
4540.00,0.66
4539.00,0.66
4538.00,0.66
4537.00,0.66
4536.00,0.66
4535.00,0.66
4534.00,0.66
4533.00,0.66
4532.00,0.66
4531.00,0.66
4530.00,0.66
4529.00,0.66
4528.00,0.66
4527.00,0.66
4526.00,0.67
4525.00,0.67
4524.00,0.67
4523.00,0.67
4522.00,0.67
4521.00,0.67
4520.00,0.67
4519.00,0.67
4518.00,0.67
4517.00,0.67
4516.00,0.67
4515.00,0.67
4514.00,0.67
4513.00,0.67
4512.00,0.67
4511.00,0.67
4510.00,0.67
4509.00,0.67
4508.00,0.67
4507.00,0.67
4506.00,0.67
4505.00,0.67
4504.00,0.67
4503.00,0.67
4502.00,0.67
4501.00,0.67
4500.00,0.67
4499.00,0.67
4498.00,0.67
4497.00,0.67
4496.00,0.67
4495.00,0.67
4494.00,0.67
4493.00,0.67
4492.00,0.67
4491.00,0.67
4490.00,0.67
4489.00,0.67
4488.00,0.67
4487.00,0.67
4486.00,0.67
4485.00,0.66
4484.00,0.66
4483.00,0.66
4482.00,0.66
4481.00,0.66
4480.00,0.66
4479.00,0.66
4478.00,0.66
4477.00,0.66
4476.00,0.66
4475.00,0.66
4474.00,0.66
4473.00,0.65
4472.00,0.65
4471.00,0.65
4470.00,0.65
4469.00,0.65
4468.00,0.65
4467.00,0.65
4466.00,0.65
4465.00,0.65
4464.00,0.65
4463.00,0.65
4462.00,0.65
4461.00,0.65
4460.00,0.65
4459.00,0.65
4458.00,0.65
4457.00,0.65
4456.00,0.64
4455.00,0.64
4454.00,0.64
4453.00,0.64
4452.00,0.64
4451.00,0.64
4450.00,0.64
4449.00,0.64
4448.00,0.63
4447.00,0.63
4446.00,0.63
4445.00,0.63
4444.00,0.63
4443.00,0.63
4442.00,0.63
4441.00,0.62
4440.00,0.62
4439.00,0.62
4438.00,0.62
4437.00,0.62
4436.00,0.62
4435.00,0.62
4434.00,0.61
4433.00,0.61
4432.00,0.61
4431.00,0.61
4430.00,0.61
4429.00,0.61
4428.00,0.61
4427.00,0.61
4426.00,0.61
4425.00,0.61
4424.00,0.61
4423.00,0.61
4422.00,0.61
4421.00,0.61
4420.00,0.61
4419.00,0.61
4418.00,0.61
4417.00,0.61
4416.00,0.61
4415.00,0.61
4414.00,0.61
4413.00,0.61
4412.00,0.61
4411.00,0.61
4410.00,0.61
4409.00,0.61
4408.00,0.61
4407.00,0.61
4406.00,0.61
4405.00,0.61
4404.00,0.61
4403.00,0.61
4402.00,0.61
4401.00,0.61
4400.00,0.61
4399.00,0.62
4398.00,0.62
4397.00,0.62
4396.00,0.62
4395.00,0.62
4394.00,0.62
4393.00,0.62
4392.00,0.62
4391.00,0.62
4390.00,0.62
4389.00,0.62
4388.00,0.62
4387.00,0.62
4386.00,0.62
4385.00,0.62
4384.00,0.62
4383.00,0.62
4382.00,0.62
4381.00,0.62
4380.00,0.63
4379.00,0.63
4378.00,0.63
4377.00,0.63
4376.00,0.63
4375.00,0.63
4374.00,0.63
4373.00,0.63
4372.00,0.63
4371.00,0.63
4370.00,0.63
4369.00,0.63
4368.00,0.63
4367.00,0.63
4366.00,0.63
4365.00,0.63
4364.00,0.63
4363.00,0.63
4362.00,0.63
4361.00,0.63
4360.00,0.63
4359.00,0.63
4358.00,0.63
4357.00,0.63
4356.00,0.63
4355.00,0.63
4354.00,0.63
4353.00,0.63
4352.00,0.63
4351.00,0.63
4350.00,0.63
4349.00,0.63
4348.00,0.63
4347.00,0.63
4346.00,0.63
4345.00,0.63
4344.00,0.63
4343.00,0.63
4342.00,0.63
4341.00,0.63
4340.00,0.63
4339.00,0.63
4338.00,0.63
4337.00,0.63
4336.00,0.63
4335.00,0.64
4334.00,0.64
4333.00,0.64
4332.00,0.64
4331.00,0.64
4330.00,0.64
4329.00,0.64
4328.00,0.64
4327.00,0.64
4326.00,0.64
4325.00,0.64
4324.00,0.65
4323.00,0.65
4322.00,0.65
4321.00,0.65
4320.00,0.65
4319.00,0.65
4318.00,0.65
4317.00,0.65
4316.00,0.65
4315.00,0.65
4314.00,0.65
4313.00,0.66
4312.00,0.66
4311.00,0.66
4310.00,0.66
4309.00,0.66
4308.00,0.66
4307.00,0.66
4306.00,0.66
4305.00,0.66
4304.00,0.66
4303.00,0.66
4302.00,0.66
4301.00,0.66
4300.00,0.66
4299.00,0.66
4298.00,0.66
4297.00,0.66
4296.00,0.66
4295.00,0.66
4294.00,0.66
4293.00,0.66
4292.00,0.66
4291.00,0.66
4290.00,0.66
4289.00,0.66
4288.00,0.66
4287.00,0.66
4286.00,0.66
4285.00,0.66
4284.00,0.66
4283.00,0.66
4282.00,0.67
4281.00,0.67
4280.00,0.67
4279.00,0.67
4278.00,0.67
4277.00,0.67
4276.00,0.67
4275.00,0.67
4274.00,0.67
4273.00,0.67
4272.00,0.67
4271.00,0.67
4270.00,0.67
4269.00,0.67
4268.00,0.67
4267.00,0.67
4266.00,0.67
4265.00,0.67
4264.00,0.67
4263.00,0.67
4262.00,0.67
4261.00,0.67
4260.00,0.67
4259.00,0.67
4258.00,0.67
4257.00,0.67
4256.00,0.67
4255.00,0.67
4254.00,0.67
4253.00,0.67
4252.00,0.67
4251.00,0.67
4250.00,0.67
4249.00,0.67
4248.00,0.67
4247.00,0.67
4246.00,0.67
4245.00,0.68
4244.00,0.68
4243.00,0.68
4242.00,0.68
4241.00,0.68
4240.00,0.68
4239.00,0.68
4238.00,0.68
4237.00,0.68
4236.00,0.68
4235.00,0.68
4234.00,0.68
4233.00,0.69
4232.00,0.69
4231.00,0.69
4230.00,0.69
4229.00,0.69
4228.00,0.69
4227.00,0.69
4226.00,0.69
4225.00,0.69
4224.00,0.69
4223.00,0.69
4222.00,0.69
4221.00,0.69
4220.00,0.69
4219.00,0.69
4218.00,0.69
4217.00,0.69
4216.00,0.69
4215.00,0.69
4214.00,0.69
4213.00,0.69
4212.00,0.69
4211.00,0.69
4210.00,0.69
4209.00,0.69
4208.00,0.69
4207.00,0.69
4206.00,0.69
4205.00,0.69
4204.00,0.69
4203.00,0.69
4202.00,0.69
4201.00,0.69
4200.00,0.69
4199.00,0.69
4198.00,0.69
4197.00,0.69
4196.00,0.69
4195.00,0.69
4194.00,0.69
4193.00,0.69
4192.00,0.69
4191.00,0.69
4190.00,0.69
4189.00,0.69
4188.00,0.69
4187.00,0.69
4186.00,0.69
4185.00,0.69
4184.00,0.69
4183.00,0.69
4182.00,0.69
4181.00,0.69
4180.00,0.69
4179.00,0.69
4178.00,0.69
4177.00,0.69
4176.00,0.69
4175.00,0.69
4174.00,0.70
4173.00,0.70
4172.00,0.70
4171.00,0.70
4170.00,0.70
4169.00,0.70
4168.00,0.70
4167.00,0.70
4166.00,0.70
4165.00,0.70
4164.00,0.70
4163.00,0.70
4162.00,0.70
4161.00,0.70
4160.00,0.71
4159.00,0.71
4158.00,0.71
4157.00,0.71
4156.00,0.71
4155.00,0.71
4154.00,0.71
4153.00,0.71
4152.00,0.71
4151.00,0.71
4150.00,0.71
4149.00,0.71
4148.00,0.71
4147.00,0.71
4146.00,0.71
4145.00,0.71
4144.00,0.71
4143.00,0.71
4142.00,0.71
4141.00,0.71
4140.00,0.71
4139.00,0.71
4138.00,0.71
4137.00,0.71
4136.00,0.71
4135.00,0.71
4134.00,0.71
4133.00,0.71
4132.00,0.71
4131.00,0.71
4130.00,0.71
4129.00,0.71
4128.00,0.72
4127.00,0.72
4126.00,0.72
4125.00,0.72
4124.00,0.72
4123.00,0.72
4122.00,0.72
4121.00,0.72
4120.00,0.72
4119.00,0.72
4118.00,0.72
4117.00,0.72
4116.00,0.72
4115.00,0.72
4114.00,0.72
4113.00,0.72
4112.00,0.72
4111.00,0.72
4110.00,0.72
4109.00,0.72
4108.00,0.72
4107.00,0.72
4106.00,0.72
4105.00,0.72
4104.00,0.72
4103.00,0.72
4102.00,0.72
4101.00,0.73
4100.00,0.73
4099.00,0.73
4098.00,0.73
4097.00,0.73
4096.00,0.73
4095.00,0.73
4094.00,0.73
4093.00,0.73
4092.00,0.73
4091.00,0.74
4090.00,0.74
4089.00,0.74
4088.00,0.74
4087.00,0.74
4086.00,0.74
4085.00,0.74
4084.00,0.74
4083.00,0.74
4082.00,0.74
4081.00,0.74
4080.00,0.74
4079.00,0.74
4078.00,0.74
4077.00,0.74
4076.00,0.74
4075.00,0.74
4074.00,0.74
4073.00,0.74
4072.00,0.74
4071.00,0.74
4070.00,0.74
4069.00,0.74
4068.00,0.74
4067.00,0.74
4066.00,0.74
4065.00,0.74
4064.00,0.74
4063.00,0.74
4062.00,0.74
4061.00,0.74
4060.00,0.74
4059.00,0.74
4058.00,0.74
4057.00,0.74
4056.00,0.74
4055.00,0.74
4054.00,0.73
4053.00,0.73
4052.00,0.73
4051.00,0.73
4050.00,0.73
4049.00,0.73
4048.00,0.73
4047.00,0.73
4046.00,0.73
4045.00,0.73
4044.00,0.73
4043.00,0.73
4042.00,0.73
4041.00,0.74
4040.00,0.74
4039.00,0.74
4038.00,0.74
4037.00,0.74
4036.00,0.74
4035.00,0.74
4034.00,0.74
4033.00,0.74
4032.00,0.74
4031.00,0.74
4030.00,0.74
4029.00,0.74
4028.00,0.74
4027.00,0.73
4026.00,0.73
4025.00,0.73
4024.00,0.73
4023.00,0.73
4022.00,0.73
4021.00,0.74
4020.00,0.74
4019.00,0.74
4018.00,0.74
4017.00,0.74
4016.00,0.74
4015.00,0.74
4014.00,0.74
4013.00,0.74
4012.00,0.74
4011.00,0.74
4010.00,0.74
4009.00,0.74
4008.00,0.75
4007.00,0.75
4006.00,0.75
4005.00,0.75
4004.00,0.75
4003.00,0.75
4002.00,0.75
4001.00,0.75
4000.00,0.75
