创建为新数据集,样品 771 用户 Administrator 日期 星期五, 七月 20 2018
cm-1,%T
10000.00,1.75
9999.00,1.75
9998.00,1.75
9997.00,1.75
9996.00,1.75
9995.00,1.74
9994.00,1.74
9993.00,1.74
9992.00,1.74
9991.00,1.74
9990.00,1.74
9989.00,1.74
9988.00,1.74
9987.00,1.74
9986.00,1.74
9985.00,1.74
9984.00,1.74
9983.00,1.74
9982.00,1.74
9981.00,1.74
9980.00,1.74
9979.00,1.74
9978.00,1.74
9977.00,1.74
9976.00,1.74
9975.00,1.74
9974.00,1.74
9973.00,1.74
9972.00,1.74
9971.00,1.74
9970.00,1.74
9969.00,1.73
9968.00,1.73
9967.00,1.73
9966.00,1.73
9965.00,1.73
9964.00,1.73
9963.00,1.73
9962.00,1.73
9961.00,1.73
9960.00,1.73
9959.00,1.73
9958.00,1.73
9957.00,1.73
9956.00,1.73
9955.00,1.73
9954.00,1.73
9953.00,1.73
9952.00,1.73
9951.00,1.73
9950.00,1.73
9949.00,1.73
9948.00,1.73
9947.00,1.73
9946.00,1.73
9945.00,1.73
9944.00,1.73
9943.00,1.73
9942.00,1.74
9941.00,1.74
9940.00,1.74
9939.00,1.74
9938.00,1.74
9937.00,1.74
9936.00,1.74
9935.00,1.74
9934.00,1.74
9933.00,1.74
9932.00,1.74
9931.00,1.74
9930.00,1.74
9929.00,1.74
9928.00,1.74
9927.00,1.74
9926.00,1.74
9925.00,1.74
9924.00,1.74
9923.00,1.74
9922.00,1.75
9921.00,1.75
9920.00,1.75
9919.00,1.75
9918.00,1.75
9917.00,1.75
9916.00,1.75
9915.00,1.75
9914.00,1.75
9913.00,1.75
9912.00,1.75
9911.00,1.75
9910.00,1.75
9909.00,1.75
9908.00,1.74
9907.00,1.74
9906.00,1.74
9905.00,1.74
9904.00,1.74
9903.00,1.74
9902.00,1.74
9901.00,1.73
9900.00,1.73
9899.00,1.73
9898.00,1.73
9897.00,1.73
9896.00,1.73
9895.00,1.73
9894.00,1.73
9893.00,1.73
9892.00,1.73
9891.00,1.73
9890.00,1.73
9889.00,1.73
9888.00,1.73
9887.00,1.73
9886.00,1.73
9885.00,1.73
9884.00,1.73
9883.00,1.73
9882.00,1.73
9881.00,1.73
9880.00,1.73
9879.00,1.73
9878.00,1.73
9877.00,1.73
9876.00,1.73
9875.00,1.73
9874.00,1.73
9873.00,1.73
9872.00,1.73
9871.00,1.73
9870.00,1.73
9869.00,1.73
9868.00,1.73
9867.00,1.73
9866.00,1.73
9865.00,1.73
9864.00,1.74
9863.00,1.74
9862.00,1.74
9861.00,1.74
9860.00,1.74
9859.00,1.74
9858.00,1.74
9857.00,1.74
9856.00,1.74
9855.00,1.74
9854.00,1.74
9853.00,1.74
9852.00,1.74
9851.00,1.74
9850.00,1.74
9849.00,1.74
9848.00,1.74
9847.00,1.74
9846.00,1.74
9845.00,1.74
9844.00,1.73
9843.00,1.73
9842.00,1.73
9841.00,1.73
9840.00,1.73
9839.00,1.73
9838.00,1.73
9837.00,1.73
9836.00,1.73
9835.00,1.72
9834.00,1.72
9833.00,1.72
9832.00,1.72
9831.00,1.72
9830.00,1.72
9829.00,1.72
9828.00,1.72
9827.00,1.72
9826.00,1.73
9825.00,1.73
9824.00,1.73
9823.00,1.73
9822.00,1.73
9821.00,1.73
9820.00,1.73
9819.00,1.73
9818.00,1.73
9817.00,1.74
9816.00,1.74
9815.00,1.74
9814.00,1.74
9813.00,1.74
9812.00,1.74
9811.00,1.74
9810.00,1.74
9809.00,1.74
9808.00,1.74
9807.00,1.74
9806.00,1.74
9805.00,1.74
9804.00,1.74
9803.00,1.74
9802.00,1.74
9801.00,1.74
9800.00,1.74
9799.00,1.74
9798.00,1.73
9797.00,1.73
9796.00,1.73
9795.00,1.73
9794.00,1.72
9793.00,1.72
9792.00,1.72
9791.00,1.72
9790.00,1.72
9789.00,1.71
9788.00,1.71
9787.00,1.71
9786.00,1.71
9785.00,1.71
9784.00,1.71
9783.00,1.71
9782.00,1.71
9781.00,1.71
9780.00,1.72
9779.00,1.72
9778.00,1.72
9777.00,1.72
9776.00,1.72
9775.00,1.72
9774.00,1.73
9773.00,1.73
9772.00,1.73
9771.00,1.73
9770.00,1.73
9769.00,1.73
9768.00,1.74
9767.00,1.74
9766.00,1.74
9765.00,1.74
9764.00,1.74
9763.00,1.74
9762.00,1.74
9761.00,1.74
9760.00,1.74
9759.00,1.74
9758.00,1.74
9757.00,1.74
9756.00,1.74
9755.00,1.74
9754.00,1.74
9753.00,1.73
9752.00,1.73
9751.00,1.73
9750.00,1.72
9749.00,1.72
9748.00,1.72
9747.00,1.71
9746.00,1.71
9745.00,1.70
9744.00,1.70
9743.00,1.70
9742.00,1.69
9741.00,1.69
9740.00,1.69
9739.00,1.69
9738.00,1.69
9737.00,1.69
9736.00,1.69
9735.00,1.69
9734.00,1.69
9733.00,1.69
9732.00,1.69
9731.00,1.70
9730.00,1.70
9729.00,1.70
9728.00,1.70
9727.00,1.70
9726.00,1.70
9725.00,1.71
9724.00,1.71
9723.00,1.71
9722.00,1.71
9721.00,1.71
9720.00,1.71
9719.00,1.71
9718.00,1.70
9717.00,1.70
9716.00,1.70
9715.00,1.70
9714.00,1.70
9713.00,1.70
9712.00,1.70
9711.00,1.70
9710.00,1.70
9709.00,1.70
9708.00,1.71
9707.00,1.71
9706.00,1.71
9705.00,1.71
9704.00,1.71
9703.00,1.71
9702.00,1.71
9701.00,1.71
9700.00,1.71
9699.00,1.71
9698.00,1.71
9697.00,1.71
9696.00,1.71
9695.00,1.71
9694.00,1.71
9693.00,1.71
9692.00,1.71
9691.00,1.71
9690.00,1.71
9689.00,1.71
9688.00,1.71
9687.00,1.71
9686.00,1.71
9685.00,1.71
9684.00,1.72
9683.00,1.72
9682.00,1.72
9681.00,1.72
9680.00,1.72
9679.00,1.73
9678.00,1.73
9677.00,1.73
9676.00,1.73
9675.00,1.73
9674.00,1.73
9673.00,1.73
9672.00,1.73
9671.00,1.73
9670.00,1.73
9669.00,1.73
9668.00,1.73
9667.00,1.73
9666.00,1.73
9665.00,1.72
9664.00,1.72
9663.00,1.72
9662.00,1.72
9661.00,1.72
9660.00,1.72
9659.00,1.73
9658.00,1.73
9657.00,1.73
9656.00,1.73
9655.00,1.73
9654.00,1.73
9653.00,1.73
9652.00,1.73
9651.00,1.72
9650.00,1.72
9649.00,1.72
9648.00,1.72
9647.00,1.72
9646.00,1.72
9645.00,1.72
9644.00,1.72
9643.00,1.72
9642.00,1.72
9641.00,1.72
9640.00,1.72
9639.00,1.72
9638.00,1.72
9637.00,1.72
9636.00,1.72
9635.00,1.72
9634.00,1.72
9633.00,1.72
9632.00,1.71
9631.00,1.71
9630.00,1.71
9629.00,1.71
9628.00,1.71
9627.00,1.71
9626.00,1.71
9625.00,1.71
9624.00,1.71
9623.00,1.71
9622.00,1.71
9621.00,1.71
9620.00,1.71
9619.00,1.71
9618.00,1.71
9617.00,1.71
9616.00,1.71
9615.00,1.71
9614.00,1.71
9613.00,1.71
9612.00,1.71
9611.00,1.71
9610.00,1.72
9609.00,1.72
9608.00,1.72
9607.00,1.72
9606.00,1.72
9605.00,1.72
9604.00,1.72
9603.00,1.72
9602.00,1.72
9601.00,1.72
9600.00,1.72
9599.00,1.72
9598.00,1.72
9597.00,1.72
9596.00,1.71
9595.00,1.71
9594.00,1.71
9593.00,1.71
9592.00,1.71
9591.00,1.71
9590.00,1.71
9589.00,1.70
9588.00,1.70
9587.00,1.70
9586.00,1.70
9585.00,1.71
9584.00,1.71
9583.00,1.71
9582.00,1.71
9581.00,1.71
9580.00,1.71
9579.00,1.71
9578.00,1.71
9577.00,1.72
9576.00,1.72
9575.00,1.72
9574.00,1.72
9573.00,1.72
9572.00,1.72
9571.00,1.72
9570.00,1.72
9569.00,1.72
9568.00,1.72
9567.00,1.72
9566.00,1.72
9565.00,1.72
9564.00,1.72
9563.00,1.72
9562.00,1.72
9561.00,1.72
9560.00,1.72
9559.00,1.72
9558.00,1.72
9557.00,1.72
9556.00,1.72
9555.00,1.72
9554.00,1.72
9553.00,1.72
9552.00,1.72
9551.00,1.72
9550.00,1.72
9549.00,1.72
9548.00,1.72
9547.00,1.72
9546.00,1.72
9545.00,1.72
9544.00,1.72
9543.00,1.72
9542.00,1.72
9541.00,1.72
9540.00,1.72
9539.00,1.72
9538.00,1.72
9537.00,1.73
9536.00,1.73
9535.00,1.73
9534.00,1.73
9533.00,1.73
9532.00,1.73
9531.00,1.74
9530.00,1.74
9529.00,1.74
9528.00,1.74
9527.00,1.74
9526.00,1.74
9525.00,1.75
9524.00,1.75
9523.00,1.75
9522.00,1.75
9521.00,1.75
9520.00,1.75
9519.00,1.75
9518.00,1.75
9517.00,1.75
9516.00,1.75
9515.00,1.75
9514.00,1.75
9513.00,1.75
9512.00,1.75
9511.00,1.75
9510.00,1.75
9509.00,1.75
9508.00,1.75
9507.00,1.74
9506.00,1.74
9505.00,1.74
9504.00,1.74
9503.00,1.74
9502.00,1.74
9501.00,1.74
9500.00,1.74
9499.00,1.74
9498.00,1.74
9497.00,1.74
9496.00,1.74
9495.00,1.73
9494.00,1.73
9493.00,1.73
9492.00,1.73
9491.00,1.73
9490.00,1.73
9489.00,1.72
9488.00,1.72
9487.00,1.72
9486.00,1.72
9485.00,1.72
9484.00,1.72
9483.00,1.72
9482.00,1.72
9481.00,1.72
9480.00,1.72
9479.00,1.72
9478.00,1.72
9477.00,1.72
9476.00,1.72
9475.00,1.72
9474.00,1.72
9473.00,1.72
9472.00,1.72
9471.00,1.72
9470.00,1.72
9469.00,1.72
9468.00,1.72
9467.00,1.72
9466.00,1.72
9465.00,1.72
9464.00,1.72
9463.00,1.72
9462.00,1.72
9461.00,1.72
9460.00,1.72
9459.00,1.72
9458.00,1.72
9457.00,1.72
9456.00,1.72
9455.00,1.72
9454.00,1.72
9453.00,1.73
9452.00,1.73
9451.00,1.73
9450.00,1.73
9449.00,1.73
9448.00,1.73
9447.00,1.74
9446.00,1.74
9445.00,1.74
9444.00,1.74
9443.00,1.74
9442.00,1.74
9441.00,1.74
9440.00,1.74
9439.00,1.73
9438.00,1.73
9437.00,1.73
9436.00,1.73
9435.00,1.72
9434.00,1.72
9433.00,1.72
9432.00,1.72
9431.00,1.71
9430.00,1.71
9429.00,1.71
9428.00,1.71
9427.00,1.71
9426.00,1.71
9425.00,1.70
9424.00,1.70
9423.00,1.71
9422.00,1.71
9421.00,1.71
9420.00,1.71
9419.00,1.71
9418.00,1.71
9417.00,1.71
9416.00,1.72
9415.00,1.72
9414.00,1.72
9413.00,1.73
9412.00,1.73
9411.00,1.73
9410.00,1.73
9409.00,1.73
9408.00,1.74
9407.00,1.74
9406.00,1.74
9405.00,1.74
9404.00,1.74
9403.00,1.74
9402.00,1.74
9401.00,1.74
9400.00,1.74
9399.00,1.73
9398.00,1.73
9397.00,1.73
9396.00,1.73
9395.00,1.73
9394.00,1.73
9393.00,1.73
9392.00,1.73
9391.00,1.73
9390.00,1.73
9389.00,1.73
9388.00,1.73
9387.00,1.73
9386.00,1.73
9385.00,1.73
9384.00,1.73
9383.00,1.73
9382.00,1.73
9381.00,1.73
9380.00,1.73
9379.00,1.73
9378.00,1.73
9377.00,1.73
9376.00,1.73
9375.00,1.73
9374.00,1.73
9373.00,1.74
9372.00,1.74
9371.00,1.74
9370.00,1.74
9369.00,1.74
9368.00,1.74
9367.00,1.74
9366.00,1.74
9365.00,1.74
9364.00,1.75
9363.00,1.75
9362.00,1.75
9361.00,1.75
9360.00,1.75
9359.00,1.75
9358.00,1.75
9357.00,1.75
9356.00,1.75
9355.00,1.75
9354.00,1.75
9353.00,1.74
9352.00,1.74
9351.00,1.74
9350.00,1.74
9349.00,1.74
9348.00,1.73
9347.00,1.73
9346.00,1.73
9345.00,1.73
9344.00,1.72
9343.00,1.72
9342.00,1.72
9341.00,1.72
9340.00,1.72
9339.00,1.71
9338.00,1.71
9337.00,1.71
9336.00,1.71
9335.00,1.71
9334.00,1.71
9333.00,1.71
9332.00,1.72
9331.00,1.72
9330.00,1.72
9329.00,1.72
9328.00,1.72
9327.00,1.72
9326.00,1.73
9325.00,1.73
9324.00,1.73
9323.00,1.73
9322.00,1.73
9321.00,1.74
9320.00,1.74
9319.00,1.74
9318.00,1.74
9317.00,1.74
9316.00,1.74
9315.00,1.74
9314.00,1.74
9313.00,1.74
9312.00,1.74
9311.00,1.73
9310.00,1.73
9309.00,1.73
9308.00,1.73
9307.00,1.73
9306.00,1.73
9305.00,1.73
9304.00,1.73
9303.00,1.73
9302.00,1.73
9301.00,1.73
9300.00,1.73
9299.00,1.73
9298.00,1.73
9297.00,1.73
9296.00,1.73
9295.00,1.73
9294.00,1.73
9293.00,1.73
9292.00,1.73
9291.00,1.73
9290.00,1.73
9289.00,1.74
9288.00,1.74
9287.00,1.74
9286.00,1.74
9285.00,1.74
9284.00,1.74
9283.00,1.74
9282.00,1.74
9281.00,1.73
9280.00,1.73
9279.00,1.73
9278.00,1.73
9277.00,1.73
9276.00,1.73
9275.00,1.73
9274.00,1.73
9273.00,1.73
9272.00,1.72
9271.00,1.72
9270.00,1.72
9269.00,1.72
9268.00,1.72
9267.00,1.72
9266.00,1.72
9265.00,1.72
9264.00,1.72
9263.00,1.72
9262.00,1.72
9261.00,1.72
9260.00,1.72
9259.00,1.72
9258.00,1.72
9257.00,1.72
9256.00,1.72
9255.00,1.72
9254.00,1.72
9253.00,1.72
9252.00,1.72
9251.00,1.72
9250.00,1.72
9249.00,1.72
9248.00,1.73
9247.00,1.73
9246.00,1.73
9245.00,1.73
9244.00,1.73
9243.00,1.73
9242.00,1.73
9241.00,1.73
9240.00,1.73
9239.00,1.73
9238.00,1.73
9237.00,1.73
9236.00,1.73
9235.00,1.73
9234.00,1.73
9233.00,1.73
9232.00,1.73
9231.00,1.73
9230.00,1.73
9229.00,1.73
9228.00,1.73
9227.00,1.73
9226.00,1.73
9225.00,1.73
9224.00,1.73
9223.00,1.73
9222.00,1.73
9221.00,1.73
9220.00,1.73
9219.00,1.73
9218.00,1.73
9217.00,1.73
9216.00,1.73
9215.00,1.73
9214.00,1.73
9213.00,1.73
9212.00,1.73
9211.00,1.74
9210.00,1.74
9209.00,1.74
9208.00,1.74
9207.00,1.74
9206.00,1.74
9205.00,1.74
9204.00,1.74
9203.00,1.74
9202.00,1.74
9201.00,1.74
9200.00,1.75
9199.00,1.75
9198.00,1.75
9197.00,1.75
9196.00,1.75
9195.00,1.75
9194.00,1.75
9193.00,1.75
9192.00,1.75
9191.00,1.75
9190.00,1.75
9189.00,1.75
9188.00,1.74
9187.00,1.74
9186.00,1.74
9185.00,1.74
9184.00,1.74
9183.00,1.74
9182.00,1.74
9181.00,1.74
9180.00,1.73
9179.00,1.73
9178.00,1.73
9177.00,1.73
9176.00,1.73
9175.00,1.73
9174.00,1.73
9173.00,1.73
9172.00,1.73
9171.00,1.73
9170.00,1.73
9169.00,1.73
9168.00,1.73
9167.00,1.73
9166.00,1.73
9165.00,1.73
9164.00,1.73
9163.00,1.73
9162.00,1.74
9161.00,1.74
9160.00,1.74
9159.00,1.74
9158.00,1.74
9157.00,1.74
9156.00,1.74
9155.00,1.74
9154.00,1.74
9153.00,1.74
9152.00,1.74
9151.00,1.75
9150.00,1.75
9149.00,1.75
9148.00,1.75
9147.00,1.75
9146.00,1.75
9145.00,1.75
9144.00,1.75
9143.00,1.75
9142.00,1.75
9141.00,1.74
9140.00,1.74
9139.00,1.74
9138.00,1.74
9137.00,1.74
9136.00,1.74
9135.00,1.74
9134.00,1.74
9133.00,1.74
9132.00,1.74
9131.00,1.74
9130.00,1.74
9129.00,1.74
9128.00,1.74
9127.00,1.74
9126.00,1.74
9125.00,1.74
9124.00,1.74
9123.00,1.74
9122.00,1.74
9121.00,1.74
9120.00,1.74
9119.00,1.74
9118.00,1.74
9117.00,1.73
9116.00,1.73
9115.00,1.73
9114.00,1.73
9113.00,1.73
9112.00,1.73
9111.00,1.73
9110.00,1.73
9109.00,1.73
9108.00,1.73
9107.00,1.73
9106.00,1.73
9105.00,1.73
9104.00,1.73
9103.00,1.73
9102.00,1.73
9101.00,1.73
9100.00,1.73
9099.00,1.73
9098.00,1.74
9097.00,1.74
9096.00,1.74
9095.00,1.74
9094.00,1.74
9093.00,1.74
9092.00,1.74
9091.00,1.74
9090.00,1.74
9089.00,1.74
9088.00,1.74
9087.00,1.74
9086.00,1.74
9085.00,1.74
9084.00,1.74
9083.00,1.74
9082.00,1.74
9081.00,1.74
9080.00,1.74
9079.00,1.74
9078.00,1.73
9077.00,1.73
9076.00,1.73
9075.00,1.73
9074.00,1.73
9073.00,1.73
9072.00,1.73
9071.00,1.73
9070.00,1.73
9069.00,1.73
9068.00,1.73
9067.00,1.73
9066.00,1.73
9065.00,1.73
9064.00,1.73
9063.00,1.73
9062.00,1.72
9061.00,1.72
9060.00,1.72
9059.00,1.72
9058.00,1.72
9057.00,1.72
9056.00,1.72
9055.00,1.72
9054.00,1.72
9053.00,1.72
9052.00,1.72
9051.00,1.72
9050.00,1.72
9049.00,1.72
9048.00,1.72
9047.00,1.73
9046.00,1.73
9045.00,1.73
9044.00,1.73
9043.00,1.73
9042.00,1.73
9041.00,1.73
9040.00,1.73
9039.00,1.73
9038.00,1.73
9037.00,1.74
9036.00,1.74
9035.00,1.74
9034.00,1.74
9033.00,1.74
9032.00,1.74
9031.00,1.74
9030.00,1.74
9029.00,1.74
9028.00,1.74
9027.00,1.74
9026.00,1.74
9025.00,1.74
9024.00,1.74
9023.00,1.74
9022.00,1.74
9021.00,1.75
9020.00,1.75
9019.00,1.75
9018.00,1.75
9017.00,1.75
9016.00,1.75
9015.00,1.75
9014.00,1.75
9013.00,1.75
9012.00,1.75
9011.00,1.75
9010.00,1.74
9009.00,1.74
9008.00,1.74
9007.00,1.74
9006.00,1.74
9005.00,1.74
9004.00,1.74
9003.00,1.74
9002.00,1.74
9001.00,1.73
9000.00,1.73
8999.00,1.73
8998.00,1.73
8997.00,1.73
8996.00,1.73
8995.00,1.73
8994.00,1.73
8993.00,1.73
8992.00,1.73
8991.00,1.73
8990.00,1.73
8989.00,1.73
8988.00,1.73
8987.00,1.73
8986.00,1.73
8985.00,1.73
8984.00,1.73
8983.00,1.73
8982.00,1.73
8981.00,1.73
8980.00,1.73
8979.00,1.73
8978.00,1.73
8977.00,1.73
8976.00,1.74
8975.00,1.74
8974.00,1.74
8973.00,1.74
8972.00,1.74
8971.00,1.74
8970.00,1.74
8969.00,1.74
8968.00,1.74
8967.00,1.74
8966.00,1.74
8965.00,1.74
8964.00,1.74
8963.00,1.74
8962.00,1.74
8961.00,1.74
8960.00,1.74
8959.00,1.74
8958.00,1.74
8957.00,1.74
8956.00,1.74
8955.00,1.74
8954.00,1.74
8953.00,1.74
8952.00,1.74
8951.00,1.74
8950.00,1.74
8949.00,1.74
8948.00,1.74
8947.00,1.74
8946.00,1.74
8945.00,1.75
8944.00,1.75
8943.00,1.75
8942.00,1.75
8941.00,1.75
8940.00,1.75
8939.00,1.75
8938.00,1.75
8937.00,1.75
8936.00,1.75
8935.00,1.75
8934.00,1.75
8933.00,1.75
8932.00,1.75
8931.00,1.75
8930.00,1.75
8929.00,1.75
8928.00,1.74
8927.00,1.74
8926.00,1.74
8925.00,1.74
8924.00,1.74
8923.00,1.74
8922.00,1.74
8921.00,1.74
8920.00,1.73
8919.00,1.73
8918.00,1.73
8917.00,1.73
8916.00,1.73
8915.00,1.73
8914.00,1.73
8913.00,1.73
8912.00,1.73
8911.00,1.73
8910.00,1.73
8909.00,1.73
8908.00,1.74
8907.00,1.74
8906.00,1.74
8905.00,1.74
8904.00,1.74
8903.00,1.74
8902.00,1.74
8901.00,1.74
8900.00,1.74
8899.00,1.74
8898.00,1.75
8897.00,1.75
8896.00,1.75
8895.00,1.74
8894.00,1.74
8893.00,1.74
8892.00,1.74
8891.00,1.74
8890.00,1.74
8889.00,1.74
8888.00,1.74
8887.00,1.74
8886.00,1.74
8885.00,1.74
8884.00,1.74
8883.00,1.74
8882.00,1.74
8881.00,1.73
8880.00,1.73
8879.00,1.74
8878.00,1.74
8877.00,1.74
8876.00,1.74
8875.00,1.74
8874.00,1.74
8873.00,1.74
8872.00,1.74
8871.00,1.74
8870.00,1.74
8869.00,1.74
8868.00,1.74
8867.00,1.74
8866.00,1.74
8865.00,1.74
8864.00,1.74
8863.00,1.74
8862.00,1.74
8861.00,1.74
8860.00,1.74
8859.00,1.74
8858.00,1.74
8857.00,1.74
8856.00,1.74
8855.00,1.74
8854.00,1.74
8853.00,1.73
8852.00,1.73
8851.00,1.73
8850.00,1.73
8849.00,1.73
8848.00,1.73
8847.00,1.73
8846.00,1.73
8845.00,1.73
8844.00,1.73
8843.00,1.72
8842.00,1.72
8841.00,1.72
8840.00,1.72
8839.00,1.72
8838.00,1.72
8837.00,1.72
8836.00,1.72
8835.00,1.71
8834.00,1.71
8833.00,1.71
8832.00,1.71
8831.00,1.71
8830.00,1.71
8829.00,1.71
8828.00,1.71
8827.00,1.71
8826.00,1.71
8825.00,1.71
8824.00,1.71
8823.00,1.71
8822.00,1.71
8821.00,1.71
8820.00,1.71
8819.00,1.71
8818.00,1.71
8817.00,1.71
8816.00,1.71
8815.00,1.71
8814.00,1.71
8813.00,1.71
8812.00,1.71
8811.00,1.71
8810.00,1.70
8809.00,1.70
8808.00,1.70
8807.00,1.70
8806.00,1.70
8805.00,1.70
8804.00,1.70
8803.00,1.70
8802.00,1.70
8801.00,1.70
8800.00,1.70
8799.00,1.70
8798.00,1.70
8797.00,1.70
8796.00,1.70
8795.00,1.70
8794.00,1.70
8793.00,1.70
8792.00,1.70
8791.00,1.70
8790.00,1.70
8789.00,1.70
8788.00,1.70
8787.00,1.70
8786.00,1.70
8785.00,1.70
8784.00,1.70
8783.00,1.70
8782.00,1.70
8781.00,1.70
8780.00,1.70
8779.00,1.70
8778.00,1.70
8777.00,1.70
8776.00,1.70
8775.00,1.70
8774.00,1.70
8773.00,1.70
8772.00,1.69
8771.00,1.69
8770.00,1.69
8769.00,1.69
8768.00,1.69
8767.00,1.69
8766.00,1.69
8765.00,1.69
8764.00,1.68
8763.00,1.68
8762.00,1.68
8761.00,1.68
8760.00,1.68
8759.00,1.68
8758.00,1.67
8757.00,1.67
8756.00,1.67
8755.00,1.67
8754.00,1.67
8753.00,1.67
8752.00,1.66
8751.00,1.66
8750.00,1.66
8749.00,1.66
8748.00,1.66
8747.00,1.66
8746.00,1.66
8745.00,1.65
8744.00,1.65
8743.00,1.65
8742.00,1.65
8741.00,1.65
8740.00,1.65
8739.00,1.64
8738.00,1.64
8737.00,1.64
8736.00,1.64
8735.00,1.64
8734.00,1.64
8733.00,1.64
8732.00,1.63
8731.00,1.63
8730.00,1.63
8729.00,1.63
8728.00,1.63
8727.00,1.63
8726.00,1.63
8725.00,1.63
8724.00,1.63
8723.00,1.63
8722.00,1.63
8721.00,1.63
8720.00,1.63
8719.00,1.63
8718.00,1.63
8717.00,1.63
8716.00,1.63
8715.00,1.63
8714.00,1.63
8713.00,1.63
8712.00,1.63
8711.00,1.63
8710.00,1.63
8709.00,1.63
8708.00,1.63
8707.00,1.63
8706.00,1.64
8705.00,1.64
8704.00,1.64
8703.00,1.64
8702.00,1.64
8701.00,1.64
8700.00,1.64
8699.00,1.64
8698.00,1.64
8697.00,1.63
8696.00,1.63
8695.00,1.63
8694.00,1.63
8693.00,1.63
8692.00,1.63
8691.00,1.63
8690.00,1.63
8689.00,1.63
8688.00,1.63
8687.00,1.63
8686.00,1.63
8685.00,1.63
8684.00,1.63
8683.00,1.63
8682.00,1.63
8681.00,1.63
8680.00,1.62
8679.00,1.62
8678.00,1.62
8677.00,1.62
8676.00,1.62
8675.00,1.62
8674.00,1.62
8673.00,1.62
8672.00,1.62
8671.00,1.62
8670.00,1.62
8669.00,1.63
8668.00,1.63
8667.00,1.63
8666.00,1.63
8665.00,1.63
8664.00,1.63
8663.00,1.63
8662.00,1.63
8661.00,1.63
8660.00,1.63
8659.00,1.63
8658.00,1.63
8657.00,1.63
8656.00,1.63
8655.00,1.63
8654.00,1.63
8653.00,1.63
8652.00,1.63
8651.00,1.63
8650.00,1.63
8649.00,1.63
8648.00,1.63
8647.00,1.62
8646.00,1.62
8645.00,1.62
8644.00,1.62
8643.00,1.62
8642.00,1.62
8641.00,1.62
8640.00,1.62
8639.00,1.62
8638.00,1.62
8637.00,1.62
8636.00,1.62
8635.00,1.62
8634.00,1.62
8633.00,1.62
8632.00,1.62
8631.00,1.62
8630.00,1.62
8629.00,1.62
8628.00,1.62
8627.00,1.62
8626.00,1.62
8625.00,1.62
8624.00,1.62
8623.00,1.62
8622.00,1.62
8621.00,1.62
8620.00,1.62
8619.00,1.62
8618.00,1.62
8617.00,1.62
8616.00,1.62
8615.00,1.62
8614.00,1.61
8613.00,1.61
8612.00,1.61
8611.00,1.61
8610.00,1.61
8609.00,1.61
8608.00,1.61
8607.00,1.61
8606.00,1.61
8605.00,1.61
8604.00,1.60
8603.00,1.60
8602.00,1.60
8601.00,1.60
8600.00,1.60
8599.00,1.60
8598.00,1.60
8597.00,1.60
8596.00,1.60
8595.00,1.60
8594.00,1.59
8593.00,1.59
8592.00,1.59
8591.00,1.59
8590.00,1.59
8589.00,1.59
8588.00,1.59
8587.00,1.58
8586.00,1.58
8585.00,1.58
8584.00,1.58
8583.00,1.58
8582.00,1.58
8581.00,1.58
8580.00,1.58
8579.00,1.58
8578.00,1.58
8577.00,1.58
8576.00,1.58
8575.00,1.58
8574.00,1.58
8573.00,1.58
8572.00,1.58
8571.00,1.58
8570.00,1.58
8569.00,1.57
8568.00,1.57
8567.00,1.57
8566.00,1.57
8565.00,1.57
8564.00,1.57
8563.00,1.57
8562.00,1.58
8561.00,1.58
8560.00,1.58
8559.00,1.58
8558.00,1.58
8557.00,1.58
8556.00,1.58
8555.00,1.58
8554.00,1.58
8553.00,1.58
8552.00,1.58
8551.00,1.58
8550.00,1.58
8549.00,1.58
8548.00,1.58
8547.00,1.58
8546.00,1.58
8545.00,1.57
8544.00,1.57
8543.00,1.57
8542.00,1.57
8541.00,1.57
8540.00,1.57
8539.00,1.57
8538.00,1.57
8537.00,1.57
8536.00,1.57
8535.00,1.57
8534.00,1.57
8533.00,1.57
8532.00,1.57
8531.00,1.57
8530.00,1.57
8529.00,1.57
8528.00,1.57
8527.00,1.57
8526.00,1.57
8525.00,1.57
8524.00,1.57
8523.00,1.57
8522.00,1.56
8521.00,1.56
8520.00,1.56
8519.00,1.56
8518.00,1.56
8517.00,1.56
8516.00,1.56
8515.00,1.56
8514.00,1.56
8513.00,1.56
8512.00,1.56
8511.00,1.56
8510.00,1.56
8509.00,1.55
8508.00,1.55
8507.00,1.55
8506.00,1.55
8505.00,1.55
8504.00,1.55
8503.00,1.55
8502.00,1.55
8501.00,1.55
8500.00,1.54
8499.00,1.54
8498.00,1.54
8497.00,1.54
8496.00,1.53
8495.00,1.53
8494.00,1.53
8493.00,1.52
8492.00,1.52
8491.00,1.52
8490.00,1.52
8489.00,1.51
8488.00,1.51
8487.00,1.51
8486.00,1.51
8485.00,1.51
8484.00,1.51
8483.00,1.50
8482.00,1.50
8481.00,1.50
8480.00,1.50
8479.00,1.50
8478.00,1.50
8477.00,1.50
8476.00,1.50
8475.00,1.50
8474.00,1.50
8473.00,1.49
8472.00,1.49
8471.00,1.49
8470.00,1.49
8469.00,1.49
8468.00,1.49
8467.00,1.49
8466.00,1.49
8465.00,1.48
8464.00,1.48
8463.00,1.48
8462.00,1.48
8461.00,1.48
8460.00,1.48
8459.00,1.48
8458.00,1.48
8457.00,1.48
8456.00,1.48
8455.00,1.48
8454.00,1.48
8453.00,1.48
8452.00,1.48
8451.00,1.48
8450.00,1.48
8449.00,1.48
8448.00,1.48
8447.00,1.48
8446.00,1.48
8445.00,1.48
8444.00,1.48
8443.00,1.48
8442.00,1.48
8441.00,1.48
8440.00,1.48
8439.00,1.48
8438.00,1.48
8437.00,1.48
8436.00,1.48
8435.00,1.48
8434.00,1.48
8433.00,1.48
8432.00,1.48
8431.00,1.48
8430.00,1.48
8429.00,1.48
8428.00,1.48
8427.00,1.48
8426.00,1.48
8425.00,1.48
8424.00,1.48
8423.00,1.48
8422.00,1.48
8421.00,1.48
8420.00,1.48
8419.00,1.48
8418.00,1.48
8417.00,1.48
8416.00,1.48
8415.00,1.49
8414.00,1.49
8413.00,1.49
8412.00,1.49
8411.00,1.49
8410.00,1.49
8409.00,1.49
8408.00,1.50
8407.00,1.50
8406.00,1.50
8405.00,1.50
8404.00,1.50
8403.00,1.50
8402.00,1.51
8401.00,1.51
8400.00,1.51
8399.00,1.51
8398.00,1.51
8397.00,1.51
8396.00,1.51
8395.00,1.52
8394.00,1.52
8393.00,1.52
8392.00,1.52
8391.00,1.52
8390.00,1.52
8389.00,1.52
8388.00,1.53
8387.00,1.53
8386.00,1.53
8385.00,1.53
8384.00,1.53
8383.00,1.53
8382.00,1.53
8381.00,1.53
8380.00,1.53
8379.00,1.53
8378.00,1.53
8377.00,1.54
8376.00,1.54
8375.00,1.54
8374.00,1.54
8373.00,1.54
8372.00,1.54
8371.00,1.54
8370.00,1.54
8369.00,1.54
8368.00,1.54
8367.00,1.54
8366.00,1.54
8365.00,1.54
8364.00,1.54
8363.00,1.54
8362.00,1.54
8361.00,1.54
8360.00,1.54
8359.00,1.54
8358.00,1.54
8357.00,1.54
8356.00,1.54
8355.00,1.54
8354.00,1.53
8353.00,1.53
8352.00,1.53
8351.00,1.53
8350.00,1.53
8349.00,1.53
8348.00,1.53
8347.00,1.53
8346.00,1.53
8345.00,1.53
8344.00,1.53
8343.00,1.53
8342.00,1.53
8341.00,1.53
8340.00,1.53
8339.00,1.53
8338.00,1.53
8337.00,1.53
8336.00,1.53
8335.00,1.54
8334.00,1.54
8333.00,1.54
8332.00,1.54
8331.00,1.54
8330.00,1.54
8329.00,1.55
8328.00,1.55
8327.00,1.55
8326.00,1.55
8325.00,1.55
8324.00,1.55
8323.00,1.55
8322.00,1.55
8321.00,1.55
8320.00,1.55
8319.00,1.55
8318.00,1.55
8317.00,1.55
8316.00,1.55
8315.00,1.55
8314.00,1.55
8313.00,1.55
8312.00,1.55
8311.00,1.55
8310.00,1.55
8309.00,1.55
8308.00,1.55
8307.00,1.55
8306.00,1.55
8305.00,1.55
8304.00,1.55
8303.00,1.55
8302.00,1.55
8301.00,1.55
8300.00,1.55
8299.00,1.55
8298.00,1.55
8297.00,1.55
8296.00,1.55
8295.00,1.55
8294.00,1.55
8293.00,1.55
8292.00,1.55
8291.00,1.55
8290.00,1.55
8289.00,1.55
8288.00,1.55
8287.00,1.55
8286.00,1.55
8285.00,1.55
8284.00,1.55
8283.00,1.55
8282.00,1.55
8281.00,1.55
8280.00,1.55
8279.00,1.56
8278.00,1.56
8277.00,1.56
8276.00,1.56
8275.00,1.56
8274.00,1.56
8273.00,1.56
8272.00,1.56
8271.00,1.56
8270.00,1.56
8269.00,1.56
8268.00,1.56
8267.00,1.56
8266.00,1.56
8265.00,1.56
8264.00,1.56
8263.00,1.56
8262.00,1.56
8261.00,1.56
8260.00,1.56
8259.00,1.56
8258.00,1.56
8257.00,1.56
8256.00,1.57
8255.00,1.57
8254.00,1.57
8253.00,1.57
8252.00,1.57
8251.00,1.57
8250.00,1.57
8249.00,1.57
8248.00,1.57
8247.00,1.58
8246.00,1.58
8245.00,1.58
8244.00,1.58
8243.00,1.58
8242.00,1.58
8241.00,1.58
8240.00,1.58
8239.00,1.58
8238.00,1.58
8237.00,1.58
8236.00,1.58
8235.00,1.58
8234.00,1.58
8233.00,1.58
8232.00,1.58
8231.00,1.58
8230.00,1.58
8229.00,1.58
8228.00,1.58
8227.00,1.58
8226.00,1.58
8225.00,1.58
8224.00,1.58
8223.00,1.58
8222.00,1.58
8221.00,1.58
8220.00,1.59
8219.00,1.59
8218.00,1.59
8217.00,1.59
8216.00,1.59
8215.00,1.59
8214.00,1.60
8213.00,1.60
8212.00,1.60
8211.00,1.60
8210.00,1.60
8209.00,1.60
8208.00,1.61
8207.00,1.61
8206.00,1.61
8205.00,1.61
8204.00,1.61
8203.00,1.61
8202.00,1.61
8201.00,1.61
8200.00,1.61
8199.00,1.61
8198.00,1.61
8197.00,1.61
8196.00,1.60
8195.00,1.60
8194.00,1.60
8193.00,1.60
8192.00,1.60
8191.00,1.60
8190.00,1.60
8189.00,1.60
8188.00,1.60
8187.00,1.60
8186.00,1.60
8185.00,1.60
8184.00,1.60
8183.00,1.60
8182.00,1.60
8181.00,1.60
8180.00,1.60
8179.00,1.60
8178.00,1.60
8177.00,1.60
8176.00,1.60
8175.00,1.60
8174.00,1.61
8173.00,1.61
8172.00,1.61
8171.00,1.61
8170.00,1.61
8169.00,1.61
8168.00,1.61
8167.00,1.61
8166.00,1.61
8165.00,1.61
8164.00,1.61
8163.00,1.61
8162.00,1.61
8161.00,1.61
8160.00,1.61
8159.00,1.61
8158.00,1.61
8157.00,1.62
8156.00,1.62
8155.00,1.62
8154.00,1.62
8153.00,1.62
8152.00,1.62
8151.00,1.62
8150.00,1.62
8149.00,1.62
8148.00,1.63
8147.00,1.63
8146.00,1.63
8145.00,1.63
8144.00,1.63
8143.00,1.63
8142.00,1.63
8141.00,1.63
8140.00,1.63
8139.00,1.63
8138.00,1.63
8137.00,1.63
8136.00,1.63
8135.00,1.64
8134.00,1.64
8133.00,1.64
8132.00,1.64
8131.00,1.64
8130.00,1.64
8129.00,1.64
8128.00,1.64
8127.00,1.64
8126.00,1.64
8125.00,1.64
8124.00,1.64
8123.00,1.64
8122.00,1.64
8121.00,1.64
8120.00,1.64
8119.00,1.64
8118.00,1.64
8117.00,1.64
8116.00,1.64
8115.00,1.64
8114.00,1.64
8113.00,1.64
8112.00,1.64
8111.00,1.64
8110.00,1.65
8109.00,1.65
8108.00,1.65
8107.00,1.65
8106.00,1.65
8105.00,1.65
8104.00,1.65
8103.00,1.65
8102.00,1.65
8101.00,1.65
8100.00,1.65
8099.00,1.65
8098.00,1.65
8097.00,1.65
8096.00,1.65
8095.00,1.65
8094.00,1.65
8093.00,1.65
8092.00,1.65
8091.00,1.65
8090.00,1.65
8089.00,1.65
8088.00,1.65
8087.00,1.65
8086.00,1.65
8085.00,1.65
8084.00,1.66
8083.00,1.66
8082.00,1.66
8081.00,1.66
8080.00,1.66
8079.00,1.66
8078.00,1.66
8077.00,1.66
8076.00,1.66
8075.00,1.66
8074.00,1.66
8073.00,1.66
8072.00,1.66
8071.00,1.67
8070.00,1.67
8069.00,1.67
8068.00,1.67
8067.00,1.67
8066.00,1.67
8065.00,1.67
8064.00,1.67
8063.00,1.67
8062.00,1.67
8061.00,1.67
8060.00,1.67
8059.00,1.67
8058.00,1.67
8057.00,1.67
8056.00,1.67
8055.00,1.67
8054.00,1.67
8053.00,1.67
8052.00,1.67
8051.00,1.67
8050.00,1.67
8049.00,1.67
8048.00,1.67
8047.00,1.67
8046.00,1.67
8045.00,1.67
8044.00,1.66
8043.00,1.66
8042.00,1.66
8041.00,1.67
8040.00,1.67
8039.00,1.67
8038.00,1.67
8037.00,1.67
8036.00,1.67
8035.00,1.67
8034.00,1.67
8033.00,1.67
8032.00,1.67
8031.00,1.67
8030.00,1.67
8029.00,1.67
8028.00,1.67
8027.00,1.67
8026.00,1.67
8025.00,1.67
8024.00,1.67
8023.00,1.67
8022.00,1.67
8021.00,1.67
8020.00,1.67
8019.00,1.68
8018.00,1.68
8017.00,1.68
8016.00,1.68
8015.00,1.68
8014.00,1.68
8013.00,1.68
8012.00,1.68
8011.00,1.68
8010.00,1.68
8009.00,1.68
8008.00,1.68
8007.00,1.68
8006.00,1.68
8005.00,1.68
8004.00,1.68
8003.00,1.68
8002.00,1.68
8001.00,1.68
8000.00,1.68
7999.00,1.68
7998.00,1.68
7997.00,1.68
7996.00,1.68
7995.00,1.68
7994.00,1.68
7993.00,1.68
7992.00,1.68
7991.00,1.68
7990.00,1.69
7989.00,1.69
7988.00,1.69
7987.00,1.69
7986.00,1.69
7985.00,1.69
7984.00,1.69
7983.00,1.69
7982.00,1.69
7981.00,1.69
7980.00,1.69
7979.00,1.69
7978.00,1.69
7977.00,1.69
7976.00,1.68
7975.00,1.68
7974.00,1.68
7973.00,1.68
7972.00,1.68
7971.00,1.68
7970.00,1.68
7969.00,1.68
7968.00,1.68
7967.00,1.68
7966.00,1.68
7965.00,1.68
7964.00,1.68
7963.00,1.69
7962.00,1.69
7961.00,1.69
7960.00,1.69
7959.00,1.69
7958.00,1.69
7957.00,1.70
7956.00,1.70
7955.00,1.70
7954.00,1.70
7953.00,1.70
7952.00,1.70
7951.00,1.71
7950.00,1.71
7949.00,1.71
7948.00,1.71
7947.00,1.71
7946.00,1.71
7945.00,1.71
7944.00,1.71
7943.00,1.71
7942.00,1.71
7941.00,1.71
7940.00,1.71
7939.00,1.71
7938.00,1.71
7937.00,1.71
7936.00,1.71
7935.00,1.71
7934.00,1.71
7933.00,1.71
7932.00,1.71
7931.00,1.71
7930.00,1.71
7929.00,1.71
7928.00,1.71
7927.00,1.71
7926.00,1.71
7925.00,1.71
7924.00,1.71
7923.00,1.71
7922.00,1.71
7921.00,1.71
7920.00,1.71
7919.00,1.71
7918.00,1.71
7917.00,1.70
7916.00,1.70
7915.00,1.70
7914.00,1.70
7913.00,1.70
7912.00,1.70
7911.00,1.70
7910.00,1.70
7909.00,1.70
7908.00,1.70
7907.00,1.70
7906.00,1.70
7905.00,1.70
7904.00,1.70
7903.00,1.70
7902.00,1.70
7901.00,1.70
7900.00,1.70
7899.00,1.71
7898.00,1.71
7897.00,1.71
7896.00,1.71
7895.00,1.71
7894.00,1.71
7893.00,1.71
7892.00,1.71
7891.00,1.71
7890.00,1.71
7889.00,1.71
7888.00,1.71
7887.00,1.71
7886.00,1.71
7885.00,1.71
7884.00,1.71
7883.00,1.71
7882.00,1.71
7881.00,1.71
7880.00,1.71
7879.00,1.71
7878.00,1.71
7877.00,1.71
7876.00,1.71
7875.00,1.71
7874.00,1.71
7873.00,1.71
7872.00,1.71
7871.00,1.71
7870.00,1.72
7869.00,1.72
7868.00,1.72
7867.00,1.72
7866.00,1.72
7865.00,1.72
7864.00,1.72
7863.00,1.72
7862.00,1.72
7861.00,1.72
7860.00,1.72
7859.00,1.72
7858.00,1.72
7857.00,1.72
7856.00,1.72
7855.00,1.72
7854.00,1.72
7853.00,1.72
7852.00,1.72
7851.00,1.72
7850.00,1.72
7849.00,1.72
7848.00,1.72
7847.00,1.72
7846.00,1.72
7845.00,1.72
7844.00,1.72
7843.00,1.73
7842.00,1.73
7841.00,1.73
7840.00,1.73
7839.00,1.73
7838.00,1.73
7837.00,1.73
7836.00,1.73
7835.00,1.73
7834.00,1.73
7833.00,1.73
7832.00,1.73
7831.00,1.73
7830.00,1.73
7829.00,1.73
7828.00,1.73
7827.00,1.73
7826.00,1.73
7825.00,1.73
7824.00,1.73
7823.00,1.73
7822.00,1.73
7821.00,1.73
7820.00,1.73
7819.00,1.73
7818.00,1.73
7817.00,1.73
7816.00,1.73
7815.00,1.73
7814.00,1.73
7813.00,1.73
7812.00,1.73
7811.00,1.73
7810.00,1.73
7809.00,1.73
7808.00,1.73
7807.00,1.73
7806.00,1.73
7805.00,1.73
7804.00,1.73
7803.00,1.73
7802.00,1.73
7801.00,1.73
7800.00,1.73
7799.00,1.73
7798.00,1.73
7797.00,1.73
7796.00,1.73
7795.00,1.73
7794.00,1.73
7793.00,1.73
7792.00,1.73
7791.00,1.73
7790.00,1.73
7789.00,1.72
7788.00,1.72
7787.00,1.72
7786.00,1.72
7785.00,1.72
7784.00,1.72
7783.00,1.73
7782.00,1.73
7781.00,1.73
7780.00,1.73
7779.00,1.73
7778.00,1.73
7777.00,1.73
7776.00,1.73
7775.00,1.73
7774.00,1.73
7773.00,1.73
7772.00,1.74
7771.00,1.74
7770.00,1.74
7769.00,1.74
7768.00,1.74
7767.00,1.74
7766.00,1.74
7765.00,1.74
7764.00,1.74
7763.00,1.74
7762.00,1.74
7761.00,1.74
7760.00,1.74
7759.00,1.74
7758.00,1.74
7757.00,1.74
7756.00,1.74
7755.00,1.74
7754.00,1.74
7753.00,1.74
7752.00,1.74
7751.00,1.74
7750.00,1.74
7749.00,1.74
7748.00,1.74
7747.00,1.74
7746.00,1.74
7745.00,1.74
7744.00,1.74
7743.00,1.74
7742.00,1.73
7741.00,1.73
7740.00,1.73
7739.00,1.73
7738.00,1.73
7737.00,1.73
7736.00,1.73
7735.00,1.74
7734.00,1.74
7733.00,1.74
7732.00,1.74
7731.00,1.74
7730.00,1.74
7729.00,1.74
7728.00,1.74
7727.00,1.74
7726.00,1.74
7725.00,1.74
7724.00,1.75
7723.00,1.75
7722.00,1.75
7721.00,1.75
7720.00,1.75
7719.00,1.75
7718.00,1.75
7717.00,1.75
7716.00,1.75
7715.00,1.75
7714.00,1.75
7713.00,1.75
7712.00,1.75
7711.00,1.75
7710.00,1.75
7709.00,1.75
7708.00,1.75
7707.00,1.75
7706.00,1.75
7705.00,1.75
7704.00,1.75
7703.00,1.75
7702.00,1.75
7701.00,1.75
7700.00,1.75
7699.00,1.74
7698.00,1.74
7697.00,1.74
7696.00,1.74
7695.00,1.74
7694.00,1.74
7693.00,1.74
7692.00,1.74
7691.00,1.74
7690.00,1.74
7689.00,1.74
7688.00,1.74
7687.00,1.74
7686.00,1.74
7685.00,1.74
7684.00,1.74
7683.00,1.74
7682.00,1.74
7681.00,1.74
7680.00,1.74
7679.00,1.74
7678.00,1.74
7677.00,1.74
7676.00,1.74
7675.00,1.74
7674.00,1.74
7673.00,1.74
7672.00,1.75
7671.00,1.75
7670.00,1.75
7669.00,1.75
7668.00,1.75
7667.00,1.75
7666.00,1.75
7665.00,1.75
7664.00,1.75
7663.00,1.75
7662.00,1.75
7661.00,1.75
7660.00,1.75
7659.00,1.75
7658.00,1.75
7657.00,1.75
7656.00,1.75
7655.00,1.75
7654.00,1.75
7653.00,1.75
7652.00,1.75
7651.00,1.75
7650.00,1.75
7649.00,1.75
7648.00,1.75
7647.00,1.75
7646.00,1.75
7645.00,1.75
7644.00,1.75
7643.00,1.75
7642.00,1.75
7641.00,1.75
7640.00,1.75
7639.00,1.75
7638.00,1.75
7637.00,1.75
7636.00,1.75
7635.00,1.75
7634.00,1.75
7633.00,1.75
7632.00,1.75
7631.00,1.75
7630.00,1.75
7629.00,1.75
7628.00,1.75
7627.00,1.75
7626.00,1.75
7625.00,1.75
7624.00,1.75
7623.00,1.75
7622.00,1.75
7621.00,1.75
7620.00,1.75
7619.00,1.75
7618.00,1.75
7617.00,1.75
7616.00,1.75
7615.00,1.75
7614.00,1.75
7613.00,1.74
7612.00,1.74
7611.00,1.74
7610.00,1.74
7609.00,1.74
7608.00,1.74
7607.00,1.74
7606.00,1.74
7605.00,1.74
7604.00,1.74
7603.00,1.74
7602.00,1.74
7601.00,1.74
7600.00,1.74
7599.00,1.74
7598.00,1.74
7597.00,1.74
7596.00,1.74
7595.00,1.74
7594.00,1.74
7593.00,1.74
7592.00,1.74
7591.00,1.74
7590.00,1.74
7589.00,1.74
7588.00,1.74
7587.00,1.74
7586.00,1.74
7585.00,1.74
7584.00,1.74
7583.00,1.74
7582.00,1.74
7581.00,1.74
7580.00,1.74
7579.00,1.74
7578.00,1.74
7577.00,1.74
7576.00,1.74
7575.00,1.74
7574.00,1.74
7573.00,1.74
7572.00,1.74
7571.00,1.74
7570.00,1.74
7569.00,1.74
7568.00,1.73
7567.00,1.73
7566.00,1.73
7565.00,1.73
7564.00,1.73
7563.00,1.73
7562.00,1.73
7561.00,1.73
7560.00,1.73
7559.00,1.73
7558.00,1.73
7557.00,1.73
7556.00,1.73
7555.00,1.73
7554.00,1.73
7553.00,1.73
7552.00,1.73
7551.00,1.73
7550.00,1.73
7549.00,1.73
7548.00,1.73
7547.00,1.72
7546.00,1.72
7545.00,1.72
7544.00,1.72
7543.00,1.72
7542.00,1.72
7541.00,1.72
7540.00,1.72
7539.00,1.72
7538.00,1.72
7537.00,1.72
7536.00,1.72
7535.00,1.72
7534.00,1.72
7533.00,1.72
7532.00,1.72
7531.00,1.72
7530.00,1.72
7529.00,1.72
7528.00,1.72
7527.00,1.72
7526.00,1.72
7525.00,1.72
7524.00,1.72
7523.00,1.72
7522.00,1.72
7521.00,1.72
7520.00,1.72
7519.00,1.72
7518.00,1.71
7517.00,1.71
7516.00,1.71
7515.00,1.71
7514.00,1.71
7513.00,1.71
7512.00,1.71
7511.00,1.71
7510.00,1.71
7509.00,1.71
7508.00,1.71
7507.00,1.71
7506.00,1.71
7505.00,1.71
7504.00,1.71
7503.00,1.71
7502.00,1.71
7501.00,1.71
7500.00,1.71
7499.00,1.71
7498.00,1.71
7497.00,1.70
7496.00,1.70
7495.00,1.70
7494.00,1.70
7493.00,1.70
7492.00,1.70
7491.00,1.70
7490.00,1.70
7489.00,1.70
7488.00,1.70
7487.00,1.70
7486.00,1.70
7485.00,1.70
7484.00,1.70
7483.00,1.69
7482.00,1.69
7481.00,1.69
7480.00,1.69
7479.00,1.69
7478.00,1.69
7477.00,1.69
7476.00,1.69
7475.00,1.69
7474.00,1.68
7473.00,1.68
7472.00,1.68
7471.00,1.68
7470.00,1.68
7469.00,1.68
7468.00,1.68
7467.00,1.68
7466.00,1.68
7465.00,1.68
7464.00,1.68
7463.00,1.68
7462.00,1.68
7461.00,1.67
7460.00,1.67
7459.00,1.67
7458.00,1.67
7457.00,1.67
7456.00,1.67
7455.00,1.67
7454.00,1.67
7453.00,1.67
7452.00,1.67
7451.00,1.66
7450.00,1.66
7449.00,1.66
7448.00,1.66
7447.00,1.66
7446.00,1.66
7445.00,1.66
7444.00,1.66
7443.00,1.65
7442.00,1.65
7441.00,1.65
7440.00,1.65
7439.00,1.65
7438.00,1.65
7437.00,1.65
7436.00,1.64
7435.00,1.64
7434.00,1.64
7433.00,1.64
7432.00,1.64
7431.00,1.64
7430.00,1.64
7429.00,1.64
7428.00,1.64
7427.00,1.64
7426.00,1.63
7425.00,1.63
7424.00,1.63
7423.00,1.63
7422.00,1.63
7421.00,1.63
7420.00,1.63
7419.00,1.63
7418.00,1.63
7417.00,1.63
7416.00,1.63
7415.00,1.63
7414.00,1.63
7413.00,1.63
7412.00,1.62
7411.00,1.62
7410.00,1.62
7409.00,1.62
7408.00,1.62
7407.00,1.62
7406.00,1.62
7405.00,1.62
7404.00,1.61
7403.00,1.61
7402.00,1.61
7401.00,1.61
7400.00,1.61
7399.00,1.61
7398.00,1.61
7397.00,1.61
7396.00,1.61
7395.00,1.60
7394.00,1.60
7393.00,1.60
7392.00,1.60
7391.00,1.60
7390.00,1.59
7389.00,1.59
7388.00,1.59
7387.00,1.59
7386.00,1.59
7385.00,1.58
7384.00,1.58
7383.00,1.58
7382.00,1.58
7381.00,1.58
7380.00,1.58
7379.00,1.58
7378.00,1.58
7377.00,1.58
7376.00,1.58
7375.00,1.58
7374.00,1.58
7373.00,1.58
7372.00,1.58
7371.00,1.58
7370.00,1.58
7369.00,1.58
7368.00,1.58
7367.00,1.58
7366.00,1.58
7365.00,1.58
7364.00,1.58
7363.00,1.58
7362.00,1.58
7361.00,1.58
7360.00,1.58
7359.00,1.58
7358.00,1.58
7357.00,1.58
7356.00,1.58
7355.00,1.58
7354.00,1.57
7353.00,1.57
7352.00,1.57
7351.00,1.57
7350.00,1.57
7349.00,1.57
7348.00,1.56
7347.00,1.56
7346.00,1.56
7345.00,1.56
7344.00,1.56
7343.00,1.56
7342.00,1.56
7341.00,1.56
7340.00,1.55
7339.00,1.55
7338.00,1.55
7337.00,1.55
7336.00,1.55
7335.00,1.55
7334.00,1.55
7333.00,1.55
7332.00,1.55
7331.00,1.54
7330.00,1.54
7329.00,1.54
7328.00,1.54
7327.00,1.54
7326.00,1.54
7325.00,1.54
7324.00,1.54
7323.00,1.54
7322.00,1.54
7321.00,1.54
7320.00,1.53
7319.00,1.53
7318.00,1.53
7317.00,1.53
7316.00,1.53
7315.00,1.53
7314.00,1.53
7313.00,1.53
7312.00,1.53
7311.00,1.53
7310.00,1.53
7309.00,1.53
7308.00,1.52
7307.00,1.52
7306.00,1.52
7305.00,1.52
7304.00,1.52
7303.00,1.52
7302.00,1.52
7301.00,1.52
7300.00,1.52
7299.00,1.51
7298.00,1.51
7297.00,1.51
7296.00,1.51
7295.00,1.51
7294.00,1.51
7293.00,1.50
7292.00,1.50
7291.00,1.50
7290.00,1.50
7289.00,1.50
7288.00,1.49
7287.00,1.49
7286.00,1.49
7285.00,1.49
7284.00,1.49
7283.00,1.49
7282.00,1.48
7281.00,1.48
7280.00,1.48
7279.00,1.48
7278.00,1.47
7277.00,1.47
7276.00,1.47
7275.00,1.47
7274.00,1.47
7273.00,1.46
7272.00,1.46
7271.00,1.46
7270.00,1.46
7269.00,1.45
7268.00,1.45
7267.00,1.45
7266.00,1.45
7265.00,1.45
7264.00,1.44
7263.00,1.44
7262.00,1.44
7261.00,1.44
7260.00,1.44
7259.00,1.43
7258.00,1.43
7257.00,1.43
7256.00,1.43
7255.00,1.43
7254.00,1.42
7253.00,1.42
7252.00,1.42
7251.00,1.42
7250.00,1.41
7249.00,1.41
7248.00,1.41
7247.00,1.40
7246.00,1.40
7245.00,1.39
7244.00,1.39
7243.00,1.38
7242.00,1.38
7241.00,1.37
7240.00,1.37
7239.00,1.36
7238.00,1.36
7237.00,1.35
7236.00,1.35
7235.00,1.34
7234.00,1.34
7233.00,1.33
7232.00,1.33
7231.00,1.32
7230.00,1.32
7229.00,1.31
7228.00,1.31
7227.00,1.30
7226.00,1.30
7225.00,1.29
7224.00,1.29
7223.00,1.28
7222.00,1.28
7221.00,1.27
7220.00,1.27
7219.00,1.26
7218.00,1.26
7217.00,1.25
7216.00,1.25
7215.00,1.24
7214.00,1.24
7213.00,1.23
7212.00,1.22
7211.00,1.22
7210.00,1.21
7209.00,1.21
7208.00,1.20
7207.00,1.19
7206.00,1.19
7205.00,1.18
7204.00,1.18
7203.00,1.17
7202.00,1.16
7201.00,1.16
7200.00,1.15
7199.00,1.15
7198.00,1.14
7197.00,1.14
7196.00,1.13
7195.00,1.13
7194.00,1.12
7193.00,1.12
7192.00,1.11
7191.00,1.11
7190.00,1.10
7189.00,1.10
7188.00,1.09
7187.00,1.09
7186.00,1.08
7185.00,1.08
7184.00,1.08
7183.00,1.07
7182.00,1.07
7181.00,1.06
7180.00,1.06
7179.00,1.05
7178.00,1.05
7177.00,1.04
7176.00,1.04
7175.00,1.03
7174.00,1.03
7173.00,1.03
7172.00,1.02
7171.00,1.02
7170.00,1.01
7169.00,1.01
7168.00,1.00
7167.00,1.00
7166.00,0.99
7165.00,0.99
7164.00,0.98
7163.00,0.98
7162.00,0.97
7161.00,0.97
7160.00,0.97
7159.00,0.96
7158.00,0.96
7157.00,0.95
7156.00,0.95
7155.00,0.95
7154.00,0.94
7153.00,0.94
7152.00,0.94
7151.00,0.93
7150.00,0.93
7149.00,0.93
7148.00,0.92
7147.00,0.92
7146.00,0.92
7145.00,0.91
7144.00,0.91
7143.00,0.90
7142.00,0.90
7141.00,0.90
7140.00,0.89
7139.00,0.89
7138.00,0.89
7137.00,0.88
7136.00,0.88
7135.00,0.88
7134.00,0.87
7133.00,0.87
7132.00,0.86
7131.00,0.86
7130.00,0.86
7129.00,0.85
7128.00,0.85
7127.00,0.85
7126.00,0.84
7125.00,0.84
7124.00,0.84
7123.00,0.83
7122.00,0.83
7121.00,0.83
7120.00,0.82
7119.00,0.82
7118.00,0.82
7117.00,0.81
7116.00,0.81
7115.00,0.80
7114.00,0.80
7113.00,0.80
7112.00,0.80
7111.00,0.79
7110.00,0.79
7109.00,0.79
7108.00,0.78
7107.00,0.78
7106.00,0.78
7105.00,0.77
7104.00,0.77
7103.00,0.77
7102.00,0.76
7101.00,0.76
7100.00,0.76
7099.00,0.75
7098.00,0.75
7097.00,0.75
7096.00,0.75
7095.00,0.74
7094.00,0.74
7093.00,0.74
7092.00,0.73
7091.00,0.73
7090.00,0.73
7089.00,0.73
7088.00,0.73
7087.00,0.72
7086.00,0.72
7085.00,0.72
7084.00,0.72
7083.00,0.72
7082.00,0.71
7081.00,0.71
7080.00,0.71
7079.00,0.71
7078.00,0.71
7077.00,0.71
7076.00,0.70
7075.00,0.70
7074.00,0.70
7073.00,0.70
7072.00,0.70
7071.00,0.70
7070.00,0.70
7069.00,0.69
7068.00,0.69
7067.00,0.69
7066.00,0.69
7065.00,0.69
7064.00,0.69
7063.00,0.68
7062.00,0.68
7061.00,0.68
7060.00,0.68
7059.00,0.68
7058.00,0.68
7057.00,0.67
7056.00,0.67
7055.00,0.67
7054.00,0.67
7053.00,0.67
7052.00,0.66
7051.00,0.66
7050.00,0.66
7049.00,0.66
7048.00,0.66
7047.00,0.66
7046.00,0.65
7045.00,0.65
7044.00,0.65
7043.00,0.65
7042.00,0.65
7041.00,0.64
7040.00,0.64
7039.00,0.64
7038.00,0.64
7037.00,0.64
7036.00,0.64
7035.00,0.63
7034.00,0.63
7033.00,0.63
7032.00,0.63
7031.00,0.63
7030.00,0.63
7029.00,0.63
7028.00,0.63
7027.00,0.63
7026.00,0.63
7025.00,0.63
7024.00,0.63
7023.00,0.63
7022.00,0.63
7021.00,0.63
7020.00,0.63
7019.00,0.63
7018.00,0.63
7017.00,0.63
7016.00,0.62
7015.00,0.62
7014.00,0.62
7013.00,0.62
7012.00,0.62
7011.00,0.62
7010.00,0.62
7009.00,0.62
7008.00,0.62
7007.00,0.61
7006.00,0.61
7005.00,0.61
7004.00,0.61
7003.00,0.61
7002.00,0.61
7001.00,0.61
7000.00,0.61
6999.00,0.61
6998.00,0.60
6997.00,0.60
6996.00,0.60
6995.00,0.60
6994.00,0.60
6993.00,0.60
6992.00,0.60
6991.00,0.60
6990.00,0.60
6989.00,0.60
6988.00,0.60
6987.00,0.60
6986.00,0.60
6985.00,0.59
6984.00,0.59
6983.00,0.59
6982.00,0.59
6981.00,0.59
6980.00,0.59
6979.00,0.59
6978.00,0.59
6977.00,0.59
6976.00,0.59
6975.00,0.59
6974.00,0.59
6973.00,0.59
6972.00,0.59
6971.00,0.59
6970.00,0.59
6969.00,0.59
6968.00,0.59
6967.00,0.59
6966.00,0.59
6965.00,0.59
6964.00,0.59
6963.00,0.59
6962.00,0.59
6961.00,0.59
6960.00,0.59
6959.00,0.59
6958.00,0.59
6957.00,0.59
6956.00,0.59
6955.00,0.59
6954.00,0.58
6953.00,0.58
6952.00,0.58
6951.00,0.58
6950.00,0.58
6949.00,0.58
6948.00,0.58
6947.00,0.58
6946.00,0.58
6945.00,0.58
6944.00,0.58
6943.00,0.58
6942.00,0.58
6941.00,0.58
6940.00,0.58
6939.00,0.58
6938.00,0.58
6937.00,0.57
6936.00,0.57
6935.00,0.57
6934.00,0.57
6933.00,0.57
6932.00,0.57
6931.00,0.57
6930.00,0.57
6929.00,0.57
6928.00,0.57
6927.00,0.57
6926.00,0.57
6925.00,0.57
6924.00,0.57
6923.00,0.57
6922.00,0.57
6921.00,0.57
6920.00,0.57
6919.00,0.57
6918.00,0.57
6917.00,0.57
6916.00,0.57
6915.00,0.57
6914.00,0.57
6913.00,0.57
6912.00,0.57
6911.00,0.57
6910.00,0.57
6909.00,0.57
6908.00,0.57
6907.00,0.57
6906.00,0.57
6905.00,0.57
6904.00,0.57
6903.00,0.57
6902.00,0.57
6901.00,0.57
6900.00,0.57
6899.00,0.57
6898.00,0.57
6897.00,0.57
6896.00,0.57
6895.00,0.57
6894.00,0.57
6893.00,0.57
6892.00,0.57
6891.00,0.56
6890.00,0.56
6889.00,0.56
6888.00,0.56
6887.00,0.56
6886.00,0.56
6885.00,0.56
6884.00,0.56
6883.00,0.56
6882.00,0.56
6881.00,0.56
6880.00,0.56
6879.00,0.56
6878.00,0.56
6877.00,0.56
6876.00,0.56
6875.00,0.56
6874.00,0.57
6873.00,0.57
6872.00,0.57
6871.00,0.57
6870.00,0.57
6869.00,0.57
6868.00,0.57
6867.00,0.57
6866.00,0.57
6865.00,0.57
6864.00,0.57
6863.00,0.57
6862.00,0.57
6861.00,0.57
6860.00,0.57
6859.00,0.58
6858.00,0.58
6857.00,0.58
6856.00,0.58
6855.00,0.58
6854.00,0.58
6853.00,0.58
6852.00,0.58
6851.00,0.58
6850.00,0.58
6849.00,0.58
6848.00,0.58
6847.00,0.58
6846.00,0.58
6845.00,0.58
6844.00,0.58
6843.00,0.58
6842.00,0.58
6841.00,0.58
6840.00,0.58
6839.00,0.58
6838.00,0.58
6837.00,0.58
6836.00,0.58
6835.00,0.58
6834.00,0.58
6833.00,0.58
6832.00,0.58
6831.00,0.58
6830.00,0.58
6829.00,0.58
6828.00,0.58
6827.00,0.58
6826.00,0.58
6825.00,0.58
6824.00,0.58
6823.00,0.58
6822.00,0.58
6821.00,0.58
6820.00,0.58
6819.00,0.58
6818.00,0.58
6817.00,0.58
6816.00,0.58
6815.00,0.58
6814.00,0.58
6813.00,0.58
6812.00,0.58
6811.00,0.58
6810.00,0.58
6809.00,0.58
6808.00,0.58
6807.00,0.59
6806.00,0.59
6805.00,0.59
6804.00,0.59
6803.00,0.59
6802.00,0.59
6801.00,0.59
6800.00,0.59
6799.00,0.59
6798.00,0.59
6797.00,0.60
6796.00,0.60
6795.00,0.60
6794.00,0.60
6793.00,0.60
6792.00,0.60
6791.00,0.60
6790.00,0.60
6789.00,0.60
6788.00,0.60
6787.00,0.60
6786.00,0.60
6785.00,0.60
6784.00,0.60
6783.00,0.60
6782.00,0.60
6781.00,0.60
6780.00,0.60
6779.00,0.60
6778.00,0.60
6777.00,0.60
6776.00,0.60
6775.00,0.60
6774.00,0.60
6773.00,0.60
6772.00,0.60
6771.00,0.60
6770.00,0.60
6769.00,0.60
6768.00,0.60
6767.00,0.60
6766.00,0.61
6765.00,0.61
6764.00,0.61
6763.00,0.61
6762.00,0.61
6761.00,0.61
6760.00,0.61
6759.00,0.61
6758.00,0.61
6757.00,0.61
6756.00,0.61
6755.00,0.61
6754.00,0.61
6753.00,0.61
6752.00,0.62
6751.00,0.62
6750.00,0.62
6749.00,0.62
6748.00,0.62
6747.00,0.62
6746.00,0.62
6745.00,0.62
6744.00,0.63
6743.00,0.63
6742.00,0.63
6741.00,0.63
6740.00,0.63
6739.00,0.63
6738.00,0.63
6737.00,0.63
6736.00,0.63
6735.00,0.64
6734.00,0.64
6733.00,0.64
6732.00,0.64
6731.00,0.64
6730.00,0.64
6729.00,0.64
6728.00,0.64
6727.00,0.64
6726.00,0.64
6725.00,0.64
6724.00,0.65
6723.00,0.65
6722.00,0.65
6721.00,0.65
6720.00,0.65
6719.00,0.65
6718.00,0.65
6717.00,0.65
6716.00,0.65
6715.00,0.65
6714.00,0.65
6713.00,0.65
6712.00,0.65
6711.00,0.65
6710.00,0.65
6709.00,0.65
6708.00,0.65
6707.00,0.65
6706.00,0.65
6705.00,0.65
6704.00,0.65
6703.00,0.65
6702.00,0.65
6701.00,0.66
6700.00,0.66
6699.00,0.66
6698.00,0.66
6697.00,0.66
6696.00,0.66
6695.00,0.67
6694.00,0.67
6693.00,0.67
6692.00,0.67
6691.00,0.67
6690.00,0.68
6689.00,0.68
6688.00,0.68
6687.00,0.68
6686.00,0.68
6685.00,0.68
6684.00,0.69
6683.00,0.69
6682.00,0.69
6681.00,0.69
6680.00,0.69
6679.00,0.69
6678.00,0.69
6677.00,0.69
6676.00,0.69
6675.00,0.70
6674.00,0.70
6673.00,0.70
6672.00,0.70
6671.00,0.70
6670.00,0.70
6669.00,0.70
6668.00,0.70
6667.00,0.70
6666.00,0.70
6665.00,0.71
6664.00,0.71
6663.00,0.71
6662.00,0.71
6661.00,0.71
6660.00,0.71
6659.00,0.71
6658.00,0.71
6657.00,0.71
6656.00,0.72
6655.00,0.72
6654.00,0.72
6653.00,0.72
6652.00,0.72
6651.00,0.72
6650.00,0.73
6649.00,0.73
6648.00,0.73
6647.00,0.73
6646.00,0.73
6645.00,0.73
6644.00,0.74
6643.00,0.74
6642.00,0.74
6641.00,0.74
6640.00,0.74
6639.00,0.74
6638.00,0.74
6637.00,0.74
6636.00,0.75
6635.00,0.75
6634.00,0.75
6633.00,0.75
6632.00,0.75
6631.00,0.75
6630.00,0.75
6629.00,0.75
6628.00,0.76
6627.00,0.76
6626.00,0.76
6625.00,0.76
6624.00,0.76
6623.00,0.76
6622.00,0.76
6621.00,0.77
6620.00,0.77
6619.00,0.77
6618.00,0.77
6617.00,0.77
6616.00,0.77
6615.00,0.78
6614.00,0.78
6613.00,0.78
6612.00,0.78
6611.00,0.78
6610.00,0.78
6609.00,0.78
6608.00,0.78
6607.00,0.79
6606.00,0.79
6605.00,0.79
6604.00,0.79
6603.00,0.79
6602.00,0.79
6601.00,0.79
6600.00,0.79
6599.00,0.79
6598.00,0.80
6597.00,0.80
6596.00,0.80
6595.00,0.80
6594.00,0.80
6593.00,0.80
6592.00,0.80
6591.00,0.80
6590.00,0.80
6589.00,0.80
6588.00,0.81
6587.00,0.81
6586.00,0.81
6585.00,0.81
6584.00,0.81
6583.00,0.81
6582.00,0.81
6581.00,0.81
6580.00,0.82
6579.00,0.82
6578.00,0.82
6577.00,0.82
6576.00,0.82
6575.00,0.82
6574.00,0.82
6573.00,0.83
6572.00,0.83
6571.00,0.83
6570.00,0.83
6569.00,0.83
6568.00,0.83
6567.00,0.83
6566.00,0.84
6565.00,0.84
6564.00,0.84
6563.00,0.84
6562.00,0.84
6561.00,0.84
6560.00,0.84
6559.00,0.85
6558.00,0.85
6557.00,0.85
6556.00,0.85
6555.00,0.85
6554.00,0.85
6553.00,0.85
6552.00,0.85
6551.00,0.85
6550.00,0.85
6549.00,0.85
6548.00,0.85
6547.00,0.85
6546.00,0.85
6545.00,0.86
6544.00,0.86
6543.00,0.86
6542.00,0.86
6541.00,0.86
6540.00,0.86
6539.00,0.86
6538.00,0.86
6537.00,0.86
6536.00,0.86
6535.00,0.87
6534.00,0.87
6533.00,0.87
6532.00,0.87
6531.00,0.87
6530.00,0.87
6529.00,0.88
6528.00,0.88
6527.00,0.88
6526.00,0.88
6525.00,0.88
6524.00,0.88
6523.00,0.88
6522.00,0.89
6521.00,0.89
6520.00,0.89
6519.00,0.89
6518.00,0.89
6517.00,0.89
6516.00,0.90
6515.00,0.90
6514.00,0.90
6513.00,0.90
6512.00,0.90
6511.00,0.90
6510.00,0.90
6509.00,0.90
6508.00,0.90
6507.00,0.90
6506.00,0.91
6505.00,0.91
6504.00,0.91
6503.00,0.91
6502.00,0.91
6501.00,0.91
6500.00,0.91
6499.00,0.91
6498.00,0.91
6497.00,0.91
6496.00,0.91
6495.00,0.91
6494.00,0.91
6493.00,0.92
6492.00,0.92
6491.00,0.92
6490.00,0.92
6489.00,0.92
6488.00,0.92
6487.00,0.92
6486.00,0.92
6485.00,0.93
6484.00,0.93
6483.00,0.93
6482.00,0.93
6481.00,0.93
6480.00,0.93
6479.00,0.93
6478.00,0.94
6477.00,0.94
6476.00,0.94
6475.00,0.94
6474.00,0.94
6473.00,0.94
6472.00,0.94
6471.00,0.94
6470.00,0.94
6469.00,0.95
6468.00,0.95
6467.00,0.95
6466.00,0.95
6465.00,0.95
6464.00,0.95
6463.00,0.95
6462.00,0.95
6461.00,0.95
6460.00,0.96
6459.00,0.96
6458.00,0.96
6457.00,0.96
6456.00,0.96
6455.00,0.96
6454.00,0.96
6453.00,0.96
6452.00,0.97
6451.00,0.97
6450.00,0.97
6449.00,0.97
6448.00,0.97
6447.00,0.97
6446.00,0.97
6445.00,0.97
6444.00,0.97
6443.00,0.97
6442.00,0.97
6441.00,0.97
6440.00,0.97
6439.00,0.98
6438.00,0.98
6437.00,0.98
6436.00,0.98
6435.00,0.98
6434.00,0.98
6433.00,0.98
6432.00,0.98
6431.00,0.98
6430.00,0.98
6429.00,0.98
6428.00,0.98
6427.00,0.98
6426.00,0.98
6425.00,0.98
6424.00,0.98
6423.00,0.98
6422.00,0.98
6421.00,0.99
6420.00,0.99
6419.00,0.99
6418.00,0.99
6417.00,0.99
6416.00,0.99
6415.00,0.99
6414.00,0.99
6413.00,0.99
6412.00,1.00
6411.00,1.00
6410.00,1.00
6409.00,1.00
6408.00,1.00
6407.00,1.00
6406.00,1.00
6405.00,1.00
6404.00,1.00
6403.00,1.00
6402.00,1.01
6401.00,1.01
6400.00,1.01
6399.00,1.01
6398.00,1.01
6397.00,1.01
6396.00,1.01
6395.00,1.01
6394.00,1.01
6393.00,1.01
6392.00,1.02
6391.00,1.02
6390.00,1.02
6389.00,1.02
6388.00,1.02
6387.00,1.02
6386.00,1.02
6385.00,1.02
6384.00,1.03
6383.00,1.03
6382.00,1.03
6381.00,1.03
6380.00,1.03
6379.00,1.03
6378.00,1.03
6377.00,1.03
6376.00,1.03
6375.00,1.03
6374.00,1.04
6373.00,1.04
6372.00,1.04
6371.00,1.04
6370.00,1.04
6369.00,1.04
6368.00,1.04
6367.00,1.04
6366.00,1.04
6365.00,1.04
6364.00,1.04
6363.00,1.05
6362.00,1.05
6361.00,1.05
6360.00,1.05
6359.00,1.05
6358.00,1.05
6357.00,1.05
6356.00,1.06
6355.00,1.06
6354.00,1.06
6353.00,1.06
6352.00,1.06
6351.00,1.07
6350.00,1.07
6349.00,1.07
6348.00,1.07
6347.00,1.07
6346.00,1.07
6345.00,1.07
6344.00,1.08
6343.00,1.08
6342.00,1.08
6341.00,1.08
6340.00,1.08
6339.00,1.08
6338.00,1.08
6337.00,1.08
6336.00,1.09
6335.00,1.09
6334.00,1.09
6333.00,1.09
6332.00,1.09
6331.00,1.09
6330.00,1.09
6329.00,1.10
6328.00,1.10
6327.00,1.10
6326.00,1.10
6325.00,1.10
6324.00,1.10
6323.00,1.10
6322.00,1.11
6321.00,1.11
6320.00,1.11
6319.00,1.11
6318.00,1.11
6317.00,1.11
6316.00,1.11
6315.00,1.11
6314.00,1.12
6313.00,1.12
6312.00,1.12
6311.00,1.12
6310.00,1.12
6309.00,1.12
6308.00,1.13
6307.00,1.13
6306.00,1.13
6305.00,1.13
6304.00,1.13
6303.00,1.13
6302.00,1.14
6301.00,1.14
6300.00,1.14
6299.00,1.14
6298.00,1.14
6297.00,1.14
6296.00,1.15
6295.00,1.15
6294.00,1.15
6293.00,1.15
6292.00,1.15
6291.00,1.15
6290.00,1.15
6289.00,1.16
6288.00,1.16
6287.00,1.16
6286.00,1.16
6285.00,1.16
6284.00,1.16
6283.00,1.16
6282.00,1.17
6281.00,1.17
6280.00,1.17
6279.00,1.17
6278.00,1.17
6277.00,1.18
6276.00,1.18
6275.00,1.18
6274.00,1.18
6273.00,1.18
6272.00,1.18
6271.00,1.19
6270.00,1.19
6269.00,1.19
6268.00,1.19
6267.00,1.19
6266.00,1.19
6265.00,1.20
6264.00,1.20
6263.00,1.20
6262.00,1.20
6261.00,1.20
6260.00,1.21
6259.00,1.21
6258.00,1.21
6257.00,1.21
6256.00,1.21
6255.00,1.22
6254.00,1.22
6253.00,1.22
6252.00,1.22
6251.00,1.23
6250.00,1.23
6249.00,1.23
6248.00,1.23
6247.00,1.23
6246.00,1.23
6245.00,1.24
6244.00,1.24
6243.00,1.24
6242.00,1.24
6241.00,1.24
6240.00,1.25
6239.00,1.25
6238.00,1.25
6237.00,1.25
6236.00,1.25
6235.00,1.25
6234.00,1.26
6233.00,1.26
6232.00,1.26
6231.00,1.26
6230.00,1.27
6229.00,1.27
6228.00,1.27
6227.00,1.27
6226.00,1.27
6225.00,1.28
6224.00,1.28
6223.00,1.28
6222.00,1.28
6221.00,1.28
6220.00,1.28
6219.00,1.29
6218.00,1.29
6217.00,1.29
6216.00,1.29
6215.00,1.29
6214.00,1.29
6213.00,1.29
6212.00,1.30
6211.00,1.30
6210.00,1.30
6209.00,1.30
6208.00,1.30
6207.00,1.30
6206.00,1.31
6205.00,1.31
6204.00,1.31
6203.00,1.31
6202.00,1.31
6201.00,1.32
6200.00,1.32
6199.00,1.32
6198.00,1.32
6197.00,1.33
6196.00,1.33
6195.00,1.33
6194.00,1.33
6193.00,1.33
6192.00,1.34
6191.00,1.34
6190.00,1.34
6189.00,1.34
6188.00,1.34
6187.00,1.35
6186.00,1.35
6185.00,1.35
6184.00,1.35
6183.00,1.35
6182.00,1.36
6181.00,1.36
6180.00,1.36
6179.00,1.36
6178.00,1.37
6177.00,1.37
6176.00,1.37
6175.00,1.37
6174.00,1.37
6173.00,1.38
6172.00,1.38
6171.00,1.38
6170.00,1.38
6169.00,1.39
6168.00,1.39
6167.00,1.39
6166.00,1.39
6165.00,1.39
6164.00,1.40
6163.00,1.40
6162.00,1.40
6161.00,1.40
6160.00,1.40
6159.00,1.41
6158.00,1.41
6157.00,1.41
6156.00,1.41
6155.00,1.41
6154.00,1.42
6153.00,1.42
6152.00,1.42
6151.00,1.42
6150.00,1.42
6149.00,1.43
6148.00,1.43
6147.00,1.43
6146.00,1.43
6145.00,1.44
6144.00,1.44
6143.00,1.44
6142.00,1.44
6141.00,1.44
6140.00,1.45
6139.00,1.45
6138.00,1.45
6137.00,1.45
6136.00,1.46
6135.00,1.46
6134.00,1.46
6133.00,1.46
6132.00,1.47
6131.00,1.47
6130.00,1.47
6129.00,1.47
6128.00,1.48
6127.00,1.48
6126.00,1.48
6125.00,1.48
6124.00,1.49
6123.00,1.49
6122.00,1.49
6121.00,1.49
6120.00,1.49
6119.00,1.50
6118.00,1.50
6117.00,1.50
6116.00,1.50
6115.00,1.50
6114.00,1.50
6113.00,1.51
6112.00,1.51
6111.00,1.51
6110.00,1.51
6109.00,1.51
6108.00,1.52
6107.00,1.52
6106.00,1.52
6105.00,1.52
6104.00,1.52
6103.00,1.53
6102.00,1.53
6101.00,1.53
6100.00,1.53
6099.00,1.53
6098.00,1.54
6097.00,1.54
6096.00,1.54
6095.00,1.54
6094.00,1.54
6093.00,1.55
6092.00,1.55
6091.00,1.55
6090.00,1.55
6089.00,1.55
6088.00,1.55
6087.00,1.56
6086.00,1.56
6085.00,1.56
6084.00,1.56
6083.00,1.56
6082.00,1.57
6081.00,1.57
6080.00,1.57
6079.00,1.57
6078.00,1.57
6077.00,1.58
6076.00,1.58
6075.00,1.58
6074.00,1.58
6073.00,1.58
6072.00,1.58
6071.00,1.58
6070.00,1.59
6069.00,1.59
6068.00,1.59
6067.00,1.59
6066.00,1.59
6065.00,1.59
6064.00,1.59
6063.00,1.60
6062.00,1.60
6061.00,1.60
6060.00,1.60
6059.00,1.60
6058.00,1.60
6057.00,1.60
6056.00,1.61
6055.00,1.61
6054.00,1.61
6053.00,1.61
6052.00,1.61
6051.00,1.61
6050.00,1.62
6049.00,1.62
6048.00,1.62
6047.00,1.62
6046.00,1.62
6045.00,1.62
6044.00,1.62
6043.00,1.63
6042.00,1.63
6041.00,1.63
6040.00,1.63
6039.00,1.63
6038.00,1.63
6037.00,1.63
6036.00,1.63
6035.00,1.63
6034.00,1.64
6033.00,1.64
6032.00,1.64
6031.00,1.64
6030.00,1.64
6029.00,1.64
6028.00,1.64
6027.00,1.64
6026.00,1.64
6025.00,1.64
6024.00,1.64
6023.00,1.64
6022.00,1.64
6021.00,1.64
6020.00,1.65
6019.00,1.65
6018.00,1.65
6017.00,1.65
6016.00,1.65
6015.00,1.65
6014.00,1.65
6013.00,1.65
6012.00,1.65
6011.00,1.65
6010.00,1.65
6009.00,1.65
6008.00,1.65
6007.00,1.65
6006.00,1.65
6005.00,1.65
6004.00,1.65
6003.00,1.64
6002.00,1.64
6001.00,1.64
6000.00,1.64
5999.00,1.64
5998.00,1.64
5997.00,1.64
5996.00,1.64
5995.00,1.63
5994.00,1.63
5993.00,1.63
5992.00,1.63
5991.00,1.62
5990.00,1.62
5989.00,1.62
5988.00,1.61
5987.00,1.61
5986.00,1.61
5985.00,1.60
5984.00,1.60
5983.00,1.60
5982.00,1.59
5981.00,1.59
5980.00,1.58
5979.00,1.58
5978.00,1.57
5977.00,1.57
5976.00,1.56
5975.00,1.55
5974.00,1.55
5973.00,1.54
5972.00,1.53
5971.00,1.52
5970.00,1.52
5969.00,1.51
5968.00,1.50
5967.00,1.49
5966.00,1.48
5965.00,1.47
5964.00,1.46
5963.00,1.45
5962.00,1.44
5961.00,1.43
5960.00,1.42
5959.00,1.41
5958.00,1.40
5957.00,1.39
5956.00,1.39
5955.00,1.38
5954.00,1.37
5953.00,1.36
5952.00,1.35
5951.00,1.34
5950.00,1.33
5949.00,1.33
5948.00,1.32
5947.00,1.32
5946.00,1.31
5945.00,1.31
5944.00,1.30
5943.00,1.30
5942.00,1.30
5941.00,1.29
5940.00,1.29
5939.00,1.29
5938.00,1.29
5937.00,1.29
5936.00,1.29
5935.00,1.29
5934.00,1.29
5933.00,1.29
5932.00,1.28
5931.00,1.28
5930.00,1.28
5929.00,1.28
5928.00,1.28
5927.00,1.28
5926.00,1.28
5925.00,1.27
5924.00,1.27
5923.00,1.27
5922.00,1.26
5921.00,1.26
5920.00,1.26
5919.00,1.25
5918.00,1.25
5917.00,1.25
5916.00,1.24
5915.00,1.24
5914.00,1.24
5913.00,1.23
5912.00,1.23
5911.00,1.23
5910.00,1.22
5909.00,1.22
5908.00,1.22
5907.00,1.22
5906.00,1.21
5905.00,1.21
5904.00,1.21
5903.00,1.21
5902.00,1.21
5901.00,1.21
5900.00,1.21
5899.00,1.21
5898.00,1.21
5897.00,1.21
5896.00,1.22
5895.00,1.22
5894.00,1.22
5893.00,1.23
5892.00,1.23
5891.00,1.23
5890.00,1.24
5889.00,1.24
5888.00,1.24
5887.00,1.25
5886.00,1.25
5885.00,1.26
5884.00,1.26
5883.00,1.26
5882.00,1.27
5881.00,1.27
5880.00,1.28
5879.00,1.28
5878.00,1.28
5877.00,1.29
5876.00,1.29
5875.00,1.29
5874.00,1.30
5873.00,1.30
5872.00,1.30
5871.00,1.31
5870.00,1.31
5869.00,1.31
5868.00,1.32
5867.00,1.32
5866.00,1.32
5865.00,1.33
5864.00,1.33
5863.00,1.33
5862.00,1.33
5861.00,1.33
5860.00,1.34
5859.00,1.34
5858.00,1.34
5857.00,1.34
5856.00,1.34
5855.00,1.34
5854.00,1.35
5853.00,1.35
5852.00,1.35
5851.00,1.35
5850.00,1.35
5849.00,1.35
5848.00,1.35
5847.00,1.35
5846.00,1.35
5845.00,1.35
5844.00,1.35
5843.00,1.35
5842.00,1.35
5841.00,1.35
5840.00,1.35
5839.00,1.35
5838.00,1.35
5837.00,1.35
5836.00,1.35
5835.00,1.35
5834.00,1.35
5833.00,1.35
5832.00,1.35
5831.00,1.35
5830.00,1.35
5829.00,1.35
5828.00,1.35
5827.00,1.35
5826.00,1.35
5825.00,1.35
5824.00,1.35
5823.00,1.35
5822.00,1.35
5821.00,1.35
5820.00,1.35
5819.00,1.35
5818.00,1.35
5817.00,1.35
5816.00,1.35
5815.00,1.35
5814.00,1.35
5813.00,1.35
5812.00,1.35
5811.00,1.35
5810.00,1.35
5809.00,1.35
5808.00,1.35
5807.00,1.35
5806.00,1.35
5805.00,1.35
5804.00,1.35
5803.00,1.34
5802.00,1.34
5801.00,1.34
5800.00,1.34
5799.00,1.34
5798.00,1.33
5797.00,1.33
5796.00,1.33
5795.00,1.33
5794.00,1.32
5793.00,1.32
5792.00,1.32
5791.00,1.31
5790.00,1.31
5789.00,1.31
5788.00,1.31
5787.00,1.30
5786.00,1.30
5785.00,1.30
5784.00,1.30
5783.00,1.29
5782.00,1.29
5781.00,1.29
5780.00,1.29
5779.00,1.29
5778.00,1.28
5777.00,1.28
5776.00,1.28
5775.00,1.28
5774.00,1.28
5773.00,1.28
5772.00,1.28
5771.00,1.28
5770.00,1.28
5769.00,1.28
5768.00,1.28
5767.00,1.28
5766.00,1.29
5765.00,1.29
5764.00,1.29
5763.00,1.29
5762.00,1.30
5761.00,1.30
5760.00,1.30
5759.00,1.31
5758.00,1.31
5757.00,1.31
5756.00,1.32
5755.00,1.32
5754.00,1.33
5753.00,1.33
5752.00,1.34
5751.00,1.34
5750.00,1.34
5749.00,1.35
5748.00,1.35
5747.00,1.36
5746.00,1.36
5745.00,1.36
5744.00,1.37
5743.00,1.37
5742.00,1.37
5741.00,1.38
5740.00,1.38
5739.00,1.38
5738.00,1.38
5737.00,1.39
5736.00,1.39
5735.00,1.39
5734.00,1.39
5733.00,1.40
5732.00,1.40
5731.00,1.40
5730.00,1.40
5729.00,1.40
5728.00,1.41
5727.00,1.41
5726.00,1.41
5725.00,1.41
5724.00,1.41
5723.00,1.41
5722.00,1.41
5721.00,1.41
5720.00,1.41
5719.00,1.41
5718.00,1.41
5717.00,1.41
5716.00,1.41
5715.00,1.41
5714.00,1.41
5713.00,1.41
5712.00,1.41
5711.00,1.41
5710.00,1.41
5709.00,1.41
5708.00,1.41
5707.00,1.40
5706.00,1.40
5705.00,1.40
5704.00,1.40
5703.00,1.40
5702.00,1.40
5701.00,1.39
5700.00,1.39
5699.00,1.39
5698.00,1.39
5697.00,1.39
5696.00,1.39
5695.00,1.38
5694.00,1.38
5693.00,1.38
5692.00,1.38
5691.00,1.37
5690.00,1.37
5689.00,1.37
5688.00,1.37
5687.00,1.37
5686.00,1.36
5685.00,1.36
5684.00,1.36
5683.00,1.36
5682.00,1.36
5681.00,1.36
5680.00,1.36
5679.00,1.35
5678.00,1.35
5677.00,1.35
5676.00,1.35
5675.00,1.35
5674.00,1.35
5673.00,1.35
5672.00,1.35
5671.00,1.35
5670.00,1.35
5669.00,1.35
5668.00,1.35
5667.00,1.35
5666.00,1.35
5665.00,1.36
5664.00,1.36
5663.00,1.36
5662.00,1.36
5661.00,1.36
5660.00,1.36
5659.00,1.36
5658.00,1.37
5657.00,1.37
5656.00,1.37
5655.00,1.37
5654.00,1.37
5653.00,1.38
5652.00,1.38
5651.00,1.38
5650.00,1.39
5649.00,1.39
5648.00,1.39
5647.00,1.39
5646.00,1.40
5645.00,1.40
5644.00,1.40
5643.00,1.40
5642.00,1.41
5641.00,1.41
5640.00,1.41
5639.00,1.41
5638.00,1.41
5637.00,1.42
5636.00,1.42
5635.00,1.42
5634.00,1.42
5633.00,1.42
5632.00,1.42
5631.00,1.43
5630.00,1.43
5629.00,1.43
5628.00,1.43
5627.00,1.43
5626.00,1.44
5625.00,1.44
5624.00,1.44
5623.00,1.44
5622.00,1.44
5621.00,1.45
5620.00,1.45
5619.00,1.45
5618.00,1.45
5617.00,1.46
5616.00,1.46
5615.00,1.46
5614.00,1.46
5613.00,1.47
5612.00,1.47
5611.00,1.47
5610.00,1.47
5609.00,1.48
5608.00,1.48
5607.00,1.48
5606.00,1.48
5605.00,1.49
5604.00,1.49
5603.00,1.49
5602.00,1.49
5601.00,1.50
5600.00,1.50
5599.00,1.50
5598.00,1.50
5597.00,1.50
5596.00,1.51
5595.00,1.51
5594.00,1.51
5593.00,1.51
5592.00,1.52
5591.00,1.52
5590.00,1.52
5589.00,1.52
5588.00,1.52
5587.00,1.53
5586.00,1.53
5585.00,1.53
5584.00,1.53
5583.00,1.53
5582.00,1.53
5581.00,1.54
5580.00,1.54
5579.00,1.54
5578.00,1.54
5577.00,1.54
5576.00,1.55
5575.00,1.55
5574.00,1.55
5573.00,1.55
5572.00,1.56
5571.00,1.56
5570.00,1.56
5569.00,1.56
5568.00,1.57
5567.00,1.57
5566.00,1.57
5565.00,1.57
5564.00,1.58
5563.00,1.58
5562.00,1.58
5561.00,1.58
5560.00,1.58
5559.00,1.59
5558.00,1.59
5557.00,1.59
5556.00,1.59
5555.00,1.59
5554.00,1.60
5553.00,1.60
5552.00,1.60
5551.00,1.60
5550.00,1.60
5549.00,1.61
5548.00,1.61
5547.00,1.61
5546.00,1.61
5545.00,1.61
5544.00,1.61
5543.00,1.62
5542.00,1.62
5541.00,1.62
5540.00,1.62
5539.00,1.62
5538.00,1.63
5537.00,1.63
5536.00,1.63
5535.00,1.63
5534.00,1.63
5533.00,1.63
5532.00,1.64
5531.00,1.64
5530.00,1.64
5529.00,1.64
5528.00,1.64
5527.00,1.64
5526.00,1.64
5525.00,1.65
5524.00,1.65
5523.00,1.65
5522.00,1.65
5521.00,1.65
5520.00,1.65
5519.00,1.65
5518.00,1.65
5517.00,1.65
5516.00,1.65
5515.00,1.66
5514.00,1.66
5513.00,1.66
5512.00,1.66
5511.00,1.66
5510.00,1.66
5509.00,1.66
5508.00,1.66
5507.00,1.66
5506.00,1.66
5505.00,1.66
5504.00,1.67
5503.00,1.67
5502.00,1.67
5501.00,1.67
5500.00,1.67
5499.00,1.67
5498.00,1.67
5497.00,1.67
5496.00,1.68
5495.00,1.68
5494.00,1.68
5493.00,1.68
5492.00,1.68
5491.00,1.68
5490.00,1.69
5489.00,1.69
5488.00,1.69
5487.00,1.69
5486.00,1.70
5485.00,1.70
5484.00,1.70
5483.00,1.70
5482.00,1.71
5481.00,1.71
5480.00,1.71
5479.00,1.71
5478.00,1.71
5477.00,1.71
5476.00,1.72
5475.00,1.72
5474.00,1.72
5473.00,1.72
5472.00,1.72
5471.00,1.72
5470.00,1.72
5469.00,1.72
5468.00,1.73
5467.00,1.73
5466.00,1.73
5465.00,1.73
5464.00,1.73
5463.00,1.73
5462.00,1.73
5461.00,1.73
5460.00,1.73
5459.00,1.73
5458.00,1.74
5457.00,1.74
5456.00,1.74
5455.00,1.74
5454.00,1.74
5453.00,1.74
5452.00,1.74
5451.00,1.74
5450.00,1.74
5449.00,1.74
5448.00,1.74
5447.00,1.74
5446.00,1.74
5445.00,1.74
5444.00,1.74
5443.00,1.74
5442.00,1.74
5441.00,1.74
5440.00,1.75
5439.00,1.75
5438.00,1.75
5437.00,1.75
5436.00,1.75
5435.00,1.75
5434.00,1.75
5433.00,1.75
5432.00,1.75
5431.00,1.75
5430.00,1.75
5429.00,1.75
5428.00,1.75
5427.00,1.75
5426.00,1.75
5425.00,1.75
5424.00,1.75
5423.00,1.75
5422.00,1.75
5421.00,1.75
5420.00,1.75
5419.00,1.75
5418.00,1.75
5417.00,1.75
5416.00,1.75
5415.00,1.75
5414.00,1.75
5413.00,1.75
5412.00,1.74
5411.00,1.74
5410.00,1.74
5409.00,1.74
5408.00,1.74
5407.00,1.74
5406.00,1.74
5405.00,1.74
5404.00,1.74
5403.00,1.74
5402.00,1.74
5401.00,1.73
5400.00,1.73
5399.00,1.73
5398.00,1.73
5397.00,1.73
5396.00,1.72
5395.00,1.72
5394.00,1.72
5393.00,1.72
5392.00,1.71
5391.00,1.71
5390.00,1.70
5389.00,1.70
5388.00,1.70
5387.00,1.69
5386.00,1.69
5385.00,1.68
5384.00,1.68
5383.00,1.67
5382.00,1.66
5381.00,1.66
5380.00,1.65
5379.00,1.65
5378.00,1.64
5377.00,1.63
5376.00,1.63
5375.00,1.62
5374.00,1.61
5373.00,1.61
5372.00,1.60
5371.00,1.59
5370.00,1.58
5369.00,1.58
5368.00,1.57
5367.00,1.56
5366.00,1.55
5365.00,1.54
5364.00,1.54
5363.00,1.53
5362.00,1.52
5361.00,1.51
5360.00,1.50
5359.00,1.49
5358.00,1.48
5357.00,1.47
5356.00,1.46
5355.00,1.44
5354.00,1.43
5353.00,1.42
5352.00,1.41
5351.00,1.40
5350.00,1.38
5349.00,1.37
5348.00,1.36
5347.00,1.34
5346.00,1.33
5345.00,1.31
5344.00,1.30
5343.00,1.29
5342.00,1.27
5341.00,1.26
5340.00,1.24
5339.00,1.23
5338.00,1.21
5337.00,1.20
5336.00,1.18
5335.00,1.17
5334.00,1.15
5333.00,1.14
5332.00,1.12
5331.00,1.11
5330.00,1.10
5329.00,1.08
5328.00,1.07
5327.00,1.05
5326.00,1.04
5325.00,1.03
5324.00,1.01
5323.00,1.00
5322.00,0.99
5321.00,0.98
5320.00,0.97
5319.00,0.96
5318.00,0.94
5317.00,0.93
5316.00,0.92
5315.00,0.91
5314.00,0.90
5313.00,0.89
5312.00,0.88
5311.00,0.88
5310.00,0.87
5309.00,0.86
5308.00,0.85
5307.00,0.84
5306.00,0.84
5305.00,0.83
5304.00,0.82
5303.00,0.82
5302.00,0.81
5301.00,0.81
5300.00,0.80
5299.00,0.80
5298.00,0.79
5297.00,0.79
5296.00,0.79
5295.00,0.78
5294.00,0.78
5293.00,0.78
5292.00,0.77
5291.00,0.77
5290.00,0.77
5289.00,0.77
5288.00,0.77
5287.00,0.76
5286.00,0.76
5285.00,0.76
5284.00,0.76
5283.00,0.76
5282.00,0.75
5281.00,0.75
5280.00,0.75
5279.00,0.75
5278.00,0.75
5277.00,0.75
5276.00,0.75
5275.00,0.75
5274.00,0.75
5273.00,0.75
5272.00,0.75
5271.00,0.74
5270.00,0.74
5269.00,0.74
5268.00,0.74
5267.00,0.74
5266.00,0.74
5265.00,0.74
5264.00,0.74
5263.00,0.74
5262.00,0.74
5261.00,0.74
5260.00,0.74
5259.00,0.74
5258.00,0.74
5257.00,0.74
5256.00,0.74
5255.00,0.74
5254.00,0.74
5253.00,0.74
5252.00,0.74
5251.00,0.74
5250.00,0.74
5249.00,0.74
5248.00,0.74
5247.00,0.74
5246.00,0.74
5245.00,0.74
5244.00,0.74
5243.00,0.74
5242.00,0.75
5241.00,0.75
5240.00,0.75
5239.00,0.75
5238.00,0.75
5237.00,0.75
5236.00,0.75
5235.00,0.75
5234.00,0.75
5233.00,0.75
5232.00,0.75
5231.00,0.75
5230.00,0.75
5229.00,0.75
5228.00,0.75
5227.00,0.75
5226.00,0.75
5225.00,0.75
5224.00,0.75
5223.00,0.75
5222.00,0.75
5221.00,0.75
5220.00,0.75
5219.00,0.75
5218.00,0.75
5217.00,0.75
5216.00,0.75
5215.00,0.75
5214.00,0.75
5213.00,0.75
5212.00,0.75
5211.00,0.76
5210.00,0.76
5209.00,0.76
5208.00,0.76
5207.00,0.76
5206.00,0.76
5205.00,0.76
5204.00,0.76
5203.00,0.76
5202.00,0.76
5201.00,0.76
5200.00,0.76
5199.00,0.76
5198.00,0.76
5197.00,0.76
5196.00,0.76
5195.00,0.76
5194.00,0.76
5193.00,0.76
5192.00,0.76
5191.00,0.76
5190.00,0.76
5189.00,0.77
5188.00,0.77
5187.00,0.77
5186.00,0.77
5185.00,0.77
5184.00,0.77
5183.00,0.77
5182.00,0.77
5181.00,0.77
5180.00,0.77
5179.00,0.77
5178.00,0.77
5177.00,0.77
5176.00,0.78
5175.00,0.78
5174.00,0.78
5173.00,0.78
5172.00,0.78
5171.00,0.78
5170.00,0.78
5169.00,0.78
5168.00,0.78
5167.00,0.78
5166.00,0.78
5165.00,0.78
5164.00,0.78
5163.00,0.79
5162.00,0.79
5161.00,0.79
5160.00,0.79
5159.00,0.79
5158.00,0.79
5157.00,0.79
5156.00,0.79
5155.00,0.79
5154.00,0.79
5153.00,0.79
5152.00,0.79
5151.00,0.79
5150.00,0.79
5149.00,0.79
5148.00,0.79
5147.00,0.79
5146.00,0.79
5145.00,0.79
5144.00,0.80
5143.00,0.80
5142.00,0.80
5141.00,0.80
5140.00,0.80
5139.00,0.80
5138.00,0.80
5137.00,0.80
5136.00,0.80
5135.00,0.80
5134.00,0.80
5133.00,0.80
5132.00,0.80
5131.00,0.80
5130.00,0.81
5129.00,0.81
5128.00,0.81
5127.00,0.81
5126.00,0.81
5125.00,0.81
5124.00,0.81
5123.00,0.81
5122.00,0.81
5121.00,0.81
5120.00,0.81
5119.00,0.81
5118.00,0.81
5117.00,0.81
5116.00,0.81
5115.00,0.81
5114.00,0.81
5113.00,0.81
5112.00,0.81
5111.00,0.81
5110.00,0.81
5109.00,0.81
5108.00,0.81
5107.00,0.81
5106.00,0.81
5105.00,0.81
5104.00,0.81
5103.00,0.81
5102.00,0.81
5101.00,0.81
5100.00,0.81
5099.00,0.81
5098.00,0.81
5097.00,0.82
5096.00,0.82
5095.00,0.82
5094.00,0.82
5093.00,0.82
5092.00,0.82
5091.00,0.82
5090.00,0.82
5089.00,0.82
5088.00,0.82
5087.00,0.82
5086.00,0.82
5085.00,0.82
5084.00,0.82
5083.00,0.83
5082.00,0.83
5081.00,0.83
5080.00,0.83
5079.00,0.83
5078.00,0.83
5077.00,0.83
5076.00,0.83
5075.00,0.83
5074.00,0.83
5073.00,0.83
5072.00,0.83
5071.00,0.83
5070.00,0.83
5069.00,0.84
5068.00,0.84
5067.00,0.84
5066.00,0.84
5065.00,0.84
5064.00,0.84
5063.00,0.84
5062.00,0.84
5061.00,0.84
5060.00,0.85
5059.00,0.85
5058.00,0.85
5057.00,0.85
5056.00,0.85
5055.00,0.85
5054.00,0.85
5053.00,0.85
5052.00,0.85
5051.00,0.85
5050.00,0.86
5049.00,0.86
5048.00,0.86
5047.00,0.86
5046.00,0.86
5045.00,0.86
5044.00,0.86
5043.00,0.86
5042.00,0.86
5041.00,0.86
5040.00,0.86
5039.00,0.86
5038.00,0.86
5037.00,0.86
5036.00,0.86
5035.00,0.86
5034.00,0.86
5033.00,0.86
5032.00,0.86
5031.00,0.86
5030.00,0.86
5029.00,0.86
5028.00,0.86
5027.00,0.86
5026.00,0.87
5025.00,0.87
5024.00,0.87
5023.00,0.87
5022.00,0.87
5021.00,0.87
5020.00,0.87
5019.00,0.87
5018.00,0.87
5017.00,0.87
5016.00,0.88
5015.00,0.88
5014.00,0.88
5013.00,0.88
5012.00,0.88
5011.00,0.88
5010.00,0.88
5009.00,0.88
5008.00,0.88
5007.00,0.88
5006.00,0.88
5005.00,0.88
5004.00,0.88
5003.00,0.89
5002.00,0.89
5001.00,0.89
5000.00,0.89
4999.00,0.89
4998.00,0.89
4997.00,0.89
4996.00,0.89
4995.00,0.89
4994.00,0.89
4993.00,0.89
4992.00,0.89
4991.00,0.89
4990.00,0.90
4989.00,0.90
4988.00,0.90
4987.00,0.90
4986.00,0.90
4985.00,0.90
4984.00,0.90
4983.00,0.90
4982.00,0.90
4981.00,0.90
4980.00,0.91
4979.00,0.91
4978.00,0.91
4977.00,0.91
4976.00,0.91
4975.00,0.91
4974.00,0.91
4973.00,0.91
4972.00,0.91
4971.00,0.91
4970.00,0.92
4969.00,0.92
4968.00,0.92
4967.00,0.92
4966.00,0.92
4965.00,0.92
4964.00,0.92
4963.00,0.92
4962.00,0.93
4961.00,0.93
4960.00,0.93
4959.00,0.93
4958.00,0.93
4957.00,0.93
4956.00,0.93
4955.00,0.94
4954.00,0.94
4953.00,0.94
4952.00,0.94
4951.00,0.94
4950.00,0.94
4949.00,0.95
4948.00,0.95
4947.00,0.95
4946.00,0.95
4945.00,0.95
4944.00,0.95
4943.00,0.95
4942.00,0.95
4941.00,0.96
4940.00,0.96
4939.00,0.96
4938.00,0.96
4937.00,0.96
4936.00,0.96
4935.00,0.96
4934.00,0.96
4933.00,0.96
4932.00,0.96
4931.00,0.96
4930.00,0.96
4929.00,0.96
4928.00,0.97
4927.00,0.97
4926.00,0.97
4925.00,0.97
4924.00,0.97
4923.00,0.97
4922.00,0.97
4921.00,0.97
4920.00,0.97
4919.00,0.97
4918.00,0.97
4917.00,0.97
4916.00,0.98
4915.00,0.98
4914.00,0.98
4913.00,0.98
4912.00,0.98
4911.00,0.98
4910.00,0.98
4909.00,0.98
4908.00,0.98
4907.00,0.98
4906.00,0.99
4905.00,0.99
4904.00,0.99
4903.00,0.99
4902.00,0.99
4901.00,0.99
4900.00,0.99
4899.00,0.99
4898.00,0.99
4897.00,0.99
4896.00,0.99
4895.00,1.00
4894.00,1.00
4893.00,1.00
4892.00,1.00
4891.00,1.00
4890.00,1.00
4889.00,1.00
4888.00,1.00
4887.00,1.00
4886.00,1.00
4885.00,1.00
4884.00,1.00
4883.00,1.00
4882.00,1.00
4881.00,1.00
4880.00,1.00
4879.00,1.01
4878.00,1.01
4877.00,1.01
4876.00,1.01
4875.00,1.01
4874.00,1.01
4873.00,1.01
4872.00,1.01
4871.00,1.01
4870.00,1.01
4869.00,1.02
4868.00,1.02
4867.00,1.02
4866.00,1.02
4865.00,1.02
4864.00,1.02
4863.00,1.02
4862.00,1.02
4861.00,1.02
4860.00,1.02
4859.00,1.02
4858.00,1.02
4857.00,1.03
4856.00,1.03
4855.00,1.03
4854.00,1.03
4853.00,1.03
4852.00,1.03
4851.00,1.03
4850.00,1.03
4849.00,1.03
4848.00,1.03
4847.00,1.03
4846.00,1.03
4845.00,1.03
4844.00,1.03
4843.00,1.03
4842.00,1.03
4841.00,1.03
4840.00,1.03
4839.00,1.03
4838.00,1.03
4837.00,1.03
4836.00,1.03
4835.00,1.03
4834.00,1.03
4833.00,1.03
4832.00,1.03
4831.00,1.03
4830.00,1.04
4829.00,1.04
4828.00,1.04
4827.00,1.04
4826.00,1.04
4825.00,1.04
4824.00,1.04
4823.00,1.05
4822.00,1.05
4821.00,1.05
4820.00,1.05
4819.00,1.05
4818.00,1.06
4817.00,1.06
4816.00,1.06
4815.00,1.06
4814.00,1.06
4813.00,1.07
4812.00,1.07
4811.00,1.07
4810.00,1.07
4809.00,1.07
4808.00,1.07
4807.00,1.08
4806.00,1.08
4805.00,1.08
4804.00,1.08
4803.00,1.08
4802.00,1.08
4801.00,1.08
4800.00,1.08
4799.00,1.08
4798.00,1.09
4797.00,1.09
4796.00,1.09
4795.00,1.09
4794.00,1.09
4793.00,1.09
4792.00,1.09
4791.00,1.09
4790.00,1.09
4789.00,1.10
4788.00,1.10
4787.00,1.10
4786.00,1.10
4785.00,1.10
4784.00,1.10
4783.00,1.10
4782.00,1.10
4781.00,1.11
4780.00,1.11
4779.00,1.11
4778.00,1.11
4777.00,1.11
4776.00,1.11
4775.00,1.11
4774.00,1.11
4773.00,1.12
4772.00,1.12
4771.00,1.12
4770.00,1.12
4769.00,1.12
4768.00,1.12
4767.00,1.12
4766.00,1.12
4765.00,1.13
4764.00,1.13
4763.00,1.13
4762.00,1.13
4761.00,1.13
4760.00,1.13
4759.00,1.13
4758.00,1.14
4757.00,1.14
4756.00,1.14
4755.00,1.14
4754.00,1.14
4753.00,1.15
4752.00,1.15
4751.00,1.15
4750.00,1.15
4749.00,1.15
4748.00,1.15
4747.00,1.16
4746.00,1.16
4745.00,1.16
4744.00,1.16
4743.00,1.16
4742.00,1.17
4741.00,1.17
4740.00,1.17
4739.00,1.17
4738.00,1.18
4737.00,1.18
4736.00,1.18
4735.00,1.18
4734.00,1.19
4733.00,1.19
4732.00,1.19
4731.00,1.19
4730.00,1.20
4729.00,1.20
4728.00,1.20
4727.00,1.20
4726.00,1.20
4725.00,1.21
4724.00,1.21
4723.00,1.21
4722.00,1.21
4721.00,1.21
4720.00,1.21
4719.00,1.22
4718.00,1.22
4717.00,1.22
4716.00,1.22
4715.00,1.22
4714.00,1.22
4713.00,1.22
4712.00,1.22
4711.00,1.22
4710.00,1.23
4709.00,1.23
4708.00,1.23
4707.00,1.23
4706.00,1.23
4705.00,1.23
4704.00,1.24
4703.00,1.24
4702.00,1.24
4701.00,1.24
4700.00,1.24
4699.00,1.25
4698.00,1.25
4697.00,1.25
4696.00,1.25
4695.00,1.26
4694.00,1.26
4693.00,1.26
4692.00,1.27
4691.00,1.27
4690.00,1.27
4689.00,1.27
4688.00,1.28
4687.00,1.28
4686.00,1.28
4685.00,1.29
4684.00,1.29
4683.00,1.29
4682.00,1.29
4681.00,1.30
4680.00,1.30
4679.00,1.30
4678.00,1.30
4677.00,1.30
4676.00,1.31
4675.00,1.31
4674.00,1.31
4673.00,1.31
4672.00,1.31
4671.00,1.31
4670.00,1.31
4669.00,1.32
4668.00,1.32
4667.00,1.32
4666.00,1.32
4665.00,1.32
4664.00,1.32
4663.00,1.32
4662.00,1.32
4661.00,1.32
4660.00,1.33
4659.00,1.33
4658.00,1.33
4657.00,1.33
4656.00,1.33
4655.00,1.33
4654.00,1.33
4653.00,1.33
4652.00,1.33
4651.00,1.33
4650.00,1.33
4649.00,1.34
4648.00,1.34
4647.00,1.34
4646.00,1.34
4645.00,1.34
4644.00,1.35
4643.00,1.35
4642.00,1.35
4641.00,1.36
4640.00,1.36
4639.00,1.36
4638.00,1.36
4637.00,1.37
4636.00,1.37
4635.00,1.37
4634.00,1.37
4633.00,1.38
4632.00,1.38
4631.00,1.38
4630.00,1.38
4629.00,1.38
4628.00,1.39
4627.00,1.39
4626.00,1.39
4625.00,1.39
4624.00,1.39
4623.00,1.39
4622.00,1.39
4621.00,1.40
4620.00,1.40
4619.00,1.40
4618.00,1.40
4617.00,1.40
4616.00,1.40
4615.00,1.40
4614.00,1.40
4613.00,1.40
4612.00,1.40
4611.00,1.41
4610.00,1.41
4609.00,1.41
4608.00,1.41
4607.00,1.41
4606.00,1.41
4605.00,1.41
4604.00,1.41
4603.00,1.41
4602.00,1.41
4601.00,1.42
4600.00,1.42
4599.00,1.42
4598.00,1.42
4597.00,1.42
4596.00,1.42
4595.00,1.42
4594.00,1.43
4593.00,1.43
4592.00,1.43
4591.00,1.43
4590.00,1.43
4589.00,1.43
4588.00,1.43
4587.00,1.43
4586.00,1.44
4585.00,1.44
4584.00,1.44
4583.00,1.44
4582.00,1.44
4581.00,1.44
4580.00,1.44
4579.00,1.44
4578.00,1.44
4577.00,1.44
4576.00,1.44
4575.00,1.44
4574.00,1.44
4573.00,1.44
4572.00,1.45
4571.00,1.45
4570.00,1.45
4569.00,1.45
4568.00,1.45
4567.00,1.45
4566.00,1.45
4565.00,1.45
4564.00,1.45
4563.00,1.46
4562.00,1.46
4561.00,1.46
4560.00,1.46
4559.00,1.46
4558.00,1.46
4557.00,1.47
4556.00,1.47
4555.00,1.47
4554.00,1.47
4553.00,1.47
4552.00,1.47
4551.00,1.48
4550.00,1.48
4549.00,1.48
4548.00,1.48
4547.00,1.48
4546.00,1.48
4545.00,1.48
4544.00,1.49
4543.00,1.49
4542.00,1.49
4541.00,1.49
4540.00,1.49
4539.00,1.49
4538.00,1.49
4537.00,1.49
4536.00,1.50
4535.00,1.50
4534.00,1.50
4533.00,1.50
4532.00,1.50
4531.00,1.50
4530.00,1.50
4529.00,1.50
4528.00,1.50
4527.00,1.50
4526.00,1.50
4525.00,1.50
4524.00,1.50
4523.00,1.50
4522.00,1.51
4521.00,1.51
4520.00,1.51
4519.00,1.51
4518.00,1.51
4517.00,1.51
4516.00,1.51
4515.00,1.51
4514.00,1.51
4513.00,1.51
4512.00,1.51
4511.00,1.51
4510.00,1.51
4509.00,1.51
4508.00,1.51
4507.00,1.51
4506.00,1.51
4505.00,1.51
4504.00,1.51
4503.00,1.50
4502.00,1.50
4501.00,1.50
4500.00,1.50
4499.00,1.50
4498.00,1.50
4497.00,1.50
4496.00,1.50
4495.00,1.50
4494.00,1.50
4493.00,1.50
4492.00,1.50
4491.00,1.50
4490.00,1.50
4489.00,1.50
4488.00,1.50
4487.00,1.50
4486.00,1.49
4485.00,1.49
4484.00,1.49
4483.00,1.49
4482.00,1.49
4481.00,1.49
4480.00,1.48
4479.00,1.48
4478.00,1.48
4477.00,1.48
4476.00,1.48
4475.00,1.47
4474.00,1.47
4473.00,1.47
4472.00,1.46
4471.00,1.46
4470.00,1.46
4469.00,1.45
4468.00,1.45
4467.00,1.45
4466.00,1.44
4465.00,1.44
4464.00,1.44
4463.00,1.43
4462.00,1.43
4461.00,1.43
4460.00,1.42
4459.00,1.42
4458.00,1.42
4457.00,1.41
4456.00,1.41
4455.00,1.41
4454.00,1.41
4453.00,1.40
4452.00,1.40
4451.00,1.40
4450.00,1.39
4449.00,1.39
4448.00,1.38
4447.00,1.38
4446.00,1.38
4445.00,1.37
4444.00,1.37
4443.00,1.36
4442.00,1.36
4441.00,1.35
4440.00,1.35
4439.00,1.35
4438.00,1.34
4437.00,1.34
4436.00,1.33
4435.00,1.33
4434.00,1.33
4433.00,1.32
4432.00,1.32
4431.00,1.32
4430.00,1.32
4429.00,1.31
4428.00,1.31
4427.00,1.31
4426.00,1.31
4425.00,1.31
4424.00,1.31
4423.00,1.31
4422.00,1.31
4421.00,1.31
4420.00,1.31
4419.00,1.31
4418.00,1.31
4417.00,1.30
4416.00,1.30
4415.00,1.30
4414.00,1.30
4413.00,1.30
4412.00,1.30
4411.00,1.30
4410.00,1.30
4409.00,1.30
4408.00,1.30
4407.00,1.30
4406.00,1.30
4405.00,1.30
4404.00,1.30
4403.00,1.30
4402.00,1.30
4401.00,1.30
4400.00,1.30
4399.00,1.30
4398.00,1.31
4397.00,1.31
4396.00,1.31
4395.00,1.31
4394.00,1.31
4393.00,1.31
4392.00,1.31
4391.00,1.32
4390.00,1.32
4389.00,1.32
4388.00,1.32
4387.00,1.32
4386.00,1.33
4385.00,1.33
4384.00,1.33
4383.00,1.33
4382.00,1.33
4381.00,1.34
4380.00,1.34
4379.00,1.34
4378.00,1.34
4377.00,1.34
4376.00,1.34
4375.00,1.34
4374.00,1.34
4373.00,1.34
4372.00,1.34
4371.00,1.35
4370.00,1.35
4369.00,1.35
4368.00,1.35
4367.00,1.35
4366.00,1.35
4365.00,1.35
4364.00,1.35
4363.00,1.35
4362.00,1.35
4361.00,1.35
4360.00,1.35
4359.00,1.35
4358.00,1.35
4357.00,1.35
4356.00,1.35
4355.00,1.35
4354.00,1.35
4353.00,1.35
4352.00,1.35
4351.00,1.35
4350.00,1.36
4349.00,1.36
4348.00,1.36
4347.00,1.36
4346.00,1.36
4345.00,1.36
4344.00,1.36
4343.00,1.36
4342.00,1.36
4341.00,1.36
4340.00,1.36
4339.00,1.36
4338.00,1.37
4337.00,1.37
4336.00,1.37
4335.00,1.37
4334.00,1.37
4333.00,1.37
4332.00,1.38
4331.00,1.38
4330.00,1.38
4329.00,1.38
4328.00,1.38
4327.00,1.38
4326.00,1.38
4325.00,1.38
4324.00,1.39
4323.00,1.39
4322.00,1.39
4321.00,1.39
4320.00,1.39
4319.00,1.39
4318.00,1.39
4317.00,1.39
4316.00,1.39
4315.00,1.39
4314.00,1.39
4313.00,1.40
4312.00,1.40
4311.00,1.40
4310.00,1.40
4309.00,1.40
4308.00,1.40
4307.00,1.40
4306.00,1.40
4305.00,1.41
4304.00,1.41
4303.00,1.41
4302.00,1.41
4301.00,1.41
4300.00,1.41
4299.00,1.42
4298.00,1.42
4297.00,1.42
4296.00,1.42
4295.00,1.42
4294.00,1.42
4293.00,1.43
4292.00,1.43
4291.00,1.43
4290.00,1.43
4289.00,1.43
4288.00,1.44
4287.00,1.44
4286.00,1.44
4285.00,1.44
4284.00,1.44
4283.00,1.44
4282.00,1.44
4281.00,1.44
4280.00,1.44
4279.00,1.45
4278.00,1.45
4277.00,1.45
4276.00,1.45
4275.00,1.45
4274.00,1.45
4273.00,1.45
4272.00,1.44
4271.00,1.44
4270.00,1.44
4269.00,1.44
4268.00,1.44
4267.00,1.44
4266.00,1.44
4265.00,1.44
4264.00,1.44
4263.00,1.44
4262.00,1.44
4261.00,1.44
4260.00,1.44
4259.00,1.44
4258.00,1.44
4257.00,1.44
4256.00,1.44
4255.00,1.44
4254.00,1.44
4253.00,1.45
4252.00,1.45
4251.00,1.45
4250.00,1.45
4249.00,1.45
4248.00,1.45
4247.00,1.46
4246.00,1.46
4245.00,1.46
4244.00,1.46
4243.00,1.46
4242.00,1.47
4241.00,1.47
4240.00,1.47
4239.00,1.47
4238.00,1.47
4237.00,1.48
4236.00,1.48
4235.00,1.48
4234.00,1.48
4233.00,1.48
4232.00,1.48
4231.00,1.48
4230.00,1.49
4229.00,1.49
4228.00,1.49
4227.00,1.49
4226.00,1.49
4225.00,1.49
4224.00,1.50
4223.00,1.50
4222.00,1.50
4221.00,1.50
4220.00,1.50
4219.00,1.50
4218.00,1.51
4217.00,1.51
4216.00,1.51
4215.00,1.51
4214.00,1.51
4213.00,1.51
4212.00,1.51
4211.00,1.52
4210.00,1.52
4209.00,1.52
4208.00,1.52
4207.00,1.52
4206.00,1.52
4205.00,1.52
4204.00,1.52
4203.00,1.52
4202.00,1.53
4201.00,1.53
4200.00,1.53
4199.00,1.53
4198.00,1.53
4197.00,1.53
4196.00,1.53
4195.00,1.53
4194.00,1.53
4193.00,1.53
4192.00,1.53
4191.00,1.53
4190.00,1.53
4189.00,1.53
4188.00,1.53
4187.00,1.53
4186.00,1.52
4185.00,1.52
4184.00,1.52
4183.00,1.52
4182.00,1.52
4181.00,1.52
4180.00,1.52
4179.00,1.52
4178.00,1.52
4177.00,1.52
4176.00,1.52
4175.00,1.52
4174.00,1.52
4173.00,1.52
4172.00,1.52
4171.00,1.52
4170.00,1.52
4169.00,1.52
4168.00,1.53
4167.00,1.53
4166.00,1.53
4165.00,1.53
4164.00,1.54
4163.00,1.54
4162.00,1.54
4161.00,1.54
4160.00,1.54
4159.00,1.55
4158.00,1.55
4157.00,1.55
4156.00,1.55
4155.00,1.55
4154.00,1.55
4153.00,1.55
4152.00,1.55
4151.00,1.56
4150.00,1.56
4149.00,1.56
4148.00,1.56
4147.00,1.56
4146.00,1.56
4145.00,1.56
4144.00,1.56
4143.00,1.56
4142.00,1.56
4141.00,1.56
4140.00,1.56
4139.00,1.56
4138.00,1.56
4137.00,1.56
4136.00,1.56
4135.00,1.56
4134.00,1.56
4133.00,1.56
4132.00,1.56
4131.00,1.56
4130.00,1.56
4129.00,1.56
4128.00,1.56
4127.00,1.56
4126.00,1.56
4125.00,1.56
4124.00,1.56
4123.00,1.56
4122.00,1.56
4121.00,1.57
4120.00,1.57
4119.00,1.57
4118.00,1.57
4117.00,1.57
4116.00,1.58
4115.00,1.58
4114.00,1.58
4113.00,1.59
4112.00,1.59
4111.00,1.59
4110.00,1.60
4109.00,1.60
4108.00,1.60
4107.00,1.61
4106.00,1.61
4105.00,1.61
4104.00,1.61
4103.00,1.62
4102.00,1.62
4101.00,1.62
4100.00,1.62
4099.00,1.62
4098.00,1.62
4097.00,1.62
4096.00,1.61
4095.00,1.61
4094.00,1.61
4093.00,1.61
4092.00,1.61
4091.00,1.61
4090.00,1.61
4089.00,1.61
4088.00,1.61
4087.00,1.61
4086.00,1.61
4085.00,1.60
4084.00,1.60
4083.00,1.60
4082.00,1.60
4081.00,1.60
4080.00,1.60
4079.00,1.60
4078.00,1.60
4077.00,1.60
4076.00,1.60
4075.00,1.60
4074.00,1.60
4073.00,1.60
4072.00,1.60
4071.00,1.60
4070.00,1.60
4069.00,1.61
4068.00,1.61
4067.00,1.61
4066.00,1.61
4065.00,1.61
4064.00,1.61
4063.00,1.62
4062.00,1.62
4061.00,1.62
4060.00,1.63
4059.00,1.63
4058.00,1.63
4057.00,1.63
4056.00,1.64
4055.00,1.64
4054.00,1.64
4053.00,1.65
4052.00,1.65
4051.00,1.65
4050.00,1.65
4049.00,1.65
4048.00,1.65
4047.00,1.65
4046.00,1.65
4045.00,1.65
4044.00,1.65
4043.00,1.65
4042.00,1.65
4041.00,1.65
4040.00,1.65
4039.00,1.65
4038.00,1.65
4037.00,1.65
4036.00,1.65
4035.00,1.65
4034.00,1.65
4033.00,1.65
4032.00,1.65
4031.00,1.65
4030.00,1.66
4029.00,1.66
4028.00,1.66
4027.00,1.66
4026.00,1.66
4025.00,1.66
4024.00,1.66
4023.00,1.67
4022.00,1.67
4021.00,1.67
4020.00,1.67
4019.00,1.67
4018.00,1.67
4017.00,1.67
4016.00,1.68
4015.00,1.68
4014.00,1.68
4013.00,1.69
4012.00,1.69
4011.00,1.69
4010.00,1.70
4009.00,1.70
4008.00,1.71
4007.00,1.71
4006.00,1.72
4005.00,1.73
4004.00,1.73
4003.00,1.74
4002.00,1.74
4001.00,1.75
4000.00,1.76
