创建为新数据集,样品 774 用户 Administrator 日期 星期五, 七月 20 2018
cm-1,%T
10000.00,1.24
9999.00,1.24
9998.00,1.24
9997.00,1.24
9996.00,1.24
9995.00,1.24
9994.00,1.24
9993.00,1.24
9992.00,1.24
9991.00,1.24
9990.00,1.23
9989.00,1.23
9988.00,1.23
9987.00,1.23
9986.00,1.23
9985.00,1.23
9984.00,1.22
9983.00,1.22
9982.00,1.22
9981.00,1.22
9980.00,1.22
9979.00,1.22
9978.00,1.22
9977.00,1.22
9976.00,1.22
9975.00,1.22
9974.00,1.22
9973.00,1.22
9972.00,1.22
9971.00,1.22
9970.00,1.22
9969.00,1.22
9968.00,1.22
9967.00,1.22
9966.00,1.22
9965.00,1.22
9964.00,1.22
9963.00,1.23
9962.00,1.23
9961.00,1.23
9960.00,1.23
9959.00,1.23
9958.00,1.23
9957.00,1.23
9956.00,1.23
9955.00,1.23
9954.00,1.23
9953.00,1.23
9952.00,1.23
9951.00,1.23
9950.00,1.24
9949.00,1.24
9948.00,1.24
9947.00,1.24
9946.00,1.24
9945.00,1.24
9944.00,1.24
9943.00,1.24
9942.00,1.24
9941.00,1.24
9940.00,1.24
9939.00,1.24
9938.00,1.24
9937.00,1.24
9936.00,1.24
9935.00,1.24
9934.00,1.24
9933.00,1.24
9932.00,1.24
9931.00,1.24
9930.00,1.24
9929.00,1.24
9928.00,1.23
9927.00,1.23
9926.00,1.23
9925.00,1.22
9924.00,1.22
9923.00,1.22
9922.00,1.22
9921.00,1.21
9920.00,1.21
9919.00,1.21
9918.00,1.21
9917.00,1.21
9916.00,1.21
9915.00,1.21
9914.00,1.21
9913.00,1.22
9912.00,1.22
9911.00,1.22
9910.00,1.22
9909.00,1.22
9908.00,1.22
9907.00,1.22
9906.00,1.22
9905.00,1.22
9904.00,1.22
9903.00,1.22
9902.00,1.22
9901.00,1.22
9900.00,1.22
9899.00,1.22
9898.00,1.22
9897.00,1.22
9896.00,1.22
9895.00,1.22
9894.00,1.21
9893.00,1.21
9892.00,1.21
9891.00,1.21
9890.00,1.21
9889.00,1.21
9888.00,1.21
9887.00,1.21
9886.00,1.21
9885.00,1.21
9884.00,1.21
9883.00,1.21
9882.00,1.21
9881.00,1.21
9880.00,1.21
9879.00,1.21
9878.00,1.21
9877.00,1.21
9876.00,1.21
9875.00,1.21
9874.00,1.21
9873.00,1.21
9872.00,1.21
9871.00,1.21
9870.00,1.21
9869.00,1.21
9868.00,1.21
9867.00,1.20
9866.00,1.20
9865.00,1.20
9864.00,1.20
9863.00,1.20
9862.00,1.20
9861.00,1.20
9860.00,1.20
9859.00,1.20
9858.00,1.20
9857.00,1.20
9856.00,1.21
9855.00,1.21
9854.00,1.21
9853.00,1.21
9852.00,1.22
9851.00,1.22
9850.00,1.22
9849.00,1.22
9848.00,1.23
9847.00,1.23
9846.00,1.23
9845.00,1.23
9844.00,1.23
9843.00,1.23
9842.00,1.23
9841.00,1.23
9840.00,1.23
9839.00,1.23
9838.00,1.23
9837.00,1.23
9836.00,1.23
9835.00,1.22
9834.00,1.22
9833.00,1.22
9832.00,1.22
9831.00,1.22
9830.00,1.22
9829.00,1.22
9828.00,1.22
9827.00,1.22
9826.00,1.22
9825.00,1.22
9824.00,1.22
9823.00,1.22
9822.00,1.22
9821.00,1.22
9820.00,1.22
9819.00,1.22
9818.00,1.22
9817.00,1.22
9816.00,1.22
9815.00,1.22
9814.00,1.22
9813.00,1.22
9812.00,1.22
9811.00,1.21
9810.00,1.21
9809.00,1.21
9808.00,1.21
9807.00,1.21
9806.00,1.21
9805.00,1.21
9804.00,1.21
9803.00,1.21
9802.00,1.21
9801.00,1.21
9800.00,1.21
9799.00,1.21
9798.00,1.21
9797.00,1.21
9796.00,1.21
9795.00,1.21
9794.00,1.22
9793.00,1.22
9792.00,1.22
9791.00,1.22
9790.00,1.22
9789.00,1.22
9788.00,1.22
9787.00,1.22
9786.00,1.22
9785.00,1.21
9784.00,1.21
9783.00,1.21
9782.00,1.21
9781.00,1.21
9780.00,1.20
9779.00,1.20
9778.00,1.20
9777.00,1.20
9776.00,1.19
9775.00,1.19
9774.00,1.19
9773.00,1.19
9772.00,1.19
9771.00,1.19
9770.00,1.19
9769.00,1.19
9768.00,1.19
9767.00,1.19
9766.00,1.20
9765.00,1.20
9764.00,1.20
9763.00,1.20
9762.00,1.20
9761.00,1.21
9760.00,1.21
9759.00,1.21
9758.00,1.21
9757.00,1.21
9756.00,1.21
9755.00,1.22
9754.00,1.22
9753.00,1.22
9752.00,1.22
9751.00,1.22
9750.00,1.22
9749.00,1.22
9748.00,1.22
9747.00,1.22
9746.00,1.22
9745.00,1.22
9744.00,1.22
9743.00,1.21
9742.00,1.21
9741.00,1.21
9740.00,1.21
9739.00,1.20
9738.00,1.20
9737.00,1.20
9736.00,1.20
9735.00,1.19
9734.00,1.19
9733.00,1.19
9732.00,1.19
9731.00,1.19
9730.00,1.19
9729.00,1.19
9728.00,1.19
9727.00,1.19
9726.00,1.19
9725.00,1.19
9724.00,1.19
9723.00,1.20
9722.00,1.20
9721.00,1.20
9720.00,1.20
9719.00,1.20
9718.00,1.21
9717.00,1.21
9716.00,1.21
9715.00,1.21
9714.00,1.22
9713.00,1.22
9712.00,1.22
9711.00,1.22
9710.00,1.22
9709.00,1.22
9708.00,1.23
9707.00,1.23
9706.00,1.23
9705.00,1.23
9704.00,1.23
9703.00,1.23
9702.00,1.23
9701.00,1.23
9700.00,1.23
9699.00,1.23
9698.00,1.23
9697.00,1.23
9696.00,1.23
9695.00,1.23
9694.00,1.23
9693.00,1.24
9692.00,1.24
9691.00,1.24
9690.00,1.24
9689.00,1.24
9688.00,1.24
9687.00,1.24
9686.00,1.24
9685.00,1.24
9684.00,1.24
9683.00,1.24
9682.00,1.24
9681.00,1.24
9680.00,1.23
9679.00,1.23
9678.00,1.23
9677.00,1.23
9676.00,1.22
9675.00,1.22
9674.00,1.22
9673.00,1.21
9672.00,1.21
9671.00,1.21
9670.00,1.21
9669.00,1.20
9668.00,1.20
9667.00,1.20
9666.00,1.20
9665.00,1.20
9664.00,1.20
9663.00,1.20
9662.00,1.20
9661.00,1.20
9660.00,1.20
9659.00,1.20
9658.00,1.20
9657.00,1.20
9656.00,1.20
9655.00,1.21
9654.00,1.21
9653.00,1.21
9652.00,1.21
9651.00,1.21
9650.00,1.21
9649.00,1.21
9648.00,1.21
9647.00,1.21
9646.00,1.21
9645.00,1.21
9644.00,1.21
9643.00,1.21
9642.00,1.21
9641.00,1.21
9640.00,1.21
9639.00,1.21
9638.00,1.21
9637.00,1.21
9636.00,1.21
9635.00,1.21
9634.00,1.21
9633.00,1.21
9632.00,1.21
9631.00,1.21
9630.00,1.21
9629.00,1.21
9628.00,1.21
9627.00,1.21
9626.00,1.20
9625.00,1.20
9624.00,1.20
9623.00,1.20
9622.00,1.20
9621.00,1.20
9620.00,1.20
9619.00,1.20
9618.00,1.20
9617.00,1.20
9616.00,1.20
9615.00,1.20
9614.00,1.20
9613.00,1.20
9612.00,1.20
9611.00,1.20
9610.00,1.20
9609.00,1.20
9608.00,1.20
9607.00,1.20
9606.00,1.20
9605.00,1.20
9604.00,1.20
9603.00,1.20
9602.00,1.20
9601.00,1.20
9600.00,1.20
9599.00,1.20
9598.00,1.20
9597.00,1.21
9596.00,1.21
9595.00,1.21
9594.00,1.21
9593.00,1.21
9592.00,1.21
9591.00,1.21
9590.00,1.21
9589.00,1.21
9588.00,1.21
9587.00,1.22
9586.00,1.22
9585.00,1.22
9584.00,1.22
9583.00,1.22
9582.00,1.22
9581.00,1.22
9580.00,1.22
9579.00,1.23
9578.00,1.23
9577.00,1.23
9576.00,1.23
9575.00,1.23
9574.00,1.24
9573.00,1.24
9572.00,1.24
9571.00,1.24
9570.00,1.24
9569.00,1.24
9568.00,1.24
9567.00,1.24
9566.00,1.24
9565.00,1.24
9564.00,1.24
9563.00,1.24
9562.00,1.24
9561.00,1.24
9560.00,1.23
9559.00,1.23
9558.00,1.23
9557.00,1.23
9556.00,1.23
9555.00,1.22
9554.00,1.22
9553.00,1.22
9552.00,1.21
9551.00,1.21
9550.00,1.21
9549.00,1.21
9548.00,1.20
9547.00,1.20
9546.00,1.20
9545.00,1.19
9544.00,1.19
9543.00,1.19
9542.00,1.19
9541.00,1.19
9540.00,1.19
9539.00,1.19
9538.00,1.19
9537.00,1.19
9536.00,1.19
9535.00,1.19
9534.00,1.19
9533.00,1.19
9532.00,1.19
9531.00,1.19
9530.00,1.19
9529.00,1.19
9528.00,1.19
9527.00,1.20
9526.00,1.20
9525.00,1.20
9524.00,1.19
9523.00,1.19
9522.00,1.19
9521.00,1.19
9520.00,1.19
9519.00,1.19
9518.00,1.19
9517.00,1.19
9516.00,1.19
9515.00,1.19
9514.00,1.19
9513.00,1.19
9512.00,1.19
9511.00,1.19
9510.00,1.19
9509.00,1.20
9508.00,1.20
9507.00,1.20
9506.00,1.21
9505.00,1.21
9504.00,1.21
9503.00,1.21
9502.00,1.22
9501.00,1.22
9500.00,1.22
9499.00,1.22
9498.00,1.22
9497.00,1.22
9496.00,1.22
9495.00,1.22
9494.00,1.22
9493.00,1.22
9492.00,1.22
9491.00,1.22
9490.00,1.22
9489.00,1.22
9488.00,1.21
9487.00,1.21
9486.00,1.21
9485.00,1.21
9484.00,1.21
9483.00,1.21
9482.00,1.21
9481.00,1.20
9480.00,1.20
9479.00,1.20
9478.00,1.20
9477.00,1.20
9476.00,1.20
9475.00,1.20
9474.00,1.20
9473.00,1.20
9472.00,1.21
9471.00,1.21
9470.00,1.21
9469.00,1.21
9468.00,1.21
9467.00,1.21
9466.00,1.21
9465.00,1.21
9464.00,1.21
9463.00,1.21
9462.00,1.21
9461.00,1.20
9460.00,1.20
9459.00,1.20
9458.00,1.20
9457.00,1.20
9456.00,1.20
9455.00,1.20
9454.00,1.20
9453.00,1.20
9452.00,1.20
9451.00,1.20
9450.00,1.20
9449.00,1.20
9448.00,1.20
9447.00,1.20
9446.00,1.20
9445.00,1.20
9444.00,1.20
9443.00,1.20
9442.00,1.20
9441.00,1.20
9440.00,1.20
9439.00,1.20
9438.00,1.20
9437.00,1.21
9436.00,1.21
9435.00,1.21
9434.00,1.21
9433.00,1.21
9432.00,1.21
9431.00,1.22
9430.00,1.22
9429.00,1.22
9428.00,1.22
9427.00,1.22
9426.00,1.22
9425.00,1.21
9424.00,1.21
9423.00,1.21
9422.00,1.21
9421.00,1.21
9420.00,1.21
9419.00,1.20
9418.00,1.20
9417.00,1.20
9416.00,1.20
9415.00,1.20
9414.00,1.20
9413.00,1.20
9412.00,1.20
9411.00,1.20
9410.00,1.20
9409.00,1.20
9408.00,1.20
9407.00,1.20
9406.00,1.20
9405.00,1.21
9404.00,1.21
9403.00,1.21
9402.00,1.21
9401.00,1.22
9400.00,1.22
9399.00,1.22
9398.00,1.22
9397.00,1.22
9396.00,1.22
9395.00,1.22
9394.00,1.22
9393.00,1.22
9392.00,1.22
9391.00,1.22
9390.00,1.22
9389.00,1.22
9388.00,1.22
9387.00,1.22
9386.00,1.22
9385.00,1.22
9384.00,1.22
9383.00,1.22
9382.00,1.22
9381.00,1.22
9380.00,1.22
9379.00,1.22
9378.00,1.22
9377.00,1.22
9376.00,1.22
9375.00,1.21
9374.00,1.21
9373.00,1.21
9372.00,1.21
9371.00,1.21
9370.00,1.21
9369.00,1.21
9368.00,1.21
9367.00,1.21
9366.00,1.21
9365.00,1.21
9364.00,1.21
9363.00,1.21
9362.00,1.21
9361.00,1.21
9360.00,1.21
9359.00,1.21
9358.00,1.21
9357.00,1.21
9356.00,1.21
9355.00,1.21
9354.00,1.21
9353.00,1.21
9352.00,1.21
9351.00,1.21
9350.00,1.21
9349.00,1.21
9348.00,1.21
9347.00,1.20
9346.00,1.20
9345.00,1.20
9344.00,1.20
9343.00,1.20
9342.00,1.20
9341.00,1.20
9340.00,1.20
9339.00,1.20
9338.00,1.20
9337.00,1.21
9336.00,1.21
9335.00,1.21
9334.00,1.21
9333.00,1.21
9332.00,1.21
9331.00,1.21
9330.00,1.21
9329.00,1.21
9328.00,1.21
9327.00,1.22
9326.00,1.22
9325.00,1.22
9324.00,1.22
9323.00,1.22
9322.00,1.21
9321.00,1.21
9320.00,1.21
9319.00,1.21
9318.00,1.21
9317.00,1.21
9316.00,1.21
9315.00,1.21
9314.00,1.21
9313.00,1.21
9312.00,1.21
9311.00,1.21
9310.00,1.21
9309.00,1.21
9308.00,1.21
9307.00,1.22
9306.00,1.22
9305.00,1.22
9304.00,1.22
9303.00,1.22
9302.00,1.22
9301.00,1.23
9300.00,1.23
9299.00,1.23
9298.00,1.23
9297.00,1.23
9296.00,1.23
9295.00,1.23
9294.00,1.24
9293.00,1.24
9292.00,1.24
9291.00,1.24
9290.00,1.24
9289.00,1.24
9288.00,1.24
9287.00,1.24
9286.00,1.24
9285.00,1.24
9284.00,1.24
9283.00,1.24
9282.00,1.24
9281.00,1.24
9280.00,1.24
9279.00,1.24
9278.00,1.23
9277.00,1.23
9276.00,1.23
9275.00,1.23
9274.00,1.23
9273.00,1.23
9272.00,1.23
9271.00,1.23
9270.00,1.23
9269.00,1.23
9268.00,1.23
9267.00,1.22
9266.00,1.22
9265.00,1.22
9264.00,1.22
9263.00,1.22
9262.00,1.22
9261.00,1.22
9260.00,1.21
9259.00,1.21
9258.00,1.21
9257.00,1.21
9256.00,1.21
9255.00,1.21
9254.00,1.21
9253.00,1.21
9252.00,1.21
9251.00,1.21
9250.00,1.21
9249.00,1.21
9248.00,1.21
9247.00,1.21
9246.00,1.21
9245.00,1.21
9244.00,1.21
9243.00,1.21
9242.00,1.21
9241.00,1.21
9240.00,1.21
9239.00,1.21
9238.00,1.21
9237.00,1.21
9236.00,1.21
9235.00,1.21
9234.00,1.21
9233.00,1.21
9232.00,1.21
9231.00,1.21
9230.00,1.21
9229.00,1.21
9228.00,1.21
9227.00,1.20
9226.00,1.20
9225.00,1.20
9224.00,1.20
9223.00,1.20
9222.00,1.20
9221.00,1.20
9220.00,1.20
9219.00,1.20
9218.00,1.20
9217.00,1.20
9216.00,1.20
9215.00,1.20
9214.00,1.21
9213.00,1.21
9212.00,1.21
9211.00,1.21
9210.00,1.21
9209.00,1.21
9208.00,1.21
9207.00,1.22
9206.00,1.22
9205.00,1.22
9204.00,1.22
9203.00,1.22
9202.00,1.22
9201.00,1.22
9200.00,1.22
9199.00,1.22
9198.00,1.22
9197.00,1.22
9196.00,1.22
9195.00,1.22
9194.00,1.22
9193.00,1.22
9192.00,1.22
9191.00,1.22
9190.00,1.22
9189.00,1.22
9188.00,1.22
9187.00,1.22
9186.00,1.22
9185.00,1.22
9184.00,1.22
9183.00,1.22
9182.00,1.22
9181.00,1.22
9180.00,1.22
9179.00,1.22
9178.00,1.22
9177.00,1.22
9176.00,1.22
9175.00,1.22
9174.00,1.22
9173.00,1.22
9172.00,1.22
9171.00,1.22
9170.00,1.22
9169.00,1.22
9168.00,1.22
9167.00,1.22
9166.00,1.22
9165.00,1.22
9164.00,1.21
9163.00,1.21
9162.00,1.21
9161.00,1.21
9160.00,1.21
9159.00,1.21
9158.00,1.21
9157.00,1.21
9156.00,1.20
9155.00,1.20
9154.00,1.20
9153.00,1.20
9152.00,1.20
9151.00,1.20
9150.00,1.20
9149.00,1.20
9148.00,1.20
9147.00,1.20
9146.00,1.20
9145.00,1.20
9144.00,1.20
9143.00,1.20
9142.00,1.21
9141.00,1.21
9140.00,1.21
9139.00,1.21
9138.00,1.21
9137.00,1.21
9136.00,1.21
9135.00,1.21
9134.00,1.21
9133.00,1.22
9132.00,1.22
9131.00,1.22
9130.00,1.22
9129.00,1.22
9128.00,1.22
9127.00,1.22
9126.00,1.22
9125.00,1.22
9124.00,1.22
9123.00,1.22
9122.00,1.22
9121.00,1.22
9120.00,1.23
9119.00,1.23
9118.00,1.23
9117.00,1.23
9116.00,1.23
9115.00,1.23
9114.00,1.24
9113.00,1.24
9112.00,1.24
9111.00,1.24
9110.00,1.24
9109.00,1.24
9108.00,1.24
9107.00,1.24
9106.00,1.24
9105.00,1.24
9104.00,1.24
9103.00,1.24
9102.00,1.24
9101.00,1.23
9100.00,1.23
9099.00,1.23
9098.00,1.23
9097.00,1.23
9096.00,1.23
9095.00,1.23
9094.00,1.22
9093.00,1.22
9092.00,1.22
9091.00,1.22
9090.00,1.22
9089.00,1.22
9088.00,1.22
9087.00,1.22
9086.00,1.22
9085.00,1.22
9084.00,1.22
9083.00,1.22
9082.00,1.22
9081.00,1.22
9080.00,1.22
9079.00,1.22
9078.00,1.22
9077.00,1.22
9076.00,1.22
9075.00,1.22
9074.00,1.22
9073.00,1.22
9072.00,1.22
9071.00,1.22
9070.00,1.21
9069.00,1.21
9068.00,1.21
9067.00,1.21
9066.00,1.21
9065.00,1.21
9064.00,1.21
9063.00,1.21
9062.00,1.21
9061.00,1.21
9060.00,1.21
9059.00,1.21
9058.00,1.21
9057.00,1.21
9056.00,1.21
9055.00,1.21
9054.00,1.21
9053.00,1.21
9052.00,1.21
9051.00,1.21
9050.00,1.21
9049.00,1.21
9048.00,1.21
9047.00,1.21
9046.00,1.21
9045.00,1.21
9044.00,1.21
9043.00,1.21
9042.00,1.21
9041.00,1.21
9040.00,1.21
9039.00,1.21
9038.00,1.21
9037.00,1.21
9036.00,1.21
9035.00,1.21
9034.00,1.21
9033.00,1.21
9032.00,1.21
9031.00,1.21
9030.00,1.21
9029.00,1.21
9028.00,1.21
9027.00,1.21
9026.00,1.21
9025.00,1.21
9024.00,1.21
9023.00,1.21
9022.00,1.21
9021.00,1.21
9020.00,1.21
9019.00,1.21
9018.00,1.21
9017.00,1.21
9016.00,1.21
9015.00,1.21
9014.00,1.21
9013.00,1.21
9012.00,1.21
9011.00,1.21
9010.00,1.21
9009.00,1.21
9008.00,1.21
9007.00,1.21
9006.00,1.21
9005.00,1.21
9004.00,1.21
9003.00,1.21
9002.00,1.21
9001.00,1.21
9000.00,1.21
8999.00,1.21
8998.00,1.22
8997.00,1.22
8996.00,1.22
8995.00,1.22
8994.00,1.22
8993.00,1.22
8992.00,1.22
8991.00,1.22
8990.00,1.22
8989.00,1.22
8988.00,1.23
8987.00,1.23
8986.00,1.23
8985.00,1.23
8984.00,1.23
8983.00,1.23
8982.00,1.23
8981.00,1.23
8980.00,1.23
8979.00,1.23
8978.00,1.23
8977.00,1.23
8976.00,1.23
8975.00,1.23
8974.00,1.23
8973.00,1.23
8972.00,1.23
8971.00,1.23
8970.00,1.23
8969.00,1.23
8968.00,1.23
8967.00,1.23
8966.00,1.23
8965.00,1.23
8964.00,1.23
8963.00,1.23
8962.00,1.23
8961.00,1.23
8960.00,1.23
8959.00,1.23
8958.00,1.23
8957.00,1.23
8956.00,1.23
8955.00,1.23
8954.00,1.23
8953.00,1.23
8952.00,1.23
8951.00,1.23
8950.00,1.23
8949.00,1.23
8948.00,1.23
8947.00,1.23
8946.00,1.23
8945.00,1.23
8944.00,1.23
8943.00,1.22
8942.00,1.22
8941.00,1.22
8940.00,1.22
8939.00,1.22
8938.00,1.22
8937.00,1.22
8936.00,1.22
8935.00,1.22
8934.00,1.22
8933.00,1.22
8932.00,1.22
8931.00,1.22
8930.00,1.22
8929.00,1.22
8928.00,1.22
8927.00,1.22
8926.00,1.22
8925.00,1.23
8924.00,1.23
8923.00,1.23
8922.00,1.23
8921.00,1.23
8920.00,1.23
8919.00,1.23
8918.00,1.23
8917.00,1.23
8916.00,1.23
8915.00,1.23
8914.00,1.23
8913.00,1.23
8912.00,1.23
8911.00,1.23
8910.00,1.23
8909.00,1.23
8908.00,1.22
8907.00,1.22
8906.00,1.22
8905.00,1.22
8904.00,1.22
8903.00,1.22
8902.00,1.21
8901.00,1.21
8900.00,1.21
8899.00,1.21
8898.00,1.21
8897.00,1.21
8896.00,1.21
8895.00,1.21
8894.00,1.21
8893.00,1.21
8892.00,1.21
8891.00,1.21
8890.00,1.21
8889.00,1.21
8888.00,1.21
8887.00,1.21
8886.00,1.21
8885.00,1.21
8884.00,1.21
8883.00,1.21
8882.00,1.21
8881.00,1.21
8880.00,1.21
8879.00,1.21
8878.00,1.22
8877.00,1.22
8876.00,1.22
8875.00,1.22
8874.00,1.22
8873.00,1.22
8872.00,1.22
8871.00,1.22
8870.00,1.22
8869.00,1.22
8868.00,1.22
8867.00,1.22
8866.00,1.22
8865.00,1.22
8864.00,1.22
8863.00,1.22
8862.00,1.22
8861.00,1.22
8860.00,1.22
8859.00,1.22
8858.00,1.22
8857.00,1.22
8856.00,1.22
8855.00,1.21
8854.00,1.21
8853.00,1.21
8852.00,1.21
8851.00,1.21
8850.00,1.21
8849.00,1.21
8848.00,1.21
8847.00,1.21
8846.00,1.21
8845.00,1.21
8844.00,1.21
8843.00,1.21
8842.00,1.21
8841.00,1.21
8840.00,1.21
8839.00,1.21
8838.00,1.21
8837.00,1.21
8836.00,1.21
8835.00,1.21
8834.00,1.21
8833.00,1.20
8832.00,1.20
8831.00,1.20
8830.00,1.20
8829.00,1.20
8828.00,1.20
8827.00,1.20
8826.00,1.20
8825.00,1.20
8824.00,1.19
8823.00,1.19
8822.00,1.19
8821.00,1.19
8820.00,1.19
8819.00,1.20
8818.00,1.20
8817.00,1.20
8816.00,1.20
8815.00,1.20
8814.00,1.20
8813.00,1.20
8812.00,1.20
8811.00,1.21
8810.00,1.21
8809.00,1.21
8808.00,1.21
8807.00,1.21
8806.00,1.22
8805.00,1.22
8804.00,1.22
8803.00,1.22
8802.00,1.22
8801.00,1.22
8800.00,1.23
8799.00,1.23
8798.00,1.23
8797.00,1.23
8796.00,1.23
8795.00,1.22
8794.00,1.22
8793.00,1.22
8792.00,1.22
8791.00,1.22
8790.00,1.22
8789.00,1.21
8788.00,1.21
8787.00,1.21
8786.00,1.20
8785.00,1.20
8784.00,1.20
8783.00,1.20
8782.00,1.19
8781.00,1.19
8780.00,1.19
8779.00,1.19
8778.00,1.18
8777.00,1.18
8776.00,1.18
8775.00,1.18
8774.00,1.18
8773.00,1.18
8772.00,1.18
8771.00,1.18
8770.00,1.18
8769.00,1.18
8768.00,1.17
8767.00,1.17
8766.00,1.17
8765.00,1.17
8764.00,1.17
8763.00,1.17
8762.00,1.17
8761.00,1.17
8760.00,1.17
8759.00,1.17
8758.00,1.17
8757.00,1.17
8756.00,1.17
8755.00,1.17
8754.00,1.17
8753.00,1.17
8752.00,1.17
8751.00,1.17
8750.00,1.17
8749.00,1.18
8748.00,1.18
8747.00,1.18
8746.00,1.18
8745.00,1.18
8744.00,1.18
8743.00,1.18
8742.00,1.18
8741.00,1.18
8740.00,1.18
8739.00,1.18
8738.00,1.18
8737.00,1.18
8736.00,1.18
8735.00,1.18
8734.00,1.17
8733.00,1.17
8732.00,1.17
8731.00,1.17
8730.00,1.17
8729.00,1.17
8728.00,1.17
8727.00,1.17
8726.00,1.17
8725.00,1.17
8724.00,1.17
8723.00,1.17
8722.00,1.17
8721.00,1.17
8720.00,1.17
8719.00,1.17
8718.00,1.17
8717.00,1.17
8716.00,1.17
8715.00,1.17
8714.00,1.17
8713.00,1.17
8712.00,1.17
8711.00,1.17
8710.00,1.17
8709.00,1.18
8708.00,1.18
8707.00,1.18
8706.00,1.18
8705.00,1.18
8704.00,1.18
8703.00,1.18
8702.00,1.18
8701.00,1.18
8700.00,1.18
8699.00,1.18
8698.00,1.18
8697.00,1.18
8696.00,1.18
8695.00,1.18
8694.00,1.17
8693.00,1.17
8692.00,1.17
8691.00,1.17
8690.00,1.17
8689.00,1.17
8688.00,1.17
8687.00,1.17
8686.00,1.17
8685.00,1.17
8684.00,1.17
8683.00,1.17
8682.00,1.16
8681.00,1.16
8680.00,1.16
8679.00,1.16
8678.00,1.16
8677.00,1.16
8676.00,1.16
8675.00,1.16
8674.00,1.16
8673.00,1.16
8672.00,1.16
8671.00,1.15
8670.00,1.15
8669.00,1.15
8668.00,1.15
8667.00,1.15
8666.00,1.15
8665.00,1.15
8664.00,1.15
8663.00,1.15
8662.00,1.15
8661.00,1.15
8660.00,1.15
8659.00,1.15
8658.00,1.15
8657.00,1.15
8656.00,1.15
8655.00,1.15
8654.00,1.15
8653.00,1.15
8652.00,1.15
8651.00,1.15
8650.00,1.15
8649.00,1.15
8648.00,1.15
8647.00,1.15
8646.00,1.15
8645.00,1.15
8644.00,1.15
8643.00,1.15
8642.00,1.15
8641.00,1.15
8640.00,1.15
8639.00,1.15
8638.00,1.15
8637.00,1.15
8636.00,1.16
8635.00,1.16
8634.00,1.16
8633.00,1.16
8632.00,1.16
8631.00,1.16
8630.00,1.16
8629.00,1.15
8628.00,1.15
8627.00,1.15
8626.00,1.15
8625.00,1.15
8624.00,1.15
8623.00,1.15
8622.00,1.15
8621.00,1.15
8620.00,1.15
8619.00,1.15
8618.00,1.15
8617.00,1.15
8616.00,1.15
8615.00,1.15
8614.00,1.15
8613.00,1.15
8612.00,1.15
8611.00,1.15
8610.00,1.15
8609.00,1.15
8608.00,1.14
8607.00,1.14
8606.00,1.14
8605.00,1.14
8604.00,1.14
8603.00,1.14
8602.00,1.14
8601.00,1.14
8600.00,1.14
8599.00,1.14
8598.00,1.14
8597.00,1.14
8596.00,1.14
8595.00,1.13
8594.00,1.13
8593.00,1.13
8592.00,1.13
8591.00,1.13
8590.00,1.13
8589.00,1.13
8588.00,1.13
8587.00,1.13
8586.00,1.13
8585.00,1.13
8584.00,1.13
8583.00,1.13
8582.00,1.13
8581.00,1.13
8580.00,1.13
8579.00,1.13
8578.00,1.13
8577.00,1.13
8576.00,1.13
8575.00,1.13
8574.00,1.13
8573.00,1.13
8572.00,1.13
8571.00,1.13
8570.00,1.13
8569.00,1.12
8568.00,1.12
8567.00,1.12
8566.00,1.12
8565.00,1.12
8564.00,1.12
8563.00,1.12
8562.00,1.12
8561.00,1.12
8560.00,1.12
8559.00,1.12
8558.00,1.12
8557.00,1.12
8556.00,1.12
8555.00,1.12
8554.00,1.12
8553.00,1.12
8552.00,1.12
8551.00,1.12
8550.00,1.12
8549.00,1.12
8548.00,1.12
8547.00,1.12
8546.00,1.12
8545.00,1.12
8544.00,1.12
8543.00,1.12
8542.00,1.12
8541.00,1.12
8540.00,1.12
8539.00,1.12
8538.00,1.12
8537.00,1.12
8536.00,1.12
8535.00,1.12
8534.00,1.12
8533.00,1.12
8532.00,1.12
8531.00,1.12
8530.00,1.12
8529.00,1.12
8528.00,1.12
8527.00,1.12
8526.00,1.12
8525.00,1.12
8524.00,1.12
8523.00,1.12
8522.00,1.12
8521.00,1.12
8520.00,1.12
8519.00,1.12
8518.00,1.12
8517.00,1.11
8516.00,1.11
8515.00,1.11
8514.00,1.11
8513.00,1.11
8512.00,1.11
8511.00,1.11
8510.00,1.11
8509.00,1.11
8508.00,1.11
8507.00,1.11
8506.00,1.11
8505.00,1.11
8504.00,1.11
8503.00,1.11
8502.00,1.11
8501.00,1.11
8500.00,1.11
8499.00,1.11
8498.00,1.11
8497.00,1.10
8496.00,1.10
8495.00,1.10
8494.00,1.10
8493.00,1.10
8492.00,1.10
8491.00,1.10
8490.00,1.10
8489.00,1.09
8488.00,1.09
8487.00,1.09
8486.00,1.09
8485.00,1.09
8484.00,1.09
8483.00,1.09
8482.00,1.09
8481.00,1.09
8480.00,1.09
8479.00,1.09
8478.00,1.09
8477.00,1.09
8476.00,1.09
8475.00,1.09
8474.00,1.09
8473.00,1.09
8472.00,1.09
8471.00,1.09
8470.00,1.09
8469.00,1.09
8468.00,1.09
8467.00,1.09
8466.00,1.09
8465.00,1.09
8464.00,1.09
8463.00,1.08
8462.00,1.08
8461.00,1.08
8460.00,1.08
8459.00,1.08
8458.00,1.08
8457.00,1.08
8456.00,1.08
8455.00,1.08
8454.00,1.08
8453.00,1.08
8452.00,1.08
8451.00,1.08
8450.00,1.08
8449.00,1.08
8448.00,1.08
8447.00,1.08
8446.00,1.08
8445.00,1.08
8444.00,1.08
8443.00,1.08
8442.00,1.07
8441.00,1.07
8440.00,1.07
8439.00,1.07
8438.00,1.07
8437.00,1.07
8436.00,1.07
8435.00,1.07
8434.00,1.07
8433.00,1.07
8432.00,1.07
8431.00,1.07
8430.00,1.07
8429.00,1.07
8428.00,1.07
8427.00,1.07
8426.00,1.07
8425.00,1.07
8424.00,1.07
8423.00,1.07
8422.00,1.07
8421.00,1.07
8420.00,1.07
8419.00,1.07
8418.00,1.07
8417.00,1.07
8416.00,1.07
8415.00,1.07
8414.00,1.08
8413.00,1.08
8412.00,1.08
8411.00,1.08
8410.00,1.08
8409.00,1.08
8408.00,1.08
8407.00,1.09
8406.00,1.09
8405.00,1.09
8404.00,1.09
8403.00,1.09
8402.00,1.09
8401.00,1.10
8400.00,1.10
8399.00,1.10
8398.00,1.10
8397.00,1.10
8396.00,1.10
8395.00,1.10
8394.00,1.10
8393.00,1.10
8392.00,1.10
8391.00,1.10
8390.00,1.10
8389.00,1.10
8388.00,1.10
8387.00,1.10
8386.00,1.10
8385.00,1.10
8384.00,1.10
8383.00,1.10
8382.00,1.10
8381.00,1.10
8380.00,1.10
8379.00,1.11
8378.00,1.11
8377.00,1.11
8376.00,1.11
8375.00,1.11
8374.00,1.11
8373.00,1.11
8372.00,1.11
8371.00,1.11
8370.00,1.11
8369.00,1.11
8368.00,1.11
8367.00,1.11
8366.00,1.11
8365.00,1.12
8364.00,1.12
8363.00,1.12
8362.00,1.12
8361.00,1.12
8360.00,1.12
8359.00,1.12
8358.00,1.12
8357.00,1.12
8356.00,1.12
8355.00,1.12
8354.00,1.12
8353.00,1.12
8352.00,1.12
8351.00,1.12
8350.00,1.12
8349.00,1.12
8348.00,1.12
8347.00,1.12
8346.00,1.12
8345.00,1.12
8344.00,1.12
8343.00,1.11
8342.00,1.11
8341.00,1.11
8340.00,1.11
8339.00,1.11
8338.00,1.11
8337.00,1.11
8336.00,1.11
8335.00,1.11
8334.00,1.11
8333.00,1.11
8332.00,1.11
8331.00,1.11
8330.00,1.11
8329.00,1.11
8328.00,1.11
8327.00,1.11
8326.00,1.11
8325.00,1.11
8324.00,1.11
8323.00,1.11
8322.00,1.11
8321.00,1.11
8320.00,1.11
8319.00,1.11
8318.00,1.11
8317.00,1.11
8316.00,1.11
8315.00,1.11
8314.00,1.11
8313.00,1.11
8312.00,1.11
8311.00,1.11
8310.00,1.11
8309.00,1.11
8308.00,1.11
8307.00,1.11
8306.00,1.11
8305.00,1.11
8304.00,1.11
8303.00,1.11
8302.00,1.11
8301.00,1.12
8300.00,1.12
8299.00,1.12
8298.00,1.12
8297.00,1.12
8296.00,1.12
8295.00,1.13
8294.00,1.13
8293.00,1.13
8292.00,1.13
8291.00,1.13
8290.00,1.13
8289.00,1.13
8288.00,1.13
8287.00,1.13
8286.00,1.13
8285.00,1.13
8284.00,1.13
8283.00,1.13
8282.00,1.13
8281.00,1.13
8280.00,1.13
8279.00,1.13
8278.00,1.13
8277.00,1.13
8276.00,1.13
8275.00,1.13
8274.00,1.12
8273.00,1.12
8272.00,1.12
8271.00,1.12
8270.00,1.12
8269.00,1.12
8268.00,1.12
8267.00,1.12
8266.00,1.12
8265.00,1.13
8264.00,1.13
8263.00,1.13
8262.00,1.13
8261.00,1.13
8260.00,1.13
8259.00,1.13
8258.00,1.13
8257.00,1.13
8256.00,1.13
8255.00,1.13
8254.00,1.13
8253.00,1.13
8252.00,1.13
8251.00,1.13
8250.00,1.13
8249.00,1.13
8248.00,1.13
8247.00,1.13
8246.00,1.13
8245.00,1.13
8244.00,1.13
8243.00,1.13
8242.00,1.13
8241.00,1.13
8240.00,1.13
8239.00,1.13
8238.00,1.13
8237.00,1.13
8236.00,1.13
8235.00,1.13
8234.00,1.13
8233.00,1.13
8232.00,1.13
8231.00,1.13
8230.00,1.13
8229.00,1.13
8228.00,1.13
8227.00,1.13
8226.00,1.13
8225.00,1.14
8224.00,1.14
8223.00,1.14
8222.00,1.14
8221.00,1.14
8220.00,1.14
8219.00,1.14
8218.00,1.14
8217.00,1.14
8216.00,1.14
8215.00,1.14
8214.00,1.14
8213.00,1.14
8212.00,1.15
8211.00,1.15
8210.00,1.15
8209.00,1.15
8208.00,1.15
8207.00,1.15
8206.00,1.15
8205.00,1.15
8204.00,1.15
8203.00,1.15
8202.00,1.15
8201.00,1.15
8200.00,1.15
8199.00,1.15
8198.00,1.15
8197.00,1.15
8196.00,1.15
8195.00,1.15
8194.00,1.15
8193.00,1.15
8192.00,1.15
8191.00,1.15
8190.00,1.15
8189.00,1.15
8188.00,1.15
8187.00,1.15
8186.00,1.15
8185.00,1.15
8184.00,1.15
8183.00,1.15
8182.00,1.15
8181.00,1.15
8180.00,1.15
8179.00,1.15
8178.00,1.15
8177.00,1.15
8176.00,1.15
8175.00,1.15
8174.00,1.15
8173.00,1.15
8172.00,1.15
8171.00,1.15
8170.00,1.15
8169.00,1.15
8168.00,1.15
8167.00,1.15
8166.00,1.16
8165.00,1.16
8164.00,1.16
8163.00,1.16
8162.00,1.16
8161.00,1.16
8160.00,1.16
8159.00,1.16
8158.00,1.16
8157.00,1.17
8156.00,1.17
8155.00,1.17
8154.00,1.17
8153.00,1.17
8152.00,1.17
8151.00,1.17
8150.00,1.17
8149.00,1.17
8148.00,1.17
8147.00,1.17
8146.00,1.17
8145.00,1.17
8144.00,1.17
8143.00,1.17
8142.00,1.17
8141.00,1.18
8140.00,1.18
8139.00,1.18
8138.00,1.18
8137.00,1.18
8136.00,1.18
8135.00,1.18
8134.00,1.18
8133.00,1.18
8132.00,1.18
8131.00,1.18
8130.00,1.19
8129.00,1.19
8128.00,1.19
8127.00,1.19
8126.00,1.19
8125.00,1.19
8124.00,1.18
8123.00,1.18
8122.00,1.18
8121.00,1.18
8120.00,1.18
8119.00,1.18
8118.00,1.18
8117.00,1.18
8116.00,1.18
8115.00,1.17
8114.00,1.17
8113.00,1.17
8112.00,1.17
8111.00,1.17
8110.00,1.17
8109.00,1.17
8108.00,1.17
8107.00,1.17
8106.00,1.17
8105.00,1.17
8104.00,1.17
8103.00,1.17
8102.00,1.17
8101.00,1.17
8100.00,1.17
8099.00,1.17
8098.00,1.17
8097.00,1.17
8096.00,1.17
8095.00,1.17
8094.00,1.17
8093.00,1.17
8092.00,1.17
8091.00,1.17
8090.00,1.18
8089.00,1.18
8088.00,1.18
8087.00,1.18
8086.00,1.18
8085.00,1.18
8084.00,1.18
8083.00,1.18
8082.00,1.18
8081.00,1.18
8080.00,1.19
8079.00,1.19
8078.00,1.19
8077.00,1.19
8076.00,1.19
8075.00,1.19
8074.00,1.19
8073.00,1.19
8072.00,1.19
8071.00,1.19
8070.00,1.19
8069.00,1.18
8068.00,1.18
8067.00,1.18
8066.00,1.18
8065.00,1.18
8064.00,1.18
8063.00,1.18
8062.00,1.18
8061.00,1.18
8060.00,1.18
8059.00,1.18
8058.00,1.18
8057.00,1.18
8056.00,1.18
8055.00,1.18
8054.00,1.18
8053.00,1.18
8052.00,1.18
8051.00,1.19
8050.00,1.19
8049.00,1.19
8048.00,1.19
8047.00,1.19
8046.00,1.19
8045.00,1.19
8044.00,1.19
8043.00,1.19
8042.00,1.19
8041.00,1.19
8040.00,1.19
8039.00,1.19
8038.00,1.19
8037.00,1.19
8036.00,1.19
8035.00,1.19
8034.00,1.19
8033.00,1.19
8032.00,1.19
8031.00,1.19
8030.00,1.19
8029.00,1.19
8028.00,1.19
8027.00,1.19
8026.00,1.19
8025.00,1.19
8024.00,1.20
8023.00,1.20
8022.00,1.20
8021.00,1.20
8020.00,1.20
8019.00,1.20
8018.00,1.20
8017.00,1.20
8016.00,1.20
8015.00,1.20
8014.00,1.20
8013.00,1.20
8012.00,1.20
8011.00,1.20
8010.00,1.20
8009.00,1.20
8008.00,1.20
8007.00,1.20
8006.00,1.20
8005.00,1.20
8004.00,1.20
8003.00,1.20
8002.00,1.19
8001.00,1.19
8000.00,1.19
7999.00,1.19
7998.00,1.19
7997.00,1.19
7996.00,1.19
7995.00,1.19
7994.00,1.19
7993.00,1.19
7992.00,1.19
7991.00,1.19
7990.00,1.19
7989.00,1.20
7988.00,1.20
7987.00,1.20
7986.00,1.20
7985.00,1.20
7984.00,1.20
7983.00,1.20
7982.00,1.20
7981.00,1.20
7980.00,1.20
7979.00,1.20
7978.00,1.20
7977.00,1.20
7976.00,1.20
7975.00,1.20
7974.00,1.20
7973.00,1.20
7972.00,1.20
7971.00,1.20
7970.00,1.20
7969.00,1.20
7968.00,1.20
7967.00,1.20
7966.00,1.20
7965.00,1.20
7964.00,1.20
7963.00,1.20
7962.00,1.20
7961.00,1.20
7960.00,1.20
7959.00,1.20
7958.00,1.20
7957.00,1.20
7956.00,1.20
7955.00,1.20
7954.00,1.20
7953.00,1.20
7952.00,1.20
7951.00,1.20
7950.00,1.20
7949.00,1.20
7948.00,1.20
7947.00,1.21
7946.00,1.21
7945.00,1.21
7944.00,1.21
7943.00,1.21
7942.00,1.21
7941.00,1.21
7940.00,1.21
7939.00,1.22
7938.00,1.22
7937.00,1.22
7936.00,1.22
7935.00,1.22
7934.00,1.22
7933.00,1.22
7932.00,1.22
7931.00,1.22
7930.00,1.22
7929.00,1.22
7928.00,1.22
7927.00,1.22
7926.00,1.22
7925.00,1.22
7924.00,1.22
7923.00,1.22
7922.00,1.22
7921.00,1.22
7920.00,1.21
7919.00,1.21
7918.00,1.21
7917.00,1.21
7916.00,1.21
7915.00,1.21
7914.00,1.21
7913.00,1.21
7912.00,1.21
7911.00,1.21
7910.00,1.20
7909.00,1.20
7908.00,1.20
7907.00,1.20
7906.00,1.20
7905.00,1.20
7904.00,1.20
7903.00,1.20
7902.00,1.20
7901.00,1.20
7900.00,1.20
7899.00,1.20
7898.00,1.20
7897.00,1.20
7896.00,1.20
7895.00,1.21
7894.00,1.21
7893.00,1.21
7892.00,1.21
7891.00,1.21
7890.00,1.21
7889.00,1.21
7888.00,1.21
7887.00,1.21
7886.00,1.21
7885.00,1.21
7884.00,1.21
7883.00,1.21
7882.00,1.21
7881.00,1.21
7880.00,1.21
7879.00,1.21
7878.00,1.21
7877.00,1.21
7876.00,1.21
7875.00,1.22
7874.00,1.22
7873.00,1.22
7872.00,1.22
7871.00,1.22
7870.00,1.22
7869.00,1.22
7868.00,1.22
7867.00,1.22
7866.00,1.23
7865.00,1.23
7864.00,1.23
7863.00,1.23
7862.00,1.23
7861.00,1.23
7860.00,1.23
7859.00,1.23
7858.00,1.23
7857.00,1.22
7856.00,1.22
7855.00,1.22
7854.00,1.22
7853.00,1.22
7852.00,1.22
7851.00,1.22
7850.00,1.22
7849.00,1.22
7848.00,1.22
7847.00,1.22
7846.00,1.22
7845.00,1.22
7844.00,1.22
7843.00,1.22
7842.00,1.22
7841.00,1.22
7840.00,1.22
7839.00,1.22
7838.00,1.22
7837.00,1.22
7836.00,1.22
7835.00,1.22
7834.00,1.22
7833.00,1.22
7832.00,1.22
7831.00,1.22
7830.00,1.21
7829.00,1.21
7828.00,1.22
7827.00,1.22
7826.00,1.22
7825.00,1.22
7824.00,1.22
7823.00,1.22
7822.00,1.22
7821.00,1.22
7820.00,1.22
7819.00,1.22
7818.00,1.22
7817.00,1.22
7816.00,1.22
7815.00,1.22
7814.00,1.22
7813.00,1.22
7812.00,1.22
7811.00,1.22
7810.00,1.22
7809.00,1.22
7808.00,1.22
7807.00,1.22
7806.00,1.22
7805.00,1.22
7804.00,1.22
7803.00,1.22
7802.00,1.22
7801.00,1.22
7800.00,1.22
7799.00,1.22
7798.00,1.22
7797.00,1.22
7796.00,1.22
7795.00,1.22
7794.00,1.22
7793.00,1.22
7792.00,1.22
7791.00,1.22
7790.00,1.22
7789.00,1.22
7788.00,1.22
7787.00,1.23
7786.00,1.23
7785.00,1.23
7784.00,1.23
7783.00,1.23
7782.00,1.23
7781.00,1.23
7780.00,1.23
7779.00,1.23
7778.00,1.23
7777.00,1.23
7776.00,1.23
7775.00,1.23
7774.00,1.23
7773.00,1.23
7772.00,1.23
7771.00,1.23
7770.00,1.23
7769.00,1.23
7768.00,1.23
7767.00,1.23
7766.00,1.23
7765.00,1.23
7764.00,1.23
7763.00,1.23
7762.00,1.23
7761.00,1.23
7760.00,1.23
7759.00,1.23
7758.00,1.23
7757.00,1.23
7756.00,1.23
7755.00,1.23
7754.00,1.23
7753.00,1.23
7752.00,1.23
7751.00,1.23
7750.00,1.23
7749.00,1.23
7748.00,1.23
7747.00,1.23
7746.00,1.23
7745.00,1.23
7744.00,1.23
7743.00,1.23
7742.00,1.23
7741.00,1.23
7740.00,1.23
7739.00,1.23
7738.00,1.23
7737.00,1.23
7736.00,1.23
7735.00,1.23
7734.00,1.23
7733.00,1.23
7732.00,1.23
7731.00,1.23
7730.00,1.23
7729.00,1.23
7728.00,1.23
7727.00,1.23
7726.00,1.23
7725.00,1.23
7724.00,1.23
7723.00,1.23
7722.00,1.23
7721.00,1.23
7720.00,1.23
7719.00,1.23
7718.00,1.23
7717.00,1.23
7716.00,1.23
7715.00,1.23
7714.00,1.23
7713.00,1.23
7712.00,1.23
7711.00,1.23
7710.00,1.23
7709.00,1.23
7708.00,1.23
7707.00,1.23
7706.00,1.23
7705.00,1.23
7704.00,1.23
7703.00,1.23
7702.00,1.23
7701.00,1.23
7700.00,1.23
7699.00,1.23
7698.00,1.23
7697.00,1.23
7696.00,1.23
7695.00,1.23
7694.00,1.23
7693.00,1.23
7692.00,1.23
7691.00,1.23
7690.00,1.23
7689.00,1.23
7688.00,1.23
7687.00,1.23
7686.00,1.23
7685.00,1.23
7684.00,1.23
7683.00,1.23
7682.00,1.23
7681.00,1.24
7680.00,1.24
7679.00,1.24
7678.00,1.24
7677.00,1.24
7676.00,1.24
7675.00,1.24
7674.00,1.24
7673.00,1.24
7672.00,1.24
7671.00,1.24
7670.00,1.24
7669.00,1.24
7668.00,1.24
7667.00,1.24
7666.00,1.24
7665.00,1.24
7664.00,1.24
7663.00,1.23
7662.00,1.23
7661.00,1.23
7660.00,1.23
7659.00,1.23
7658.00,1.23
7657.00,1.23
7656.00,1.23
7655.00,1.23
7654.00,1.22
7653.00,1.22
7652.00,1.22
7651.00,1.22
7650.00,1.22
7649.00,1.22
7648.00,1.22
7647.00,1.22
7646.00,1.22
7645.00,1.22
7644.00,1.23
7643.00,1.23
7642.00,1.23
7641.00,1.23
7640.00,1.23
7639.00,1.23
7638.00,1.23
7637.00,1.23
7636.00,1.23
7635.00,1.23
7634.00,1.23
7633.00,1.23
7632.00,1.23
7631.00,1.23
7630.00,1.23
7629.00,1.23
7628.00,1.23
7627.00,1.23
7626.00,1.23
7625.00,1.23
7624.00,1.23
7623.00,1.23
7622.00,1.23
7621.00,1.23
7620.00,1.23
7619.00,1.23
7618.00,1.23
7617.00,1.23
7616.00,1.23
7615.00,1.23
7614.00,1.23
7613.00,1.23
7612.00,1.23
7611.00,1.23
7610.00,1.23
7609.00,1.23
7608.00,1.23
7607.00,1.23
7606.00,1.23
7605.00,1.23
7604.00,1.23
7603.00,1.23
7602.00,1.23
7601.00,1.23
7600.00,1.23
7599.00,1.23
7598.00,1.23
7597.00,1.23
7596.00,1.23
7595.00,1.23
7594.00,1.23
7593.00,1.23
7592.00,1.23
7591.00,1.23
7590.00,1.23
7589.00,1.23
7588.00,1.23
7587.00,1.23
7586.00,1.23
7585.00,1.23
7584.00,1.23
7583.00,1.23
7582.00,1.23
7581.00,1.23
7580.00,1.23
7579.00,1.23
7578.00,1.23
7577.00,1.23
7576.00,1.23
7575.00,1.23
7574.00,1.23
7573.00,1.23
7572.00,1.23
7571.00,1.23
7570.00,1.23
7569.00,1.23
7568.00,1.23
7567.00,1.23
7566.00,1.23
7565.00,1.23
7564.00,1.23
7563.00,1.23
7562.00,1.23
7561.00,1.23
7560.00,1.23
7559.00,1.23
7558.00,1.23
7557.00,1.23
7556.00,1.23
7555.00,1.23
7554.00,1.23
7553.00,1.22
7552.00,1.22
7551.00,1.22
7550.00,1.22
7549.00,1.22
7548.00,1.22
7547.00,1.22
7546.00,1.22
7545.00,1.22
7544.00,1.22
7543.00,1.22
7542.00,1.22
7541.00,1.22
7540.00,1.22
7539.00,1.22
7538.00,1.22
7537.00,1.22
7536.00,1.22
7535.00,1.22
7534.00,1.22
7533.00,1.22
7532.00,1.22
7531.00,1.22
7530.00,1.22
7529.00,1.22
7528.00,1.22
7527.00,1.22
7526.00,1.22
7525.00,1.22
7524.00,1.22
7523.00,1.22
7522.00,1.22
7521.00,1.22
7520.00,1.22
7519.00,1.22
7518.00,1.22
7517.00,1.22
7516.00,1.22
7515.00,1.22
7514.00,1.22
7513.00,1.21
7512.00,1.21
7511.00,1.21
7510.00,1.21
7509.00,1.21
7508.00,1.21
7507.00,1.21
7506.00,1.21
7505.00,1.21
7504.00,1.21
7503.00,1.21
7502.00,1.21
7501.00,1.21
7500.00,1.21
7499.00,1.21
7498.00,1.20
7497.00,1.20
7496.00,1.20
7495.00,1.20
7494.00,1.20
7493.00,1.20
7492.00,1.20
7491.00,1.20
7490.00,1.20
7489.00,1.20
7488.00,1.20
7487.00,1.20
7486.00,1.20
7485.00,1.19
7484.00,1.19
7483.00,1.19
7482.00,1.19
7481.00,1.19
7480.00,1.19
7479.00,1.19
7478.00,1.19
7477.00,1.19
7476.00,1.19
7475.00,1.19
7474.00,1.19
7473.00,1.19
7472.00,1.19
7471.00,1.19
7470.00,1.19
7469.00,1.19
7468.00,1.19
7467.00,1.19
7466.00,1.19
7465.00,1.19
7464.00,1.19
7463.00,1.19
7462.00,1.19
7461.00,1.20
7460.00,1.20
7459.00,1.20
7458.00,1.20
7457.00,1.20
7456.00,1.19
7455.00,1.19
7454.00,1.19
7453.00,1.19
7452.00,1.19
7451.00,1.19
7450.00,1.19
7449.00,1.19
7448.00,1.19
7447.00,1.19
7446.00,1.19
7445.00,1.19
7444.00,1.19
7443.00,1.19
7442.00,1.19
7441.00,1.19
7440.00,1.19
7439.00,1.18
7438.00,1.18
7437.00,1.18
7436.00,1.18
7435.00,1.18
7434.00,1.18
7433.00,1.18
7432.00,1.18
7431.00,1.18
7430.00,1.18
7429.00,1.18
7428.00,1.18
7427.00,1.17
7426.00,1.17
7425.00,1.17
7424.00,1.17
7423.00,1.17
7422.00,1.17
7421.00,1.16
7420.00,1.16
7419.00,1.16
7418.00,1.16
7417.00,1.16
7416.00,1.16
7415.00,1.16
7414.00,1.16
7413.00,1.16
7412.00,1.16
7411.00,1.16
7410.00,1.16
7409.00,1.16
7408.00,1.16
7407.00,1.16
7406.00,1.16
7405.00,1.15
7404.00,1.15
7403.00,1.15
7402.00,1.15
7401.00,1.15
7400.00,1.15
7399.00,1.15
7398.00,1.15
7397.00,1.15
7396.00,1.15
7395.00,1.15
7394.00,1.14
7393.00,1.14
7392.00,1.14
7391.00,1.14
7390.00,1.14
7389.00,1.14
7388.00,1.14
7387.00,1.14
7386.00,1.14
7385.00,1.14
7384.00,1.14
7383.00,1.14
7382.00,1.14
7381.00,1.13
7380.00,1.13
7379.00,1.13
7378.00,1.13
7377.00,1.13
7376.00,1.13
7375.00,1.13
7374.00,1.13
7373.00,1.13
7372.00,1.13
7371.00,1.13
7370.00,1.13
7369.00,1.13
7368.00,1.13
7367.00,1.13
7366.00,1.13
7365.00,1.13
7364.00,1.13
7363.00,1.13
7362.00,1.13
7361.00,1.13
7360.00,1.13
7359.00,1.13
7358.00,1.13
7357.00,1.13
7356.00,1.13
7355.00,1.13
7354.00,1.13
7353.00,1.13
7352.00,1.13
7351.00,1.13
7350.00,1.13
7349.00,1.13
7348.00,1.12
7347.00,1.12
7346.00,1.12
7345.00,1.12
7344.00,1.12
7343.00,1.12
7342.00,1.12
7341.00,1.12
7340.00,1.12
7339.00,1.12
7338.00,1.12
7337.00,1.12
7336.00,1.12
7335.00,1.12
7334.00,1.12
7333.00,1.12
7332.00,1.12
7331.00,1.12
7330.00,1.12
7329.00,1.11
7328.00,1.11
7327.00,1.11
7326.00,1.11
7325.00,1.11
7324.00,1.11
7323.00,1.11
7322.00,1.11
7321.00,1.11
7320.00,1.11
7319.00,1.11
7318.00,1.11
7317.00,1.11
7316.00,1.11
7315.00,1.11
7314.00,1.11
7313.00,1.11
7312.00,1.11
7311.00,1.11
7310.00,1.11
7309.00,1.11
7308.00,1.11
7307.00,1.10
7306.00,1.10
7305.00,1.10
7304.00,1.10
7303.00,1.10
7302.00,1.10
7301.00,1.10
7300.00,1.10
7299.00,1.09
7298.00,1.09
7297.00,1.09
7296.00,1.09
7295.00,1.09
7294.00,1.08
7293.00,1.08
7292.00,1.08
7291.00,1.08
7290.00,1.08
7289.00,1.08
7288.00,1.08
7287.00,1.08
7286.00,1.07
7285.00,1.07
7284.00,1.07
7283.00,1.07
7282.00,1.07
7281.00,1.07
7280.00,1.07
7279.00,1.07
7278.00,1.07
7277.00,1.07
7276.00,1.07
7275.00,1.07
7274.00,1.07
7273.00,1.07
7272.00,1.06
7271.00,1.06
7270.00,1.06
7269.00,1.06
7268.00,1.06
7267.00,1.06
7266.00,1.06
7265.00,1.06
7264.00,1.06
7263.00,1.06
7262.00,1.05
7261.00,1.05
7260.00,1.05
7259.00,1.05
7258.00,1.05
7257.00,1.05
7256.00,1.05
7255.00,1.04
7254.00,1.04
7253.00,1.04
7252.00,1.04
7251.00,1.04
7250.00,1.04
7249.00,1.03
7248.00,1.03
7247.00,1.03
7246.00,1.03
7245.00,1.03
7244.00,1.02
7243.00,1.02
7242.00,1.02
7241.00,1.02
7240.00,1.01
7239.00,1.01
7238.00,1.01
7237.00,1.01
7236.00,1.01
7235.00,1.00
7234.00,1.00
7233.00,1.00
7232.00,0.99
7231.00,0.99
7230.00,0.99
7229.00,0.99
7228.00,0.98
7227.00,0.98
7226.00,0.98
7225.00,0.98
7224.00,0.97
7223.00,0.97
7222.00,0.97
7221.00,0.97
7220.00,0.97
7219.00,0.96
7218.00,0.96
7217.00,0.96
7216.00,0.96
7215.00,0.96
7214.00,0.95
7213.00,0.95
7212.00,0.95
7211.00,0.95
7210.00,0.94
7209.00,0.94
7208.00,0.94
7207.00,0.93
7206.00,0.93
7205.00,0.93
7204.00,0.92
7203.00,0.92
7202.00,0.92
7201.00,0.91
7200.00,0.91
7199.00,0.91
7198.00,0.90
7197.00,0.90
7196.00,0.90
7195.00,0.89
7194.00,0.89
7193.00,0.89
7192.00,0.89
7191.00,0.88
7190.00,0.88
7189.00,0.88
7188.00,0.88
7187.00,0.87
7186.00,0.87
7185.00,0.87
7184.00,0.87
7183.00,0.86
7182.00,0.86
7181.00,0.86
7180.00,0.86
7179.00,0.85
7178.00,0.85
7177.00,0.85
7176.00,0.84
7175.00,0.84
7174.00,0.84
7173.00,0.83
7172.00,0.83
7171.00,0.83
7170.00,0.82
7169.00,0.82
7168.00,0.82
7167.00,0.81
7166.00,0.81
7165.00,0.81
7164.00,0.81
7163.00,0.81
7162.00,0.80
7161.00,0.80
7160.00,0.80
7159.00,0.80
7158.00,0.80
7157.00,0.80
7156.00,0.80
7155.00,0.79
7154.00,0.79
7153.00,0.79
7152.00,0.79
7151.00,0.79
7150.00,0.79
7149.00,0.79
7148.00,0.79
7147.00,0.78
7146.00,0.78
7145.00,0.78
7144.00,0.78
7143.00,0.78
7142.00,0.77
7141.00,0.77
7140.00,0.77
7139.00,0.76
7138.00,0.76
7137.00,0.76
7136.00,0.76
7135.00,0.75
7134.00,0.75
7133.00,0.75
7132.00,0.75
7131.00,0.74
7130.00,0.74
7129.00,0.74
7128.00,0.74
7127.00,0.73
7126.00,0.73
7125.00,0.73
7124.00,0.73
7123.00,0.73
7122.00,0.72
7121.00,0.72
7120.00,0.72
7119.00,0.72
7118.00,0.72
7117.00,0.71
7116.00,0.71
7115.00,0.71
7114.00,0.71
7113.00,0.71
7112.00,0.70
7111.00,0.70
7110.00,0.70
7109.00,0.70
7108.00,0.70
7107.00,0.69
7106.00,0.69
7105.00,0.69
7104.00,0.69
7103.00,0.69
7102.00,0.68
7101.00,0.68
7100.00,0.68
7099.00,0.68
7098.00,0.68
7097.00,0.67
7096.00,0.67
7095.00,0.67
7094.00,0.67
7093.00,0.67
7092.00,0.67
7091.00,0.67
7090.00,0.66
7089.00,0.66
7088.00,0.66
7087.00,0.66
7086.00,0.66
7085.00,0.66
7084.00,0.66
7083.00,0.66
7082.00,0.66
7081.00,0.66
7080.00,0.65
7079.00,0.65
7078.00,0.65
7077.00,0.65
7076.00,0.65
7075.00,0.65
7074.00,0.65
7073.00,0.65
7072.00,0.65
7071.00,0.65
7070.00,0.65
7069.00,0.65
7068.00,0.65
7067.00,0.65
7066.00,0.65
7065.00,0.65
7064.00,0.64
7063.00,0.64
7062.00,0.64
7061.00,0.64
7060.00,0.64
7059.00,0.64
7058.00,0.64
7057.00,0.64
7056.00,0.63
7055.00,0.63
7054.00,0.63
7053.00,0.63
7052.00,0.63
7051.00,0.63
7050.00,0.62
7049.00,0.62
7048.00,0.62
7047.00,0.62
7046.00,0.62
7045.00,0.62
7044.00,0.62
7043.00,0.62
7042.00,0.62
7041.00,0.62
7040.00,0.61
7039.00,0.61
7038.00,0.61
7037.00,0.61
7036.00,0.61
7035.00,0.61
7034.00,0.61
7033.00,0.61
7032.00,0.61
7031.00,0.61
7030.00,0.61
7029.00,0.61
7028.00,0.61
7027.00,0.61
7026.00,0.61
7025.00,0.61
7024.00,0.61
7023.00,0.61
7022.00,0.61
7021.00,0.60
7020.00,0.60
7019.00,0.60
7018.00,0.60
7017.00,0.60
7016.00,0.60
7015.00,0.60
7014.00,0.60
7013.00,0.60
7012.00,0.60
7011.00,0.60
7010.00,0.60
7009.00,0.60
7008.00,0.60
7007.00,0.60
7006.00,0.60
7005.00,0.60
7004.00,0.59
7003.00,0.59
7002.00,0.59
7001.00,0.59
7000.00,0.59
6999.00,0.59
6998.00,0.59
6997.00,0.59
6996.00,0.59
6995.00,0.59
6994.00,0.59
6993.00,0.59
6992.00,0.59
6991.00,0.59
6990.00,0.59
6989.00,0.59
6988.00,0.59
6987.00,0.59
6986.00,0.59
6985.00,0.59
6984.00,0.59
6983.00,0.59
6982.00,0.59
6981.00,0.59
6980.00,0.59
6979.00,0.59
6978.00,0.59
6977.00,0.59
6976.00,0.59
6975.00,0.59
6974.00,0.59
6973.00,0.59
6972.00,0.59
6971.00,0.59
6970.00,0.59
6969.00,0.59
6968.00,0.59
6967.00,0.58
6966.00,0.58
6965.00,0.58
6964.00,0.58
6963.00,0.58
6962.00,0.58
6961.00,0.58
6960.00,0.58
6959.00,0.58
6958.00,0.58
6957.00,0.58
6956.00,0.58
6955.00,0.58
6954.00,0.58
6953.00,0.58
6952.00,0.58
6951.00,0.58
6950.00,0.57
6949.00,0.57
6948.00,0.57
6947.00,0.57
6946.00,0.57
6945.00,0.57
6944.00,0.57
6943.00,0.57
6942.00,0.57
6941.00,0.57
6940.00,0.58
6939.00,0.58
6938.00,0.58
6937.00,0.58
6936.00,0.58
6935.00,0.58
6934.00,0.58
6933.00,0.58
6932.00,0.58
6931.00,0.58
6930.00,0.58
6929.00,0.58
6928.00,0.58
6927.00,0.58
6926.00,0.58
6925.00,0.58
6924.00,0.58
6923.00,0.58
6922.00,0.58
6921.00,0.58
6920.00,0.58
6919.00,0.58
6918.00,0.58
6917.00,0.58
6916.00,0.58
6915.00,0.58
6914.00,0.58
6913.00,0.58
6912.00,0.58
6911.00,0.58
6910.00,0.58
6909.00,0.58
6908.00,0.58
6907.00,0.58
6906.00,0.58
6905.00,0.58
6904.00,0.58
6903.00,0.58
6902.00,0.58
6901.00,0.58
6900.00,0.58
6899.00,0.58
6898.00,0.58
6897.00,0.58
6896.00,0.58
6895.00,0.58
6894.00,0.58
6893.00,0.58
6892.00,0.58
6891.00,0.58
6890.00,0.58
6889.00,0.58
6888.00,0.58
6887.00,0.58
6886.00,0.58
6885.00,0.58
6884.00,0.58
6883.00,0.58
6882.00,0.58
6881.00,0.58
6880.00,0.58
6879.00,0.58
6878.00,0.58
6877.00,0.58
6876.00,0.58
6875.00,0.58
6874.00,0.58
6873.00,0.58
6872.00,0.58
6871.00,0.58
6870.00,0.58
6869.00,0.58
6868.00,0.58
6867.00,0.58
6866.00,0.58
6865.00,0.58
6864.00,0.58
6863.00,0.58
6862.00,0.58
6861.00,0.58
6860.00,0.58
6859.00,0.58
6858.00,0.58
6857.00,0.58
6856.00,0.58
6855.00,0.58
6854.00,0.58
6853.00,0.58
6852.00,0.58
6851.00,0.58
6850.00,0.58
6849.00,0.58
6848.00,0.58
6847.00,0.58
6846.00,0.58
6845.00,0.58
6844.00,0.58
6843.00,0.58
6842.00,0.58
6841.00,0.58
6840.00,0.58
6839.00,0.58
6838.00,0.58
6837.00,0.58
6836.00,0.58
6835.00,0.58
6834.00,0.58
6833.00,0.58
6832.00,0.58
6831.00,0.58
6830.00,0.58
6829.00,0.58
6828.00,0.58
6827.00,0.58
6826.00,0.58
6825.00,0.58
6824.00,0.58
6823.00,0.58
6822.00,0.58
6821.00,0.58
6820.00,0.58
6819.00,0.59
6818.00,0.59
6817.00,0.59
6816.00,0.59
6815.00,0.59
6814.00,0.59
6813.00,0.59
6812.00,0.59
6811.00,0.59
6810.00,0.59
6809.00,0.59
6808.00,0.59
6807.00,0.59
6806.00,0.59
6805.00,0.60
6804.00,0.60
6803.00,0.60
6802.00,0.60
6801.00,0.60
6800.00,0.60
6799.00,0.60
6798.00,0.59
6797.00,0.59
6796.00,0.59
6795.00,0.59
6794.00,0.59
6793.00,0.59
6792.00,0.59
6791.00,0.59
6790.00,0.59
6789.00,0.59
6788.00,0.59
6787.00,0.59
6786.00,0.59
6785.00,0.59
6784.00,0.59
6783.00,0.59
6782.00,0.59
6781.00,0.59
6780.00,0.59
6779.00,0.59
6778.00,0.59
6777.00,0.59
6776.00,0.59
6775.00,0.59
6774.00,0.59
6773.00,0.60
6772.00,0.60
6771.00,0.60
6770.00,0.60
6769.00,0.60
6768.00,0.60
6767.00,0.60
6766.00,0.60
6765.00,0.60
6764.00,0.60
6763.00,0.60
6762.00,0.60
6761.00,0.60
6760.00,0.61
6759.00,0.61
6758.00,0.61
6757.00,0.61
6756.00,0.61
6755.00,0.61
6754.00,0.61
6753.00,0.61
6752.00,0.61
6751.00,0.61
6750.00,0.61
6749.00,0.61
6748.00,0.61
6747.00,0.61
6746.00,0.61
6745.00,0.61
6744.00,0.61
6743.00,0.61
6742.00,0.61
6741.00,0.61
6740.00,0.61
6739.00,0.61
6738.00,0.61
6737.00,0.61
6736.00,0.61
6735.00,0.61
6734.00,0.61
6733.00,0.61
6732.00,0.61
6731.00,0.61
6730.00,0.61
6729.00,0.61
6728.00,0.62
6727.00,0.62
6726.00,0.62
6725.00,0.62
6724.00,0.62
6723.00,0.62
6722.00,0.62
6721.00,0.62
6720.00,0.62
6719.00,0.62
6718.00,0.63
6717.00,0.63
6716.00,0.63
6715.00,0.63
6714.00,0.63
6713.00,0.63
6712.00,0.63
6711.00,0.63
6710.00,0.63
6709.00,0.63
6708.00,0.63
6707.00,0.63
6706.00,0.63
6705.00,0.63
6704.00,0.63
6703.00,0.63
6702.00,0.63
6701.00,0.63
6700.00,0.63
6699.00,0.63
6698.00,0.63
6697.00,0.63
6696.00,0.63
6695.00,0.63
6694.00,0.64
6693.00,0.64
6692.00,0.64
6691.00,0.64
6690.00,0.64
6689.00,0.64
6688.00,0.64
6687.00,0.64
6686.00,0.64
6685.00,0.64
6684.00,0.64
6683.00,0.64
6682.00,0.64
6681.00,0.64
6680.00,0.64
6679.00,0.64
6678.00,0.64
6677.00,0.64
6676.00,0.64
6675.00,0.64
6674.00,0.65
6673.00,0.65
6672.00,0.65
6671.00,0.65
6670.00,0.65
6669.00,0.65
6668.00,0.65
6667.00,0.65
6666.00,0.66
6665.00,0.66
6664.00,0.66
6663.00,0.66
6662.00,0.66
6661.00,0.66
6660.00,0.66
6659.00,0.66
6658.00,0.66
6657.00,0.66
6656.00,0.66
6655.00,0.66
6654.00,0.66
6653.00,0.66
6652.00,0.66
6651.00,0.66
6650.00,0.67
6649.00,0.67
6648.00,0.67
6647.00,0.67
6646.00,0.67
6645.00,0.67
6644.00,0.67
6643.00,0.67
6642.00,0.67
6641.00,0.67
6640.00,0.67
6639.00,0.67
6638.00,0.67
6637.00,0.67
6636.00,0.67
6635.00,0.67
6634.00,0.67
6633.00,0.68
6632.00,0.68
6631.00,0.68
6630.00,0.68
6629.00,0.68
6628.00,0.68
6627.00,0.68
6626.00,0.68
6625.00,0.68
6624.00,0.68
6623.00,0.68
6622.00,0.68
6621.00,0.69
6620.00,0.69
6619.00,0.69
6618.00,0.69
6617.00,0.69
6616.00,0.69
6615.00,0.69
6614.00,0.69
6613.00,0.69
6612.00,0.69
6611.00,0.69
6610.00,0.70
6609.00,0.70
6608.00,0.70
6607.00,0.70
6606.00,0.70
6605.00,0.70
6604.00,0.70
6603.00,0.70
6602.00,0.70
6601.00,0.70
6600.00,0.70
6599.00,0.70
6598.00,0.70
6597.00,0.70
6596.00,0.70
6595.00,0.70
6594.00,0.70
6593.00,0.71
6592.00,0.71
6591.00,0.71
6590.00,0.71
6589.00,0.71
6588.00,0.71
6587.00,0.71
6586.00,0.71
6585.00,0.71
6584.00,0.71
6583.00,0.71
6582.00,0.71
6581.00,0.71
6580.00,0.71
6579.00,0.71
6578.00,0.71
6577.00,0.72
6576.00,0.72
6575.00,0.72
6574.00,0.72
6573.00,0.72
6572.00,0.72
6571.00,0.72
6570.00,0.72
6569.00,0.72
6568.00,0.72
6567.00,0.72
6566.00,0.73
6565.00,0.73
6564.00,0.73
6563.00,0.73
6562.00,0.73
6561.00,0.73
6560.00,0.73
6559.00,0.73
6558.00,0.73
6557.00,0.73
6556.00,0.73
6555.00,0.73
6554.00,0.73
6553.00,0.73
6552.00,0.73
6551.00,0.73
6550.00,0.73
6549.00,0.73
6548.00,0.73
6547.00,0.73
6546.00,0.73
6545.00,0.73
6544.00,0.73
6543.00,0.73
6542.00,0.73
6541.00,0.73
6540.00,0.74
6539.00,0.74
6538.00,0.74
6537.00,0.74
6536.00,0.74
6535.00,0.74
6534.00,0.74
6533.00,0.74
6532.00,0.74
6531.00,0.74
6530.00,0.74
6529.00,0.74
6528.00,0.75
6527.00,0.75
6526.00,0.75
6525.00,0.75
6524.00,0.75
6523.00,0.75
6522.00,0.75
6521.00,0.75
6520.00,0.75
6519.00,0.75
6518.00,0.76
6517.00,0.76
6516.00,0.76
6515.00,0.76
6514.00,0.76
6513.00,0.76
6512.00,0.76
6511.00,0.76
6510.00,0.76
6509.00,0.76
6508.00,0.76
6507.00,0.76
6506.00,0.77
6505.00,0.77
6504.00,0.77
6503.00,0.77
6502.00,0.77
6501.00,0.77
6500.00,0.77
6499.00,0.77
6498.00,0.77
6497.00,0.77
6496.00,0.77
6495.00,0.77
6494.00,0.77
6493.00,0.77
6492.00,0.77
6491.00,0.77
6490.00,0.77
6489.00,0.77
6488.00,0.77
6487.00,0.77
6486.00,0.77
6485.00,0.78
6484.00,0.78
6483.00,0.78
6482.00,0.78
6481.00,0.78
6480.00,0.78
6479.00,0.78
6478.00,0.78
6477.00,0.78
6476.00,0.78
6475.00,0.78
6474.00,0.78
6473.00,0.78
6472.00,0.78
6471.00,0.78
6470.00,0.78
6469.00,0.78
6468.00,0.78
6467.00,0.78
6466.00,0.78
6465.00,0.78
6464.00,0.78
6463.00,0.79
6462.00,0.79
6461.00,0.79
6460.00,0.79
6459.00,0.79
6458.00,0.79
6457.00,0.79
6456.00,0.79
6455.00,0.79
6454.00,0.79
6453.00,0.79
6452.00,0.79
6451.00,0.79
6450.00,0.79
6449.00,0.79
6448.00,0.79
6447.00,0.79
6446.00,0.79
6445.00,0.79
6444.00,0.79
6443.00,0.79
6442.00,0.79
6441.00,0.79
6440.00,0.79
6439.00,0.79
6438.00,0.79
6437.00,0.79
6436.00,0.80
6435.00,0.80
6434.00,0.80
6433.00,0.80
6432.00,0.80
6431.00,0.80
6430.00,0.80
6429.00,0.80
6428.00,0.80
6427.00,0.80
6426.00,0.80
6425.00,0.80
6424.00,0.80
6423.00,0.81
6422.00,0.81
6421.00,0.81
6420.00,0.81
6419.00,0.81
6418.00,0.81
6417.00,0.81
6416.00,0.81
6415.00,0.81
6414.00,0.81
6413.00,0.81
6412.00,0.81
6411.00,0.81
6410.00,0.81
6409.00,0.81
6408.00,0.81
6407.00,0.81
6406.00,0.82
6405.00,0.82
6404.00,0.82
6403.00,0.82
6402.00,0.82
6401.00,0.82
6400.00,0.82
6399.00,0.82
6398.00,0.82
6397.00,0.82
6396.00,0.82
6395.00,0.82
6394.00,0.82
6393.00,0.82
6392.00,0.82
6391.00,0.82
6390.00,0.82
6389.00,0.82
6388.00,0.82
6387.00,0.82
6386.00,0.82
6385.00,0.82
6384.00,0.82
6383.00,0.82
6382.00,0.82
6381.00,0.82
6380.00,0.83
6379.00,0.83
6378.00,0.83
6377.00,0.83
6376.00,0.83
6375.00,0.83
6374.00,0.83
6373.00,0.83
6372.00,0.83
6371.00,0.83
6370.00,0.83
6369.00,0.83
6368.00,0.83
6367.00,0.83
6366.00,0.83
6365.00,0.84
6364.00,0.84
6363.00,0.84
6362.00,0.84
6361.00,0.84
6360.00,0.84
6359.00,0.84
6358.00,0.84
6357.00,0.84
6356.00,0.84
6355.00,0.84
6354.00,0.84
6353.00,0.84
6352.00,0.84
6351.00,0.84
6350.00,0.84
6349.00,0.84
6348.00,0.84
6347.00,0.84
6346.00,0.84
6345.00,0.84
6344.00,0.85
6343.00,0.85
6342.00,0.85
6341.00,0.85
6340.00,0.85
6339.00,0.85
6338.00,0.85
6337.00,0.85
6336.00,0.85
6335.00,0.85
6334.00,0.86
6333.00,0.86
6332.00,0.86
6331.00,0.86
6330.00,0.86
6329.00,0.86
6328.00,0.86
6327.00,0.86
6326.00,0.86
6325.00,0.86
6324.00,0.86
6323.00,0.86
6322.00,0.86
6321.00,0.86
6320.00,0.87
6319.00,0.87
6318.00,0.87
6317.00,0.87
6316.00,0.87
6315.00,0.87
6314.00,0.87
6313.00,0.87
6312.00,0.88
6311.00,0.88
6310.00,0.88
6309.00,0.88
6308.00,0.88
6307.00,0.88
6306.00,0.88
6305.00,0.88
6304.00,0.89
6303.00,0.89
6302.00,0.89
6301.00,0.89
6300.00,0.89
6299.00,0.89
6298.00,0.89
6297.00,0.89
6296.00,0.89
6295.00,0.89
6294.00,0.89
6293.00,0.89
6292.00,0.89
6291.00,0.89
6290.00,0.90
6289.00,0.90
6288.00,0.90
6287.00,0.90
6286.00,0.90
6285.00,0.90
6284.00,0.90
6283.00,0.90
6282.00,0.90
6281.00,0.90
6280.00,0.90
6279.00,0.90
6278.00,0.90
6277.00,0.91
6276.00,0.91
6275.00,0.91
6274.00,0.91
6273.00,0.91
6272.00,0.91
6271.00,0.91
6270.00,0.91
6269.00,0.91
6268.00,0.91
6267.00,0.92
6266.00,0.92
6265.00,0.92
6264.00,0.92
6263.00,0.92
6262.00,0.92
6261.00,0.92
6260.00,0.92
6259.00,0.92
6258.00,0.92
6257.00,0.92
6256.00,0.93
6255.00,0.93
6254.00,0.93
6253.00,0.93
6252.00,0.93
6251.00,0.93
6250.00,0.93
6249.00,0.93
6248.00,0.93
6247.00,0.93
6246.00,0.93
6245.00,0.94
6244.00,0.94
6243.00,0.94
6242.00,0.94
6241.00,0.94
6240.00,0.94
6239.00,0.94
6238.00,0.94
6237.00,0.94
6236.00,0.95
6235.00,0.95
6234.00,0.95
6233.00,0.95
6232.00,0.95
6231.00,0.95
6230.00,0.95
6229.00,0.95
6228.00,0.95
6227.00,0.96
6226.00,0.96
6225.00,0.96
6224.00,0.96
6223.00,0.96
6222.00,0.96
6221.00,0.96
6220.00,0.96
6219.00,0.96
6218.00,0.96
6217.00,0.96
6216.00,0.96
6215.00,0.96
6214.00,0.97
6213.00,0.97
6212.00,0.97
6211.00,0.97
6210.00,0.97
6209.00,0.97
6208.00,0.97
6207.00,0.97
6206.00,0.97
6205.00,0.97
6204.00,0.97
6203.00,0.97
6202.00,0.97
6201.00,0.98
6200.00,0.98
6199.00,0.98
6198.00,0.98
6197.00,0.98
6196.00,0.98
6195.00,0.98
6194.00,0.98
6193.00,0.98
6192.00,0.99
6191.00,0.99
6190.00,0.99
6189.00,0.99
6188.00,0.99
6187.00,0.99
6186.00,0.99
6185.00,1.00
6184.00,1.00
6183.00,1.00
6182.00,1.00
6181.00,1.00
6180.00,1.00
6179.00,1.00
6178.00,1.00
6177.00,1.01
6176.00,1.01
6175.00,1.01
6174.00,1.01
6173.00,1.01
6172.00,1.01
6171.00,1.01
6170.00,1.01
6169.00,1.01
6168.00,1.02
6167.00,1.02
6166.00,1.02
6165.00,1.02
6164.00,1.02
6163.00,1.02
6162.00,1.02
6161.00,1.02
6160.00,1.03
6159.00,1.03
6158.00,1.03
6157.00,1.03
6156.00,1.03
6155.00,1.03
6154.00,1.03
6153.00,1.03
6152.00,1.04
6151.00,1.04
6150.00,1.04
6149.00,1.04
6148.00,1.04
6147.00,1.04
6146.00,1.04
6145.00,1.05
6144.00,1.05
6143.00,1.05
6142.00,1.05
6141.00,1.05
6140.00,1.05
6139.00,1.05
6138.00,1.06
6137.00,1.06
6136.00,1.06
6135.00,1.06
6134.00,1.06
6133.00,1.06
6132.00,1.06
6131.00,1.07
6130.00,1.07
6129.00,1.07
6128.00,1.07
6127.00,1.07
6126.00,1.07
6125.00,1.07
6124.00,1.07
6123.00,1.07
6122.00,1.07
6121.00,1.07
6120.00,1.07
6119.00,1.07
6118.00,1.08
6117.00,1.08
6116.00,1.08
6115.00,1.08
6114.00,1.08
6113.00,1.08
6112.00,1.08
6111.00,1.08
6110.00,1.08
6109.00,1.08
6108.00,1.08
6107.00,1.08
6106.00,1.08
6105.00,1.08
6104.00,1.09
6103.00,1.09
6102.00,1.09
6101.00,1.09
6100.00,1.09
6099.00,1.09
6098.00,1.09
6097.00,1.09
6096.00,1.10
6095.00,1.10
6094.00,1.10
6093.00,1.10
6092.00,1.10
6091.00,1.10
6090.00,1.10
6089.00,1.11
6088.00,1.11
6087.00,1.11
6086.00,1.11
6085.00,1.11
6084.00,1.11
6083.00,1.11
6082.00,1.11
6081.00,1.11
6080.00,1.11
6079.00,1.11
6078.00,1.12
6077.00,1.12
6076.00,1.12
6075.00,1.12
6074.00,1.12
6073.00,1.12
6072.00,1.12
6071.00,1.12
6070.00,1.12
6069.00,1.12
6068.00,1.12
6067.00,1.13
6066.00,1.13
6065.00,1.13
6064.00,1.13
6063.00,1.13
6062.00,1.13
6061.00,1.13
6060.00,1.13
6059.00,1.13
6058.00,1.13
6057.00,1.13
6056.00,1.14
6055.00,1.14
6054.00,1.14
6053.00,1.14
6052.00,1.14
6051.00,1.14
6050.00,1.14
6049.00,1.14
6048.00,1.14
6047.00,1.14
6046.00,1.14
6045.00,1.14
6044.00,1.14
6043.00,1.14
6042.00,1.14
6041.00,1.14
6040.00,1.14
6039.00,1.14
6038.00,1.14
6037.00,1.14
6036.00,1.14
6035.00,1.14
6034.00,1.14
6033.00,1.14
6032.00,1.14
6031.00,1.14
6030.00,1.14
6029.00,1.14
6028.00,1.14
6027.00,1.14
6026.00,1.14
6025.00,1.14
6024.00,1.15
6023.00,1.15
6022.00,1.15
6021.00,1.15
6020.00,1.15
6019.00,1.15
6018.00,1.15
6017.00,1.15
6016.00,1.15
6015.00,1.15
6014.00,1.15
6013.00,1.15
6012.00,1.15
6011.00,1.15
6010.00,1.15
6009.00,1.15
6008.00,1.15
6007.00,1.16
6006.00,1.16
6005.00,1.16
6004.00,1.16
6003.00,1.16
6002.00,1.16
6001.00,1.16
6000.00,1.16
5999.00,1.15
5998.00,1.15
5997.00,1.15
5996.00,1.15
5995.00,1.15
5994.00,1.15
5993.00,1.15
5992.00,1.15
5991.00,1.15
5990.00,1.15
5989.00,1.14
5988.00,1.14
5987.00,1.14
5986.00,1.14
5985.00,1.14
5984.00,1.13
5983.00,1.13
5982.00,1.13
5981.00,1.13
5980.00,1.12
5979.00,1.12
5978.00,1.12
5977.00,1.11
5976.00,1.11
5975.00,1.11
5974.00,1.10
5973.00,1.10
5972.00,1.10
5971.00,1.09
5970.00,1.09
5969.00,1.08
5968.00,1.08
5967.00,1.07
5966.00,1.07
5965.00,1.06
5964.00,1.06
5963.00,1.05
5962.00,1.05
5961.00,1.04
5960.00,1.03
5959.00,1.03
5958.00,1.02
5957.00,1.02
5956.00,1.01
5955.00,1.00
5954.00,1.00
5953.00,0.99
5952.00,0.99
5951.00,0.98
5950.00,0.98
5949.00,0.97
5948.00,0.97
5947.00,0.97
5946.00,0.96
5945.00,0.96
5944.00,0.96
5943.00,0.96
5942.00,0.95
5941.00,0.95
5940.00,0.95
5939.00,0.95
5938.00,0.95
5937.00,0.95
5936.00,0.95
5935.00,0.95
5934.00,0.95
5933.00,0.94
5932.00,0.94
5931.00,0.94
5930.00,0.94
5929.00,0.94
5928.00,0.94
5927.00,0.94
5926.00,0.94
5925.00,0.94
5924.00,0.94
5923.00,0.94
5922.00,0.94
5921.00,0.93
5920.00,0.93
5919.00,0.93
5918.00,0.93
5917.00,0.93
5916.00,0.93
5915.00,0.92
5914.00,0.92
5913.00,0.92
5912.00,0.92
5911.00,0.92
5910.00,0.92
5909.00,0.92
5908.00,0.91
5907.00,0.91
5906.00,0.91
5905.00,0.91
5904.00,0.91
5903.00,0.91
5902.00,0.91
5901.00,0.91
5900.00,0.91
5899.00,0.91
5898.00,0.91
5897.00,0.92
5896.00,0.92
5895.00,0.92
5894.00,0.92
5893.00,0.92
5892.00,0.92
5891.00,0.93
5890.00,0.93
5889.00,0.93
5888.00,0.93
5887.00,0.93
5886.00,0.93
5885.00,0.94
5884.00,0.94
5883.00,0.94
5882.00,0.94
5881.00,0.94
5880.00,0.94
5879.00,0.95
5878.00,0.95
5877.00,0.95
5876.00,0.95
5875.00,0.96
5874.00,0.96
5873.00,0.96
5872.00,0.96
5871.00,0.96
5870.00,0.97
5869.00,0.97
5868.00,0.97
5867.00,0.97
5866.00,0.97
5865.00,0.98
5864.00,0.98
5863.00,0.98
5862.00,0.98
5861.00,0.98
5860.00,0.98
5859.00,0.99
5858.00,0.99
5857.00,0.99
5856.00,0.99
5855.00,0.99
5854.00,0.99
5853.00,0.99
5852.00,0.99
5851.00,0.99
5850.00,0.99
5849.00,0.99
5848.00,0.99
5847.00,0.99
5846.00,0.99
5845.00,0.99
5844.00,0.99
5843.00,0.99
5842.00,0.99
5841.00,0.99
5840.00,0.99
5839.00,0.99
5838.00,0.99
5837.00,0.99
5836.00,0.99
5835.00,0.99
5834.00,0.99
5833.00,0.99
5832.00,0.99
5831.00,0.99
5830.00,0.99
5829.00,0.99
5828.00,0.99
5827.00,0.99
5826.00,0.99
5825.00,0.99
5824.00,0.99
5823.00,0.99
5822.00,0.99
5821.00,0.99
5820.00,0.99
5819.00,0.99
5818.00,0.99
5817.00,0.99
5816.00,0.99
5815.00,0.99
5814.00,0.99
5813.00,0.99
5812.00,0.99
5811.00,0.99
5810.00,0.99
5809.00,0.99
5808.00,0.99
5807.00,0.99
5806.00,0.99
5805.00,0.99
5804.00,0.99
5803.00,0.99
5802.00,0.99
5801.00,0.99
5800.00,0.99
5799.00,0.99
5798.00,0.99
5797.00,0.98
5796.00,0.98
5795.00,0.98
5794.00,0.98
5793.00,0.98
5792.00,0.97
5791.00,0.97
5790.00,0.97
5789.00,0.97
5788.00,0.97
5787.00,0.96
5786.00,0.96
5785.00,0.96
5784.00,0.96
5783.00,0.96
5782.00,0.96
5781.00,0.96
5780.00,0.96
5779.00,0.96
5778.00,0.95
5777.00,0.95
5776.00,0.95
5775.00,0.95
5774.00,0.95
5773.00,0.96
5772.00,0.96
5771.00,0.96
5770.00,0.96
5769.00,0.96
5768.00,0.96
5767.00,0.96
5766.00,0.96
5765.00,0.96
5764.00,0.97
5763.00,0.97
5762.00,0.97
5761.00,0.97
5760.00,0.97
5759.00,0.97
5758.00,0.98
5757.00,0.98
5756.00,0.98
5755.00,0.98
5754.00,0.98
5753.00,0.99
5752.00,0.99
5751.00,0.99
5750.00,0.99
5749.00,1.00
5748.00,1.00
5747.00,1.00
5746.00,1.00
5745.00,1.00
5744.00,1.01
5743.00,1.01
5742.00,1.01
5741.00,1.01
5740.00,1.01
5739.00,1.02
5738.00,1.02
5737.00,1.02
5736.00,1.02
5735.00,1.02
5734.00,1.02
5733.00,1.03
5732.00,1.03
5731.00,1.03
5730.00,1.03
5729.00,1.03
5728.00,1.03
5727.00,1.03
5726.00,1.03
5725.00,1.03
5724.00,1.03
5723.00,1.03
5722.00,1.04
5721.00,1.04
5720.00,1.04
5719.00,1.04
5718.00,1.04
5717.00,1.04
5716.00,1.04
5715.00,1.04
5714.00,1.04
5713.00,1.04
5712.00,1.04
5711.00,1.04
5710.00,1.04
5709.00,1.04
5708.00,1.04
5707.00,1.04
5706.00,1.04
5705.00,1.04
5704.00,1.04
5703.00,1.04
5702.00,1.03
5701.00,1.03
5700.00,1.03
5699.00,1.03
5698.00,1.03
5697.00,1.03
5696.00,1.03
5695.00,1.03
5694.00,1.03
5693.00,1.02
5692.00,1.02
5691.00,1.02
5690.00,1.02
5689.00,1.02
5688.00,1.02
5687.00,1.02
5686.00,1.02
5685.00,1.02
5684.00,1.01
5683.00,1.01
5682.00,1.01
5681.00,1.01
5680.00,1.01
5679.00,1.01
5678.00,1.01
5677.00,1.01
5676.00,1.01
5675.00,1.01
5674.00,1.01
5673.00,1.01
5672.00,1.01
5671.00,1.01
5670.00,1.01
5669.00,1.01
5668.00,1.01
5667.00,1.02
5666.00,1.02
5665.00,1.02
5664.00,1.02
5663.00,1.02
5662.00,1.02
5661.00,1.02
5660.00,1.02
5659.00,1.03
5658.00,1.03
5657.00,1.03
5656.00,1.03
5655.00,1.03
5654.00,1.03
5653.00,1.03
5652.00,1.04
5651.00,1.04
5650.00,1.04
5649.00,1.04
5648.00,1.04
5647.00,1.04
5646.00,1.04
5645.00,1.05
5644.00,1.05
5643.00,1.05
5642.00,1.05
5641.00,1.05
5640.00,1.05
5639.00,1.05
5638.00,1.05
5637.00,1.05
5636.00,1.05
5635.00,1.05
5634.00,1.06
5633.00,1.06
5632.00,1.06
5631.00,1.06
5630.00,1.06
5629.00,1.06
5628.00,1.06
5627.00,1.06
5626.00,1.06
5625.00,1.06
5624.00,1.07
5623.00,1.07
5622.00,1.07
5621.00,1.07
5620.00,1.07
5619.00,1.07
5618.00,1.07
5617.00,1.08
5616.00,1.08
5615.00,1.08
5614.00,1.08
5613.00,1.08
5612.00,1.08
5611.00,1.08
5610.00,1.08
5609.00,1.09
5608.00,1.09
5607.00,1.09
5606.00,1.09
5605.00,1.09
5604.00,1.09
5603.00,1.09
5602.00,1.10
5601.00,1.10
5600.00,1.10
5599.00,1.10
5598.00,1.10
5597.00,1.10
5596.00,1.11
5595.00,1.11
5594.00,1.11
5593.00,1.11
5592.00,1.11
5591.00,1.11
5590.00,1.11
5589.00,1.12
5588.00,1.12
5587.00,1.12
5586.00,1.12
5585.00,1.12
5584.00,1.12
5583.00,1.12
5582.00,1.12
5581.00,1.12
5580.00,1.13
5579.00,1.13
5578.00,1.13
5577.00,1.13
5576.00,1.13
5575.00,1.13
5574.00,1.13
5573.00,1.13
5572.00,1.14
5571.00,1.14
5570.00,1.14
5569.00,1.14
5568.00,1.14
5567.00,1.14
5566.00,1.14
5565.00,1.14
5564.00,1.15
5563.00,1.15
5562.00,1.15
5561.00,1.15
5560.00,1.15
5559.00,1.15
5558.00,1.15
5557.00,1.15
5556.00,1.15
5555.00,1.15
5554.00,1.16
5553.00,1.16
5552.00,1.16
5551.00,1.16
5550.00,1.16
5549.00,1.16
5548.00,1.16
5547.00,1.16
5546.00,1.16
5545.00,1.16
5544.00,1.16
5543.00,1.16
5542.00,1.16
5541.00,1.17
5540.00,1.17
5539.00,1.17
5538.00,1.17
5537.00,1.17
5536.00,1.17
5535.00,1.17
5534.00,1.17
5533.00,1.17
5532.00,1.18
5531.00,1.18
5530.00,1.18
5529.00,1.18
5528.00,1.18
5527.00,1.18
5526.00,1.18
5525.00,1.18
5524.00,1.18
5523.00,1.18
5522.00,1.18
5521.00,1.18
5520.00,1.18
5519.00,1.18
5518.00,1.18
5517.00,1.18
5516.00,1.18
5515.00,1.19
5514.00,1.19
5513.00,1.19
5512.00,1.19
5511.00,1.19
5510.00,1.19
5509.00,1.19
5508.00,1.19
5507.00,1.19
5506.00,1.19
5505.00,1.19
5504.00,1.19
5503.00,1.19
5502.00,1.20
5501.00,1.20
5500.00,1.20
5499.00,1.20
5498.00,1.20
5497.00,1.20
5496.00,1.20
5495.00,1.20
5494.00,1.20
5493.00,1.20
5492.00,1.20
5491.00,1.20
5490.00,1.20
5489.00,1.20
5488.00,1.20
5487.00,1.20
5486.00,1.20
5485.00,1.21
5484.00,1.21
5483.00,1.21
5482.00,1.21
5481.00,1.21
5480.00,1.21
5479.00,1.21
5478.00,1.21
5477.00,1.21
5476.00,1.21
5475.00,1.21
5474.00,1.22
5473.00,1.22
5472.00,1.22
5471.00,1.22
5470.00,1.22
5469.00,1.22
5468.00,1.22
5467.00,1.22
5466.00,1.22
5465.00,1.22
5464.00,1.22
5463.00,1.23
5462.00,1.23
5461.00,1.23
5460.00,1.23
5459.00,1.23
5458.00,1.23
5457.00,1.23
5456.00,1.23
5455.00,1.23
5454.00,1.23
5453.00,1.23
5452.00,1.23
5451.00,1.23
5450.00,1.23
5449.00,1.23
5448.00,1.23
5447.00,1.23
5446.00,1.23
5445.00,1.23
5444.00,1.23
5443.00,1.23
5442.00,1.23
5441.00,1.23
5440.00,1.23
5439.00,1.23
5438.00,1.23
5437.00,1.24
5436.00,1.24
5435.00,1.24
5434.00,1.24
5433.00,1.24
5432.00,1.24
5431.00,1.24
5430.00,1.24
5429.00,1.24
5428.00,1.24
5427.00,1.24
5426.00,1.24
5425.00,1.24
5424.00,1.24
5423.00,1.24
5422.00,1.24
5421.00,1.24
5420.00,1.24
5419.00,1.24
5418.00,1.24
5417.00,1.24
5416.00,1.24
5415.00,1.24
5414.00,1.24
5413.00,1.24
5412.00,1.24
5411.00,1.24
5410.00,1.24
5409.00,1.24
5408.00,1.24
5407.00,1.24
5406.00,1.24
5405.00,1.24
5404.00,1.24
5403.00,1.24
5402.00,1.24
5401.00,1.24
5400.00,1.24
5399.00,1.23
5398.00,1.23
5397.00,1.23
5396.00,1.23
5395.00,1.23
5394.00,1.23
5393.00,1.23
5392.00,1.23
5391.00,1.22
5390.00,1.22
5389.00,1.22
5388.00,1.22
5387.00,1.22
5386.00,1.22
5385.00,1.21
5384.00,1.21
5383.00,1.21
5382.00,1.21
5381.00,1.20
5380.00,1.20
5379.00,1.20
5378.00,1.19
5377.00,1.19
5376.00,1.19
5375.00,1.18
5374.00,1.18
5373.00,1.18
5372.00,1.17
5371.00,1.17
5370.00,1.16
5369.00,1.16
5368.00,1.16
5367.00,1.15
5366.00,1.15
5365.00,1.14
5364.00,1.14
5363.00,1.13
5362.00,1.13
5361.00,1.12
5360.00,1.12
5359.00,1.11
5358.00,1.11
5357.00,1.10
5356.00,1.09
5355.00,1.09
5354.00,1.08
5353.00,1.07
5352.00,1.07
5351.00,1.06
5350.00,1.05
5349.00,1.05
5348.00,1.04
5347.00,1.03
5346.00,1.02
5345.00,1.02
5344.00,1.01
5343.00,1.00
5342.00,0.99
5341.00,0.99
5340.00,0.98
5339.00,0.97
5338.00,0.97
5337.00,0.96
5336.00,0.95
5335.00,0.94
5334.00,0.94
5333.00,0.93
5332.00,0.92
5331.00,0.92
5330.00,0.91
5329.00,0.90
5328.00,0.89
5327.00,0.89
5326.00,0.88
5325.00,0.87
5324.00,0.87
5323.00,0.86
5322.00,0.85
5321.00,0.85
5320.00,0.84
5319.00,0.83
5318.00,0.83
5317.00,0.82
5316.00,0.82
5315.00,0.81
5314.00,0.81
5313.00,0.80
5312.00,0.80
5311.00,0.80
5310.00,0.79
5309.00,0.79
5308.00,0.79
5307.00,0.78
5306.00,0.78
5305.00,0.78
5304.00,0.77
5303.00,0.77
5302.00,0.77
5301.00,0.77
5300.00,0.76
5299.00,0.76
5298.00,0.76
5297.00,0.76
5296.00,0.75
5295.00,0.75
5294.00,0.75
5293.00,0.75
5292.00,0.75
5291.00,0.75
5290.00,0.74
5289.00,0.74
5288.00,0.74
5287.00,0.74
5286.00,0.74
5285.00,0.74
5284.00,0.74
5283.00,0.74
5282.00,0.73
5281.00,0.73
5280.00,0.73
5279.00,0.73
5278.00,0.73
5277.00,0.73
5276.00,0.73
5275.00,0.73
5274.00,0.73
5273.00,0.73
5272.00,0.73
5271.00,0.73
5270.00,0.73
5269.00,0.73
5268.00,0.73
5267.00,0.73
5266.00,0.73
5265.00,0.73
5264.00,0.73
5263.00,0.73
5262.00,0.73
5261.00,0.73
5260.00,0.73
5259.00,0.73
5258.00,0.73
5257.00,0.74
5256.00,0.74
5255.00,0.74
5254.00,0.74
5253.00,0.74
5252.00,0.74
5251.00,0.74
5250.00,0.74
5249.00,0.74
5248.00,0.74
5247.00,0.74
5246.00,0.74
5245.00,0.74
5244.00,0.74
5243.00,0.74
5242.00,0.74
5241.00,0.74
5240.00,0.74
5239.00,0.74
5238.00,0.74
5237.00,0.74
5236.00,0.74
5235.00,0.74
5234.00,0.74
5233.00,0.74
5232.00,0.74
5231.00,0.74
5230.00,0.74
5229.00,0.74
5228.00,0.74
5227.00,0.75
5226.00,0.75
5225.00,0.75
5224.00,0.75
5223.00,0.75
5222.00,0.75
5221.00,0.74
5220.00,0.74
5219.00,0.74
5218.00,0.74
5217.00,0.74
5216.00,0.74
5215.00,0.74
5214.00,0.74
5213.00,0.74
5212.00,0.74
5211.00,0.74
5210.00,0.74
5209.00,0.74
5208.00,0.74
5207.00,0.74
5206.00,0.74
5205.00,0.74
5204.00,0.74
5203.00,0.75
5202.00,0.75
5201.00,0.75
5200.00,0.75
5199.00,0.75
5198.00,0.75
5197.00,0.75
5196.00,0.75
5195.00,0.75
5194.00,0.75
5193.00,0.75
5192.00,0.75
5191.00,0.75
5190.00,0.75
5189.00,0.75
5188.00,0.75
5187.00,0.76
5186.00,0.76
5185.00,0.76
5184.00,0.76
5183.00,0.76
5182.00,0.76
5181.00,0.76
5180.00,0.76
5179.00,0.76
5178.00,0.76
5177.00,0.76
5176.00,0.76
5175.00,0.76
5174.00,0.76
5173.00,0.77
5172.00,0.77
5171.00,0.77
5170.00,0.77
5169.00,0.77
5168.00,0.77
5167.00,0.77
5166.00,0.77
5165.00,0.77
5164.00,0.77
5163.00,0.77
5162.00,0.77
5161.00,0.76
5160.00,0.76
5159.00,0.76
5158.00,0.76
5157.00,0.76
5156.00,0.76
5155.00,0.76
5154.00,0.76
5153.00,0.76
5152.00,0.76
5151.00,0.76
5150.00,0.76
5149.00,0.76
5148.00,0.76
5147.00,0.76
5146.00,0.76
5145.00,0.77
5144.00,0.77
5143.00,0.77
5142.00,0.77
5141.00,0.77
5140.00,0.77
5139.00,0.77
5138.00,0.77
5137.00,0.77
5136.00,0.77
5135.00,0.77
5134.00,0.77
5133.00,0.77
5132.00,0.77
5131.00,0.77
5130.00,0.77
5129.00,0.77
5128.00,0.77
5127.00,0.77
5126.00,0.77
5125.00,0.77
5124.00,0.77
5123.00,0.77
5122.00,0.77
5121.00,0.78
5120.00,0.78
5119.00,0.78
5118.00,0.78
5117.00,0.78
5116.00,0.78
5115.00,0.78
5114.00,0.78
5113.00,0.78
5112.00,0.78
5111.00,0.78
5110.00,0.78
5109.00,0.78
5108.00,0.78
5107.00,0.78
5106.00,0.78
5105.00,0.78
5104.00,0.78
5103.00,0.78
5102.00,0.78
5101.00,0.78
5100.00,0.78
5099.00,0.78
5098.00,0.78
5097.00,0.78
5096.00,0.78
5095.00,0.78
5094.00,0.78
5093.00,0.78
5092.00,0.78
5091.00,0.78
5090.00,0.78
5089.00,0.78
5088.00,0.78
5087.00,0.78
5086.00,0.78
5085.00,0.79
5084.00,0.79
5083.00,0.79
5082.00,0.79
5081.00,0.79
5080.00,0.79
5079.00,0.79
5078.00,0.79
5077.00,0.79
5076.00,0.79
5075.00,0.79
5074.00,0.79
5073.00,0.79
5072.00,0.79
5071.00,0.79
5070.00,0.79
5069.00,0.79
5068.00,0.79
5067.00,0.79
5066.00,0.79
5065.00,0.79
5064.00,0.79
5063.00,0.79
5062.00,0.79
5061.00,0.79
5060.00,0.79
5059.00,0.79
5058.00,0.79
5057.00,0.79
5056.00,0.79
5055.00,0.79
5054.00,0.79
5053.00,0.79
5052.00,0.79
5051.00,0.80
5050.00,0.80
5049.00,0.80
5048.00,0.80
5047.00,0.80
5046.00,0.80
5045.00,0.80
5044.00,0.80
5043.00,0.80
5042.00,0.80
5041.00,0.81
5040.00,0.81
5039.00,0.81
5038.00,0.81
5037.00,0.81
5036.00,0.81
5035.00,0.81
5034.00,0.81
5033.00,0.81
5032.00,0.81
5031.00,0.81
5030.00,0.81
5029.00,0.81
5028.00,0.81
5027.00,0.81
5026.00,0.81
5025.00,0.81
5024.00,0.81
5023.00,0.81
5022.00,0.81
5021.00,0.81
5020.00,0.81
5019.00,0.81
5018.00,0.81
5017.00,0.81
5016.00,0.81
5015.00,0.81
5014.00,0.81
5013.00,0.82
5012.00,0.82
5011.00,0.82
5010.00,0.82
5009.00,0.82
5008.00,0.82
5007.00,0.82
5006.00,0.82
5005.00,0.82
5004.00,0.82
5003.00,0.82
5002.00,0.82
5001.00,0.83
5000.00,0.83
4999.00,0.83
4998.00,0.83
4997.00,0.83
4996.00,0.83
4995.00,0.83
4994.00,0.83
4993.00,0.83
4992.00,0.83
4991.00,0.83
4990.00,0.83
4989.00,0.83
4988.00,0.83
4987.00,0.83
4986.00,0.83
4985.00,0.83
4984.00,0.83
4983.00,0.83
4982.00,0.83
4981.00,0.83
4980.00,0.83
4979.00,0.83
4978.00,0.83
4977.00,0.83
4976.00,0.84
4975.00,0.84
4974.00,0.84
4973.00,0.84
4972.00,0.84
4971.00,0.84
4970.00,0.84
4969.00,0.84
4968.00,0.84
4967.00,0.84
4966.00,0.84
4965.00,0.84
4964.00,0.84
4963.00,0.84
4962.00,0.84
4961.00,0.84
4960.00,0.84
4959.00,0.85
4958.00,0.85
4957.00,0.85
4956.00,0.85
4955.00,0.85
4954.00,0.85
4953.00,0.85
4952.00,0.85
4951.00,0.85
4950.00,0.85
4949.00,0.85
4948.00,0.85
4947.00,0.85
4946.00,0.85
4945.00,0.85
4944.00,0.85
4943.00,0.85
4942.00,0.85
4941.00,0.85
4940.00,0.85
4939.00,0.85
4938.00,0.85
4937.00,0.85
4936.00,0.85
4935.00,0.85
4934.00,0.85
4933.00,0.85
4932.00,0.85
4931.00,0.85
4930.00,0.85
4929.00,0.85
4928.00,0.85
4927.00,0.85
4926.00,0.85
4925.00,0.85
4924.00,0.86
4923.00,0.86
4922.00,0.86
4921.00,0.86
4920.00,0.86
4919.00,0.86
4918.00,0.86
4917.00,0.86
4916.00,0.86
4915.00,0.86
4914.00,0.86
4913.00,0.86
4912.00,0.86
4911.00,0.86
4910.00,0.86
4909.00,0.87
4908.00,0.87
4907.00,0.87
4906.00,0.87
4905.00,0.87
4904.00,0.87
4903.00,0.87
4902.00,0.87
4901.00,0.87
4900.00,0.87
4899.00,0.87
4898.00,0.88
4897.00,0.88
4896.00,0.88
4895.00,0.88
4894.00,0.88
4893.00,0.88
4892.00,0.88
4891.00,0.88
4890.00,0.88
4889.00,0.88
4888.00,0.88
4887.00,0.88
4886.00,0.88
4885.00,0.88
4884.00,0.88
4883.00,0.88
4882.00,0.88
4881.00,0.88
4880.00,0.88
4879.00,0.88
4878.00,0.88
4877.00,0.88
4876.00,0.88
4875.00,0.88
4874.00,0.88
4873.00,0.88
4872.00,0.88
4871.00,0.88
4870.00,0.88
4869.00,0.88
4868.00,0.88
4867.00,0.88
4866.00,0.88
4865.00,0.88
4864.00,0.88
4863.00,0.88
4862.00,0.89
4861.00,0.89
4860.00,0.89
4859.00,0.89
4858.00,0.89
4857.00,0.89
4856.00,0.89
4855.00,0.89
4854.00,0.89
4853.00,0.89
4852.00,0.89
4851.00,0.89
4850.00,0.89
4849.00,0.89
4848.00,0.89
4847.00,0.89
4846.00,0.89
4845.00,0.89
4844.00,0.90
4843.00,0.90
4842.00,0.90
4841.00,0.90
4840.00,0.90
4839.00,0.90
4838.00,0.90
4837.00,0.90
4836.00,0.90
4835.00,0.90
4834.00,0.90
4833.00,0.90
4832.00,0.90
4831.00,0.90
4830.00,0.90
4829.00,0.90
4828.00,0.90
4827.00,0.90
4826.00,0.90
4825.00,0.90
4824.00,0.90
4823.00,0.90
4822.00,0.91
4821.00,0.91
4820.00,0.91
4819.00,0.91
4818.00,0.91
4817.00,0.91
4816.00,0.91
4815.00,0.91
4814.00,0.91
4813.00,0.91
4812.00,0.91
4811.00,0.91
4810.00,0.91
4809.00,0.91
4808.00,0.91
4807.00,0.91
4806.00,0.91
4805.00,0.91
4804.00,0.91
4803.00,0.91
4802.00,0.91
4801.00,0.91
4800.00,0.91
4799.00,0.91
4798.00,0.91
4797.00,0.91
4796.00,0.91
4795.00,0.91
4794.00,0.91
4793.00,0.92
4792.00,0.92
4791.00,0.92
4790.00,0.92
4789.00,0.92
4788.00,0.92
4787.00,0.92
4786.00,0.93
4785.00,0.93
4784.00,0.93
4783.00,0.93
4782.00,0.93
4781.00,0.93
4780.00,0.93
4779.00,0.93
4778.00,0.94
4777.00,0.94
4776.00,0.94
4775.00,0.94
4774.00,0.94
4773.00,0.94
4772.00,0.94
4771.00,0.94
4770.00,0.94
4769.00,0.94
4768.00,0.94
4767.00,0.95
4766.00,0.95
4765.00,0.95
4764.00,0.95
4763.00,0.95
4762.00,0.95
4761.00,0.95
4760.00,0.95
4759.00,0.95
4758.00,0.95
4757.00,0.95
4756.00,0.95
4755.00,0.96
4754.00,0.96
4753.00,0.96
4752.00,0.96
4751.00,0.96
4750.00,0.96
4749.00,0.96
4748.00,0.96
4747.00,0.96
4746.00,0.96
4745.00,0.96
4744.00,0.96
4743.00,0.97
4742.00,0.97
4741.00,0.97
4740.00,0.97
4739.00,0.97
4738.00,0.97
4737.00,0.97
4736.00,0.97
4735.00,0.98
4734.00,0.98
4733.00,0.98
4732.00,0.98
4731.00,0.98
4730.00,0.98
4729.00,0.98
4728.00,0.99
4727.00,0.99
4726.00,0.99
4725.00,0.99
4724.00,0.99
4723.00,0.99
4722.00,0.99
4721.00,0.99
4720.00,0.99
4719.00,0.99
4718.00,0.99
4717.00,0.99
4716.00,0.99
4715.00,0.99
4714.00,1.00
4713.00,1.00
4712.00,1.00
4711.00,1.00
4710.00,1.00
4709.00,1.00
4708.00,1.00
4707.00,1.00
4706.00,1.00
4705.00,1.00
4704.00,1.00
4703.00,1.00
4702.00,1.00
4701.00,1.00
4700.00,1.00
4699.00,1.00
4698.00,1.00
4697.00,1.01
4696.00,1.01
4695.00,1.01
4694.00,1.01
4693.00,1.01
4692.00,1.01
4691.00,1.01
4690.00,1.01
4689.00,1.01
4688.00,1.01
4687.00,1.02
4686.00,1.02
4685.00,1.02
4684.00,1.02
4683.00,1.02
4682.00,1.02
4681.00,1.02
4680.00,1.03
4679.00,1.03
4678.00,1.03
4677.00,1.03
4676.00,1.03
4675.00,1.03
4674.00,1.03
4673.00,1.04
4672.00,1.04
4671.00,1.04
4670.00,1.04
4669.00,1.04
4668.00,1.04
4667.00,1.04
4666.00,1.04
4665.00,1.04
4664.00,1.04
4663.00,1.04
4662.00,1.04
4661.00,1.04
4660.00,1.05
4659.00,1.05
4658.00,1.05
4657.00,1.05
4656.00,1.05
4655.00,1.05
4654.00,1.05
4653.00,1.05
4652.00,1.05
4651.00,1.05
4650.00,1.05
4649.00,1.06
4648.00,1.06
4647.00,1.06
4646.00,1.06
4645.00,1.06
4644.00,1.06
4643.00,1.06
4642.00,1.06
4641.00,1.06
4640.00,1.06
4639.00,1.06
4638.00,1.06
4637.00,1.06
4636.00,1.06
4635.00,1.06
4634.00,1.06
4633.00,1.06
4632.00,1.06
4631.00,1.06
4630.00,1.06
4629.00,1.06
4628.00,1.06
4627.00,1.06
4626.00,1.06
4625.00,1.06
4624.00,1.06
4623.00,1.06
4622.00,1.06
4621.00,1.07
4620.00,1.07
4619.00,1.07
4618.00,1.07
4617.00,1.07
4616.00,1.07
4615.00,1.07
4614.00,1.07
4613.00,1.07
4612.00,1.07
4611.00,1.07
4610.00,1.07
4609.00,1.07
4608.00,1.07
4607.00,1.07
4606.00,1.07
4605.00,1.07
4604.00,1.08
4603.00,1.08
4602.00,1.08
4601.00,1.08
4600.00,1.08
4599.00,1.08
4598.00,1.08
4597.00,1.08
4596.00,1.08
4595.00,1.08
4594.00,1.08
4593.00,1.08
4592.00,1.08
4591.00,1.08
4590.00,1.08
4589.00,1.08
4588.00,1.08
4587.00,1.08
4586.00,1.08
4585.00,1.08
4584.00,1.08
4583.00,1.08
4582.00,1.08
4581.00,1.08
4580.00,1.08
4579.00,1.08
4578.00,1.08
4577.00,1.09
4576.00,1.09
4575.00,1.09
4574.00,1.09
4573.00,1.09
4572.00,1.09
4571.00,1.09
4570.00,1.09
4569.00,1.09
4568.00,1.09
4567.00,1.09
4566.00,1.09
4565.00,1.09
4564.00,1.10
4563.00,1.10
4562.00,1.10
4561.00,1.10
4560.00,1.10
4559.00,1.10
4558.00,1.10
4557.00,1.10
4556.00,1.10
4555.00,1.10
4554.00,1.10
4553.00,1.10
4552.00,1.10
4551.00,1.10
4550.00,1.10
4549.00,1.10
4548.00,1.10
4547.00,1.11
4546.00,1.11
4545.00,1.11
4544.00,1.11
4543.00,1.11
4542.00,1.11
4541.00,1.11
4540.00,1.11
4539.00,1.11
4538.00,1.11
4537.00,1.11
4536.00,1.11
4535.00,1.11
4534.00,1.12
4533.00,1.12
4532.00,1.12
4531.00,1.12
4530.00,1.12
4529.00,1.12
4528.00,1.12
4527.00,1.12
4526.00,1.12
4525.00,1.12
4524.00,1.12
4523.00,1.12
4522.00,1.12
4521.00,1.12
4520.00,1.12
4519.00,1.12
4518.00,1.12
4517.00,1.12
4516.00,1.12
4515.00,1.12
4514.00,1.12
4513.00,1.12
4512.00,1.12
4511.00,1.12
4510.00,1.12
4509.00,1.12
4508.00,1.12
4507.00,1.12
4506.00,1.12
4505.00,1.12
4504.00,1.12
4503.00,1.12
4502.00,1.12
4501.00,1.12
4500.00,1.12
4499.00,1.12
4498.00,1.12
4497.00,1.12
4496.00,1.12
4495.00,1.12
4494.00,1.12
4493.00,1.11
4492.00,1.11
4491.00,1.11
4490.00,1.11
4489.00,1.11
4488.00,1.11
4487.00,1.11
4486.00,1.11
4485.00,1.11
4484.00,1.11
4483.00,1.11
4482.00,1.11
4481.00,1.10
4480.00,1.10
4479.00,1.10
4478.00,1.10
4477.00,1.10
4476.00,1.10
4475.00,1.10
4474.00,1.10
4473.00,1.10
4472.00,1.10
4471.00,1.10
4470.00,1.09
4469.00,1.09
4468.00,1.09
4467.00,1.09
4466.00,1.09
4465.00,1.09
4464.00,1.08
4463.00,1.08
4462.00,1.08
4461.00,1.08
4460.00,1.08
4459.00,1.08
4458.00,1.07
4457.00,1.07
4456.00,1.07
4455.00,1.07
4454.00,1.07
4453.00,1.07
4452.00,1.07
4451.00,1.07
4450.00,1.07
4449.00,1.06
4448.00,1.06
4447.00,1.06
4446.00,1.06
4445.00,1.06
4444.00,1.06
4443.00,1.06
4442.00,1.06
4441.00,1.05
4440.00,1.05
4439.00,1.05
4438.00,1.05
4437.00,1.05
4436.00,1.05
4435.00,1.04
4434.00,1.04
4433.00,1.04
4432.00,1.04
4431.00,1.04
4430.00,1.04
4429.00,1.04
4428.00,1.03
4427.00,1.03
4426.00,1.03
4425.00,1.03
4424.00,1.03
4423.00,1.03
4422.00,1.03
4421.00,1.03
4420.00,1.03
4419.00,1.03
4418.00,1.03
4417.00,1.03
4416.00,1.03
4415.00,1.03
4414.00,1.03
4413.00,1.03
4412.00,1.03
4411.00,1.03
4410.00,1.03
4409.00,1.03
4408.00,1.04
4407.00,1.04
4406.00,1.04
4405.00,1.04
4404.00,1.04
4403.00,1.04
4402.00,1.04
4401.00,1.04
4400.00,1.04
4399.00,1.04
4398.00,1.04
4397.00,1.04
4396.00,1.04
4395.00,1.04
4394.00,1.04
4393.00,1.04
4392.00,1.04
4391.00,1.05
4390.00,1.05
4389.00,1.05
4388.00,1.05
4387.00,1.05
4386.00,1.05
4385.00,1.05
4384.00,1.05
4383.00,1.06
4382.00,1.06
4381.00,1.06
4380.00,1.06
4379.00,1.06
4378.00,1.06
4377.00,1.06
4376.00,1.06
4375.00,1.07
4374.00,1.07
4373.00,1.07
4372.00,1.07
4371.00,1.07
4370.00,1.07
4369.00,1.07
4368.00,1.07
4367.00,1.06
4366.00,1.06
4365.00,1.06
4364.00,1.06
4363.00,1.06
4362.00,1.06
4361.00,1.06
4360.00,1.06
4359.00,1.06
4358.00,1.06
4357.00,1.06
4356.00,1.05
4355.00,1.05
4354.00,1.05
4353.00,1.06
4352.00,1.06
4351.00,1.06
4350.00,1.06
4349.00,1.06
4348.00,1.06
4347.00,1.06
4346.00,1.06
4345.00,1.06
4344.00,1.07
4343.00,1.07
4342.00,1.07
4341.00,1.07
4340.00,1.07
4339.00,1.07
4338.00,1.07
4337.00,1.07
4336.00,1.07
4335.00,1.08
4334.00,1.08
4333.00,1.08
4332.00,1.08
4331.00,1.08
4330.00,1.08
4329.00,1.08
4328.00,1.08
4327.00,1.08
4326.00,1.08
4325.00,1.08
4324.00,1.08
4323.00,1.08
4322.00,1.08
4321.00,1.08
4320.00,1.08
4319.00,1.08
4318.00,1.08
4317.00,1.08
4316.00,1.08
4315.00,1.08
4314.00,1.08
4313.00,1.08
4312.00,1.08
4311.00,1.08
4310.00,1.08
4309.00,1.09
4308.00,1.09
4307.00,1.09
4306.00,1.09
4305.00,1.09
4304.00,1.09
4303.00,1.09
4302.00,1.10
4301.00,1.10
4300.00,1.10
4299.00,1.10
4298.00,1.10
4297.00,1.10
4296.00,1.10
4295.00,1.10
4294.00,1.10
4293.00,1.10
4292.00,1.10
4291.00,1.10
4290.00,1.10
4289.00,1.10
4288.00,1.10
4287.00,1.10
4286.00,1.10
4285.00,1.10
4284.00,1.10
4283.00,1.10
4282.00,1.10
4281.00,1.10
4280.00,1.11
4279.00,1.11
4278.00,1.11
4277.00,1.11
4276.00,1.11
4275.00,1.11
4274.00,1.11
4273.00,1.11
4272.00,1.11
4271.00,1.11
4270.00,1.11
4269.00,1.11
4268.00,1.11
4267.00,1.11
4266.00,1.11
4265.00,1.11
4264.00,1.11
4263.00,1.11
4262.00,1.11
4261.00,1.11
4260.00,1.11
4259.00,1.11
4258.00,1.11
4257.00,1.11
4256.00,1.11
4255.00,1.11
4254.00,1.11
4253.00,1.11
4252.00,1.11
4251.00,1.11
4250.00,1.11
4249.00,1.11
4248.00,1.11
4247.00,1.11
4246.00,1.11
4245.00,1.11
4244.00,1.11
4243.00,1.11
4242.00,1.11
4241.00,1.12
4240.00,1.12
4239.00,1.12
4238.00,1.12
4237.00,1.12
4236.00,1.12
4235.00,1.12
4234.00,1.12
4233.00,1.12
4232.00,1.12
4231.00,1.13
4230.00,1.13
4229.00,1.13
4228.00,1.13
4227.00,1.13
4226.00,1.13
4225.00,1.13
4224.00,1.13
4223.00,1.13
4222.00,1.14
4221.00,1.14
4220.00,1.14
4219.00,1.14
4218.00,1.14
4217.00,1.14
4216.00,1.14
4215.00,1.14
4214.00,1.14
4213.00,1.14
4212.00,1.14
4211.00,1.14
4210.00,1.14
4209.00,1.14
4208.00,1.14
4207.00,1.14
4206.00,1.14
4205.00,1.14
4204.00,1.14
4203.00,1.14
4202.00,1.14
4201.00,1.14
4200.00,1.14
4199.00,1.14
4198.00,1.14
4197.00,1.14
4196.00,1.14
4195.00,1.14
4194.00,1.14
4193.00,1.14
4192.00,1.14
4191.00,1.14
4190.00,1.14
4189.00,1.14
4188.00,1.14
4187.00,1.14
4186.00,1.15
4185.00,1.15
4184.00,1.15
4183.00,1.15
4182.00,1.15
4181.00,1.15
4180.00,1.15
4179.00,1.15
4178.00,1.15
4177.00,1.15
4176.00,1.15
4175.00,1.15
4174.00,1.15
4173.00,1.16
4172.00,1.16
4171.00,1.16
4170.00,1.16
4169.00,1.16
4168.00,1.16
4167.00,1.16
4166.00,1.17
4165.00,1.17
4164.00,1.17
4163.00,1.17
4162.00,1.17
4161.00,1.17
4160.00,1.17
4159.00,1.17
4158.00,1.17
4157.00,1.17
4156.00,1.17
4155.00,1.17
4154.00,1.17
4153.00,1.17
4152.00,1.17
4151.00,1.17
4150.00,1.17
4149.00,1.17
4148.00,1.17
4147.00,1.17
4146.00,1.17
4145.00,1.17
4144.00,1.17
4143.00,1.17
4142.00,1.17
4141.00,1.17
4140.00,1.17
4139.00,1.17
4138.00,1.17
4137.00,1.17
4136.00,1.17
4135.00,1.17
4134.00,1.17
4133.00,1.17
4132.00,1.17
4131.00,1.17
4130.00,1.17
4129.00,1.17
4128.00,1.17
4127.00,1.17
4126.00,1.17
4125.00,1.17
4124.00,1.17
4123.00,1.17
4122.00,1.17
4121.00,1.17
4120.00,1.17
4119.00,1.17
4118.00,1.17
4117.00,1.17
4116.00,1.17
4115.00,1.17
4114.00,1.17
4113.00,1.17
4112.00,1.17
4111.00,1.17
4110.00,1.17
4109.00,1.17
4108.00,1.17
4107.00,1.17
4106.00,1.18
4105.00,1.18
4104.00,1.18
4103.00,1.18
4102.00,1.18
4101.00,1.18
4100.00,1.18
4099.00,1.18
4098.00,1.18
4097.00,1.18
4096.00,1.18
4095.00,1.18
4094.00,1.18
4093.00,1.18
4092.00,1.18
4091.00,1.18
4090.00,1.18
4089.00,1.18
4088.00,1.18
4087.00,1.18
4086.00,1.18
4085.00,1.18
4084.00,1.18
4083.00,1.18
4082.00,1.18
4081.00,1.18
4080.00,1.18
4079.00,1.18
4078.00,1.18
4077.00,1.18
4076.00,1.18
4075.00,1.18
4074.00,1.18
4073.00,1.18
4072.00,1.19
4071.00,1.19
4070.00,1.19
4069.00,1.19
4068.00,1.19
4067.00,1.19
4066.00,1.19
4065.00,1.20
4064.00,1.20
4063.00,1.20
4062.00,1.20
4061.00,1.20
4060.00,1.21
4059.00,1.21
4058.00,1.21
4057.00,1.21
4056.00,1.21
4055.00,1.21
4054.00,1.21
4053.00,1.21
4052.00,1.21
4051.00,1.21
4050.00,1.21
4049.00,1.21
4048.00,1.21
4047.00,1.21
4046.00,1.21
4045.00,1.21
4044.00,1.21
4043.00,1.21
4042.00,1.21
4041.00,1.21
4040.00,1.20
4039.00,1.20
4038.00,1.20
4037.00,1.20
4036.00,1.20
4035.00,1.20
4034.00,1.20
4033.00,1.20
4032.00,1.20
4031.00,1.20
4030.00,1.20
4029.00,1.20
4028.00,1.20
4027.00,1.21
4026.00,1.21
4025.00,1.21
4024.00,1.21
4023.00,1.21
4022.00,1.21
4021.00,1.21
4020.00,1.21
4019.00,1.21
4018.00,1.21
4017.00,1.21
4016.00,1.22
4015.00,1.22
4014.00,1.22
4013.00,1.22
4012.00,1.22
4011.00,1.22
4010.00,1.23
4009.00,1.23
4008.00,1.23
4007.00,1.23
4006.00,1.23
4005.00,1.24
4004.00,1.24
4003.00,1.24
4002.00,1.24
4001.00,1.24
4000.00,1.24
