创建为新数据集,样品 780 用户 Administrator 日期 星期五, 七月 20 2018
cm-1,%T
10000.00,1.47
9999.00,1.47
9998.00,1.47
9997.00,1.48
9996.00,1.48
9995.00,1.47
9994.00,1.47
9993.00,1.47
9992.00,1.47
9991.00,1.47
9990.00,1.47
9989.00,1.47
9988.00,1.47
9987.00,1.47
9986.00,1.47
9985.00,1.47
9984.00,1.47
9983.00,1.46
9982.00,1.46
9981.00,1.46
9980.00,1.46
9979.00,1.46
9978.00,1.46
9977.00,1.46
9976.00,1.45
9975.00,1.45
9974.00,1.45
9973.00,1.45
9972.00,1.45
9971.00,1.45
9970.00,1.46
9969.00,1.46
9968.00,1.46
9967.00,1.46
9966.00,1.46
9965.00,1.46
9964.00,1.47
9963.00,1.47
9962.00,1.47
9961.00,1.47
9960.00,1.47
9959.00,1.47
9958.00,1.47
9957.00,1.47
9956.00,1.47
9955.00,1.47
9954.00,1.47
9953.00,1.47
9952.00,1.47
9951.00,1.47
9950.00,1.47
9949.00,1.47
9948.00,1.47
9947.00,1.46
9946.00,1.46
9945.00,1.46
9944.00,1.45
9943.00,1.45
9942.00,1.45
9941.00,1.45
9940.00,1.45
9939.00,1.44
9938.00,1.44
9937.00,1.44
9936.00,1.44
9935.00,1.44
9934.00,1.44
9933.00,1.44
9932.00,1.44
9931.00,1.44
9930.00,1.44
9929.00,1.45
9928.00,1.45
9927.00,1.45
9926.00,1.45
9925.00,1.45
9924.00,1.45
9923.00,1.45
9922.00,1.45
9921.00,1.45
9920.00,1.45
9919.00,1.45
9918.00,1.45
9917.00,1.44
9916.00,1.44
9915.00,1.44
9914.00,1.44
9913.00,1.44
9912.00,1.44
9911.00,1.44
9910.00,1.44
9909.00,1.44
9908.00,1.44
9907.00,1.44
9906.00,1.44
9905.00,1.44
9904.00,1.44
9903.00,1.44
9902.00,1.43
9901.00,1.43
9900.00,1.43
9899.00,1.43
9898.00,1.43
9897.00,1.43
9896.00,1.43
9895.00,1.42
9894.00,1.42
9893.00,1.42
9892.00,1.42
9891.00,1.42
9890.00,1.42
9889.00,1.42
9888.00,1.42
9887.00,1.42
9886.00,1.42
9885.00,1.42
9884.00,1.42
9883.00,1.42
9882.00,1.42
9881.00,1.42
9880.00,1.42
9879.00,1.42
9878.00,1.43
9877.00,1.43
9876.00,1.43
9875.00,1.43
9874.00,1.43
9873.00,1.44
9872.00,1.44
9871.00,1.44
9870.00,1.44
9869.00,1.44
9868.00,1.45
9867.00,1.45
9866.00,1.45
9865.00,1.45
9864.00,1.45
9863.00,1.45
9862.00,1.45
9861.00,1.46
9860.00,1.46
9859.00,1.46
9858.00,1.46
9857.00,1.46
9856.00,1.46
9855.00,1.46
9854.00,1.46
9853.00,1.46
9852.00,1.46
9851.00,1.46
9850.00,1.46
9849.00,1.46
9848.00,1.45
9847.00,1.45
9846.00,1.45
9845.00,1.45
9844.00,1.45
9843.00,1.45
9842.00,1.44
9841.00,1.44
9840.00,1.44
9839.00,1.44
9838.00,1.44
9837.00,1.44
9836.00,1.44
9835.00,1.44
9834.00,1.44
9833.00,1.44
9832.00,1.45
9831.00,1.45
9830.00,1.45
9829.00,1.45
9828.00,1.45
9827.00,1.45
9826.00,1.46
9825.00,1.46
9824.00,1.46
9823.00,1.46
9822.00,1.46
9821.00,1.46
9820.00,1.46
9819.00,1.46
9818.00,1.47
9817.00,1.47
9816.00,1.47
9815.00,1.47
9814.00,1.47
9813.00,1.47
9812.00,1.47
9811.00,1.47
9810.00,1.47
9809.00,1.47
9808.00,1.47
9807.00,1.47
9806.00,1.46
9805.00,1.46
9804.00,1.46
9803.00,1.46
9802.00,1.46
9801.00,1.46
9800.00,1.46
9799.00,1.46
9798.00,1.46
9797.00,1.46
9796.00,1.46
9795.00,1.46
9794.00,1.46
9793.00,1.46
9792.00,1.46
9791.00,1.46
9790.00,1.45
9789.00,1.45
9788.00,1.45
9787.00,1.45
9786.00,1.45
9785.00,1.45
9784.00,1.44
9783.00,1.44
9782.00,1.44
9781.00,1.44
9780.00,1.43
9779.00,1.43
9778.00,1.43
9777.00,1.43
9776.00,1.43
9775.00,1.43
9774.00,1.43
9773.00,1.43
9772.00,1.43
9771.00,1.43
9770.00,1.43
9769.00,1.43
9768.00,1.43
9767.00,1.43
9766.00,1.43
9765.00,1.43
9764.00,1.43
9763.00,1.43
9762.00,1.44
9761.00,1.44
9760.00,1.44
9759.00,1.44
9758.00,1.44
9757.00,1.44
9756.00,1.44
9755.00,1.44
9754.00,1.44
9753.00,1.44
9752.00,1.44
9751.00,1.44
9750.00,1.44
9749.00,1.44
9748.00,1.44
9747.00,1.44
9746.00,1.45
9745.00,1.45
9744.00,1.45
9743.00,1.45
9742.00,1.45
9741.00,1.45
9740.00,1.45
9739.00,1.45
9738.00,1.45
9737.00,1.45
9736.00,1.45
9735.00,1.45
9734.00,1.45
9733.00,1.46
9732.00,1.46
9731.00,1.46
9730.00,1.46
9729.00,1.46
9728.00,1.46
9727.00,1.46
9726.00,1.46
9725.00,1.46
9724.00,1.47
9723.00,1.47
9722.00,1.47
9721.00,1.47
9720.00,1.47
9719.00,1.47
9718.00,1.47
9717.00,1.47
9716.00,1.47
9715.00,1.47
9714.00,1.47
9713.00,1.46
9712.00,1.46
9711.00,1.46
9710.00,1.46
9709.00,1.46
9708.00,1.46
9707.00,1.46
9706.00,1.46
9705.00,1.46
9704.00,1.46
9703.00,1.45
9702.00,1.45
9701.00,1.45
9700.00,1.45
9699.00,1.45
9698.00,1.45
9697.00,1.45
9696.00,1.44
9695.00,1.44
9694.00,1.44
9693.00,1.44
9692.00,1.44
9691.00,1.44
9690.00,1.44
9689.00,1.44
9688.00,1.44
9687.00,1.44
9686.00,1.44
9685.00,1.44
9684.00,1.44
9683.00,1.44
9682.00,1.44
9681.00,1.44
9680.00,1.44
9679.00,1.44
9678.00,1.44
9677.00,1.44
9676.00,1.44
9675.00,1.44
9674.00,1.43
9673.00,1.43
9672.00,1.43
9671.00,1.43
9670.00,1.43
9669.00,1.43
9668.00,1.43
9667.00,1.43
9666.00,1.43
9665.00,1.43
9664.00,1.43
9663.00,1.43
9662.00,1.43
9661.00,1.43
9660.00,1.44
9659.00,1.44
9658.00,1.44
9657.00,1.44
9656.00,1.44
9655.00,1.44
9654.00,1.44
9653.00,1.45
9652.00,1.45
9651.00,1.45
9650.00,1.45
9649.00,1.45
9648.00,1.45
9647.00,1.45
9646.00,1.45
9645.00,1.45
9644.00,1.45
9643.00,1.45
9642.00,1.45
9641.00,1.45
9640.00,1.45
9639.00,1.45
9638.00,1.45
9637.00,1.45
9636.00,1.45
9635.00,1.45
9634.00,1.45
9633.00,1.45
9632.00,1.45
9631.00,1.45
9630.00,1.45
9629.00,1.45
9628.00,1.45
9627.00,1.45
9626.00,1.45
9625.00,1.45
9624.00,1.45
9623.00,1.45
9622.00,1.45
9621.00,1.45
9620.00,1.45
9619.00,1.45
9618.00,1.45
9617.00,1.45
9616.00,1.44
9615.00,1.44
9614.00,1.44
9613.00,1.44
9612.00,1.44
9611.00,1.44
9610.00,1.44
9609.00,1.44
9608.00,1.44
9607.00,1.44
9606.00,1.44
9605.00,1.44
9604.00,1.44
9603.00,1.44
9602.00,1.44
9601.00,1.44
9600.00,1.44
9599.00,1.44
9598.00,1.44
9597.00,1.45
9596.00,1.45
9595.00,1.45
9594.00,1.45
9593.00,1.45
9592.00,1.45
9591.00,1.45
9590.00,1.45
9589.00,1.45
9588.00,1.45
9587.00,1.45
9586.00,1.45
9585.00,1.45
9584.00,1.45
9583.00,1.45
9582.00,1.44
9581.00,1.44
9580.00,1.44
9579.00,1.44
9578.00,1.44
9577.00,1.44
9576.00,1.45
9575.00,1.45
9574.00,1.45
9573.00,1.45
9572.00,1.45
9571.00,1.45
9570.00,1.45
9569.00,1.45
9568.00,1.46
9567.00,1.46
9566.00,1.46
9565.00,1.46
9564.00,1.46
9563.00,1.46
9562.00,1.46
9561.00,1.46
9560.00,1.46
9559.00,1.46
9558.00,1.46
9557.00,1.46
9556.00,1.46
9555.00,1.46
9554.00,1.46
9553.00,1.46
9552.00,1.46
9551.00,1.46
9550.00,1.46
9549.00,1.46
9548.00,1.46
9547.00,1.46
9546.00,1.46
9545.00,1.46
9544.00,1.46
9543.00,1.46
9542.00,1.46
9541.00,1.46
9540.00,1.46
9539.00,1.46
9538.00,1.46
9537.00,1.46
9536.00,1.46
9535.00,1.46
9534.00,1.46
9533.00,1.46
9532.00,1.45
9531.00,1.45
9530.00,1.45
9529.00,1.45
9528.00,1.45
9527.00,1.45
9526.00,1.45
9525.00,1.45
9524.00,1.45
9523.00,1.45
9522.00,1.45
9521.00,1.45
9520.00,1.44
9519.00,1.44
9518.00,1.44
9517.00,1.44
9516.00,1.44
9515.00,1.44
9514.00,1.44
9513.00,1.44
9512.00,1.44
9511.00,1.45
9510.00,1.45
9509.00,1.45
9508.00,1.45
9507.00,1.45
9506.00,1.45
9505.00,1.46
9504.00,1.46
9503.00,1.46
9502.00,1.46
9501.00,1.47
9500.00,1.47
9499.00,1.47
9498.00,1.47
9497.00,1.47
9496.00,1.47
9495.00,1.47
9494.00,1.47
9493.00,1.47
9492.00,1.47
9491.00,1.47
9490.00,1.47
9489.00,1.47
9488.00,1.47
9487.00,1.46
9486.00,1.46
9485.00,1.46
9484.00,1.46
9483.00,1.45
9482.00,1.45
9481.00,1.45
9480.00,1.45
9479.00,1.44
9478.00,1.44
9477.00,1.44
9476.00,1.44
9475.00,1.44
9474.00,1.44
9473.00,1.44
9472.00,1.44
9471.00,1.44
9470.00,1.44
9469.00,1.44
9468.00,1.44
9467.00,1.44
9466.00,1.44
9465.00,1.44
9464.00,1.44
9463.00,1.44
9462.00,1.44
9461.00,1.44
9460.00,1.44
9459.00,1.44
9458.00,1.44
9457.00,1.44
9456.00,1.44
9455.00,1.44
9454.00,1.44
9453.00,1.44
9452.00,1.44
9451.00,1.44
9450.00,1.43
9449.00,1.43
9448.00,1.43
9447.00,1.43
9446.00,1.43
9445.00,1.43
9444.00,1.43
9443.00,1.43
9442.00,1.44
9441.00,1.44
9440.00,1.44
9439.00,1.44
9438.00,1.44
9437.00,1.44
9436.00,1.44
9435.00,1.44
9434.00,1.45
9433.00,1.45
9432.00,1.45
9431.00,1.45
9430.00,1.45
9429.00,1.45
9428.00,1.45
9427.00,1.45
9426.00,1.45
9425.00,1.45
9424.00,1.45
9423.00,1.45
9422.00,1.44
9421.00,1.44
9420.00,1.44
9419.00,1.44
9418.00,1.44
9417.00,1.44
9416.00,1.44
9415.00,1.44
9414.00,1.44
9413.00,1.44
9412.00,1.44
9411.00,1.44
9410.00,1.44
9409.00,1.44
9408.00,1.44
9407.00,1.44
9406.00,1.44
9405.00,1.44
9404.00,1.44
9403.00,1.44
9402.00,1.44
9401.00,1.44
9400.00,1.44
9399.00,1.45
9398.00,1.45
9397.00,1.45
9396.00,1.45
9395.00,1.45
9394.00,1.45
9393.00,1.45
9392.00,1.45
9391.00,1.45
9390.00,1.45
9389.00,1.45
9388.00,1.45
9387.00,1.45
9386.00,1.45
9385.00,1.45
9384.00,1.45
9383.00,1.45
9382.00,1.45
9381.00,1.45
9380.00,1.45
9379.00,1.45
9378.00,1.45
9377.00,1.45
9376.00,1.45
9375.00,1.45
9374.00,1.45
9373.00,1.45
9372.00,1.45
9371.00,1.45
9370.00,1.45
9369.00,1.45
9368.00,1.45
9367.00,1.45
9366.00,1.45
9365.00,1.45
9364.00,1.45
9363.00,1.44
9362.00,1.44
9361.00,1.44
9360.00,1.44
9359.00,1.44
9358.00,1.44
9357.00,1.44
9356.00,1.44
9355.00,1.44
9354.00,1.44
9353.00,1.44
9352.00,1.44
9351.00,1.44
9350.00,1.44
9349.00,1.44
9348.00,1.44
9347.00,1.44
9346.00,1.44
9345.00,1.44
9344.00,1.44
9343.00,1.44
9342.00,1.44
9341.00,1.44
9340.00,1.44
9339.00,1.44
9338.00,1.44
9337.00,1.44
9336.00,1.44
9335.00,1.44
9334.00,1.44
9333.00,1.44
9332.00,1.44
9331.00,1.44
9330.00,1.44
9329.00,1.44
9328.00,1.44
9327.00,1.44
9326.00,1.44
9325.00,1.45
9324.00,1.45
9323.00,1.45
9322.00,1.45
9321.00,1.45
9320.00,1.45
9319.00,1.45
9318.00,1.45
9317.00,1.45
9316.00,1.45
9315.00,1.45
9314.00,1.45
9313.00,1.45
9312.00,1.45
9311.00,1.45
9310.00,1.45
9309.00,1.45
9308.00,1.45
9307.00,1.45
9306.00,1.45
9305.00,1.45
9304.00,1.45
9303.00,1.45
9302.00,1.45
9301.00,1.44
9300.00,1.44
9299.00,1.44
9298.00,1.44
9297.00,1.44
9296.00,1.44
9295.00,1.45
9294.00,1.45
9293.00,1.45
9292.00,1.45
9291.00,1.45
9290.00,1.45
9289.00,1.46
9288.00,1.46
9287.00,1.46
9286.00,1.46
9285.00,1.47
9284.00,1.47
9283.00,1.47
9282.00,1.47
9281.00,1.47
9280.00,1.47
9279.00,1.47
9278.00,1.47
9277.00,1.47
9276.00,1.47
9275.00,1.47
9274.00,1.47
9273.00,1.47
9272.00,1.46
9271.00,1.46
9270.00,1.46
9269.00,1.46
9268.00,1.45
9267.00,1.45
9266.00,1.45
9265.00,1.45
9264.00,1.44
9263.00,1.44
9262.00,1.44
9261.00,1.44
9260.00,1.44
9259.00,1.44
9258.00,1.44
9257.00,1.44
9256.00,1.44
9255.00,1.44
9254.00,1.44
9253.00,1.44
9252.00,1.44
9251.00,1.44
9250.00,1.44
9249.00,1.44
9248.00,1.44
9247.00,1.43
9246.00,1.43
9245.00,1.43
9244.00,1.43
9243.00,1.43
9242.00,1.43
9241.00,1.43
9240.00,1.43
9239.00,1.43
9238.00,1.43
9237.00,1.43
9236.00,1.43
9235.00,1.43
9234.00,1.43
9233.00,1.43
9232.00,1.43
9231.00,1.43
9230.00,1.43
9229.00,1.43
9228.00,1.43
9227.00,1.43
9226.00,1.44
9225.00,1.44
9224.00,1.44
9223.00,1.44
9222.00,1.44
9221.00,1.44
9220.00,1.44
9219.00,1.45
9218.00,1.45
9217.00,1.45
9216.00,1.45
9215.00,1.45
9214.00,1.45
9213.00,1.45
9212.00,1.45
9211.00,1.45
9210.00,1.45
9209.00,1.44
9208.00,1.44
9207.00,1.44
9206.00,1.44
9205.00,1.44
9204.00,1.44
9203.00,1.44
9202.00,1.44
9201.00,1.44
9200.00,1.44
9199.00,1.44
9198.00,1.44
9197.00,1.44
9196.00,1.44
9195.00,1.44
9194.00,1.45
9193.00,1.45
9192.00,1.45
9191.00,1.45
9190.00,1.45
9189.00,1.45
9188.00,1.46
9187.00,1.46
9186.00,1.46
9185.00,1.46
9184.00,1.46
9183.00,1.46
9182.00,1.46
9181.00,1.46
9180.00,1.46
9179.00,1.46
9178.00,1.46
9177.00,1.46
9176.00,1.46
9175.00,1.46
9174.00,1.46
9173.00,1.46
9172.00,1.46
9171.00,1.46
9170.00,1.46
9169.00,1.46
9168.00,1.46
9167.00,1.46
9166.00,1.46
9165.00,1.46
9164.00,1.46
9163.00,1.46
9162.00,1.46
9161.00,1.46
9160.00,1.46
9159.00,1.46
9158.00,1.46
9157.00,1.46
9156.00,1.46
9155.00,1.46
9154.00,1.46
9153.00,1.46
9152.00,1.46
9151.00,1.46
9150.00,1.45
9149.00,1.45
9148.00,1.45
9147.00,1.45
9146.00,1.45
9145.00,1.45
9144.00,1.45
9143.00,1.45
9142.00,1.45
9141.00,1.45
9140.00,1.44
9139.00,1.44
9138.00,1.44
9137.00,1.44
9136.00,1.44
9135.00,1.44
9134.00,1.43
9133.00,1.43
9132.00,1.43
9131.00,1.43
9130.00,1.43
9129.00,1.43
9128.00,1.43
9127.00,1.43
9126.00,1.43
9125.00,1.43
9124.00,1.43
9123.00,1.43
9122.00,1.43
9121.00,1.43
9120.00,1.43
9119.00,1.44
9118.00,1.44
9117.00,1.44
9116.00,1.44
9115.00,1.44
9114.00,1.45
9113.00,1.45
9112.00,1.45
9111.00,1.45
9110.00,1.45
9109.00,1.46
9108.00,1.46
9107.00,1.46
9106.00,1.46
9105.00,1.46
9104.00,1.46
9103.00,1.46
9102.00,1.46
9101.00,1.46
9100.00,1.46
9099.00,1.46
9098.00,1.46
9097.00,1.45
9096.00,1.45
9095.00,1.45
9094.00,1.45
9093.00,1.45
9092.00,1.45
9091.00,1.45
9090.00,1.45
9089.00,1.45
9088.00,1.45
9087.00,1.45
9086.00,1.45
9085.00,1.45
9084.00,1.45
9083.00,1.45
9082.00,1.45
9081.00,1.45
9080.00,1.45
9079.00,1.46
9078.00,1.46
9077.00,1.46
9076.00,1.46
9075.00,1.46
9074.00,1.46
9073.00,1.46
9072.00,1.46
9071.00,1.46
9070.00,1.46
9069.00,1.45
9068.00,1.45
9067.00,1.45
9066.00,1.45
9065.00,1.45
9064.00,1.45
9063.00,1.45
9062.00,1.45
9061.00,1.45
9060.00,1.45
9059.00,1.45
9058.00,1.45
9057.00,1.45
9056.00,1.45
9055.00,1.45
9054.00,1.45
9053.00,1.45
9052.00,1.45
9051.00,1.45
9050.00,1.45
9049.00,1.45
9048.00,1.45
9047.00,1.45
9046.00,1.45
9045.00,1.45
9044.00,1.45
9043.00,1.45
9042.00,1.45
9041.00,1.45
9040.00,1.45
9039.00,1.45
9038.00,1.45
9037.00,1.45
9036.00,1.45
9035.00,1.45
9034.00,1.45
9033.00,1.45
9032.00,1.45
9031.00,1.44
9030.00,1.44
9029.00,1.44
9028.00,1.44
9027.00,1.44
9026.00,1.44
9025.00,1.44
9024.00,1.44
9023.00,1.44
9022.00,1.44
9021.00,1.44
9020.00,1.44
9019.00,1.45
9018.00,1.45
9017.00,1.45
9016.00,1.45
9015.00,1.45
9014.00,1.45
9013.00,1.45
9012.00,1.45
9011.00,1.45
9010.00,1.45
9009.00,1.45
9008.00,1.45
9007.00,1.45
9006.00,1.45
9005.00,1.46
9004.00,1.46
9003.00,1.46
9002.00,1.46
9001.00,1.46
9000.00,1.46
8999.00,1.46
8998.00,1.46
8997.00,1.46
8996.00,1.46
8995.00,1.46
8994.00,1.46
8993.00,1.46
8992.00,1.46
8991.00,1.46
8990.00,1.46
8989.00,1.46
8988.00,1.46
8987.00,1.46
8986.00,1.46
8985.00,1.45
8984.00,1.45
8983.00,1.45
8982.00,1.45
8981.00,1.45
8980.00,1.45
8979.00,1.44
8978.00,1.44
8977.00,1.44
8976.00,1.44
8975.00,1.44
8974.00,1.44
8973.00,1.44
8972.00,1.44
8971.00,1.44
8970.00,1.44
8969.00,1.44
8968.00,1.44
8967.00,1.44
8966.00,1.44
8965.00,1.44
8964.00,1.44
8963.00,1.44
8962.00,1.44
8961.00,1.44
8960.00,1.45
8959.00,1.45
8958.00,1.45
8957.00,1.45
8956.00,1.45
8955.00,1.45
8954.00,1.45
8953.00,1.46
8952.00,1.46
8951.00,1.46
8950.00,1.46
8949.00,1.46
8948.00,1.46
8947.00,1.46
8946.00,1.46
8945.00,1.46
8944.00,1.46
8943.00,1.46
8942.00,1.46
8941.00,1.46
8940.00,1.46
8939.00,1.46
8938.00,1.46
8937.00,1.46
8936.00,1.46
8935.00,1.45
8934.00,1.45
8933.00,1.45
8932.00,1.45
8931.00,1.45
8930.00,1.45
8929.00,1.45
8928.00,1.45
8927.00,1.45
8926.00,1.45
8925.00,1.45
8924.00,1.45
8923.00,1.45
8922.00,1.45
8921.00,1.45
8920.00,1.45
8919.00,1.45
8918.00,1.45
8917.00,1.45
8916.00,1.45
8915.00,1.45
8914.00,1.44
8913.00,1.44
8912.00,1.44
8911.00,1.44
8910.00,1.44
8909.00,1.44
8908.00,1.44
8907.00,1.44
8906.00,1.44
8905.00,1.45
8904.00,1.45
8903.00,1.45
8902.00,1.45
8901.00,1.45
8900.00,1.45
8899.00,1.45
8898.00,1.45
8897.00,1.46
8896.00,1.46
8895.00,1.46
8894.00,1.46
8893.00,1.46
8892.00,1.46
8891.00,1.46
8890.00,1.46
8889.00,1.46
8888.00,1.46
8887.00,1.46
8886.00,1.46
8885.00,1.46
8884.00,1.46
8883.00,1.46
8882.00,1.46
8881.00,1.46
8880.00,1.46
8879.00,1.46
8878.00,1.46
8877.00,1.46
8876.00,1.46
8875.00,1.46
8874.00,1.46
8873.00,1.46
8872.00,1.46
8871.00,1.46
8870.00,1.46
8869.00,1.46
8868.00,1.46
8867.00,1.46
8866.00,1.46
8865.00,1.46
8864.00,1.46
8863.00,1.46
8862.00,1.46
8861.00,1.46
8860.00,1.46
8859.00,1.45
8858.00,1.45
8857.00,1.45
8856.00,1.45
8855.00,1.45
8854.00,1.45
8853.00,1.45
8852.00,1.45
8851.00,1.45
8850.00,1.44
8849.00,1.44
8848.00,1.44
8847.00,1.44
8846.00,1.44
8845.00,1.44
8844.00,1.44
8843.00,1.44
8842.00,1.44
8841.00,1.44
8840.00,1.44
8839.00,1.44
8838.00,1.44
8837.00,1.44
8836.00,1.44
8835.00,1.44
8834.00,1.44
8833.00,1.44
8832.00,1.44
8831.00,1.44
8830.00,1.44
8829.00,1.44
8828.00,1.44
8827.00,1.44
8826.00,1.44
8825.00,1.44
8824.00,1.44
8823.00,1.44
8822.00,1.44
8821.00,1.44
8820.00,1.44
8819.00,1.44
8818.00,1.43
8817.00,1.43
8816.00,1.43
8815.00,1.43
8814.00,1.43
8813.00,1.43
8812.00,1.43
8811.00,1.43
8810.00,1.43
8809.00,1.42
8808.00,1.42
8807.00,1.42
8806.00,1.42
8805.00,1.42
8804.00,1.42
8803.00,1.42
8802.00,1.42
8801.00,1.42
8800.00,1.42
8799.00,1.42
8798.00,1.42
8797.00,1.42
8796.00,1.42
8795.00,1.42
8794.00,1.42
8793.00,1.42
8792.00,1.42
8791.00,1.42
8790.00,1.42
8789.00,1.42
8788.00,1.42
8787.00,1.42
8786.00,1.42
8785.00,1.42
8784.00,1.42
8783.00,1.42
8782.00,1.41
8781.00,1.41
8780.00,1.41
8779.00,1.41
8778.00,1.41
8777.00,1.41
8776.00,1.41
8775.00,1.41
8774.00,1.41
8773.00,1.41
8772.00,1.41
8771.00,1.41
8770.00,1.41
8769.00,1.41
8768.00,1.42
8767.00,1.42
8766.00,1.42
8765.00,1.42
8764.00,1.42
8763.00,1.42
8762.00,1.42
8761.00,1.42
8760.00,1.42
8759.00,1.42
8758.00,1.42
8757.00,1.42
8756.00,1.42
8755.00,1.42
8754.00,1.42
8753.00,1.42
8752.00,1.42
8751.00,1.42
8750.00,1.42
8749.00,1.42
8748.00,1.42
8747.00,1.42
8746.00,1.41
8745.00,1.41
8744.00,1.41
8743.00,1.41
8742.00,1.41
8741.00,1.41
8740.00,1.41
8739.00,1.41
8738.00,1.41
8737.00,1.41
8736.00,1.41
8735.00,1.41
8734.00,1.40
8733.00,1.40
8732.00,1.40
8731.00,1.40
8730.00,1.40
8729.00,1.40
8728.00,1.39
8727.00,1.39
8726.00,1.39
8725.00,1.39
8724.00,1.39
8723.00,1.39
8722.00,1.39
8721.00,1.39
8720.00,1.39
8719.00,1.39
8718.00,1.39
8717.00,1.39
8716.00,1.40
8715.00,1.40
8714.00,1.40
8713.00,1.40
8712.00,1.40
8711.00,1.40
8710.00,1.40
8709.00,1.40
8708.00,1.40
8707.00,1.40
8706.00,1.40
8705.00,1.40
8704.00,1.40
8703.00,1.40
8702.00,1.40
8701.00,1.40
8700.00,1.40
8699.00,1.40
8698.00,1.40
8697.00,1.40
8696.00,1.39
8695.00,1.39
8694.00,1.39
8693.00,1.39
8692.00,1.39
8691.00,1.39
8690.00,1.39
8689.00,1.39
8688.00,1.39
8687.00,1.39
8686.00,1.39
8685.00,1.39
8684.00,1.39
8683.00,1.39
8682.00,1.39
8681.00,1.39
8680.00,1.39
8679.00,1.40
8678.00,1.40
8677.00,1.40
8676.00,1.40
8675.00,1.40
8674.00,1.39
8673.00,1.39
8672.00,1.39
8671.00,1.39
8670.00,1.39
8669.00,1.39
8668.00,1.39
8667.00,1.39
8666.00,1.39
8665.00,1.39
8664.00,1.39
8663.00,1.39
8662.00,1.39
8661.00,1.38
8660.00,1.38
8659.00,1.38
8658.00,1.39
8657.00,1.39
8656.00,1.39
8655.00,1.39
8654.00,1.39
8653.00,1.39
8652.00,1.39
8651.00,1.39
8650.00,1.39
8649.00,1.39
8648.00,1.39
8647.00,1.39
8646.00,1.39
8645.00,1.39
8644.00,1.38
8643.00,1.38
8642.00,1.38
8641.00,1.38
8640.00,1.38
8639.00,1.38
8638.00,1.38
8637.00,1.38
8636.00,1.38
8635.00,1.37
8634.00,1.37
8633.00,1.37
8632.00,1.37
8631.00,1.37
8630.00,1.37
8629.00,1.37
8628.00,1.37
8627.00,1.37
8626.00,1.36
8625.00,1.36
8624.00,1.36
8623.00,1.36
8622.00,1.36
8621.00,1.36
8620.00,1.36
8619.00,1.36
8618.00,1.36
8617.00,1.36
8616.00,1.36
8615.00,1.36
8614.00,1.36
8613.00,1.36
8612.00,1.36
8611.00,1.37
8610.00,1.37
8609.00,1.37
8608.00,1.37
8607.00,1.37
8606.00,1.37
8605.00,1.37
8604.00,1.37
8603.00,1.37
8602.00,1.37
8601.00,1.37
8600.00,1.37
8599.00,1.37
8598.00,1.37
8597.00,1.37
8596.00,1.37
8595.00,1.37
8594.00,1.37
8593.00,1.37
8592.00,1.37
8591.00,1.37
8590.00,1.37
8589.00,1.37
8588.00,1.37
8587.00,1.37
8586.00,1.37
8585.00,1.37
8584.00,1.37
8583.00,1.37
8582.00,1.37
8581.00,1.37
8580.00,1.37
8579.00,1.36
8578.00,1.36
8577.00,1.36
8576.00,1.36
8575.00,1.36
8574.00,1.36
8573.00,1.36
8572.00,1.36
8571.00,1.36
8570.00,1.36
8569.00,1.36
8568.00,1.35
8567.00,1.35
8566.00,1.35
8565.00,1.35
8564.00,1.35
8563.00,1.35
8562.00,1.35
8561.00,1.35
8560.00,1.35
8559.00,1.35
8558.00,1.35
8557.00,1.35
8556.00,1.35
8555.00,1.35
8554.00,1.35
8553.00,1.35
8552.00,1.35
8551.00,1.35
8550.00,1.35
8549.00,1.35
8548.00,1.35
8547.00,1.35
8546.00,1.34
8545.00,1.34
8544.00,1.34
8543.00,1.34
8542.00,1.34
8541.00,1.34
8540.00,1.34
8539.00,1.34
8538.00,1.34
8537.00,1.34
8536.00,1.34
8535.00,1.34
8534.00,1.34
8533.00,1.34
8532.00,1.34
8531.00,1.34
8530.00,1.34
8529.00,1.34
8528.00,1.34
8527.00,1.34
8526.00,1.34
8525.00,1.34
8524.00,1.34
8523.00,1.34
8522.00,1.34
8521.00,1.34
8520.00,1.34
8519.00,1.34
8518.00,1.34
8517.00,1.33
8516.00,1.33
8515.00,1.33
8514.00,1.33
8513.00,1.33
8512.00,1.32
8511.00,1.32
8510.00,1.32
8509.00,1.32
8508.00,1.32
8507.00,1.32
8506.00,1.31
8505.00,1.31
8504.00,1.31
8503.00,1.31
8502.00,1.31
8501.00,1.31
8500.00,1.31
8499.00,1.31
8498.00,1.31
8497.00,1.31
8496.00,1.31
8495.00,1.31
8494.00,1.31
8493.00,1.31
8492.00,1.31
8491.00,1.31
8490.00,1.31
8489.00,1.31
8488.00,1.31
8487.00,1.31
8486.00,1.30
8485.00,1.30
8484.00,1.30
8483.00,1.30
8482.00,1.30
8481.00,1.30
8480.00,1.30
8479.00,1.30
8478.00,1.30
8477.00,1.30
8476.00,1.30
8475.00,1.30
8474.00,1.30
8473.00,1.30
8472.00,1.30
8471.00,1.30
8470.00,1.30
8469.00,1.30
8468.00,1.30
8467.00,1.29
8466.00,1.29
8465.00,1.29
8464.00,1.29
8463.00,1.29
8462.00,1.29
8461.00,1.29
8460.00,1.29
8459.00,1.28
8458.00,1.28
8457.00,1.28
8456.00,1.28
8455.00,1.28
8454.00,1.28
8453.00,1.28
8452.00,1.28
8451.00,1.28
8450.00,1.27
8449.00,1.27
8448.00,1.27
8447.00,1.27
8446.00,1.27
8445.00,1.28
8444.00,1.28
8443.00,1.28
8442.00,1.28
8441.00,1.28
8440.00,1.28
8439.00,1.28
8438.00,1.28
8437.00,1.28
8436.00,1.28
8435.00,1.28
8434.00,1.28
8433.00,1.28
8432.00,1.28
8431.00,1.27
8430.00,1.27
8429.00,1.27
8428.00,1.27
8427.00,1.27
8426.00,1.27
8425.00,1.27
8424.00,1.27
8423.00,1.27
8422.00,1.27
8421.00,1.27
8420.00,1.27
8419.00,1.27
8418.00,1.27
8417.00,1.27
8416.00,1.27
8415.00,1.27
8414.00,1.27
8413.00,1.27
8412.00,1.27
8411.00,1.28
8410.00,1.28
8409.00,1.28
8408.00,1.28
8407.00,1.28
8406.00,1.28
8405.00,1.28
8404.00,1.28
8403.00,1.28
8402.00,1.29
8401.00,1.29
8400.00,1.29
8399.00,1.29
8398.00,1.29
8397.00,1.29
8396.00,1.29
8395.00,1.30
8394.00,1.30
8393.00,1.30
8392.00,1.30
8391.00,1.30
8390.00,1.30
8389.00,1.30
8388.00,1.30
8387.00,1.30
8386.00,1.30
8385.00,1.30
8384.00,1.30
8383.00,1.30
8382.00,1.30
8381.00,1.30
8380.00,1.30
8379.00,1.31
8378.00,1.31
8377.00,1.31
8376.00,1.31
8375.00,1.31
8374.00,1.31
8373.00,1.31
8372.00,1.31
8371.00,1.31
8370.00,1.31
8369.00,1.31
8368.00,1.32
8367.00,1.32
8366.00,1.32
8365.00,1.32
8364.00,1.32
8363.00,1.32
8362.00,1.32
8361.00,1.33
8360.00,1.33
8359.00,1.33
8358.00,1.33
8357.00,1.33
8356.00,1.33
8355.00,1.33
8354.00,1.33
8353.00,1.33
8352.00,1.32
8351.00,1.32
8350.00,1.32
8349.00,1.32
8348.00,1.32
8347.00,1.32
8346.00,1.32
8345.00,1.32
8344.00,1.32
8343.00,1.32
8342.00,1.32
8341.00,1.32
8340.00,1.32
8339.00,1.32
8338.00,1.32
8337.00,1.32
8336.00,1.32
8335.00,1.32
8334.00,1.32
8333.00,1.32
8332.00,1.32
8331.00,1.32
8330.00,1.32
8329.00,1.32
8328.00,1.32
8327.00,1.32
8326.00,1.32
8325.00,1.32
8324.00,1.32
8323.00,1.32
8322.00,1.32
8321.00,1.32
8320.00,1.32
8319.00,1.32
8318.00,1.32
8317.00,1.32
8316.00,1.32
8315.00,1.32
8314.00,1.33
8313.00,1.33
8312.00,1.33
8311.00,1.33
8310.00,1.33
8309.00,1.33
8308.00,1.33
8307.00,1.33
8306.00,1.33
8305.00,1.33
8304.00,1.33
8303.00,1.33
8302.00,1.33
8301.00,1.33
8300.00,1.33
8299.00,1.33
8298.00,1.33
8297.00,1.33
8296.00,1.33
8295.00,1.33
8294.00,1.33
8293.00,1.33
8292.00,1.33
8291.00,1.33
8290.00,1.33
8289.00,1.34
8288.00,1.34
8287.00,1.34
8286.00,1.34
8285.00,1.34
8284.00,1.34
8283.00,1.34
8282.00,1.34
8281.00,1.34
8280.00,1.34
8279.00,1.34
8278.00,1.34
8277.00,1.34
8276.00,1.34
8275.00,1.34
8274.00,1.34
8273.00,1.34
8272.00,1.34
8271.00,1.34
8270.00,1.34
8269.00,1.34
8268.00,1.34
8267.00,1.34
8266.00,1.34
8265.00,1.34
8264.00,1.34
8263.00,1.34
8262.00,1.34
8261.00,1.34
8260.00,1.34
8259.00,1.34
8258.00,1.34
8257.00,1.35
8256.00,1.35
8255.00,1.35
8254.00,1.35
8253.00,1.35
8252.00,1.35
8251.00,1.35
8250.00,1.35
8249.00,1.35
8248.00,1.35
8247.00,1.35
8246.00,1.35
8245.00,1.35
8244.00,1.35
8243.00,1.35
8242.00,1.35
8241.00,1.35
8240.00,1.36
8239.00,1.36
8238.00,1.36
8237.00,1.36
8236.00,1.36
8235.00,1.36
8234.00,1.36
8233.00,1.36
8232.00,1.36
8231.00,1.36
8230.00,1.36
8229.00,1.36
8228.00,1.36
8227.00,1.37
8226.00,1.37
8225.00,1.37
8224.00,1.37
8223.00,1.37
8222.00,1.37
8221.00,1.37
8220.00,1.37
8219.00,1.37
8218.00,1.37
8217.00,1.36
8216.00,1.36
8215.00,1.36
8214.00,1.36
8213.00,1.36
8212.00,1.36
8211.00,1.36
8210.00,1.36
8209.00,1.36
8208.00,1.36
8207.00,1.36
8206.00,1.36
8205.00,1.36
8204.00,1.36
8203.00,1.36
8202.00,1.36
8201.00,1.35
8200.00,1.35
8199.00,1.35
8198.00,1.35
8197.00,1.36
8196.00,1.36
8195.00,1.36
8194.00,1.36
8193.00,1.36
8192.00,1.36
8191.00,1.36
8190.00,1.36
8189.00,1.36
8188.00,1.36
8187.00,1.36
8186.00,1.36
8185.00,1.36
8184.00,1.36
8183.00,1.36
8182.00,1.36
8181.00,1.36
8180.00,1.36
8179.00,1.36
8178.00,1.36
8177.00,1.36
8176.00,1.36
8175.00,1.36
8174.00,1.36
8173.00,1.36
8172.00,1.36
8171.00,1.36
8170.00,1.36
8169.00,1.36
8168.00,1.36
8167.00,1.36
8166.00,1.37
8165.00,1.37
8164.00,1.37
8163.00,1.37
8162.00,1.37
8161.00,1.37
8160.00,1.37
8159.00,1.37
8158.00,1.38
8157.00,1.38
8156.00,1.38
8155.00,1.38
8154.00,1.38
8153.00,1.38
8152.00,1.38
8151.00,1.38
8150.00,1.38
8149.00,1.38
8148.00,1.39
8147.00,1.39
8146.00,1.39
8145.00,1.39
8144.00,1.39
8143.00,1.39
8142.00,1.39
8141.00,1.39
8140.00,1.39
8139.00,1.39
8138.00,1.39
8137.00,1.39
8136.00,1.40
8135.00,1.40
8134.00,1.40
8133.00,1.40
8132.00,1.40
8131.00,1.40
8130.00,1.40
8129.00,1.39
8128.00,1.39
8127.00,1.39
8126.00,1.39
8125.00,1.39
8124.00,1.39
8123.00,1.39
8122.00,1.39
8121.00,1.39
8120.00,1.39
8119.00,1.39
8118.00,1.39
8117.00,1.39
8116.00,1.39
8115.00,1.39
8114.00,1.39
8113.00,1.39
8112.00,1.39
8111.00,1.39
8110.00,1.39
8109.00,1.40
8108.00,1.40
8107.00,1.40
8106.00,1.40
8105.00,1.40
8104.00,1.40
8103.00,1.40
8102.00,1.40
8101.00,1.41
8100.00,1.41
8099.00,1.41
8098.00,1.41
8097.00,1.41
8096.00,1.41
8095.00,1.41
8094.00,1.41
8093.00,1.41
8092.00,1.41
8091.00,1.41
8090.00,1.41
8089.00,1.41
8088.00,1.41
8087.00,1.41
8086.00,1.41
8085.00,1.41
8084.00,1.41
8083.00,1.40
8082.00,1.40
8081.00,1.40
8080.00,1.40
8079.00,1.40
8078.00,1.40
8077.00,1.40
8076.00,1.40
8075.00,1.40
8074.00,1.40
8073.00,1.40
8072.00,1.40
8071.00,1.40
8070.00,1.40
8069.00,1.40
8068.00,1.40
8067.00,1.41
8066.00,1.41
8065.00,1.41
8064.00,1.41
8063.00,1.41
8062.00,1.41
8061.00,1.41
8060.00,1.41
8059.00,1.41
8058.00,1.41
8057.00,1.41
8056.00,1.41
8055.00,1.41
8054.00,1.42
8053.00,1.42
8052.00,1.42
8051.00,1.42
8050.00,1.42
8049.00,1.42
8048.00,1.42
8047.00,1.42
8046.00,1.42
8045.00,1.42
8044.00,1.42
8043.00,1.42
8042.00,1.42
8041.00,1.42
8040.00,1.42
8039.00,1.42
8038.00,1.42
8037.00,1.42
8036.00,1.42
8035.00,1.42
8034.00,1.42
8033.00,1.42
8032.00,1.42
8031.00,1.42
8030.00,1.42
8029.00,1.43
8028.00,1.43
8027.00,1.43
8026.00,1.43
8025.00,1.43
8024.00,1.43
8023.00,1.43
8022.00,1.43
8021.00,1.43
8020.00,1.43
8019.00,1.43
8018.00,1.43
8017.00,1.43
8016.00,1.43
8015.00,1.43
8014.00,1.43
8013.00,1.43
8012.00,1.43
8011.00,1.43
8010.00,1.43
8009.00,1.43
8008.00,1.43
8007.00,1.43
8006.00,1.43
8005.00,1.43
8004.00,1.43
8003.00,1.43
8002.00,1.43
8001.00,1.43
8000.00,1.42
7999.00,1.42
7998.00,1.42
7997.00,1.42
7996.00,1.42
7995.00,1.42
7994.00,1.42
7993.00,1.42
7992.00,1.42
7991.00,1.42
7990.00,1.42
7989.00,1.42
7988.00,1.42
7987.00,1.42
7986.00,1.43
7985.00,1.43
7984.00,1.43
7983.00,1.43
7982.00,1.43
7981.00,1.43
7980.00,1.43
7979.00,1.43
7978.00,1.43
7977.00,1.43
7976.00,1.43
7975.00,1.44
7974.00,1.44
7973.00,1.44
7972.00,1.44
7971.00,1.44
7970.00,1.44
7969.00,1.44
7968.00,1.44
7967.00,1.44
7966.00,1.44
7965.00,1.44
7964.00,1.44
7963.00,1.44
7962.00,1.44
7961.00,1.44
7960.00,1.44
7959.00,1.44
7958.00,1.44
7957.00,1.44
7956.00,1.44
7955.00,1.44
7954.00,1.44
7953.00,1.44
7952.00,1.44
7951.00,1.44
7950.00,1.44
7949.00,1.44
7948.00,1.44
7947.00,1.44
7946.00,1.44
7945.00,1.44
7944.00,1.44
7943.00,1.44
7942.00,1.44
7941.00,1.44
7940.00,1.44
7939.00,1.44
7938.00,1.44
7937.00,1.44
7936.00,1.44
7935.00,1.44
7934.00,1.44
7933.00,1.44
7932.00,1.44
7931.00,1.43
7930.00,1.43
7929.00,1.43
7928.00,1.43
7927.00,1.43
7926.00,1.43
7925.00,1.43
7924.00,1.43
7923.00,1.43
7922.00,1.43
7921.00,1.43
7920.00,1.43
7919.00,1.43
7918.00,1.43
7917.00,1.43
7916.00,1.43
7915.00,1.43
7914.00,1.43
7913.00,1.43
7912.00,1.44
7911.00,1.44
7910.00,1.44
7909.00,1.44
7908.00,1.44
7907.00,1.44
7906.00,1.44
7905.00,1.44
7904.00,1.44
7903.00,1.45
7902.00,1.45
7901.00,1.45
7900.00,1.45
7899.00,1.45
7898.00,1.45
7897.00,1.45
7896.00,1.45
7895.00,1.45
7894.00,1.45
7893.00,1.45
7892.00,1.45
7891.00,1.45
7890.00,1.45
7889.00,1.45
7888.00,1.45
7887.00,1.45
7886.00,1.45
7885.00,1.45
7884.00,1.45
7883.00,1.45
7882.00,1.45
7881.00,1.45
7880.00,1.45
7879.00,1.45
7878.00,1.45
7877.00,1.45
7876.00,1.45
7875.00,1.45
7874.00,1.45
7873.00,1.45
7872.00,1.45
7871.00,1.45
7870.00,1.45
7869.00,1.45
7868.00,1.45
7867.00,1.45
7866.00,1.45
7865.00,1.45
7864.00,1.45
7863.00,1.45
7862.00,1.45
7861.00,1.45
7860.00,1.45
7859.00,1.45
7858.00,1.45
7857.00,1.45
7856.00,1.45
7855.00,1.45
7854.00,1.45
7853.00,1.45
7852.00,1.45
7851.00,1.45
7850.00,1.45
7849.00,1.46
7848.00,1.46
7847.00,1.46
7846.00,1.46
7845.00,1.46
7844.00,1.46
7843.00,1.46
7842.00,1.46
7841.00,1.46
7840.00,1.46
7839.00,1.46
7838.00,1.46
7837.00,1.46
7836.00,1.46
7835.00,1.46
7834.00,1.46
7833.00,1.46
7832.00,1.46
7831.00,1.46
7830.00,1.45
7829.00,1.45
7828.00,1.45
7827.00,1.45
7826.00,1.45
7825.00,1.46
7824.00,1.46
7823.00,1.46
7822.00,1.46
7821.00,1.46
7820.00,1.46
7819.00,1.46
7818.00,1.46
7817.00,1.46
7816.00,1.46
7815.00,1.46
7814.00,1.46
7813.00,1.46
7812.00,1.46
7811.00,1.46
7810.00,1.46
7809.00,1.46
7808.00,1.46
7807.00,1.46
7806.00,1.46
7805.00,1.46
7804.00,1.46
7803.00,1.46
7802.00,1.46
7801.00,1.46
7800.00,1.46
7799.00,1.46
7798.00,1.46
7797.00,1.46
7796.00,1.46
7795.00,1.46
7794.00,1.46
7793.00,1.46
7792.00,1.46
7791.00,1.46
7790.00,1.46
7789.00,1.46
7788.00,1.46
7787.00,1.46
7786.00,1.46
7785.00,1.46
7784.00,1.46
7783.00,1.46
7782.00,1.46
7781.00,1.46
7780.00,1.46
7779.00,1.46
7778.00,1.46
7777.00,1.46
7776.00,1.46
7775.00,1.46
7774.00,1.46
7773.00,1.46
7772.00,1.46
7771.00,1.46
7770.00,1.46
7769.00,1.46
7768.00,1.46
7767.00,1.46
7766.00,1.46
7765.00,1.46
7764.00,1.46
7763.00,1.46
7762.00,1.46
7761.00,1.46
7760.00,1.46
7759.00,1.46
7758.00,1.46
7757.00,1.46
7756.00,1.46
7755.00,1.46
7754.00,1.46
7753.00,1.46
7752.00,1.46
7751.00,1.47
7750.00,1.47
7749.00,1.47
7748.00,1.47
7747.00,1.47
7746.00,1.47
7745.00,1.47
7744.00,1.47
7743.00,1.47
7742.00,1.47
7741.00,1.47
7740.00,1.47
7739.00,1.47
7738.00,1.47
7737.00,1.47
7736.00,1.47
7735.00,1.47
7734.00,1.47
7733.00,1.47
7732.00,1.47
7731.00,1.47
7730.00,1.47
7729.00,1.47
7728.00,1.47
7727.00,1.47
7726.00,1.46
7725.00,1.46
7724.00,1.46
7723.00,1.46
7722.00,1.46
7721.00,1.46
7720.00,1.46
7719.00,1.46
7718.00,1.46
7717.00,1.46
7716.00,1.46
7715.00,1.46
7714.00,1.46
7713.00,1.46
7712.00,1.47
7711.00,1.47
7710.00,1.47
7709.00,1.47
7708.00,1.47
7707.00,1.47
7706.00,1.47
7705.00,1.47
7704.00,1.47
7703.00,1.47
7702.00,1.47
7701.00,1.47
7700.00,1.47
7699.00,1.47
7698.00,1.47
7697.00,1.48
7696.00,1.48
7695.00,1.48
7694.00,1.48
7693.00,1.48
7692.00,1.48
7691.00,1.48
7690.00,1.48
7689.00,1.47
7688.00,1.47
7687.00,1.47
7686.00,1.47
7685.00,1.47
7684.00,1.47
7683.00,1.47
7682.00,1.47
7681.00,1.47
7680.00,1.47
7679.00,1.47
7678.00,1.47
7677.00,1.47
7676.00,1.47
7675.00,1.47
7674.00,1.47
7673.00,1.47
7672.00,1.47
7671.00,1.47
7670.00,1.47
7669.00,1.47
7668.00,1.47
7667.00,1.47
7666.00,1.47
7665.00,1.47
7664.00,1.47
7663.00,1.47
7662.00,1.47
7661.00,1.47
7660.00,1.47
7659.00,1.47
7658.00,1.47
7657.00,1.47
7656.00,1.47
7655.00,1.47
7654.00,1.47
7653.00,1.47
7652.00,1.47
7651.00,1.47
7650.00,1.47
7649.00,1.47
7648.00,1.47
7647.00,1.47
7646.00,1.47
7645.00,1.47
7644.00,1.47
7643.00,1.47
7642.00,1.47
7641.00,1.47
7640.00,1.47
7639.00,1.47
7638.00,1.47
7637.00,1.47
7636.00,1.47
7635.00,1.47
7634.00,1.47
7633.00,1.47
7632.00,1.47
7631.00,1.47
7630.00,1.47
7629.00,1.47
7628.00,1.47
7627.00,1.47
7626.00,1.47
7625.00,1.47
7624.00,1.47
7623.00,1.47
7622.00,1.47
7621.00,1.47
7620.00,1.47
7619.00,1.47
7618.00,1.47
7617.00,1.47
7616.00,1.47
7615.00,1.47
7614.00,1.47
7613.00,1.47
7612.00,1.48
7611.00,1.48
7610.00,1.48
7609.00,1.48
7608.00,1.48
7607.00,1.48
7606.00,1.48
7605.00,1.48
7604.00,1.48
7603.00,1.47
7602.00,1.47
7601.00,1.47
7600.00,1.47
7599.00,1.47
7598.00,1.47
7597.00,1.47
7596.00,1.47
7595.00,1.47
7594.00,1.47
7593.00,1.47
7592.00,1.47
7591.00,1.47
7590.00,1.47
7589.00,1.47
7588.00,1.47
7587.00,1.47
7586.00,1.46
7585.00,1.46
7584.00,1.46
7583.00,1.46
7582.00,1.46
7581.00,1.46
7580.00,1.46
7579.00,1.46
7578.00,1.46
7577.00,1.46
7576.00,1.46
7575.00,1.47
7574.00,1.47
7573.00,1.47
7572.00,1.47
7571.00,1.46
7570.00,1.46
7569.00,1.46
7568.00,1.46
7567.00,1.46
7566.00,1.46
7565.00,1.46
7564.00,1.46
7563.00,1.46
7562.00,1.46
7561.00,1.46
7560.00,1.46
7559.00,1.46
7558.00,1.46
7557.00,1.46
7556.00,1.46
7555.00,1.46
7554.00,1.46
7553.00,1.46
7552.00,1.46
7551.00,1.46
7550.00,1.46
7549.00,1.47
7548.00,1.47
7547.00,1.47
7546.00,1.47
7545.00,1.47
7544.00,1.47
7543.00,1.47
7542.00,1.47
7541.00,1.47
7540.00,1.47
7539.00,1.47
7538.00,1.47
7537.00,1.47
7536.00,1.47
7535.00,1.47
7534.00,1.47
7533.00,1.47
7532.00,1.47
7531.00,1.47
7530.00,1.47
7529.00,1.47
7528.00,1.46
7527.00,1.46
7526.00,1.46
7525.00,1.46
7524.00,1.46
7523.00,1.46
7522.00,1.46
7521.00,1.46
7520.00,1.46
7519.00,1.46
7518.00,1.46
7517.00,1.46
7516.00,1.46
7515.00,1.46
7514.00,1.46
7513.00,1.46
7512.00,1.46
7511.00,1.46
7510.00,1.46
7509.00,1.46
7508.00,1.46
7507.00,1.46
7506.00,1.46
7505.00,1.46
7504.00,1.46
7503.00,1.45
7502.00,1.45
7501.00,1.45
7500.00,1.45
7499.00,1.45
7498.00,1.45
7497.00,1.45
7496.00,1.45
7495.00,1.45
7494.00,1.45
7493.00,1.45
7492.00,1.45
7491.00,1.45
7490.00,1.44
7489.00,1.44
7488.00,1.44
7487.00,1.44
7486.00,1.44
7485.00,1.44
7484.00,1.44
7483.00,1.44
7482.00,1.44
7481.00,1.44
7480.00,1.44
7479.00,1.44
7478.00,1.44
7477.00,1.44
7476.00,1.44
7475.00,1.44
7474.00,1.44
7473.00,1.44
7472.00,1.44
7471.00,1.43
7470.00,1.43
7469.00,1.43
7468.00,1.43
7467.00,1.43
7466.00,1.43
7465.00,1.43
7464.00,1.43
7463.00,1.43
7462.00,1.43
7461.00,1.43
7460.00,1.43
7459.00,1.43
7458.00,1.43
7457.00,1.43
7456.00,1.43
7455.00,1.43
7454.00,1.43
7453.00,1.43
7452.00,1.43
7451.00,1.43
7450.00,1.42
7449.00,1.42
7448.00,1.42
7447.00,1.42
7446.00,1.42
7445.00,1.42
7444.00,1.42
7443.00,1.42
7442.00,1.42
7441.00,1.41
7440.00,1.41
7439.00,1.41
7438.00,1.41
7437.00,1.41
7436.00,1.41
7435.00,1.41
7434.00,1.41
7433.00,1.41
7432.00,1.41
7431.00,1.41
7430.00,1.41
7429.00,1.41
7428.00,1.41
7427.00,1.41
7426.00,1.41
7425.00,1.41
7424.00,1.41
7423.00,1.41
7422.00,1.41
7421.00,1.41
7420.00,1.41
7419.00,1.41
7418.00,1.41
7417.00,1.41
7416.00,1.41
7415.00,1.41
7414.00,1.41
7413.00,1.41
7412.00,1.41
7411.00,1.40
7410.00,1.40
7409.00,1.40
7408.00,1.40
7407.00,1.40
7406.00,1.40
7405.00,1.39
7404.00,1.39
7403.00,1.39
7402.00,1.39
7401.00,1.39
7400.00,1.39
7399.00,1.38
7398.00,1.38
7397.00,1.38
7396.00,1.38
7395.00,1.38
7394.00,1.37
7393.00,1.37
7392.00,1.37
7391.00,1.37
7390.00,1.37
7389.00,1.37
7388.00,1.36
7387.00,1.36
7386.00,1.36
7385.00,1.36
7384.00,1.36
7383.00,1.36
7382.00,1.36
7381.00,1.35
7380.00,1.35
7379.00,1.35
7378.00,1.35
7377.00,1.35
7376.00,1.35
7375.00,1.35
7374.00,1.35
7373.00,1.35
7372.00,1.35
7371.00,1.35
7370.00,1.35
7369.00,1.35
7368.00,1.35
7367.00,1.35
7366.00,1.36
7365.00,1.36
7364.00,1.36
7363.00,1.36
7362.00,1.36
7361.00,1.36
7360.00,1.36
7359.00,1.36
7358.00,1.36
7357.00,1.36
7356.00,1.36
7355.00,1.36
7354.00,1.36
7353.00,1.36
7352.00,1.35
7351.00,1.35
7350.00,1.35
7349.00,1.35
7348.00,1.35
7347.00,1.35
7346.00,1.35
7345.00,1.35
7344.00,1.35
7343.00,1.35
7342.00,1.35
7341.00,1.35
7340.00,1.35
7339.00,1.35
7338.00,1.35
7337.00,1.35
7336.00,1.35
7335.00,1.35
7334.00,1.35
7333.00,1.35
7332.00,1.35
7331.00,1.35
7330.00,1.35
7329.00,1.35
7328.00,1.34
7327.00,1.34
7326.00,1.34
7325.00,1.34
7324.00,1.34
7323.00,1.34
7322.00,1.34
7321.00,1.34
7320.00,1.34
7319.00,1.34
7318.00,1.34
7317.00,1.34
7316.00,1.34
7315.00,1.34
7314.00,1.34
7313.00,1.34
7312.00,1.34
7311.00,1.34
7310.00,1.34
7309.00,1.34
7308.00,1.33
7307.00,1.33
7306.00,1.33
7305.00,1.33
7304.00,1.33
7303.00,1.33
7302.00,1.33
7301.00,1.33
7300.00,1.33
7299.00,1.33
7298.00,1.33
7297.00,1.32
7296.00,1.32
7295.00,1.32
7294.00,1.32
7293.00,1.32
7292.00,1.32
7291.00,1.31
7290.00,1.31
7289.00,1.31
7288.00,1.31
7287.00,1.31
7286.00,1.30
7285.00,1.30
7284.00,1.30
7283.00,1.30
7282.00,1.29
7281.00,1.29
7280.00,1.29
7279.00,1.29
7278.00,1.29
7277.00,1.29
7276.00,1.28
7275.00,1.28
7274.00,1.28
7273.00,1.28
7272.00,1.28
7271.00,1.28
7270.00,1.28
7269.00,1.28
7268.00,1.28
7267.00,1.28
7266.00,1.28
7265.00,1.28
7264.00,1.28
7263.00,1.27
7262.00,1.27
7261.00,1.27
7260.00,1.27
7259.00,1.27
7258.00,1.27
7257.00,1.27
7256.00,1.27
7255.00,1.27
7254.00,1.27
7253.00,1.26
7252.00,1.26
7251.00,1.26
7250.00,1.26
7249.00,1.25
7248.00,1.25
7247.00,1.25
7246.00,1.25
7245.00,1.24
7244.00,1.24
7243.00,1.24
7242.00,1.23
7241.00,1.23
7240.00,1.22
7239.00,1.22
7238.00,1.22
7237.00,1.21
7236.00,1.21
7235.00,1.21
7234.00,1.21
7233.00,1.20
7232.00,1.20
7231.00,1.20
7230.00,1.19
7229.00,1.19
7228.00,1.19
7227.00,1.18
7226.00,1.18
7225.00,1.18
7224.00,1.18
7223.00,1.17
7222.00,1.17
7221.00,1.17
7220.00,1.16
7219.00,1.16
7218.00,1.16
7217.00,1.15
7216.00,1.15
7215.00,1.15
7214.00,1.14
7213.00,1.14
7212.00,1.14
7211.00,1.13
7210.00,1.13
7209.00,1.13
7208.00,1.12
7207.00,1.12
7206.00,1.11
7205.00,1.11
7204.00,1.11
7203.00,1.10
7202.00,1.10
7201.00,1.10
7200.00,1.09
7199.00,1.09
7198.00,1.09
7197.00,1.08
7196.00,1.08
7195.00,1.08
7194.00,1.07
7193.00,1.07
7192.00,1.07
7191.00,1.06
7190.00,1.06
7189.00,1.06
7188.00,1.05
7187.00,1.05
7186.00,1.05
7185.00,1.04
7184.00,1.04
7183.00,1.04
7182.00,1.04
7181.00,1.03
7180.00,1.03
7179.00,1.03
7178.00,1.03
7177.00,1.02
7176.00,1.02
7175.00,1.02
7174.00,1.02
7173.00,1.01
7172.00,1.01
7171.00,1.01
7170.00,1.01
7169.00,1.00
7168.00,1.00
7167.00,1.00
7166.00,1.00
7165.00,0.99
7164.00,0.99
7163.00,0.99
7162.00,0.99
7161.00,0.98
7160.00,0.98
7159.00,0.98
7158.00,0.98
7157.00,0.97
7156.00,0.97
7155.00,0.97
7154.00,0.96
7153.00,0.96
7152.00,0.96
7151.00,0.96
7150.00,0.95
7149.00,0.95
7148.00,0.95
7147.00,0.94
7146.00,0.94
7145.00,0.94
7144.00,0.94
7143.00,0.93
7142.00,0.93
7141.00,0.93
7140.00,0.93
7139.00,0.93
7138.00,0.92
7137.00,0.92
7136.00,0.92
7135.00,0.92
7134.00,0.91
7133.00,0.91
7132.00,0.91
7131.00,0.91
7130.00,0.90
7129.00,0.90
7128.00,0.90
7127.00,0.90
7126.00,0.89
7125.00,0.89
7124.00,0.89
7123.00,0.89
7122.00,0.88
7121.00,0.88
7120.00,0.88
7119.00,0.87
7118.00,0.87
7117.00,0.87
7116.00,0.87
7115.00,0.86
7114.00,0.86
7113.00,0.86
7112.00,0.85
7111.00,0.85
7110.00,0.85
7109.00,0.85
7108.00,0.84
7107.00,0.84
7106.00,0.84
7105.00,0.84
7104.00,0.83
7103.00,0.83
7102.00,0.83
7101.00,0.82
7100.00,0.82
7099.00,0.82
7098.00,0.82
7097.00,0.81
7096.00,0.81
7095.00,0.81
7094.00,0.80
7093.00,0.80
7092.00,0.80
7091.00,0.80
7090.00,0.79
7089.00,0.79
7088.00,0.79
7087.00,0.79
7086.00,0.79
7085.00,0.79
7084.00,0.78
7083.00,0.78
7082.00,0.78
7081.00,0.78
7080.00,0.78
7079.00,0.78
7078.00,0.78
7077.00,0.78
7076.00,0.77
7075.00,0.77
7074.00,0.77
7073.00,0.77
7072.00,0.77
7071.00,0.77
7070.00,0.77
7069.00,0.77
7068.00,0.76
7067.00,0.76
7066.00,0.76
7065.00,0.76
7064.00,0.76
7063.00,0.76
7062.00,0.75
7061.00,0.75
7060.00,0.75
7059.00,0.75
7058.00,0.75
7057.00,0.75
7056.00,0.75
7055.00,0.75
7054.00,0.74
7053.00,0.74
7052.00,0.74
7051.00,0.74
7050.00,0.74
7049.00,0.74
7048.00,0.74
7047.00,0.74
7046.00,0.74
7045.00,0.74
7044.00,0.73
7043.00,0.73
7042.00,0.73
7041.00,0.73
7040.00,0.73
7039.00,0.73
7038.00,0.73
7037.00,0.73
7036.00,0.73
7035.00,0.73
7034.00,0.73
7033.00,0.73
7032.00,0.72
7031.00,0.72
7030.00,0.72
7029.00,0.72
7028.00,0.72
7027.00,0.72
7026.00,0.72
7025.00,0.72
7024.00,0.72
7023.00,0.72
7022.00,0.72
7021.00,0.72
7020.00,0.72
7019.00,0.72
7018.00,0.72
7017.00,0.72
7016.00,0.72
7015.00,0.72
7014.00,0.72
7013.00,0.72
7012.00,0.72
7011.00,0.72
7010.00,0.72
7009.00,0.72
7008.00,0.71
7007.00,0.71
7006.00,0.71
7005.00,0.71
7004.00,0.71
7003.00,0.71
7002.00,0.71
7001.00,0.71
7000.00,0.71
6999.00,0.71
6998.00,0.71
6997.00,0.71
6996.00,0.70
6995.00,0.70
6994.00,0.70
6993.00,0.70
6992.00,0.70
6991.00,0.70
6990.00,0.69
6989.00,0.69
6988.00,0.69
6987.00,0.69
6986.00,0.69
6985.00,0.69
6984.00,0.69
6983.00,0.69
6982.00,0.69
6981.00,0.69
6980.00,0.69
6979.00,0.69
6978.00,0.69
6977.00,0.69
6976.00,0.69
6975.00,0.69
6974.00,0.69
6973.00,0.69
6972.00,0.69
6971.00,0.69
6970.00,0.69
6969.00,0.69
6968.00,0.69
6967.00,0.69
6966.00,0.69
6965.00,0.69
6964.00,0.69
6963.00,0.69
6962.00,0.69
6961.00,0.69
6960.00,0.69
6959.00,0.69
6958.00,0.69
6957.00,0.68
6956.00,0.68
6955.00,0.68
6954.00,0.68
6953.00,0.68
6952.00,0.68
6951.00,0.68
6950.00,0.68
6949.00,0.68
6948.00,0.68
6947.00,0.68
6946.00,0.68
6945.00,0.69
6944.00,0.69
6943.00,0.69
6942.00,0.69
6941.00,0.69
6940.00,0.69
6939.00,0.69
6938.00,0.69
6937.00,0.69
6936.00,0.69
6935.00,0.68
6934.00,0.68
6933.00,0.68
6932.00,0.68
6931.00,0.68
6930.00,0.68
6929.00,0.68
6928.00,0.68
6927.00,0.68
6926.00,0.68
6925.00,0.68
6924.00,0.68
6923.00,0.68
6922.00,0.68
6921.00,0.68
6920.00,0.67
6919.00,0.67
6918.00,0.68
6917.00,0.68
6916.00,0.68
6915.00,0.68
6914.00,0.68
6913.00,0.68
6912.00,0.68
6911.00,0.68
6910.00,0.68
6909.00,0.68
6908.00,0.68
6907.00,0.68
6906.00,0.68
6905.00,0.68
6904.00,0.68
6903.00,0.68
6902.00,0.68
6901.00,0.68
6900.00,0.68
6899.00,0.68
6898.00,0.68
6897.00,0.68
6896.00,0.67
6895.00,0.67
6894.00,0.67
6893.00,0.67
6892.00,0.67
6891.00,0.67
6890.00,0.67
6889.00,0.67
6888.00,0.67
6887.00,0.67
6886.00,0.67
6885.00,0.67
6884.00,0.67
6883.00,0.67
6882.00,0.67
6881.00,0.67
6880.00,0.67
6879.00,0.67
6878.00,0.68
6877.00,0.68
6876.00,0.68
6875.00,0.67
6874.00,0.67
6873.00,0.67
6872.00,0.67
6871.00,0.67
6870.00,0.67
6869.00,0.67
6868.00,0.67
6867.00,0.67
6866.00,0.67
6865.00,0.67
6864.00,0.67
6863.00,0.67
6862.00,0.67
6861.00,0.67
6860.00,0.67
6859.00,0.67
6858.00,0.67
6857.00,0.67
6856.00,0.67
6855.00,0.67
6854.00,0.67
6853.00,0.67
6852.00,0.67
6851.00,0.68
6850.00,0.68
6849.00,0.68
6848.00,0.68
6847.00,0.68
6846.00,0.68
6845.00,0.68
6844.00,0.68
6843.00,0.67
6842.00,0.67
6841.00,0.67
6840.00,0.67
6839.00,0.67
6838.00,0.67
6837.00,0.67
6836.00,0.67
6835.00,0.67
6834.00,0.67
6833.00,0.67
6832.00,0.67
6831.00,0.67
6830.00,0.67
6829.00,0.68
6828.00,0.68
6827.00,0.68
6826.00,0.68
6825.00,0.68
6824.00,0.68
6823.00,0.68
6822.00,0.68
6821.00,0.68
6820.00,0.68
6819.00,0.68
6818.00,0.68
6817.00,0.68
6816.00,0.68
6815.00,0.68
6814.00,0.68
6813.00,0.68
6812.00,0.68
6811.00,0.68
6810.00,0.68
6809.00,0.68
6808.00,0.68
6807.00,0.68
6806.00,0.68
6805.00,0.68
6804.00,0.68
6803.00,0.68
6802.00,0.68
6801.00,0.68
6800.00,0.68
6799.00,0.68
6798.00,0.68
6797.00,0.69
6796.00,0.69
6795.00,0.69
6794.00,0.69
6793.00,0.69
6792.00,0.69
6791.00,0.69
6790.00,0.69
6789.00,0.69
6788.00,0.69
6787.00,0.69
6786.00,0.70
6785.00,0.70
6784.00,0.70
6783.00,0.70
6782.00,0.70
6781.00,0.70
6780.00,0.70
6779.00,0.70
6778.00,0.70
6777.00,0.70
6776.00,0.70
6775.00,0.70
6774.00,0.70
6773.00,0.70
6772.00,0.71
6771.00,0.71
6770.00,0.71
6769.00,0.71
6768.00,0.71
6767.00,0.71
6766.00,0.71
6765.00,0.71
6764.00,0.71
6763.00,0.71
6762.00,0.71
6761.00,0.71
6760.00,0.71
6759.00,0.71
6758.00,0.71
6757.00,0.71
6756.00,0.71
6755.00,0.71
6754.00,0.71
6753.00,0.71
6752.00,0.71
6751.00,0.71
6750.00,0.71
6749.00,0.71
6748.00,0.71
6747.00,0.71
6746.00,0.71
6745.00,0.71
6744.00,0.71
6743.00,0.71
6742.00,0.71
6741.00,0.71
6740.00,0.72
6739.00,0.72
6738.00,0.72
6737.00,0.72
6736.00,0.72
6735.00,0.72
6734.00,0.72
6733.00,0.72
6732.00,0.72
6731.00,0.72
6730.00,0.72
6729.00,0.72
6728.00,0.72
6727.00,0.72
6726.00,0.72
6725.00,0.72
6724.00,0.72
6723.00,0.73
6722.00,0.73
6721.00,0.73
6720.00,0.73
6719.00,0.73
6718.00,0.73
6717.00,0.73
6716.00,0.73
6715.00,0.73
6714.00,0.73
6713.00,0.73
6712.00,0.74
6711.00,0.74
6710.00,0.74
6709.00,0.74
6708.00,0.74
6707.00,0.74
6706.00,0.74
6705.00,0.74
6704.00,0.74
6703.00,0.74
6702.00,0.74
6701.00,0.74
6700.00,0.75
6699.00,0.75
6698.00,0.75
6697.00,0.75
6696.00,0.75
6695.00,0.75
6694.00,0.75
6693.00,0.76
6692.00,0.76
6691.00,0.76
6690.00,0.76
6689.00,0.76
6688.00,0.76
6687.00,0.76
6686.00,0.76
6685.00,0.76
6684.00,0.76
6683.00,0.76
6682.00,0.76
6681.00,0.76
6680.00,0.76
6679.00,0.76
6678.00,0.76
6677.00,0.76
6676.00,0.76
6675.00,0.76
6674.00,0.76
6673.00,0.76
6672.00,0.77
6671.00,0.77
6670.00,0.77
6669.00,0.77
6668.00,0.77
6667.00,0.77
6666.00,0.77
6665.00,0.77
6664.00,0.77
6663.00,0.77
6662.00,0.78
6661.00,0.78
6660.00,0.78
6659.00,0.78
6658.00,0.78
6657.00,0.78
6656.00,0.78
6655.00,0.78
6654.00,0.79
6653.00,0.79
6652.00,0.79
6651.00,0.79
6650.00,0.79
6649.00,0.79
6648.00,0.79
6647.00,0.79
6646.00,0.79
6645.00,0.79
6644.00,0.80
6643.00,0.80
6642.00,0.80
6641.00,0.80
6640.00,0.80
6639.00,0.80
6638.00,0.80
6637.00,0.80
6636.00,0.80
6635.00,0.81
6634.00,0.81
6633.00,0.81
6632.00,0.81
6631.00,0.81
6630.00,0.81
6629.00,0.81
6628.00,0.82
6627.00,0.82
6626.00,0.82
6625.00,0.82
6624.00,0.82
6623.00,0.82
6622.00,0.82
6621.00,0.82
6620.00,0.82
6619.00,0.82
6618.00,0.82
6617.00,0.83
6616.00,0.83
6615.00,0.83
6614.00,0.83
6613.00,0.83
6612.00,0.83
6611.00,0.83
6610.00,0.83
6609.00,0.83
6608.00,0.83
6607.00,0.83
6606.00,0.83
6605.00,0.83
6604.00,0.83
6603.00,0.83
6602.00,0.84
6601.00,0.84
6600.00,0.84
6599.00,0.84
6598.00,0.84
6597.00,0.84
6596.00,0.84
6595.00,0.84
6594.00,0.85
6593.00,0.85
6592.00,0.85
6591.00,0.85
6590.00,0.85
6589.00,0.85
6588.00,0.85
6587.00,0.85
6586.00,0.85
6585.00,0.85
6584.00,0.85
6583.00,0.85
6582.00,0.86
6581.00,0.86
6580.00,0.86
6579.00,0.86
6578.00,0.86
6577.00,0.86
6576.00,0.86
6575.00,0.86
6574.00,0.86
6573.00,0.86
6572.00,0.86
6571.00,0.86
6570.00,0.86
6569.00,0.86
6568.00,0.86
6567.00,0.86
6566.00,0.87
6565.00,0.87
6564.00,0.87
6563.00,0.87
6562.00,0.87
6561.00,0.87
6560.00,0.87
6559.00,0.87
6558.00,0.87
6557.00,0.87
6556.00,0.87
6555.00,0.87
6554.00,0.88
6553.00,0.88
6552.00,0.88
6551.00,0.88
6550.00,0.88
6549.00,0.88
6548.00,0.88
6547.00,0.88
6546.00,0.88
6545.00,0.89
6544.00,0.89
6543.00,0.89
6542.00,0.89
6541.00,0.89
6540.00,0.89
6539.00,0.89
6538.00,0.89
6537.00,0.89
6536.00,0.89
6535.00,0.89
6534.00,0.89
6533.00,0.89
6532.00,0.90
6531.00,0.90
6530.00,0.90
6529.00,0.90
6528.00,0.90
6527.00,0.90
6526.00,0.90
6525.00,0.90
6524.00,0.90
6523.00,0.90
6522.00,0.90
6521.00,0.90
6520.00,0.90
6519.00,0.90
6518.00,0.91
6517.00,0.91
6516.00,0.91
6515.00,0.91
6514.00,0.91
6513.00,0.91
6512.00,0.91
6511.00,0.91
6510.00,0.91
6509.00,0.91
6508.00,0.91
6507.00,0.91
6506.00,0.91
6505.00,0.91
6504.00,0.91
6503.00,0.92
6502.00,0.92
6501.00,0.92
6500.00,0.92
6499.00,0.92
6498.00,0.92
6497.00,0.92
6496.00,0.92
6495.00,0.92
6494.00,0.92
6493.00,0.92
6492.00,0.92
6491.00,0.92
6490.00,0.93
6489.00,0.93
6488.00,0.93
6487.00,0.93
6486.00,0.93
6485.00,0.93
6484.00,0.93
6483.00,0.93
6482.00,0.93
6481.00,0.93
6480.00,0.93
6479.00,0.93
6478.00,0.94
6477.00,0.94
6476.00,0.94
6475.00,0.94
6474.00,0.94
6473.00,0.94
6472.00,0.94
6471.00,0.94
6470.00,0.94
6469.00,0.94
6468.00,0.94
6467.00,0.94
6466.00,0.94
6465.00,0.94
6464.00,0.94
6463.00,0.95
6462.00,0.95
6461.00,0.95
6460.00,0.95
6459.00,0.95
6458.00,0.95
6457.00,0.95
6456.00,0.95
6455.00,0.95
6454.00,0.95
6453.00,0.95
6452.00,0.95
6451.00,0.95
6450.00,0.95
6449.00,0.95
6448.00,0.95
6447.00,0.95
6446.00,0.95
6445.00,0.95
6444.00,0.95
6443.00,0.95
6442.00,0.95
6441.00,0.95
6440.00,0.95
6439.00,0.95
6438.00,0.95
6437.00,0.96
6436.00,0.96
6435.00,0.96
6434.00,0.96
6433.00,0.96
6432.00,0.96
6431.00,0.96
6430.00,0.96
6429.00,0.96
6428.00,0.96
6427.00,0.96
6426.00,0.96
6425.00,0.96
6424.00,0.96
6423.00,0.96
6422.00,0.97
6421.00,0.97
6420.00,0.97
6419.00,0.97
6418.00,0.97
6417.00,0.97
6416.00,0.97
6415.00,0.97
6414.00,0.97
6413.00,0.97
6412.00,0.97
6411.00,0.97
6410.00,0.97
6409.00,0.98
6408.00,0.98
6407.00,0.98
6406.00,0.98
6405.00,0.98
6404.00,0.98
6403.00,0.98
6402.00,0.98
6401.00,0.98
6400.00,0.98
6399.00,0.98
6398.00,0.98
6397.00,0.98
6396.00,0.98
6395.00,0.98
6394.00,0.98
6393.00,0.98
6392.00,0.98
6391.00,0.98
6390.00,0.98
6389.00,0.98
6388.00,0.98
6387.00,0.98
6386.00,0.98
6385.00,0.98
6384.00,0.98
6383.00,0.98
6382.00,0.98
6381.00,0.98
6380.00,0.98
6379.00,0.98
6378.00,0.99
6377.00,0.99
6376.00,0.99
6375.00,0.99
6374.00,0.99
6373.00,0.99
6372.00,0.99
6371.00,0.99
6370.00,0.99
6369.00,0.99
6368.00,0.99
6367.00,1.00
6366.00,1.00
6365.00,1.00
6364.00,1.00
6363.00,1.00
6362.00,1.00
6361.00,1.00
6360.00,1.00
6359.00,1.00
6358.00,1.00
6357.00,1.00
6356.00,1.00
6355.00,1.01
6354.00,1.01
6353.00,1.01
6352.00,1.01
6351.00,1.01
6350.00,1.01
6349.00,1.01
6348.00,1.01
6347.00,1.01
6346.00,1.01
6345.00,1.01
6344.00,1.01
6343.00,1.01
6342.00,1.01
6341.00,1.01
6340.00,1.01
6339.00,1.02
6338.00,1.02
6337.00,1.02
6336.00,1.02
6335.00,1.02
6334.00,1.02
6333.00,1.03
6332.00,1.03
6331.00,1.03
6330.00,1.03
6329.00,1.03
6328.00,1.03
6327.00,1.04
6326.00,1.04
6325.00,1.04
6324.00,1.04
6323.00,1.04
6322.00,1.04
6321.00,1.04
6320.00,1.04
6319.00,1.04
6318.00,1.04
6317.00,1.04
6316.00,1.04
6315.00,1.04
6314.00,1.04
6313.00,1.04
6312.00,1.04
6311.00,1.05
6310.00,1.05
6309.00,1.05
6308.00,1.05
6307.00,1.05
6306.00,1.05
6305.00,1.05
6304.00,1.05
6303.00,1.05
6302.00,1.05
6301.00,1.05
6300.00,1.05
6299.00,1.06
6298.00,1.06
6297.00,1.06
6296.00,1.06
6295.00,1.06
6294.00,1.06
6293.00,1.06
6292.00,1.06
6291.00,1.06
6290.00,1.06
6289.00,1.07
6288.00,1.07
6287.00,1.07
6286.00,1.07
6285.00,1.07
6284.00,1.07
6283.00,1.07
6282.00,1.07
6281.00,1.08
6280.00,1.08
6279.00,1.08
6278.00,1.08
6277.00,1.08
6276.00,1.08
6275.00,1.09
6274.00,1.09
6273.00,1.09
6272.00,1.09
6271.00,1.09
6270.00,1.09
6269.00,1.10
6268.00,1.10
6267.00,1.10
6266.00,1.10
6265.00,1.10
6264.00,1.10
6263.00,1.10
6262.00,1.10
6261.00,1.10
6260.00,1.10
6259.00,1.10
6258.00,1.11
6257.00,1.11
6256.00,1.11
6255.00,1.11
6254.00,1.11
6253.00,1.11
6252.00,1.11
6251.00,1.11
6250.00,1.11
6249.00,1.11
6248.00,1.11
6247.00,1.12
6246.00,1.12
6245.00,1.12
6244.00,1.12
6243.00,1.12
6242.00,1.12
6241.00,1.12
6240.00,1.12
6239.00,1.12
6238.00,1.13
6237.00,1.13
6236.00,1.13
6235.00,1.13
6234.00,1.13
6233.00,1.13
6232.00,1.13
6231.00,1.13
6230.00,1.13
6229.00,1.13
6228.00,1.13
6227.00,1.13
6226.00,1.14
6225.00,1.14
6224.00,1.14
6223.00,1.14
6222.00,1.14
6221.00,1.14
6220.00,1.14
6219.00,1.14
6218.00,1.14
6217.00,1.14
6216.00,1.15
6215.00,1.15
6214.00,1.15
6213.00,1.15
6212.00,1.15
6211.00,1.15
6210.00,1.16
6209.00,1.16
6208.00,1.16
6207.00,1.16
6206.00,1.16
6205.00,1.16
6204.00,1.17
6203.00,1.17
6202.00,1.17
6201.00,1.17
6200.00,1.17
6199.00,1.17
6198.00,1.18
6197.00,1.18
6196.00,1.18
6195.00,1.18
6194.00,1.18
6193.00,1.18
6192.00,1.18
6191.00,1.18
6190.00,1.19
6189.00,1.19
6188.00,1.19
6187.00,1.19
6186.00,1.19
6185.00,1.19
6184.00,1.19
6183.00,1.20
6182.00,1.20
6181.00,1.20
6180.00,1.20
6179.00,1.20
6178.00,1.20
6177.00,1.21
6176.00,1.21
6175.00,1.21
6174.00,1.21
6173.00,1.21
6172.00,1.21
6171.00,1.22
6170.00,1.22
6169.00,1.22
6168.00,1.22
6167.00,1.22
6166.00,1.22
6165.00,1.22
6164.00,1.22
6163.00,1.23
6162.00,1.23
6161.00,1.23
6160.00,1.23
6159.00,1.23
6158.00,1.23
6157.00,1.23
6156.00,1.23
6155.00,1.23
6154.00,1.24
6153.00,1.24
6152.00,1.24
6151.00,1.24
6150.00,1.24
6149.00,1.24
6148.00,1.24
6147.00,1.25
6146.00,1.25
6145.00,1.25
6144.00,1.25
6143.00,1.25
6142.00,1.25
6141.00,1.26
6140.00,1.26
6139.00,1.26
6138.00,1.26
6137.00,1.26
6136.00,1.26
6135.00,1.27
6134.00,1.27
6133.00,1.27
6132.00,1.27
6131.00,1.27
6130.00,1.27
6129.00,1.27
6128.00,1.27
6127.00,1.28
6126.00,1.28
6125.00,1.28
6124.00,1.28
6123.00,1.28
6122.00,1.28
6121.00,1.28
6120.00,1.28
6119.00,1.28
6118.00,1.29
6117.00,1.29
6116.00,1.29
6115.00,1.29
6114.00,1.29
6113.00,1.29
6112.00,1.29
6111.00,1.29
6110.00,1.30
6109.00,1.30
6108.00,1.30
6107.00,1.30
6106.00,1.30
6105.00,1.30
6104.00,1.30
6103.00,1.30
6102.00,1.31
6101.00,1.31
6100.00,1.31
6099.00,1.31
6098.00,1.31
6097.00,1.31
6096.00,1.32
6095.00,1.32
6094.00,1.32
6093.00,1.32
6092.00,1.32
6091.00,1.32
6090.00,1.33
6089.00,1.33
6088.00,1.33
6087.00,1.33
6086.00,1.33
6085.00,1.33
6084.00,1.33
6083.00,1.34
6082.00,1.34
6081.00,1.34
6080.00,1.34
6079.00,1.34
6078.00,1.34
6077.00,1.34
6076.00,1.34
6075.00,1.35
6074.00,1.35
6073.00,1.35
6072.00,1.35
6071.00,1.35
6070.00,1.35
6069.00,1.35
6068.00,1.35
6067.00,1.36
6066.00,1.36
6065.00,1.36
6064.00,1.36
6063.00,1.36
6062.00,1.36
6061.00,1.36
6060.00,1.36
6059.00,1.36
6058.00,1.37
6057.00,1.37
6056.00,1.37
6055.00,1.37
6054.00,1.37
6053.00,1.37
6052.00,1.37
6051.00,1.37
6050.00,1.37
6049.00,1.37
6048.00,1.37
6047.00,1.38
6046.00,1.38
6045.00,1.38
6044.00,1.38
6043.00,1.38
6042.00,1.38
6041.00,1.38
6040.00,1.38
6039.00,1.38
6038.00,1.38
6037.00,1.38
6036.00,1.38
6035.00,1.38
6034.00,1.39
6033.00,1.39
6032.00,1.39
6031.00,1.39
6030.00,1.39
6029.00,1.39
6028.00,1.39
6027.00,1.39
6026.00,1.39
6025.00,1.39
6024.00,1.39
6023.00,1.39
6022.00,1.39
6021.00,1.39
6020.00,1.39
6019.00,1.39
6018.00,1.39
6017.00,1.38
6016.00,1.38
6015.00,1.38
6014.00,1.38
6013.00,1.38
6012.00,1.38
6011.00,1.38
6010.00,1.38
6009.00,1.38
6008.00,1.38
6007.00,1.38
6006.00,1.38
6005.00,1.38
6004.00,1.38
6003.00,1.38
6002.00,1.38
6001.00,1.38
6000.00,1.38
5999.00,1.38
5998.00,1.38
5997.00,1.38
5996.00,1.38
5995.00,1.38
5994.00,1.37
5993.00,1.37
5992.00,1.37
5991.00,1.37
5990.00,1.37
5989.00,1.36
5988.00,1.36
5987.00,1.36
5986.00,1.36
5985.00,1.36
5984.00,1.35
5983.00,1.35
5982.00,1.35
5981.00,1.34
5980.00,1.34
5979.00,1.34
5978.00,1.33
5977.00,1.33
5976.00,1.33
5975.00,1.32
5974.00,1.32
5973.00,1.31
5972.00,1.31
5971.00,1.30
5970.00,1.30
5969.00,1.29
5968.00,1.28
5967.00,1.28
5966.00,1.27
5965.00,1.26
5964.00,1.26
5963.00,1.25
5962.00,1.24
5961.00,1.23
5960.00,1.23
5959.00,1.22
5958.00,1.21
5957.00,1.20
5956.00,1.20
5955.00,1.19
5954.00,1.18
5953.00,1.17
5952.00,1.17
5951.00,1.16
5950.00,1.16
5949.00,1.15
5948.00,1.14
5947.00,1.14
5946.00,1.14
5945.00,1.13
5944.00,1.13
5943.00,1.12
5942.00,1.12
5941.00,1.12
5940.00,1.12
5939.00,1.11
5938.00,1.11
5937.00,1.11
5936.00,1.11
5935.00,1.11
5934.00,1.11
5933.00,1.11
5932.00,1.11
5931.00,1.10
5930.00,1.10
5929.00,1.10
5928.00,1.10
5927.00,1.10
5926.00,1.10
5925.00,1.10
5924.00,1.10
5923.00,1.10
5922.00,1.10
5921.00,1.09
5920.00,1.09
5919.00,1.09
5918.00,1.09
5917.00,1.09
5916.00,1.08
5915.00,1.08
5914.00,1.08
5913.00,1.08
5912.00,1.07
5911.00,1.07
5910.00,1.07
5909.00,1.07
5908.00,1.07
5907.00,1.07
5906.00,1.06
5905.00,1.06
5904.00,1.06
5903.00,1.06
5902.00,1.06
5901.00,1.06
5900.00,1.06
5899.00,1.06
5898.00,1.06
5897.00,1.06
5896.00,1.06
5895.00,1.06
5894.00,1.07
5893.00,1.07
5892.00,1.07
5891.00,1.07
5890.00,1.07
5889.00,1.08
5888.00,1.08
5887.00,1.08
5886.00,1.09
5885.00,1.09
5884.00,1.09
5883.00,1.09
5882.00,1.10
5881.00,1.10
5880.00,1.10
5879.00,1.11
5878.00,1.11
5877.00,1.11
5876.00,1.11
5875.00,1.12
5874.00,1.12
5873.00,1.12
5872.00,1.12
5871.00,1.13
5870.00,1.13
5869.00,1.13
5868.00,1.13
5867.00,1.13
5866.00,1.14
5865.00,1.14
5864.00,1.14
5863.00,1.14
5862.00,1.14
5861.00,1.14
5860.00,1.15
5859.00,1.15
5858.00,1.15
5857.00,1.15
5856.00,1.15
5855.00,1.15
5854.00,1.15
5853.00,1.15
5852.00,1.15
5851.00,1.15
5850.00,1.15
5849.00,1.15
5848.00,1.15
5847.00,1.15
5846.00,1.15
5845.00,1.15
5844.00,1.15
5843.00,1.15
5842.00,1.15
5841.00,1.15
5840.00,1.15
5839.00,1.15
5838.00,1.15
5837.00,1.15
5836.00,1.15
5835.00,1.15
5834.00,1.15
5833.00,1.16
5832.00,1.16
5831.00,1.16
5830.00,1.16
5829.00,1.16
5828.00,1.16
5827.00,1.16
5826.00,1.16
5825.00,1.16
5824.00,1.16
5823.00,1.16
5822.00,1.16
5821.00,1.16
5820.00,1.16
5819.00,1.16
5818.00,1.16
5817.00,1.16
5816.00,1.16
5815.00,1.16
5814.00,1.16
5813.00,1.16
5812.00,1.16
5811.00,1.16
5810.00,1.16
5809.00,1.16
5808.00,1.16
5807.00,1.16
5806.00,1.16
5805.00,1.16
5804.00,1.16
5803.00,1.16
5802.00,1.16
5801.00,1.16
5800.00,1.15
5799.00,1.15
5798.00,1.15
5797.00,1.15
5796.00,1.15
5795.00,1.15
5794.00,1.14
5793.00,1.14
5792.00,1.14
5791.00,1.14
5790.00,1.13
5789.00,1.13
5788.00,1.13
5787.00,1.13
5786.00,1.13
5785.00,1.12
5784.00,1.12
5783.00,1.12
5782.00,1.12
5781.00,1.11
5780.00,1.11
5779.00,1.11
5778.00,1.11
5777.00,1.11
5776.00,1.11
5775.00,1.11
5774.00,1.11
5773.00,1.11
5772.00,1.11
5771.00,1.11
5770.00,1.11
5769.00,1.11
5768.00,1.11
5767.00,1.11
5766.00,1.11
5765.00,1.12
5764.00,1.12
5763.00,1.12
5762.00,1.12
5761.00,1.12
5760.00,1.13
5759.00,1.13
5758.00,1.13
5757.00,1.14
5756.00,1.14
5755.00,1.14
5754.00,1.15
5753.00,1.15
5752.00,1.15
5751.00,1.15
5750.00,1.16
5749.00,1.16
5748.00,1.16
5747.00,1.17
5746.00,1.17
5745.00,1.17
5744.00,1.18
5743.00,1.18
5742.00,1.18
5741.00,1.19
5740.00,1.19
5739.00,1.19
5738.00,1.19
5737.00,1.20
5736.00,1.20
5735.00,1.20
5734.00,1.20
5733.00,1.21
5732.00,1.21
5731.00,1.21
5730.00,1.21
5729.00,1.21
5728.00,1.21
5727.00,1.22
5726.00,1.22
5725.00,1.22
5724.00,1.22
5723.00,1.22
5722.00,1.22
5721.00,1.22
5720.00,1.22
5719.00,1.22
5718.00,1.22
5717.00,1.22
5716.00,1.22
5715.00,1.22
5714.00,1.22
5713.00,1.22
5712.00,1.22
5711.00,1.22
5710.00,1.22
5709.00,1.22
5708.00,1.22
5707.00,1.22
5706.00,1.22
5705.00,1.22
5704.00,1.21
5703.00,1.21
5702.00,1.21
5701.00,1.21
5700.00,1.21
5699.00,1.21
5698.00,1.21
5697.00,1.21
5696.00,1.21
5695.00,1.20
5694.00,1.20
5693.00,1.20
5692.00,1.20
5691.00,1.20
5690.00,1.20
5689.00,1.20
5688.00,1.20
5687.00,1.20
5686.00,1.19
5685.00,1.19
5684.00,1.19
5683.00,1.19
5682.00,1.19
5681.00,1.19
5680.00,1.19
5679.00,1.19
5678.00,1.19
5677.00,1.18
5676.00,1.18
5675.00,1.18
5674.00,1.18
5673.00,1.18
5672.00,1.18
5671.00,1.18
5670.00,1.18
5669.00,1.18
5668.00,1.18
5667.00,1.18
5666.00,1.19
5665.00,1.19
5664.00,1.19
5663.00,1.19
5662.00,1.19
5661.00,1.19
5660.00,1.19
5659.00,1.20
5658.00,1.20
5657.00,1.20
5656.00,1.20
5655.00,1.20
5654.00,1.20
5653.00,1.21
5652.00,1.21
5651.00,1.21
5650.00,1.21
5649.00,1.21
5648.00,1.21
5647.00,1.22
5646.00,1.22
5645.00,1.22
5644.00,1.22
5643.00,1.22
5642.00,1.22
5641.00,1.23
5640.00,1.23
5639.00,1.23
5638.00,1.23
5637.00,1.23
5636.00,1.24
5635.00,1.24
5634.00,1.24
5633.00,1.24
5632.00,1.24
5631.00,1.25
5630.00,1.25
5629.00,1.25
5628.00,1.25
5627.00,1.26
5626.00,1.26
5625.00,1.26
5624.00,1.26
5623.00,1.26
5622.00,1.26
5621.00,1.27
5620.00,1.27
5619.00,1.27
5618.00,1.27
5617.00,1.27
5616.00,1.27
5615.00,1.27
5614.00,1.28
5613.00,1.28
5612.00,1.28
5611.00,1.28
5610.00,1.28
5609.00,1.28
5608.00,1.28
5607.00,1.29
5606.00,1.29
5605.00,1.29
5604.00,1.29
5603.00,1.29
5602.00,1.29
5601.00,1.30
5600.00,1.30
5599.00,1.30
5598.00,1.30
5597.00,1.30
5596.00,1.31
5595.00,1.31
5594.00,1.31
5593.00,1.31
5592.00,1.31
5591.00,1.31
5590.00,1.32
5589.00,1.32
5588.00,1.32
5587.00,1.32
5586.00,1.32
5585.00,1.32
5584.00,1.32
5583.00,1.33
5582.00,1.33
5581.00,1.33
5580.00,1.33
5579.00,1.33
5578.00,1.33
5577.00,1.34
5576.00,1.34
5575.00,1.34
5574.00,1.34
5573.00,1.34
5572.00,1.34
5571.00,1.35
5570.00,1.35
5569.00,1.35
5568.00,1.35
5567.00,1.35
5566.00,1.35
5565.00,1.35
5564.00,1.35
5563.00,1.36
5562.00,1.36
5561.00,1.36
5560.00,1.36
5559.00,1.36
5558.00,1.36
5557.00,1.36
5556.00,1.36
5555.00,1.37
5554.00,1.37
5553.00,1.37
5552.00,1.37
5551.00,1.37
5550.00,1.37
5549.00,1.37
5548.00,1.37
5547.00,1.37
5546.00,1.38
5545.00,1.38
5544.00,1.38
5543.00,1.38
5542.00,1.38
5541.00,1.38
5540.00,1.38
5539.00,1.39
5538.00,1.39
5537.00,1.39
5536.00,1.39
5535.00,1.39
5534.00,1.39
5533.00,1.39
5532.00,1.40
5531.00,1.40
5530.00,1.40
5529.00,1.40
5528.00,1.40
5527.00,1.40
5526.00,1.40
5525.00,1.40
5524.00,1.40
5523.00,1.40
5522.00,1.41
5521.00,1.41
5520.00,1.41
5519.00,1.41
5518.00,1.41
5517.00,1.41
5516.00,1.41
5515.00,1.41
5514.00,1.41
5513.00,1.41
5512.00,1.41
5511.00,1.41
5510.00,1.41
5509.00,1.41
5508.00,1.41
5507.00,1.41
5506.00,1.41
5505.00,1.41
5504.00,1.41
5503.00,1.41
5502.00,1.41
5501.00,1.41
5500.00,1.41
5499.00,1.41
5498.00,1.41
5497.00,1.41
5496.00,1.42
5495.00,1.42
5494.00,1.42
5493.00,1.42
5492.00,1.42
5491.00,1.42
5490.00,1.42
5489.00,1.42
5488.00,1.43
5487.00,1.43
5486.00,1.43
5485.00,1.43
5484.00,1.43
5483.00,1.43
5482.00,1.43
5481.00,1.43
5480.00,1.44
5479.00,1.44
5478.00,1.44
5477.00,1.44
5476.00,1.44
5475.00,1.44
5474.00,1.44
5473.00,1.45
5472.00,1.45
5471.00,1.45
5470.00,1.45
5469.00,1.45
5468.00,1.45
5467.00,1.45
5466.00,1.45
5465.00,1.46
5464.00,1.46
5463.00,1.46
5462.00,1.46
5461.00,1.46
5460.00,1.46
5459.00,1.46
5458.00,1.46
5457.00,1.46
5456.00,1.47
5455.00,1.47
5454.00,1.47
5453.00,1.47
5452.00,1.47
5451.00,1.47
5450.00,1.47
5449.00,1.47
5448.00,1.47
5447.00,1.47
5446.00,1.47
5445.00,1.47
5444.00,1.47
5443.00,1.47
5442.00,1.47
5441.00,1.47
5440.00,1.47
5439.00,1.47
5438.00,1.47
5437.00,1.47
5436.00,1.47
5435.00,1.47
5434.00,1.47
5433.00,1.47
5432.00,1.47
5431.00,1.47
5430.00,1.47
5429.00,1.47
5428.00,1.47
5427.00,1.47
5426.00,1.47
5425.00,1.47
5424.00,1.48
5423.00,1.48
5422.00,1.48
5421.00,1.48
5420.00,1.48
5419.00,1.48
5418.00,1.48
5417.00,1.48
5416.00,1.48
5415.00,1.48
5414.00,1.48
5413.00,1.48
5412.00,1.48
5411.00,1.48
5410.00,1.48
5409.00,1.48
5408.00,1.48
5407.00,1.48
5406.00,1.48
5405.00,1.48
5404.00,1.48
5403.00,1.48
5402.00,1.47
5401.00,1.47
5400.00,1.47
5399.00,1.47
5398.00,1.47
5397.00,1.47
5396.00,1.47
5395.00,1.47
5394.00,1.47
5393.00,1.47
5392.00,1.46
5391.00,1.46
5390.00,1.46
5389.00,1.46
5388.00,1.46
5387.00,1.46
5386.00,1.45
5385.00,1.45
5384.00,1.45
5383.00,1.45
5382.00,1.44
5381.00,1.44
5380.00,1.44
5379.00,1.44
5378.00,1.43
5377.00,1.43
5376.00,1.43
5375.00,1.42
5374.00,1.42
5373.00,1.42
5372.00,1.41
5371.00,1.41
5370.00,1.41
5369.00,1.40
5368.00,1.40
5367.00,1.39
5366.00,1.39
5365.00,1.38
5364.00,1.38
5363.00,1.37
5362.00,1.37
5361.00,1.36
5360.00,1.35
5359.00,1.35
5358.00,1.34
5357.00,1.33
5356.00,1.33
5355.00,1.32
5354.00,1.31
5353.00,1.30
5352.00,1.29
5351.00,1.29
5350.00,1.28
5349.00,1.27
5348.00,1.26
5347.00,1.25
5346.00,1.24
5345.00,1.23
5344.00,1.22
5343.00,1.21
5342.00,1.20
5341.00,1.19
5340.00,1.18
5339.00,1.17
5338.00,1.16
5337.00,1.15
5336.00,1.14
5335.00,1.13
5334.00,1.12
5333.00,1.11
5332.00,1.10
5331.00,1.09
5330.00,1.08
5329.00,1.07
5328.00,1.06
5327.00,1.05
5326.00,1.04
5325.00,1.03
5324.00,1.02
5323.00,1.01
5322.00,1.00
5321.00,0.99
5320.00,0.98
5319.00,0.97
5318.00,0.96
5317.00,0.95
5316.00,0.95
5315.00,0.94
5314.00,0.93
5313.00,0.92
5312.00,0.91
5311.00,0.90
5310.00,0.90
5309.00,0.89
5308.00,0.88
5307.00,0.88
5306.00,0.87
5305.00,0.86
5304.00,0.86
5303.00,0.85
5302.00,0.85
5301.00,0.84
5300.00,0.84
5299.00,0.84
5298.00,0.83
5297.00,0.83
5296.00,0.82
5295.00,0.82
5294.00,0.82
5293.00,0.82
5292.00,0.81
5291.00,0.81
5290.00,0.81
5289.00,0.80
5288.00,0.80
5287.00,0.80
5286.00,0.80
5285.00,0.80
5284.00,0.79
5283.00,0.79
5282.00,0.79
5281.00,0.79
5280.00,0.79
5279.00,0.79
5278.00,0.79
5277.00,0.79
5276.00,0.79
5275.00,0.79
5274.00,0.79
5273.00,0.79
5272.00,0.79
5271.00,0.79
5270.00,0.79
5269.00,0.79
5268.00,0.79
5267.00,0.79
5266.00,0.79
5265.00,0.79
5264.00,0.78
5263.00,0.78
5262.00,0.78
5261.00,0.78
5260.00,0.78
5259.00,0.78
5258.00,0.78
5257.00,0.78
5256.00,0.78
5255.00,0.78
5254.00,0.78
5253.00,0.78
5252.00,0.78
5251.00,0.78
5250.00,0.78
5249.00,0.78
5248.00,0.78
5247.00,0.78
5246.00,0.78
5245.00,0.78
5244.00,0.78
5243.00,0.78
5242.00,0.78
5241.00,0.78
5240.00,0.78
5239.00,0.78
5238.00,0.78
5237.00,0.78
5236.00,0.78
5235.00,0.78
5234.00,0.78
5233.00,0.78
5232.00,0.78
5231.00,0.78
5230.00,0.78
5229.00,0.78
5228.00,0.78
5227.00,0.78
5226.00,0.78
5225.00,0.78
5224.00,0.78
5223.00,0.78
5222.00,0.78
5221.00,0.78
5220.00,0.78
5219.00,0.78
5218.00,0.78
5217.00,0.78
5216.00,0.78
5215.00,0.78
5214.00,0.78
5213.00,0.78
5212.00,0.78
5211.00,0.78
5210.00,0.78
5209.00,0.78
5208.00,0.79
5207.00,0.79
5206.00,0.79
5205.00,0.79
5204.00,0.79
5203.00,0.79
5202.00,0.79
5201.00,0.79
5200.00,0.79
5199.00,0.79
5198.00,0.79
5197.00,0.79
5196.00,0.79
5195.00,0.79
5194.00,0.79
5193.00,0.79
5192.00,0.79
5191.00,0.79
5190.00,0.80
5189.00,0.80
5188.00,0.80
5187.00,0.80
5186.00,0.80
5185.00,0.80
5184.00,0.80
5183.00,0.80
5182.00,0.80
5181.00,0.80
5180.00,0.80
5179.00,0.80
5178.00,0.80
5177.00,0.80
5176.00,0.80
5175.00,0.80
5174.00,0.80
5173.00,0.80
5172.00,0.81
5171.00,0.81
5170.00,0.81
5169.00,0.81
5168.00,0.81
5167.00,0.81
5166.00,0.81
5165.00,0.81
5164.00,0.81
5163.00,0.81
5162.00,0.81
5161.00,0.81
5160.00,0.81
5159.00,0.81
5158.00,0.81
5157.00,0.81
5156.00,0.81
5155.00,0.81
5154.00,0.81
5153.00,0.81
5152.00,0.82
5151.00,0.82
5150.00,0.82
5149.00,0.82
5148.00,0.82
5147.00,0.82
5146.00,0.82
5145.00,0.82
5144.00,0.82
5143.00,0.82
5142.00,0.82
5141.00,0.82
5140.00,0.82
5139.00,0.82
5138.00,0.82
5137.00,0.82
5136.00,0.82
5135.00,0.82
5134.00,0.82
5133.00,0.82
5132.00,0.82
5131.00,0.82
5130.00,0.82
5129.00,0.82
5128.00,0.82
5127.00,0.82
5126.00,0.82
5125.00,0.82
5124.00,0.82
5123.00,0.82
5122.00,0.82
5121.00,0.82
5120.00,0.82
5119.00,0.83
5118.00,0.83
5117.00,0.83
5116.00,0.83
5115.00,0.83
5114.00,0.83
5113.00,0.83
5112.00,0.83
5111.00,0.83
5110.00,0.84
5109.00,0.84
5108.00,0.84
5107.00,0.84
5106.00,0.84
5105.00,0.84
5104.00,0.84
5103.00,0.84
5102.00,0.84
5101.00,0.84
5100.00,0.84
5099.00,0.84
5098.00,0.84
5097.00,0.84
5096.00,0.84
5095.00,0.84
5094.00,0.84
5093.00,0.84
5092.00,0.84
5091.00,0.84
5090.00,0.84
5089.00,0.84
5088.00,0.84
5087.00,0.84
5086.00,0.84
5085.00,0.84
5084.00,0.84
5083.00,0.85
5082.00,0.85
5081.00,0.85
5080.00,0.85
5079.00,0.85
5078.00,0.85
5077.00,0.85
5076.00,0.85
5075.00,0.85
5074.00,0.85
5073.00,0.85
5072.00,0.85
5071.00,0.85
5070.00,0.85
5069.00,0.86
5068.00,0.86
5067.00,0.86
5066.00,0.86
5065.00,0.86
5064.00,0.86
5063.00,0.86
5062.00,0.86
5061.00,0.86
5060.00,0.86
5059.00,0.86
5058.00,0.86
5057.00,0.87
5056.00,0.87
5055.00,0.87
5054.00,0.87
5053.00,0.87
5052.00,0.87
5051.00,0.87
5050.00,0.87
5049.00,0.87
5048.00,0.87
5047.00,0.87
5046.00,0.87
5045.00,0.87
5044.00,0.87
5043.00,0.87
5042.00,0.87
5041.00,0.87
5040.00,0.87
5039.00,0.87
5038.00,0.88
5037.00,0.88
5036.00,0.88
5035.00,0.88
5034.00,0.88
5033.00,0.88
5032.00,0.88
5031.00,0.88
5030.00,0.88
5029.00,0.88
5028.00,0.88
5027.00,0.88
5026.00,0.89
5025.00,0.89
5024.00,0.89
5023.00,0.89
5022.00,0.89
5021.00,0.89
5020.00,0.89
5019.00,0.89
5018.00,0.89
5017.00,0.89
5016.00,0.89
5015.00,0.89
5014.00,0.89
5013.00,0.89
5012.00,0.90
5011.00,0.90
5010.00,0.90
5009.00,0.90
5008.00,0.90
5007.00,0.90
5006.00,0.90
5005.00,0.90
5004.00,0.90
5003.00,0.90
5002.00,0.90
5001.00,0.90
5000.00,0.90
4999.00,0.90
4998.00,0.90
4997.00,0.90
4996.00,0.91
4995.00,0.91
4994.00,0.91
4993.00,0.91
4992.00,0.91
4991.00,0.91
4990.00,0.91
4989.00,0.91
4988.00,0.91
4987.00,0.91
4986.00,0.92
4985.00,0.92
4984.00,0.92
4983.00,0.92
4982.00,0.92
4981.00,0.92
4980.00,0.92
4979.00,0.92
4978.00,0.92
4977.00,0.92
4976.00,0.92
4975.00,0.92
4974.00,0.92
4973.00,0.92
4972.00,0.92
4971.00,0.92
4970.00,0.92
4969.00,0.93
4968.00,0.93
4967.00,0.93
4966.00,0.93
4965.00,0.93
4964.00,0.93
4963.00,0.93
4962.00,0.93
4961.00,0.93
4960.00,0.93
4959.00,0.93
4958.00,0.94
4957.00,0.94
4956.00,0.94
4955.00,0.94
4954.00,0.94
4953.00,0.94
4952.00,0.94
4951.00,0.94
4950.00,0.94
4949.00,0.94
4948.00,0.94
4947.00,0.94
4946.00,0.94
4945.00,0.94
4944.00,0.94
4943.00,0.94
4942.00,0.95
4941.00,0.95
4940.00,0.95
4939.00,0.95
4938.00,0.95
4937.00,0.95
4936.00,0.95
4935.00,0.95
4934.00,0.95
4933.00,0.95
4932.00,0.95
4931.00,0.95
4930.00,0.96
4929.00,0.96
4928.00,0.96
4927.00,0.96
4926.00,0.96
4925.00,0.96
4924.00,0.96
4923.00,0.96
4922.00,0.96
4921.00,0.96
4920.00,0.97
4919.00,0.97
4918.00,0.97
4917.00,0.97
4916.00,0.97
4915.00,0.97
4914.00,0.97
4913.00,0.97
4912.00,0.97
4911.00,0.97
4910.00,0.97
4909.00,0.97
4908.00,0.97
4907.00,0.97
4906.00,0.97
4905.00,0.97
4904.00,0.98
4903.00,0.98
4902.00,0.98
4901.00,0.98
4900.00,0.98
4899.00,0.98
4898.00,0.98
4897.00,0.98
4896.00,0.98
4895.00,0.98
4894.00,0.99
4893.00,0.99
4892.00,0.99
4891.00,0.99
4890.00,0.99
4889.00,0.99
4888.00,0.99
4887.00,0.99
4886.00,0.99
4885.00,0.99
4884.00,0.99
4883.00,0.99
4882.00,0.99
4881.00,0.99
4880.00,0.99
4879.00,0.99
4878.00,0.99
4877.00,0.99
4876.00,0.99
4875.00,0.99
4874.00,0.99
4873.00,0.99
4872.00,0.99
4871.00,0.99
4870.00,0.99
4869.00,0.99
4868.00,0.99
4867.00,0.99
4866.00,0.99
4865.00,0.99
4864.00,0.99
4863.00,1.00
4862.00,1.00
4861.00,1.00
4860.00,1.00
4859.00,1.00
4858.00,1.00
4857.00,1.00
4856.00,1.00
4855.00,1.00
4854.00,1.00
4853.00,1.00
4852.00,1.00
4851.00,1.00
4850.00,1.00
4849.00,1.01
4848.00,1.01
4847.00,1.01
4846.00,1.01
4845.00,1.01
4844.00,1.01
4843.00,1.01
4842.00,1.01
4841.00,1.01
4840.00,1.01
4839.00,1.01
4838.00,1.01
4837.00,1.01
4836.00,1.01
4835.00,1.01
4834.00,1.02
4833.00,1.02
4832.00,1.02
4831.00,1.02
4830.00,1.02
4829.00,1.02
4828.00,1.02
4827.00,1.02
4826.00,1.02
4825.00,1.02
4824.00,1.02
4823.00,1.02
4822.00,1.02
4821.00,1.03
4820.00,1.03
4819.00,1.03
4818.00,1.03
4817.00,1.03
4816.00,1.03
4815.00,1.03
4814.00,1.03
4813.00,1.03
4812.00,1.03
4811.00,1.03
4810.00,1.03
4809.00,1.04
4808.00,1.04
4807.00,1.04
4806.00,1.04
4805.00,1.04
4804.00,1.04
4803.00,1.04
4802.00,1.04
4801.00,1.04
4800.00,1.05
4799.00,1.05
4798.00,1.05
4797.00,1.05
4796.00,1.05
4795.00,1.05
4794.00,1.05
4793.00,1.05
4792.00,1.05
4791.00,1.05
4790.00,1.05
4789.00,1.06
4788.00,1.06
4787.00,1.06
4786.00,1.06
4785.00,1.06
4784.00,1.06
4783.00,1.06
4782.00,1.06
4781.00,1.06
4780.00,1.06
4779.00,1.06
4778.00,1.06
4777.00,1.07
4776.00,1.07
4775.00,1.07
4774.00,1.07
4773.00,1.07
4772.00,1.07
4771.00,1.07
4770.00,1.07
4769.00,1.08
4768.00,1.08
4767.00,1.08
4766.00,1.08
4765.00,1.08
4764.00,1.08
4763.00,1.08
4762.00,1.08
4761.00,1.08
4760.00,1.09
4759.00,1.09
4758.00,1.09
4757.00,1.09
4756.00,1.09
4755.00,1.09
4754.00,1.09
4753.00,1.09
4752.00,1.10
4751.00,1.10
4750.00,1.10
4749.00,1.10
4748.00,1.10
4747.00,1.10
4746.00,1.10
4745.00,1.11
4744.00,1.11
4743.00,1.11
4742.00,1.11
4741.00,1.11
4740.00,1.11
4739.00,1.11
4738.00,1.11
4737.00,1.12
4736.00,1.12
4735.00,1.12
4734.00,1.12
4733.00,1.12
4732.00,1.12
4731.00,1.12
4730.00,1.12
4729.00,1.13
4728.00,1.13
4727.00,1.13
4726.00,1.13
4725.00,1.14
4724.00,1.14
4723.00,1.14
4722.00,1.14
4721.00,1.15
4720.00,1.15
4719.00,1.15
4718.00,1.16
4717.00,1.16
4716.00,1.16
4715.00,1.16
4714.00,1.17
4713.00,1.17
4712.00,1.17
4711.00,1.17
4710.00,1.17
4709.00,1.18
4708.00,1.18
4707.00,1.18
4706.00,1.18
4705.00,1.18
4704.00,1.18
4703.00,1.19
4702.00,1.19
4701.00,1.19
4700.00,1.19
4699.00,1.19
4698.00,1.19
4697.00,1.19
4696.00,1.20
4695.00,1.20
4694.00,1.20
4693.00,1.20
4692.00,1.20
4691.00,1.20
4690.00,1.20
4689.00,1.20
4688.00,1.20
4687.00,1.20
4686.00,1.20
4685.00,1.20
4684.00,1.21
4683.00,1.21
4682.00,1.21
4681.00,1.21
4680.00,1.21
4679.00,1.21
4678.00,1.21
4677.00,1.21
4676.00,1.21
4675.00,1.21
4674.00,1.21
4673.00,1.22
4672.00,1.22
4671.00,1.22
4670.00,1.22
4669.00,1.22
4668.00,1.22
4667.00,1.22
4666.00,1.22
4665.00,1.23
4664.00,1.23
4663.00,1.23
4662.00,1.23
4661.00,1.23
4660.00,1.24
4659.00,1.24
4658.00,1.24
4657.00,1.24
4656.00,1.24
4655.00,1.25
4654.00,1.25
4653.00,1.25
4652.00,1.25
4651.00,1.25
4650.00,1.26
4649.00,1.26
4648.00,1.26
4647.00,1.26
4646.00,1.26
4645.00,1.26
4644.00,1.26
4643.00,1.27
4642.00,1.27
4641.00,1.27
4640.00,1.27
4639.00,1.27
4638.00,1.27
4637.00,1.27
4636.00,1.27
4635.00,1.27
4634.00,1.27
4633.00,1.27
4632.00,1.27
4631.00,1.27
4630.00,1.27
4629.00,1.27
4628.00,1.27
4627.00,1.27
4626.00,1.27
4625.00,1.28
4624.00,1.28
4623.00,1.28
4622.00,1.28
4621.00,1.28
4620.00,1.28
4619.00,1.28
4618.00,1.28
4617.00,1.28
4616.00,1.28
4615.00,1.28
4614.00,1.29
4613.00,1.29
4612.00,1.29
4611.00,1.29
4610.00,1.29
4609.00,1.29
4608.00,1.29
4607.00,1.29
4606.00,1.29
4605.00,1.29
4604.00,1.29
4603.00,1.29
4602.00,1.29
4601.00,1.29
4600.00,1.30
4599.00,1.30
4598.00,1.30
4597.00,1.30
4596.00,1.30
4595.00,1.30
4594.00,1.30
4593.00,1.30
4592.00,1.30
4591.00,1.30
4590.00,1.31
4589.00,1.31
4588.00,1.31
4587.00,1.31
4586.00,1.31
4585.00,1.31
4584.00,1.31
4583.00,1.31
4582.00,1.31
4581.00,1.31
4580.00,1.31
4579.00,1.31
4578.00,1.31
4577.00,1.31
4576.00,1.31
4575.00,1.31
4574.00,1.31
4573.00,1.31
4572.00,1.32
4571.00,1.32
4570.00,1.32
4569.00,1.32
4568.00,1.32
4567.00,1.32
4566.00,1.32
4565.00,1.32
4564.00,1.32
4563.00,1.32
4562.00,1.32
4561.00,1.33
4560.00,1.33
4559.00,1.33
4558.00,1.33
4557.00,1.33
4556.00,1.33
4555.00,1.33
4554.00,1.33
4553.00,1.33
4552.00,1.34
4551.00,1.34
4550.00,1.34
4549.00,1.34
4548.00,1.34
4547.00,1.34
4546.00,1.34
4545.00,1.34
4544.00,1.34
4543.00,1.34
4542.00,1.34
4541.00,1.34
4540.00,1.34
4539.00,1.34
4538.00,1.34
4537.00,1.35
4536.00,1.35
4535.00,1.35
4534.00,1.35
4533.00,1.35
4532.00,1.35
4531.00,1.35
4530.00,1.35
4529.00,1.35
4528.00,1.35
4527.00,1.35
4526.00,1.35
4525.00,1.35
4524.00,1.35
4523.00,1.35
4522.00,1.35
4521.00,1.35
4520.00,1.35
4519.00,1.35
4518.00,1.35
4517.00,1.35
4516.00,1.35
4515.00,1.35
4514.00,1.35
4513.00,1.35
4512.00,1.35
4511.00,1.35
4510.00,1.35
4509.00,1.35
4508.00,1.35
4507.00,1.34
4506.00,1.34
4505.00,1.34
4504.00,1.34
4503.00,1.34
4502.00,1.34
4501.00,1.34
4500.00,1.34
4499.00,1.34
4498.00,1.35
4497.00,1.35
4496.00,1.35
4495.00,1.35
4494.00,1.35
4493.00,1.35
4492.00,1.35
4491.00,1.35
4490.00,1.35
4489.00,1.35
4488.00,1.34
4487.00,1.34
4486.00,1.34
4485.00,1.34
4484.00,1.34
4483.00,1.34
4482.00,1.34
4481.00,1.33
4480.00,1.33
4479.00,1.33
4478.00,1.33
4477.00,1.33
4476.00,1.32
4475.00,1.32
4474.00,1.32
4473.00,1.32
4472.00,1.31
4471.00,1.31
4470.00,1.31
4469.00,1.31
4468.00,1.30
4467.00,1.30
4466.00,1.30
4465.00,1.30
4464.00,1.30
4463.00,1.29
4462.00,1.29
4461.00,1.29
4460.00,1.29
4459.00,1.28
4458.00,1.28
4457.00,1.28
4456.00,1.28
4455.00,1.27
4454.00,1.27
4453.00,1.27
4452.00,1.26
4451.00,1.26
4450.00,1.26
4449.00,1.25
4448.00,1.25
4447.00,1.25
4446.00,1.25
4445.00,1.24
4444.00,1.24
4443.00,1.24
4442.00,1.23
4441.00,1.23
4440.00,1.23
4439.00,1.22
4438.00,1.22
4437.00,1.22
4436.00,1.22
4435.00,1.21
4434.00,1.21
4433.00,1.21
4432.00,1.21
4431.00,1.20
4430.00,1.20
4429.00,1.20
4428.00,1.20
4427.00,1.20
4426.00,1.19
4425.00,1.19
4424.00,1.19
4423.00,1.19
4422.00,1.19
4421.00,1.19
4420.00,1.19
4419.00,1.19
4418.00,1.19
4417.00,1.19
4416.00,1.19
4415.00,1.19
4414.00,1.18
4413.00,1.18
4412.00,1.18
4411.00,1.18
4410.00,1.18
4409.00,1.18
4408.00,1.18
4407.00,1.18
4406.00,1.19
4405.00,1.19
4404.00,1.19
4403.00,1.19
4402.00,1.19
4401.00,1.19
4400.00,1.19
4399.00,1.19
4398.00,1.20
4397.00,1.20
4396.00,1.20
4395.00,1.20
4394.00,1.20
4393.00,1.20
4392.00,1.20
4391.00,1.21
4390.00,1.21
4389.00,1.21
4388.00,1.21
4387.00,1.21
4386.00,1.21
4385.00,1.21
4384.00,1.21
4383.00,1.21
4382.00,1.21
4381.00,1.21
4380.00,1.21
4379.00,1.21
4378.00,1.21
4377.00,1.21
4376.00,1.21
4375.00,1.21
4374.00,1.21
4373.00,1.21
4372.00,1.21
4371.00,1.21
4370.00,1.22
4369.00,1.22
4368.00,1.22
4367.00,1.22
4366.00,1.22
4365.00,1.22
4364.00,1.22
4363.00,1.22
4362.00,1.22
4361.00,1.22
4360.00,1.22
4359.00,1.22
4358.00,1.22
4357.00,1.22
4356.00,1.22
4355.00,1.22
4354.00,1.22
4353.00,1.22
4352.00,1.22
4351.00,1.22
4350.00,1.23
4349.00,1.23
4348.00,1.23
4347.00,1.23
4346.00,1.23
4345.00,1.23
4344.00,1.23
4343.00,1.23
4342.00,1.23
4341.00,1.23
4340.00,1.23
4339.00,1.24
4338.00,1.24
4337.00,1.24
4336.00,1.24
4335.00,1.24
4334.00,1.24
4333.00,1.24
4332.00,1.24
4331.00,1.24
4330.00,1.24
4329.00,1.24
4328.00,1.24
4327.00,1.24
4326.00,1.24
4325.00,1.24
4324.00,1.24
4323.00,1.25
4322.00,1.25
4321.00,1.25
4320.00,1.25
4319.00,1.25
4318.00,1.25
4317.00,1.26
4316.00,1.26
4315.00,1.26
4314.00,1.26
4313.00,1.26
4312.00,1.26
4311.00,1.27
4310.00,1.27
4309.00,1.27
4308.00,1.27
4307.00,1.27
4306.00,1.27
4305.00,1.27
4304.00,1.28
4303.00,1.28
4302.00,1.28
4301.00,1.28
4300.00,1.28
4299.00,1.28
4298.00,1.28
4297.00,1.28
4296.00,1.28
4295.00,1.28
4294.00,1.28
4293.00,1.28
4292.00,1.28
4291.00,1.29
4290.00,1.29
4289.00,1.29
4288.00,1.29
4287.00,1.29
4286.00,1.29
4285.00,1.29
4284.00,1.29
4283.00,1.29
4282.00,1.29
4281.00,1.29
4280.00,1.29
4279.00,1.30
4278.00,1.30
4277.00,1.30
4276.00,1.30
4275.00,1.30
4274.00,1.30
4273.00,1.30
4272.00,1.30
4271.00,1.30
4270.00,1.30
4269.00,1.30
4268.00,1.30
4267.00,1.30
4266.00,1.30
4265.00,1.30
4264.00,1.30
4263.00,1.30
4262.00,1.30
4261.00,1.30
4260.00,1.30
4259.00,1.30
4258.00,1.30
4257.00,1.30
4256.00,1.30
4255.00,1.30
4254.00,1.30
4253.00,1.31
4252.00,1.31
4251.00,1.31
4250.00,1.31
4249.00,1.31
4248.00,1.31
4247.00,1.31
4246.00,1.31
4245.00,1.32
4244.00,1.32
4243.00,1.32
4242.00,1.32
4241.00,1.32
4240.00,1.32
4239.00,1.32
4238.00,1.32
4237.00,1.32
4236.00,1.32
4235.00,1.32
4234.00,1.33
4233.00,1.33
4232.00,1.33
4231.00,1.33
4230.00,1.33
4229.00,1.33
4228.00,1.33
4227.00,1.34
4226.00,1.34
4225.00,1.34
4224.00,1.34
4223.00,1.34
4222.00,1.34
4221.00,1.34
4220.00,1.35
4219.00,1.35
4218.00,1.35
4217.00,1.35
4216.00,1.35
4215.00,1.35
4214.00,1.35
4213.00,1.35
4212.00,1.35
4211.00,1.35
4210.00,1.35
4209.00,1.35
4208.00,1.35
4207.00,1.35
4206.00,1.35
4205.00,1.35
4204.00,1.35
4203.00,1.35
4202.00,1.35
4201.00,1.35
4200.00,1.36
4199.00,1.36
4198.00,1.36
4197.00,1.36
4196.00,1.36
4195.00,1.36
4194.00,1.36
4193.00,1.36
4192.00,1.36
4191.00,1.36
4190.00,1.36
4189.00,1.36
4188.00,1.36
4187.00,1.36
4186.00,1.36
4185.00,1.36
4184.00,1.36
4183.00,1.36
4182.00,1.36
4181.00,1.36
4180.00,1.36
4179.00,1.36
4178.00,1.36
4177.00,1.36
4176.00,1.36
4175.00,1.36
4174.00,1.36
4173.00,1.36
4172.00,1.36
4171.00,1.36
4170.00,1.36
4169.00,1.36
4168.00,1.36
4167.00,1.36
4166.00,1.36
4165.00,1.36
4164.00,1.36
4163.00,1.36
4162.00,1.36
4161.00,1.36
4160.00,1.36
4159.00,1.36
4158.00,1.36
4157.00,1.36
4156.00,1.36
4155.00,1.36
4154.00,1.36
4153.00,1.36
4152.00,1.36
4151.00,1.36
4150.00,1.37
4149.00,1.37
4148.00,1.37
4147.00,1.37
4146.00,1.37
4145.00,1.37
4144.00,1.37
4143.00,1.37
4142.00,1.37
4141.00,1.37
4140.00,1.37
4139.00,1.37
4138.00,1.37
4137.00,1.37
4136.00,1.37
4135.00,1.37
4134.00,1.37
4133.00,1.37
4132.00,1.37
4131.00,1.37
4130.00,1.37
4129.00,1.37
4128.00,1.37
4127.00,1.37
4126.00,1.37
4125.00,1.37
4124.00,1.37
4123.00,1.37
4122.00,1.37
4121.00,1.37
4120.00,1.37
4119.00,1.37
4118.00,1.37
4117.00,1.37
4116.00,1.37
4115.00,1.37
4114.00,1.37
4113.00,1.37
4112.00,1.38
4111.00,1.38
4110.00,1.38
4109.00,1.38
4108.00,1.38
4107.00,1.38
4106.00,1.38
4105.00,1.38
4104.00,1.39
4103.00,1.39
4102.00,1.39
4101.00,1.39
4100.00,1.39
4099.00,1.39
4098.00,1.39
4097.00,1.39
4096.00,1.40
4095.00,1.40
4094.00,1.40
4093.00,1.40
4092.00,1.40
4091.00,1.40
4090.00,1.40
4089.00,1.40
4088.00,1.40
4087.00,1.40
4086.00,1.40
4085.00,1.40
4084.00,1.40
4083.00,1.41
4082.00,1.41
4081.00,1.41
4080.00,1.41
4079.00,1.41
4078.00,1.41
4077.00,1.41
4076.00,1.41
4075.00,1.41
4074.00,1.41
4073.00,1.41
4072.00,1.41
4071.00,1.41
4070.00,1.42
4069.00,1.42
4068.00,1.42
4067.00,1.42
4066.00,1.42
4065.00,1.42
4064.00,1.43
4063.00,1.43
4062.00,1.43
4061.00,1.43
4060.00,1.43
4059.00,1.43
4058.00,1.43
4057.00,1.44
4056.00,1.44
4055.00,1.44
4054.00,1.44
4053.00,1.43
4052.00,1.43
4051.00,1.43
4050.00,1.43
4049.00,1.43
4048.00,1.43
4047.00,1.43
4046.00,1.43
4045.00,1.43
4044.00,1.43
4043.00,1.43
4042.00,1.43
4041.00,1.43
4040.00,1.43
4039.00,1.43
4038.00,1.44
4037.00,1.44
4036.00,1.44
4035.00,1.44
4034.00,1.44
4033.00,1.45
4032.00,1.45
4031.00,1.45
4030.00,1.45
4029.00,1.46
4028.00,1.46
4027.00,1.46
4026.00,1.46
4025.00,1.46
4024.00,1.47
4023.00,1.47
4022.00,1.47
4021.00,1.47
4020.00,1.47
4019.00,1.47
4018.00,1.47
4017.00,1.47
4016.00,1.47
4015.00,1.47
4014.00,1.47
4013.00,1.47
4012.00,1.47
4011.00,1.47
4010.00,1.47
4009.00,1.47
4008.00,1.47
4007.00,1.47
4006.00,1.47
4005.00,1.47
4004.00,1.47
4003.00,1.47
4002.00,1.47
4001.00,1.48
4000.00,1.48
