创建为新数据集,样品 012 用户 Administrator 日期 星期五, 七月 20 2018
cm-1,%T
10000.00,1.25
9999.00,1.25
9998.00,1.25
9997.00,1.26
9996.00,1.26
9995.00,1.26
9994.00,1.26
9993.00,1.26
9992.00,1.26
9991.00,1.26
9990.00,1.26
9989.00,1.26
9988.00,1.26
9987.00,1.26
9986.00,1.26
9985.00,1.25
9984.00,1.25
9983.00,1.25
9982.00,1.25
9981.00,1.25
9980.00,1.25
9979.00,1.25
9978.00,1.25
9977.00,1.25
9976.00,1.25
9975.00,1.25
9974.00,1.25
9973.00,1.25
9972.00,1.25
9971.00,1.25
9970.00,1.25
9969.00,1.25
9968.00,1.25
9967.00,1.25
9966.00,1.25
9965.00,1.25
9964.00,1.25
9963.00,1.25
9962.00,1.25
9961.00,1.25
9960.00,1.25
9959.00,1.25
9958.00,1.25
9957.00,1.26
9956.00,1.26
9955.00,1.26
9954.00,1.26
9953.00,1.26
9952.00,1.26
9951.00,1.26
9950.00,1.26
9949.00,1.26
9948.00,1.25
9947.00,1.25
9946.00,1.25
9945.00,1.25
9944.00,1.25
9943.00,1.25
9942.00,1.24
9941.00,1.24
9940.00,1.24
9939.00,1.24
9938.00,1.23
9937.00,1.23
9936.00,1.23
9935.00,1.22
9934.00,1.22
9933.00,1.22
9932.00,1.21
9931.00,1.21
9930.00,1.21
9929.00,1.21
9928.00,1.21
9927.00,1.21
9926.00,1.21
9925.00,1.21
9924.00,1.21
9923.00,1.21
9922.00,1.21
9921.00,1.21
9920.00,1.21
9919.00,1.21
9918.00,1.21
9917.00,1.21
9916.00,1.21
9915.00,1.22
9914.00,1.22
9913.00,1.22
9912.00,1.22
9911.00,1.22
9910.00,1.22
9909.00,1.22
9908.00,1.22
9907.00,1.22
9906.00,1.22
9905.00,1.22
9904.00,1.22
9903.00,1.22
9902.00,1.22
9901.00,1.22
9900.00,1.22
9899.00,1.22
9898.00,1.21
9897.00,1.21
9896.00,1.21
9895.00,1.21
9894.00,1.21
9893.00,1.21
9892.00,1.21
9891.00,1.20
9890.00,1.20
9889.00,1.20
9888.00,1.20
9887.00,1.20
9886.00,1.20
9885.00,1.20
9884.00,1.20
9883.00,1.20
9882.00,1.20
9881.00,1.20
9880.00,1.20
9879.00,1.21
9878.00,1.21
9877.00,1.21
9876.00,1.21
9875.00,1.21
9874.00,1.22
9873.00,1.22
9872.00,1.22
9871.00,1.22
9870.00,1.22
9869.00,1.22
9868.00,1.23
9867.00,1.23
9866.00,1.23
9865.00,1.23
9864.00,1.22
9863.00,1.22
9862.00,1.22
9861.00,1.22
9860.00,1.22
9859.00,1.22
9858.00,1.21
9857.00,1.21
9856.00,1.21
9855.00,1.21
9854.00,1.21
9853.00,1.21
9852.00,1.20
9851.00,1.20
9850.00,1.20
9849.00,1.20
9848.00,1.20
9847.00,1.20
9846.00,1.20
9845.00,1.20
9844.00,1.21
9843.00,1.21
9842.00,1.21
9841.00,1.21
9840.00,1.21
9839.00,1.21
9838.00,1.21
9837.00,1.21
9836.00,1.21
9835.00,1.21
9834.00,1.21
9833.00,1.21
9832.00,1.22
9831.00,1.22
9830.00,1.22
9829.00,1.22
9828.00,1.22
9827.00,1.22
9826.00,1.22
9825.00,1.23
9824.00,1.23
9823.00,1.23
9822.00,1.23
9821.00,1.23
9820.00,1.23
9819.00,1.23
9818.00,1.23
9817.00,1.23
9816.00,1.23
9815.00,1.23
9814.00,1.23
9813.00,1.23
9812.00,1.23
9811.00,1.23
9810.00,1.23
9809.00,1.23
9808.00,1.23
9807.00,1.23
9806.00,1.23
9805.00,1.23
9804.00,1.23
9803.00,1.23
9802.00,1.23
9801.00,1.23
9800.00,1.23
9799.00,1.24
9798.00,1.24
9797.00,1.24
9796.00,1.24
9795.00,1.24
9794.00,1.24
9793.00,1.24
9792.00,1.24
9791.00,1.24
9790.00,1.24
9789.00,1.24
9788.00,1.24
9787.00,1.24
9786.00,1.24
9785.00,1.24
9784.00,1.24
9783.00,1.24
9782.00,1.24
9781.00,1.24
9780.00,1.24
9779.00,1.24
9778.00,1.23
9777.00,1.23
9776.00,1.23
9775.00,1.23
9774.00,1.23
9773.00,1.23
9772.00,1.23
9771.00,1.23
9770.00,1.23
9769.00,1.23
9768.00,1.23
9767.00,1.23
9766.00,1.23
9765.00,1.23
9764.00,1.24
9763.00,1.24
9762.00,1.24
9761.00,1.24
9760.00,1.24
9759.00,1.24
9758.00,1.24
9757.00,1.25
9756.00,1.25
9755.00,1.25
9754.00,1.25
9753.00,1.25
9752.00,1.25
9751.00,1.25
9750.00,1.25
9749.00,1.25
9748.00,1.25
9747.00,1.25
9746.00,1.24
9745.00,1.24
9744.00,1.24
9743.00,1.24
9742.00,1.24
9741.00,1.24
9740.00,1.24
9739.00,1.24
9738.00,1.24
9737.00,1.24
9736.00,1.24
9735.00,1.24
9734.00,1.24
9733.00,1.24
9732.00,1.24
9731.00,1.23
9730.00,1.23
9729.00,1.23
9728.00,1.23
9727.00,1.23
9726.00,1.23
9725.00,1.23
9724.00,1.23
9723.00,1.22
9722.00,1.22
9721.00,1.22
9720.00,1.22
9719.00,1.22
9718.00,1.22
9717.00,1.22
9716.00,1.22
9715.00,1.22
9714.00,1.22
9713.00,1.22
9712.00,1.22
9711.00,1.22
9710.00,1.22
9709.00,1.22
9708.00,1.22
9707.00,1.23
9706.00,1.23
9705.00,1.23
9704.00,1.23
9703.00,1.23
9702.00,1.23
9701.00,1.23
9700.00,1.23
9699.00,1.24
9698.00,1.24
9697.00,1.24
9696.00,1.24
9695.00,1.24
9694.00,1.24
9693.00,1.24
9692.00,1.24
9691.00,1.24
9690.00,1.24
9689.00,1.24
9688.00,1.24
9687.00,1.24
9686.00,1.23
9685.00,1.23
9684.00,1.23
9683.00,1.23
9682.00,1.23
9681.00,1.23
9680.00,1.23
9679.00,1.23
9678.00,1.23
9677.00,1.22
9676.00,1.22
9675.00,1.22
9674.00,1.22
9673.00,1.22
9672.00,1.22
9671.00,1.22
9670.00,1.22
9669.00,1.22
9668.00,1.22
9667.00,1.22
9666.00,1.23
9665.00,1.23
9664.00,1.23
9663.00,1.23
9662.00,1.23
9661.00,1.23
9660.00,1.23
9659.00,1.22
9658.00,1.22
9657.00,1.22
9656.00,1.22
9655.00,1.22
9654.00,1.22
9653.00,1.22
9652.00,1.22
9651.00,1.22
9650.00,1.22
9649.00,1.21
9648.00,1.21
9647.00,1.21
9646.00,1.21
9645.00,1.21
9644.00,1.21
9643.00,1.22
9642.00,1.22
9641.00,1.22
9640.00,1.22
9639.00,1.22
9638.00,1.22
9637.00,1.22
9636.00,1.23
9635.00,1.23
9634.00,1.23
9633.00,1.23
9632.00,1.23
9631.00,1.24
9630.00,1.24
9629.00,1.24
9628.00,1.24
9627.00,1.24
9626.00,1.24
9625.00,1.24
9624.00,1.24
9623.00,1.25
9622.00,1.25
9621.00,1.25
9620.00,1.25
9619.00,1.25
9618.00,1.25
9617.00,1.25
9616.00,1.25
9615.00,1.25
9614.00,1.25
9613.00,1.25
9612.00,1.26
9611.00,1.26
9610.00,1.26
9609.00,1.26
9608.00,1.26
9607.00,1.26
9606.00,1.25
9605.00,1.25
9604.00,1.25
9603.00,1.25
9602.00,1.25
9601.00,1.25
9600.00,1.25
9599.00,1.25
9598.00,1.25
9597.00,1.25
9596.00,1.25
9595.00,1.24
9594.00,1.24
9593.00,1.24
9592.00,1.24
9591.00,1.24
9590.00,1.24
9589.00,1.24
9588.00,1.24
9587.00,1.24
9586.00,1.24
9585.00,1.24
9584.00,1.24
9583.00,1.24
9582.00,1.24
9581.00,1.24
9580.00,1.24
9579.00,1.24
9578.00,1.24
9577.00,1.23
9576.00,1.23
9575.00,1.23
9574.00,1.23
9573.00,1.23
9572.00,1.23
9571.00,1.23
9570.00,1.23
9569.00,1.23
9568.00,1.23
9567.00,1.23
9566.00,1.23
9565.00,1.23
9564.00,1.23
9563.00,1.23
9562.00,1.23
9561.00,1.23
9560.00,1.23
9559.00,1.23
9558.00,1.23
9557.00,1.23
9556.00,1.23
9555.00,1.23
9554.00,1.23
9553.00,1.23
9552.00,1.23
9551.00,1.23
9550.00,1.23
9549.00,1.23
9548.00,1.23
9547.00,1.23
9546.00,1.23
9545.00,1.23
9544.00,1.22
9543.00,1.22
9542.00,1.22
9541.00,1.22
9540.00,1.22
9539.00,1.22
9538.00,1.22
9537.00,1.22
9536.00,1.22
9535.00,1.23
9534.00,1.23
9533.00,1.23
9532.00,1.23
9531.00,1.23
9530.00,1.23
9529.00,1.23
9528.00,1.23
9527.00,1.23
9526.00,1.23
9525.00,1.23
9524.00,1.23
9523.00,1.23
9522.00,1.23
9521.00,1.23
9520.00,1.23
9519.00,1.24
9518.00,1.24
9517.00,1.24
9516.00,1.24
9515.00,1.24
9514.00,1.24
9513.00,1.24
9512.00,1.24
9511.00,1.24
9510.00,1.24
9509.00,1.24
9508.00,1.24
9507.00,1.24
9506.00,1.24
9505.00,1.24
9504.00,1.24
9503.00,1.24
9502.00,1.24
9501.00,1.24
9500.00,1.24
9499.00,1.23
9498.00,1.23
9497.00,1.23
9496.00,1.23
9495.00,1.23
9494.00,1.23
9493.00,1.24
9492.00,1.24
9491.00,1.24
9490.00,1.24
9489.00,1.24
9488.00,1.24
9487.00,1.24
9486.00,1.24
9485.00,1.24
9484.00,1.24
9483.00,1.24
9482.00,1.24
9481.00,1.24
9480.00,1.24
9479.00,1.24
9478.00,1.24
9477.00,1.24
9476.00,1.24
9475.00,1.24
9474.00,1.24
9473.00,1.24
9472.00,1.24
9471.00,1.25
9470.00,1.25
9469.00,1.25
9468.00,1.25
9467.00,1.25
9466.00,1.25
9465.00,1.25
9464.00,1.25
9463.00,1.25
9462.00,1.25
9461.00,1.25
9460.00,1.25
9459.00,1.25
9458.00,1.25
9457.00,1.25
9456.00,1.25
9455.00,1.25
9454.00,1.25
9453.00,1.25
9452.00,1.25
9451.00,1.25
9450.00,1.25
9449.00,1.25
9448.00,1.25
9447.00,1.25
9446.00,1.25
9445.00,1.25
9444.00,1.25
9443.00,1.25
9442.00,1.25
9441.00,1.25
9440.00,1.25
9439.00,1.25
9438.00,1.25
9437.00,1.25
9436.00,1.25
9435.00,1.25
9434.00,1.25
9433.00,1.25
9432.00,1.25
9431.00,1.25
9430.00,1.25
9429.00,1.25
9428.00,1.25
9427.00,1.25
9426.00,1.25
9425.00,1.25
9424.00,1.25
9423.00,1.25
9422.00,1.25
9421.00,1.24
9420.00,1.24
9419.00,1.24
9418.00,1.24
9417.00,1.24
9416.00,1.24
9415.00,1.24
9414.00,1.24
9413.00,1.24
9412.00,1.24
9411.00,1.24
9410.00,1.24
9409.00,1.24
9408.00,1.24
9407.00,1.24
9406.00,1.24
9405.00,1.23
9404.00,1.23
9403.00,1.23
9402.00,1.23
9401.00,1.23
9400.00,1.23
9399.00,1.23
9398.00,1.23
9397.00,1.23
9396.00,1.23
9395.00,1.23
9394.00,1.23
9393.00,1.24
9392.00,1.24
9391.00,1.24
9390.00,1.24
9389.00,1.24
9388.00,1.24
9387.00,1.24
9386.00,1.25
9385.00,1.25
9384.00,1.25
9383.00,1.25
9382.00,1.25
9381.00,1.25
9380.00,1.25
9379.00,1.25
9378.00,1.25
9377.00,1.25
9376.00,1.25
9375.00,1.25
9374.00,1.25
9373.00,1.25
9372.00,1.25
9371.00,1.25
9370.00,1.25
9369.00,1.25
9368.00,1.25
9367.00,1.24
9366.00,1.24
9365.00,1.24
9364.00,1.24
9363.00,1.23
9362.00,1.23
9361.00,1.23
9360.00,1.23
9359.00,1.23
9358.00,1.23
9357.00,1.23
9356.00,1.23
9355.00,1.23
9354.00,1.23
9353.00,1.23
9352.00,1.23
9351.00,1.23
9350.00,1.23
9349.00,1.23
9348.00,1.23
9347.00,1.24
9346.00,1.24
9345.00,1.24
9344.00,1.24
9343.00,1.24
9342.00,1.24
9341.00,1.24
9340.00,1.24
9339.00,1.24
9338.00,1.24
9337.00,1.24
9336.00,1.24
9335.00,1.24
9334.00,1.23
9333.00,1.23
9332.00,1.23
9331.00,1.23
9330.00,1.23
9329.00,1.23
9328.00,1.23
9327.00,1.23
9326.00,1.23
9325.00,1.23
9324.00,1.23
9323.00,1.23
9322.00,1.23
9321.00,1.23
9320.00,1.23
9319.00,1.23
9318.00,1.23
9317.00,1.23
9316.00,1.23
9315.00,1.23
9314.00,1.23
9313.00,1.23
9312.00,1.23
9311.00,1.23
9310.00,1.23
9309.00,1.23
9308.00,1.23
9307.00,1.23
9306.00,1.23
9305.00,1.23
9304.00,1.23
9303.00,1.23
9302.00,1.23
9301.00,1.23
9300.00,1.23
9299.00,1.23
9298.00,1.23
9297.00,1.23
9296.00,1.23
9295.00,1.24
9294.00,1.24
9293.00,1.24
9292.00,1.24
9291.00,1.24
9290.00,1.24
9289.00,1.24
9288.00,1.24
9287.00,1.24
9286.00,1.24
9285.00,1.24
9284.00,1.25
9283.00,1.25
9282.00,1.25
9281.00,1.25
9280.00,1.25
9279.00,1.25
9278.00,1.25
9277.00,1.25
9276.00,1.25
9275.00,1.25
9274.00,1.24
9273.00,1.24
9272.00,1.24
9271.00,1.24
9270.00,1.24
9269.00,1.24
9268.00,1.24
9267.00,1.24
9266.00,1.24
9265.00,1.24
9264.00,1.24
9263.00,1.23
9262.00,1.23
9261.00,1.23
9260.00,1.23
9259.00,1.23
9258.00,1.23
9257.00,1.23
9256.00,1.23
9255.00,1.23
9254.00,1.23
9253.00,1.23
9252.00,1.23
9251.00,1.23
9250.00,1.23
9249.00,1.23
9248.00,1.23
9247.00,1.23
9246.00,1.22
9245.00,1.22
9244.00,1.22
9243.00,1.22
9242.00,1.22
9241.00,1.22
9240.00,1.22
9239.00,1.23
9238.00,1.23
9237.00,1.23
9236.00,1.23
9235.00,1.23
9234.00,1.23
9233.00,1.23
9232.00,1.23
9231.00,1.24
9230.00,1.24
9229.00,1.24
9228.00,1.24
9227.00,1.24
9226.00,1.24
9225.00,1.24
9224.00,1.24
9223.00,1.24
9222.00,1.25
9221.00,1.25
9220.00,1.25
9219.00,1.25
9218.00,1.25
9217.00,1.25
9216.00,1.25
9215.00,1.25
9214.00,1.25
9213.00,1.25
9212.00,1.25
9211.00,1.25
9210.00,1.25
9209.00,1.25
9208.00,1.25
9207.00,1.25
9206.00,1.25
9205.00,1.25
9204.00,1.25
9203.00,1.25
9202.00,1.25
9201.00,1.25
9200.00,1.25
9199.00,1.25
9198.00,1.25
9197.00,1.25
9196.00,1.25
9195.00,1.24
9194.00,1.24
9193.00,1.24
9192.00,1.24
9191.00,1.24
9190.00,1.24
9189.00,1.24
9188.00,1.24
9187.00,1.24
9186.00,1.24
9185.00,1.24
9184.00,1.24
9183.00,1.24
9182.00,1.24
9181.00,1.24
9180.00,1.24
9179.00,1.24
9178.00,1.24
9177.00,1.24
9176.00,1.24
9175.00,1.24
9174.00,1.24
9173.00,1.24
9172.00,1.24
9171.00,1.24
9170.00,1.24
9169.00,1.25
9168.00,1.25
9167.00,1.25
9166.00,1.25
9165.00,1.25
9164.00,1.25
9163.00,1.25
9162.00,1.25
9161.00,1.26
9160.00,1.26
9159.00,1.26
9158.00,1.26
9157.00,1.26
9156.00,1.26
9155.00,1.25
9154.00,1.25
9153.00,1.25
9152.00,1.25
9151.00,1.25
9150.00,1.25
9149.00,1.25
9148.00,1.25
9147.00,1.25
9146.00,1.25
9145.00,1.25
9144.00,1.25
9143.00,1.25
9142.00,1.25
9141.00,1.25
9140.00,1.25
9139.00,1.25
9138.00,1.25
9137.00,1.25
9136.00,1.25
9135.00,1.25
9134.00,1.25
9133.00,1.25
9132.00,1.25
9131.00,1.25
9130.00,1.25
9129.00,1.25
9128.00,1.25
9127.00,1.25
9126.00,1.25
9125.00,1.25
9124.00,1.25
9123.00,1.26
9122.00,1.26
9121.00,1.26
9120.00,1.25
9119.00,1.25
9118.00,1.25
9117.00,1.25
9116.00,1.25
9115.00,1.25
9114.00,1.25
9113.00,1.25
9112.00,1.25
9111.00,1.25
9110.00,1.25
9109.00,1.25
9108.00,1.24
9107.00,1.24
9106.00,1.24
9105.00,1.24
9104.00,1.24
9103.00,1.24
9102.00,1.25
9101.00,1.25
9100.00,1.25
9099.00,1.25
9098.00,1.25
9097.00,1.25
9096.00,1.25
9095.00,1.25
9094.00,1.25
9093.00,1.25
9092.00,1.25
9091.00,1.25
9090.00,1.25
9089.00,1.25
9088.00,1.25
9087.00,1.25
9086.00,1.25
9085.00,1.25
9084.00,1.25
9083.00,1.25
9082.00,1.25
9081.00,1.25
9080.00,1.25
9079.00,1.25
9078.00,1.25
9077.00,1.25
9076.00,1.25
9075.00,1.24
9074.00,1.24
9073.00,1.24
9072.00,1.24
9071.00,1.24
9070.00,1.24
9069.00,1.24
9068.00,1.24
9067.00,1.23
9066.00,1.23
9065.00,1.23
9064.00,1.23
9063.00,1.23
9062.00,1.23
9061.00,1.23
9060.00,1.23
9059.00,1.23
9058.00,1.23
9057.00,1.24
9056.00,1.24
9055.00,1.24
9054.00,1.24
9053.00,1.24
9052.00,1.24
9051.00,1.25
9050.00,1.25
9049.00,1.25
9048.00,1.25
9047.00,1.25
9046.00,1.25
9045.00,1.25
9044.00,1.25
9043.00,1.25
9042.00,1.25
9041.00,1.25
9040.00,1.25
9039.00,1.25
9038.00,1.25
9037.00,1.25
9036.00,1.25
9035.00,1.25
9034.00,1.25
9033.00,1.25
9032.00,1.25
9031.00,1.25
9030.00,1.25
9029.00,1.25
9028.00,1.25
9027.00,1.25
9026.00,1.25
9025.00,1.25
9024.00,1.25
9023.00,1.25
9022.00,1.25
9021.00,1.25
9020.00,1.25
9019.00,1.25
9018.00,1.25
9017.00,1.25
9016.00,1.25
9015.00,1.25
9014.00,1.25
9013.00,1.25
9012.00,1.25
9011.00,1.25
9010.00,1.25
9009.00,1.24
9008.00,1.24
9007.00,1.24
9006.00,1.24
9005.00,1.24
9004.00,1.24
9003.00,1.24
9002.00,1.24
9001.00,1.24
9000.00,1.24
8999.00,1.24
8998.00,1.24
8997.00,1.23
8996.00,1.23
8995.00,1.23
8994.00,1.23
8993.00,1.23
8992.00,1.23
8991.00,1.23
8990.00,1.23
8989.00,1.23
8988.00,1.23
8987.00,1.23
8986.00,1.23
8985.00,1.23
8984.00,1.23
8983.00,1.23
8982.00,1.23
8981.00,1.23
8980.00,1.23
8979.00,1.23
8978.00,1.23
8977.00,1.23
8976.00,1.23
8975.00,1.23
8974.00,1.23
8973.00,1.23
8972.00,1.23
8971.00,1.23
8970.00,1.23
8969.00,1.23
8968.00,1.23
8967.00,1.23
8966.00,1.23
8965.00,1.23
8964.00,1.23
8963.00,1.23
8962.00,1.23
8961.00,1.23
8960.00,1.23
8959.00,1.23
8958.00,1.23
8957.00,1.23
8956.00,1.23
8955.00,1.23
8954.00,1.23
8953.00,1.23
8952.00,1.23
8951.00,1.23
8950.00,1.23
8949.00,1.23
8948.00,1.23
8947.00,1.23
8946.00,1.23
8945.00,1.23
8944.00,1.23
8943.00,1.23
8942.00,1.23
8941.00,1.24
8940.00,1.24
8939.00,1.24
8938.00,1.24
8937.00,1.24
8936.00,1.24
8935.00,1.23
8934.00,1.23
8933.00,1.23
8932.00,1.23
8931.00,1.23
8930.00,1.23
8929.00,1.23
8928.00,1.23
8927.00,1.23
8926.00,1.22
8925.00,1.22
8924.00,1.22
8923.00,1.22
8922.00,1.22
8921.00,1.22
8920.00,1.22
8919.00,1.22
8918.00,1.22
8917.00,1.22
8916.00,1.22
8915.00,1.22
8914.00,1.22
8913.00,1.23
8912.00,1.23
8911.00,1.23
8910.00,1.23
8909.00,1.23
8908.00,1.23
8907.00,1.23
8906.00,1.23
8905.00,1.23
8904.00,1.23
8903.00,1.23
8902.00,1.23
8901.00,1.23
8900.00,1.23
8899.00,1.23
8898.00,1.23
8897.00,1.23
8896.00,1.23
8895.00,1.23
8894.00,1.23
8893.00,1.23
8892.00,1.23
8891.00,1.23
8890.00,1.23
8889.00,1.23
8888.00,1.23
8887.00,1.23
8886.00,1.23
8885.00,1.23
8884.00,1.23
8883.00,1.23
8882.00,1.23
8881.00,1.23
8880.00,1.24
8879.00,1.24
8878.00,1.24
8877.00,1.24
8876.00,1.24
8875.00,1.24
8874.00,1.24
8873.00,1.24
8872.00,1.24
8871.00,1.25
8870.00,1.25
8869.00,1.25
8868.00,1.25
8867.00,1.25
8866.00,1.25
8865.00,1.25
8864.00,1.25
8863.00,1.25
8862.00,1.25
8861.00,1.25
8860.00,1.25
8859.00,1.25
8858.00,1.25
8857.00,1.25
8856.00,1.25
8855.00,1.24
8854.00,1.24
8853.00,1.24
8852.00,1.24
8851.00,1.24
8850.00,1.24
8849.00,1.24
8848.00,1.24
8847.00,1.24
8846.00,1.24
8845.00,1.23
8844.00,1.23
8843.00,1.23
8842.00,1.23
8841.00,1.23
8840.00,1.23
8839.00,1.23
8838.00,1.23
8837.00,1.23
8836.00,1.22
8835.00,1.22
8834.00,1.22
8833.00,1.22
8832.00,1.22
8831.00,1.22
8830.00,1.22
8829.00,1.22
8828.00,1.22
8827.00,1.22
8826.00,1.22
8825.00,1.22
8824.00,1.22
8823.00,1.22
8822.00,1.22
8821.00,1.22
8820.00,1.22
8819.00,1.22
8818.00,1.22
8817.00,1.23
8816.00,1.23
8815.00,1.23
8814.00,1.23
8813.00,1.23
8812.00,1.23
8811.00,1.23
8810.00,1.23
8809.00,1.23
8808.00,1.23
8807.00,1.23
8806.00,1.22
8805.00,1.22
8804.00,1.22
8803.00,1.22
8802.00,1.22
8801.00,1.22
8800.00,1.22
8799.00,1.22
8798.00,1.22
8797.00,1.22
8796.00,1.22
8795.00,1.22
8794.00,1.23
8793.00,1.23
8792.00,1.23
8791.00,1.23
8790.00,1.23
8789.00,1.23
8788.00,1.23
8787.00,1.23
8786.00,1.23
8785.00,1.23
8784.00,1.23
8783.00,1.23
8782.00,1.23
8781.00,1.23
8780.00,1.23
8779.00,1.23
8778.00,1.23
8777.00,1.22
8776.00,1.22
8775.00,1.22
8774.00,1.22
8773.00,1.22
8772.00,1.22
8771.00,1.22
8770.00,1.22
8769.00,1.21
8768.00,1.21
8767.00,1.21
8766.00,1.21
8765.00,1.21
8764.00,1.21
8763.00,1.21
8762.00,1.21
8761.00,1.21
8760.00,1.21
8759.00,1.21
8758.00,1.20
8757.00,1.20
8756.00,1.20
8755.00,1.20
8754.00,1.20
8753.00,1.20
8752.00,1.20
8751.00,1.20
8750.00,1.20
8749.00,1.20
8748.00,1.20
8747.00,1.19
8746.00,1.19
8745.00,1.19
8744.00,1.19
8743.00,1.19
8742.00,1.19
8741.00,1.19
8740.00,1.19
8739.00,1.19
8738.00,1.19
8737.00,1.19
8736.00,1.19
8735.00,1.19
8734.00,1.19
8733.00,1.19
8732.00,1.20
8731.00,1.19
8730.00,1.19
8729.00,1.19
8728.00,1.19
8727.00,1.19
8726.00,1.19
8725.00,1.19
8724.00,1.19
8723.00,1.19
8722.00,1.19
8721.00,1.19
8720.00,1.18
8719.00,1.18
8718.00,1.18
8717.00,1.18
8716.00,1.18
8715.00,1.18
8714.00,1.18
8713.00,1.18
8712.00,1.18
8711.00,1.18
8710.00,1.19
8709.00,1.19
8708.00,1.19
8707.00,1.19
8706.00,1.19
8705.00,1.19
8704.00,1.19
8703.00,1.19
8702.00,1.19
8701.00,1.20
8700.00,1.20
8699.00,1.20
8698.00,1.20
8697.00,1.20
8696.00,1.20
8695.00,1.20
8694.00,1.20
8693.00,1.19
8692.00,1.19
8691.00,1.19
8690.00,1.19
8689.00,1.19
8688.00,1.19
8687.00,1.19
8686.00,1.19
8685.00,1.19
8684.00,1.19
8683.00,1.19
8682.00,1.19
8681.00,1.18
8680.00,1.18
8679.00,1.18
8678.00,1.18
8677.00,1.18
8676.00,1.18
8675.00,1.18
8674.00,1.18
8673.00,1.18
8672.00,1.18
8671.00,1.19
8670.00,1.19
8669.00,1.19
8668.00,1.19
8667.00,1.19
8666.00,1.19
8665.00,1.19
8664.00,1.19
8663.00,1.19
8662.00,1.18
8661.00,1.18
8660.00,1.18
8659.00,1.18
8658.00,1.18
8657.00,1.18
8656.00,1.18
8655.00,1.18
8654.00,1.17
8653.00,1.17
8652.00,1.17
8651.00,1.17
8650.00,1.17
8649.00,1.17
8648.00,1.17
8647.00,1.17
8646.00,1.17
8645.00,1.17
8644.00,1.16
8643.00,1.16
8642.00,1.16
8641.00,1.16
8640.00,1.16
8639.00,1.16
8638.00,1.16
8637.00,1.16
8636.00,1.16
8635.00,1.16
8634.00,1.16
8633.00,1.16
8632.00,1.16
8631.00,1.16
8630.00,1.16
8629.00,1.16
8628.00,1.16
8627.00,1.16
8626.00,1.16
8625.00,1.16
8624.00,1.16
8623.00,1.16
8622.00,1.16
8621.00,1.15
8620.00,1.15
8619.00,1.15
8618.00,1.15
8617.00,1.15
8616.00,1.15
8615.00,1.15
8614.00,1.15
8613.00,1.15
8612.00,1.15
8611.00,1.15
8610.00,1.15
8609.00,1.15
8608.00,1.16
8607.00,1.16
8606.00,1.16
8605.00,1.16
8604.00,1.16
8603.00,1.16
8602.00,1.16
8601.00,1.16
8600.00,1.16
8599.00,1.16
8598.00,1.17
8597.00,1.17
8596.00,1.17
8595.00,1.17
8594.00,1.17
8593.00,1.17
8592.00,1.17
8591.00,1.17
8590.00,1.17
8589.00,1.16
8588.00,1.16
8587.00,1.16
8586.00,1.16
8585.00,1.16
8584.00,1.16
8583.00,1.16
8582.00,1.16
8581.00,1.16
8580.00,1.16
8579.00,1.16
8578.00,1.15
8577.00,1.15
8576.00,1.15
8575.00,1.15
8574.00,1.15
8573.00,1.15
8572.00,1.15
8571.00,1.15
8570.00,1.15
8569.00,1.15
8568.00,1.14
8567.00,1.14
8566.00,1.14
8565.00,1.14
8564.00,1.14
8563.00,1.14
8562.00,1.14
8561.00,1.14
8560.00,1.14
8559.00,1.14
8558.00,1.14
8557.00,1.14
8556.00,1.14
8555.00,1.14
8554.00,1.14
8553.00,1.14
8552.00,1.14
8551.00,1.14
8550.00,1.14
8549.00,1.14
8548.00,1.14
8547.00,1.14
8546.00,1.14
8545.00,1.14
8544.00,1.13
8543.00,1.13
8542.00,1.13
8541.00,1.13
8540.00,1.13
8539.00,1.13
8538.00,1.13
8537.00,1.13
8536.00,1.13
8535.00,1.13
8534.00,1.13
8533.00,1.13
8532.00,1.13
8531.00,1.13
8530.00,1.13
8529.00,1.13
8528.00,1.13
8527.00,1.13
8526.00,1.13
8525.00,1.13
8524.00,1.13
8523.00,1.13
8522.00,1.13
8521.00,1.13
8520.00,1.13
8519.00,1.13
8518.00,1.13
8517.00,1.13
8516.00,1.13
8515.00,1.13
8514.00,1.13
8513.00,1.13
8512.00,1.12
8511.00,1.12
8510.00,1.12
8509.00,1.12
8508.00,1.12
8507.00,1.12
8506.00,1.12
8505.00,1.12
8504.00,1.12
8503.00,1.12
8502.00,1.12
8501.00,1.12
8500.00,1.12
8499.00,1.12
8498.00,1.12
8497.00,1.12
8496.00,1.12
8495.00,1.12
8494.00,1.12
8493.00,1.12
8492.00,1.12
8491.00,1.12
8490.00,1.12
8489.00,1.12
8488.00,1.12
8487.00,1.12
8486.00,1.12
8485.00,1.12
8484.00,1.12
8483.00,1.11
8482.00,1.11
8481.00,1.11
8480.00,1.11
8479.00,1.11
8478.00,1.11
8477.00,1.10
8476.00,1.10
8475.00,1.10
8474.00,1.10
8473.00,1.10
8472.00,1.09
8471.00,1.09
8470.00,1.09
8469.00,1.09
8468.00,1.09
8467.00,1.09
8466.00,1.09
8465.00,1.09
8464.00,1.09
8463.00,1.09
8462.00,1.09
8461.00,1.09
8460.00,1.09
8459.00,1.09
8458.00,1.09
8457.00,1.09
8456.00,1.09
8455.00,1.09
8454.00,1.09
8453.00,1.09
8452.00,1.09
8451.00,1.09
8450.00,1.09
8449.00,1.09
8448.00,1.09
8447.00,1.09
8446.00,1.09
8445.00,1.09
8444.00,1.09
8443.00,1.09
8442.00,1.09
8441.00,1.09
8440.00,1.09
8439.00,1.09
8438.00,1.09
8437.00,1.09
8436.00,1.09
8435.00,1.09
8434.00,1.09
8433.00,1.09
8432.00,1.09
8431.00,1.08
8430.00,1.08
8429.00,1.08
8428.00,1.08
8427.00,1.08
8426.00,1.08
8425.00,1.08
8424.00,1.08
8423.00,1.08
8422.00,1.08
8421.00,1.08
8420.00,1.08
8419.00,1.08
8418.00,1.08
8417.00,1.09
8416.00,1.09
8415.00,1.09
8414.00,1.09
8413.00,1.09
8412.00,1.09
8411.00,1.10
8410.00,1.10
8409.00,1.10
8408.00,1.10
8407.00,1.10
8406.00,1.10
8405.00,1.10
8404.00,1.11
8403.00,1.11
8402.00,1.11
8401.00,1.11
8400.00,1.10
8399.00,1.10
8398.00,1.10
8397.00,1.10
8396.00,1.10
8395.00,1.10
8394.00,1.10
8393.00,1.10
8392.00,1.10
8391.00,1.10
8390.00,1.10
8389.00,1.10
8388.00,1.10
8387.00,1.10
8386.00,1.11
8385.00,1.11
8384.00,1.11
8383.00,1.11
8382.00,1.11
8381.00,1.11
8380.00,1.11
8379.00,1.11
8378.00,1.11
8377.00,1.11
8376.00,1.11
8375.00,1.11
8374.00,1.11
8373.00,1.11
8372.00,1.11
8371.00,1.11
8370.00,1.11
8369.00,1.11
8368.00,1.11
8367.00,1.11
8366.00,1.11
8365.00,1.11
8364.00,1.11
8363.00,1.12
8362.00,1.12
8361.00,1.12
8360.00,1.12
8359.00,1.12
8358.00,1.12
8357.00,1.12
8356.00,1.12
8355.00,1.12
8354.00,1.12
8353.00,1.13
8352.00,1.13
8351.00,1.13
8350.00,1.13
8349.00,1.13
8348.00,1.13
8347.00,1.13
8346.00,1.14
8345.00,1.14
8344.00,1.14
8343.00,1.14
8342.00,1.14
8341.00,1.14
8340.00,1.14
8339.00,1.14
8338.00,1.14
8337.00,1.14
8336.00,1.14
8335.00,1.14
8334.00,1.14
8333.00,1.14
8332.00,1.14
8331.00,1.14
8330.00,1.14
8329.00,1.13
8328.00,1.13
8327.00,1.13
8326.00,1.13
8325.00,1.13
8324.00,1.13
8323.00,1.13
8322.00,1.13
8321.00,1.13
8320.00,1.13
8319.00,1.13
8318.00,1.13
8317.00,1.13
8316.00,1.13
8315.00,1.13
8314.00,1.13
8313.00,1.13
8312.00,1.13
8311.00,1.13
8310.00,1.13
8309.00,1.13
8308.00,1.13
8307.00,1.13
8306.00,1.13
8305.00,1.13
8304.00,1.13
8303.00,1.13
8302.00,1.13
8301.00,1.13
8300.00,1.13
8299.00,1.13
8298.00,1.13
8297.00,1.13
8296.00,1.13
8295.00,1.13
8294.00,1.13
8293.00,1.13
8292.00,1.13
8291.00,1.13
8290.00,1.13
8289.00,1.13
8288.00,1.13
8287.00,1.13
8286.00,1.13
8285.00,1.14
8284.00,1.14
8283.00,1.14
8282.00,1.14
8281.00,1.14
8280.00,1.14
8279.00,1.14
8278.00,1.14
8277.00,1.14
8276.00,1.14
8275.00,1.14
8274.00,1.14
8273.00,1.14
8272.00,1.14
8271.00,1.14
8270.00,1.14
8269.00,1.14
8268.00,1.14
8267.00,1.14
8266.00,1.14
8265.00,1.14
8264.00,1.14
8263.00,1.14
8262.00,1.14
8261.00,1.14
8260.00,1.14
8259.00,1.14
8258.00,1.14
8257.00,1.14
8256.00,1.14
8255.00,1.14
8254.00,1.14
8253.00,1.15
8252.00,1.15
8251.00,1.15
8250.00,1.15
8249.00,1.15
8248.00,1.15
8247.00,1.15
8246.00,1.15
8245.00,1.15
8244.00,1.15
8243.00,1.15
8242.00,1.15
8241.00,1.15
8240.00,1.15
8239.00,1.15
8238.00,1.15
8237.00,1.15
8236.00,1.15
8235.00,1.15
8234.00,1.15
8233.00,1.14
8232.00,1.14
8231.00,1.14
8230.00,1.14
8229.00,1.14
8228.00,1.14
8227.00,1.14
8226.00,1.14
8225.00,1.14
8224.00,1.14
8223.00,1.15
8222.00,1.15
8221.00,1.15
8220.00,1.15
8219.00,1.15
8218.00,1.15
8217.00,1.15
8216.00,1.16
8215.00,1.16
8214.00,1.16
8213.00,1.16
8212.00,1.16
8211.00,1.16
8210.00,1.17
8209.00,1.17
8208.00,1.17
8207.00,1.17
8206.00,1.17
8205.00,1.17
8204.00,1.17
8203.00,1.17
8202.00,1.17
8201.00,1.17
8200.00,1.17
8199.00,1.17
8198.00,1.17
8197.00,1.17
8196.00,1.17
8195.00,1.17
8194.00,1.17
8193.00,1.17
8192.00,1.17
8191.00,1.17
8190.00,1.17
8189.00,1.17
8188.00,1.17
8187.00,1.17
8186.00,1.16
8185.00,1.16
8184.00,1.16
8183.00,1.16
8182.00,1.16
8181.00,1.16
8180.00,1.16
8179.00,1.16
8178.00,1.16
8177.00,1.16
8176.00,1.16
8175.00,1.16
8174.00,1.16
8173.00,1.17
8172.00,1.17
8171.00,1.17
8170.00,1.17
8169.00,1.17
8168.00,1.17
8167.00,1.17
8166.00,1.17
8165.00,1.17
8164.00,1.18
8163.00,1.18
8162.00,1.18
8161.00,1.18
8160.00,1.18
8159.00,1.18
8158.00,1.18
8157.00,1.18
8156.00,1.18
8155.00,1.18
8154.00,1.18
8153.00,1.18
8152.00,1.18
8151.00,1.18
8150.00,1.18
8149.00,1.18
8148.00,1.18
8147.00,1.18
8146.00,1.18
8145.00,1.18
8144.00,1.18
8143.00,1.18
8142.00,1.18
8141.00,1.17
8140.00,1.17
8139.00,1.17
8138.00,1.17
8137.00,1.17
8136.00,1.17
8135.00,1.17
8134.00,1.17
8133.00,1.18
8132.00,1.18
8131.00,1.18
8130.00,1.18
8129.00,1.18
8128.00,1.18
8127.00,1.18
8126.00,1.18
8125.00,1.18
8124.00,1.18
8123.00,1.18
8122.00,1.18
8121.00,1.18
8120.00,1.18
8119.00,1.18
8118.00,1.18
8117.00,1.18
8116.00,1.18
8115.00,1.18
8114.00,1.18
8113.00,1.18
8112.00,1.18
8111.00,1.18
8110.00,1.18
8109.00,1.18
8108.00,1.18
8107.00,1.18
8106.00,1.18
8105.00,1.18
8104.00,1.18
8103.00,1.18
8102.00,1.18
8101.00,1.18
8100.00,1.19
8099.00,1.19
8098.00,1.19
8097.00,1.19
8096.00,1.19
8095.00,1.19
8094.00,1.19
8093.00,1.20
8092.00,1.20
8091.00,1.20
8090.00,1.20
8089.00,1.20
8088.00,1.20
8087.00,1.20
8086.00,1.20
8085.00,1.20
8084.00,1.20
8083.00,1.20
8082.00,1.20
8081.00,1.20
8080.00,1.20
8079.00,1.20
8078.00,1.20
8077.00,1.20
8076.00,1.20
8075.00,1.20
8074.00,1.20
8073.00,1.20
8072.00,1.20
8071.00,1.20
8070.00,1.20
8069.00,1.20
8068.00,1.20
8067.00,1.20
8066.00,1.20
8065.00,1.20
8064.00,1.20
8063.00,1.20
8062.00,1.20
8061.00,1.20
8060.00,1.21
8059.00,1.21
8058.00,1.21
8057.00,1.21
8056.00,1.20
8055.00,1.20
8054.00,1.20
8053.00,1.20
8052.00,1.20
8051.00,1.20
8050.00,1.20
8049.00,1.20
8048.00,1.20
8047.00,1.20
8046.00,1.20
8045.00,1.20
8044.00,1.20
8043.00,1.20
8042.00,1.20
8041.00,1.20
8040.00,1.20
8039.00,1.20
8038.00,1.20
8037.00,1.20
8036.00,1.20
8035.00,1.20
8034.00,1.20
8033.00,1.20
8032.00,1.20
8031.00,1.20
8030.00,1.20
8029.00,1.20
8028.00,1.20
8027.00,1.20
8026.00,1.20
8025.00,1.20
8024.00,1.20
8023.00,1.21
8022.00,1.21
8021.00,1.21
8020.00,1.21
8019.00,1.21
8018.00,1.21
8017.00,1.21
8016.00,1.21
8015.00,1.22
8014.00,1.22
8013.00,1.22
8012.00,1.22
8011.00,1.22
8010.00,1.22
8009.00,1.22
8008.00,1.22
8007.00,1.22
8006.00,1.22
8005.00,1.22
8004.00,1.22
8003.00,1.22
8002.00,1.22
8001.00,1.22
8000.00,1.21
7999.00,1.21
7998.00,1.21
7997.00,1.21
7996.00,1.21
7995.00,1.21
7994.00,1.21
7993.00,1.21
7992.00,1.21
7991.00,1.21
7990.00,1.21
7989.00,1.21
7988.00,1.21
7987.00,1.21
7986.00,1.22
7985.00,1.22
7984.00,1.22
7983.00,1.22
7982.00,1.22
7981.00,1.22
7980.00,1.22
7979.00,1.22
7978.00,1.22
7977.00,1.22
7976.00,1.22
7975.00,1.22
7974.00,1.22
7973.00,1.22
7972.00,1.22
7971.00,1.22
7970.00,1.22
7969.00,1.22
7968.00,1.22
7967.00,1.22
7966.00,1.22
7965.00,1.22
7964.00,1.22
7963.00,1.22
7962.00,1.22
7961.00,1.22
7960.00,1.22
7959.00,1.22
7958.00,1.22
7957.00,1.22
7956.00,1.22
7955.00,1.22
7954.00,1.21
7953.00,1.21
7952.00,1.21
7951.00,1.21
7950.00,1.22
7949.00,1.22
7948.00,1.22
7947.00,1.22
7946.00,1.22
7945.00,1.22
7944.00,1.22
7943.00,1.22
7942.00,1.22
7941.00,1.22
7940.00,1.22
7939.00,1.22
7938.00,1.22
7937.00,1.22
7936.00,1.22
7935.00,1.22
7934.00,1.22
7933.00,1.22
7932.00,1.23
7931.00,1.23
7930.00,1.23
7929.00,1.23
7928.00,1.23
7927.00,1.23
7926.00,1.23
7925.00,1.23
7924.00,1.23
7923.00,1.23
7922.00,1.23
7921.00,1.23
7920.00,1.23
7919.00,1.23
7918.00,1.23
7917.00,1.23
7916.00,1.23
7915.00,1.23
7914.00,1.23
7913.00,1.23
7912.00,1.23
7911.00,1.23
7910.00,1.23
7909.00,1.23
7908.00,1.23
7907.00,1.23
7906.00,1.23
7905.00,1.23
7904.00,1.23
7903.00,1.23
7902.00,1.23
7901.00,1.23
7900.00,1.23
7899.00,1.23
7898.00,1.23
7897.00,1.23
7896.00,1.23
7895.00,1.23
7894.00,1.23
7893.00,1.23
7892.00,1.23
7891.00,1.23
7890.00,1.23
7889.00,1.23
7888.00,1.23
7887.00,1.23
7886.00,1.23
7885.00,1.23
7884.00,1.23
7883.00,1.23
7882.00,1.23
7881.00,1.23
7880.00,1.23
7879.00,1.23
7878.00,1.23
7877.00,1.23
7876.00,1.23
7875.00,1.23
7874.00,1.23
7873.00,1.23
7872.00,1.23
7871.00,1.23
7870.00,1.23
7869.00,1.23
7868.00,1.23
7867.00,1.23
7866.00,1.23
7865.00,1.23
7864.00,1.23
7863.00,1.23
7862.00,1.23
7861.00,1.23
7860.00,1.23
7859.00,1.23
7858.00,1.23
7857.00,1.23
7856.00,1.23
7855.00,1.23
7854.00,1.23
7853.00,1.23
7852.00,1.23
7851.00,1.24
7850.00,1.24
7849.00,1.24
7848.00,1.24
7847.00,1.24
7846.00,1.24
7845.00,1.24
7844.00,1.24
7843.00,1.24
7842.00,1.24
7841.00,1.24
7840.00,1.24
7839.00,1.24
7838.00,1.24
7837.00,1.24
7836.00,1.24
7835.00,1.24
7834.00,1.24
7833.00,1.24
7832.00,1.24
7831.00,1.24
7830.00,1.24
7829.00,1.24
7828.00,1.24
7827.00,1.24
7826.00,1.24
7825.00,1.24
7824.00,1.24
7823.00,1.24
7822.00,1.24
7821.00,1.24
7820.00,1.24
7819.00,1.24
7818.00,1.24
7817.00,1.24
7816.00,1.24
7815.00,1.24
7814.00,1.24
7813.00,1.24
7812.00,1.24
7811.00,1.24
7810.00,1.24
7809.00,1.25
7808.00,1.25
7807.00,1.25
7806.00,1.25
7805.00,1.25
7804.00,1.25
7803.00,1.25
7802.00,1.25
7801.00,1.25
7800.00,1.25
7799.00,1.25
7798.00,1.25
7797.00,1.25
7796.00,1.25
7795.00,1.25
7794.00,1.25
7793.00,1.25
7792.00,1.25
7791.00,1.25
7790.00,1.25
7789.00,1.25
7788.00,1.25
7787.00,1.25
7786.00,1.25
7785.00,1.25
7784.00,1.25
7783.00,1.25
7782.00,1.25
7781.00,1.25
7780.00,1.25
7779.00,1.25
7778.00,1.25
7777.00,1.25
7776.00,1.25
7775.00,1.25
7774.00,1.25
7773.00,1.25
7772.00,1.25
7771.00,1.25
7770.00,1.25
7769.00,1.25
7768.00,1.24
7767.00,1.24
7766.00,1.24
7765.00,1.24
7764.00,1.24
7763.00,1.24
7762.00,1.24
7761.00,1.24
7760.00,1.24
7759.00,1.24
7758.00,1.24
7757.00,1.24
7756.00,1.24
7755.00,1.25
7754.00,1.25
7753.00,1.25
7752.00,1.25
7751.00,1.25
7750.00,1.25
7749.00,1.25
7748.00,1.25
7747.00,1.25
7746.00,1.26
7745.00,1.26
7744.00,1.26
7743.00,1.26
7742.00,1.26
7741.00,1.26
7740.00,1.26
7739.00,1.25
7738.00,1.25
7737.00,1.25
7736.00,1.25
7735.00,1.25
7734.00,1.25
7733.00,1.25
7732.00,1.25
7731.00,1.25
7730.00,1.25
7729.00,1.25
7728.00,1.25
7727.00,1.25
7726.00,1.25
7725.00,1.25
7724.00,1.25
7723.00,1.25
7722.00,1.25
7721.00,1.25
7720.00,1.25
7719.00,1.25
7718.00,1.25
7717.00,1.25
7716.00,1.25
7715.00,1.25
7714.00,1.25
7713.00,1.25
7712.00,1.25
7711.00,1.25
7710.00,1.25
7709.00,1.25
7708.00,1.25
7707.00,1.25
7706.00,1.25
7705.00,1.25
7704.00,1.25
7703.00,1.25
7702.00,1.25
7701.00,1.25
7700.00,1.25
7699.00,1.25
7698.00,1.25
7697.00,1.25
7696.00,1.25
7695.00,1.25
7694.00,1.25
7693.00,1.25
7692.00,1.25
7691.00,1.25
7690.00,1.25
7689.00,1.24
7688.00,1.24
7687.00,1.24
7686.00,1.24
7685.00,1.24
7684.00,1.24
7683.00,1.24
7682.00,1.25
7681.00,1.25
7680.00,1.25
7679.00,1.25
7678.00,1.25
7677.00,1.25
7676.00,1.25
7675.00,1.25
7674.00,1.25
7673.00,1.25
7672.00,1.25
7671.00,1.25
7670.00,1.25
7669.00,1.25
7668.00,1.25
7667.00,1.25
7666.00,1.25
7665.00,1.25
7664.00,1.25
7663.00,1.25
7662.00,1.25
7661.00,1.25
7660.00,1.25
7659.00,1.25
7658.00,1.25
7657.00,1.25
7656.00,1.24
7655.00,1.24
7654.00,1.24
7653.00,1.24
7652.00,1.24
7651.00,1.24
7650.00,1.24
7649.00,1.24
7648.00,1.24
7647.00,1.24
7646.00,1.24
7645.00,1.24
7644.00,1.24
7643.00,1.25
7642.00,1.25
7641.00,1.25
7640.00,1.25
7639.00,1.25
7638.00,1.25
7637.00,1.25
7636.00,1.25
7635.00,1.25
7634.00,1.25
7633.00,1.25
7632.00,1.25
7631.00,1.25
7630.00,1.26
7629.00,1.26
7628.00,1.26
7627.00,1.26
7626.00,1.26
7625.00,1.26
7624.00,1.26
7623.00,1.26
7622.00,1.25
7621.00,1.25
7620.00,1.25
7619.00,1.25
7618.00,1.25
7617.00,1.25
7616.00,1.25
7615.00,1.25
7614.00,1.25
7613.00,1.25
7612.00,1.25
7611.00,1.25
7610.00,1.25
7609.00,1.25
7608.00,1.25
7607.00,1.25
7606.00,1.25
7605.00,1.25
7604.00,1.25
7603.00,1.25
7602.00,1.25
7601.00,1.25
7600.00,1.25
7599.00,1.25
7598.00,1.25
7597.00,1.25
7596.00,1.25
7595.00,1.25
7594.00,1.25
7593.00,1.25
7592.00,1.25
7591.00,1.25
7590.00,1.25
7589.00,1.25
7588.00,1.25
7587.00,1.25
7586.00,1.25
7585.00,1.25
7584.00,1.24
7583.00,1.24
7582.00,1.24
7581.00,1.24
7580.00,1.24
7579.00,1.24
7578.00,1.24
7577.00,1.24
7576.00,1.24
7575.00,1.24
7574.00,1.24
7573.00,1.24
7572.00,1.24
7571.00,1.24
7570.00,1.24
7569.00,1.24
7568.00,1.24
7567.00,1.24
7566.00,1.24
7565.00,1.24
7564.00,1.24
7563.00,1.24
7562.00,1.24
7561.00,1.24
7560.00,1.24
7559.00,1.24
7558.00,1.24
7557.00,1.24
7556.00,1.24
7555.00,1.24
7554.00,1.24
7553.00,1.24
7552.00,1.24
7551.00,1.24
7550.00,1.24
7549.00,1.24
7548.00,1.24
7547.00,1.24
7546.00,1.24
7545.00,1.24
7544.00,1.24
7543.00,1.24
7542.00,1.24
7541.00,1.23
7540.00,1.23
7539.00,1.23
7538.00,1.23
7537.00,1.23
7536.00,1.23
7535.00,1.23
7534.00,1.23
7533.00,1.23
7532.00,1.23
7531.00,1.23
7530.00,1.23
7529.00,1.23
7528.00,1.23
7527.00,1.23
7526.00,1.23
7525.00,1.23
7524.00,1.23
7523.00,1.23
7522.00,1.23
7521.00,1.23
7520.00,1.23
7519.00,1.23
7518.00,1.23
7517.00,1.23
7516.00,1.23
7515.00,1.23
7514.00,1.23
7513.00,1.23
7512.00,1.23
7511.00,1.23
7510.00,1.23
7509.00,1.23
7508.00,1.23
7507.00,1.22
7506.00,1.22
7505.00,1.22
7504.00,1.22
7503.00,1.22
7502.00,1.22
7501.00,1.22
7500.00,1.22
7499.00,1.22
7498.00,1.22
7497.00,1.22
7496.00,1.22
7495.00,1.22
7494.00,1.22
7493.00,1.22
7492.00,1.22
7491.00,1.22
7490.00,1.22
7489.00,1.21
7488.00,1.21
7487.00,1.21
7486.00,1.21
7485.00,1.21
7484.00,1.21
7483.00,1.21
7482.00,1.21
7481.00,1.21
7480.00,1.21
7479.00,1.21
7478.00,1.20
7477.00,1.20
7476.00,1.20
7475.00,1.20
7474.00,1.20
7473.00,1.20
7472.00,1.20
7471.00,1.20
7470.00,1.20
7469.00,1.20
7468.00,1.20
7467.00,1.19
7466.00,1.19
7465.00,1.19
7464.00,1.19
7463.00,1.19
7462.00,1.19
7461.00,1.19
7460.00,1.19
7459.00,1.19
7458.00,1.19
7457.00,1.19
7456.00,1.19
7455.00,1.19
7454.00,1.19
7453.00,1.19
7452.00,1.19
7451.00,1.19
7450.00,1.19
7449.00,1.19
7448.00,1.19
7447.00,1.19
7446.00,1.19
7445.00,1.19
7444.00,1.19
7443.00,1.19
7442.00,1.19
7441.00,1.19
7440.00,1.19
7439.00,1.19
7438.00,1.19
7437.00,1.19
7436.00,1.18
7435.00,1.18
7434.00,1.18
7433.00,1.18
7432.00,1.18
7431.00,1.18
7430.00,1.18
7429.00,1.18
7428.00,1.18
7427.00,1.18
7426.00,1.18
7425.00,1.18
7424.00,1.18
7423.00,1.18
7422.00,1.18
7421.00,1.18
7420.00,1.18
7419.00,1.18
7418.00,1.18
7417.00,1.18
7416.00,1.18
7415.00,1.17
7414.00,1.17
7413.00,1.17
7412.00,1.17
7411.00,1.17
7410.00,1.17
7409.00,1.17
7408.00,1.17
7407.00,1.17
7406.00,1.17
7405.00,1.17
7404.00,1.17
7403.00,1.16
7402.00,1.16
7401.00,1.16
7400.00,1.16
7399.00,1.16
7398.00,1.16
7397.00,1.16
7396.00,1.16
7395.00,1.16
7394.00,1.16
7393.00,1.16
7392.00,1.15
7391.00,1.15
7390.00,1.15
7389.00,1.15
7388.00,1.15
7387.00,1.15
7386.00,1.15
7385.00,1.15
7384.00,1.14
7383.00,1.14
7382.00,1.14
7381.00,1.14
7380.00,1.14
7379.00,1.14
7378.00,1.14
7377.00,1.14
7376.00,1.14
7375.00,1.14
7374.00,1.14
7373.00,1.14
7372.00,1.14
7371.00,1.14
7370.00,1.14
7369.00,1.14
7368.00,1.14
7367.00,1.13
7366.00,1.13
7365.00,1.13
7364.00,1.13
7363.00,1.13
7362.00,1.13
7361.00,1.13
7360.00,1.13
7359.00,1.13
7358.00,1.13
7357.00,1.13
7356.00,1.13
7355.00,1.13
7354.00,1.13
7353.00,1.13
7352.00,1.13
7351.00,1.13
7350.00,1.13
7349.00,1.13
7348.00,1.13
7347.00,1.13
7346.00,1.12
7345.00,1.12
7344.00,1.12
7343.00,1.12
7342.00,1.12
7341.00,1.12
7340.00,1.12
7339.00,1.12
7338.00,1.12
7337.00,1.12
7336.00,1.12
7335.00,1.12
7334.00,1.12
7333.00,1.12
7332.00,1.12
7331.00,1.12
7330.00,1.12
7329.00,1.12
7328.00,1.12
7327.00,1.12
7326.00,1.12
7325.00,1.12
7324.00,1.11
7323.00,1.11
7322.00,1.11
7321.00,1.11
7320.00,1.11
7319.00,1.11
7318.00,1.11
7317.00,1.11
7316.00,1.11
7315.00,1.11
7314.00,1.11
7313.00,1.11
7312.00,1.11
7311.00,1.11
7310.00,1.11
7309.00,1.10
7308.00,1.10
7307.00,1.10
7306.00,1.10
7305.00,1.10
7304.00,1.10
7303.00,1.10
7302.00,1.10
7301.00,1.10
7300.00,1.10
7299.00,1.10
7298.00,1.10
7297.00,1.10
7296.00,1.09
7295.00,1.09
7294.00,1.09
7293.00,1.09
7292.00,1.09
7291.00,1.09
7290.00,1.09
7289.00,1.09
7288.00,1.09
7287.00,1.08
7286.00,1.08
7285.00,1.08
7284.00,1.08
7283.00,1.08
7282.00,1.08
7281.00,1.08
7280.00,1.08
7279.00,1.07
7278.00,1.07
7277.00,1.07
7276.00,1.07
7275.00,1.07
7274.00,1.07
7273.00,1.07
7272.00,1.07
7271.00,1.06
7270.00,1.06
7269.00,1.06
7268.00,1.06
7267.00,1.06
7266.00,1.06
7265.00,1.06
7264.00,1.06
7263.00,1.06
7262.00,1.06
7261.00,1.05
7260.00,1.05
7259.00,1.05
7258.00,1.05
7257.00,1.05
7256.00,1.05
7255.00,1.05
7254.00,1.05
7253.00,1.04
7252.00,1.04
7251.00,1.04
7250.00,1.04
7249.00,1.03
7248.00,1.03
7247.00,1.03
7246.00,1.03
7245.00,1.02
7244.00,1.02
7243.00,1.02
7242.00,1.02
7241.00,1.01
7240.00,1.01
7239.00,1.01
7238.00,1.01
7237.00,1.00
7236.00,1.00
7235.00,1.00
7234.00,1.00
7233.00,0.99
7232.00,0.99
7231.00,0.99
7230.00,0.99
7229.00,0.98
7228.00,0.98
7227.00,0.98
7226.00,0.97
7225.00,0.97
7224.00,0.97
7223.00,0.96
7222.00,0.96
7221.00,0.96
7220.00,0.95
7219.00,0.95
7218.00,0.95
7217.00,0.94
7216.00,0.94
7215.00,0.94
7214.00,0.93
7213.00,0.93
7212.00,0.93
7211.00,0.92
7210.00,0.92
7209.00,0.92
7208.00,0.91
7207.00,0.91
7206.00,0.91
7205.00,0.91
7204.00,0.90
7203.00,0.90
7202.00,0.90
7201.00,0.90
7200.00,0.89
7199.00,0.89
7198.00,0.89
7197.00,0.88
7196.00,0.88
7195.00,0.88
7194.00,0.87
7193.00,0.87
7192.00,0.87
7191.00,0.86
7190.00,0.86
7189.00,0.86
7188.00,0.85
7187.00,0.85
7186.00,0.85
7185.00,0.85
7184.00,0.84
7183.00,0.84
7182.00,0.84
7181.00,0.84
7180.00,0.84
7179.00,0.83
7178.00,0.83
7177.00,0.83
7176.00,0.83
7175.00,0.83
7174.00,0.82
7173.00,0.82
7172.00,0.82
7171.00,0.82
7170.00,0.81
7169.00,0.81
7168.00,0.81
7167.00,0.81
7166.00,0.80
7165.00,0.80
7164.00,0.80
7163.00,0.79
7162.00,0.79
7161.00,0.79
7160.00,0.79
7159.00,0.78
7158.00,0.78
7157.00,0.78
7156.00,0.78
7155.00,0.78
7154.00,0.77
7153.00,0.77
7152.00,0.77
7151.00,0.77
7150.00,0.77
7149.00,0.76
7148.00,0.76
7147.00,0.76
7146.00,0.76
7145.00,0.76
7144.00,0.75
7143.00,0.75
7142.00,0.75
7141.00,0.75
7140.00,0.74
7139.00,0.74
7138.00,0.74
7137.00,0.74
7136.00,0.74
7135.00,0.74
7134.00,0.73
7133.00,0.73
7132.00,0.73
7131.00,0.73
7130.00,0.73
7129.00,0.73
7128.00,0.72
7127.00,0.72
7126.00,0.72
7125.00,0.72
7124.00,0.72
7123.00,0.71
7122.00,0.71
7121.00,0.71
7120.00,0.71
7119.00,0.70
7118.00,0.70
7117.00,0.70
7116.00,0.70
7115.00,0.69
7114.00,0.69
7113.00,0.69
7112.00,0.69
7111.00,0.68
7110.00,0.68
7109.00,0.68
7108.00,0.68
7107.00,0.67
7106.00,0.67
7105.00,0.67
7104.00,0.67
7103.00,0.66
7102.00,0.66
7101.00,0.66
7100.00,0.66
7099.00,0.66
7098.00,0.65
7097.00,0.65
7096.00,0.65
7095.00,0.65
7094.00,0.65
7093.00,0.65
7092.00,0.65
7091.00,0.65
7090.00,0.65
7089.00,0.65
7088.00,0.65
7087.00,0.64
7086.00,0.64
7085.00,0.64
7084.00,0.64
7083.00,0.64
7082.00,0.64
7081.00,0.64
7080.00,0.64
7079.00,0.64
7078.00,0.64
7077.00,0.64
7076.00,0.64
7075.00,0.64
7074.00,0.63
7073.00,0.63
7072.00,0.63
7071.00,0.63
7070.00,0.63
7069.00,0.63
7068.00,0.62
7067.00,0.62
7066.00,0.62
7065.00,0.62
7064.00,0.62
7063.00,0.62
7062.00,0.62
7061.00,0.62
7060.00,0.62
7059.00,0.62
7058.00,0.62
7057.00,0.61
7056.00,0.61
7055.00,0.61
7054.00,0.61
7053.00,0.61
7052.00,0.61
7051.00,0.61
7050.00,0.61
7049.00,0.61
7048.00,0.61
7047.00,0.61
7046.00,0.61
7045.00,0.61
7044.00,0.61
7043.00,0.61
7042.00,0.61
7041.00,0.61
7040.00,0.61
7039.00,0.61
7038.00,0.61
7037.00,0.61
7036.00,0.61
7035.00,0.61
7034.00,0.61
7033.00,0.61
7032.00,0.61
7031.00,0.60
7030.00,0.60
7029.00,0.60
7028.00,0.60
7027.00,0.60
7026.00,0.60
7025.00,0.60
7024.00,0.60
7023.00,0.60
7022.00,0.60
7021.00,0.60
7020.00,0.60
7019.00,0.60
7018.00,0.60
7017.00,0.59
7016.00,0.59
7015.00,0.59
7014.00,0.59
7013.00,0.59
7012.00,0.59
7011.00,0.59
7010.00,0.59
7009.00,0.59
7008.00,0.59
7007.00,0.59
7006.00,0.59
7005.00,0.59
7004.00,0.59
7003.00,0.59
7002.00,0.58
7001.00,0.58
7000.00,0.58
6999.00,0.58
6998.00,0.58
6997.00,0.58
6996.00,0.58
6995.00,0.58
6994.00,0.58
6993.00,0.58
6992.00,0.58
6991.00,0.58
6990.00,0.58
6989.00,0.58
6988.00,0.58
6987.00,0.58
6986.00,0.58
6985.00,0.58
6984.00,0.58
6983.00,0.58
6982.00,0.58
6981.00,0.58
6980.00,0.58
6979.00,0.58
6978.00,0.58
6977.00,0.58
6976.00,0.58
6975.00,0.58
6974.00,0.58
6973.00,0.58
6972.00,0.58
6971.00,0.58
6970.00,0.58
6969.00,0.58
6968.00,0.58
6967.00,0.58
6966.00,0.58
6965.00,0.58
6964.00,0.58
6963.00,0.58
6962.00,0.58
6961.00,0.58
6960.00,0.58
6959.00,0.58
6958.00,0.58
6957.00,0.58
6956.00,0.58
6955.00,0.58
6954.00,0.58
6953.00,0.58
6952.00,0.58
6951.00,0.58
6950.00,0.58
6949.00,0.58
6948.00,0.58
6947.00,0.58
6946.00,0.58
6945.00,0.58
6944.00,0.58
6943.00,0.58
6942.00,0.57
6941.00,0.57
6940.00,0.57
6939.00,0.57
6938.00,0.57
6937.00,0.57
6936.00,0.57
6935.00,0.57
6934.00,0.57
6933.00,0.57
6932.00,0.57
6931.00,0.57
6930.00,0.57
6929.00,0.57
6928.00,0.57
6927.00,0.57
6926.00,0.57
6925.00,0.57
6924.00,0.57
6923.00,0.57
6922.00,0.57
6921.00,0.57
6920.00,0.57
6919.00,0.57
6918.00,0.57
6917.00,0.57
6916.00,0.57
6915.00,0.57
6914.00,0.57
6913.00,0.57
6912.00,0.58
6911.00,0.58
6910.00,0.58
6909.00,0.58
6908.00,0.58
6907.00,0.58
6906.00,0.58
6905.00,0.58
6904.00,0.58
6903.00,0.58
6902.00,0.58
6901.00,0.57
6900.00,0.57
6899.00,0.57
6898.00,0.57
6897.00,0.57
6896.00,0.57
6895.00,0.57
6894.00,0.57
6893.00,0.57
6892.00,0.57
6891.00,0.57
6890.00,0.57
6889.00,0.57
6888.00,0.57
6887.00,0.57
6886.00,0.57
6885.00,0.57
6884.00,0.57
6883.00,0.57
6882.00,0.57
6881.00,0.57
6880.00,0.57
6879.00,0.57
6878.00,0.57
6877.00,0.57
6876.00,0.57
6875.00,0.57
6874.00,0.57
6873.00,0.57
6872.00,0.57
6871.00,0.57
6870.00,0.57
6869.00,0.57
6868.00,0.57
6867.00,0.57
6866.00,0.57
6865.00,0.57
6864.00,0.57
6863.00,0.57
6862.00,0.57
6861.00,0.58
6860.00,0.58
6859.00,0.58
6858.00,0.58
6857.00,0.58
6856.00,0.58
6855.00,0.58
6854.00,0.58
6853.00,0.58
6852.00,0.58
6851.00,0.58
6850.00,0.59
6849.00,0.59
6848.00,0.59
6847.00,0.59
6846.00,0.59
6845.00,0.58
6844.00,0.58
6843.00,0.58
6842.00,0.58
6841.00,0.58
6840.00,0.58
6839.00,0.58
6838.00,0.58
6837.00,0.58
6836.00,0.58
6835.00,0.58
6834.00,0.58
6833.00,0.58
6832.00,0.58
6831.00,0.58
6830.00,0.58
6829.00,0.58
6828.00,0.58
6827.00,0.58
6826.00,0.58
6825.00,0.58
6824.00,0.58
6823.00,0.58
6822.00,0.58
6821.00,0.58
6820.00,0.58
6819.00,0.58
6818.00,0.58
6817.00,0.58
6816.00,0.58
6815.00,0.58
6814.00,0.58
6813.00,0.58
6812.00,0.58
6811.00,0.58
6810.00,0.59
6809.00,0.59
6808.00,0.59
6807.00,0.59
6806.00,0.59
6805.00,0.59
6804.00,0.59
6803.00,0.59
6802.00,0.59
6801.00,0.59
6800.00,0.59
6799.00,0.59
6798.00,0.59
6797.00,0.59
6796.00,0.59
6795.00,0.59
6794.00,0.59
6793.00,0.59
6792.00,0.59
6791.00,0.60
6790.00,0.60
6789.00,0.60
6788.00,0.60
6787.00,0.60
6786.00,0.60
6785.00,0.60
6784.00,0.60
6783.00,0.60
6782.00,0.60
6781.00,0.60
6780.00,0.60
6779.00,0.60
6778.00,0.60
6777.00,0.60
6776.00,0.60
6775.00,0.60
6774.00,0.60
6773.00,0.60
6772.00,0.60
6771.00,0.60
6770.00,0.60
6769.00,0.60
6768.00,0.60
6767.00,0.60
6766.00,0.60
6765.00,0.60
6764.00,0.60
6763.00,0.60
6762.00,0.60
6761.00,0.60
6760.00,0.60
6759.00,0.60
6758.00,0.60
6757.00,0.60
6756.00,0.60
6755.00,0.60
6754.00,0.60
6753.00,0.61
6752.00,0.61
6751.00,0.61
6750.00,0.61
6749.00,0.61
6748.00,0.61
6747.00,0.61
6746.00,0.61
6745.00,0.61
6744.00,0.62
6743.00,0.62
6742.00,0.62
6741.00,0.62
6740.00,0.62
6739.00,0.62
6738.00,0.62
6737.00,0.62
6736.00,0.62
6735.00,0.62
6734.00,0.62
6733.00,0.62
6732.00,0.62
6731.00,0.62
6730.00,0.62
6729.00,0.62
6728.00,0.62
6727.00,0.62
6726.00,0.62
6725.00,0.62
6724.00,0.62
6723.00,0.62
6722.00,0.62
6721.00,0.62
6720.00,0.62
6719.00,0.62
6718.00,0.62
6717.00,0.62
6716.00,0.62
6715.00,0.62
6714.00,0.62
6713.00,0.62
6712.00,0.62
6711.00,0.62
6710.00,0.62
6709.00,0.62
6708.00,0.62
6707.00,0.62
6706.00,0.62
6705.00,0.62
6704.00,0.62
6703.00,0.62
6702.00,0.62
6701.00,0.62
6700.00,0.62
6699.00,0.62
6698.00,0.62
6697.00,0.63
6696.00,0.63
6695.00,0.63
6694.00,0.63
6693.00,0.63
6692.00,0.63
6691.00,0.63
6690.00,0.63
6689.00,0.63
6688.00,0.63
6687.00,0.64
6686.00,0.64
6685.00,0.64
6684.00,0.64
6683.00,0.64
6682.00,0.64
6681.00,0.64
6680.00,0.64
6679.00,0.64
6678.00,0.64
6677.00,0.64
6676.00,0.64
6675.00,0.64
6674.00,0.64
6673.00,0.65
6672.00,0.65
6671.00,0.65
6670.00,0.65
6669.00,0.65
6668.00,0.65
6667.00,0.65
6666.00,0.65
6665.00,0.65
6664.00,0.65
6663.00,0.65
6662.00,0.65
6661.00,0.65
6660.00,0.65
6659.00,0.65
6658.00,0.65
6657.00,0.65
6656.00,0.65
6655.00,0.65
6654.00,0.66
6653.00,0.66
6652.00,0.66
6651.00,0.66
6650.00,0.66
6649.00,0.66
6648.00,0.66
6647.00,0.66
6646.00,0.66
6645.00,0.67
6644.00,0.67
6643.00,0.67
6642.00,0.67
6641.00,0.67
6640.00,0.67
6639.00,0.67
6638.00,0.67
6637.00,0.67
6636.00,0.67
6635.00,0.67
6634.00,0.67
6633.00,0.67
6632.00,0.67
6631.00,0.67
6630.00,0.67
6629.00,0.67
6628.00,0.67
6627.00,0.68
6626.00,0.68
6625.00,0.68
6624.00,0.68
6623.00,0.68
6622.00,0.68
6621.00,0.68
6620.00,0.68
6619.00,0.68
6618.00,0.69
6617.00,0.69
6616.00,0.69
6615.00,0.69
6614.00,0.69
6613.00,0.69
6612.00,0.69
6611.00,0.69
6610.00,0.69
6609.00,0.69
6608.00,0.69
6607.00,0.70
6606.00,0.70
6605.00,0.70
6604.00,0.70
6603.00,0.70
6602.00,0.70
6601.00,0.70
6600.00,0.70
6599.00,0.70
6598.00,0.70
6597.00,0.70
6596.00,0.70
6595.00,0.70
6594.00,0.70
6593.00,0.70
6592.00,0.71
6591.00,0.71
6590.00,0.71
6589.00,0.71
6588.00,0.71
6587.00,0.71
6586.00,0.71
6585.00,0.71
6584.00,0.71
6583.00,0.72
6582.00,0.72
6581.00,0.72
6580.00,0.72
6579.00,0.72
6578.00,0.72
6577.00,0.72
6576.00,0.72
6575.00,0.72
6574.00,0.72
6573.00,0.72
6572.00,0.72
6571.00,0.72
6570.00,0.72
6569.00,0.72
6568.00,0.72
6567.00,0.72
6566.00,0.72
6565.00,0.72
6564.00,0.72
6563.00,0.72
6562.00,0.72
6561.00,0.72
6560.00,0.72
6559.00,0.72
6558.00,0.72
6557.00,0.72
6556.00,0.72
6555.00,0.72
6554.00,0.72
6553.00,0.73
6552.00,0.73
6551.00,0.73
6550.00,0.73
6549.00,0.73
6548.00,0.73
6547.00,0.73
6546.00,0.73
6545.00,0.73
6544.00,0.74
6543.00,0.74
6542.00,0.74
6541.00,0.74
6540.00,0.74
6539.00,0.74
6538.00,0.74
6537.00,0.74
6536.00,0.75
6535.00,0.75
6534.00,0.75
6533.00,0.75
6532.00,0.75
6531.00,0.75
6530.00,0.75
6529.00,0.75
6528.00,0.75
6527.00,0.75
6526.00,0.75
6525.00,0.75
6524.00,0.75
6523.00,0.75
6522.00,0.75
6521.00,0.75
6520.00,0.75
6519.00,0.75
6518.00,0.75
6517.00,0.75
6516.00,0.75
6515.00,0.75
6514.00,0.75
6513.00,0.76
6512.00,0.76
6511.00,0.76
6510.00,0.76
6509.00,0.76
6508.00,0.76
6507.00,0.76
6506.00,0.76
6505.00,0.76
6504.00,0.76
6503.00,0.76
6502.00,0.76
6501.00,0.76
6500.00,0.76
6499.00,0.76
6498.00,0.77
6497.00,0.77
6496.00,0.77
6495.00,0.77
6494.00,0.77
6493.00,0.77
6492.00,0.77
6491.00,0.77
6490.00,0.77
6489.00,0.77
6488.00,0.77
6487.00,0.77
6486.00,0.77
6485.00,0.77
6484.00,0.77
6483.00,0.77
6482.00,0.77
6481.00,0.77
6480.00,0.77
6479.00,0.77
6478.00,0.77
6477.00,0.77
6476.00,0.77
6475.00,0.77
6474.00,0.77
6473.00,0.77
6472.00,0.78
6471.00,0.78
6470.00,0.78
6469.00,0.78
6468.00,0.78
6467.00,0.78
6466.00,0.78
6465.00,0.78
6464.00,0.78
6463.00,0.78
6462.00,0.78
6461.00,0.78
6460.00,0.79
6459.00,0.79
6458.00,0.79
6457.00,0.79
6456.00,0.79
6455.00,0.79
6454.00,0.79
6453.00,0.79
6452.00,0.79
6451.00,0.79
6450.00,0.79
6449.00,0.79
6448.00,0.79
6447.00,0.79
6446.00,0.79
6445.00,0.79
6444.00,0.79
6443.00,0.80
6442.00,0.80
6441.00,0.80
6440.00,0.80
6439.00,0.80
6438.00,0.80
6437.00,0.80
6436.00,0.80
6435.00,0.80
6434.00,0.80
6433.00,0.80
6432.00,0.80
6431.00,0.80
6430.00,0.80
6429.00,0.80
6428.00,0.80
6427.00,0.80
6426.00,0.80
6425.00,0.80
6424.00,0.80
6423.00,0.80
6422.00,0.80
6421.00,0.81
6420.00,0.81
6419.00,0.81
6418.00,0.81
6417.00,0.81
6416.00,0.81
6415.00,0.81
6414.00,0.81
6413.00,0.81
6412.00,0.81
6411.00,0.81
6410.00,0.81
6409.00,0.81
6408.00,0.81
6407.00,0.81
6406.00,0.81
6405.00,0.81
6404.00,0.81
6403.00,0.81
6402.00,0.81
6401.00,0.81
6400.00,0.82
6399.00,0.82
6398.00,0.82
6397.00,0.82
6396.00,0.82
6395.00,0.82
6394.00,0.82
6393.00,0.82
6392.00,0.82
6391.00,0.82
6390.00,0.82
6389.00,0.82
6388.00,0.82
6387.00,0.82
6386.00,0.82
6385.00,0.82
6384.00,0.82
6383.00,0.82
6382.00,0.82
6381.00,0.82
6380.00,0.82
6379.00,0.83
6378.00,0.83
6377.00,0.83
6376.00,0.83
6375.00,0.83
6374.00,0.83
6373.00,0.83
6372.00,0.83
6371.00,0.83
6370.00,0.83
6369.00,0.84
6368.00,0.84
6367.00,0.84
6366.00,0.84
6365.00,0.84
6364.00,0.84
6363.00,0.84
6362.00,0.84
6361.00,0.84
6360.00,0.84
6359.00,0.84
6358.00,0.85
6357.00,0.85
6356.00,0.85
6355.00,0.85
6354.00,0.85
6353.00,0.85
6352.00,0.85
6351.00,0.85
6350.00,0.85
6349.00,0.85
6348.00,0.85
6347.00,0.85
6346.00,0.85
6345.00,0.85
6344.00,0.85
6343.00,0.85
6342.00,0.85
6341.00,0.85
6340.00,0.86
6339.00,0.86
6338.00,0.86
6337.00,0.86
6336.00,0.86
6335.00,0.86
6334.00,0.86
6333.00,0.86
6332.00,0.86
6331.00,0.86
6330.00,0.86
6329.00,0.86
6328.00,0.86
6327.00,0.86
6326.00,0.86
6325.00,0.86
6324.00,0.87
6323.00,0.87
6322.00,0.87
6321.00,0.87
6320.00,0.87
6319.00,0.87
6318.00,0.87
6317.00,0.87
6316.00,0.88
6315.00,0.88
6314.00,0.88
6313.00,0.88
6312.00,0.88
6311.00,0.88
6310.00,0.88
6309.00,0.88
6308.00,0.89
6307.00,0.89
6306.00,0.89
6305.00,0.89
6304.00,0.89
6303.00,0.89
6302.00,0.89
6301.00,0.89
6300.00,0.89
6299.00,0.89
6298.00,0.89
6297.00,0.89
6296.00,0.89
6295.00,0.89
6294.00,0.90
6293.00,0.90
6292.00,0.90
6291.00,0.90
6290.00,0.90
6289.00,0.90
6288.00,0.90
6287.00,0.90
6286.00,0.90
6285.00,0.90
6284.00,0.90
6283.00,0.90
6282.00,0.90
6281.00,0.90
6280.00,0.90
6279.00,0.91
6278.00,0.91
6277.00,0.91
6276.00,0.91
6275.00,0.91
6274.00,0.91
6273.00,0.91
6272.00,0.91
6271.00,0.91
6270.00,0.91
6269.00,0.91
6268.00,0.92
6267.00,0.92
6266.00,0.92
6265.00,0.92
6264.00,0.92
6263.00,0.92
6262.00,0.92
6261.00,0.92
6260.00,0.93
6259.00,0.93
6258.00,0.93
6257.00,0.93
6256.00,0.93
6255.00,0.93
6254.00,0.93
6253.00,0.93
6252.00,0.94
6251.00,0.94
6250.00,0.94
6249.00,0.94
6248.00,0.94
6247.00,0.94
6246.00,0.94
6245.00,0.94
6244.00,0.95
6243.00,0.95
6242.00,0.95
6241.00,0.95
6240.00,0.95
6239.00,0.95
6238.00,0.95
6237.00,0.95
6236.00,0.95
6235.00,0.95
6234.00,0.96
6233.00,0.96
6232.00,0.96
6231.00,0.96
6230.00,0.96
6229.00,0.96
6228.00,0.96
6227.00,0.96
6226.00,0.96
6225.00,0.96
6224.00,0.96
6223.00,0.97
6222.00,0.97
6221.00,0.97
6220.00,0.97
6219.00,0.97
6218.00,0.97
6217.00,0.97
6216.00,0.97
6215.00,0.97
6214.00,0.98
6213.00,0.98
6212.00,0.98
6211.00,0.98
6210.00,0.98
6209.00,0.98
6208.00,0.98
6207.00,0.98
6206.00,0.98
6205.00,0.99
6204.00,0.99
6203.00,0.99
6202.00,0.99
6201.00,0.99
6200.00,0.99
6199.00,0.99
6198.00,0.99
6197.00,0.99
6196.00,1.00
6195.00,1.00
6194.00,1.00
6193.00,1.00
6192.00,1.00
6191.00,1.00
6190.00,1.00
6189.00,1.00
6188.00,1.01
6187.00,1.01
6186.00,1.01
6185.00,1.01
6184.00,1.01
6183.00,1.01
6182.00,1.02
6181.00,1.02
6180.00,1.02
6179.00,1.02
6178.00,1.02
6177.00,1.02
6176.00,1.02
6175.00,1.03
6174.00,1.03
6173.00,1.03
6172.00,1.03
6171.00,1.03
6170.00,1.03
6169.00,1.03
6168.00,1.03
6167.00,1.04
6166.00,1.04
6165.00,1.04
6164.00,1.04
6163.00,1.04
6162.00,1.04
6161.00,1.04
6160.00,1.04
6159.00,1.04
6158.00,1.05
6157.00,1.05
6156.00,1.05
6155.00,1.05
6154.00,1.05
6153.00,1.05
6152.00,1.05
6151.00,1.05
6150.00,1.05
6149.00,1.05
6148.00,1.05
6147.00,1.05
6146.00,1.05
6145.00,1.05
6144.00,1.06
6143.00,1.06
6142.00,1.06
6141.00,1.06
6140.00,1.06
6139.00,1.06
6138.00,1.06
6137.00,1.07
6136.00,1.07
6135.00,1.07
6134.00,1.07
6133.00,1.07
6132.00,1.07
6131.00,1.08
6130.00,1.08
6129.00,1.08
6128.00,1.08
6127.00,1.08
6126.00,1.08
6125.00,1.09
6124.00,1.09
6123.00,1.09
6122.00,1.09
6121.00,1.09
6120.00,1.09
6119.00,1.09
6118.00,1.09
6117.00,1.09
6116.00,1.09
6115.00,1.09
6114.00,1.09
6113.00,1.10
6112.00,1.10
6111.00,1.10
6110.00,1.10
6109.00,1.10
6108.00,1.10
6107.00,1.10
6106.00,1.11
6105.00,1.11
6104.00,1.11
6103.00,1.11
6102.00,1.11
6101.00,1.11
6100.00,1.12
6099.00,1.12
6098.00,1.12
6097.00,1.12
6096.00,1.12
6095.00,1.12
6094.00,1.13
6093.00,1.13
6092.00,1.13
6091.00,1.13
6090.00,1.13
6089.00,1.13
6088.00,1.13
6087.00,1.13
6086.00,1.13
6085.00,1.13
6084.00,1.14
6083.00,1.14
6082.00,1.14
6081.00,1.14
6080.00,1.14
6079.00,1.14
6078.00,1.14
6077.00,1.14
6076.00,1.14
6075.00,1.14
6074.00,1.14
6073.00,1.14
6072.00,1.14
6071.00,1.14
6070.00,1.14
6069.00,1.14
6068.00,1.15
6067.00,1.15
6066.00,1.15
6065.00,1.15
6064.00,1.15
6063.00,1.15
6062.00,1.15
6061.00,1.15
6060.00,1.15
6059.00,1.15
6058.00,1.15
6057.00,1.15
6056.00,1.15
6055.00,1.15
6054.00,1.16
6053.00,1.16
6052.00,1.16
6051.00,1.16
6050.00,1.16
6049.00,1.16
6048.00,1.16
6047.00,1.16
6046.00,1.16
6045.00,1.16
6044.00,1.16
6043.00,1.16
6042.00,1.16
6041.00,1.16
6040.00,1.16
6039.00,1.16
6038.00,1.16
6037.00,1.16
6036.00,1.17
6035.00,1.17
6034.00,1.17
6033.00,1.17
6032.00,1.17
6031.00,1.17
6030.00,1.17
6029.00,1.17
6028.00,1.17
6027.00,1.17
6026.00,1.17
6025.00,1.17
6024.00,1.17
6023.00,1.17
6022.00,1.18
6021.00,1.18
6020.00,1.18
6019.00,1.18
6018.00,1.18
6017.00,1.18
6016.00,1.18
6015.00,1.18
6014.00,1.18
6013.00,1.18
6012.00,1.18
6011.00,1.18
6010.00,1.18
6009.00,1.18
6008.00,1.18
6007.00,1.18
6006.00,1.17
6005.00,1.17
6004.00,1.17
6003.00,1.17
6002.00,1.17
6001.00,1.17
6000.00,1.17
5999.00,1.17
5998.00,1.17
5997.00,1.17
5996.00,1.17
5995.00,1.17
5994.00,1.17
5993.00,1.17
5992.00,1.17
5991.00,1.17
5990.00,1.17
5989.00,1.17
5988.00,1.16
5987.00,1.16
5986.00,1.16
5985.00,1.16
5984.00,1.16
5983.00,1.15
5982.00,1.15
5981.00,1.15
5980.00,1.14
5979.00,1.14
5978.00,1.14
5977.00,1.13
5976.00,1.13
5975.00,1.12
5974.00,1.12
5973.00,1.11
5972.00,1.11
5971.00,1.10
5970.00,1.10
5969.00,1.09
5968.00,1.09
5967.00,1.08
5966.00,1.08
5965.00,1.07
5964.00,1.06
5963.00,1.06
5962.00,1.05
5961.00,1.05
5960.00,1.04
5959.00,1.04
5958.00,1.03
5957.00,1.03
5956.00,1.02
5955.00,1.02
5954.00,1.01
5953.00,1.01
5952.00,1.01
5951.00,1.00
5950.00,1.00
5949.00,1.00
5948.00,1.00
5947.00,0.99
5946.00,0.99
5945.00,0.99
5944.00,0.99
5943.00,0.99
5942.00,0.98
5941.00,0.98
5940.00,0.98
5939.00,0.98
5938.00,0.98
5937.00,0.98
5936.00,0.98
5935.00,0.98
5934.00,0.98
5933.00,0.98
5932.00,0.98
5931.00,0.98
5930.00,0.97
5929.00,0.97
5928.00,0.97
5927.00,0.97
5926.00,0.97
5925.00,0.97
5924.00,0.97
5923.00,0.96
5922.00,0.96
5921.00,0.96
5920.00,0.96
5919.00,0.96
5918.00,0.95
5917.00,0.95
5916.00,0.95
5915.00,0.95
5914.00,0.94
5913.00,0.94
5912.00,0.94
5911.00,0.94
5910.00,0.94
5909.00,0.94
5908.00,0.93
5907.00,0.93
5906.00,0.93
5905.00,0.93
5904.00,0.93
5903.00,0.93
5902.00,0.93
5901.00,0.93
5900.00,0.93
5899.00,0.93
5898.00,0.93
5897.00,0.94
5896.00,0.94
5895.00,0.94
5894.00,0.94
5893.00,0.94
5892.00,0.94
5891.00,0.95
5890.00,0.95
5889.00,0.95
5888.00,0.95
5887.00,0.95
5886.00,0.96
5885.00,0.96
5884.00,0.96
5883.00,0.96
5882.00,0.97
5881.00,0.97
5880.00,0.97
5879.00,0.97
5878.00,0.97
5877.00,0.98
5876.00,0.98
5875.00,0.98
5874.00,0.98
5873.00,0.98
5872.00,0.98
5871.00,0.99
5870.00,0.99
5869.00,0.99
5868.00,0.99
5867.00,0.99
5866.00,0.99
5865.00,1.00
5864.00,1.00
5863.00,1.00
5862.00,1.00
5861.00,1.00
5860.00,1.00
5859.00,1.00
5858.00,1.01
5857.00,1.01
5856.00,1.01
5855.00,1.01
5854.00,1.01
5853.00,1.01
5852.00,1.01
5851.00,1.01
5850.00,1.01
5849.00,1.02
5848.00,1.02
5847.00,1.02
5846.00,1.02
5845.00,1.02
5844.00,1.02
5843.00,1.02
5842.00,1.02
5841.00,1.02
5840.00,1.02
5839.00,1.02
5838.00,1.02
5837.00,1.02
5836.00,1.02
5835.00,1.02
5834.00,1.02
5833.00,1.02
5832.00,1.02
5831.00,1.02
5830.00,1.02
5829.00,1.02
5828.00,1.02
5827.00,1.02
5826.00,1.02
5825.00,1.02
5824.00,1.02
5823.00,1.02
5822.00,1.02
5821.00,1.02
5820.00,1.01
5819.00,1.01
5818.00,1.01
5817.00,1.01
5816.00,1.01
5815.00,1.01
5814.00,1.01
5813.00,1.01
5812.00,1.01
5811.00,1.01
5810.00,1.01
5809.00,1.01
5808.00,1.01
5807.00,1.01
5806.00,1.01
5805.00,1.01
5804.00,1.01
5803.00,1.01
5802.00,1.01
5801.00,1.01
5800.00,1.01
5799.00,1.01
5798.00,1.01
5797.00,1.00
5796.00,1.00
5795.00,1.00
5794.00,1.00
5793.00,1.00
5792.00,1.00
5791.00,1.00
5790.00,0.99
5789.00,0.99
5788.00,0.99
5787.00,0.99
5786.00,0.99
5785.00,0.98
5784.00,0.98
5783.00,0.98
5782.00,0.98
5781.00,0.98
5780.00,0.98
5779.00,0.97
5778.00,0.97
5777.00,0.97
5776.00,0.97
5775.00,0.97
5774.00,0.97
5773.00,0.97
5772.00,0.97
5771.00,0.97
5770.00,0.97
5769.00,0.97
5768.00,0.98
5767.00,0.98
5766.00,0.98
5765.00,0.98
5764.00,0.98
5763.00,0.98
5762.00,0.99
5761.00,0.99
5760.00,0.99
5759.00,0.99
5758.00,1.00
5757.00,1.00
5756.00,1.00
5755.00,1.00
5754.00,1.01
5753.00,1.01
5752.00,1.01
5751.00,1.01
5750.00,1.02
5749.00,1.02
5748.00,1.02
5747.00,1.02
5746.00,1.03
5745.00,1.03
5744.00,1.03
5743.00,1.03
5742.00,1.04
5741.00,1.04
5740.00,1.04
5739.00,1.04
5738.00,1.04
5737.00,1.04
5736.00,1.05
5735.00,1.05
5734.00,1.05
5733.00,1.05
5732.00,1.05
5731.00,1.05
5730.00,1.05
5729.00,1.05
5728.00,1.05
5727.00,1.05
5726.00,1.06
5725.00,1.06
5724.00,1.06
5723.00,1.06
5722.00,1.06
5721.00,1.06
5720.00,1.06
5719.00,1.06
5718.00,1.06
5717.00,1.06
5716.00,1.06
5715.00,1.06
5714.00,1.06
5713.00,1.06
5712.00,1.06
5711.00,1.06
5710.00,1.06
5709.00,1.06
5708.00,1.05
5707.00,1.05
5706.00,1.05
5705.00,1.05
5704.00,1.05
5703.00,1.05
5702.00,1.05
5701.00,1.05
5700.00,1.05
5699.00,1.05
5698.00,1.04
5697.00,1.04
5696.00,1.04
5695.00,1.04
5694.00,1.04
5693.00,1.04
5692.00,1.04
5691.00,1.04
5690.00,1.04
5689.00,1.04
5688.00,1.03
5687.00,1.03
5686.00,1.03
5685.00,1.03
5684.00,1.03
5683.00,1.03
5682.00,1.03
5681.00,1.03
5680.00,1.03
5679.00,1.03
5678.00,1.03
5677.00,1.03
5676.00,1.03
5675.00,1.03
5674.00,1.03
5673.00,1.03
5672.00,1.03
5671.00,1.03
5670.00,1.03
5669.00,1.03
5668.00,1.03
5667.00,1.03
5666.00,1.03
5665.00,1.03
5664.00,1.03
5663.00,1.03
5662.00,1.03
5661.00,1.03
5660.00,1.04
5659.00,1.04
5658.00,1.04
5657.00,1.04
5656.00,1.04
5655.00,1.04
5654.00,1.04
5653.00,1.05
5652.00,1.05
5651.00,1.05
5650.00,1.05
5649.00,1.05
5648.00,1.05
5647.00,1.05
5646.00,1.05
5645.00,1.06
5644.00,1.06
5643.00,1.06
5642.00,1.06
5641.00,1.06
5640.00,1.06
5639.00,1.06
5638.00,1.06
5637.00,1.07
5636.00,1.07
5635.00,1.07
5634.00,1.07
5633.00,1.07
5632.00,1.07
5631.00,1.07
5630.00,1.07
5629.00,1.08
5628.00,1.08
5627.00,1.08
5626.00,1.08
5625.00,1.08
5624.00,1.08
5623.00,1.08
5622.00,1.08
5621.00,1.09
5620.00,1.09
5619.00,1.09
5618.00,1.09
5617.00,1.09
5616.00,1.09
5615.00,1.09
5614.00,1.09
5613.00,1.10
5612.00,1.10
5611.00,1.10
5610.00,1.10
5609.00,1.10
5608.00,1.10
5607.00,1.10
5606.00,1.10
5605.00,1.11
5604.00,1.11
5603.00,1.11
5602.00,1.11
5601.00,1.11
5600.00,1.11
5599.00,1.11
5598.00,1.11
5597.00,1.11
5596.00,1.11
5595.00,1.11
5594.00,1.12
5593.00,1.12
5592.00,1.12
5591.00,1.12
5590.00,1.12
5589.00,1.12
5588.00,1.12
5587.00,1.13
5586.00,1.13
5585.00,1.13
5584.00,1.13
5583.00,1.13
5582.00,1.13
5581.00,1.13
5580.00,1.14
5579.00,1.14
5578.00,1.14
5577.00,1.14
5576.00,1.14
5575.00,1.14
5574.00,1.14
5573.00,1.14
5572.00,1.14
5571.00,1.15
5570.00,1.15
5569.00,1.15
5568.00,1.15
5567.00,1.15
5566.00,1.15
5565.00,1.15
5564.00,1.15
5563.00,1.16
5562.00,1.16
5561.00,1.16
5560.00,1.16
5559.00,1.16
5558.00,1.16
5557.00,1.16
5556.00,1.16
5555.00,1.17
5554.00,1.17
5553.00,1.17
5552.00,1.17
5551.00,1.17
5550.00,1.17
5549.00,1.17
5548.00,1.17
5547.00,1.17
5546.00,1.17
5545.00,1.17
5544.00,1.17
5543.00,1.17
5542.00,1.17
5541.00,1.18
5540.00,1.18
5539.00,1.18
5538.00,1.18
5537.00,1.18
5536.00,1.18
5535.00,1.18
5534.00,1.18
5533.00,1.19
5532.00,1.19
5531.00,1.19
5530.00,1.19
5529.00,1.19
5528.00,1.19
5527.00,1.19
5526.00,1.19
5525.00,1.19
5524.00,1.19
5523.00,1.20
5522.00,1.20
5521.00,1.20
5520.00,1.20
5519.00,1.20
5518.00,1.20
5517.00,1.20
5516.00,1.20
5515.00,1.20
5514.00,1.20
5513.00,1.20
5512.00,1.20
5511.00,1.20
5510.00,1.20
5509.00,1.20
5508.00,1.20
5507.00,1.20
5506.00,1.20
5505.00,1.20
5504.00,1.20
5503.00,1.20
5502.00,1.20
5501.00,1.20
5500.00,1.20
5499.00,1.21
5498.00,1.21
5497.00,1.21
5496.00,1.21
5495.00,1.21
5494.00,1.21
5493.00,1.21
5492.00,1.21
5491.00,1.21
5490.00,1.21
5489.00,1.21
5488.00,1.22
5487.00,1.22
5486.00,1.22
5485.00,1.22
5484.00,1.22
5483.00,1.22
5482.00,1.22
5481.00,1.22
5480.00,1.22
5479.00,1.22
5478.00,1.23
5477.00,1.23
5476.00,1.23
5475.00,1.23
5474.00,1.23
5473.00,1.23
5472.00,1.23
5471.00,1.23
5470.00,1.23
5469.00,1.23
5468.00,1.23
5467.00,1.23
5466.00,1.24
5465.00,1.24
5464.00,1.24
5463.00,1.24
5462.00,1.24
5461.00,1.24
5460.00,1.24
5459.00,1.24
5458.00,1.24
5457.00,1.24
5456.00,1.24
5455.00,1.24
5454.00,1.24
5453.00,1.24
5452.00,1.24
5451.00,1.24
5450.00,1.24
5449.00,1.24
5448.00,1.24
5447.00,1.24
5446.00,1.24
5445.00,1.24
5444.00,1.24
5443.00,1.25
5442.00,1.25
5441.00,1.25
5440.00,1.25
5439.00,1.25
5438.00,1.25
5437.00,1.25
5436.00,1.25
5435.00,1.25
5434.00,1.25
5433.00,1.25
5432.00,1.25
5431.00,1.25
5430.00,1.25
5429.00,1.25
5428.00,1.25
5427.00,1.26
5426.00,1.26
5425.00,1.26
5424.00,1.26
5423.00,1.26
5422.00,1.26
5421.00,1.26
5420.00,1.25
5419.00,1.25
5418.00,1.25
5417.00,1.25
5416.00,1.25
5415.00,1.25
5414.00,1.25
5413.00,1.25
5412.00,1.25
5411.00,1.25
5410.00,1.24
5409.00,1.24
5408.00,1.24
5407.00,1.24
5406.00,1.24
5405.00,1.24
5404.00,1.24
5403.00,1.24
5402.00,1.24
5401.00,1.24
5400.00,1.24
5399.00,1.24
5398.00,1.24
5397.00,1.24
5396.00,1.23
5395.00,1.23
5394.00,1.23
5393.00,1.23
5392.00,1.23
5391.00,1.23
5390.00,1.22
5389.00,1.22
5388.00,1.22
5387.00,1.22
5386.00,1.21
5385.00,1.21
5384.00,1.21
5383.00,1.21
5382.00,1.20
5381.00,1.20
5380.00,1.20
5379.00,1.19
5378.00,1.19
5377.00,1.19
5376.00,1.18
5375.00,1.18
5374.00,1.18
5373.00,1.17
5372.00,1.17
5371.00,1.17
5370.00,1.16
5369.00,1.16
5368.00,1.15
5367.00,1.15
5366.00,1.14
5365.00,1.14
5364.00,1.13
5363.00,1.13
5362.00,1.12
5361.00,1.12
5360.00,1.11
5359.00,1.11
5358.00,1.10
5357.00,1.10
5356.00,1.09
5355.00,1.08
5354.00,1.08
5353.00,1.07
5352.00,1.06
5351.00,1.06
5350.00,1.05
5349.00,1.04
5348.00,1.04
5347.00,1.03
5346.00,1.02
5345.00,1.01
5344.00,1.01
5343.00,1.00
5342.00,0.99
5341.00,0.98
5340.00,0.98
5339.00,0.97
5338.00,0.96
5337.00,0.95
5336.00,0.95
5335.00,0.94
5334.00,0.93
5333.00,0.93
5332.00,0.92
5331.00,0.91
5330.00,0.91
5329.00,0.90
5328.00,0.89
5327.00,0.89
5326.00,0.88
5325.00,0.87
5324.00,0.87
5323.00,0.86
5322.00,0.86
5321.00,0.85
5320.00,0.85
5319.00,0.84
5318.00,0.84
5317.00,0.83
5316.00,0.82
5315.00,0.82
5314.00,0.81
5313.00,0.81
5312.00,0.81
5311.00,0.80
5310.00,0.80
5309.00,0.79
5308.00,0.79
5307.00,0.79
5306.00,0.78
5305.00,0.78
5304.00,0.78
5303.00,0.77
5302.00,0.77
5301.00,0.77
5300.00,0.77
5299.00,0.77
5298.00,0.76
5297.00,0.76
5296.00,0.76
5295.00,0.76
5294.00,0.76
5293.00,0.76
5292.00,0.76
5291.00,0.76
5290.00,0.76
5289.00,0.76
5288.00,0.75
5287.00,0.75
5286.00,0.75
5285.00,0.75
5284.00,0.75
5283.00,0.75
5282.00,0.75
5281.00,0.75
5280.00,0.75
5279.00,0.75
5278.00,0.75
5277.00,0.75
5276.00,0.75
5275.00,0.75
5274.00,0.75
5273.00,0.75
5272.00,0.75
5271.00,0.75
5270.00,0.75
5269.00,0.75
5268.00,0.75
5267.00,0.75
5266.00,0.75
5265.00,0.75
5264.00,0.75
5263.00,0.75
5262.00,0.75
5261.00,0.75
5260.00,0.75
5259.00,0.75
5258.00,0.75
5257.00,0.75
5256.00,0.75
5255.00,0.75
5254.00,0.75
5253.00,0.75
5252.00,0.75
5251.00,0.75
5250.00,0.75
5249.00,0.75
5248.00,0.75
5247.00,0.75
5246.00,0.75
5245.00,0.75
5244.00,0.75
5243.00,0.75
5242.00,0.75
5241.00,0.75
5240.00,0.75
5239.00,0.75
5238.00,0.75
5237.00,0.75
5236.00,0.75
5235.00,0.75
5234.00,0.75
5233.00,0.75
5232.00,0.75
5231.00,0.75
5230.00,0.75
5229.00,0.75
5228.00,0.75
5227.00,0.75
5226.00,0.75
5225.00,0.75
5224.00,0.75
5223.00,0.75
5222.00,0.75
5221.00,0.75
5220.00,0.75
5219.00,0.76
5218.00,0.76
5217.00,0.76
5216.00,0.76
5215.00,0.76
5214.00,0.76
5213.00,0.76
5212.00,0.76
5211.00,0.76
5210.00,0.76
5209.00,0.76
5208.00,0.76
5207.00,0.76
5206.00,0.76
5205.00,0.76
5204.00,0.76
5203.00,0.76
5202.00,0.76
5201.00,0.76
5200.00,0.76
5199.00,0.76
5198.00,0.76
5197.00,0.76
5196.00,0.76
5195.00,0.76
5194.00,0.76
5193.00,0.77
5192.00,0.77
5191.00,0.77
5190.00,0.77
5189.00,0.77
5188.00,0.77
5187.00,0.77
5186.00,0.77
5185.00,0.77
5184.00,0.77
5183.00,0.77
5182.00,0.77
5181.00,0.77
5180.00,0.77
5179.00,0.77
5178.00,0.77
5177.00,0.77
5176.00,0.77
5175.00,0.77
5174.00,0.77
5173.00,0.77
5172.00,0.77
5171.00,0.77
5170.00,0.77
5169.00,0.77
5168.00,0.77
5167.00,0.77
5166.00,0.77
5165.00,0.77
5164.00,0.77
5163.00,0.77
5162.00,0.77
5161.00,0.78
5160.00,0.78
5159.00,0.78
5158.00,0.78
5157.00,0.78
5156.00,0.78
5155.00,0.78
5154.00,0.78
5153.00,0.78
5152.00,0.78
5151.00,0.78
5150.00,0.78
5149.00,0.78
5148.00,0.78
5147.00,0.78
5146.00,0.78
5145.00,0.78
5144.00,0.78
5143.00,0.78
5142.00,0.79
5141.00,0.79
5140.00,0.79
5139.00,0.79
5138.00,0.79
5137.00,0.79
5136.00,0.79
5135.00,0.79
5134.00,0.79
5133.00,0.79
5132.00,0.79
5131.00,0.79
5130.00,0.79
5129.00,0.79
5128.00,0.79
5127.00,0.79
5126.00,0.79
5125.00,0.79
5124.00,0.79
5123.00,0.79
5122.00,0.79
5121.00,0.79
5120.00,0.79
5119.00,0.79
5118.00,0.79
5117.00,0.79
5116.00,0.79
5115.00,0.79
5114.00,0.79
5113.00,0.79
5112.00,0.79
5111.00,0.79
5110.00,0.79
5109.00,0.80
5108.00,0.80
5107.00,0.80
5106.00,0.80
5105.00,0.80
5104.00,0.80
5103.00,0.80
5102.00,0.80
5101.00,0.80
5100.00,0.80
5099.00,0.80
5098.00,0.80
5097.00,0.80
5096.00,0.80
5095.00,0.80
5094.00,0.80
5093.00,0.80
5092.00,0.80
5091.00,0.80
5090.00,0.80
5089.00,0.80
5088.00,0.80
5087.00,0.80
5086.00,0.80
5085.00,0.80
5084.00,0.80
5083.00,0.81
5082.00,0.81
5081.00,0.81
5080.00,0.81
5079.00,0.81
5078.00,0.81
5077.00,0.81
5076.00,0.81
5075.00,0.81
5074.00,0.81
5073.00,0.81
5072.00,0.81
5071.00,0.81
5070.00,0.81
5069.00,0.81
5068.00,0.81
5067.00,0.81
5066.00,0.81
5065.00,0.81
5064.00,0.82
5063.00,0.82
5062.00,0.82
5061.00,0.82
5060.00,0.82
5059.00,0.82
5058.00,0.82
5057.00,0.82
5056.00,0.82
5055.00,0.82
5054.00,0.82
5053.00,0.82
5052.00,0.82
5051.00,0.82
5050.00,0.82
5049.00,0.82
5048.00,0.82
5047.00,0.82
5046.00,0.83
5045.00,0.83
5044.00,0.83
5043.00,0.83
5042.00,0.83
5041.00,0.83
5040.00,0.83
5039.00,0.83
5038.00,0.83
5037.00,0.83
5036.00,0.83
5035.00,0.83
5034.00,0.82
5033.00,0.82
5032.00,0.82
5031.00,0.82
5030.00,0.82
5029.00,0.82
5028.00,0.82
5027.00,0.82
5026.00,0.82
5025.00,0.82
5024.00,0.82
5023.00,0.82
5022.00,0.82
5021.00,0.82
5020.00,0.82
5019.00,0.82
5018.00,0.82
5017.00,0.83
5016.00,0.83
5015.00,0.83
5014.00,0.83
5013.00,0.83
5012.00,0.83
5011.00,0.83
5010.00,0.83
5009.00,0.83
5008.00,0.83
5007.00,0.83
5006.00,0.83
5005.00,0.83
5004.00,0.83
5003.00,0.84
5002.00,0.84
5001.00,0.84
5000.00,0.84
4999.00,0.84
4998.00,0.84
4997.00,0.84
4996.00,0.84
4995.00,0.84
4994.00,0.84
4993.00,0.84
4992.00,0.84
4991.00,0.84
4990.00,0.84
4989.00,0.84
4988.00,0.84
4987.00,0.84
4986.00,0.84
4985.00,0.84
4984.00,0.84
4983.00,0.84
4982.00,0.84
4981.00,0.84
4980.00,0.84
4979.00,0.85
4978.00,0.85
4977.00,0.85
4976.00,0.85
4975.00,0.85
4974.00,0.85
4973.00,0.85
4972.00,0.85
4971.00,0.85
4970.00,0.85
4969.00,0.85
4968.00,0.85
4967.00,0.85
4966.00,0.85
4965.00,0.85
4964.00,0.85
4963.00,0.85
4962.00,0.85
4961.00,0.85
4960.00,0.86
4959.00,0.86
4958.00,0.86
4957.00,0.86
4956.00,0.86
4955.00,0.86
4954.00,0.86
4953.00,0.86
4952.00,0.86
4951.00,0.86
4950.00,0.86
4949.00,0.86
4948.00,0.87
4947.00,0.87
4946.00,0.87
4945.00,0.87
4944.00,0.87
4943.00,0.87
4942.00,0.87
4941.00,0.87
4940.00,0.87
4939.00,0.87
4938.00,0.88
4937.00,0.88
4936.00,0.88
4935.00,0.88
4934.00,0.88
4933.00,0.88
4932.00,0.88
4931.00,0.88
4930.00,0.88
4929.00,0.88
4928.00,0.88
4927.00,0.88
4926.00,0.88
4925.00,0.88
4924.00,0.88
4923.00,0.88
4922.00,0.88
4921.00,0.88
4920.00,0.88
4919.00,0.88
4918.00,0.88
4917.00,0.88
4916.00,0.88
4915.00,0.88
4914.00,0.88
4913.00,0.88
4912.00,0.88
4911.00,0.88
4910.00,0.88
4909.00,0.88
4908.00,0.89
4907.00,0.89
4906.00,0.89
4905.00,0.89
4904.00,0.89
4903.00,0.89
4902.00,0.89
4901.00,0.89
4900.00,0.89
4899.00,0.89
4898.00,0.89
4897.00,0.89
4896.00,0.89
4895.00,0.89
4894.00,0.89
4893.00,0.89
4892.00,0.89
4891.00,0.89
4890.00,0.89
4889.00,0.89
4888.00,0.89
4887.00,0.89
4886.00,0.89
4885.00,0.89
4884.00,0.89
4883.00,0.90
4882.00,0.90
4881.00,0.90
4880.00,0.90
4879.00,0.90
4878.00,0.90
4877.00,0.90
4876.00,0.90
4875.00,0.90
4874.00,0.90
4873.00,0.90
4872.00,0.90
4871.00,0.90
4870.00,0.90
4869.00,0.90
4868.00,0.90
4867.00,0.91
4866.00,0.91
4865.00,0.91
4864.00,0.91
4863.00,0.91
4862.00,0.91
4861.00,0.91
4860.00,0.90
4859.00,0.90
4858.00,0.90
4857.00,0.90
4856.00,0.90
4855.00,0.90
4854.00,0.90
4853.00,0.90
4852.00,0.90
4851.00,0.90
4850.00,0.90
4849.00,0.90
4848.00,0.91
4847.00,0.91
4846.00,0.91
4845.00,0.91
4844.00,0.91
4843.00,0.91
4842.00,0.91
4841.00,0.91
4840.00,0.91
4839.00,0.91
4838.00,0.91
4837.00,0.91
4836.00,0.91
4835.00,0.91
4834.00,0.91
4833.00,0.91
4832.00,0.91
4831.00,0.91
4830.00,0.91
4829.00,0.91
4828.00,0.91
4827.00,0.91
4826.00,0.91
4825.00,0.92
4824.00,0.92
4823.00,0.92
4822.00,0.92
4821.00,0.92
4820.00,0.92
4819.00,0.92
4818.00,0.92
4817.00,0.92
4816.00,0.92
4815.00,0.92
4814.00,0.92
4813.00,0.92
4812.00,0.92
4811.00,0.93
4810.00,0.93
4809.00,0.93
4808.00,0.93
4807.00,0.93
4806.00,0.93
4805.00,0.93
4804.00,0.93
4803.00,0.93
4802.00,0.93
4801.00,0.93
4800.00,0.93
4799.00,0.93
4798.00,0.94
4797.00,0.94
4796.00,0.94
4795.00,0.94
4794.00,0.94
4793.00,0.94
4792.00,0.94
4791.00,0.94
4790.00,0.94
4789.00,0.94
4788.00,0.94
4787.00,0.94
4786.00,0.94
4785.00,0.94
4784.00,0.95
4783.00,0.95
4782.00,0.95
4781.00,0.95
4780.00,0.95
4779.00,0.95
4778.00,0.95
4777.00,0.95
4776.00,0.95
4775.00,0.95
4774.00,0.95
4773.00,0.96
4772.00,0.96
4771.00,0.96
4770.00,0.96
4769.00,0.96
4768.00,0.96
4767.00,0.96
4766.00,0.96
4765.00,0.96
4764.00,0.96
4763.00,0.96
4762.00,0.96
4761.00,0.96
4760.00,0.96
4759.00,0.96
4758.00,0.96
4757.00,0.96
4756.00,0.96
4755.00,0.96
4754.00,0.96
4753.00,0.96
4752.00,0.96
4751.00,0.96
4750.00,0.96
4749.00,0.96
4748.00,0.96
4747.00,0.96
4746.00,0.96
4745.00,0.96
4744.00,0.97
4743.00,0.97
4742.00,0.97
4741.00,0.97
4740.00,0.97
4739.00,0.97
4738.00,0.97
4737.00,0.97
4736.00,0.97
4735.00,0.97
4734.00,0.97
4733.00,0.97
4732.00,0.98
4731.00,0.98
4730.00,0.98
4729.00,0.98
4728.00,0.98
4727.00,0.98
4726.00,0.98
4725.00,0.99
4724.00,0.99
4723.00,0.99
4722.00,0.99
4721.00,0.99
4720.00,1.00
4719.00,1.00
4718.00,1.00
4717.00,1.00
4716.00,1.00
4715.00,1.00
4714.00,1.00
4713.00,1.01
4712.00,1.01
4711.00,1.01
4710.00,1.01
4709.00,1.01
4708.00,1.01
4707.00,1.01
4706.00,1.01
4705.00,1.01
4704.00,1.01
4703.00,1.01
4702.00,1.01
4701.00,1.01
4700.00,1.02
4699.00,1.02
4698.00,1.02
4697.00,1.02
4696.00,1.02
4695.00,1.02
4694.00,1.02
4693.00,1.02
4692.00,1.02
4691.00,1.02
4690.00,1.03
4689.00,1.03
4688.00,1.03
4687.00,1.03
4686.00,1.03
4685.00,1.03
4684.00,1.03
4683.00,1.03
4682.00,1.03
4681.00,1.03
4680.00,1.03
4679.00,1.03
4678.00,1.03
4677.00,1.03
4676.00,1.03
4675.00,1.03
4674.00,1.03
4673.00,1.03
4672.00,1.04
4671.00,1.04
4670.00,1.04
4669.00,1.04
4668.00,1.04
4667.00,1.04
4666.00,1.04
4665.00,1.04
4664.00,1.04
4663.00,1.04
4662.00,1.04
4661.00,1.04
4660.00,1.04
4659.00,1.04
4658.00,1.04
4657.00,1.04
4656.00,1.04
4655.00,1.04
4654.00,1.04
4653.00,1.05
4652.00,1.05
4651.00,1.05
4650.00,1.05
4649.00,1.05
4648.00,1.05
4647.00,1.05
4646.00,1.05
4645.00,1.06
4644.00,1.06
4643.00,1.06
4642.00,1.06
4641.00,1.06
4640.00,1.06
4639.00,1.06
4638.00,1.06
4637.00,1.07
4636.00,1.07
4635.00,1.07
4634.00,1.07
4633.00,1.07
4632.00,1.07
4631.00,1.07
4630.00,1.07
4629.00,1.07
4628.00,1.07
4627.00,1.08
4626.00,1.08
4625.00,1.08
4624.00,1.08
4623.00,1.08
4622.00,1.08
4621.00,1.08
4620.00,1.08
4619.00,1.08
4618.00,1.08
4617.00,1.08
4616.00,1.08
4615.00,1.08
4614.00,1.08
4613.00,1.08
4612.00,1.08
4611.00,1.08
4610.00,1.08
4609.00,1.08
4608.00,1.08
4607.00,1.08
4606.00,1.09
4605.00,1.09
4604.00,1.09
4603.00,1.09
4602.00,1.09
4601.00,1.09
4600.00,1.09
4599.00,1.09
4598.00,1.09
4597.00,1.09
4596.00,1.09
4595.00,1.09
4594.00,1.09
4593.00,1.09
4592.00,1.09
4591.00,1.09
4590.00,1.08
4589.00,1.08
4588.00,1.08
4587.00,1.08
4586.00,1.08
4585.00,1.08
4584.00,1.08
4583.00,1.08
4582.00,1.08
4581.00,1.08
4580.00,1.09
4579.00,1.09
4578.00,1.09
4577.00,1.09
4576.00,1.09
4575.00,1.09
4574.00,1.09
4573.00,1.09
4572.00,1.09
4571.00,1.10
4570.00,1.10
4569.00,1.10
4568.00,1.10
4567.00,1.10
4566.00,1.10
4565.00,1.10
4564.00,1.11
4563.00,1.11
4562.00,1.11
4561.00,1.11
4560.00,1.11
4559.00,1.11
4558.00,1.11
4557.00,1.11
4556.00,1.11
4555.00,1.11
4554.00,1.11
4553.00,1.11
4552.00,1.11
4551.00,1.11
4550.00,1.11
4549.00,1.11
4548.00,1.11
4547.00,1.11
4546.00,1.11
4545.00,1.11
4544.00,1.11
4543.00,1.11
4542.00,1.11
4541.00,1.11
4540.00,1.11
4539.00,1.11
4538.00,1.11
4537.00,1.11
4536.00,1.11
4535.00,1.11
4534.00,1.11
4533.00,1.11
4532.00,1.11
4531.00,1.11
4530.00,1.12
4529.00,1.12
4528.00,1.12
4527.00,1.12
4526.00,1.12
4525.00,1.12
4524.00,1.12
4523.00,1.12
4522.00,1.12
4521.00,1.12
4520.00,1.12
4519.00,1.12
4518.00,1.12
4517.00,1.12
4516.00,1.12
4515.00,1.12
4514.00,1.12
4513.00,1.12
4512.00,1.12
4511.00,1.12
4510.00,1.12
4509.00,1.12
4508.00,1.12
4507.00,1.12
4506.00,1.12
4505.00,1.12
4504.00,1.12
4503.00,1.12
4502.00,1.12
4501.00,1.12
4500.00,1.12
4499.00,1.12
4498.00,1.12
4497.00,1.12
4496.00,1.12
4495.00,1.12
4494.00,1.12
4493.00,1.12
4492.00,1.12
4491.00,1.12
4490.00,1.12
4489.00,1.12
4488.00,1.12
4487.00,1.12
4486.00,1.12
4485.00,1.12
4484.00,1.12
4483.00,1.12
4482.00,1.12
4481.00,1.12
4480.00,1.12
4479.00,1.11
4478.00,1.11
4477.00,1.11
4476.00,1.11
4475.00,1.11
4474.00,1.11
4473.00,1.11
4472.00,1.11
4471.00,1.11
4470.00,1.10
4469.00,1.10
4468.00,1.10
4467.00,1.10
4466.00,1.10
4465.00,1.09
4464.00,1.09
4463.00,1.09
4462.00,1.09
4461.00,1.09
4460.00,1.09
4459.00,1.09
4458.00,1.08
4457.00,1.08
4456.00,1.08
4455.00,1.08
4454.00,1.08
4453.00,1.08
4452.00,1.08
4451.00,1.08
4450.00,1.08
4449.00,1.08
4448.00,1.08
4447.00,1.07
4446.00,1.07
4445.00,1.07
4444.00,1.07
4443.00,1.07
4442.00,1.07
4441.00,1.07
4440.00,1.07
4439.00,1.07
4438.00,1.06
4437.00,1.06
4436.00,1.06
4435.00,1.06
4434.00,1.06
4433.00,1.06
4432.00,1.06
4431.00,1.05
4430.00,1.05
4429.00,1.05
4428.00,1.05
4427.00,1.05
4426.00,1.05
4425.00,1.05
4424.00,1.05
4423.00,1.05
4422.00,1.05
4421.00,1.05
4420.00,1.05
4419.00,1.05
4418.00,1.05
4417.00,1.05
4416.00,1.05
4415.00,1.05
4414.00,1.05
4413.00,1.05
4412.00,1.05
4411.00,1.05
4410.00,1.05
4409.00,1.05
4408.00,1.05
4407.00,1.05
4406.00,1.05
4405.00,1.05
4404.00,1.05
4403.00,1.05
4402.00,1.05
4401.00,1.05
4400.00,1.05
4399.00,1.06
4398.00,1.06
4397.00,1.06
4396.00,1.06
4395.00,1.06
4394.00,1.06
4393.00,1.06
4392.00,1.06
4391.00,1.06
4390.00,1.06
4389.00,1.07
4388.00,1.07
4387.00,1.07
4386.00,1.07
4385.00,1.07
4384.00,1.07
4383.00,1.07
4382.00,1.07
4381.00,1.07
4380.00,1.07
4379.00,1.07
4378.00,1.07
4377.00,1.07
4376.00,1.07
4375.00,1.07
4374.00,1.07
4373.00,1.07
4372.00,1.07
4371.00,1.07
4370.00,1.07
4369.00,1.07
4368.00,1.07
4367.00,1.07
4366.00,1.07
4365.00,1.07
4364.00,1.07
4363.00,1.07
4362.00,1.07
4361.00,1.07
4360.00,1.07
4359.00,1.07
4358.00,1.07
4357.00,1.07
4356.00,1.07
4355.00,1.07
4354.00,1.08
4353.00,1.08
4352.00,1.08
4351.00,1.08
4350.00,1.08
4349.00,1.08
4348.00,1.08
4347.00,1.08
4346.00,1.08
4345.00,1.08
4344.00,1.08
4343.00,1.08
4342.00,1.08
4341.00,1.08
4340.00,1.08
4339.00,1.08
4338.00,1.08
4337.00,1.08
4336.00,1.09
4335.00,1.09
4334.00,1.09
4333.00,1.09
4332.00,1.09
4331.00,1.09
4330.00,1.09
4329.00,1.09
4328.00,1.09
4327.00,1.09
4326.00,1.10
4325.00,1.10
4324.00,1.10
4323.00,1.10
4322.00,1.10
4321.00,1.10
4320.00,1.10
4319.00,1.10
4318.00,1.11
4317.00,1.11
4316.00,1.11
4315.00,1.11
4314.00,1.11
4313.00,1.11
4312.00,1.11
4311.00,1.11
4310.00,1.11
4309.00,1.12
4308.00,1.12
4307.00,1.12
4306.00,1.12
4305.00,1.12
4304.00,1.12
4303.00,1.12
4302.00,1.12
4301.00,1.12
4300.00,1.12
4299.00,1.12
4298.00,1.12
4297.00,1.12
4296.00,1.12
4295.00,1.12
4294.00,1.12
4293.00,1.12
4292.00,1.12
4291.00,1.12
4290.00,1.12
4289.00,1.12
4288.00,1.12
4287.00,1.12
4286.00,1.12
4285.00,1.12
4284.00,1.13
4283.00,1.13
4282.00,1.13
4281.00,1.13
4280.00,1.13
4279.00,1.13
4278.00,1.13
4277.00,1.13
4276.00,1.13
4275.00,1.13
4274.00,1.13
4273.00,1.14
4272.00,1.14
4271.00,1.14
4270.00,1.14
4269.00,1.14
4268.00,1.14
4267.00,1.14
4266.00,1.14
4265.00,1.14
4264.00,1.14
4263.00,1.14
4262.00,1.13
4261.00,1.13
4260.00,1.13
4259.00,1.13
4258.00,1.13
4257.00,1.13
4256.00,1.13
4255.00,1.13
4254.00,1.13
4253.00,1.13
4252.00,1.13
4251.00,1.13
4250.00,1.13
4249.00,1.13
4248.00,1.14
4247.00,1.14
4246.00,1.14
4245.00,1.14
4244.00,1.14
4243.00,1.14
4242.00,1.14
4241.00,1.14
4240.00,1.14
4239.00,1.14
4238.00,1.14
4237.00,1.14
4236.00,1.14
4235.00,1.14
4234.00,1.14
4233.00,1.14
4232.00,1.14
4231.00,1.14
4230.00,1.14
4229.00,1.14
4228.00,1.14
4227.00,1.14
4226.00,1.14
4225.00,1.15
4224.00,1.15
4223.00,1.15
4222.00,1.15
4221.00,1.15
4220.00,1.15
4219.00,1.15
4218.00,1.15
4217.00,1.15
4216.00,1.15
4215.00,1.15
4214.00,1.15
4213.00,1.15
4212.00,1.15
4211.00,1.15
4210.00,1.15
4209.00,1.15
4208.00,1.15
4207.00,1.15
4206.00,1.15
4205.00,1.15
4204.00,1.15
4203.00,1.15
4202.00,1.15
4201.00,1.15
4200.00,1.15
4199.00,1.15
4198.00,1.15
4197.00,1.15
4196.00,1.15
4195.00,1.15
4194.00,1.15
4193.00,1.15
4192.00,1.16
4191.00,1.16
4190.00,1.16
4189.00,1.16
4188.00,1.16
4187.00,1.16
4186.00,1.16
4185.00,1.17
4184.00,1.17
4183.00,1.17
4182.00,1.17
4181.00,1.17
4180.00,1.17
4179.00,1.17
4178.00,1.17
4177.00,1.17
4176.00,1.17
4175.00,1.17
4174.00,1.17
4173.00,1.17
4172.00,1.17
4171.00,1.17
4170.00,1.17
4169.00,1.17
4168.00,1.17
4167.00,1.17
4166.00,1.17
4165.00,1.17
4164.00,1.17
4163.00,1.17
4162.00,1.17
4161.00,1.17
4160.00,1.17
4159.00,1.17
4158.00,1.17
4157.00,1.17
4156.00,1.17
4155.00,1.17
4154.00,1.17
4153.00,1.17
4152.00,1.17
4151.00,1.17
4150.00,1.17
4149.00,1.17
4148.00,1.17
4147.00,1.17
4146.00,1.17
4145.00,1.17
4144.00,1.17
4143.00,1.17
4142.00,1.17
4141.00,1.17
4140.00,1.17
4139.00,1.17
4138.00,1.17
4137.00,1.17
4136.00,1.17
4135.00,1.17
4134.00,1.18
4133.00,1.18
4132.00,1.18
4131.00,1.18
4130.00,1.18
4129.00,1.18
4128.00,1.18
4127.00,1.18
4126.00,1.19
4125.00,1.19
4124.00,1.19
4123.00,1.19
4122.00,1.19
4121.00,1.19
4120.00,1.20
4119.00,1.20
4118.00,1.20
4117.00,1.20
4116.00,1.20
4115.00,1.20
4114.00,1.20
4113.00,1.20
4112.00,1.20
4111.00,1.20
4110.00,1.20
4109.00,1.20
4108.00,1.20
4107.00,1.20
4106.00,1.20
4105.00,1.20
4104.00,1.20
4103.00,1.20
4102.00,1.20
4101.00,1.20
4100.00,1.19
4099.00,1.19
4098.00,1.19
4097.00,1.19
4096.00,1.19
4095.00,1.19
4094.00,1.19
4093.00,1.19
4092.00,1.19
4091.00,1.19
4090.00,1.19
4089.00,1.19
4088.00,1.19
4087.00,1.19
4086.00,1.19
4085.00,1.19
4084.00,1.20
4083.00,1.20
4082.00,1.20
4081.00,1.20
4080.00,1.21
4079.00,1.21
4078.00,1.21
4077.00,1.21
4076.00,1.21
4075.00,1.22
4074.00,1.22
4073.00,1.22
4072.00,1.22
4071.00,1.22
4070.00,1.22
4069.00,1.22
4068.00,1.22
4067.00,1.22
4066.00,1.22
4065.00,1.22
4064.00,1.21
4063.00,1.21
4062.00,1.21
4061.00,1.21
4060.00,1.21
4059.00,1.21
4058.00,1.21
4057.00,1.21
4056.00,1.21
4055.00,1.21
4054.00,1.21
4053.00,1.21
4052.00,1.21
4051.00,1.21
4050.00,1.21
4049.00,1.21
4048.00,1.21
4047.00,1.21
4046.00,1.21
4045.00,1.21
4044.00,1.22
4043.00,1.22
4042.00,1.22
4041.00,1.22
4040.00,1.22
4039.00,1.22
4038.00,1.22
4037.00,1.22
4036.00,1.22
4035.00,1.22
4034.00,1.22
4033.00,1.22
4032.00,1.22
4031.00,1.22
4030.00,1.22
4029.00,1.22
4028.00,1.22
4027.00,1.22
4026.00,1.22
4025.00,1.22
4024.00,1.23
4023.00,1.23
4022.00,1.23
4021.00,1.23
4020.00,1.23
4019.00,1.24
4018.00,1.24
4017.00,1.24
4016.00,1.24
4015.00,1.25
4014.00,1.25
4013.00,1.25
4012.00,1.25
4011.00,1.25
4010.00,1.25
4009.00,1.25
4008.00,1.26
4007.00,1.26
4006.00,1.26
4005.00,1.26
4004.00,1.26
4003.00,1.26
4002.00,1.26
4001.00,1.26
4000.00,1.26
