创建为新数据集,样品 037 用户 Administrator 日期 星期五, 七月 20 2018
cm-1,%T
10000.00,0.99
9999.00,0.99
9998.00,1.00
9997.00,1.00
9996.00,1.00
9995.00,1.01
9994.00,1.01
9993.00,1.01
9992.00,1.02
9991.00,1.02
9990.00,1.02
9989.00,1.02
9988.00,1.03
9987.00,1.03
9986.00,1.03
9985.00,1.03
9984.00,1.03
9983.00,1.03
9982.00,1.03
9981.00,1.03
9980.00,1.02
9979.00,1.02
9978.00,1.02
9977.00,1.02
9976.00,1.02
9975.00,1.02
9974.00,1.02
9973.00,1.02
9972.00,1.02
9971.00,1.02
9970.00,1.02
9969.00,1.02
9968.00,1.02
9967.00,1.02
9966.00,1.02
9965.00,1.02
9964.00,1.02
9963.00,1.02
9962.00,1.02
9961.00,1.02
9960.00,1.02
9959.00,1.01
9958.00,1.01
9957.00,1.01
9956.00,1.01
9955.00,1.01
9954.00,1.00
9953.00,1.00
9952.00,1.00
9951.00,1.00
9950.00,0.99
9949.00,0.99
9948.00,0.99
9947.00,0.99
9946.00,0.99
9945.00,0.99
9944.00,0.99
9943.00,0.99
9942.00,0.99
9941.00,0.99
9940.00,0.99
9939.00,0.99
9938.00,0.99
9937.00,0.99
9936.00,1.00
9935.00,1.00
9934.00,1.00
9933.00,1.00
9932.00,1.00
9931.00,1.00
9930.00,1.01
9929.00,1.01
9928.00,1.01
9927.00,1.01
9926.00,1.01
9925.00,1.01
9924.00,1.02
9923.00,1.02
9922.00,1.02
9921.00,1.02
9920.00,1.02
9919.00,1.02
9918.00,1.02
9917.00,1.02
9916.00,1.02
9915.00,1.02
9914.00,1.02
9913.00,1.01
9912.00,1.01
9911.00,1.01
9910.00,1.01
9909.00,1.01
9908.00,1.00
9907.00,1.00
9906.00,1.00
9905.00,1.00
9904.00,1.00
9903.00,0.99
9902.00,0.99
9901.00,0.99
9900.00,0.99
9899.00,1.00
9898.00,1.00
9897.00,1.00
9896.00,1.00
9895.00,1.00
9894.00,1.00
9893.00,1.01
9892.00,1.01
9891.00,1.01
9890.00,1.01
9889.00,1.02
9888.00,1.02
9887.00,1.02
9886.00,1.02
9885.00,1.02
9884.00,1.02
9883.00,1.02
9882.00,1.02
9881.00,1.02
9880.00,1.02
9879.00,1.02
9878.00,1.02
9877.00,1.02
9876.00,1.02
9875.00,1.02
9874.00,1.01
9873.00,1.01
9872.00,1.01
9871.00,1.01
9870.00,1.01
9869.00,1.00
9868.00,1.00
9867.00,1.00
9866.00,1.00
9865.00,0.99
9864.00,0.99
9863.00,0.99
9862.00,0.99
9861.00,0.99
9860.00,0.99
9859.00,0.99
9858.00,0.99
9857.00,0.99
9856.00,0.99
9855.00,0.99
9854.00,1.00
9853.00,1.00
9852.00,1.00
9851.00,1.00
9850.00,1.00
9849.00,1.00
9848.00,1.00
9847.00,0.99
9846.00,0.99
9845.00,0.99
9844.00,0.99
9843.00,0.98
9842.00,0.98
9841.00,0.98
9840.00,0.98
9839.00,0.97
9838.00,0.97
9837.00,0.97
9836.00,0.96
9835.00,0.96
9834.00,0.96
9833.00,0.96
9832.00,0.95
9831.00,0.95
9830.00,0.95
9829.00,0.95
9828.00,0.95
9827.00,0.95
9826.00,0.95
9825.00,0.95
9824.00,0.95
9823.00,0.96
9822.00,0.96
9821.00,0.96
9820.00,0.96
9819.00,0.96
9818.00,0.96
9817.00,0.96
9816.00,0.96
9815.00,0.96
9814.00,0.96
9813.00,0.97
9812.00,0.97
9811.00,0.97
9810.00,0.97
9809.00,0.97
9808.00,0.97
9807.00,0.97
9806.00,0.97
9805.00,0.97
9804.00,0.97
9803.00,0.97
9802.00,0.97
9801.00,0.98
9800.00,0.98
9799.00,0.98
9798.00,0.98
9797.00,0.98
9796.00,0.98
9795.00,0.98
9794.00,0.99
9793.00,0.99
9792.00,0.99
9791.00,0.99
9790.00,1.00
9789.00,1.00
9788.00,1.00
9787.00,1.00
9786.00,1.00
9785.00,1.01
9784.00,1.01
9783.00,1.01
9782.00,1.01
9781.00,1.01
9780.00,1.01
9779.00,1.01
9778.00,1.01
9777.00,1.01
9776.00,1.01
9775.00,1.01
9774.00,1.01
9773.00,1.01
9772.00,1.01
9771.00,1.01
9770.00,1.01
9769.00,1.01
9768.00,1.01
9767.00,1.01
9766.00,1.01
9765.00,1.01
9764.00,1.02
9763.00,1.02
9762.00,1.02
9761.00,1.02
9760.00,1.02
9759.00,1.02
9758.00,1.02
9757.00,1.02
9756.00,1.03
9755.00,1.03
9754.00,1.03
9753.00,1.03
9752.00,1.03
9751.00,1.03
9750.00,1.03
9749.00,1.03
9748.00,1.03
9747.00,1.03
9746.00,1.03
9745.00,1.03
9744.00,1.03
9743.00,1.02
9742.00,1.02
9741.00,1.02
9740.00,1.02
9739.00,1.01
9738.00,1.01
9737.00,1.01
9736.00,1.00
9735.00,1.00
9734.00,1.00
9733.00,0.99
9732.00,0.99
9731.00,0.99
9730.00,0.98
9729.00,0.98
9728.00,0.98
9727.00,0.98
9726.00,0.97
9725.00,0.97
9724.00,0.97
9723.00,0.97
9722.00,0.98
9721.00,0.98
9720.00,0.98
9719.00,0.98
9718.00,0.98
9717.00,0.99
9716.00,0.99
9715.00,0.99
9714.00,0.99
9713.00,1.00
9712.00,1.00
9711.00,1.00
9710.00,1.01
9709.00,1.01
9708.00,1.01
9707.00,1.01
9706.00,1.02
9705.00,1.02
9704.00,1.02
9703.00,1.02
9702.00,1.02
9701.00,1.02
9700.00,1.02
9699.00,1.02
9698.00,1.02
9697.00,1.02
9696.00,1.02
9695.00,1.02
9694.00,1.02
9693.00,1.02
9692.00,1.02
9691.00,1.01
9690.00,1.01
9689.00,1.01
9688.00,1.01
9687.00,1.00
9686.00,1.00
9685.00,1.00
9684.00,0.99
9683.00,0.99
9682.00,0.99
9681.00,0.98
9680.00,0.98
9679.00,0.98
9678.00,0.97
9677.00,0.97
9676.00,0.97
9675.00,0.97
9674.00,0.97
9673.00,0.97
9672.00,0.97
9671.00,0.97
9670.00,0.97
9669.00,0.97
9668.00,0.97
9667.00,0.98
9666.00,0.98
9665.00,0.98
9664.00,0.98
9663.00,0.98
9662.00,0.99
9661.00,0.99
9660.00,0.99
9659.00,0.99
9658.00,0.99
9657.00,0.99
9656.00,1.00
9655.00,1.00
9654.00,1.00
9653.00,1.00
9652.00,1.00
9651.00,1.00
9650.00,1.00
9649.00,1.01
9648.00,1.01
9647.00,1.01
9646.00,1.01
9645.00,1.01
9644.00,1.01
9643.00,1.01
9642.00,1.01
9641.00,1.01
9640.00,1.01
9639.00,1.01
9638.00,1.01
9637.00,1.01
9636.00,1.01
9635.00,1.01
9634.00,1.01
9633.00,1.01
9632.00,1.01
9631.00,1.01
9630.00,1.01
9629.00,1.01
9628.00,1.01
9627.00,1.01
9626.00,1.01
9625.00,1.01
9624.00,1.01
9623.00,1.01
9622.00,1.01
9621.00,1.01
9620.00,1.01
9619.00,1.01
9618.00,1.01
9617.00,1.00
9616.00,1.00
9615.00,1.00
9614.00,1.00
9613.00,1.00
9612.00,1.00
9611.00,1.00
9610.00,1.00
9609.00,1.00
9608.00,1.00
9607.00,1.00
9606.00,1.00
9605.00,1.00
9604.00,1.00
9603.00,1.00
9602.00,1.00
9601.00,1.00
9600.00,1.00
9599.00,1.00
9598.00,0.99
9597.00,0.99
9596.00,0.99
9595.00,0.99
9594.00,0.99
9593.00,0.99
9592.00,0.99
9591.00,0.99
9590.00,0.99
9589.00,0.98
9588.00,0.98
9587.00,0.98
9586.00,0.99
9585.00,0.99
9584.00,0.99
9583.00,0.99
9582.00,0.99
9581.00,1.00
9580.00,1.00
9579.00,1.00
9578.00,1.01
9577.00,1.01
9576.00,1.01
9575.00,1.01
9574.00,1.02
9573.00,1.02
9572.00,1.02
9571.00,1.02
9570.00,1.02
9569.00,1.02
9568.00,1.03
9567.00,1.03
9566.00,1.03
9565.00,1.03
9564.00,1.02
9563.00,1.02
9562.00,1.02
9561.00,1.02
9560.00,1.02
9559.00,1.02
9558.00,1.02
9557.00,1.02
9556.00,1.02
9555.00,1.02
9554.00,1.02
9553.00,1.02
9552.00,1.02
9551.00,1.02
9550.00,1.02
9549.00,1.02
9548.00,1.02
9547.00,1.02
9546.00,1.02
9545.00,1.02
9544.00,1.02
9543.00,1.02
9542.00,1.02
9541.00,1.02
9540.00,1.02
9539.00,1.02
9538.00,1.02
9537.00,1.01
9536.00,1.01
9535.00,1.01
9534.00,1.01
9533.00,1.01
9532.00,1.01
9531.00,1.01
9530.00,1.01
9529.00,1.01
9528.00,1.01
9527.00,1.01
9526.00,1.01
9525.00,1.01
9524.00,1.01
9523.00,1.01
9522.00,1.01
9521.00,1.01
9520.00,1.01
9519.00,1.01
9518.00,1.01
9517.00,1.01
9516.00,1.01
9515.00,1.01
9514.00,1.01
9513.00,1.01
9512.00,1.01
9511.00,1.01
9510.00,1.01
9509.00,1.01
9508.00,1.01
9507.00,1.01
9506.00,1.00
9505.00,1.00
9504.00,1.00
9503.00,1.00
9502.00,1.00
9501.00,1.00
9500.00,0.99
9499.00,0.99
9498.00,0.99
9497.00,0.99
9496.00,0.99
9495.00,0.99
9494.00,0.98
9493.00,0.98
9492.00,0.98
9491.00,0.98
9490.00,0.98
9489.00,0.98
9488.00,0.98
9487.00,0.98
9486.00,0.98
9485.00,0.98
9484.00,0.98
9483.00,0.98
9482.00,0.98
9481.00,0.98
9480.00,0.98
9479.00,0.99
9478.00,0.99
9477.00,0.99
9476.00,1.00
9475.00,1.00
9474.00,1.00
9473.00,1.01
9472.00,1.01
9471.00,1.01
9470.00,1.02
9469.00,1.02
9468.00,1.02
9467.00,1.02
9466.00,1.02
9465.00,1.02
9464.00,1.02
9463.00,1.02
9462.00,1.02
9461.00,1.02
9460.00,1.02
9459.00,1.01
9458.00,1.01
9457.00,1.01
9456.00,1.01
9455.00,1.01
9454.00,1.01
9453.00,1.01
9452.00,1.01
9451.00,1.01
9450.00,1.01
9449.00,1.01
9448.00,1.02
9447.00,1.02
9446.00,1.02
9445.00,1.02
9444.00,1.02
9443.00,1.02
9442.00,1.02
9441.00,1.02
9440.00,1.02
9439.00,1.02
9438.00,1.02
9437.00,1.02
9436.00,1.01
9435.00,1.01
9434.00,1.01
9433.00,1.00
9432.00,1.00
9431.00,1.00
9430.00,0.99
9429.00,0.99
9428.00,0.99
9427.00,0.99
9426.00,0.98
9425.00,0.98
9424.00,0.98
9423.00,0.98
9422.00,0.98
9421.00,0.98
9420.00,0.98
9419.00,0.98
9418.00,0.98
9417.00,0.98
9416.00,0.98
9415.00,0.98
9414.00,0.98
9413.00,0.98
9412.00,0.98
9411.00,0.98
9410.00,0.98
9409.00,0.98
9408.00,0.98
9407.00,0.98
9406.00,0.98
9405.00,0.99
9404.00,0.99
9403.00,0.99
9402.00,0.99
9401.00,0.99
9400.00,0.99
9399.00,0.99
9398.00,0.99
9397.00,0.99
9396.00,0.99
9395.00,1.00
9394.00,1.00
9393.00,1.00
9392.00,1.00
9391.00,1.00
9390.00,1.00
9389.00,1.00
9388.00,1.00
9387.00,1.00
9386.00,0.99
9385.00,0.99
9384.00,0.99
9383.00,0.99
9382.00,0.99
9381.00,0.99
9380.00,0.99
9379.00,0.99
9378.00,0.99
9377.00,0.99
9376.00,0.99
9375.00,0.99
9374.00,0.99
9373.00,0.99
9372.00,1.00
9371.00,1.00
9370.00,1.00
9369.00,1.00
9368.00,1.00
9367.00,1.00
9366.00,1.01
9365.00,1.01
9364.00,1.01
9363.00,1.01
9362.00,1.01
9361.00,1.01
9360.00,1.01
9359.00,1.02
9358.00,1.02
9357.00,1.02
9356.00,1.02
9355.00,1.02
9354.00,1.02
9353.00,1.02
9352.00,1.02
9351.00,1.01
9350.00,1.01
9349.00,1.01
9348.00,1.01
9347.00,1.01
9346.00,1.01
9345.00,1.01
9344.00,1.01
9343.00,1.01
9342.00,1.01
9341.00,1.01
9340.00,1.01
9339.00,1.01
9338.00,1.01
9337.00,1.01
9336.00,1.00
9335.00,1.00
9334.00,1.00
9333.00,1.00
9332.00,1.00
9331.00,1.00
9330.00,1.00
9329.00,1.00
9328.00,1.00
9327.00,1.00
9326.00,1.00
9325.00,1.00
9324.00,1.00
9323.00,1.00
9322.00,1.00
9321.00,1.00
9320.00,1.00
9319.00,1.00
9318.00,1.00
9317.00,1.01
9316.00,1.01
9315.00,1.01
9314.00,1.01
9313.00,1.01
9312.00,1.01
9311.00,1.01
9310.00,1.01
9309.00,1.01
9308.00,1.01
9307.00,1.01
9306.00,1.02
9305.00,1.02
9304.00,1.02
9303.00,1.02
9302.00,1.02
9301.00,1.02
9300.00,1.02
9299.00,1.02
9298.00,1.02
9297.00,1.02
9296.00,1.02
9295.00,1.02
9294.00,1.02
9293.00,1.01
9292.00,1.01
9291.00,1.01
9290.00,1.01
9289.00,1.01
9288.00,1.01
9287.00,1.01
9286.00,1.01
9285.00,1.01
9284.00,1.01
9283.00,1.00
9282.00,1.00
9281.00,1.00
9280.00,1.00
9279.00,1.00
9278.00,1.00
9277.00,1.00
9276.00,1.00
9275.00,1.00
9274.00,1.00
9273.00,1.00
9272.00,1.00
9271.00,1.00
9270.00,1.00
9269.00,1.00
9268.00,1.00
9267.00,1.00
9266.00,1.00
9265.00,1.00
9264.00,1.00
9263.00,1.00
9262.00,1.00
9261.00,1.00
9260.00,1.00
9259.00,1.00
9258.00,1.00
9257.00,1.00
9256.00,1.00
9255.00,1.00
9254.00,1.00
9253.00,1.00
9252.00,1.00
9251.00,1.00
9250.00,1.01
9249.00,1.01
9248.00,1.01
9247.00,1.01
9246.00,1.01
9245.00,1.01
9244.00,1.01
9243.00,1.01
9242.00,1.01
9241.00,1.01
9240.00,1.01
9239.00,1.01
9238.00,1.01
9237.00,1.01
9236.00,1.01
9235.00,1.01
9234.00,1.01
9233.00,1.01
9232.00,1.01
9231.00,1.01
9230.00,1.01
9229.00,1.01
9228.00,1.01
9227.00,1.01
9226.00,1.01
9225.00,1.01
9224.00,1.01
9223.00,1.01
9222.00,1.01
9221.00,1.01
9220.00,1.02
9219.00,1.02
9218.00,1.02
9217.00,1.02
9216.00,1.02
9215.00,1.02
9214.00,1.02
9213.00,1.02
9212.00,1.02
9211.00,1.02
9210.00,1.02
9209.00,1.02
9208.00,1.02
9207.00,1.02
9206.00,1.02
9205.00,1.02
9204.00,1.01
9203.00,1.01
9202.00,1.01
9201.00,1.01
9200.00,1.01
9199.00,1.01
9198.00,1.01
9197.00,1.01
9196.00,1.01
9195.00,1.01
9194.00,1.01
9193.00,1.01
9192.00,1.01
9191.00,1.01
9190.00,1.01
9189.00,1.01
9188.00,1.01
9187.00,1.01
9186.00,1.01
9185.00,1.01
9184.00,1.01
9183.00,1.01
9182.00,1.01
9181.00,1.01
9180.00,1.01
9179.00,1.01
9178.00,1.01
9177.00,1.01
9176.00,1.02
9175.00,1.02
9174.00,1.02
9173.00,1.02
9172.00,1.02
9171.00,1.02
9170.00,1.02
9169.00,1.02
9168.00,1.02
9167.00,1.03
9166.00,1.03
9165.00,1.03
9164.00,1.03
9163.00,1.03
9162.00,1.03
9161.00,1.03
9160.00,1.03
9159.00,1.03
9158.00,1.03
9157.00,1.03
9156.00,1.03
9155.00,1.03
9154.00,1.02
9153.00,1.02
9152.00,1.02
9151.00,1.02
9150.00,1.02
9149.00,1.02
9148.00,1.02
9147.00,1.02
9146.00,1.02
9145.00,1.01
9144.00,1.01
9143.00,1.01
9142.00,1.01
9141.00,1.01
9140.00,1.01
9139.00,1.01
9138.00,1.01
9137.00,1.01
9136.00,1.01
9135.00,1.01
9134.00,1.01
9133.00,1.02
9132.00,1.02
9131.00,1.02
9130.00,1.02
9129.00,1.02
9128.00,1.02
9127.00,1.02
9126.00,1.02
9125.00,1.02
9124.00,1.03
9123.00,1.03
9122.00,1.03
9121.00,1.03
9120.00,1.03
9119.00,1.03
9118.00,1.03
9117.00,1.02
9116.00,1.02
9115.00,1.02
9114.00,1.02
9113.00,1.02
9112.00,1.02
9111.00,1.02
9110.00,1.02
9109.00,1.02
9108.00,1.01
9107.00,1.01
9106.00,1.01
9105.00,1.01
9104.00,1.01
9103.00,1.01
9102.00,1.01
9101.00,1.01
9100.00,1.01
9099.00,1.01
9098.00,1.01
9097.00,1.01
9096.00,1.01
9095.00,1.01
9094.00,1.01
9093.00,1.01
9092.00,1.01
9091.00,1.01
9090.00,1.01
9089.00,1.01
9088.00,1.01
9087.00,1.01
9086.00,1.01
9085.00,1.01
9084.00,1.01
9083.00,1.01
9082.00,1.01
9081.00,1.02
9080.00,1.02
9079.00,1.02
9078.00,1.02
9077.00,1.02
9076.00,1.02
9075.00,1.02
9074.00,1.02
9073.00,1.02
9072.00,1.02
9071.00,1.02
9070.00,1.02
9069.00,1.02
9068.00,1.02
9067.00,1.02
9066.00,1.02
9065.00,1.02
9064.00,1.01
9063.00,1.01
9062.00,1.01
9061.00,1.01
9060.00,1.01
9059.00,1.01
9058.00,1.01
9057.00,1.01
9056.00,1.01
9055.00,1.01
9054.00,1.01
9053.00,1.01
9052.00,1.01
9051.00,1.01
9050.00,1.01
9049.00,1.01
9048.00,1.01
9047.00,1.01
9046.00,1.01
9045.00,1.01
9044.00,1.00
9043.00,1.00
9042.00,1.00
9041.00,1.00
9040.00,1.01
9039.00,1.01
9038.00,1.01
9037.00,1.01
9036.00,1.01
9035.00,1.01
9034.00,1.01
9033.00,1.01
9032.00,1.01
9031.00,1.01
9030.00,1.01
9029.00,1.01
9028.00,1.01
9027.00,1.01
9026.00,1.01
9025.00,1.01
9024.00,1.01
9023.00,1.00
9022.00,1.00
9021.00,1.00
9020.00,1.00
9019.00,1.00
9018.00,1.00
9017.00,1.00
9016.00,1.00
9015.00,1.00
9014.00,1.00
9013.00,1.00
9012.00,0.99
9011.00,0.99
9010.00,0.99
9009.00,0.99
9008.00,0.99
9007.00,0.99
9006.00,0.99
9005.00,0.99
9004.00,0.99
9003.00,0.99
9002.00,0.99
9001.00,0.99
9000.00,0.99
8999.00,0.99
8998.00,0.99
8997.00,0.99
8996.00,1.00
8995.00,1.00
8994.00,1.00
8993.00,1.00
8992.00,1.00
8991.00,1.00
8990.00,1.00
8989.00,1.00
8988.00,1.00
8987.00,1.00
8986.00,1.00
8985.00,1.00
8984.00,1.00
8983.00,1.00
8982.00,1.00
8981.00,1.00
8980.00,1.00
8979.00,1.00
8978.00,1.00
8977.00,1.00
8976.00,1.00
8975.00,1.00
8974.00,1.00
8973.00,1.00
8972.00,1.00
8971.00,1.00
8970.00,1.00
8969.00,1.00
8968.00,1.00
8967.00,1.00
8966.00,1.00
8965.00,1.00
8964.00,1.00
8963.00,1.00
8962.00,1.00
8961.00,1.00
8960.00,1.00
8959.00,1.00
8958.00,1.00
8957.00,1.00
8956.00,1.00
8955.00,1.00
8954.00,1.00
8953.00,1.00
8952.00,1.00
8951.00,1.00
8950.00,1.00
8949.00,1.01
8948.00,1.01
8947.00,1.01
8946.00,1.01
8945.00,1.01
8944.00,1.02
8943.00,1.02
8942.00,1.02
8941.00,1.02
8940.00,1.02
8939.00,1.02
8938.00,1.02
8937.00,1.02
8936.00,1.02
8935.00,1.02
8934.00,1.02
8933.00,1.02
8932.00,1.02
8931.00,1.02
8930.00,1.02
8929.00,1.02
8928.00,1.01
8927.00,1.01
8926.00,1.01
8925.00,1.01
8924.00,1.01
8923.00,1.01
8922.00,1.01
8921.00,1.01
8920.00,1.01
8919.00,1.01
8918.00,1.01
8917.00,1.01
8916.00,1.01
8915.00,1.01
8914.00,1.01
8913.00,1.01
8912.00,1.01
8911.00,1.01
8910.00,1.01
8909.00,1.01
8908.00,1.01
8907.00,1.01
8906.00,1.01
8905.00,1.01
8904.00,1.01
8903.00,1.01
8902.00,1.01
8901.00,1.01
8900.00,1.01
8899.00,1.01
8898.00,1.01
8897.00,1.01
8896.00,1.02
8895.00,1.02
8894.00,1.02
8893.00,1.02
8892.00,1.02
8891.00,1.02
8890.00,1.02
8889.00,1.02
8888.00,1.02
8887.00,1.02
8886.00,1.02
8885.00,1.03
8884.00,1.03
8883.00,1.03
8882.00,1.03
8881.00,1.03
8880.00,1.03
8879.00,1.03
8878.00,1.03
8877.00,1.03
8876.00,1.03
8875.00,1.03
8874.00,1.03
8873.00,1.03
8872.00,1.03
8871.00,1.03
8870.00,1.03
8869.00,1.03
8868.00,1.03
8867.00,1.03
8866.00,1.03
8865.00,1.02
8864.00,1.02
8863.00,1.02
8862.00,1.02
8861.00,1.02
8860.00,1.02
8859.00,1.02
8858.00,1.01
8857.00,1.01
8856.00,1.01
8855.00,1.01
8854.00,1.01
8853.00,1.01
8852.00,1.00
8851.00,1.00
8850.00,1.00
8849.00,1.00
8848.00,1.00
8847.00,1.00
8846.00,1.00
8845.00,1.00
8844.00,1.00
8843.00,1.00
8842.00,1.00
8841.00,1.00
8840.00,1.00
8839.00,1.00
8838.00,1.00
8837.00,1.00
8836.00,1.00
8835.00,1.00
8834.00,1.00
8833.00,1.00
8832.00,1.00
8831.00,1.00
8830.00,1.00
8829.00,1.00
8828.00,1.00
8827.00,1.00
8826.00,1.00
8825.00,1.00
8824.00,1.00
8823.00,1.00
8822.00,1.00
8821.00,1.00
8820.00,1.00
8819.00,1.00
8818.00,1.00
8817.00,1.00
8816.00,1.00
8815.00,1.00
8814.00,0.99
8813.00,0.99
8812.00,0.99
8811.00,0.99
8810.00,0.99
8809.00,0.99
8808.00,0.99
8807.00,0.99
8806.00,0.99
8805.00,0.99
8804.00,0.99
8803.00,0.99
8802.00,0.99
8801.00,0.99
8800.00,0.99
8799.00,0.99
8798.00,0.99
8797.00,0.99
8796.00,0.99
8795.00,0.99
8794.00,0.99
8793.00,0.99
8792.00,0.99
8791.00,0.99
8790.00,0.99
8789.00,0.99
8788.00,0.99
8787.00,0.99
8786.00,0.98
8785.00,0.98
8784.00,0.98
8783.00,0.98
8782.00,0.98
8781.00,0.98
8780.00,0.98
8779.00,0.98
8778.00,0.98
8777.00,0.97
8776.00,0.97
8775.00,0.97
8774.00,0.97
8773.00,0.97
8772.00,0.97
8771.00,0.97
8770.00,0.97
8769.00,0.97
8768.00,0.97
8767.00,0.97
8766.00,0.97
8765.00,0.97
8764.00,0.97
8763.00,0.97
8762.00,0.97
8761.00,0.97
8760.00,0.97
8759.00,0.98
8758.00,0.98
8757.00,0.98
8756.00,0.98
8755.00,0.98
8754.00,0.98
8753.00,0.98
8752.00,0.98
8751.00,0.98
8750.00,0.98
8749.00,0.98
8748.00,0.98
8747.00,0.97
8746.00,0.97
8745.00,0.97
8744.00,0.97
8743.00,0.97
8742.00,0.97
8741.00,0.97
8740.00,0.97
8739.00,0.97
8738.00,0.96
8737.00,0.96
8736.00,0.96
8735.00,0.96
8734.00,0.96
8733.00,0.96
8732.00,0.96
8731.00,0.95
8730.00,0.95
8729.00,0.95
8728.00,0.95
8727.00,0.95
8726.00,0.95
8725.00,0.95
8724.00,0.95
8723.00,0.95
8722.00,0.95
8721.00,0.95
8720.00,0.96
8719.00,0.96
8718.00,0.96
8717.00,0.96
8716.00,0.96
8715.00,0.96
8714.00,0.96
8713.00,0.96
8712.00,0.96
8711.00,0.96
8710.00,0.96
8709.00,0.96
8708.00,0.96
8707.00,0.96
8706.00,0.96
8705.00,0.96
8704.00,0.96
8703.00,0.96
8702.00,0.96
8701.00,0.96
8700.00,0.96
8699.00,0.96
8698.00,0.96
8697.00,0.96
8696.00,0.96
8695.00,0.96
8694.00,0.96
8693.00,0.96
8692.00,0.96
8691.00,0.96
8690.00,0.96
8689.00,0.96
8688.00,0.96
8687.00,0.96
8686.00,0.96
8685.00,0.96
8684.00,0.96
8683.00,0.96
8682.00,0.96
8681.00,0.96
8680.00,0.96
8679.00,0.96
8678.00,0.96
8677.00,0.96
8676.00,0.96
8675.00,0.95
8674.00,0.95
8673.00,0.95
8672.00,0.95
8671.00,0.95
8670.00,0.95
8669.00,0.95
8668.00,0.95
8667.00,0.95
8666.00,0.95
8665.00,0.95
8664.00,0.94
8663.00,0.94
8662.00,0.94
8661.00,0.94
8660.00,0.94
8659.00,0.94
8658.00,0.94
8657.00,0.94
8656.00,0.94
8655.00,0.94
8654.00,0.94
8653.00,0.94
8652.00,0.94
8651.00,0.94
8650.00,0.94
8649.00,0.95
8648.00,0.95
8647.00,0.95
8646.00,0.95
8645.00,0.95
8644.00,0.95
8643.00,0.95
8642.00,0.96
8641.00,0.96
8640.00,0.96
8639.00,0.96
8638.00,0.96
8637.00,0.96
8636.00,0.96
8635.00,0.96
8634.00,0.96
8633.00,0.96
8632.00,0.96
8631.00,0.96
8630.00,0.96
8629.00,0.96
8628.00,0.96
8627.00,0.96
8626.00,0.96
8625.00,0.95
8624.00,0.95
8623.00,0.95
8622.00,0.95
8621.00,0.95
8620.00,0.94
8619.00,0.94
8618.00,0.94
8617.00,0.94
8616.00,0.94
8615.00,0.94
8614.00,0.93
8613.00,0.93
8612.00,0.93
8611.00,0.93
8610.00,0.93
8609.00,0.93
8608.00,0.93
8607.00,0.93
8606.00,0.93
8605.00,0.93
8604.00,0.93
8603.00,0.93
8602.00,0.93
8601.00,0.93
8600.00,0.93
8599.00,0.94
8598.00,0.94
8597.00,0.94
8596.00,0.94
8595.00,0.94
8594.00,0.94
8593.00,0.94
8592.00,0.94
8591.00,0.94
8590.00,0.94
8589.00,0.94
8588.00,0.94
8587.00,0.94
8586.00,0.94
8585.00,0.94
8584.00,0.94
8583.00,0.93
8582.00,0.93
8581.00,0.93
8580.00,0.93
8579.00,0.93
8578.00,0.93
8577.00,0.93
8576.00,0.93
8575.00,0.93
8574.00,0.93
8573.00,0.93
8572.00,0.93
8571.00,0.93
8570.00,0.93
8569.00,0.93
8568.00,0.93
8567.00,0.93
8566.00,0.93
8565.00,0.93
8564.00,0.93
8563.00,0.93
8562.00,0.93
8561.00,0.93
8560.00,0.93
8559.00,0.93
8558.00,0.93
8557.00,0.93
8556.00,0.93
8555.00,0.93
8554.00,0.93
8553.00,0.93
8552.00,0.93
8551.00,0.93
8550.00,0.93
8549.00,0.93
8548.00,0.93
8547.00,0.93
8546.00,0.93
8545.00,0.93
8544.00,0.93
8543.00,0.92
8542.00,0.92
8541.00,0.92
8540.00,0.92
8539.00,0.92
8538.00,0.92
8537.00,0.92
8536.00,0.92
8535.00,0.91
8534.00,0.91
8533.00,0.91
8532.00,0.91
8531.00,0.91
8530.00,0.91
8529.00,0.91
8528.00,0.91
8527.00,0.91
8526.00,0.91
8525.00,0.91
8524.00,0.90
8523.00,0.90
8522.00,0.90
8521.00,0.90
8520.00,0.90
8519.00,0.90
8518.00,0.90
8517.00,0.90
8516.00,0.90
8515.00,0.90
8514.00,0.90
8513.00,0.89
8512.00,0.89
8511.00,0.89
8510.00,0.89
8509.00,0.89
8508.00,0.89
8507.00,0.89
8506.00,0.89
8505.00,0.89
8504.00,0.89
8503.00,0.89
8502.00,0.89
8501.00,0.89
8500.00,0.89
8499.00,0.89
8498.00,0.89
8497.00,0.89
8496.00,0.89
8495.00,0.89
8494.00,0.89
8493.00,0.89
8492.00,0.89
8491.00,0.89
8490.00,0.89
8489.00,0.89
8488.00,0.89
8487.00,0.89
8486.00,0.89
8485.00,0.89
8484.00,0.89
8483.00,0.89
8482.00,0.89
8481.00,0.89
8480.00,0.89
8479.00,0.89
8478.00,0.88
8477.00,0.88
8476.00,0.88
8475.00,0.88
8474.00,0.88
8473.00,0.88
8472.00,0.88
8471.00,0.87
8470.00,0.87
8469.00,0.87
8468.00,0.87
8467.00,0.87
8466.00,0.87
8465.00,0.87
8464.00,0.87
8463.00,0.87
8462.00,0.87
8461.00,0.87
8460.00,0.87
8459.00,0.87
8458.00,0.87
8457.00,0.87
8456.00,0.87
8455.00,0.87
8454.00,0.87
8453.00,0.86
8452.00,0.86
8451.00,0.86
8450.00,0.86
8449.00,0.86
8448.00,0.86
8447.00,0.86
8446.00,0.86
8445.00,0.86
8444.00,0.86
8443.00,0.86
8442.00,0.86
8441.00,0.86
8440.00,0.86
8439.00,0.86
8438.00,0.86
8437.00,0.86
8436.00,0.86
8435.00,0.86
8434.00,0.86
8433.00,0.86
8432.00,0.86
8431.00,0.86
8430.00,0.87
8429.00,0.87
8428.00,0.87
8427.00,0.87
8426.00,0.87
8425.00,0.87
8424.00,0.87
8423.00,0.87
8422.00,0.87
8421.00,0.88
8420.00,0.88
8419.00,0.88
8418.00,0.88
8417.00,0.88
8416.00,0.88
8415.00,0.88
8414.00,0.88
8413.00,0.88
8412.00,0.88
8411.00,0.88
8410.00,0.88
8409.00,0.88
8408.00,0.88
8407.00,0.88
8406.00,0.88
8405.00,0.88
8404.00,0.88
8403.00,0.88
8402.00,0.88
8401.00,0.88
8400.00,0.88
8399.00,0.88
8398.00,0.89
8397.00,0.89
8396.00,0.89
8395.00,0.89
8394.00,0.89
8393.00,0.89
8392.00,0.89
8391.00,0.89
8390.00,0.90
8389.00,0.90
8388.00,0.90
8387.00,0.90
8386.00,0.90
8385.00,0.90
8384.00,0.90
8383.00,0.90
8382.00,0.90
8381.00,0.90
8380.00,0.90
8379.00,0.90
8378.00,0.90
8377.00,0.90
8376.00,0.90
8375.00,0.90
8374.00,0.90
8373.00,0.90
8372.00,0.90
8371.00,0.90
8370.00,0.90
8369.00,0.90
8368.00,0.90
8367.00,0.90
8366.00,0.90
8365.00,0.90
8364.00,0.90
8363.00,0.89
8362.00,0.89
8361.00,0.89
8360.00,0.89
8359.00,0.89
8358.00,0.89
8357.00,0.89
8356.00,0.89
8355.00,0.89
8354.00,0.89
8353.00,0.89
8352.00,0.89
8351.00,0.89
8350.00,0.89
8349.00,0.89
8348.00,0.89
8347.00,0.89
8346.00,0.90
8345.00,0.90
8344.00,0.90
8343.00,0.90
8342.00,0.90
8341.00,0.91
8340.00,0.91
8339.00,0.91
8338.00,0.91
8337.00,0.91
8336.00,0.91
8335.00,0.92
8334.00,0.92
8333.00,0.92
8332.00,0.92
8331.00,0.92
8330.00,0.92
8329.00,0.92
8328.00,0.92
8327.00,0.92
8326.00,0.91
8325.00,0.91
8324.00,0.91
8323.00,0.91
8322.00,0.91
8321.00,0.91
8320.00,0.90
8319.00,0.90
8318.00,0.90
8317.00,0.90
8316.00,0.90
8315.00,0.90
8314.00,0.90
8313.00,0.90
8312.00,0.90
8311.00,0.90
8310.00,0.90
8309.00,0.90
8308.00,0.90
8307.00,0.90
8306.00,0.90
8305.00,0.90
8304.00,0.90
8303.00,0.90
8302.00,0.90
8301.00,0.90
8300.00,0.90
8299.00,0.91
8298.00,0.91
8297.00,0.91
8296.00,0.91
8295.00,0.91
8294.00,0.91
8293.00,0.91
8292.00,0.91
8291.00,0.91
8290.00,0.91
8289.00,0.91
8288.00,0.91
8287.00,0.91
8286.00,0.91
8285.00,0.91
8284.00,0.91
8283.00,0.91
8282.00,0.91
8281.00,0.91
8280.00,0.91
8279.00,0.91
8278.00,0.91
8277.00,0.91
8276.00,0.91
8275.00,0.91
8274.00,0.91
8273.00,0.91
8272.00,0.91
8271.00,0.91
8270.00,0.91
8269.00,0.91
8268.00,0.92
8267.00,0.92
8266.00,0.92
8265.00,0.92
8264.00,0.92
8263.00,0.92
8262.00,0.92
8261.00,0.92
8260.00,0.92
8259.00,0.91
8258.00,0.91
8257.00,0.91
8256.00,0.91
8255.00,0.91
8254.00,0.91
8253.00,0.91
8252.00,0.91
8251.00,0.91
8250.00,0.91
8249.00,0.91
8248.00,0.91
8247.00,0.91
8246.00,0.91
8245.00,0.91
8244.00,0.91
8243.00,0.91
8242.00,0.91
8241.00,0.91
8240.00,0.91
8239.00,0.91
8238.00,0.92
8237.00,0.92
8236.00,0.92
8235.00,0.92
8234.00,0.92
8233.00,0.92
8232.00,0.93
8231.00,0.93
8230.00,0.93
8229.00,0.93
8228.00,0.93
8227.00,0.93
8226.00,0.93
8225.00,0.93
8224.00,0.93
8223.00,0.93
8222.00,0.93
8221.00,0.93
8220.00,0.93
8219.00,0.93
8218.00,0.93
8217.00,0.93
8216.00,0.93
8215.00,0.93
8214.00,0.93
8213.00,0.93
8212.00,0.93
8211.00,0.93
8210.00,0.93
8209.00,0.93
8208.00,0.93
8207.00,0.93
8206.00,0.93
8205.00,0.93
8204.00,0.93
8203.00,0.93
8202.00,0.93
8201.00,0.93
8200.00,0.93
8199.00,0.93
8198.00,0.93
8197.00,0.93
8196.00,0.93
8195.00,0.93
8194.00,0.93
8193.00,0.93
8192.00,0.93
8191.00,0.93
8190.00,0.93
8189.00,0.93
8188.00,0.93
8187.00,0.93
8186.00,0.93
8185.00,0.93
8184.00,0.93
8183.00,0.94
8182.00,0.94
8181.00,0.94
8180.00,0.94
8179.00,0.94
8178.00,0.94
8177.00,0.94
8176.00,0.95
8175.00,0.95
8174.00,0.95
8173.00,0.95
8172.00,0.95
8171.00,0.95
8170.00,0.95
8169.00,0.95
8168.00,0.95
8167.00,0.95
8166.00,0.95
8165.00,0.95
8164.00,0.95
8163.00,0.95
8162.00,0.95
8161.00,0.95
8160.00,0.95
8159.00,0.95
8158.00,0.95
8157.00,0.95
8156.00,0.95
8155.00,0.95
8154.00,0.95
8153.00,0.95
8152.00,0.95
8151.00,0.95
8150.00,0.95
8149.00,0.95
8148.00,0.95
8147.00,0.95
8146.00,0.95
8145.00,0.95
8144.00,0.95
8143.00,0.95
8142.00,0.95
8141.00,0.95
8140.00,0.95
8139.00,0.95
8138.00,0.95
8137.00,0.95
8136.00,0.95
8135.00,0.95
8134.00,0.95
8133.00,0.95
8132.00,0.95
8131.00,0.95
8130.00,0.95
8129.00,0.95
8128.00,0.95
8127.00,0.95
8126.00,0.95
8125.00,0.95
8124.00,0.95
8123.00,0.95
8122.00,0.95
8121.00,0.95
8120.00,0.95
8119.00,0.95
8118.00,0.95
8117.00,0.95
8116.00,0.96
8115.00,0.96
8114.00,0.96
8113.00,0.96
8112.00,0.96
8111.00,0.96
8110.00,0.96
8109.00,0.97
8108.00,0.97
8107.00,0.97
8106.00,0.97
8105.00,0.97
8104.00,0.97
8103.00,0.97
8102.00,0.97
8101.00,0.97
8100.00,0.97
8099.00,0.97
8098.00,0.97
8097.00,0.97
8096.00,0.97
8095.00,0.97
8094.00,0.97
8093.00,0.97
8092.00,0.97
8091.00,0.97
8090.00,0.97
8089.00,0.97
8088.00,0.98
8087.00,0.98
8086.00,0.98
8085.00,0.98
8084.00,0.98
8083.00,0.98
8082.00,0.98
8081.00,0.98
8080.00,0.98
8079.00,0.98
8078.00,0.98
8077.00,0.98
8076.00,0.98
8075.00,0.98
8074.00,0.98
8073.00,0.99
8072.00,0.99
8071.00,0.99
8070.00,0.99
8069.00,0.99
8068.00,0.99
8067.00,0.99
8066.00,0.99
8065.00,0.99
8064.00,0.99
8063.00,0.99
8062.00,0.99
8061.00,0.99
8060.00,0.99
8059.00,0.99
8058.00,0.99
8057.00,0.99
8056.00,0.99
8055.00,0.99
8054.00,0.99
8053.00,0.99
8052.00,0.99
8051.00,0.99
8050.00,0.99
8049.00,0.99
8048.00,0.99
8047.00,0.99
8046.00,0.99
8045.00,0.99
8044.00,0.99
8043.00,0.99
8042.00,0.99
8041.00,0.99
8040.00,0.99
8039.00,0.99
8038.00,0.99
8037.00,0.99
8036.00,0.99
8035.00,0.99
8034.00,0.99
8033.00,0.99
8032.00,0.99
8031.00,0.99
8030.00,0.99
8029.00,0.99
8028.00,0.99
8027.00,0.99
8026.00,0.99
8025.00,0.99
8024.00,0.99
8023.00,0.99
8022.00,0.99
8021.00,0.99
8020.00,0.99
8019.00,0.99
8018.00,0.99
8017.00,0.99
8016.00,0.99
8015.00,0.99
8014.00,0.99
8013.00,0.99
8012.00,0.99
8011.00,0.99
8010.00,1.00
8009.00,1.00
8008.00,1.00
8007.00,1.00
8006.00,1.00
8005.00,1.00
8004.00,1.00
8003.00,1.00
8002.00,1.00
8001.00,1.00
8000.00,1.00
7999.00,1.00
7998.00,1.00
7997.00,1.00
7996.00,1.00
7995.00,1.00
7994.00,1.00
7993.00,1.00
7992.00,1.00
7991.00,1.00
7990.00,1.00
7989.00,1.00
7988.00,1.00
7987.00,1.00
7986.00,1.00
7985.00,1.00
7984.00,1.00
7983.00,0.99
7982.00,0.99
7981.00,0.99
7980.00,0.99
7979.00,0.99
7978.00,0.99
7977.00,0.99
7976.00,0.99
7975.00,0.99
7974.00,0.99
7973.00,0.99
7972.00,0.99
7971.00,0.99
7970.00,0.99
7969.00,0.99
7968.00,0.99
7967.00,0.99
7966.00,0.99
7965.00,0.99
7964.00,0.99
7963.00,0.99
7962.00,0.99
7961.00,0.99
7960.00,0.99
7959.00,0.99
7958.00,0.99
7957.00,0.99
7956.00,0.99
7955.00,1.00
7954.00,1.00
7953.00,1.00
7952.00,1.00
7951.00,1.00
7950.00,1.00
7949.00,1.00
7948.00,1.00
7947.00,1.00
7946.00,1.00
7945.00,1.00
7944.00,1.00
7943.00,1.00
7942.00,1.00
7941.00,1.00
7940.00,1.00
7939.00,1.00
7938.00,1.00
7937.00,1.00
7936.00,1.00
7935.00,1.00
7934.00,1.00
7933.00,1.00
7932.00,1.00
7931.00,1.00
7930.00,1.00
7929.00,1.00
7928.00,1.00
7927.00,1.00
7926.00,1.00
7925.00,1.00
7924.00,1.01
7923.00,1.01
7922.00,1.01
7921.00,1.01
7920.00,1.01
7919.00,1.01
7918.00,1.01
7917.00,1.01
7916.00,1.01
7915.00,1.01
7914.00,1.01
7913.00,1.01
7912.00,1.01
7911.00,1.01
7910.00,1.01
7909.00,1.00
7908.00,1.00
7907.00,1.00
7906.00,1.00
7905.00,1.00
7904.00,1.00
7903.00,1.00
7902.00,1.00
7901.00,1.00
7900.00,1.00
7899.00,1.00
7898.00,1.00
7897.00,1.00
7896.00,1.00
7895.00,1.00
7894.00,1.00
7893.00,1.00
7892.00,1.00
7891.00,1.00
7890.00,1.00
7889.00,1.00
7888.00,1.00
7887.00,1.00
7886.00,1.00
7885.00,1.00
7884.00,1.00
7883.00,1.00
7882.00,1.00
7881.00,1.00
7880.00,1.00
7879.00,1.00
7878.00,1.00
7877.00,1.00
7876.00,1.00
7875.00,1.00
7874.00,1.00
7873.00,1.00
7872.00,1.00
7871.00,1.00
7870.00,1.00
7869.00,1.00
7868.00,1.00
7867.00,1.00
7866.00,1.00
7865.00,1.00
7864.00,1.00
7863.00,1.00
7862.00,1.00
7861.00,1.00
7860.00,1.00
7859.00,1.00
7858.00,1.00
7857.00,1.00
7856.00,1.00
7855.00,1.00
7854.00,1.00
7853.00,1.00
7852.00,1.00
7851.00,1.00
7850.00,1.00
7849.00,1.01
7848.00,1.01
7847.00,1.01
7846.00,1.01
7845.00,1.01
7844.00,1.01
7843.00,1.01
7842.00,1.01
7841.00,1.01
7840.00,1.01
7839.00,1.01
7838.00,1.01
7837.00,1.01
7836.00,1.01
7835.00,1.01
7834.00,1.01
7833.00,1.01
7832.00,1.01
7831.00,1.01
7830.00,1.01
7829.00,1.01
7828.00,1.01
7827.00,1.01
7826.00,1.01
7825.00,1.01
7824.00,1.00
7823.00,1.00
7822.00,1.00
7821.00,1.00
7820.00,1.00
7819.00,1.00
7818.00,1.00
7817.00,1.00
7816.00,1.00
7815.00,1.00
7814.00,1.00
7813.00,1.00
7812.00,1.00
7811.00,1.00
7810.00,1.00
7809.00,1.01
7808.00,1.01
7807.00,1.01
7806.00,1.01
7805.00,1.01
7804.00,1.01
7803.00,1.01
7802.00,1.01
7801.00,1.01
7800.00,1.01
7799.00,1.01
7798.00,1.01
7797.00,1.01
7796.00,1.01
7795.00,1.01
7794.00,1.01
7793.00,1.01
7792.00,1.01
7791.00,1.01
7790.00,1.02
7789.00,1.02
7788.00,1.02
7787.00,1.02
7786.00,1.02
7785.00,1.02
7784.00,1.02
7783.00,1.02
7782.00,1.02
7781.00,1.02
7780.00,1.02
7779.00,1.02
7778.00,1.02
7777.00,1.02
7776.00,1.02
7775.00,1.02
7774.00,1.02
7773.00,1.02
7772.00,1.02
7771.00,1.02
7770.00,1.01
7769.00,1.01
7768.00,1.01
7767.00,1.01
7766.00,1.01
7765.00,1.01
7764.00,1.01
7763.00,1.01
7762.00,1.01
7761.00,1.01
7760.00,1.01
7759.00,1.01
7758.00,1.01
7757.00,1.01
7756.00,1.01
7755.00,1.01
7754.00,1.02
7753.00,1.02
7752.00,1.02
7751.00,1.02
7750.00,1.02
7749.00,1.02
7748.00,1.02
7747.00,1.02
7746.00,1.02
7745.00,1.02
7744.00,1.02
7743.00,1.02
7742.00,1.02
7741.00,1.02
7740.00,1.02
7739.00,1.03
7738.00,1.03
7737.00,1.03
7736.00,1.03
7735.00,1.03
7734.00,1.03
7733.00,1.03
7732.00,1.03
7731.00,1.03
7730.00,1.03
7729.00,1.03
7728.00,1.03
7727.00,1.03
7726.00,1.03
7725.00,1.03
7724.00,1.03
7723.00,1.03
7722.00,1.03
7721.00,1.03
7720.00,1.03
7719.00,1.03
7718.00,1.03
7717.00,1.03
7716.00,1.03
7715.00,1.03
7714.00,1.03
7713.00,1.03
7712.00,1.03
7711.00,1.03
7710.00,1.03
7709.00,1.03
7708.00,1.03
7707.00,1.03
7706.00,1.03
7705.00,1.03
7704.00,1.03
7703.00,1.03
7702.00,1.03
7701.00,1.03
7700.00,1.03
7699.00,1.03
7698.00,1.03
7697.00,1.03
7696.00,1.03
7695.00,1.03
7694.00,1.03
7693.00,1.03
7692.00,1.03
7691.00,1.03
7690.00,1.03
7689.00,1.03
7688.00,1.03
7687.00,1.03
7686.00,1.03
7685.00,1.03
7684.00,1.03
7683.00,1.03
7682.00,1.03
7681.00,1.03
7680.00,1.03
7679.00,1.03
7678.00,1.03
7677.00,1.03
7676.00,1.03
7675.00,1.03
7674.00,1.03
7673.00,1.03
7672.00,1.03
7671.00,1.03
7670.00,1.03
7669.00,1.03
7668.00,1.03
7667.00,1.03
7666.00,1.02
7665.00,1.02
7664.00,1.02
7663.00,1.02
7662.00,1.02
7661.00,1.02
7660.00,1.02
7659.00,1.02
7658.00,1.02
7657.00,1.02
7656.00,1.02
7655.00,1.02
7654.00,1.03
7653.00,1.03
7652.00,1.03
7651.00,1.03
7650.00,1.03
7649.00,1.03
7648.00,1.03
7647.00,1.03
7646.00,1.03
7645.00,1.03
7644.00,1.03
7643.00,1.03
7642.00,1.03
7641.00,1.03
7640.00,1.03
7639.00,1.03
7638.00,1.03
7637.00,1.02
7636.00,1.02
7635.00,1.02
7634.00,1.02
7633.00,1.02
7632.00,1.02
7631.00,1.02
7630.00,1.02
7629.00,1.02
7628.00,1.02
7627.00,1.02
7626.00,1.02
7625.00,1.02
7624.00,1.02
7623.00,1.03
7622.00,1.03
7621.00,1.03
7620.00,1.03
7619.00,1.03
7618.00,1.03
7617.00,1.03
7616.00,1.03
7615.00,1.03
7614.00,1.03
7613.00,1.03
7612.00,1.03
7611.00,1.03
7610.00,1.03
7609.00,1.03
7608.00,1.03
7607.00,1.02
7606.00,1.02
7605.00,1.02
7604.00,1.02
7603.00,1.02
7602.00,1.02
7601.00,1.02
7600.00,1.03
7599.00,1.03
7598.00,1.03
7597.00,1.03
7596.00,1.03
7595.00,1.03
7594.00,1.03
7593.00,1.03
7592.00,1.03
7591.00,1.03
7590.00,1.03
7589.00,1.03
7588.00,1.03
7587.00,1.03
7586.00,1.03
7585.00,1.03
7584.00,1.03
7583.00,1.03
7582.00,1.03
7581.00,1.03
7580.00,1.03
7579.00,1.03
7578.00,1.03
7577.00,1.03
7576.00,1.03
7575.00,1.02
7574.00,1.02
7573.00,1.02
7572.00,1.02
7571.00,1.02
7570.00,1.02
7569.00,1.02
7568.00,1.02
7567.00,1.02
7566.00,1.02
7565.00,1.02
7564.00,1.02
7563.00,1.02
7562.00,1.02
7561.00,1.02
7560.00,1.02
7559.00,1.02
7558.00,1.02
7557.00,1.02
7556.00,1.02
7555.00,1.02
7554.00,1.02
7553.00,1.02
7552.00,1.02
7551.00,1.02
7550.00,1.02
7549.00,1.02
7548.00,1.02
7547.00,1.02
7546.00,1.02
7545.00,1.02
7544.00,1.02
7543.00,1.02
7542.00,1.02
7541.00,1.02
7540.00,1.02
7539.00,1.02
7538.00,1.02
7537.00,1.02
7536.00,1.02
7535.00,1.02
7534.00,1.02
7533.00,1.02
7532.00,1.02
7531.00,1.02
7530.00,1.02
7529.00,1.02
7528.00,1.02
7527.00,1.02
7526.00,1.02
7525.00,1.02
7524.00,1.02
7523.00,1.02
7522.00,1.02
7521.00,1.02
7520.00,1.02
7519.00,1.02
7518.00,1.02
7517.00,1.02
7516.00,1.02
7515.00,1.01
7514.00,1.01
7513.00,1.01
7512.00,1.01
7511.00,1.01
7510.00,1.01
7509.00,1.01
7508.00,1.01
7507.00,1.01
7506.00,1.01
7505.00,1.01
7504.00,1.01
7503.00,1.01
7502.00,1.01
7501.00,1.01
7500.00,1.01
7499.00,1.01
7498.00,1.01
7497.00,1.01
7496.00,1.00
7495.00,1.00
7494.00,1.00
7493.00,1.00
7492.00,1.00
7491.00,1.00
7490.00,1.00
7489.00,1.00
7488.00,1.00
7487.00,1.00
7486.00,1.00
7485.00,1.00
7484.00,1.00
7483.00,1.00
7482.00,1.00
7481.00,1.00
7480.00,1.00
7479.00,1.00
7478.00,1.00
7477.00,1.00
7476.00,1.00
7475.00,1.00
7474.00,1.00
7473.00,1.00
7472.00,1.00
7471.00,0.99
7470.00,0.99
7469.00,0.99
7468.00,0.99
7467.00,0.99
7466.00,0.99
7465.00,0.99
7464.00,0.99
7463.00,0.99
7462.00,0.99
7461.00,1.00
7460.00,1.00
7459.00,1.00
7458.00,1.00
7457.00,1.00
7456.00,0.99
7455.00,0.99
7454.00,0.99
7453.00,0.99
7452.00,0.99
7451.00,0.99
7450.00,0.99
7449.00,0.99
7448.00,0.99
7447.00,0.99
7446.00,0.98
7445.00,0.98
7444.00,0.98
7443.00,0.98
7442.00,0.98
7441.00,0.98
7440.00,0.97
7439.00,0.97
7438.00,0.97
7437.00,0.97
7436.00,0.97
7435.00,0.97
7434.00,0.97
7433.00,0.97
7432.00,0.97
7431.00,0.97
7430.00,0.97
7429.00,0.97
7428.00,0.97
7427.00,0.97
7426.00,0.97
7425.00,0.97
7424.00,0.97
7423.00,0.97
7422.00,0.97
7421.00,0.97
7420.00,0.97
7419.00,0.97
7418.00,0.97
7417.00,0.96
7416.00,0.96
7415.00,0.96
7414.00,0.96
7413.00,0.96
7412.00,0.96
7411.00,0.96
7410.00,0.96
7409.00,0.96
7408.00,0.95
7407.00,0.95
7406.00,0.95
7405.00,0.95
7404.00,0.95
7403.00,0.95
7402.00,0.95
7401.00,0.94
7400.00,0.94
7399.00,0.94
7398.00,0.94
7397.00,0.94
7396.00,0.94
7395.00,0.94
7394.00,0.94
7393.00,0.94
7392.00,0.94
7391.00,0.94
7390.00,0.94
7389.00,0.94
7388.00,0.94
7387.00,0.94
7386.00,0.94
7385.00,0.94
7384.00,0.94
7383.00,0.94
7382.00,0.93
7381.00,0.93
7380.00,0.93
7379.00,0.93
7378.00,0.93
7377.00,0.93
7376.00,0.93
7375.00,0.93
7374.00,0.93
7373.00,0.92
7372.00,0.92
7371.00,0.92
7370.00,0.92
7369.00,0.92
7368.00,0.92
7367.00,0.92
7366.00,0.92
7365.00,0.92
7364.00,0.92
7363.00,0.92
7362.00,0.92
7361.00,0.92
7360.00,0.91
7359.00,0.91
7358.00,0.91
7357.00,0.91
7356.00,0.91
7355.00,0.91
7354.00,0.91
7353.00,0.91
7352.00,0.91
7351.00,0.91
7350.00,0.91
7349.00,0.91
7348.00,0.91
7347.00,0.91
7346.00,0.91
7345.00,0.91
7344.00,0.91
7343.00,0.91
7342.00,0.91
7341.00,0.91
7340.00,0.91
7339.00,0.91
7338.00,0.91
7337.00,0.91
7336.00,0.91
7335.00,0.91
7334.00,0.91
7333.00,0.91
7332.00,0.91
7331.00,0.91
7330.00,0.91
7329.00,0.91
7328.00,0.91
7327.00,0.91
7326.00,0.91
7325.00,0.91
7324.00,0.90
7323.00,0.90
7322.00,0.90
7321.00,0.90
7320.00,0.90
7319.00,0.90
7318.00,0.90
7317.00,0.90
7316.00,0.90
7315.00,0.90
7314.00,0.90
7313.00,0.90
7312.00,0.90
7311.00,0.90
7310.00,0.90
7309.00,0.90
7308.00,0.90
7307.00,0.90
7306.00,0.90
7305.00,0.90
7304.00,0.90
7303.00,0.90
7302.00,0.90
7301.00,0.90
7300.00,0.90
7299.00,0.90
7298.00,0.90
7297.00,0.90
7296.00,0.90
7295.00,0.90
7294.00,0.89
7293.00,0.89
7292.00,0.89
7291.00,0.89
7290.00,0.89
7289.00,0.89
7288.00,0.89
7287.00,0.89
7286.00,0.89
7285.00,0.89
7284.00,0.89
7283.00,0.89
7282.00,0.89
7281.00,0.88
7280.00,0.88
7279.00,0.88
7278.00,0.88
7277.00,0.88
7276.00,0.88
7275.00,0.88
7274.00,0.88
7273.00,0.87
7272.00,0.87
7271.00,0.87
7270.00,0.87
7269.00,0.87
7268.00,0.86
7267.00,0.86
7266.00,0.86
7265.00,0.86
7264.00,0.86
7263.00,0.85
7262.00,0.85
7261.00,0.85
7260.00,0.85
7259.00,0.85
7258.00,0.85
7257.00,0.84
7256.00,0.84
7255.00,0.84
7254.00,0.84
7253.00,0.84
7252.00,0.84
7251.00,0.84
7250.00,0.84
7249.00,0.84
7248.00,0.83
7247.00,0.83
7246.00,0.83
7245.00,0.83
7244.00,0.83
7243.00,0.83
7242.00,0.83
7241.00,0.82
7240.00,0.82
7239.00,0.82
7238.00,0.82
7237.00,0.82
7236.00,0.81
7235.00,0.81
7234.00,0.81
7233.00,0.81
7232.00,0.81
7231.00,0.80
7230.00,0.80
7229.00,0.80
7228.00,0.79
7227.00,0.79
7226.00,0.79
7225.00,0.79
7224.00,0.78
7223.00,0.78
7222.00,0.78
7221.00,0.78
7220.00,0.77
7219.00,0.77
7218.00,0.77
7217.00,0.77
7216.00,0.76
7215.00,0.76
7214.00,0.76
7213.00,0.76
7212.00,0.75
7211.00,0.75
7210.00,0.75
7209.00,0.75
7208.00,0.74
7207.00,0.74
7206.00,0.74
7205.00,0.74
7204.00,0.74
7203.00,0.73
7202.00,0.73
7201.00,0.73
7200.00,0.73
7199.00,0.72
7198.00,0.72
7197.00,0.72
7196.00,0.72
7195.00,0.72
7194.00,0.71
7193.00,0.71
7192.00,0.71
7191.00,0.70
7190.00,0.70
7189.00,0.70
7188.00,0.70
7187.00,0.69
7186.00,0.69
7185.00,0.69
7184.00,0.69
7183.00,0.68
7182.00,0.68
7181.00,0.68
7180.00,0.68
7179.00,0.68
7178.00,0.67
7177.00,0.67
7176.00,0.67
7175.00,0.67
7174.00,0.67
7173.00,0.66
7172.00,0.66
7171.00,0.66
7170.00,0.66
7169.00,0.66
7168.00,0.65
7167.00,0.65
7166.00,0.65
7165.00,0.65
7164.00,0.65
7163.00,0.64
7162.00,0.64
7161.00,0.64
7160.00,0.64
7159.00,0.64
7158.00,0.64
7157.00,0.64
7156.00,0.64
7155.00,0.63
7154.00,0.63
7153.00,0.63
7152.00,0.63
7151.00,0.63
7150.00,0.63
7149.00,0.63
7148.00,0.62
7147.00,0.62
7146.00,0.62
7145.00,0.62
7144.00,0.62
7143.00,0.61
7142.00,0.61
7141.00,0.61
7140.00,0.61
7139.00,0.60
7138.00,0.60
7137.00,0.60
7136.00,0.60
7135.00,0.60
7134.00,0.60
7133.00,0.59
7132.00,0.59
7131.00,0.59
7130.00,0.59
7129.00,0.59
7128.00,0.59
7127.00,0.59
7126.00,0.59
7125.00,0.58
7124.00,0.58
7123.00,0.58
7122.00,0.58
7121.00,0.58
7120.00,0.58
7119.00,0.58
7118.00,0.57
7117.00,0.57
7116.00,0.57
7115.00,0.57
7114.00,0.57
7113.00,0.57
7112.00,0.57
7111.00,0.57
7110.00,0.56
7109.00,0.56
7108.00,0.56
7107.00,0.56
7106.00,0.56
7105.00,0.56
7104.00,0.56
7103.00,0.56
7102.00,0.56
7101.00,0.55
7100.00,0.55
7099.00,0.55
7098.00,0.55
7097.00,0.55
7096.00,0.55
7095.00,0.54
7094.00,0.54
7093.00,0.54
7092.00,0.54
7091.00,0.54
7090.00,0.53
7089.00,0.53
7088.00,0.53
7087.00,0.53
7086.00,0.53
7085.00,0.53
7084.00,0.53
7083.00,0.52
7082.00,0.52
7081.00,0.52
7080.00,0.52
7079.00,0.52
7078.00,0.52
7077.00,0.52
7076.00,0.52
7075.00,0.51
7074.00,0.51
7073.00,0.51
7072.00,0.51
7071.00,0.51
7070.00,0.51
7069.00,0.51
7068.00,0.51
7067.00,0.51
7066.00,0.51
7065.00,0.50
7064.00,0.50
7063.00,0.50
7062.00,0.50
7061.00,0.50
7060.00,0.50
7059.00,0.50
7058.00,0.50
7057.00,0.50
7056.00,0.50
7055.00,0.50
7054.00,0.50
7053.00,0.50
7052.00,0.50
7051.00,0.50
7050.00,0.50
7049.00,0.50
7048.00,0.50
7047.00,0.50
7046.00,0.50
7045.00,0.50
7044.00,0.49
7043.00,0.49
7042.00,0.49
7041.00,0.49
7040.00,0.49
7039.00,0.49
7038.00,0.49
7037.00,0.49
7036.00,0.49
7035.00,0.49
7034.00,0.49
7033.00,0.49
7032.00,0.49
7031.00,0.48
7030.00,0.48
7029.00,0.49
7028.00,0.49
7027.00,0.49
7026.00,0.49
7025.00,0.49
7024.00,0.49
7023.00,0.49
7022.00,0.49
7021.00,0.49
7020.00,0.49
7019.00,0.49
7018.00,0.49
7017.00,0.49
7016.00,0.49
7015.00,0.49
7014.00,0.49
7013.00,0.49
7012.00,0.48
7011.00,0.48
7010.00,0.48
7009.00,0.48
7008.00,0.48
7007.00,0.48
7006.00,0.48
7005.00,0.48
7004.00,0.48
7003.00,0.48
7002.00,0.48
7001.00,0.48
7000.00,0.48
6999.00,0.48
6998.00,0.48
6997.00,0.48
6996.00,0.48
6995.00,0.48
6994.00,0.48
6993.00,0.48
6992.00,0.48
6991.00,0.48
6990.00,0.48
6989.00,0.48
6988.00,0.48
6987.00,0.48
6986.00,0.48
6985.00,0.47
6984.00,0.47
6983.00,0.47
6982.00,0.47
6981.00,0.47
6980.00,0.47
6979.00,0.47
6978.00,0.47
6977.00,0.47
6976.00,0.47
6975.00,0.47
6974.00,0.47
6973.00,0.47
6972.00,0.47
6971.00,0.47
6970.00,0.47
6969.00,0.47
6968.00,0.47
6967.00,0.47
6966.00,0.46
6965.00,0.46
6964.00,0.46
6963.00,0.46
6962.00,0.46
6961.00,0.46
6960.00,0.47
6959.00,0.47
6958.00,0.47
6957.00,0.47
6956.00,0.47
6955.00,0.47
6954.00,0.47
6953.00,0.47
6952.00,0.47
6951.00,0.47
6950.00,0.47
6949.00,0.47
6948.00,0.47
6947.00,0.47
6946.00,0.47
6945.00,0.47
6944.00,0.47
6943.00,0.47
6942.00,0.47
6941.00,0.47
6940.00,0.47
6939.00,0.47
6938.00,0.47
6937.00,0.46
6936.00,0.46
6935.00,0.46
6934.00,0.46
6933.00,0.46
6932.00,0.46
6931.00,0.46
6930.00,0.46
6929.00,0.46
6928.00,0.46
6927.00,0.46
6926.00,0.46
6925.00,0.46
6924.00,0.46
6923.00,0.45
6922.00,0.45
6921.00,0.45
6920.00,0.45
6919.00,0.45
6918.00,0.45
6917.00,0.45
6916.00,0.45
6915.00,0.45
6914.00,0.45
6913.00,0.45
6912.00,0.45
6911.00,0.45
6910.00,0.45
6909.00,0.45
6908.00,0.45
6907.00,0.45
6906.00,0.45
6905.00,0.46
6904.00,0.46
6903.00,0.46
6902.00,0.46
6901.00,0.46
6900.00,0.46
6899.00,0.46
6898.00,0.46
6897.00,0.46
6896.00,0.46
6895.00,0.46
6894.00,0.46
6893.00,0.46
6892.00,0.46
6891.00,0.46
6890.00,0.46
6889.00,0.46
6888.00,0.46
6887.00,0.46
6886.00,0.46
6885.00,0.46
6884.00,0.46
6883.00,0.46
6882.00,0.46
6881.00,0.46
6880.00,0.46
6879.00,0.46
6878.00,0.46
6877.00,0.46
6876.00,0.46
6875.00,0.46
6874.00,0.46
6873.00,0.46
6872.00,0.46
6871.00,0.46
6870.00,0.46
6869.00,0.46
6868.00,0.46
6867.00,0.46
6866.00,0.46
6865.00,0.46
6864.00,0.46
6863.00,0.46
6862.00,0.46
6861.00,0.46
6860.00,0.46
6859.00,0.46
6858.00,0.46
6857.00,0.46
6856.00,0.46
6855.00,0.46
6854.00,0.46
6853.00,0.46
6852.00,0.46
6851.00,0.46
6850.00,0.46
6849.00,0.46
6848.00,0.46
6847.00,0.46
6846.00,0.46
6845.00,0.46
6844.00,0.46
6843.00,0.46
6842.00,0.46
6841.00,0.46
6840.00,0.46
6839.00,0.46
6838.00,0.46
6837.00,0.46
6836.00,0.46
6835.00,0.46
6834.00,0.46
6833.00,0.46
6832.00,0.46
6831.00,0.46
6830.00,0.46
6829.00,0.46
6828.00,0.46
6827.00,0.46
6826.00,0.46
6825.00,0.46
6824.00,0.46
6823.00,0.46
6822.00,0.46
6821.00,0.46
6820.00,0.46
6819.00,0.46
6818.00,0.46
6817.00,0.46
6816.00,0.46
6815.00,0.46
6814.00,0.46
6813.00,0.46
6812.00,0.46
6811.00,0.46
6810.00,0.46
6809.00,0.46
6808.00,0.46
6807.00,0.46
6806.00,0.46
6805.00,0.46
6804.00,0.46
6803.00,0.46
6802.00,0.46
6801.00,0.46
6800.00,0.46
6799.00,0.46
6798.00,0.47
6797.00,0.47
6796.00,0.47
6795.00,0.47
6794.00,0.47
6793.00,0.47
6792.00,0.47
6791.00,0.47
6790.00,0.47
6789.00,0.47
6788.00,0.47
6787.00,0.47
6786.00,0.47
6785.00,0.47
6784.00,0.47
6783.00,0.47
6782.00,0.47
6781.00,0.47
6780.00,0.47
6779.00,0.47
6778.00,0.47
6777.00,0.47
6776.00,0.47
6775.00,0.47
6774.00,0.47
6773.00,0.48
6772.00,0.48
6771.00,0.48
6770.00,0.48
6769.00,0.48
6768.00,0.48
6767.00,0.48
6766.00,0.48
6765.00,0.48
6764.00,0.48
6763.00,0.48
6762.00,0.48
6761.00,0.48
6760.00,0.48
6759.00,0.48
6758.00,0.48
6757.00,0.48
6756.00,0.48
6755.00,0.48
6754.00,0.48
6753.00,0.48
6752.00,0.48
6751.00,0.48
6750.00,0.48
6749.00,0.48
6748.00,0.48
6747.00,0.48
6746.00,0.48
6745.00,0.48
6744.00,0.48
6743.00,0.48
6742.00,0.48
6741.00,0.48
6740.00,0.48
6739.00,0.48
6738.00,0.48
6737.00,0.48
6736.00,0.48
6735.00,0.49
6734.00,0.49
6733.00,0.49
6732.00,0.49
6731.00,0.49
6730.00,0.49
6729.00,0.49
6728.00,0.49
6727.00,0.49
6726.00,0.49
6725.00,0.49
6724.00,0.49
6723.00,0.49
6722.00,0.49
6721.00,0.49
6720.00,0.49
6719.00,0.49
6718.00,0.49
6717.00,0.49
6716.00,0.49
6715.00,0.49
6714.00,0.49
6713.00,0.49
6712.00,0.49
6711.00,0.49
6710.00,0.49
6709.00,0.50
6708.00,0.50
6707.00,0.50
6706.00,0.50
6705.00,0.50
6704.00,0.50
6703.00,0.50
6702.00,0.50
6701.00,0.50
6700.00,0.50
6699.00,0.50
6698.00,0.50
6697.00,0.50
6696.00,0.50
6695.00,0.50
6694.00,0.50
6693.00,0.50
6692.00,0.50
6691.00,0.50
6690.00,0.50
6689.00,0.50
6688.00,0.51
6687.00,0.51
6686.00,0.51
6685.00,0.51
6684.00,0.51
6683.00,0.51
6682.00,0.51
6681.00,0.51
6680.00,0.51
6679.00,0.51
6678.00,0.51
6677.00,0.51
6676.00,0.51
6675.00,0.51
6674.00,0.51
6673.00,0.52
6672.00,0.52
6671.00,0.52
6670.00,0.52
6669.00,0.52
6668.00,0.52
6667.00,0.52
6666.00,0.52
6665.00,0.52
6664.00,0.52
6663.00,0.52
6662.00,0.53
6661.00,0.53
6660.00,0.53
6659.00,0.53
6658.00,0.53
6657.00,0.53
6656.00,0.53
6655.00,0.53
6654.00,0.53
6653.00,0.53
6652.00,0.53
6651.00,0.53
6650.00,0.53
6649.00,0.53
6648.00,0.53
6647.00,0.53
6646.00,0.53
6645.00,0.53
6644.00,0.53
6643.00,0.53
6642.00,0.53
6641.00,0.53
6640.00,0.53
6639.00,0.53
6638.00,0.53
6637.00,0.53
6636.00,0.53
6635.00,0.53
6634.00,0.53
6633.00,0.53
6632.00,0.53
6631.00,0.53
6630.00,0.53
6629.00,0.53
6628.00,0.53
6627.00,0.54
6626.00,0.54
6625.00,0.54
6624.00,0.54
6623.00,0.54
6622.00,0.54
6621.00,0.54
6620.00,0.54
6619.00,0.54
6618.00,0.54
6617.00,0.54
6616.00,0.54
6615.00,0.55
6614.00,0.55
6613.00,0.55
6612.00,0.55
6611.00,0.55
6610.00,0.55
6609.00,0.55
6608.00,0.55
6607.00,0.55
6606.00,0.55
6605.00,0.56
6604.00,0.56
6603.00,0.56
6602.00,0.56
6601.00,0.56
6600.00,0.56
6599.00,0.56
6598.00,0.56
6597.00,0.56
6596.00,0.56
6595.00,0.56
6594.00,0.56
6593.00,0.56
6592.00,0.56
6591.00,0.56
6590.00,0.56
6589.00,0.56
6588.00,0.56
6587.00,0.56
6586.00,0.56
6585.00,0.57
6584.00,0.57
6583.00,0.57
6582.00,0.57
6581.00,0.57
6580.00,0.57
6579.00,0.57
6578.00,0.57
6577.00,0.57
6576.00,0.57
6575.00,0.57
6574.00,0.57
6573.00,0.57
6572.00,0.57
6571.00,0.58
6570.00,0.58
6569.00,0.58
6568.00,0.58
6567.00,0.58
6566.00,0.58
6565.00,0.58
6564.00,0.58
6563.00,0.58
6562.00,0.58
6561.00,0.58
6560.00,0.58
6559.00,0.58
6558.00,0.58
6557.00,0.58
6556.00,0.58
6555.00,0.58
6554.00,0.58
6553.00,0.58
6552.00,0.58
6551.00,0.59
6550.00,0.59
6549.00,0.59
6548.00,0.59
6547.00,0.59
6546.00,0.59
6545.00,0.59
6544.00,0.59
6543.00,0.59
6542.00,0.59
6541.00,0.59
6540.00,0.59
6539.00,0.59
6538.00,0.59
6537.00,0.59
6536.00,0.59
6535.00,0.59
6534.00,0.59
6533.00,0.59
6532.00,0.59
6531.00,0.59
6530.00,0.59
6529.00,0.59
6528.00,0.59
6527.00,0.59
6526.00,0.59
6525.00,0.59
6524.00,0.59
6523.00,0.59
6522.00,0.59
6521.00,0.60
6520.00,0.60
6519.00,0.60
6518.00,0.60
6517.00,0.60
6516.00,0.60
6515.00,0.60
6514.00,0.60
6513.00,0.60
6512.00,0.60
6511.00,0.60
6510.00,0.60
6509.00,0.60
6508.00,0.60
6507.00,0.60
6506.00,0.60
6505.00,0.60
6504.00,0.60
6503.00,0.60
6502.00,0.60
6501.00,0.60
6500.00,0.60
6499.00,0.60
6498.00,0.60
6497.00,0.60
6496.00,0.60
6495.00,0.60
6494.00,0.60
6493.00,0.60
6492.00,0.60
6491.00,0.60
6490.00,0.60
6489.00,0.60
6488.00,0.60
6487.00,0.60
6486.00,0.60
6485.00,0.60
6484.00,0.60
6483.00,0.60
6482.00,0.60
6481.00,0.60
6480.00,0.60
6479.00,0.60
6478.00,0.60
6477.00,0.60
6476.00,0.61
6475.00,0.61
6474.00,0.61
6473.00,0.61
6472.00,0.61
6471.00,0.61
6470.00,0.61
6469.00,0.61
6468.00,0.61
6467.00,0.61
6466.00,0.61
6465.00,0.61
6464.00,0.61
6463.00,0.61
6462.00,0.61
6461.00,0.62
6460.00,0.62
6459.00,0.62
6458.00,0.62
6457.00,0.62
6456.00,0.62
6455.00,0.62
6454.00,0.62
6453.00,0.62
6452.00,0.62
6451.00,0.62
6450.00,0.62
6449.00,0.62
6448.00,0.62
6447.00,0.62
6446.00,0.63
6445.00,0.63
6444.00,0.63
6443.00,0.63
6442.00,0.63
6441.00,0.63
6440.00,0.63
6439.00,0.63
6438.00,0.63
6437.00,0.63
6436.00,0.63
6435.00,0.63
6434.00,0.63
6433.00,0.63
6432.00,0.63
6431.00,0.63
6430.00,0.63
6429.00,0.63
6428.00,0.63
6427.00,0.63
6426.00,0.63
6425.00,0.63
6424.00,0.63
6423.00,0.63
6422.00,0.63
6421.00,0.63
6420.00,0.63
6419.00,0.63
6418.00,0.63
6417.00,0.63
6416.00,0.63
6415.00,0.63
6414.00,0.64
6413.00,0.64
6412.00,0.64
6411.00,0.64
6410.00,0.64
6409.00,0.64
6408.00,0.64
6407.00,0.64
6406.00,0.64
6405.00,0.64
6404.00,0.64
6403.00,0.64
6402.00,0.64
6401.00,0.64
6400.00,0.64
6399.00,0.64
6398.00,0.64
6397.00,0.64
6396.00,0.64
6395.00,0.64
6394.00,0.64
6393.00,0.64
6392.00,0.64
6391.00,0.64
6390.00,0.64
6389.00,0.64
6388.00,0.64
6387.00,0.65
6386.00,0.65
6385.00,0.65
6384.00,0.65
6383.00,0.65
6382.00,0.65
6381.00,0.65
6380.00,0.65
6379.00,0.65
6378.00,0.65
6377.00,0.65
6376.00,0.65
6375.00,0.65
6374.00,0.65
6373.00,0.65
6372.00,0.65
6371.00,0.65
6370.00,0.65
6369.00,0.65
6368.00,0.65
6367.00,0.65
6366.00,0.65
6365.00,0.65
6364.00,0.65
6363.00,0.65
6362.00,0.65
6361.00,0.65
6360.00,0.65
6359.00,0.65
6358.00,0.65
6357.00,0.65
6356.00,0.65
6355.00,0.65
6354.00,0.66
6353.00,0.66
6352.00,0.66
6351.00,0.66
6350.00,0.66
6349.00,0.66
6348.00,0.66
6347.00,0.66
6346.00,0.66
6345.00,0.66
6344.00,0.66
6343.00,0.67
6342.00,0.67
6341.00,0.67
6340.00,0.67
6339.00,0.67
6338.00,0.67
6337.00,0.67
6336.00,0.67
6335.00,0.67
6334.00,0.67
6333.00,0.67
6332.00,0.67
6331.00,0.67
6330.00,0.67
6329.00,0.67
6328.00,0.67
6327.00,0.67
6326.00,0.67
6325.00,0.67
6324.00,0.67
6323.00,0.67
6322.00,0.67
6321.00,0.67
6320.00,0.67
6319.00,0.67
6318.00,0.68
6317.00,0.68
6316.00,0.68
6315.00,0.68
6314.00,0.68
6313.00,0.68
6312.00,0.68
6311.00,0.68
6310.00,0.68
6309.00,0.68
6308.00,0.68
6307.00,0.69
6306.00,0.69
6305.00,0.69
6304.00,0.69
6303.00,0.69
6302.00,0.69
6301.00,0.69
6300.00,0.69
6299.00,0.69
6298.00,0.69
6297.00,0.69
6296.00,0.70
6295.00,0.70
6294.00,0.70
6293.00,0.70
6292.00,0.70
6291.00,0.70
6290.00,0.70
6289.00,0.70
6288.00,0.70
6287.00,0.70
6286.00,0.70
6285.00,0.70
6284.00,0.70
6283.00,0.70
6282.00,0.70
6281.00,0.71
6280.00,0.71
6279.00,0.71
6278.00,0.71
6277.00,0.71
6276.00,0.71
6275.00,0.71
6274.00,0.71
6273.00,0.71
6272.00,0.71
6271.00,0.71
6270.00,0.71
6269.00,0.71
6268.00,0.71
6267.00,0.71
6266.00,0.71
6265.00,0.72
6264.00,0.72
6263.00,0.72
6262.00,0.72
6261.00,0.72
6260.00,0.72
6259.00,0.72
6258.00,0.72
6257.00,0.72
6256.00,0.73
6255.00,0.73
6254.00,0.73
6253.00,0.73
6252.00,0.73
6251.00,0.73
6250.00,0.73
6249.00,0.73
6248.00,0.73
6247.00,0.73
6246.00,0.73
6245.00,0.73
6244.00,0.73
6243.00,0.73
6242.00,0.73
6241.00,0.73
6240.00,0.73
6239.00,0.74
6238.00,0.74
6237.00,0.74
6236.00,0.74
6235.00,0.74
6234.00,0.74
6233.00,0.74
6232.00,0.74
6231.00,0.74
6230.00,0.74
6229.00,0.74
6228.00,0.75
6227.00,0.75
6226.00,0.75
6225.00,0.75
6224.00,0.75
6223.00,0.75
6222.00,0.75
6221.00,0.75
6220.00,0.75
6219.00,0.75
6218.00,0.75
6217.00,0.75
6216.00,0.75
6215.00,0.75
6214.00,0.75
6213.00,0.76
6212.00,0.76
6211.00,0.76
6210.00,0.76
6209.00,0.76
6208.00,0.76
6207.00,0.76
6206.00,0.76
6205.00,0.76
6204.00,0.77
6203.00,0.77
6202.00,0.77
6201.00,0.77
6200.00,0.77
6199.00,0.77
6198.00,0.77
6197.00,0.77
6196.00,0.77
6195.00,0.77
6194.00,0.78
6193.00,0.78
6192.00,0.78
6191.00,0.78
6190.00,0.78
6189.00,0.78
6188.00,0.78
6187.00,0.78
6186.00,0.78
6185.00,0.79
6184.00,0.79
6183.00,0.79
6182.00,0.79
6181.00,0.79
6180.00,0.79
6179.00,0.79
6178.00,0.80
6177.00,0.80
6176.00,0.80
6175.00,0.80
6174.00,0.80
6173.00,0.80
6172.00,0.80
6171.00,0.80
6170.00,0.80
6169.00,0.80
6168.00,0.81
6167.00,0.81
6166.00,0.81
6165.00,0.81
6164.00,0.81
6163.00,0.81
6162.00,0.81
6161.00,0.81
6160.00,0.81
6159.00,0.81
6158.00,0.81
6157.00,0.81
6156.00,0.81
6155.00,0.82
6154.00,0.82
6153.00,0.82
6152.00,0.82
6151.00,0.82
6150.00,0.82
6149.00,0.82
6148.00,0.82
6147.00,0.82
6146.00,0.83
6145.00,0.83
6144.00,0.83
6143.00,0.83
6142.00,0.83
6141.00,0.83
6140.00,0.83
6139.00,0.83
6138.00,0.84
6137.00,0.84
6136.00,0.84
6135.00,0.84
6134.00,0.84
6133.00,0.84
6132.00,0.84
6131.00,0.84
6130.00,0.84
6129.00,0.84
6128.00,0.84
6127.00,0.85
6126.00,0.85
6125.00,0.85
6124.00,0.85
6123.00,0.85
6122.00,0.85
6121.00,0.85
6120.00,0.85
6119.00,0.85
6118.00,0.85
6117.00,0.85
6116.00,0.86
6115.00,0.86
6114.00,0.86
6113.00,0.86
6112.00,0.86
6111.00,0.86
6110.00,0.86
6109.00,0.87
6108.00,0.87
6107.00,0.87
6106.00,0.87
6105.00,0.87
6104.00,0.87
6103.00,0.88
6102.00,0.88
6101.00,0.88
6100.00,0.88
6099.00,0.88
6098.00,0.88
6097.00,0.88
6096.00,0.88
6095.00,0.89
6094.00,0.89
6093.00,0.89
6092.00,0.89
6091.00,0.89
6090.00,0.89
6089.00,0.89
6088.00,0.89
6087.00,0.89
6086.00,0.89
6085.00,0.89
6084.00,0.89
6083.00,0.89
6082.00,0.89
6081.00,0.89
6080.00,0.90
6079.00,0.90
6078.00,0.90
6077.00,0.90
6076.00,0.90
6075.00,0.90
6074.00,0.90
6073.00,0.90
6072.00,0.90
6071.00,0.91
6070.00,0.91
6069.00,0.91
6068.00,0.91
6067.00,0.91
6066.00,0.91
6065.00,0.91
6064.00,0.91
6063.00,0.91
6062.00,0.91
6061.00,0.92
6060.00,0.92
6059.00,0.92
6058.00,0.92
6057.00,0.92
6056.00,0.92
6055.00,0.92
6054.00,0.92
6053.00,0.92
6052.00,0.92
6051.00,0.92
6050.00,0.92
6049.00,0.92
6048.00,0.92
6047.00,0.92
6046.00,0.92
6045.00,0.92
6044.00,0.92
6043.00,0.92
6042.00,0.92
6041.00,0.92
6040.00,0.93
6039.00,0.93
6038.00,0.93
6037.00,0.93
6036.00,0.93
6035.00,0.93
6034.00,0.93
6033.00,0.93
6032.00,0.93
6031.00,0.93
6030.00,0.93
6029.00,0.93
6028.00,0.93
6027.00,0.93
6026.00,0.93
6025.00,0.93
6024.00,0.93
6023.00,0.93
6022.00,0.93
6021.00,0.93
6020.00,0.93
6019.00,0.93
6018.00,0.93
6017.00,0.92
6016.00,0.92
6015.00,0.92
6014.00,0.92
6013.00,0.92
6012.00,0.92
6011.00,0.92
6010.00,0.92
6009.00,0.92
6008.00,0.92
6007.00,0.92
6006.00,0.92
6005.00,0.92
6004.00,0.92
6003.00,0.92
6002.00,0.92
6001.00,0.92
6000.00,0.92
5999.00,0.92
5998.00,0.92
5997.00,0.92
5996.00,0.92
5995.00,0.92
5994.00,0.92
5993.00,0.92
5992.00,0.92
5991.00,0.92
5990.00,0.92
5989.00,0.92
5988.00,0.92
5987.00,0.91
5986.00,0.91
5985.00,0.91
5984.00,0.91
5983.00,0.91
5982.00,0.90
5981.00,0.90
5980.00,0.90
5979.00,0.90
5978.00,0.89
5977.00,0.89
5976.00,0.89
5975.00,0.88
5974.00,0.88
5973.00,0.88
5972.00,0.87
5971.00,0.87
5970.00,0.87
5969.00,0.86
5968.00,0.86
5967.00,0.85
5966.00,0.85
5965.00,0.84
5964.00,0.84
5963.00,0.83
5962.00,0.83
5961.00,0.82
5960.00,0.82
5959.00,0.81
5958.00,0.81
5957.00,0.80
5956.00,0.80
5955.00,0.79
5954.00,0.79
5953.00,0.78
5952.00,0.78
5951.00,0.77
5950.00,0.77
5949.00,0.77
5948.00,0.76
5947.00,0.76
5946.00,0.76
5945.00,0.75
5944.00,0.75
5943.00,0.75
5942.00,0.75
5941.00,0.75
5940.00,0.74
5939.00,0.74
5938.00,0.74
5937.00,0.74
5936.00,0.74
5935.00,0.74
5934.00,0.74
5933.00,0.74
5932.00,0.74
5931.00,0.74
5930.00,0.74
5929.00,0.74
5928.00,0.74
5927.00,0.74
5926.00,0.74
5925.00,0.74
5924.00,0.74
5923.00,0.74
5922.00,0.73
5921.00,0.73
5920.00,0.73
5919.00,0.73
5918.00,0.73
5917.00,0.73
5916.00,0.73
5915.00,0.72
5914.00,0.72
5913.00,0.72
5912.00,0.72
5911.00,0.72
5910.00,0.71
5909.00,0.71
5908.00,0.71
5907.00,0.71
5906.00,0.71
5905.00,0.71
5904.00,0.71
5903.00,0.71
5902.00,0.71
5901.00,0.71
5900.00,0.71
5899.00,0.71
5898.00,0.71
5897.00,0.71
5896.00,0.71
5895.00,0.71
5894.00,0.71
5893.00,0.72
5892.00,0.72
5891.00,0.72
5890.00,0.72
5889.00,0.72
5888.00,0.72
5887.00,0.73
5886.00,0.73
5885.00,0.73
5884.00,0.73
5883.00,0.73
5882.00,0.73
5881.00,0.74
5880.00,0.74
5879.00,0.74
5878.00,0.74
5877.00,0.74
5876.00,0.74
5875.00,0.74
5874.00,0.74
5873.00,0.75
5872.00,0.75
5871.00,0.75
5870.00,0.75
5869.00,0.75
5868.00,0.75
5867.00,0.75
5866.00,0.75
5865.00,0.75
5864.00,0.75
5863.00,0.75
5862.00,0.76
5861.00,0.76
5860.00,0.76
5859.00,0.76
5858.00,0.76
5857.00,0.76
5856.00,0.76
5855.00,0.76
5854.00,0.76
5853.00,0.77
5852.00,0.77
5851.00,0.77
5850.00,0.77
5849.00,0.77
5848.00,0.77
5847.00,0.77
5846.00,0.77
5845.00,0.77
5844.00,0.77
5843.00,0.77
5842.00,0.78
5841.00,0.78
5840.00,0.78
5839.00,0.78
5838.00,0.78
5837.00,0.78
5836.00,0.78
5835.00,0.78
5834.00,0.78
5833.00,0.78
5832.00,0.78
5831.00,0.78
5830.00,0.78
5829.00,0.78
5828.00,0.78
5827.00,0.78
5826.00,0.78
5825.00,0.78
5824.00,0.78
5823.00,0.78
5822.00,0.78
5821.00,0.78
5820.00,0.78
5819.00,0.78
5818.00,0.78
5817.00,0.78
5816.00,0.78
5815.00,0.78
5814.00,0.78
5813.00,0.78
5812.00,0.78
5811.00,0.78
5810.00,0.78
5809.00,0.78
5808.00,0.78
5807.00,0.78
5806.00,0.78
5805.00,0.78
5804.00,0.78
5803.00,0.78
5802.00,0.78
5801.00,0.78
5800.00,0.78
5799.00,0.77
5798.00,0.77
5797.00,0.77
5796.00,0.77
5795.00,0.77
5794.00,0.77
5793.00,0.76
5792.00,0.76
5791.00,0.76
5790.00,0.76
5789.00,0.76
5788.00,0.75
5787.00,0.75
5786.00,0.75
5785.00,0.75
5784.00,0.75
5783.00,0.75
5782.00,0.75
5781.00,0.74
5780.00,0.74
5779.00,0.74
5778.00,0.74
5777.00,0.74
5776.00,0.74
5775.00,0.74
5774.00,0.74
5773.00,0.74
5772.00,0.74
5771.00,0.74
5770.00,0.74
5769.00,0.74
5768.00,0.74
5767.00,0.74
5766.00,0.74
5765.00,0.75
5764.00,0.75
5763.00,0.75
5762.00,0.75
5761.00,0.75
5760.00,0.75
5759.00,0.76
5758.00,0.76
5757.00,0.76
5756.00,0.76
5755.00,0.77
5754.00,0.77
5753.00,0.77
5752.00,0.77
5751.00,0.78
5750.00,0.78
5749.00,0.78
5748.00,0.78
5747.00,0.79
5746.00,0.79
5745.00,0.79
5744.00,0.79
5743.00,0.79
5742.00,0.80
5741.00,0.80
5740.00,0.80
5739.00,0.80
5738.00,0.80
5737.00,0.80
5736.00,0.81
5735.00,0.81
5734.00,0.81
5733.00,0.81
5732.00,0.81
5731.00,0.81
5730.00,0.81
5729.00,0.82
5728.00,0.82
5727.00,0.82
5726.00,0.82
5725.00,0.82
5724.00,0.82
5723.00,0.82
5722.00,0.82
5721.00,0.82
5720.00,0.82
5719.00,0.82
5718.00,0.83
5717.00,0.83
5716.00,0.83
5715.00,0.83
5714.00,0.83
5713.00,0.83
5712.00,0.83
5711.00,0.82
5710.00,0.82
5709.00,0.82
5708.00,0.82
5707.00,0.82
5706.00,0.82
5705.00,0.82
5704.00,0.82
5703.00,0.82
5702.00,0.82
5701.00,0.82
5700.00,0.82
5699.00,0.82
5698.00,0.82
5697.00,0.82
5696.00,0.82
5695.00,0.82
5694.00,0.81
5693.00,0.81
5692.00,0.81
5691.00,0.81
5690.00,0.81
5689.00,0.81
5688.00,0.81
5687.00,0.81
5686.00,0.81
5685.00,0.81
5684.00,0.81
5683.00,0.81
5682.00,0.81
5681.00,0.81
5680.00,0.81
5679.00,0.81
5678.00,0.81
5677.00,0.81
5676.00,0.81
5675.00,0.81
5674.00,0.81
5673.00,0.81
5672.00,0.81
5671.00,0.81
5670.00,0.81
5669.00,0.81
5668.00,0.81
5667.00,0.81
5666.00,0.81
5665.00,0.81
5664.00,0.81
5663.00,0.81
5662.00,0.81
5661.00,0.81
5660.00,0.81
5659.00,0.81
5658.00,0.81
5657.00,0.81
5656.00,0.81
5655.00,0.81
5654.00,0.81
5653.00,0.82
5652.00,0.82
5651.00,0.82
5650.00,0.82
5649.00,0.82
5648.00,0.82
5647.00,0.83
5646.00,0.83
5645.00,0.83
5644.00,0.83
5643.00,0.83
5642.00,0.84
5641.00,0.84
5640.00,0.84
5639.00,0.84
5638.00,0.84
5637.00,0.84
5636.00,0.85
5635.00,0.85
5634.00,0.85
5633.00,0.85
5632.00,0.85
5631.00,0.85
5630.00,0.85
5629.00,0.86
5628.00,0.86
5627.00,0.86
5626.00,0.86
5625.00,0.86
5624.00,0.86
5623.00,0.86
5622.00,0.86
5621.00,0.87
5620.00,0.87
5619.00,0.87
5618.00,0.87
5617.00,0.87
5616.00,0.87
5615.00,0.87
5614.00,0.88
5613.00,0.88
5612.00,0.88
5611.00,0.88
5610.00,0.88
5609.00,0.88
5608.00,0.88
5607.00,0.88
5606.00,0.88
5605.00,0.88
5604.00,0.88
5603.00,0.89
5602.00,0.89
5601.00,0.89
5600.00,0.89
5599.00,0.89
5598.00,0.89
5597.00,0.89
5596.00,0.89
5595.00,0.89
5594.00,0.89
5593.00,0.89
5592.00,0.90
5591.00,0.90
5590.00,0.90
5589.00,0.90
5588.00,0.90
5587.00,0.90
5586.00,0.90
5585.00,0.90
5584.00,0.91
5583.00,0.91
5582.00,0.91
5581.00,0.91
5580.00,0.91
5579.00,0.91
5578.00,0.91
5577.00,0.91
5576.00,0.92
5575.00,0.92
5574.00,0.92
5573.00,0.92
5572.00,0.92
5571.00,0.92
5570.00,0.92
5569.00,0.93
5568.00,0.93
5567.00,0.93
5566.00,0.93
5565.00,0.93
5564.00,0.93
5563.00,0.93
5562.00,0.93
5561.00,0.93
5560.00,0.94
5559.00,0.94
5558.00,0.94
5557.00,0.94
5556.00,0.94
5555.00,0.94
5554.00,0.94
5553.00,0.94
5552.00,0.94
5551.00,0.94
5550.00,0.94
5549.00,0.94
5548.00,0.94
5547.00,0.94
5546.00,0.94
5545.00,0.94
5544.00,0.94
5543.00,0.95
5542.00,0.95
5541.00,0.95
5540.00,0.95
5539.00,0.95
5538.00,0.95
5537.00,0.95
5536.00,0.95
5535.00,0.95
5534.00,0.95
5533.00,0.95
5532.00,0.96
5531.00,0.96
5530.00,0.96
5529.00,0.96
5528.00,0.96
5527.00,0.96
5526.00,0.96
5525.00,0.96
5524.00,0.97
5523.00,0.97
5522.00,0.97
5521.00,0.97
5520.00,0.97
5519.00,0.97
5518.00,0.97
5517.00,0.97
5516.00,0.97
5515.00,0.97
5514.00,0.97
5513.00,0.97
5512.00,0.97
5511.00,0.97
5510.00,0.97
5509.00,0.97
5508.00,0.98
5507.00,0.98
5506.00,0.98
5505.00,0.98
5504.00,0.98
5503.00,0.98
5502.00,0.98
5501.00,0.98
5500.00,0.98
5499.00,0.98
5498.00,0.98
5497.00,0.98
5496.00,0.98
5495.00,0.98
5494.00,0.98
5493.00,0.98
5492.00,0.98
5491.00,0.99
5490.00,0.99
5489.00,0.99
5488.00,0.99
5487.00,0.99
5486.00,0.99
5485.00,0.99
5484.00,0.99
5483.00,0.99
5482.00,0.99
5481.00,0.99
5480.00,1.00
5479.00,1.00
5478.00,1.00
5477.00,1.00
5476.00,1.00
5475.00,1.00
5474.00,1.00
5473.00,1.00
5472.00,1.00
5471.00,1.00
5470.00,1.00
5469.00,1.00
5468.00,1.00
5467.00,1.01
5466.00,1.01
5465.00,1.01
5464.00,1.01
5463.00,1.01
5462.00,1.01
5461.00,1.01
5460.00,1.01
5459.00,1.01
5458.00,1.01
5457.00,1.01
5456.00,1.02
5455.00,1.02
5454.00,1.02
5453.00,1.02
5452.00,1.02
5451.00,1.02
5450.00,1.02
5449.00,1.02
5448.00,1.02
5447.00,1.02
5446.00,1.02
5445.00,1.02
5444.00,1.02
5443.00,1.02
5442.00,1.02
5441.00,1.02
5440.00,1.02
5439.00,1.02
5438.00,1.02
5437.00,1.02
5436.00,1.02
5435.00,1.02
5434.00,1.02
5433.00,1.02
5432.00,1.03
5431.00,1.03
5430.00,1.03
5429.00,1.03
5428.00,1.03
5427.00,1.03
5426.00,1.03
5425.00,1.03
5424.00,1.03
5423.00,1.03
5422.00,1.03
5421.00,1.03
5420.00,1.03
5419.00,1.03
5418.00,1.03
5417.00,1.03
5416.00,1.03
5415.00,1.03
5414.00,1.03
5413.00,1.02
5412.00,1.02
5411.00,1.02
5410.00,1.02
5409.00,1.02
5408.00,1.02
5407.00,1.02
5406.00,1.02
5405.00,1.02
5404.00,1.02
5403.00,1.02
5402.00,1.02
5401.00,1.02
5400.00,1.02
5399.00,1.02
5398.00,1.02
5397.00,1.02
5396.00,1.02
5395.00,1.02
5394.00,1.02
5393.00,1.02
5392.00,1.02
5391.00,1.02
5390.00,1.01
5389.00,1.01
5388.00,1.01
5387.00,1.01
5386.00,1.01
5385.00,1.01
5384.00,1.00
5383.00,1.00
5382.00,1.00
5381.00,1.00
5380.00,1.00
5379.00,0.99
5378.00,0.99
5377.00,0.99
5376.00,0.99
5375.00,0.98
5374.00,0.98
5373.00,0.98
5372.00,0.98
5371.00,0.97
5370.00,0.97
5369.00,0.97
5368.00,0.96
5367.00,0.96
5366.00,0.96
5365.00,0.95
5364.00,0.95
5363.00,0.94
5362.00,0.94
5361.00,0.93
5360.00,0.93
5359.00,0.92
5358.00,0.92
5357.00,0.91
5356.00,0.91
5355.00,0.90
5354.00,0.90
5353.00,0.89
5352.00,0.89
5351.00,0.88
5350.00,0.88
5349.00,0.87
5348.00,0.86
5347.00,0.86
5346.00,0.85
5345.00,0.84
5344.00,0.84
5343.00,0.83
5342.00,0.83
5341.00,0.82
5340.00,0.81
5339.00,0.81
5338.00,0.80
5337.00,0.80
5336.00,0.79
5335.00,0.78
5334.00,0.78
5333.00,0.77
5332.00,0.77
5331.00,0.76
5330.00,0.76
5329.00,0.75
5328.00,0.74
5327.00,0.74
5326.00,0.73
5325.00,0.73
5324.00,0.72
5323.00,0.72
5322.00,0.71
5321.00,0.71
5320.00,0.70
5319.00,0.70
5318.00,0.69
5317.00,0.69
5316.00,0.68
5315.00,0.68
5314.00,0.68
5313.00,0.67
5312.00,0.67
5311.00,0.67
5310.00,0.66
5309.00,0.66
5308.00,0.66
5307.00,0.65
5306.00,0.65
5305.00,0.65
5304.00,0.65
5303.00,0.64
5302.00,0.64
5301.00,0.64
5300.00,0.64
5299.00,0.64
5298.00,0.63
5297.00,0.63
5296.00,0.63
5295.00,0.63
5294.00,0.63
5293.00,0.63
5292.00,0.62
5291.00,0.62
5290.00,0.62
5289.00,0.62
5288.00,0.62
5287.00,0.62
5286.00,0.62
5285.00,0.62
5284.00,0.62
5283.00,0.62
5282.00,0.62
5281.00,0.62
5280.00,0.62
5279.00,0.62
5278.00,0.62
5277.00,0.62
5276.00,0.62
5275.00,0.62
5274.00,0.62
5273.00,0.62
5272.00,0.62
5271.00,0.62
5270.00,0.61
5269.00,0.61
5268.00,0.61
5267.00,0.61
5266.00,0.61
5265.00,0.61
5264.00,0.61
5263.00,0.61
5262.00,0.61
5261.00,0.61
5260.00,0.61
5259.00,0.61
5258.00,0.61
5257.00,0.61
5256.00,0.61
5255.00,0.61
5254.00,0.61
5253.00,0.62
5252.00,0.62
5251.00,0.62
5250.00,0.62
5249.00,0.62
5248.00,0.62
5247.00,0.62
5246.00,0.62
5245.00,0.62
5244.00,0.62
5243.00,0.62
5242.00,0.62
5241.00,0.62
5240.00,0.62
5239.00,0.62
5238.00,0.62
5237.00,0.62
5236.00,0.62
5235.00,0.62
5234.00,0.62
5233.00,0.62
5232.00,0.62
5231.00,0.62
5230.00,0.62
5229.00,0.62
5228.00,0.62
5227.00,0.62
5226.00,0.62
5225.00,0.62
5224.00,0.62
5223.00,0.62
5222.00,0.62
5221.00,0.62
5220.00,0.62
5219.00,0.62
5218.00,0.62
5217.00,0.62
5216.00,0.62
5215.00,0.62
5214.00,0.62
5213.00,0.62
5212.00,0.62
5211.00,0.62
5210.00,0.62
5209.00,0.62
5208.00,0.62
5207.00,0.62
5206.00,0.62
5205.00,0.62
5204.00,0.62
5203.00,0.62
5202.00,0.62
5201.00,0.62
5200.00,0.62
5199.00,0.62
5198.00,0.62
5197.00,0.62
5196.00,0.62
5195.00,0.62
5194.00,0.62
5193.00,0.62
5192.00,0.62
5191.00,0.62
5190.00,0.62
5189.00,0.62
5188.00,0.62
5187.00,0.62
5186.00,0.62
5185.00,0.62
5184.00,0.63
5183.00,0.63
5182.00,0.63
5181.00,0.63
5180.00,0.63
5179.00,0.63
5178.00,0.63
5177.00,0.63
5176.00,0.63
5175.00,0.63
5174.00,0.63
5173.00,0.63
5172.00,0.63
5171.00,0.63
5170.00,0.63
5169.00,0.63
5168.00,0.64
5167.00,0.64
5166.00,0.64
5165.00,0.64
5164.00,0.64
5163.00,0.64
5162.00,0.64
5161.00,0.64
5160.00,0.64
5159.00,0.64
5158.00,0.64
5157.00,0.64
5156.00,0.64
5155.00,0.64
5154.00,0.64
5153.00,0.64
5152.00,0.64
5151.00,0.64
5150.00,0.64
5149.00,0.65
5148.00,0.65
5147.00,0.65
5146.00,0.65
5145.00,0.65
5144.00,0.65
5143.00,0.65
5142.00,0.65
5141.00,0.65
5140.00,0.65
5139.00,0.64
5138.00,0.64
5137.00,0.64
5136.00,0.64
5135.00,0.64
5134.00,0.64
5133.00,0.64
5132.00,0.64
5131.00,0.64
5130.00,0.64
5129.00,0.64
5128.00,0.64
5127.00,0.64
5126.00,0.65
5125.00,0.65
5124.00,0.65
5123.00,0.65
5122.00,0.65
5121.00,0.65
5120.00,0.65
5119.00,0.65
5118.00,0.65
5117.00,0.65
5116.00,0.65
5115.00,0.65
5114.00,0.65
5113.00,0.65
5112.00,0.65
5111.00,0.65
5110.00,0.65
5109.00,0.65
5108.00,0.65
5107.00,0.65
5106.00,0.65
5105.00,0.65
5104.00,0.65
5103.00,0.65
5102.00,0.65
5101.00,0.65
5100.00,0.65
5099.00,0.66
5098.00,0.66
5097.00,0.66
5096.00,0.66
5095.00,0.66
5094.00,0.66
5093.00,0.66
5092.00,0.66
5091.00,0.66
5090.00,0.66
5089.00,0.66
5088.00,0.66
5087.00,0.66
5086.00,0.66
5085.00,0.67
5084.00,0.67
5083.00,0.67
5082.00,0.67
5081.00,0.67
5080.00,0.67
5079.00,0.67
5078.00,0.67
5077.00,0.67
5076.00,0.67
5075.00,0.67
5074.00,0.67
5073.00,0.67
5072.00,0.67
5071.00,0.67
5070.00,0.67
5069.00,0.67
5068.00,0.67
5067.00,0.67
5066.00,0.67
5065.00,0.67
5064.00,0.67
5063.00,0.67
5062.00,0.67
5061.00,0.67
5060.00,0.67
5059.00,0.67
5058.00,0.67
5057.00,0.67
5056.00,0.67
5055.00,0.67
5054.00,0.67
5053.00,0.67
5052.00,0.67
5051.00,0.67
5050.00,0.67
5049.00,0.67
5048.00,0.67
5047.00,0.68
5046.00,0.68
5045.00,0.68
5044.00,0.68
5043.00,0.68
5042.00,0.68
5041.00,0.68
5040.00,0.68
5039.00,0.68
5038.00,0.68
5037.00,0.68
5036.00,0.68
5035.00,0.68
5034.00,0.68
5033.00,0.68
5032.00,0.68
5031.00,0.68
5030.00,0.68
5029.00,0.68
5028.00,0.68
5027.00,0.68
5026.00,0.68
5025.00,0.68
5024.00,0.68
5023.00,0.68
5022.00,0.68
5021.00,0.68
5020.00,0.68
5019.00,0.68
5018.00,0.68
5017.00,0.68
5016.00,0.68
5015.00,0.68
5014.00,0.68
5013.00,0.68
5012.00,0.68
5011.00,0.68
5010.00,0.68
5009.00,0.68
5008.00,0.68
5007.00,0.68
5006.00,0.68
5005.00,0.69
5004.00,0.69
5003.00,0.69
5002.00,0.69
5001.00,0.69
5000.00,0.69
4999.00,0.69
4998.00,0.69
4997.00,0.69
4996.00,0.69
4995.00,0.69
4994.00,0.69
4993.00,0.69
4992.00,0.69
4991.00,0.69
4990.00,0.69
4989.00,0.69
4988.00,0.69
4987.00,0.69
4986.00,0.69
4985.00,0.70
4984.00,0.70
4983.00,0.70
4982.00,0.70
4981.00,0.70
4980.00,0.70
4979.00,0.70
4978.00,0.70
4977.00,0.70
4976.00,0.70
4975.00,0.70
4974.00,0.70
4973.00,0.70
4972.00,0.70
4971.00,0.70
4970.00,0.70
4969.00,0.70
4968.00,0.70
4967.00,0.70
4966.00,0.70
4965.00,0.70
4964.00,0.71
4963.00,0.71
4962.00,0.71
4961.00,0.71
4960.00,0.71
4959.00,0.71
4958.00,0.71
4957.00,0.71
4956.00,0.71
4955.00,0.71
4954.00,0.71
4953.00,0.71
4952.00,0.71
4951.00,0.71
4950.00,0.71
4949.00,0.71
4948.00,0.71
4947.00,0.71
4946.00,0.71
4945.00,0.71
4944.00,0.72
4943.00,0.72
4942.00,0.72
4941.00,0.72
4940.00,0.72
4939.00,0.72
4938.00,0.72
4937.00,0.72
4936.00,0.72
4935.00,0.72
4934.00,0.72
4933.00,0.72
4932.00,0.72
4931.00,0.72
4930.00,0.72
4929.00,0.72
4928.00,0.72
4927.00,0.72
4926.00,0.72
4925.00,0.72
4924.00,0.73
4923.00,0.73
4922.00,0.73
4921.00,0.73
4920.00,0.73
4919.00,0.73
4918.00,0.73
4917.00,0.73
4916.00,0.73
4915.00,0.73
4914.00,0.73
4913.00,0.73
4912.00,0.73
4911.00,0.73
4910.00,0.73
4909.00,0.73
4908.00,0.73
4907.00,0.73
4906.00,0.73
4905.00,0.73
4904.00,0.73
4903.00,0.73
4902.00,0.73
4901.00,0.73
4900.00,0.73
4899.00,0.73
4898.00,0.73
4897.00,0.73
4896.00,0.73
4895.00,0.73
4894.00,0.73
4893.00,0.73
4892.00,0.73
4891.00,0.73
4890.00,0.73
4889.00,0.73
4888.00,0.73
4887.00,0.73
4886.00,0.73
4885.00,0.73
4884.00,0.73
4883.00,0.73
4882.00,0.73
4881.00,0.73
4880.00,0.73
4879.00,0.73
4878.00,0.73
4877.00,0.73
4876.00,0.73
4875.00,0.73
4874.00,0.73
4873.00,0.74
4872.00,0.74
4871.00,0.74
4870.00,0.74
4869.00,0.74
4868.00,0.74
4867.00,0.74
4866.00,0.74
4865.00,0.74
4864.00,0.74
4863.00,0.74
4862.00,0.74
4861.00,0.74
4860.00,0.74
4859.00,0.74
4858.00,0.74
4857.00,0.74
4856.00,0.75
4855.00,0.75
4854.00,0.75
4853.00,0.75
4852.00,0.75
4851.00,0.75
4850.00,0.75
4849.00,0.75
4848.00,0.75
4847.00,0.75
4846.00,0.75
4845.00,0.75
4844.00,0.75
4843.00,0.75
4842.00,0.75
4841.00,0.75
4840.00,0.75
4839.00,0.75
4838.00,0.75
4837.00,0.75
4836.00,0.75
4835.00,0.75
4834.00,0.75
4833.00,0.75
4832.00,0.75
4831.00,0.75
4830.00,0.75
4829.00,0.75
4828.00,0.75
4827.00,0.75
4826.00,0.75
4825.00,0.75
4824.00,0.75
4823.00,0.75
4822.00,0.75
4821.00,0.75
4820.00,0.75
4819.00,0.75
4818.00,0.75
4817.00,0.75
4816.00,0.75
4815.00,0.75
4814.00,0.76
4813.00,0.76
4812.00,0.76
4811.00,0.76
4810.00,0.76
4809.00,0.76
4808.00,0.76
4807.00,0.76
4806.00,0.76
4805.00,0.76
4804.00,0.76
4803.00,0.76
4802.00,0.76
4801.00,0.76
4800.00,0.76
4799.00,0.76
4798.00,0.76
4797.00,0.76
4796.00,0.77
4795.00,0.77
4794.00,0.77
4793.00,0.77
4792.00,0.77
4791.00,0.77
4790.00,0.77
4789.00,0.77
4788.00,0.77
4787.00,0.77
4786.00,0.77
4785.00,0.77
4784.00,0.77
4783.00,0.78
4782.00,0.78
4781.00,0.78
4780.00,0.78
4779.00,0.78
4778.00,0.78
4777.00,0.78
4776.00,0.78
4775.00,0.78
4774.00,0.78
4773.00,0.78
4772.00,0.78
4771.00,0.78
4770.00,0.78
4769.00,0.79
4768.00,0.79
4767.00,0.79
4766.00,0.79
4765.00,0.79
4764.00,0.79
4763.00,0.79
4762.00,0.79
4761.00,0.79
4760.00,0.79
4759.00,0.79
4758.00,0.79
4757.00,0.79
4756.00,0.79
4755.00,0.79
4754.00,0.79
4753.00,0.79
4752.00,0.79
4751.00,0.79
4750.00,0.79
4749.00,0.79
4748.00,0.80
4747.00,0.80
4746.00,0.80
4745.00,0.80
4744.00,0.80
4743.00,0.80
4742.00,0.80
4741.00,0.80
4740.00,0.80
4739.00,0.80
4738.00,0.80
4737.00,0.80
4736.00,0.80
4735.00,0.80
4734.00,0.80
4733.00,0.80
4732.00,0.80
4731.00,0.80
4730.00,0.80
4729.00,0.80
4728.00,0.80
4727.00,0.80
4726.00,0.80
4725.00,0.81
4724.00,0.81
4723.00,0.81
4722.00,0.81
4721.00,0.81
4720.00,0.81
4719.00,0.81
4718.00,0.81
4717.00,0.81
4716.00,0.81
4715.00,0.81
4714.00,0.81
4713.00,0.81
4712.00,0.81
4711.00,0.81
4710.00,0.81
4709.00,0.81
4708.00,0.82
4707.00,0.82
4706.00,0.82
4705.00,0.82
4704.00,0.82
4703.00,0.82
4702.00,0.82
4701.00,0.82
4700.00,0.82
4699.00,0.82
4698.00,0.82
4697.00,0.82
4696.00,0.82
4695.00,0.83
4694.00,0.83
4693.00,0.83
4692.00,0.83
4691.00,0.83
4690.00,0.83
4689.00,0.83
4688.00,0.83
4687.00,0.83
4686.00,0.84
4685.00,0.84
4684.00,0.84
4683.00,0.84
4682.00,0.84
4681.00,0.84
4680.00,0.84
4679.00,0.85
4678.00,0.85
4677.00,0.85
4676.00,0.85
4675.00,0.85
4674.00,0.85
4673.00,0.85
4672.00,0.85
4671.00,0.85
4670.00,0.85
4669.00,0.85
4668.00,0.85
4667.00,0.85
4666.00,0.85
4665.00,0.85
4664.00,0.85
4663.00,0.85
4662.00,0.86
4661.00,0.86
4660.00,0.86
4659.00,0.86
4658.00,0.86
4657.00,0.86
4656.00,0.86
4655.00,0.86
4654.00,0.86
4653.00,0.86
4652.00,0.86
4651.00,0.86
4650.00,0.86
4649.00,0.86
4648.00,0.86
4647.00,0.86
4646.00,0.86
4645.00,0.87
4644.00,0.87
4643.00,0.87
4642.00,0.87
4641.00,0.87
4640.00,0.87
4639.00,0.87
4638.00,0.87
4637.00,0.87
4636.00,0.87
4635.00,0.87
4634.00,0.87
4633.00,0.87
4632.00,0.87
4631.00,0.87
4630.00,0.87
4629.00,0.87
4628.00,0.88
4627.00,0.88
4626.00,0.88
4625.00,0.88
4624.00,0.88
4623.00,0.88
4622.00,0.88
4621.00,0.88
4620.00,0.88
4619.00,0.88
4618.00,0.88
4617.00,0.88
4616.00,0.88
4615.00,0.88
4614.00,0.88
4613.00,0.88
4612.00,0.88
4611.00,0.88
4610.00,0.88
4609.00,0.88
4608.00,0.88
4607.00,0.88
4606.00,0.88
4605.00,0.88
4604.00,0.88
4603.00,0.88
4602.00,0.88
4601.00,0.88
4600.00,0.88
4599.00,0.88
4598.00,0.88
4597.00,0.88
4596.00,0.88
4595.00,0.88
4594.00,0.88
4593.00,0.89
4592.00,0.89
4591.00,0.89
4590.00,0.89
4589.00,0.89
4588.00,0.89
4587.00,0.89
4586.00,0.89
4585.00,0.89
4584.00,0.89
4583.00,0.89
4582.00,0.90
4581.00,0.90
4580.00,0.90
4579.00,0.90
4578.00,0.90
4577.00,0.90
4576.00,0.90
4575.00,0.90
4574.00,0.90
4573.00,0.90
4572.00,0.90
4571.00,0.90
4570.00,0.90
4569.00,0.90
4568.00,0.90
4567.00,0.90
4566.00,0.90
4565.00,0.90
4564.00,0.90
4563.00,0.90
4562.00,0.90
4561.00,0.90
4560.00,0.90
4559.00,0.90
4558.00,0.90
4557.00,0.90
4556.00,0.90
4555.00,0.90
4554.00,0.90
4553.00,0.90
4552.00,0.91
4551.00,0.91
4550.00,0.91
4549.00,0.91
4548.00,0.91
4547.00,0.91
4546.00,0.91
4545.00,0.91
4544.00,0.91
4543.00,0.91
4542.00,0.91
4541.00,0.91
4540.00,0.91
4539.00,0.91
4538.00,0.91
4537.00,0.91
4536.00,0.91
4535.00,0.91
4534.00,0.91
4533.00,0.91
4532.00,0.91
4531.00,0.91
4530.00,0.91
4529.00,0.91
4528.00,0.91
4527.00,0.91
4526.00,0.91
4525.00,0.91
4524.00,0.91
4523.00,0.92
4522.00,0.92
4521.00,0.92
4520.00,0.92
4519.00,0.92
4518.00,0.92
4517.00,0.92
4516.00,0.92
4515.00,0.92
4514.00,0.92
4513.00,0.92
4512.00,0.92
4511.00,0.92
4510.00,0.92
4509.00,0.92
4508.00,0.92
4507.00,0.91
4506.00,0.91
4505.00,0.91
4504.00,0.91
4503.00,0.91
4502.00,0.91
4501.00,0.91
4500.00,0.91
4499.00,0.91
4498.00,0.91
4497.00,0.91
4496.00,0.91
4495.00,0.91
4494.00,0.91
4493.00,0.91
4492.00,0.91
4491.00,0.91
4490.00,0.91
4489.00,0.91
4488.00,0.91
4487.00,0.91
4486.00,0.91
4485.00,0.91
4484.00,0.91
4483.00,0.91
4482.00,0.91
4481.00,0.91
4480.00,0.91
4479.00,0.91
4478.00,0.91
4477.00,0.91
4476.00,0.91
4475.00,0.90
4474.00,0.90
4473.00,0.90
4472.00,0.90
4471.00,0.90
4470.00,0.90
4469.00,0.90
4468.00,0.90
4467.00,0.90
4466.00,0.90
4465.00,0.89
4464.00,0.89
4463.00,0.89
4462.00,0.89
4461.00,0.89
4460.00,0.89
4459.00,0.89
4458.00,0.89
4457.00,0.89
4456.00,0.88
4455.00,0.88
4454.00,0.88
4453.00,0.88
4452.00,0.88
4451.00,0.88
4450.00,0.88
4449.00,0.88
4448.00,0.88
4447.00,0.88
4446.00,0.88
4445.00,0.88
4444.00,0.87
4443.00,0.87
4442.00,0.87
4441.00,0.87
4440.00,0.87
4439.00,0.87
4438.00,0.87
4437.00,0.87
4436.00,0.87
4435.00,0.87
4434.00,0.87
4433.00,0.87
4432.00,0.87
4431.00,0.87
4430.00,0.87
4429.00,0.87
4428.00,0.87
4427.00,0.87
4426.00,0.87
4425.00,0.87
4424.00,0.87
4423.00,0.87
4422.00,0.87
4421.00,0.87
4420.00,0.87
4419.00,0.87
4418.00,0.86
4417.00,0.86
4416.00,0.86
4415.00,0.86
4414.00,0.86
4413.00,0.86
4412.00,0.86
4411.00,0.87
4410.00,0.87
4409.00,0.87
4408.00,0.87
4407.00,0.87
4406.00,0.87
4405.00,0.87
4404.00,0.87
4403.00,0.87
4402.00,0.87
4401.00,0.87
4400.00,0.87
4399.00,0.87
4398.00,0.87
4397.00,0.87
4396.00,0.88
4395.00,0.88
4394.00,0.88
4393.00,0.88
4392.00,0.88
4391.00,0.88
4390.00,0.88
4389.00,0.88
4388.00,0.89
4387.00,0.89
4386.00,0.89
4385.00,0.89
4384.00,0.89
4383.00,0.89
4382.00,0.89
4381.00,0.89
4380.00,0.89
4379.00,0.89
4378.00,0.89
4377.00,0.89
4376.00,0.89
4375.00,0.89
4374.00,0.89
4373.00,0.89
4372.00,0.89
4371.00,0.89
4370.00,0.89
4369.00,0.89
4368.00,0.89
4367.00,0.89
4366.00,0.89
4365.00,0.89
4364.00,0.89
4363.00,0.89
4362.00,0.89
4361.00,0.89
4360.00,0.89
4359.00,0.89
4358.00,0.89
4357.00,0.89
4356.00,0.89
4355.00,0.89
4354.00,0.89
4353.00,0.89
4352.00,0.89
4351.00,0.89
4350.00,0.89
4349.00,0.89
4348.00,0.90
4347.00,0.90
4346.00,0.90
4345.00,0.90
4344.00,0.90
4343.00,0.90
4342.00,0.90
4341.00,0.90
4340.00,0.90
4339.00,0.90
4338.00,0.90
4337.00,0.90
4336.00,0.90
4335.00,0.90
4334.00,0.90
4333.00,0.90
4332.00,0.90
4331.00,0.90
4330.00,0.90
4329.00,0.91
4328.00,0.91
4327.00,0.91
4326.00,0.91
4325.00,0.91
4324.00,0.91
4323.00,0.91
4322.00,0.91
4321.00,0.91
4320.00,0.91
4319.00,0.91
4318.00,0.91
4317.00,0.91
4316.00,0.92
4315.00,0.92
4314.00,0.92
4313.00,0.92
4312.00,0.92
4311.00,0.92
4310.00,0.92
4309.00,0.92
4308.00,0.92
4307.00,0.92
4306.00,0.92
4305.00,0.92
4304.00,0.92
4303.00,0.92
4302.00,0.92
4301.00,0.92
4300.00,0.92
4299.00,0.92
4298.00,0.92
4297.00,0.92
4296.00,0.92
4295.00,0.92
4294.00,0.92
4293.00,0.92
4292.00,0.93
4291.00,0.93
4290.00,0.93
4289.00,0.93
4288.00,0.93
4287.00,0.93
4286.00,0.93
4285.00,0.93
4284.00,0.93
4283.00,0.94
4282.00,0.94
4281.00,0.94
4280.00,0.94
4279.00,0.94
4278.00,0.94
4277.00,0.94
4276.00,0.94
4275.00,0.94
4274.00,0.94
4273.00,0.94
4272.00,0.94
4271.00,0.94
4270.00,0.94
4269.00,0.94
4268.00,0.94
4267.00,0.94
4266.00,0.94
4265.00,0.94
4264.00,0.94
4263.00,0.94
4262.00,0.94
4261.00,0.94
4260.00,0.94
4259.00,0.94
4258.00,0.94
4257.00,0.94
4256.00,0.94
4255.00,0.94
4254.00,0.94
4253.00,0.94
4252.00,0.94
4251.00,0.94
4250.00,0.94
4249.00,0.94
4248.00,0.94
4247.00,0.94
4246.00,0.94
4245.00,0.94
4244.00,0.94
4243.00,0.94
4242.00,0.94
4241.00,0.94
4240.00,0.94
4239.00,0.94
4238.00,0.94
4237.00,0.94
4236.00,0.94
4235.00,0.94
4234.00,0.94
4233.00,0.94
4232.00,0.94
4231.00,0.94
4230.00,0.94
4229.00,0.94
4228.00,0.94
4227.00,0.94
4226.00,0.94
4225.00,0.94
4224.00,0.95
4223.00,0.95
4222.00,0.95
4221.00,0.95
4220.00,0.95
4219.00,0.95
4218.00,0.95
4217.00,0.95
4216.00,0.95
4215.00,0.95
4214.00,0.96
4213.00,0.96
4212.00,0.96
4211.00,0.96
4210.00,0.96
4209.00,0.96
4208.00,0.96
4207.00,0.96
4206.00,0.96
4205.00,0.97
4204.00,0.97
4203.00,0.97
4202.00,0.97
4201.00,0.97
4200.00,0.97
4199.00,0.97
4198.00,0.97
4197.00,0.97
4196.00,0.98
4195.00,0.98
4194.00,0.98
4193.00,0.98
4192.00,0.98
4191.00,0.98
4190.00,0.98
4189.00,0.98
4188.00,0.98
4187.00,0.98
4186.00,0.98
4185.00,0.98
4184.00,0.98
4183.00,0.98
4182.00,0.98
4181.00,0.98
4180.00,0.98
4179.00,0.98
4178.00,0.98
4177.00,0.98
4176.00,0.98
4175.00,0.98
4174.00,0.98
4173.00,0.98
4172.00,0.98
4171.00,0.98
4170.00,0.97
4169.00,0.97
4168.00,0.97
4167.00,0.97
4166.00,0.97
4165.00,0.97
4164.00,0.97
4163.00,0.97
4162.00,0.97
4161.00,0.97
4160.00,0.97
4159.00,0.98
4158.00,0.98
4157.00,0.98
4156.00,0.98
4155.00,0.98
4154.00,0.98
4153.00,0.98
4152.00,0.98
4151.00,0.98
4150.00,0.98
4149.00,0.98
4148.00,0.98
4147.00,0.98
4146.00,0.98
4145.00,0.98
4144.00,0.98
4143.00,0.98
4142.00,0.98
4141.00,0.98
4140.00,0.98
4139.00,0.98
4138.00,0.98
4137.00,0.98
4136.00,0.98
4135.00,0.98
4134.00,0.98
4133.00,0.98
4132.00,0.98
4131.00,0.98
4130.00,0.98
4129.00,0.98
4128.00,0.98
4127.00,0.98
4126.00,0.98
4125.00,0.98
4124.00,0.98
4123.00,0.98
4122.00,0.99
4121.00,0.99
4120.00,0.99
4119.00,0.99
4118.00,0.99
4117.00,0.99
4116.00,0.99
4115.00,0.99
4114.00,0.99
4113.00,0.99
4112.00,0.99
4111.00,0.99
4110.00,0.99
4109.00,0.99
4108.00,0.99
4107.00,0.99
4106.00,0.99
4105.00,0.99
4104.00,0.99
4103.00,0.99
4102.00,1.00
4101.00,1.00
4100.00,1.00
4099.00,1.00
4098.00,1.00
4097.00,1.00
4096.00,1.00
4095.00,1.00
4094.00,1.00
4093.00,1.00
4092.00,1.00
4091.00,1.00
4090.00,1.00
4089.00,1.00
4088.00,1.00
4087.00,1.00
4086.00,1.00
4085.00,1.00
4084.00,1.00
4083.00,1.00
4082.00,1.00
4081.00,1.01
4080.00,1.01
4079.00,1.01
4078.00,1.01
4077.00,1.01
4076.00,1.01
4075.00,1.01
4074.00,1.01
4073.00,1.01
4072.00,1.01
4071.00,1.01
4070.00,1.01
4069.00,1.01
4068.00,1.01
4067.00,1.01
4066.00,1.01
4065.00,1.01
4064.00,1.01
4063.00,1.01
4062.00,1.01
4061.00,1.01
4060.00,1.01
4059.00,1.01
4058.00,1.01
4057.00,1.01
4056.00,1.01
4055.00,1.02
4054.00,1.02
4053.00,1.02
4052.00,1.02
4051.00,1.02
4050.00,1.02
4049.00,1.02
4048.00,1.03
4047.00,1.03
4046.00,1.03
4045.00,1.03
4044.00,1.03
4043.00,1.03
4042.00,1.03
4041.00,1.03
4040.00,1.03
4039.00,1.03
4038.00,1.03
4037.00,1.03
4036.00,1.03
4035.00,1.03
4034.00,1.03
4033.00,1.03
4032.00,1.03
4031.00,1.03
4030.00,1.03
4029.00,1.03
4028.00,1.03
4027.00,1.03
4026.00,1.03
4025.00,1.03
4024.00,1.03
4023.00,1.03
4022.00,1.03
4021.00,1.03
4020.00,1.03
4019.00,1.03
4018.00,1.03
4017.00,1.03
4016.00,1.03
4015.00,1.03
4014.00,1.03
4013.00,1.03
4012.00,1.03
4011.00,1.03
4010.00,1.02
4009.00,1.02
4008.00,1.02
4007.00,1.02
4006.00,1.03
4005.00,1.03
4004.00,1.03
4003.00,1.03
4002.00,1.03
4001.00,1.03
4000.00,1.03
