创建为新数据集,样品 046 用户 Administrator 日期 星期五, 七月 20 2018
cm-1,%T
10000.00,1.24
9999.00,1.25
9998.00,1.25
9997.00,1.25
9996.00,1.25
9995.00,1.25
9994.00,1.25
9993.00,1.25
9992.00,1.25
9991.00,1.25
9990.00,1.25
9989.00,1.25
9988.00,1.25
9987.00,1.25
9986.00,1.25
9985.00,1.25
9984.00,1.25
9983.00,1.25
9982.00,1.25
9981.00,1.25
9980.00,1.24
9979.00,1.24
9978.00,1.24
9977.00,1.24
9976.00,1.24
9975.00,1.24
9974.00,1.24
9973.00,1.24
9972.00,1.24
9971.00,1.23
9970.00,1.23
9969.00,1.23
9968.00,1.23
9967.00,1.23
9966.00,1.23
9965.00,1.22
9964.00,1.22
9963.00,1.22
9962.00,1.22
9961.00,1.21
9960.00,1.21
9959.00,1.21
9958.00,1.21
9957.00,1.21
9956.00,1.21
9955.00,1.21
9954.00,1.20
9953.00,1.20
9952.00,1.20
9951.00,1.20
9950.00,1.20
9949.00,1.20
9948.00,1.20
9947.00,1.20
9946.00,1.20
9945.00,1.20
9944.00,1.20
9943.00,1.19
9942.00,1.19
9941.00,1.19
9940.00,1.19
9939.00,1.19
9938.00,1.19
9937.00,1.19
9936.00,1.19
9935.00,1.19
9934.00,1.19
9933.00,1.20
9932.00,1.20
9931.00,1.20
9930.00,1.20
9929.00,1.20
9928.00,1.20
9927.00,1.20
9926.00,1.20
9925.00,1.20
9924.00,1.20
9923.00,1.20
9922.00,1.20
9921.00,1.20
9920.00,1.20
9919.00,1.20
9918.00,1.20
9917.00,1.20
9916.00,1.20
9915.00,1.20
9914.00,1.20
9913.00,1.20
9912.00,1.20
9911.00,1.21
9910.00,1.21
9909.00,1.21
9908.00,1.21
9907.00,1.21
9906.00,1.21
9905.00,1.21
9904.00,1.21
9903.00,1.21
9902.00,1.21
9901.00,1.21
9900.00,1.22
9899.00,1.22
9898.00,1.22
9897.00,1.22
9896.00,1.22
9895.00,1.22
9894.00,1.22
9893.00,1.22
9892.00,1.22
9891.00,1.22
9890.00,1.22
9889.00,1.22
9888.00,1.22
9887.00,1.22
9886.00,1.22
9885.00,1.22
9884.00,1.22
9883.00,1.21
9882.00,1.21
9881.00,1.21
9880.00,1.21
9879.00,1.21
9878.00,1.21
9877.00,1.20
9876.00,1.20
9875.00,1.20
9874.00,1.20
9873.00,1.20
9872.00,1.20
9871.00,1.20
9870.00,1.20
9869.00,1.19
9868.00,1.19
9867.00,1.19
9866.00,1.19
9865.00,1.19
9864.00,1.19
9863.00,1.18
9862.00,1.18
9861.00,1.18
9860.00,1.18
9859.00,1.18
9858.00,1.17
9857.00,1.17
9856.00,1.17
9855.00,1.17
9854.00,1.17
9853.00,1.17
9852.00,1.17
9851.00,1.17
9850.00,1.17
9849.00,1.17
9848.00,1.17
9847.00,1.17
9846.00,1.17
9845.00,1.18
9844.00,1.18
9843.00,1.18
9842.00,1.18
9841.00,1.19
9840.00,1.19
9839.00,1.20
9838.00,1.20
9837.00,1.20
9836.00,1.21
9835.00,1.21
9834.00,1.21
9833.00,1.22
9832.00,1.22
9831.00,1.22
9830.00,1.22
9829.00,1.22
9828.00,1.22
9827.00,1.22
9826.00,1.22
9825.00,1.22
9824.00,1.22
9823.00,1.22
9822.00,1.22
9821.00,1.22
9820.00,1.22
9819.00,1.22
9818.00,1.21
9817.00,1.21
9816.00,1.21
9815.00,1.21
9814.00,1.21
9813.00,1.21
9812.00,1.21
9811.00,1.22
9810.00,1.22
9809.00,1.22
9808.00,1.22
9807.00,1.22
9806.00,1.23
9805.00,1.23
9804.00,1.23
9803.00,1.24
9802.00,1.24
9801.00,1.24
9800.00,1.24
9799.00,1.24
9798.00,1.24
9797.00,1.25
9796.00,1.25
9795.00,1.25
9794.00,1.25
9793.00,1.24
9792.00,1.24
9791.00,1.24
9790.00,1.24
9789.00,1.24
9788.00,1.24
9787.00,1.24
9786.00,1.24
9785.00,1.23
9784.00,1.23
9783.00,1.23
9782.00,1.23
9781.00,1.23
9780.00,1.23
9779.00,1.23
9778.00,1.23
9777.00,1.23
9776.00,1.22
9775.00,1.22
9774.00,1.22
9773.00,1.22
9772.00,1.22
9771.00,1.22
9770.00,1.22
9769.00,1.21
9768.00,1.21
9767.00,1.21
9766.00,1.21
9765.00,1.21
9764.00,1.21
9763.00,1.21
9762.00,1.21
9761.00,1.21
9760.00,1.21
9759.00,1.21
9758.00,1.21
9757.00,1.21
9756.00,1.21
9755.00,1.21
9754.00,1.21
9753.00,1.21
9752.00,1.21
9751.00,1.21
9750.00,1.21
9749.00,1.21
9748.00,1.21
9747.00,1.21
9746.00,1.22
9745.00,1.22
9744.00,1.22
9743.00,1.22
9742.00,1.22
9741.00,1.22
9740.00,1.22
9739.00,1.22
9738.00,1.22
9737.00,1.22
9736.00,1.22
9735.00,1.22
9734.00,1.22
9733.00,1.22
9732.00,1.22
9731.00,1.22
9730.00,1.22
9729.00,1.22
9728.00,1.22
9727.00,1.22
9726.00,1.22
9725.00,1.22
9724.00,1.22
9723.00,1.22
9722.00,1.22
9721.00,1.22
9720.00,1.22
9719.00,1.22
9718.00,1.22
9717.00,1.23
9716.00,1.23
9715.00,1.23
9714.00,1.23
9713.00,1.23
9712.00,1.23
9711.00,1.23
9710.00,1.23
9709.00,1.23
9708.00,1.23
9707.00,1.23
9706.00,1.23
9705.00,1.23
9704.00,1.23
9703.00,1.23
9702.00,1.23
9701.00,1.23
9700.00,1.23
9699.00,1.23
9698.00,1.23
9697.00,1.23
9696.00,1.23
9695.00,1.23
9694.00,1.23
9693.00,1.23
9692.00,1.23
9691.00,1.23
9690.00,1.23
9689.00,1.23
9688.00,1.23
9687.00,1.23
9686.00,1.23
9685.00,1.23
9684.00,1.22
9683.00,1.22
9682.00,1.22
9681.00,1.22
9680.00,1.21
9679.00,1.21
9678.00,1.21
9677.00,1.20
9676.00,1.20
9675.00,1.20
9674.00,1.20
9673.00,1.19
9672.00,1.19
9671.00,1.19
9670.00,1.19
9669.00,1.19
9668.00,1.19
9667.00,1.19
9666.00,1.19
9665.00,1.20
9664.00,1.20
9663.00,1.20
9662.00,1.20
9661.00,1.21
9660.00,1.21
9659.00,1.21
9658.00,1.21
9657.00,1.22
9656.00,1.22
9655.00,1.22
9654.00,1.22
9653.00,1.22
9652.00,1.23
9651.00,1.23
9650.00,1.23
9649.00,1.23
9648.00,1.23
9647.00,1.23
9646.00,1.23
9645.00,1.23
9644.00,1.23
9643.00,1.23
9642.00,1.23
9641.00,1.23
9640.00,1.23
9639.00,1.23
9638.00,1.23
9637.00,1.23
9636.00,1.23
9635.00,1.23
9634.00,1.22
9633.00,1.22
9632.00,1.22
9631.00,1.22
9630.00,1.22
9629.00,1.22
9628.00,1.22
9627.00,1.22
9626.00,1.22
9625.00,1.22
9624.00,1.22
9623.00,1.23
9622.00,1.23
9621.00,1.23
9620.00,1.23
9619.00,1.23
9618.00,1.23
9617.00,1.22
9616.00,1.22
9615.00,1.22
9614.00,1.22
9613.00,1.22
9612.00,1.22
9611.00,1.22
9610.00,1.22
9609.00,1.21
9608.00,1.21
9607.00,1.21
9606.00,1.21
9605.00,1.21
9604.00,1.21
9603.00,1.21
9602.00,1.21
9601.00,1.21
9600.00,1.21
9599.00,1.21
9598.00,1.21
9597.00,1.22
9596.00,1.22
9595.00,1.22
9594.00,1.22
9593.00,1.22
9592.00,1.22
9591.00,1.22
9590.00,1.22
9589.00,1.22
9588.00,1.22
9587.00,1.22
9586.00,1.22
9585.00,1.23
9584.00,1.23
9583.00,1.23
9582.00,1.22
9581.00,1.22
9580.00,1.22
9579.00,1.22
9578.00,1.22
9577.00,1.22
9576.00,1.22
9575.00,1.22
9574.00,1.22
9573.00,1.22
9572.00,1.21
9571.00,1.21
9570.00,1.21
9569.00,1.21
9568.00,1.21
9567.00,1.21
9566.00,1.21
9565.00,1.21
9564.00,1.21
9563.00,1.21
9562.00,1.21
9561.00,1.21
9560.00,1.21
9559.00,1.21
9558.00,1.21
9557.00,1.22
9556.00,1.22
9555.00,1.22
9554.00,1.22
9553.00,1.22
9552.00,1.22
9551.00,1.22
9550.00,1.22
9549.00,1.22
9548.00,1.22
9547.00,1.22
9546.00,1.22
9545.00,1.22
9544.00,1.21
9543.00,1.21
9542.00,1.21
9541.00,1.21
9540.00,1.21
9539.00,1.21
9538.00,1.21
9537.00,1.21
9536.00,1.21
9535.00,1.21
9534.00,1.22
9533.00,1.22
9532.00,1.22
9531.00,1.22
9530.00,1.22
9529.00,1.22
9528.00,1.22
9527.00,1.22
9526.00,1.22
9525.00,1.22
9524.00,1.22
9523.00,1.22
9522.00,1.22
9521.00,1.23
9520.00,1.23
9519.00,1.23
9518.00,1.23
9517.00,1.23
9516.00,1.23
9515.00,1.23
9514.00,1.23
9513.00,1.23
9512.00,1.23
9511.00,1.23
9510.00,1.22
9509.00,1.22
9508.00,1.22
9507.00,1.22
9506.00,1.22
9505.00,1.21
9504.00,1.21
9503.00,1.21
9502.00,1.21
9501.00,1.21
9500.00,1.21
9499.00,1.21
9498.00,1.21
9497.00,1.21
9496.00,1.21
9495.00,1.21
9494.00,1.21
9493.00,1.21
9492.00,1.21
9491.00,1.21
9490.00,1.21
9489.00,1.22
9488.00,1.22
9487.00,1.22
9486.00,1.22
9485.00,1.22
9484.00,1.22
9483.00,1.22
9482.00,1.22
9481.00,1.22
9480.00,1.22
9479.00,1.22
9478.00,1.23
9477.00,1.23
9476.00,1.23
9475.00,1.23
9474.00,1.23
9473.00,1.23
9472.00,1.23
9471.00,1.23
9470.00,1.23
9469.00,1.23
9468.00,1.23
9467.00,1.23
9466.00,1.23
9465.00,1.23
9464.00,1.23
9463.00,1.24
9462.00,1.24
9461.00,1.24
9460.00,1.24
9459.00,1.24
9458.00,1.24
9457.00,1.24
9456.00,1.24
9455.00,1.24
9454.00,1.24
9453.00,1.24
9452.00,1.24
9451.00,1.24
9450.00,1.24
9449.00,1.24
9448.00,1.23
9447.00,1.23
9446.00,1.23
9445.00,1.23
9444.00,1.23
9443.00,1.22
9442.00,1.22
9441.00,1.22
9440.00,1.22
9439.00,1.22
9438.00,1.21
9437.00,1.21
9436.00,1.21
9435.00,1.21
9434.00,1.21
9433.00,1.21
9432.00,1.21
9431.00,1.21
9430.00,1.21
9429.00,1.21
9428.00,1.21
9427.00,1.21
9426.00,1.21
9425.00,1.21
9424.00,1.21
9423.00,1.21
9422.00,1.21
9421.00,1.21
9420.00,1.22
9419.00,1.22
9418.00,1.22
9417.00,1.22
9416.00,1.23
9415.00,1.23
9414.00,1.23
9413.00,1.23
9412.00,1.23
9411.00,1.23
9410.00,1.23
9409.00,1.23
9408.00,1.23
9407.00,1.23
9406.00,1.23
9405.00,1.23
9404.00,1.23
9403.00,1.23
9402.00,1.23
9401.00,1.23
9400.00,1.23
9399.00,1.23
9398.00,1.23
9397.00,1.23
9396.00,1.23
9395.00,1.23
9394.00,1.23
9393.00,1.23
9392.00,1.23
9391.00,1.23
9390.00,1.24
9389.00,1.23
9388.00,1.23
9387.00,1.23
9386.00,1.23
9385.00,1.23
9384.00,1.23
9383.00,1.23
9382.00,1.23
9381.00,1.23
9380.00,1.23
9379.00,1.22
9378.00,1.22
9377.00,1.22
9376.00,1.22
9375.00,1.22
9374.00,1.22
9373.00,1.22
9372.00,1.22
9371.00,1.23
9370.00,1.23
9369.00,1.23
9368.00,1.23
9367.00,1.23
9366.00,1.23
9365.00,1.23
9364.00,1.23
9363.00,1.23
9362.00,1.23
9361.00,1.23
9360.00,1.23
9359.00,1.23
9358.00,1.23
9357.00,1.23
9356.00,1.23
9355.00,1.23
9354.00,1.22
9353.00,1.22
9352.00,1.22
9351.00,1.22
9350.00,1.22
9349.00,1.21
9348.00,1.21
9347.00,1.21
9346.00,1.21
9345.00,1.21
9344.00,1.21
9343.00,1.21
9342.00,1.21
9341.00,1.20
9340.00,1.20
9339.00,1.20
9338.00,1.20
9337.00,1.20
9336.00,1.20
9335.00,1.20
9334.00,1.20
9333.00,1.20
9332.00,1.20
9331.00,1.20
9330.00,1.20
9329.00,1.19
9328.00,1.19
9327.00,1.19
9326.00,1.19
9325.00,1.19
9324.00,1.19
9323.00,1.19
9322.00,1.19
9321.00,1.20
9320.00,1.20
9319.00,1.20
9318.00,1.20
9317.00,1.20
9316.00,1.20
9315.00,1.20
9314.00,1.20
9313.00,1.20
9312.00,1.20
9311.00,1.20
9310.00,1.21
9309.00,1.21
9308.00,1.21
9307.00,1.21
9306.00,1.21
9305.00,1.21
9304.00,1.21
9303.00,1.21
9302.00,1.22
9301.00,1.22
9300.00,1.22
9299.00,1.22
9298.00,1.22
9297.00,1.22
9296.00,1.21
9295.00,1.21
9294.00,1.21
9293.00,1.21
9292.00,1.21
9291.00,1.21
9290.00,1.21
9289.00,1.21
9288.00,1.21
9287.00,1.20
9286.00,1.20
9285.00,1.20
9284.00,1.20
9283.00,1.20
9282.00,1.20
9281.00,1.20
9280.00,1.20
9279.00,1.20
9278.00,1.20
9277.00,1.21
9276.00,1.21
9275.00,1.21
9274.00,1.21
9273.00,1.21
9272.00,1.21
9271.00,1.21
9270.00,1.21
9269.00,1.21
9268.00,1.22
9267.00,1.22
9266.00,1.22
9265.00,1.22
9264.00,1.22
9263.00,1.22
9262.00,1.22
9261.00,1.22
9260.00,1.23
9259.00,1.23
9258.00,1.23
9257.00,1.23
9256.00,1.23
9255.00,1.23
9254.00,1.23
9253.00,1.23
9252.00,1.23
9251.00,1.23
9250.00,1.23
9249.00,1.23
9248.00,1.23
9247.00,1.23
9246.00,1.23
9245.00,1.23
9244.00,1.24
9243.00,1.24
9242.00,1.24
9241.00,1.24
9240.00,1.24
9239.00,1.24
9238.00,1.24
9237.00,1.24
9236.00,1.24
9235.00,1.24
9234.00,1.24
9233.00,1.24
9232.00,1.24
9231.00,1.23
9230.00,1.23
9229.00,1.23
9228.00,1.23
9227.00,1.23
9226.00,1.22
9225.00,1.22
9224.00,1.22
9223.00,1.22
9222.00,1.22
9221.00,1.22
9220.00,1.22
9219.00,1.22
9218.00,1.22
9217.00,1.22
9216.00,1.22
9215.00,1.22
9214.00,1.22
9213.00,1.22
9212.00,1.23
9211.00,1.23
9210.00,1.23
9209.00,1.22
9208.00,1.22
9207.00,1.22
9206.00,1.22
9205.00,1.22
9204.00,1.22
9203.00,1.22
9202.00,1.22
9201.00,1.22
9200.00,1.22
9199.00,1.22
9198.00,1.22
9197.00,1.22
9196.00,1.22
9195.00,1.22
9194.00,1.22
9193.00,1.22
9192.00,1.22
9191.00,1.22
9190.00,1.22
9189.00,1.22
9188.00,1.22
9187.00,1.22
9186.00,1.22
9185.00,1.21
9184.00,1.21
9183.00,1.21
9182.00,1.21
9181.00,1.21
9180.00,1.21
9179.00,1.21
9178.00,1.21
9177.00,1.21
9176.00,1.21
9175.00,1.21
9174.00,1.21
9173.00,1.21
9172.00,1.21
9171.00,1.21
9170.00,1.21
9169.00,1.21
9168.00,1.21
9167.00,1.21
9166.00,1.21
9165.00,1.21
9164.00,1.21
9163.00,1.21
9162.00,1.22
9161.00,1.22
9160.00,1.22
9159.00,1.22
9158.00,1.22
9157.00,1.22
9156.00,1.23
9155.00,1.23
9154.00,1.23
9153.00,1.23
9152.00,1.23
9151.00,1.23
9150.00,1.23
9149.00,1.23
9148.00,1.23
9147.00,1.23
9146.00,1.23
9145.00,1.23
9144.00,1.23
9143.00,1.23
9142.00,1.23
9141.00,1.23
9140.00,1.23
9139.00,1.23
9138.00,1.23
9137.00,1.23
9136.00,1.23
9135.00,1.23
9134.00,1.23
9133.00,1.23
9132.00,1.23
9131.00,1.23
9130.00,1.23
9129.00,1.23
9128.00,1.23
9127.00,1.23
9126.00,1.23
9125.00,1.23
9124.00,1.23
9123.00,1.23
9122.00,1.23
9121.00,1.23
9120.00,1.23
9119.00,1.23
9118.00,1.24
9117.00,1.24
9116.00,1.24
9115.00,1.24
9114.00,1.24
9113.00,1.24
9112.00,1.24
9111.00,1.24
9110.00,1.24
9109.00,1.24
9108.00,1.24
9107.00,1.24
9106.00,1.24
9105.00,1.24
9104.00,1.24
9103.00,1.23
9102.00,1.23
9101.00,1.23
9100.00,1.23
9099.00,1.23
9098.00,1.22
9097.00,1.22
9096.00,1.22
9095.00,1.22
9094.00,1.22
9093.00,1.21
9092.00,1.21
9091.00,1.21
9090.00,1.21
9089.00,1.21
9088.00,1.21
9087.00,1.21
9086.00,1.21
9085.00,1.21
9084.00,1.21
9083.00,1.21
9082.00,1.21
9081.00,1.22
9080.00,1.22
9079.00,1.22
9078.00,1.22
9077.00,1.23
9076.00,1.23
9075.00,1.23
9074.00,1.23
9073.00,1.23
9072.00,1.24
9071.00,1.24
9070.00,1.24
9069.00,1.24
9068.00,1.24
9067.00,1.24
9066.00,1.24
9065.00,1.25
9064.00,1.25
9063.00,1.25
9062.00,1.25
9061.00,1.25
9060.00,1.25
9059.00,1.24
9058.00,1.24
9057.00,1.24
9056.00,1.24
9055.00,1.24
9054.00,1.24
9053.00,1.24
9052.00,1.23
9051.00,1.23
9050.00,1.23
9049.00,1.23
9048.00,1.22
9047.00,1.22
9046.00,1.22
9045.00,1.22
9044.00,1.22
9043.00,1.22
9042.00,1.22
9041.00,1.22
9040.00,1.21
9039.00,1.21
9038.00,1.21
9037.00,1.21
9036.00,1.22
9035.00,1.22
9034.00,1.22
9033.00,1.22
9032.00,1.22
9031.00,1.22
9030.00,1.22
9029.00,1.22
9028.00,1.22
9027.00,1.22
9026.00,1.22
9025.00,1.22
9024.00,1.22
9023.00,1.22
9022.00,1.22
9021.00,1.22
9020.00,1.22
9019.00,1.22
9018.00,1.22
9017.00,1.22
9016.00,1.22
9015.00,1.22
9014.00,1.22
9013.00,1.21
9012.00,1.21
9011.00,1.21
9010.00,1.21
9009.00,1.21
9008.00,1.21
9007.00,1.21
9006.00,1.21
9005.00,1.21
9004.00,1.21
9003.00,1.21
9002.00,1.21
9001.00,1.21
9000.00,1.21
8999.00,1.21
8998.00,1.21
8997.00,1.21
8996.00,1.21
8995.00,1.21
8994.00,1.21
8993.00,1.21
8992.00,1.21
8991.00,1.22
8990.00,1.22
8989.00,1.22
8988.00,1.22
8987.00,1.22
8986.00,1.22
8985.00,1.22
8984.00,1.23
8983.00,1.23
8982.00,1.23
8981.00,1.23
8980.00,1.23
8979.00,1.23
8978.00,1.23
8977.00,1.23
8976.00,1.23
8975.00,1.23
8974.00,1.23
8973.00,1.23
8972.00,1.23
8971.00,1.23
8970.00,1.23
8969.00,1.23
8968.00,1.23
8967.00,1.23
8966.00,1.23
8965.00,1.23
8964.00,1.23
8963.00,1.23
8962.00,1.23
8961.00,1.23
8960.00,1.23
8959.00,1.23
8958.00,1.23
8957.00,1.23
8956.00,1.23
8955.00,1.23
8954.00,1.23
8953.00,1.23
8952.00,1.23
8951.00,1.23
8950.00,1.23
8949.00,1.23
8948.00,1.23
8947.00,1.23
8946.00,1.23
8945.00,1.23
8944.00,1.23
8943.00,1.23
8942.00,1.23
8941.00,1.23
8940.00,1.23
8939.00,1.23
8938.00,1.23
8937.00,1.23
8936.00,1.23
8935.00,1.23
8934.00,1.23
8933.00,1.23
8932.00,1.23
8931.00,1.23
8930.00,1.23
8929.00,1.23
8928.00,1.23
8927.00,1.23
8926.00,1.24
8925.00,1.24
8924.00,1.24
8923.00,1.24
8922.00,1.24
8921.00,1.24
8920.00,1.24
8919.00,1.24
8918.00,1.24
8917.00,1.24
8916.00,1.24
8915.00,1.24
8914.00,1.24
8913.00,1.24
8912.00,1.24
8911.00,1.24
8910.00,1.24
8909.00,1.24
8908.00,1.24
8907.00,1.24
8906.00,1.24
8905.00,1.24
8904.00,1.24
8903.00,1.24
8902.00,1.23
8901.00,1.23
8900.00,1.23
8899.00,1.23
8898.00,1.23
8897.00,1.23
8896.00,1.23
8895.00,1.22
8894.00,1.22
8893.00,1.22
8892.00,1.22
8891.00,1.22
8890.00,1.22
8889.00,1.22
8888.00,1.22
8887.00,1.22
8886.00,1.23
8885.00,1.23
8884.00,1.23
8883.00,1.23
8882.00,1.23
8881.00,1.23
8880.00,1.23
8879.00,1.23
8878.00,1.23
8877.00,1.23
8876.00,1.24
8875.00,1.24
8874.00,1.24
8873.00,1.24
8872.00,1.24
8871.00,1.23
8870.00,1.23
8869.00,1.23
8868.00,1.23
8867.00,1.23
8866.00,1.23
8865.00,1.23
8864.00,1.23
8863.00,1.23
8862.00,1.23
8861.00,1.22
8860.00,1.22
8859.00,1.22
8858.00,1.22
8857.00,1.22
8856.00,1.22
8855.00,1.22
8854.00,1.22
8853.00,1.22
8852.00,1.22
8851.00,1.22
8850.00,1.22
8849.00,1.22
8848.00,1.22
8847.00,1.22
8846.00,1.22
8845.00,1.22
8844.00,1.22
8843.00,1.22
8842.00,1.22
8841.00,1.22
8840.00,1.22
8839.00,1.22
8838.00,1.22
8837.00,1.22
8836.00,1.22
8835.00,1.22
8834.00,1.22
8833.00,1.22
8832.00,1.22
8831.00,1.22
8830.00,1.22
8829.00,1.22
8828.00,1.22
8827.00,1.22
8826.00,1.22
8825.00,1.22
8824.00,1.22
8823.00,1.22
8822.00,1.22
8821.00,1.22
8820.00,1.22
8819.00,1.22
8818.00,1.22
8817.00,1.22
8816.00,1.21
8815.00,1.21
8814.00,1.21
8813.00,1.21
8812.00,1.21
8811.00,1.21
8810.00,1.21
8809.00,1.21
8808.00,1.21
8807.00,1.21
8806.00,1.21
8805.00,1.21
8804.00,1.21
8803.00,1.21
8802.00,1.21
8801.00,1.21
8800.00,1.21
8799.00,1.21
8798.00,1.20
8797.00,1.20
8796.00,1.20
8795.00,1.20
8794.00,1.20
8793.00,1.20
8792.00,1.20
8791.00,1.20
8790.00,1.20
8789.00,1.20
8788.00,1.20
8787.00,1.20
8786.00,1.20
8785.00,1.20
8784.00,1.20
8783.00,1.20
8782.00,1.20
8781.00,1.20
8780.00,1.20
8779.00,1.20
8778.00,1.20
8777.00,1.20
8776.00,1.21
8775.00,1.21
8774.00,1.21
8773.00,1.21
8772.00,1.21
8771.00,1.21
8770.00,1.21
8769.00,1.21
8768.00,1.21
8767.00,1.21
8766.00,1.21
8765.00,1.20
8764.00,1.20
8763.00,1.20
8762.00,1.20
8761.00,1.20
8760.00,1.20
8759.00,1.20
8758.00,1.20
8757.00,1.19
8756.00,1.19
8755.00,1.19
8754.00,1.19
8753.00,1.19
8752.00,1.19
8751.00,1.20
8750.00,1.20
8749.00,1.20
8748.00,1.20
8747.00,1.20
8746.00,1.20
8745.00,1.20
8744.00,1.20
8743.00,1.21
8742.00,1.21
8741.00,1.21
8740.00,1.21
8739.00,1.20
8738.00,1.20
8737.00,1.20
8736.00,1.20
8735.00,1.20
8734.00,1.20
8733.00,1.19
8732.00,1.19
8731.00,1.19
8730.00,1.19
8729.00,1.18
8728.00,1.18
8727.00,1.18
8726.00,1.18
8725.00,1.18
8724.00,1.18
8723.00,1.18
8722.00,1.18
8721.00,1.17
8720.00,1.17
8719.00,1.17
8718.00,1.17
8717.00,1.18
8716.00,1.18
8715.00,1.18
8714.00,1.18
8713.00,1.18
8712.00,1.18
8711.00,1.18
8710.00,1.18
8709.00,1.18
8708.00,1.18
8707.00,1.18
8706.00,1.18
8705.00,1.18
8704.00,1.18
8703.00,1.18
8702.00,1.18
8701.00,1.18
8700.00,1.18
8699.00,1.18
8698.00,1.18
8697.00,1.18
8696.00,1.19
8695.00,1.19
8694.00,1.19
8693.00,1.19
8692.00,1.19
8691.00,1.19
8690.00,1.19
8689.00,1.19
8688.00,1.19
8687.00,1.19
8686.00,1.19
8685.00,1.19
8684.00,1.19
8683.00,1.19
8682.00,1.19
8681.00,1.19
8680.00,1.19
8679.00,1.19
8678.00,1.19
8677.00,1.19
8676.00,1.19
8675.00,1.19
8674.00,1.20
8673.00,1.20
8672.00,1.20
8671.00,1.20
8670.00,1.20
8669.00,1.20
8668.00,1.20
8667.00,1.19
8666.00,1.19
8665.00,1.19
8664.00,1.19
8663.00,1.19
8662.00,1.19
8661.00,1.19
8660.00,1.19
8659.00,1.19
8658.00,1.19
8657.00,1.19
8656.00,1.18
8655.00,1.18
8654.00,1.18
8653.00,1.19
8652.00,1.19
8651.00,1.19
8650.00,1.19
8649.00,1.19
8648.00,1.19
8647.00,1.19
8646.00,1.19
8645.00,1.19
8644.00,1.19
8643.00,1.19
8642.00,1.19
8641.00,1.19
8640.00,1.19
8639.00,1.19
8638.00,1.19
8637.00,1.18
8636.00,1.18
8635.00,1.18
8634.00,1.18
8633.00,1.18
8632.00,1.18
8631.00,1.18
8630.00,1.18
8629.00,1.18
8628.00,1.18
8627.00,1.18
8626.00,1.18
8625.00,1.17
8624.00,1.17
8623.00,1.17
8622.00,1.17
8621.00,1.17
8620.00,1.17
8619.00,1.17
8618.00,1.17
8617.00,1.18
8616.00,1.18
8615.00,1.18
8614.00,1.18
8613.00,1.18
8612.00,1.18
8611.00,1.18
8610.00,1.18
8609.00,1.18
8608.00,1.18
8607.00,1.18
8606.00,1.18
8605.00,1.18
8604.00,1.18
8603.00,1.18
8602.00,1.18
8601.00,1.18
8600.00,1.18
8599.00,1.18
8598.00,1.18
8597.00,1.18
8596.00,1.18
8595.00,1.18
8594.00,1.18
8593.00,1.18
8592.00,1.18
8591.00,1.18
8590.00,1.18
8589.00,1.18
8588.00,1.17
8587.00,1.17
8586.00,1.17
8585.00,1.17
8584.00,1.17
8583.00,1.16
8582.00,1.16
8581.00,1.16
8580.00,1.16
8579.00,1.16
8578.00,1.16
8577.00,1.16
8576.00,1.15
8575.00,1.15
8574.00,1.15
8573.00,1.15
8572.00,1.15
8571.00,1.15
8570.00,1.15
8569.00,1.15
8568.00,1.15
8567.00,1.15
8566.00,1.15
8565.00,1.14
8564.00,1.14
8563.00,1.14
8562.00,1.14
8561.00,1.14
8560.00,1.14
8559.00,1.14
8558.00,1.14
8557.00,1.14
8556.00,1.14
8555.00,1.14
8554.00,1.14
8553.00,1.14
8552.00,1.14
8551.00,1.14
8550.00,1.14
8549.00,1.14
8548.00,1.14
8547.00,1.15
8546.00,1.15
8545.00,1.15
8544.00,1.15
8543.00,1.15
8542.00,1.15
8541.00,1.15
8540.00,1.15
8539.00,1.15
8538.00,1.15
8537.00,1.15
8536.00,1.15
8535.00,1.15
8534.00,1.15
8533.00,1.14
8532.00,1.14
8531.00,1.14
8530.00,1.14
8529.00,1.14
8528.00,1.14
8527.00,1.14
8526.00,1.14
8525.00,1.14
8524.00,1.13
8523.00,1.13
8522.00,1.13
8521.00,1.13
8520.00,1.13
8519.00,1.13
8518.00,1.13
8517.00,1.13
8516.00,1.13
8515.00,1.13
8514.00,1.12
8513.00,1.12
8512.00,1.12
8511.00,1.12
8510.00,1.12
8509.00,1.12
8508.00,1.12
8507.00,1.12
8506.00,1.12
8505.00,1.12
8504.00,1.12
8503.00,1.12
8502.00,1.12
8501.00,1.12
8500.00,1.12
8499.00,1.12
8498.00,1.11
8497.00,1.11
8496.00,1.11
8495.00,1.11
8494.00,1.11
8493.00,1.11
8492.00,1.11
8491.00,1.11
8490.00,1.11
8489.00,1.11
8488.00,1.11
8487.00,1.11
8486.00,1.11
8485.00,1.11
8484.00,1.11
8483.00,1.11
8482.00,1.11
8481.00,1.11
8480.00,1.11
8479.00,1.10
8478.00,1.10
8477.00,1.10
8476.00,1.10
8475.00,1.10
8474.00,1.10
8473.00,1.10
8472.00,1.10
8471.00,1.10
8470.00,1.10
8469.00,1.10
8468.00,1.10
8467.00,1.10
8466.00,1.10
8465.00,1.10
8464.00,1.10
8463.00,1.11
8462.00,1.11
8461.00,1.11
8460.00,1.11
8459.00,1.11
8458.00,1.11
8457.00,1.11
8456.00,1.11
8455.00,1.11
8454.00,1.11
8453.00,1.11
8452.00,1.11
8451.00,1.10
8450.00,1.10
8449.00,1.10
8448.00,1.10
8447.00,1.10
8446.00,1.10
8445.00,1.10
8444.00,1.10
8443.00,1.10
8442.00,1.10
8441.00,1.10
8440.00,1.10
8439.00,1.10
8438.00,1.10
8437.00,1.10
8436.00,1.10
8435.00,1.10
8434.00,1.10
8433.00,1.10
8432.00,1.10
8431.00,1.10
8430.00,1.10
8429.00,1.10
8428.00,1.10
8427.00,1.10
8426.00,1.10
8425.00,1.10
8424.00,1.10
8423.00,1.10
8422.00,1.10
8421.00,1.10
8420.00,1.10
8419.00,1.10
8418.00,1.10
8417.00,1.10
8416.00,1.10
8415.00,1.10
8414.00,1.10
8413.00,1.10
8412.00,1.10
8411.00,1.10
8410.00,1.10
8409.00,1.10
8408.00,1.10
8407.00,1.10
8406.00,1.10
8405.00,1.11
8404.00,1.11
8403.00,1.11
8402.00,1.11
8401.00,1.11
8400.00,1.11
8399.00,1.11
8398.00,1.11
8397.00,1.11
8396.00,1.11
8395.00,1.11
8394.00,1.11
8393.00,1.11
8392.00,1.11
8391.00,1.11
8390.00,1.11
8389.00,1.11
8388.00,1.11
8387.00,1.11
8386.00,1.11
8385.00,1.11
8384.00,1.11
8383.00,1.11
8382.00,1.11
8381.00,1.11
8380.00,1.11
8379.00,1.11
8378.00,1.12
8377.00,1.12
8376.00,1.12
8375.00,1.12
8374.00,1.12
8373.00,1.12
8372.00,1.12
8371.00,1.12
8370.00,1.12
8369.00,1.12
8368.00,1.12
8367.00,1.13
8366.00,1.13
8365.00,1.13
8364.00,1.13
8363.00,1.13
8362.00,1.13
8361.00,1.13
8360.00,1.13
8359.00,1.13
8358.00,1.13
8357.00,1.13
8356.00,1.13
8355.00,1.13
8354.00,1.13
8353.00,1.13
8352.00,1.13
8351.00,1.13
8350.00,1.13
8349.00,1.14
8348.00,1.14
8347.00,1.14
8346.00,1.14
8345.00,1.14
8344.00,1.14
8343.00,1.14
8342.00,1.14
8341.00,1.14
8340.00,1.14
8339.00,1.14
8338.00,1.14
8337.00,1.14
8336.00,1.14
8335.00,1.14
8334.00,1.13
8333.00,1.13
8332.00,1.13
8331.00,1.13
8330.00,1.13
8329.00,1.13
8328.00,1.13
8327.00,1.13
8326.00,1.13
8325.00,1.13
8324.00,1.13
8323.00,1.13
8322.00,1.13
8321.00,1.13
8320.00,1.13
8319.00,1.13
8318.00,1.13
8317.00,1.13
8316.00,1.13
8315.00,1.13
8314.00,1.13
8313.00,1.13
8312.00,1.13
8311.00,1.13
8310.00,1.13
8309.00,1.13
8308.00,1.14
8307.00,1.14
8306.00,1.14
8305.00,1.14
8304.00,1.14
8303.00,1.14
8302.00,1.14
8301.00,1.14
8300.00,1.14
8299.00,1.14
8298.00,1.14
8297.00,1.14
8296.00,1.14
8295.00,1.14
8294.00,1.14
8293.00,1.14
8292.00,1.14
8291.00,1.14
8290.00,1.14
8289.00,1.14
8288.00,1.14
8287.00,1.14
8286.00,1.14
8285.00,1.14
8284.00,1.14
8283.00,1.14
8282.00,1.14
8281.00,1.14
8280.00,1.14
8279.00,1.14
8278.00,1.14
8277.00,1.14
8276.00,1.14
8275.00,1.14
8274.00,1.14
8273.00,1.14
8272.00,1.14
8271.00,1.14
8270.00,1.14
8269.00,1.14
8268.00,1.14
8267.00,1.14
8266.00,1.14
8265.00,1.14
8264.00,1.14
8263.00,1.14
8262.00,1.14
8261.00,1.13
8260.00,1.13
8259.00,1.13
8258.00,1.13
8257.00,1.13
8256.00,1.13
8255.00,1.13
8254.00,1.14
8253.00,1.14
8252.00,1.14
8251.00,1.14
8250.00,1.14
8249.00,1.14
8248.00,1.14
8247.00,1.15
8246.00,1.15
8245.00,1.15
8244.00,1.15
8243.00,1.15
8242.00,1.16
8241.00,1.16
8240.00,1.16
8239.00,1.16
8238.00,1.16
8237.00,1.16
8236.00,1.16
8235.00,1.16
8234.00,1.17
8233.00,1.17
8232.00,1.17
8231.00,1.17
8230.00,1.17
8229.00,1.17
8228.00,1.17
8227.00,1.17
8226.00,1.17
8225.00,1.17
8224.00,1.17
8223.00,1.17
8222.00,1.17
8221.00,1.17
8220.00,1.17
8219.00,1.17
8218.00,1.17
8217.00,1.16
8216.00,1.16
8215.00,1.16
8214.00,1.16
8213.00,1.16
8212.00,1.16
8211.00,1.16
8210.00,1.16
8209.00,1.16
8208.00,1.16
8207.00,1.16
8206.00,1.16
8205.00,1.16
8204.00,1.16
8203.00,1.16
8202.00,1.16
8201.00,1.16
8200.00,1.16
8199.00,1.16
8198.00,1.16
8197.00,1.16
8196.00,1.16
8195.00,1.16
8194.00,1.16
8193.00,1.16
8192.00,1.16
8191.00,1.16
8190.00,1.16
8189.00,1.16
8188.00,1.16
8187.00,1.17
8186.00,1.17
8185.00,1.17
8184.00,1.17
8183.00,1.17
8182.00,1.17
8181.00,1.17
8180.00,1.18
8179.00,1.18
8178.00,1.18
8177.00,1.18
8176.00,1.18
8175.00,1.18
8174.00,1.19
8173.00,1.19
8172.00,1.19
8171.00,1.19
8170.00,1.19
8169.00,1.19
8168.00,1.19
8167.00,1.19
8166.00,1.19
8165.00,1.19
8164.00,1.19
8163.00,1.19
8162.00,1.19
8161.00,1.19
8160.00,1.19
8159.00,1.19
8158.00,1.19
8157.00,1.19
8156.00,1.19
8155.00,1.19
8154.00,1.19
8153.00,1.18
8152.00,1.18
8151.00,1.18
8150.00,1.18
8149.00,1.18
8148.00,1.18
8147.00,1.18
8146.00,1.18
8145.00,1.18
8144.00,1.18
8143.00,1.18
8142.00,1.18
8141.00,1.18
8140.00,1.18
8139.00,1.18
8138.00,1.18
8137.00,1.18
8136.00,1.18
8135.00,1.18
8134.00,1.18
8133.00,1.18
8132.00,1.18
8131.00,1.18
8130.00,1.18
8129.00,1.18
8128.00,1.18
8127.00,1.18
8126.00,1.18
8125.00,1.18
8124.00,1.18
8123.00,1.18
8122.00,1.18
8121.00,1.18
8120.00,1.18
8119.00,1.18
8118.00,1.18
8117.00,1.18
8116.00,1.19
8115.00,1.19
8114.00,1.19
8113.00,1.19
8112.00,1.19
8111.00,1.19
8110.00,1.19
8109.00,1.19
8108.00,1.19
8107.00,1.19
8106.00,1.19
8105.00,1.19
8104.00,1.19
8103.00,1.19
8102.00,1.19
8101.00,1.19
8100.00,1.19
8099.00,1.19
8098.00,1.19
8097.00,1.19
8096.00,1.19
8095.00,1.19
8094.00,1.19
8093.00,1.19
8092.00,1.19
8091.00,1.19
8090.00,1.19
8089.00,1.19
8088.00,1.19
8087.00,1.19
8086.00,1.19
8085.00,1.19
8084.00,1.19
8083.00,1.19
8082.00,1.19
8081.00,1.19
8080.00,1.19
8079.00,1.19
8078.00,1.19
8077.00,1.19
8076.00,1.19
8075.00,1.19
8074.00,1.19
8073.00,1.20
8072.00,1.20
8071.00,1.20
8070.00,1.20
8069.00,1.20
8068.00,1.20
8067.00,1.20
8066.00,1.20
8065.00,1.20
8064.00,1.20
8063.00,1.20
8062.00,1.20
8061.00,1.20
8060.00,1.20
8059.00,1.20
8058.00,1.20
8057.00,1.20
8056.00,1.20
8055.00,1.20
8054.00,1.20
8053.00,1.20
8052.00,1.20
8051.00,1.21
8050.00,1.21
8049.00,1.21
8048.00,1.21
8047.00,1.21
8046.00,1.21
8045.00,1.21
8044.00,1.21
8043.00,1.21
8042.00,1.21
8041.00,1.21
8040.00,1.21
8039.00,1.21
8038.00,1.22
8037.00,1.22
8036.00,1.22
8035.00,1.22
8034.00,1.22
8033.00,1.22
8032.00,1.22
8031.00,1.22
8030.00,1.22
8029.00,1.22
8028.00,1.22
8027.00,1.22
8026.00,1.22
8025.00,1.22
8024.00,1.22
8023.00,1.21
8022.00,1.21
8021.00,1.21
8020.00,1.21
8019.00,1.21
8018.00,1.21
8017.00,1.21
8016.00,1.21
8015.00,1.21
8014.00,1.21
8013.00,1.21
8012.00,1.21
8011.00,1.21
8010.00,1.21
8009.00,1.21
8008.00,1.21
8007.00,1.21
8006.00,1.21
8005.00,1.21
8004.00,1.21
8003.00,1.21
8002.00,1.21
8001.00,1.21
8000.00,1.21
7999.00,1.21
7998.00,1.21
7997.00,1.21
7996.00,1.21
7995.00,1.21
7994.00,1.21
7993.00,1.21
7992.00,1.21
7991.00,1.21
7990.00,1.21
7989.00,1.21
7988.00,1.21
7987.00,1.21
7986.00,1.21
7985.00,1.21
7984.00,1.21
7983.00,1.21
7982.00,1.21
7981.00,1.20
7980.00,1.20
7979.00,1.20
7978.00,1.20
7977.00,1.20
7976.00,1.20
7975.00,1.20
7974.00,1.20
7973.00,1.20
7972.00,1.20
7971.00,1.20
7970.00,1.20
7969.00,1.20
7968.00,1.21
7967.00,1.21
7966.00,1.21
7965.00,1.21
7964.00,1.21
7963.00,1.21
7962.00,1.21
7961.00,1.21
7960.00,1.21
7959.00,1.21
7958.00,1.21
7957.00,1.21
7956.00,1.21
7955.00,1.22
7954.00,1.22
7953.00,1.22
7952.00,1.22
7951.00,1.22
7950.00,1.22
7949.00,1.22
7948.00,1.22
7947.00,1.22
7946.00,1.22
7945.00,1.22
7944.00,1.21
7943.00,1.21
7942.00,1.21
7941.00,1.21
7940.00,1.21
7939.00,1.21
7938.00,1.21
7937.00,1.21
7936.00,1.21
7935.00,1.21
7934.00,1.21
7933.00,1.21
7932.00,1.21
7931.00,1.21
7930.00,1.21
7929.00,1.21
7928.00,1.21
7927.00,1.21
7926.00,1.22
7925.00,1.22
7924.00,1.22
7923.00,1.22
7922.00,1.22
7921.00,1.22
7920.00,1.22
7919.00,1.22
7918.00,1.22
7917.00,1.23
7916.00,1.23
7915.00,1.23
7914.00,1.23
7913.00,1.23
7912.00,1.23
7911.00,1.23
7910.00,1.23
7909.00,1.23
7908.00,1.23
7907.00,1.23
7906.00,1.23
7905.00,1.23
7904.00,1.23
7903.00,1.23
7902.00,1.23
7901.00,1.23
7900.00,1.23
7899.00,1.23
7898.00,1.23
7897.00,1.23
7896.00,1.23
7895.00,1.23
7894.00,1.23
7893.00,1.23
7892.00,1.23
7891.00,1.23
7890.00,1.23
7889.00,1.23
7888.00,1.23
7887.00,1.23
7886.00,1.23
7885.00,1.23
7884.00,1.23
7883.00,1.23
7882.00,1.22
7881.00,1.22
7880.00,1.22
7879.00,1.22
7878.00,1.22
7877.00,1.22
7876.00,1.22
7875.00,1.23
7874.00,1.23
7873.00,1.23
7872.00,1.23
7871.00,1.23
7870.00,1.23
7869.00,1.23
7868.00,1.23
7867.00,1.23
7866.00,1.23
7865.00,1.23
7864.00,1.23
7863.00,1.23
7862.00,1.23
7861.00,1.23
7860.00,1.23
7859.00,1.23
7858.00,1.23
7857.00,1.23
7856.00,1.23
7855.00,1.23
7854.00,1.23
7853.00,1.23
7852.00,1.23
7851.00,1.23
7850.00,1.23
7849.00,1.23
7848.00,1.24
7847.00,1.24
7846.00,1.24
7845.00,1.24
7844.00,1.23
7843.00,1.23
7842.00,1.23
7841.00,1.23
7840.00,1.23
7839.00,1.23
7838.00,1.23
7837.00,1.23
7836.00,1.23
7835.00,1.23
7834.00,1.23
7833.00,1.23
7832.00,1.24
7831.00,1.24
7830.00,1.24
7829.00,1.24
7828.00,1.24
7827.00,1.24
7826.00,1.24
7825.00,1.24
7824.00,1.24
7823.00,1.24
7822.00,1.24
7821.00,1.24
7820.00,1.24
7819.00,1.24
7818.00,1.24
7817.00,1.24
7816.00,1.24
7815.00,1.24
7814.00,1.24
7813.00,1.24
7812.00,1.24
7811.00,1.24
7810.00,1.24
7809.00,1.24
7808.00,1.24
7807.00,1.24
7806.00,1.24
7805.00,1.24
7804.00,1.24
7803.00,1.24
7802.00,1.24
7801.00,1.24
7800.00,1.24
7799.00,1.24
7798.00,1.24
7797.00,1.24
7796.00,1.24
7795.00,1.24
7794.00,1.24
7793.00,1.24
7792.00,1.24
7791.00,1.24
7790.00,1.24
7789.00,1.24
7788.00,1.24
7787.00,1.24
7786.00,1.24
7785.00,1.24
7784.00,1.24
7783.00,1.24
7782.00,1.24
7781.00,1.24
7780.00,1.24
7779.00,1.24
7778.00,1.24
7777.00,1.24
7776.00,1.24
7775.00,1.24
7774.00,1.24
7773.00,1.24
7772.00,1.24
7771.00,1.24
7770.00,1.24
7769.00,1.24
7768.00,1.24
7767.00,1.24
7766.00,1.24
7765.00,1.24
7764.00,1.24
7763.00,1.24
7762.00,1.24
7761.00,1.24
7760.00,1.24
7759.00,1.24
7758.00,1.24
7757.00,1.24
7756.00,1.24
7755.00,1.24
7754.00,1.24
7753.00,1.24
7752.00,1.24
7751.00,1.24
7750.00,1.24
7749.00,1.24
7748.00,1.24
7747.00,1.24
7746.00,1.24
7745.00,1.24
7744.00,1.24
7743.00,1.24
7742.00,1.24
7741.00,1.24
7740.00,1.24
7739.00,1.24
7738.00,1.24
7737.00,1.24
7736.00,1.24
7735.00,1.24
7734.00,1.23
7733.00,1.23
7732.00,1.23
7731.00,1.23
7730.00,1.23
7729.00,1.23
7728.00,1.23
7727.00,1.23
7726.00,1.23
7725.00,1.23
7724.00,1.23
7723.00,1.23
7722.00,1.23
7721.00,1.23
7720.00,1.23
7719.00,1.24
7718.00,1.24
7717.00,1.24
7716.00,1.24
7715.00,1.24
7714.00,1.24
7713.00,1.24
7712.00,1.24
7711.00,1.24
7710.00,1.24
7709.00,1.24
7708.00,1.24
7707.00,1.24
7706.00,1.24
7705.00,1.24
7704.00,1.24
7703.00,1.24
7702.00,1.24
7701.00,1.24
7700.00,1.24
7699.00,1.24
7698.00,1.24
7697.00,1.24
7696.00,1.24
7695.00,1.24
7694.00,1.24
7693.00,1.24
7692.00,1.24
7691.00,1.24
7690.00,1.24
7689.00,1.24
7688.00,1.24
7687.00,1.24
7686.00,1.24
7685.00,1.24
7684.00,1.25
7683.00,1.25
7682.00,1.25
7681.00,1.25
7680.00,1.25
7679.00,1.25
7678.00,1.25
7677.00,1.25
7676.00,1.25
7675.00,1.25
7674.00,1.25
7673.00,1.25
7672.00,1.25
7671.00,1.24
7670.00,1.24
7669.00,1.24
7668.00,1.24
7667.00,1.24
7666.00,1.24
7665.00,1.24
7664.00,1.24
7663.00,1.24
7662.00,1.24
7661.00,1.24
7660.00,1.24
7659.00,1.24
7658.00,1.24
7657.00,1.24
7656.00,1.24
7655.00,1.24
7654.00,1.24
7653.00,1.24
7652.00,1.24
7651.00,1.24
7650.00,1.24
7649.00,1.24
7648.00,1.24
7647.00,1.24
7646.00,1.24
7645.00,1.24
7644.00,1.24
7643.00,1.24
7642.00,1.24
7641.00,1.24
7640.00,1.24
7639.00,1.24
7638.00,1.24
7637.00,1.24
7636.00,1.24
7635.00,1.24
7634.00,1.24
7633.00,1.24
7632.00,1.24
7631.00,1.24
7630.00,1.24
7629.00,1.24
7628.00,1.24
7627.00,1.24
7626.00,1.24
7625.00,1.24
7624.00,1.24
7623.00,1.24
7622.00,1.24
7621.00,1.24
7620.00,1.24
7619.00,1.24
7618.00,1.24
7617.00,1.24
7616.00,1.24
7615.00,1.24
7614.00,1.24
7613.00,1.24
7612.00,1.24
7611.00,1.24
7610.00,1.24
7609.00,1.24
7608.00,1.24
7607.00,1.24
7606.00,1.24
7605.00,1.24
7604.00,1.24
7603.00,1.24
7602.00,1.24
7601.00,1.24
7600.00,1.24
7599.00,1.24
7598.00,1.24
7597.00,1.24
7596.00,1.24
7595.00,1.24
7594.00,1.24
7593.00,1.24
7592.00,1.24
7591.00,1.24
7590.00,1.24
7589.00,1.24
7588.00,1.24
7587.00,1.24
7586.00,1.24
7585.00,1.24
7584.00,1.25
7583.00,1.25
7582.00,1.25
7581.00,1.25
7580.00,1.25
7579.00,1.25
7578.00,1.25
7577.00,1.25
7576.00,1.25
7575.00,1.25
7574.00,1.25
7573.00,1.25
7572.00,1.25
7571.00,1.24
7570.00,1.24
7569.00,1.24
7568.00,1.24
7567.00,1.24
7566.00,1.24
7565.00,1.24
7564.00,1.24
7563.00,1.24
7562.00,1.24
7561.00,1.24
7560.00,1.24
7559.00,1.24
7558.00,1.24
7557.00,1.24
7556.00,1.23
7555.00,1.23
7554.00,1.23
7553.00,1.23
7552.00,1.23
7551.00,1.23
7550.00,1.23
7549.00,1.23
7548.00,1.23
7547.00,1.23
7546.00,1.23
7545.00,1.23
7544.00,1.23
7543.00,1.23
7542.00,1.23
7541.00,1.23
7540.00,1.23
7539.00,1.23
7538.00,1.23
7537.00,1.23
7536.00,1.23
7535.00,1.23
7534.00,1.23
7533.00,1.23
7532.00,1.23
7531.00,1.23
7530.00,1.23
7529.00,1.23
7528.00,1.23
7527.00,1.23
7526.00,1.23
7525.00,1.23
7524.00,1.23
7523.00,1.23
7522.00,1.23
7521.00,1.23
7520.00,1.23
7519.00,1.24
7518.00,1.24
7517.00,1.24
7516.00,1.24
7515.00,1.24
7514.00,1.24
7513.00,1.24
7512.00,1.24
7511.00,1.24
7510.00,1.24
7509.00,1.24
7508.00,1.24
7507.00,1.24
7506.00,1.24
7505.00,1.24
7504.00,1.23
7503.00,1.23
7502.00,1.23
7501.00,1.23
7500.00,1.23
7499.00,1.23
7498.00,1.23
7497.00,1.23
7496.00,1.23
7495.00,1.23
7494.00,1.23
7493.00,1.23
7492.00,1.23
7491.00,1.23
7490.00,1.22
7489.00,1.22
7488.00,1.22
7487.00,1.22
7486.00,1.22
7485.00,1.22
7484.00,1.22
7483.00,1.22
7482.00,1.22
7481.00,1.22
7480.00,1.22
7479.00,1.22
7478.00,1.22
7477.00,1.22
7476.00,1.22
7475.00,1.22
7474.00,1.22
7473.00,1.22
7472.00,1.22
7471.00,1.22
7470.00,1.22
7469.00,1.22
7468.00,1.22
7467.00,1.22
7466.00,1.22
7465.00,1.22
7464.00,1.21
7463.00,1.21
7462.00,1.21
7461.00,1.21
7460.00,1.21
7459.00,1.21
7458.00,1.21
7457.00,1.21
7456.00,1.21
7455.00,1.21
7454.00,1.21
7453.00,1.21
7452.00,1.21
7451.00,1.21
7450.00,1.21
7449.00,1.21
7448.00,1.21
7447.00,1.21
7446.00,1.20
7445.00,1.20
7444.00,1.20
7443.00,1.20
7442.00,1.20
7441.00,1.20
7440.00,1.20
7439.00,1.20
7438.00,1.20
7437.00,1.20
7436.00,1.19
7435.00,1.19
7434.00,1.19
7433.00,1.19
7432.00,1.19
7431.00,1.19
7430.00,1.19
7429.00,1.19
7428.00,1.19
7427.00,1.19
7426.00,1.19
7425.00,1.19
7424.00,1.19
7423.00,1.19
7422.00,1.19
7421.00,1.19
7420.00,1.19
7419.00,1.19
7418.00,1.18
7417.00,1.18
7416.00,1.18
7415.00,1.18
7414.00,1.18
7413.00,1.18
7412.00,1.18
7411.00,1.18
7410.00,1.18
7409.00,1.18
7408.00,1.18
7407.00,1.18
7406.00,1.18
7405.00,1.18
7404.00,1.18
7403.00,1.18
7402.00,1.18
7401.00,1.18
7400.00,1.18
7399.00,1.18
7398.00,1.18
7397.00,1.18
7396.00,1.18
7395.00,1.18
7394.00,1.17
7393.00,1.17
7392.00,1.17
7391.00,1.17
7390.00,1.17
7389.00,1.16
7388.00,1.16
7387.00,1.16
7386.00,1.16
7385.00,1.16
7384.00,1.16
7383.00,1.15
7382.00,1.15
7381.00,1.15
7380.00,1.15
7379.00,1.15
7378.00,1.15
7377.00,1.15
7376.00,1.15
7375.00,1.15
7374.00,1.15
7373.00,1.15
7372.00,1.15
7371.00,1.15
7370.00,1.15
7369.00,1.15
7368.00,1.15
7367.00,1.15
7366.00,1.15
7365.00,1.15
7364.00,1.15
7363.00,1.15
7362.00,1.15
7361.00,1.16
7360.00,1.16
7359.00,1.16
7358.00,1.16
7357.00,1.16
7356.00,1.16
7355.00,1.16
7354.00,1.16
7353.00,1.16
7352.00,1.16
7351.00,1.16
7350.00,1.15
7349.00,1.15
7348.00,1.15
7347.00,1.15
7346.00,1.15
7345.00,1.15
7344.00,1.15
7343.00,1.15
7342.00,1.15
7341.00,1.15
7340.00,1.15
7339.00,1.15
7338.00,1.15
7337.00,1.15
7336.00,1.15
7335.00,1.15
7334.00,1.15
7333.00,1.15
7332.00,1.15
7331.00,1.14
7330.00,1.14
7329.00,1.14
7328.00,1.14
7327.00,1.14
7326.00,1.14
7325.00,1.14
7324.00,1.14
7323.00,1.14
7322.00,1.14
7321.00,1.14
7320.00,1.14
7319.00,1.14
7318.00,1.14
7317.00,1.14
7316.00,1.14
7315.00,1.14
7314.00,1.14
7313.00,1.13
7312.00,1.13
7311.00,1.13
7310.00,1.13
7309.00,1.13
7308.00,1.13
7307.00,1.13
7306.00,1.13
7305.00,1.13
7304.00,1.13
7303.00,1.13
7302.00,1.13
7301.00,1.13
7300.00,1.13
7299.00,1.12
7298.00,1.12
7297.00,1.12
7296.00,1.12
7295.00,1.12
7294.00,1.12
7293.00,1.12
7292.00,1.12
7291.00,1.12
7290.00,1.12
7289.00,1.12
7288.00,1.12
7287.00,1.12
7286.00,1.12
7285.00,1.12
7284.00,1.12
7283.00,1.12
7282.00,1.12
7281.00,1.12
7280.00,1.12
7279.00,1.12
7278.00,1.12
7277.00,1.12
7276.00,1.12
7275.00,1.11
7274.00,1.11
7273.00,1.11
7272.00,1.11
7271.00,1.11
7270.00,1.11
7269.00,1.11
7268.00,1.11
7267.00,1.10
7266.00,1.10
7265.00,1.10
7264.00,1.10
7263.00,1.10
7262.00,1.10
7261.00,1.10
7260.00,1.09
7259.00,1.09
7258.00,1.09
7257.00,1.09
7256.00,1.09
7255.00,1.09
7254.00,1.09
7253.00,1.09
7252.00,1.09
7251.00,1.09
7250.00,1.09
7249.00,1.08
7248.00,1.08
7247.00,1.08
7246.00,1.08
7245.00,1.08
7244.00,1.07
7243.00,1.07
7242.00,1.07
7241.00,1.07
7240.00,1.07
7239.00,1.06
7238.00,1.06
7237.00,1.06
7236.00,1.05
7235.00,1.05
7234.00,1.05
7233.00,1.05
7232.00,1.04
7231.00,1.04
7230.00,1.04
7229.00,1.04
7228.00,1.03
7227.00,1.03
7226.00,1.03
7225.00,1.03
7224.00,1.02
7223.00,1.02
7222.00,1.02
7221.00,1.02
7220.00,1.01
7219.00,1.01
7218.00,1.01
7217.00,1.01
7216.00,1.00
7215.00,1.00
7214.00,1.00
7213.00,1.00
7212.00,1.00
7211.00,0.99
7210.00,0.99
7209.00,0.99
7208.00,0.99
7207.00,0.98
7206.00,0.98
7205.00,0.98
7204.00,0.97
7203.00,0.97
7202.00,0.97
7201.00,0.97
7200.00,0.96
7199.00,0.96
7198.00,0.96
7197.00,0.96
7196.00,0.95
7195.00,0.95
7194.00,0.95
7193.00,0.95
7192.00,0.95
7191.00,0.94
7190.00,0.94
7189.00,0.94
7188.00,0.94
7187.00,0.94
7186.00,0.93
7185.00,0.93
7184.00,0.93
7183.00,0.93
7182.00,0.93
7181.00,0.92
7180.00,0.92
7179.00,0.92
7178.00,0.92
7177.00,0.91
7176.00,0.91
7175.00,0.91
7174.00,0.91
7173.00,0.90
7172.00,0.90
7171.00,0.90
7170.00,0.90
7169.00,0.90
7168.00,0.89
7167.00,0.89
7166.00,0.89
7165.00,0.89
7164.00,0.88
7163.00,0.88
7162.00,0.88
7161.00,0.88
7160.00,0.88
7159.00,0.87
7158.00,0.87
7157.00,0.87
7156.00,0.87
7155.00,0.87
7154.00,0.87
7153.00,0.87
7152.00,0.86
7151.00,0.86
7150.00,0.86
7149.00,0.86
7148.00,0.86
7147.00,0.86
7146.00,0.86
7145.00,0.86
7144.00,0.85
7143.00,0.85
7142.00,0.85
7141.00,0.85
7140.00,0.85
7139.00,0.84
7138.00,0.84
7137.00,0.84
7136.00,0.84
7135.00,0.83
7134.00,0.83
7133.00,0.83
7132.00,0.82
7131.00,0.82
7130.00,0.82
7129.00,0.81
7128.00,0.81
7127.00,0.81
7126.00,0.80
7125.00,0.80
7124.00,0.80
7123.00,0.79
7122.00,0.79
7121.00,0.79
7120.00,0.78
7119.00,0.78
7118.00,0.78
7117.00,0.78
7116.00,0.77
7115.00,0.77
7114.00,0.77
7113.00,0.76
7112.00,0.76
7111.00,0.76
7110.00,0.76
7109.00,0.76
7108.00,0.75
7107.00,0.75
7106.00,0.75
7105.00,0.75
7104.00,0.75
7103.00,0.74
7102.00,0.74
7101.00,0.74
7100.00,0.74
7099.00,0.74
7098.00,0.74
7097.00,0.74
7096.00,0.74
7095.00,0.74
7094.00,0.73
7093.00,0.73
7092.00,0.73
7091.00,0.73
7090.00,0.73
7089.00,0.73
7088.00,0.73
7087.00,0.73
7086.00,0.73
7085.00,0.73
7084.00,0.73
7083.00,0.72
7082.00,0.72
7081.00,0.72
7080.00,0.72
7079.00,0.72
7078.00,0.72
7077.00,0.71
7076.00,0.71
7075.00,0.71
7074.00,0.71
7073.00,0.71
7072.00,0.70
7071.00,0.70
7070.00,0.70
7069.00,0.70
7068.00,0.70
7067.00,0.70
7066.00,0.70
7065.00,0.69
7064.00,0.69
7063.00,0.69
7062.00,0.69
7061.00,0.69
7060.00,0.69
7059.00,0.69
7058.00,0.69
7057.00,0.69
7056.00,0.68
7055.00,0.68
7054.00,0.68
7053.00,0.68
7052.00,0.68
7051.00,0.68
7050.00,0.68
7049.00,0.67
7048.00,0.67
7047.00,0.67
7046.00,0.67
7045.00,0.67
7044.00,0.67
7043.00,0.67
7042.00,0.67
7041.00,0.67
7040.00,0.66
7039.00,0.66
7038.00,0.66
7037.00,0.66
7036.00,0.66
7035.00,0.66
7034.00,0.66
7033.00,0.66
7032.00,0.66
7031.00,0.66
7030.00,0.66
7029.00,0.66
7028.00,0.66
7027.00,0.66
7026.00,0.66
7025.00,0.66
7024.00,0.66
7023.00,0.66
7022.00,0.66
7021.00,0.66
7020.00,0.66
7019.00,0.66
7018.00,0.66
7017.00,0.65
7016.00,0.65
7015.00,0.65
7014.00,0.65
7013.00,0.65
7012.00,0.65
7011.00,0.65
7010.00,0.65
7009.00,0.65
7008.00,0.65
7007.00,0.65
7006.00,0.64
7005.00,0.64
7004.00,0.64
7003.00,0.64
7002.00,0.64
7001.00,0.64
7000.00,0.64
6999.00,0.64
6998.00,0.64
6997.00,0.63
6996.00,0.63
6995.00,0.63
6994.00,0.63
6993.00,0.63
6992.00,0.63
6991.00,0.63
6990.00,0.63
6989.00,0.63
6988.00,0.63
6987.00,0.63
6986.00,0.63
6985.00,0.62
6984.00,0.62
6983.00,0.62
6982.00,0.62
6981.00,0.62
6980.00,0.62
6979.00,0.62
6978.00,0.62
6977.00,0.62
6976.00,0.63
6975.00,0.63
6974.00,0.63
6973.00,0.63
6972.00,0.63
6971.00,0.63
6970.00,0.63
6969.00,0.63
6968.00,0.62
6967.00,0.62
6966.00,0.62
6965.00,0.62
6964.00,0.62
6963.00,0.62
6962.00,0.62
6961.00,0.62
6960.00,0.62
6959.00,0.62
6958.00,0.62
6957.00,0.62
6956.00,0.62
6955.00,0.62
6954.00,0.61
6953.00,0.61
6952.00,0.61
6951.00,0.61
6950.00,0.61
6949.00,0.61
6948.00,0.61
6947.00,0.61
6946.00,0.61
6945.00,0.61
6944.00,0.61
6943.00,0.61
6942.00,0.61
6941.00,0.61
6940.00,0.61
6939.00,0.61
6938.00,0.61
6937.00,0.61
6936.00,0.61
6935.00,0.61
6934.00,0.61
6933.00,0.61
6932.00,0.61
6931.00,0.61
6930.00,0.61
6929.00,0.61
6928.00,0.61
6927.00,0.61
6926.00,0.61
6925.00,0.61
6924.00,0.61
6923.00,0.61
6922.00,0.61
6921.00,0.61
6920.00,0.61
6919.00,0.61
6918.00,0.61
6917.00,0.61
6916.00,0.61
6915.00,0.61
6914.00,0.61
6913.00,0.61
6912.00,0.61
6911.00,0.61
6910.00,0.61
6909.00,0.61
6908.00,0.61
6907.00,0.60
6906.00,0.60
6905.00,0.60
6904.00,0.60
6903.00,0.60
6902.00,0.60
6901.00,0.60
6900.00,0.60
6899.00,0.60
6898.00,0.60
6897.00,0.60
6896.00,0.60
6895.00,0.60
6894.00,0.60
6893.00,0.60
6892.00,0.59
6891.00,0.59
6890.00,0.59
6889.00,0.59
6888.00,0.59
6887.00,0.60
6886.00,0.60
6885.00,0.60
6884.00,0.60
6883.00,0.60
6882.00,0.60
6881.00,0.60
6880.00,0.60
6879.00,0.60
6878.00,0.60
6877.00,0.60
6876.00,0.60
6875.00,0.60
6874.00,0.60
6873.00,0.60
6872.00,0.60
6871.00,0.60
6870.00,0.60
6869.00,0.60
6868.00,0.60
6867.00,0.60
6866.00,0.60
6865.00,0.60
6864.00,0.60
6863.00,0.60
6862.00,0.60
6861.00,0.60
6860.00,0.60
6859.00,0.60
6858.00,0.60
6857.00,0.60
6856.00,0.60
6855.00,0.60
6854.00,0.60
6853.00,0.60
6852.00,0.60
6851.00,0.60
6850.00,0.60
6849.00,0.60
6848.00,0.60
6847.00,0.60
6846.00,0.60
6845.00,0.60
6844.00,0.60
6843.00,0.60
6842.00,0.60
6841.00,0.60
6840.00,0.60
6839.00,0.60
6838.00,0.60
6837.00,0.60
6836.00,0.60
6835.00,0.60
6834.00,0.60
6833.00,0.60
6832.00,0.60
6831.00,0.60
6830.00,0.60
6829.00,0.60
6828.00,0.60
6827.00,0.60
6826.00,0.60
6825.00,0.60
6824.00,0.60
6823.00,0.60
6822.00,0.60
6821.00,0.60
6820.00,0.60
6819.00,0.60
6818.00,0.60
6817.00,0.60
6816.00,0.60
6815.00,0.61
6814.00,0.61
6813.00,0.61
6812.00,0.61
6811.00,0.61
6810.00,0.61
6809.00,0.61
6808.00,0.61
6807.00,0.61
6806.00,0.61
6805.00,0.61
6804.00,0.61
6803.00,0.61
6802.00,0.61
6801.00,0.61
6800.00,0.61
6799.00,0.61
6798.00,0.61
6797.00,0.61
6796.00,0.61
6795.00,0.61
6794.00,0.61
6793.00,0.61
6792.00,0.61
6791.00,0.61
6790.00,0.61
6789.00,0.62
6788.00,0.62
6787.00,0.62
6786.00,0.62
6785.00,0.62
6784.00,0.62
6783.00,0.62
6782.00,0.62
6781.00,0.62
6780.00,0.62
6779.00,0.62
6778.00,0.62
6777.00,0.62
6776.00,0.62
6775.00,0.62
6774.00,0.62
6773.00,0.62
6772.00,0.62
6771.00,0.62
6770.00,0.62
6769.00,0.62
6768.00,0.62
6767.00,0.62
6766.00,0.62
6765.00,0.62
6764.00,0.63
6763.00,0.63
6762.00,0.63
6761.00,0.63
6760.00,0.63
6759.00,0.63
6758.00,0.63
6757.00,0.63
6756.00,0.63
6755.00,0.63
6754.00,0.63
6753.00,0.63
6752.00,0.63
6751.00,0.63
6750.00,0.63
6749.00,0.63
6748.00,0.63
6747.00,0.63
6746.00,0.63
6745.00,0.63
6744.00,0.63
6743.00,0.63
6742.00,0.63
6741.00,0.64
6740.00,0.64
6739.00,0.64
6738.00,0.64
6737.00,0.64
6736.00,0.64
6735.00,0.64
6734.00,0.64
6733.00,0.64
6732.00,0.64
6731.00,0.64
6730.00,0.64
6729.00,0.65
6728.00,0.65
6727.00,0.65
6726.00,0.65
6725.00,0.65
6724.00,0.65
6723.00,0.65
6722.00,0.65
6721.00,0.65
6720.00,0.65
6719.00,0.65
6718.00,0.65
6717.00,0.65
6716.00,0.65
6715.00,0.66
6714.00,0.66
6713.00,0.66
6712.00,0.66
6711.00,0.66
6710.00,0.66
6709.00,0.66
6708.00,0.66
6707.00,0.66
6706.00,0.66
6705.00,0.66
6704.00,0.66
6703.00,0.66
6702.00,0.66
6701.00,0.66
6700.00,0.66
6699.00,0.66
6698.00,0.66
6697.00,0.66
6696.00,0.66
6695.00,0.66
6694.00,0.67
6693.00,0.67
6692.00,0.67
6691.00,0.67
6690.00,0.67
6689.00,0.67
6688.00,0.67
6687.00,0.68
6686.00,0.68
6685.00,0.68
6684.00,0.68
6683.00,0.68
6682.00,0.68
6681.00,0.68
6680.00,0.68
6679.00,0.69
6678.00,0.69
6677.00,0.69
6676.00,0.69
6675.00,0.69
6674.00,0.69
6673.00,0.69
6672.00,0.69
6671.00,0.69
6670.00,0.69
6669.00,0.69
6668.00,0.69
6667.00,0.70
6666.00,0.70
6665.00,0.70
6664.00,0.70
6663.00,0.70
6662.00,0.70
6661.00,0.70
6660.00,0.70
6659.00,0.70
6658.00,0.70
6657.00,0.70
6656.00,0.70
6655.00,0.70
6654.00,0.70
6653.00,0.70
6652.00,0.70
6651.00,0.71
6650.00,0.71
6649.00,0.71
6648.00,0.71
6647.00,0.71
6646.00,0.71
6645.00,0.71
6644.00,0.71
6643.00,0.71
6642.00,0.71
6641.00,0.72
6640.00,0.72
6639.00,0.72
6638.00,0.72
6637.00,0.72
6636.00,0.72
6635.00,0.72
6634.00,0.72
6633.00,0.72
6632.00,0.72
6631.00,0.72
6630.00,0.72
6629.00,0.73
6628.00,0.73
6627.00,0.73
6626.00,0.73
6625.00,0.73
6624.00,0.73
6623.00,0.73
6622.00,0.73
6621.00,0.73
6620.00,0.73
6619.00,0.73
6618.00,0.74
6617.00,0.74
6616.00,0.74
6615.00,0.74
6614.00,0.74
6613.00,0.74
6612.00,0.74
6611.00,0.74
6610.00,0.74
6609.00,0.74
6608.00,0.74
6607.00,0.74
6606.00,0.74
6605.00,0.74
6604.00,0.74
6603.00,0.75
6602.00,0.75
6601.00,0.75
6600.00,0.75
6599.00,0.75
6598.00,0.75
6597.00,0.75
6596.00,0.75
6595.00,0.75
6594.00,0.75
6593.00,0.75
6592.00,0.75
6591.00,0.76
6590.00,0.76
6589.00,0.76
6588.00,0.76
6587.00,0.76
6586.00,0.76
6585.00,0.76
6584.00,0.76
6583.00,0.76
6582.00,0.76
6581.00,0.77
6580.00,0.77
6579.00,0.77
6578.00,0.77
6577.00,0.77
6576.00,0.77
6575.00,0.77
6574.00,0.77
6573.00,0.77
6572.00,0.77
6571.00,0.77
6570.00,0.77
6569.00,0.78
6568.00,0.78
6567.00,0.78
6566.00,0.78
6565.00,0.78
6564.00,0.78
6563.00,0.78
6562.00,0.78
6561.00,0.78
6560.00,0.78
6559.00,0.78
6558.00,0.78
6557.00,0.78
6556.00,0.78
6555.00,0.78
6554.00,0.78
6553.00,0.78
6552.00,0.78
6551.00,0.78
6550.00,0.78
6549.00,0.78
6548.00,0.79
6547.00,0.79
6546.00,0.79
6545.00,0.79
6544.00,0.79
6543.00,0.79
6542.00,0.79
6541.00,0.79
6540.00,0.79
6539.00,0.79
6538.00,0.79
6537.00,0.80
6536.00,0.80
6535.00,0.80
6534.00,0.80
6533.00,0.80
6532.00,0.80
6531.00,0.80
6530.00,0.80
6529.00,0.80
6528.00,0.80
6527.00,0.80
6526.00,0.81
6525.00,0.81
6524.00,0.81
6523.00,0.81
6522.00,0.81
6521.00,0.81
6520.00,0.81
6519.00,0.81
6518.00,0.81
6517.00,0.81
6516.00,0.81
6515.00,0.81
6514.00,0.82
6513.00,0.82
6512.00,0.82
6511.00,0.82
6510.00,0.82
6509.00,0.82
6508.00,0.82
6507.00,0.82
6506.00,0.82
6505.00,0.82
6504.00,0.82
6503.00,0.82
6502.00,0.82
6501.00,0.82
6500.00,0.82
6499.00,0.82
6498.00,0.82
6497.00,0.82
6496.00,0.82
6495.00,0.82
6494.00,0.82
6493.00,0.82
6492.00,0.82
6491.00,0.82
6490.00,0.82
6489.00,0.82
6488.00,0.82
6487.00,0.82
6486.00,0.82
6485.00,0.82
6484.00,0.82
6483.00,0.82
6482.00,0.82
6481.00,0.83
6480.00,0.83
6479.00,0.83
6478.00,0.83
6477.00,0.83
6476.00,0.83
6475.00,0.83
6474.00,0.83
6473.00,0.83
6472.00,0.83
6471.00,0.83
6470.00,0.83
6469.00,0.84
6468.00,0.84
6467.00,0.84
6466.00,0.84
6465.00,0.84
6464.00,0.84
6463.00,0.84
6462.00,0.84
6461.00,0.84
6460.00,0.84
6459.00,0.84
6458.00,0.84
6457.00,0.84
6456.00,0.84
6455.00,0.85
6454.00,0.85
6453.00,0.85
6452.00,0.85
6451.00,0.85
6450.00,0.85
6449.00,0.85
6448.00,0.85
6447.00,0.85
6446.00,0.85
6445.00,0.85
6444.00,0.85
6443.00,0.85
6442.00,0.85
6441.00,0.85
6440.00,0.85
6439.00,0.85
6438.00,0.85
6437.00,0.85
6436.00,0.85
6435.00,0.85
6434.00,0.85
6433.00,0.85
6432.00,0.85
6431.00,0.85
6430.00,0.85
6429.00,0.85
6428.00,0.85
6427.00,0.85
6426.00,0.85
6425.00,0.85
6424.00,0.85
6423.00,0.85
6422.00,0.85
6421.00,0.85
6420.00,0.85
6419.00,0.85
6418.00,0.85
6417.00,0.85
6416.00,0.85
6415.00,0.85
6414.00,0.85
6413.00,0.86
6412.00,0.86
6411.00,0.86
6410.00,0.86
6409.00,0.86
6408.00,0.86
6407.00,0.86
6406.00,0.86
6405.00,0.86
6404.00,0.86
6403.00,0.86
6402.00,0.86
6401.00,0.86
6400.00,0.86
6399.00,0.86
6398.00,0.86
6397.00,0.86
6396.00,0.86
6395.00,0.86
6394.00,0.86
6393.00,0.86
6392.00,0.86
6391.00,0.86
6390.00,0.86
6389.00,0.86
6388.00,0.86
6387.00,0.87
6386.00,0.87
6385.00,0.87
6384.00,0.87
6383.00,0.87
6382.00,0.87
6381.00,0.87
6380.00,0.87
6379.00,0.87
6378.00,0.87
6377.00,0.87
6376.00,0.87
6375.00,0.87
6374.00,0.87
6373.00,0.87
6372.00,0.87
6371.00,0.87
6370.00,0.87
6369.00,0.87
6368.00,0.87
6367.00,0.87
6366.00,0.87
6365.00,0.87
6364.00,0.87
6363.00,0.87
6362.00,0.87
6361.00,0.88
6360.00,0.88
6359.00,0.88
6358.00,0.88
6357.00,0.88
6356.00,0.88
6355.00,0.88
6354.00,0.88
6353.00,0.88
6352.00,0.88
6351.00,0.88
6350.00,0.89
6349.00,0.89
6348.00,0.89
6347.00,0.89
6346.00,0.89
6345.00,0.89
6344.00,0.89
6343.00,0.89
6342.00,0.89
6341.00,0.89
6340.00,0.89
6339.00,0.89
6338.00,0.89
6337.00,0.89
6336.00,0.89
6335.00,0.89
6334.00,0.90
6333.00,0.90
6332.00,0.90
6331.00,0.90
6330.00,0.90
6329.00,0.90
6328.00,0.90
6327.00,0.90
6326.00,0.90
6325.00,0.90
6324.00,0.90
6323.00,0.90
6322.00,0.91
6321.00,0.91
6320.00,0.91
6319.00,0.91
6318.00,0.91
6317.00,0.91
6316.00,0.91
6315.00,0.91
6314.00,0.91
6313.00,0.91
6312.00,0.92
6311.00,0.92
6310.00,0.92
6309.00,0.92
6308.00,0.92
6307.00,0.92
6306.00,0.92
6305.00,0.92
6304.00,0.92
6303.00,0.93
6302.00,0.93
6301.00,0.93
6300.00,0.93
6299.00,0.93
6298.00,0.93
6297.00,0.93
6296.00,0.93
6295.00,0.93
6294.00,0.94
6293.00,0.94
6292.00,0.94
6291.00,0.94
6290.00,0.94
6289.00,0.94
6288.00,0.94
6287.00,0.94
6286.00,0.94
6285.00,0.94
6284.00,0.95
6283.00,0.95
6282.00,0.95
6281.00,0.95
6280.00,0.95
6279.00,0.95
6278.00,0.95
6277.00,0.95
6276.00,0.95
6275.00,0.95
6274.00,0.95
6273.00,0.95
6272.00,0.96
6271.00,0.96
6270.00,0.96
6269.00,0.96
6268.00,0.96
6267.00,0.96
6266.00,0.96
6265.00,0.96
6264.00,0.96
6263.00,0.96
6262.00,0.96
6261.00,0.97
6260.00,0.97
6259.00,0.97
6258.00,0.97
6257.00,0.97
6256.00,0.97
6255.00,0.97
6254.00,0.97
6253.00,0.97
6252.00,0.97
6251.00,0.98
6250.00,0.98
6249.00,0.98
6248.00,0.98
6247.00,0.98
6246.00,0.98
6245.00,0.98
6244.00,0.98
6243.00,0.98
6242.00,0.98
6241.00,0.98
6240.00,0.99
6239.00,0.99
6238.00,0.99
6237.00,0.99
6236.00,0.99
6235.00,0.99
6234.00,0.99
6233.00,0.99
6232.00,0.99
6231.00,0.99
6230.00,0.99
6229.00,0.99
6228.00,0.99
6227.00,0.99
6226.00,0.99
6225.00,0.99
6224.00,0.99
6223.00,0.99
6222.00,1.00
6221.00,1.00
6220.00,1.00
6219.00,1.00
6218.00,1.00
6217.00,1.00
6216.00,1.00
6215.00,1.00
6214.00,1.01
6213.00,1.01
6212.00,1.01
6211.00,1.01
6210.00,1.01
6209.00,1.01
6208.00,1.01
6207.00,1.02
6206.00,1.02
6205.00,1.02
6204.00,1.02
6203.00,1.02
6202.00,1.02
6201.00,1.02
6200.00,1.02
6199.00,1.02
6198.00,1.02
6197.00,1.02
6196.00,1.02
6195.00,1.03
6194.00,1.03
6193.00,1.03
6192.00,1.03
6191.00,1.03
6190.00,1.03
6189.00,1.03
6188.00,1.03
6187.00,1.03
6186.00,1.03
6185.00,1.04
6184.00,1.04
6183.00,1.04
6182.00,1.04
6181.00,1.04
6180.00,1.04
6179.00,1.04
6178.00,1.04
6177.00,1.05
6176.00,1.05
6175.00,1.05
6174.00,1.05
6173.00,1.05
6172.00,1.05
6171.00,1.05
6170.00,1.05
6169.00,1.05
6168.00,1.05
6167.00,1.05
6166.00,1.05
6165.00,1.06
6164.00,1.06
6163.00,1.06
6162.00,1.06
6161.00,1.06
6160.00,1.06
6159.00,1.06
6158.00,1.06
6157.00,1.06
6156.00,1.06
6155.00,1.07
6154.00,1.07
6153.00,1.07
6152.00,1.07
6151.00,1.07
6150.00,1.07
6149.00,1.07
6148.00,1.08
6147.00,1.08
6146.00,1.08
6145.00,1.08
6144.00,1.08
6143.00,1.08
6142.00,1.08
6141.00,1.08
6140.00,1.09
6139.00,1.09
6138.00,1.09
6137.00,1.09
6136.00,1.09
6135.00,1.09
6134.00,1.09
6133.00,1.10
6132.00,1.10
6131.00,1.10
6130.00,1.10
6129.00,1.10
6128.00,1.10
6127.00,1.10
6126.00,1.11
6125.00,1.11
6124.00,1.11
6123.00,1.11
6122.00,1.11
6121.00,1.11
6120.00,1.11
6119.00,1.11
6118.00,1.12
6117.00,1.12
6116.00,1.12
6115.00,1.12
6114.00,1.12
6113.00,1.12
6112.00,1.12
6111.00,1.12
6110.00,1.12
6109.00,1.12
6108.00,1.13
6107.00,1.13
6106.00,1.13
6105.00,1.13
6104.00,1.13
6103.00,1.13
6102.00,1.13
6101.00,1.13
6100.00,1.13
6099.00,1.13
6098.00,1.13
6097.00,1.14
6096.00,1.14
6095.00,1.14
6094.00,1.14
6093.00,1.14
6092.00,1.14
6091.00,1.14
6090.00,1.14
6089.00,1.14
6088.00,1.14
6087.00,1.14
6086.00,1.14
6085.00,1.15
6084.00,1.15
6083.00,1.15
6082.00,1.15
6081.00,1.15
6080.00,1.15
6079.00,1.15
6078.00,1.15
6077.00,1.15
6076.00,1.15
6075.00,1.15
6074.00,1.16
6073.00,1.16
6072.00,1.16
6071.00,1.16
6070.00,1.16
6069.00,1.16
6068.00,1.16
6067.00,1.16
6066.00,1.16
6065.00,1.17
6064.00,1.17
6063.00,1.17
6062.00,1.17
6061.00,1.17
6060.00,1.17
6059.00,1.17
6058.00,1.17
6057.00,1.17
6056.00,1.17
6055.00,1.17
6054.00,1.17
6053.00,1.17
6052.00,1.17
6051.00,1.17
6050.00,1.18
6049.00,1.18
6048.00,1.18
6047.00,1.18
6046.00,1.18
6045.00,1.18
6044.00,1.18
6043.00,1.18
6042.00,1.18
6041.00,1.18
6040.00,1.18
6039.00,1.18
6038.00,1.18
6037.00,1.18
6036.00,1.18
6035.00,1.18
6034.00,1.18
6033.00,1.18
6032.00,1.18
6031.00,1.18
6030.00,1.18
6029.00,1.18
6028.00,1.18
6027.00,1.18
6026.00,1.18
6025.00,1.18
6024.00,1.18
6023.00,1.18
6022.00,1.18
6021.00,1.18
6020.00,1.18
6019.00,1.18
6018.00,1.18
6017.00,1.18
6016.00,1.19
6015.00,1.19
6014.00,1.19
6013.00,1.19
6012.00,1.19
6011.00,1.19
6010.00,1.19
6009.00,1.19
6008.00,1.19
6007.00,1.19
6006.00,1.19
6005.00,1.18
6004.00,1.18
6003.00,1.18
6002.00,1.18
6001.00,1.18
6000.00,1.18
5999.00,1.18
5998.00,1.18
5997.00,1.18
5996.00,1.18
5995.00,1.18
5994.00,1.18
5993.00,1.17
5992.00,1.17
5991.00,1.17
5990.00,1.17
5989.00,1.17
5988.00,1.17
5987.00,1.17
5986.00,1.16
5985.00,1.16
5984.00,1.16
5983.00,1.16
5982.00,1.16
5981.00,1.15
5980.00,1.15
5979.00,1.15
5978.00,1.15
5977.00,1.14
5976.00,1.14
5975.00,1.14
5974.00,1.13
5973.00,1.13
5972.00,1.12
5971.00,1.12
5970.00,1.12
5969.00,1.11
5968.00,1.11
5967.00,1.10
5966.00,1.10
5965.00,1.09
5964.00,1.09
5963.00,1.08
5962.00,1.07
5961.00,1.07
5960.00,1.06
5959.00,1.06
5958.00,1.05
5957.00,1.05
5956.00,1.04
5955.00,1.03
5954.00,1.03
5953.00,1.02
5952.00,1.02
5951.00,1.01
5950.00,1.01
5949.00,1.00
5948.00,1.00
5947.00,0.99
5946.00,0.99
5945.00,0.98
5944.00,0.98
5943.00,0.98
5942.00,0.98
5941.00,0.97
5940.00,0.97
5939.00,0.97
5938.00,0.97
5937.00,0.97
5936.00,0.97
5935.00,0.97
5934.00,0.97
5933.00,0.96
5932.00,0.96
5931.00,0.96
5930.00,0.96
5929.00,0.96
5928.00,0.96
5927.00,0.96
5926.00,0.96
5925.00,0.96
5924.00,0.96
5923.00,0.95
5922.00,0.95
5921.00,0.95
5920.00,0.95
5919.00,0.95
5918.00,0.94
5917.00,0.94
5916.00,0.94
5915.00,0.94
5914.00,0.93
5913.00,0.93
5912.00,0.93
5911.00,0.93
5910.00,0.92
5909.00,0.92
5908.00,0.92
5907.00,0.92
5906.00,0.92
5905.00,0.92
5904.00,0.91
5903.00,0.91
5902.00,0.91
5901.00,0.91
5900.00,0.91
5899.00,0.91
5898.00,0.91
5897.00,0.92
5896.00,0.92
5895.00,0.92
5894.00,0.92
5893.00,0.92
5892.00,0.92
5891.00,0.93
5890.00,0.93
5889.00,0.93
5888.00,0.93
5887.00,0.94
5886.00,0.94
5885.00,0.94
5884.00,0.94
5883.00,0.95
5882.00,0.95
5881.00,0.95
5880.00,0.95
5879.00,0.96
5878.00,0.96
5877.00,0.96
5876.00,0.96
5875.00,0.97
5874.00,0.97
5873.00,0.97
5872.00,0.97
5871.00,0.97
5870.00,0.98
5869.00,0.98
5868.00,0.98
5867.00,0.98
5866.00,0.98
5865.00,0.98
5864.00,0.98
5863.00,0.99
5862.00,0.99
5861.00,0.99
5860.00,0.99
5859.00,0.99
5858.00,0.99
5857.00,0.99
5856.00,0.99
5855.00,0.99
5854.00,1.00
5853.00,1.00
5852.00,1.00
5851.00,1.00
5850.00,1.00
5849.00,1.00
5848.00,1.00
5847.00,1.00
5846.00,1.00
5845.00,1.00
5844.00,1.00
5843.00,1.00
5842.00,1.00
5841.00,1.00
5840.00,1.00
5839.00,1.00
5838.00,1.00
5837.00,1.00
5836.00,1.00
5835.00,1.00
5834.00,1.00
5833.00,1.00
5832.00,1.00
5831.00,1.00
5830.00,1.00
5829.00,1.00
5828.00,1.00
5827.00,1.00
5826.00,1.00
5825.00,1.00
5824.00,1.00
5823.00,1.00
5822.00,1.00
5821.00,1.00
5820.00,1.00
5819.00,1.00
5818.00,1.00
5817.00,1.00
5816.00,1.00
5815.00,1.00
5814.00,1.00
5813.00,1.00
5812.00,1.00
5811.00,1.00
5810.00,1.00
5809.00,1.00
5808.00,1.00
5807.00,1.00
5806.00,1.00
5805.00,1.00
5804.00,1.00
5803.00,1.00
5802.00,1.00
5801.00,1.00
5800.00,1.00
5799.00,1.00
5798.00,0.99
5797.00,0.99
5796.00,0.99
5795.00,0.99
5794.00,0.99
5793.00,0.99
5792.00,0.99
5791.00,0.98
5790.00,0.98
5789.00,0.98
5788.00,0.98
5787.00,0.98
5786.00,0.97
5785.00,0.97
5784.00,0.97
5783.00,0.97
5782.00,0.97
5781.00,0.97
5780.00,0.96
5779.00,0.96
5778.00,0.96
5777.00,0.96
5776.00,0.96
5775.00,0.96
5774.00,0.96
5773.00,0.96
5772.00,0.96
5771.00,0.96
5770.00,0.96
5769.00,0.96
5768.00,0.96
5767.00,0.96
5766.00,0.96
5765.00,0.96
5764.00,0.96
5763.00,0.96
5762.00,0.97
5761.00,0.97
5760.00,0.97
5759.00,0.97
5758.00,0.98
5757.00,0.98
5756.00,0.98
5755.00,0.98
5754.00,0.99
5753.00,0.99
5752.00,0.99
5751.00,1.00
5750.00,1.00
5749.00,1.00
5748.00,1.00
5747.00,1.01
5746.00,1.01
5745.00,1.01
5744.00,1.02
5743.00,1.02
5742.00,1.02
5741.00,1.02
5740.00,1.03
5739.00,1.03
5738.00,1.03
5737.00,1.03
5736.00,1.03
5735.00,1.04
5734.00,1.04
5733.00,1.04
5732.00,1.04
5731.00,1.04
5730.00,1.04
5729.00,1.04
5728.00,1.05
5727.00,1.05
5726.00,1.05
5725.00,1.05
5724.00,1.05
5723.00,1.05
5722.00,1.05
5721.00,1.05
5720.00,1.05
5719.00,1.05
5718.00,1.05
5717.00,1.05
5716.00,1.05
5715.00,1.05
5714.00,1.05
5713.00,1.05
5712.00,1.05
5711.00,1.05
5710.00,1.05
5709.00,1.05
5708.00,1.05
5707.00,1.05
5706.00,1.05
5705.00,1.05
5704.00,1.05
5703.00,1.05
5702.00,1.05
5701.00,1.05
5700.00,1.05
5699.00,1.05
5698.00,1.05
5697.00,1.05
5696.00,1.04
5695.00,1.04
5694.00,1.04
5693.00,1.04
5692.00,1.04
5691.00,1.04
5690.00,1.04
5689.00,1.03
5688.00,1.03
5687.00,1.03
5686.00,1.03
5685.00,1.03
5684.00,1.03
5683.00,1.03
5682.00,1.03
5681.00,1.03
5680.00,1.02
5679.00,1.02
5678.00,1.02
5677.00,1.02
5676.00,1.02
5675.00,1.02
5674.00,1.02
5673.00,1.02
5672.00,1.02
5671.00,1.02
5670.00,1.02
5669.00,1.02
5668.00,1.02
5667.00,1.03
5666.00,1.03
5665.00,1.03
5664.00,1.03
5663.00,1.03
5662.00,1.03
5661.00,1.03
5660.00,1.03
5659.00,1.03
5658.00,1.03
5657.00,1.04
5656.00,1.04
5655.00,1.04
5654.00,1.04
5653.00,1.04
5652.00,1.04
5651.00,1.05
5650.00,1.05
5649.00,1.05
5648.00,1.05
5647.00,1.05
5646.00,1.05
5645.00,1.06
5644.00,1.06
5643.00,1.06
5642.00,1.06
5641.00,1.06
5640.00,1.06
5639.00,1.07
5638.00,1.07
5637.00,1.07
5636.00,1.07
5635.00,1.07
5634.00,1.07
5633.00,1.08
5632.00,1.08
5631.00,1.08
5630.00,1.08
5629.00,1.08
5628.00,1.08
5627.00,1.09
5626.00,1.09
5625.00,1.09
5624.00,1.09
5623.00,1.09
5622.00,1.09
5621.00,1.09
5620.00,1.09
5619.00,1.10
5618.00,1.10
5617.00,1.10
5616.00,1.10
5615.00,1.10
5614.00,1.10
5613.00,1.10
5612.00,1.11
5611.00,1.11
5610.00,1.11
5609.00,1.11
5608.00,1.11
5607.00,1.11
5606.00,1.11
5605.00,1.12
5604.00,1.12
5603.00,1.12
5602.00,1.12
5601.00,1.12
5600.00,1.12
5599.00,1.12
5598.00,1.12
5597.00,1.13
5596.00,1.13
5595.00,1.13
5594.00,1.13
5593.00,1.13
5592.00,1.13
5591.00,1.13
5590.00,1.13
5589.00,1.14
5588.00,1.14
5587.00,1.14
5586.00,1.14
5585.00,1.14
5584.00,1.14
5583.00,1.14
5582.00,1.14
5581.00,1.14
5580.00,1.15
5579.00,1.15
5578.00,1.15
5577.00,1.15
5576.00,1.15
5575.00,1.15
5574.00,1.15
5573.00,1.15
5572.00,1.15
5571.00,1.15
5570.00,1.16
5569.00,1.16
5568.00,1.16
5567.00,1.16
5566.00,1.16
5565.00,1.16
5564.00,1.16
5563.00,1.16
5562.00,1.16
5561.00,1.17
5560.00,1.17
5559.00,1.17
5558.00,1.17
5557.00,1.17
5556.00,1.17
5555.00,1.17
5554.00,1.17
5553.00,1.17
5552.00,1.17
5551.00,1.17
5550.00,1.17
5549.00,1.17
5548.00,1.18
5547.00,1.18
5546.00,1.18
5545.00,1.18
5544.00,1.18
5543.00,1.18
5542.00,1.18
5541.00,1.18
5540.00,1.18
5539.00,1.19
5538.00,1.19
5537.00,1.19
5536.00,1.19
5535.00,1.19
5534.00,1.19
5533.00,1.19
5532.00,1.19
5531.00,1.19
5530.00,1.19
5529.00,1.19
5528.00,1.19
5527.00,1.19
5526.00,1.20
5525.00,1.20
5524.00,1.20
5523.00,1.20
5522.00,1.20
5521.00,1.20
5520.00,1.20
5519.00,1.20
5518.00,1.20
5517.00,1.20
5516.00,1.20
5515.00,1.20
5514.00,1.20
5513.00,1.20
5512.00,1.20
5511.00,1.20
5510.00,1.20
5509.00,1.20
5508.00,1.20
5507.00,1.20
5506.00,1.20
5505.00,1.20
5504.00,1.20
5503.00,1.20
5502.00,1.20
5501.00,1.20
5500.00,1.20
5499.00,1.20
5498.00,1.21
5497.00,1.21
5496.00,1.21
5495.00,1.21
5494.00,1.21
5493.00,1.21
5492.00,1.21
5491.00,1.21
5490.00,1.21
5489.00,1.21
5488.00,1.21
5487.00,1.21
5486.00,1.21
5485.00,1.21
5484.00,1.21
5483.00,1.21
5482.00,1.22
5481.00,1.22
5480.00,1.22
5479.00,1.22
5478.00,1.22
5477.00,1.22
5476.00,1.22
5475.00,1.22
5474.00,1.22
5473.00,1.23
5472.00,1.23
5471.00,1.23
5470.00,1.23
5469.00,1.23
5468.00,1.23
5467.00,1.23
5466.00,1.23
5465.00,1.23
5464.00,1.23
5463.00,1.23
5462.00,1.23
5461.00,1.24
5460.00,1.24
5459.00,1.24
5458.00,1.24
5457.00,1.24
5456.00,1.24
5455.00,1.24
5454.00,1.24
5453.00,1.24
5452.00,1.24
5451.00,1.24
5450.00,1.24
5449.00,1.24
5448.00,1.24
5447.00,1.24
5446.00,1.25
5445.00,1.25
5444.00,1.25
5443.00,1.25
5442.00,1.25
5441.00,1.25
5440.00,1.25
5439.00,1.25
5438.00,1.25
5437.00,1.25
5436.00,1.25
5435.00,1.25
5434.00,1.24
5433.00,1.24
5432.00,1.24
5431.00,1.24
5430.00,1.24
5429.00,1.25
5428.00,1.25
5427.00,1.25
5426.00,1.25
5425.00,1.25
5424.00,1.25
5423.00,1.25
5422.00,1.25
5421.00,1.25
5420.00,1.25
5419.00,1.25
5418.00,1.25
5417.00,1.25
5416.00,1.25
5415.00,1.25
5414.00,1.25
5413.00,1.25
5412.00,1.25
5411.00,1.25
5410.00,1.25
5409.00,1.25
5408.00,1.25
5407.00,1.25
5406.00,1.25
5405.00,1.25
5404.00,1.25
5403.00,1.25
5402.00,1.25
5401.00,1.25
5400.00,1.25
5399.00,1.25
5398.00,1.25
5397.00,1.25
5396.00,1.25
5395.00,1.24
5394.00,1.24
5393.00,1.24
5392.00,1.24
5391.00,1.24
5390.00,1.24
5389.00,1.24
5388.00,1.24
5387.00,1.24
5386.00,1.23
5385.00,1.23
5384.00,1.23
5383.00,1.23
5382.00,1.23
5381.00,1.22
5380.00,1.22
5379.00,1.22
5378.00,1.22
5377.00,1.22
5376.00,1.21
5375.00,1.21
5374.00,1.21
5373.00,1.20
5372.00,1.20
5371.00,1.20
5370.00,1.20
5369.00,1.19
5368.00,1.19
5367.00,1.18
5366.00,1.18
5365.00,1.18
5364.00,1.17
5363.00,1.17
5362.00,1.16
5361.00,1.16
5360.00,1.15
5359.00,1.15
5358.00,1.14
5357.00,1.14
5356.00,1.13
5355.00,1.13
5354.00,1.12
5353.00,1.11
5352.00,1.11
5351.00,1.10
5350.00,1.09
5349.00,1.09
5348.00,1.08
5347.00,1.07
5346.00,1.06
5345.00,1.06
5344.00,1.05
5343.00,1.04
5342.00,1.03
5341.00,1.03
5340.00,1.02
5339.00,1.01
5338.00,1.00
5337.00,0.99
5336.00,0.99
5335.00,0.98
5334.00,0.97
5333.00,0.96
5332.00,0.95
5331.00,0.94
5330.00,0.93
5329.00,0.93
5328.00,0.92
5327.00,0.91
5326.00,0.90
5325.00,0.89
5324.00,0.88
5323.00,0.87
5322.00,0.86
5321.00,0.86
5320.00,0.85
5319.00,0.84
5318.00,0.83
5317.00,0.82
5316.00,0.81
5315.00,0.80
5314.00,0.80
5313.00,0.79
5312.00,0.78
5311.00,0.77
5310.00,0.76
5309.00,0.76
5308.00,0.75
5307.00,0.74
5306.00,0.74
5305.00,0.73
5304.00,0.72
5303.00,0.72
5302.00,0.71
5301.00,0.70
5300.00,0.70
5299.00,0.69
5298.00,0.69
5297.00,0.68
5296.00,0.68
5295.00,0.67
5294.00,0.67
5293.00,0.67
5292.00,0.66
5291.00,0.66
5290.00,0.66
5289.00,0.65
5288.00,0.65
5287.00,0.65
5286.00,0.64
5285.00,0.64
5284.00,0.64
5283.00,0.64
5282.00,0.64
5281.00,0.63
5280.00,0.63
5279.00,0.63
5278.00,0.63
5277.00,0.63
5276.00,0.63
5275.00,0.63
5274.00,0.63
5273.00,0.63
5272.00,0.63
5271.00,0.63
5270.00,0.62
5269.00,0.62
5268.00,0.62
5267.00,0.62
5266.00,0.62
5265.00,0.62
5264.00,0.62
5263.00,0.62
5262.00,0.62
5261.00,0.62
5260.00,0.62
5259.00,0.62
5258.00,0.62
5257.00,0.62
5256.00,0.62
5255.00,0.62
5254.00,0.61
5253.00,0.61
5252.00,0.61
5251.00,0.61
5250.00,0.61
5249.00,0.61
5248.00,0.61
5247.00,0.61
5246.00,0.61
5245.00,0.61
5244.00,0.61
5243.00,0.61
5242.00,0.61
5241.00,0.61
5240.00,0.61
5239.00,0.61
5238.00,0.61
5237.00,0.61
5236.00,0.61
5235.00,0.61
5234.00,0.61
5233.00,0.61
5232.00,0.61
5231.00,0.61
5230.00,0.61
5229.00,0.61
5228.00,0.61
5227.00,0.61
5226.00,0.61
5225.00,0.61
5224.00,0.61
5223.00,0.61
5222.00,0.61
5221.00,0.61
5220.00,0.61
5219.00,0.61
5218.00,0.61
5217.00,0.61
5216.00,0.61
5215.00,0.61
5214.00,0.61
5213.00,0.61
5212.00,0.61
5211.00,0.61
5210.00,0.61
5209.00,0.61
5208.00,0.61
5207.00,0.61
5206.00,0.61
5205.00,0.61
5204.00,0.61
5203.00,0.61
5202.00,0.61
5201.00,0.61
5200.00,0.61
5199.00,0.61
5198.00,0.61
5197.00,0.62
5196.00,0.62
5195.00,0.62
5194.00,0.62
5193.00,0.62
5192.00,0.62
5191.00,0.62
5190.00,0.62
5189.00,0.62
5188.00,0.62
5187.00,0.62
5186.00,0.62
5185.00,0.62
5184.00,0.62
5183.00,0.62
5182.00,0.62
5181.00,0.62
5180.00,0.62
5179.00,0.62
5178.00,0.62
5177.00,0.62
5176.00,0.62
5175.00,0.62
5174.00,0.62
5173.00,0.62
5172.00,0.62
5171.00,0.62
5170.00,0.62
5169.00,0.62
5168.00,0.62
5167.00,0.62
5166.00,0.62
5165.00,0.62
5164.00,0.62
5163.00,0.63
5162.00,0.63
5161.00,0.63
5160.00,0.63
5159.00,0.63
5158.00,0.63
5157.00,0.63
5156.00,0.63
5155.00,0.63
5154.00,0.63
5153.00,0.63
5152.00,0.63
5151.00,0.63
5150.00,0.63
5149.00,0.63
5148.00,0.63
5147.00,0.63
5146.00,0.63
5145.00,0.63
5144.00,0.63
5143.00,0.63
5142.00,0.63
5141.00,0.63
5140.00,0.63
5139.00,0.63
5138.00,0.64
5137.00,0.64
5136.00,0.64
5135.00,0.64
5134.00,0.64
5133.00,0.64
5132.00,0.64
5131.00,0.64
5130.00,0.64
5129.00,0.64
5128.00,0.64
5127.00,0.64
5126.00,0.64
5125.00,0.64
5124.00,0.64
5123.00,0.64
5122.00,0.64
5121.00,0.64
5120.00,0.64
5119.00,0.64
5118.00,0.65
5117.00,0.65
5116.00,0.65
5115.00,0.65
5114.00,0.65
5113.00,0.65
5112.00,0.65
5111.00,0.65
5110.00,0.65
5109.00,0.65
5108.00,0.65
5107.00,0.65
5106.00,0.65
5105.00,0.65
5104.00,0.66
5103.00,0.66
5102.00,0.66
5101.00,0.66
5100.00,0.66
5099.00,0.66
5098.00,0.66
5097.00,0.66
5096.00,0.66
5095.00,0.66
5094.00,0.66
5093.00,0.66
5092.00,0.66
5091.00,0.66
5090.00,0.66
5089.00,0.66
5088.00,0.66
5087.00,0.66
5086.00,0.66
5085.00,0.67
5084.00,0.67
5083.00,0.67
5082.00,0.67
5081.00,0.67
5080.00,0.67
5079.00,0.67
5078.00,0.67
5077.00,0.67
5076.00,0.67
5075.00,0.67
5074.00,0.67
5073.00,0.67
5072.00,0.67
5071.00,0.68
5070.00,0.68
5069.00,0.68
5068.00,0.68
5067.00,0.68
5066.00,0.68
5065.00,0.68
5064.00,0.68
5063.00,0.68
5062.00,0.68
5061.00,0.68
5060.00,0.68
5059.00,0.68
5058.00,0.68
5057.00,0.68
5056.00,0.68
5055.00,0.69
5054.00,0.69
5053.00,0.69
5052.00,0.69
5051.00,0.69
5050.00,0.69
5049.00,0.69
5048.00,0.69
5047.00,0.69
5046.00,0.69
5045.00,0.69
5044.00,0.69
5043.00,0.69
5042.00,0.69
5041.00,0.70
5040.00,0.70
5039.00,0.70
5038.00,0.70
5037.00,0.70
5036.00,0.70
5035.00,0.70
5034.00,0.70
5033.00,0.70
5032.00,0.70
5031.00,0.70
5030.00,0.70
5029.00,0.70
5028.00,0.70
5027.00,0.70
5026.00,0.71
5025.00,0.71
5024.00,0.71
5023.00,0.71
5022.00,0.71
5021.00,0.71
5020.00,0.71
5019.00,0.71
5018.00,0.71
5017.00,0.72
5016.00,0.72
5015.00,0.72
5014.00,0.72
5013.00,0.72
5012.00,0.72
5011.00,0.72
5010.00,0.73
5009.00,0.73
5008.00,0.73
5007.00,0.73
5006.00,0.73
5005.00,0.73
5004.00,0.73
5003.00,0.73
5002.00,0.73
5001.00,0.74
5000.00,0.74
4999.00,0.74
4998.00,0.74
4997.00,0.74
4996.00,0.74
4995.00,0.74
4994.00,0.74
4993.00,0.74
4992.00,0.74
4991.00,0.74
4990.00,0.74
4989.00,0.74
4988.00,0.74
4987.00,0.75
4986.00,0.75
4985.00,0.75
4984.00,0.75
4983.00,0.75
4982.00,0.75
4981.00,0.75
4980.00,0.75
4979.00,0.75
4978.00,0.75
4977.00,0.75
4976.00,0.76
4975.00,0.76
4974.00,0.76
4973.00,0.76
4972.00,0.76
4971.00,0.76
4970.00,0.76
4969.00,0.77
4968.00,0.77
4967.00,0.77
4966.00,0.77
4965.00,0.77
4964.00,0.77
4963.00,0.77
4962.00,0.77
4961.00,0.78
4960.00,0.78
4959.00,0.78
4958.00,0.78
4957.00,0.78
4956.00,0.78
4955.00,0.78
4954.00,0.78
4953.00,0.78
4952.00,0.78
4951.00,0.78
4950.00,0.78
4949.00,0.79
4948.00,0.79
4947.00,0.79
4946.00,0.79
4945.00,0.79
4944.00,0.79
4943.00,0.79
4942.00,0.79
4941.00,0.79
4940.00,0.79
4939.00,0.79
4938.00,0.79
4937.00,0.79
4936.00,0.79
4935.00,0.79
4934.00,0.79
4933.00,0.79
4932.00,0.79
4931.00,0.80
4930.00,0.80
4929.00,0.80
4928.00,0.80
4927.00,0.80
4926.00,0.80
4925.00,0.80
4924.00,0.80
4923.00,0.80
4922.00,0.80
4921.00,0.80
4920.00,0.80
4919.00,0.80
4918.00,0.80
4917.00,0.80
4916.00,0.80
4915.00,0.80
4914.00,0.80
4913.00,0.80
4912.00,0.80
4911.00,0.80
4910.00,0.80
4909.00,0.80
4908.00,0.81
4907.00,0.81
4906.00,0.81
4905.00,0.81
4904.00,0.81
4903.00,0.81
4902.00,0.81
4901.00,0.81
4900.00,0.81
4899.00,0.81
4898.00,0.81
4897.00,0.81
4896.00,0.81
4895.00,0.81
4894.00,0.81
4893.00,0.81
4892.00,0.82
4891.00,0.82
4890.00,0.82
4889.00,0.82
4888.00,0.82
4887.00,0.82
4886.00,0.82
4885.00,0.82
4884.00,0.82
4883.00,0.82
4882.00,0.82
4881.00,0.82
4880.00,0.82
4879.00,0.82
4878.00,0.82
4877.00,0.82
4876.00,0.82
4875.00,0.82
4874.00,0.83
4873.00,0.83
4872.00,0.83
4871.00,0.83
4870.00,0.83
4869.00,0.83
4868.00,0.83
4867.00,0.83
4866.00,0.83
4865.00,0.83
4864.00,0.83
4863.00,0.83
4862.00,0.83
4861.00,0.83
4860.00,0.83
4859.00,0.83
4858.00,0.83
4857.00,0.83
4856.00,0.83
4855.00,0.83
4854.00,0.83
4853.00,0.83
4852.00,0.83
4851.00,0.83
4850.00,0.83
4849.00,0.84
4848.00,0.84
4847.00,0.84
4846.00,0.84
4845.00,0.84
4844.00,0.84
4843.00,0.84
4842.00,0.84
4841.00,0.84
4840.00,0.84
4839.00,0.84
4838.00,0.84
4837.00,0.85
4836.00,0.85
4835.00,0.85
4834.00,0.85
4833.00,0.85
4832.00,0.85
4831.00,0.85
4830.00,0.85
4829.00,0.85
4828.00,0.85
4827.00,0.85
4826.00,0.86
4825.00,0.86
4824.00,0.86
4823.00,0.86
4822.00,0.86
4821.00,0.86
4820.00,0.86
4819.00,0.86
4818.00,0.86
4817.00,0.86
4816.00,0.86
4815.00,0.86
4814.00,0.86
4813.00,0.86
4812.00,0.86
4811.00,0.86
4810.00,0.87
4809.00,0.87
4808.00,0.87
4807.00,0.87
4806.00,0.87
4805.00,0.87
4804.00,0.87
4803.00,0.87
4802.00,0.87
4801.00,0.87
4800.00,0.87
4799.00,0.87
4798.00,0.88
4797.00,0.88
4796.00,0.88
4795.00,0.88
4794.00,0.88
4793.00,0.88
4792.00,0.88
4791.00,0.88
4790.00,0.89
4789.00,0.89
4788.00,0.89
4787.00,0.89
4786.00,0.89
4785.00,0.89
4784.00,0.89
4783.00,0.89
4782.00,0.90
4781.00,0.90
4780.00,0.90
4779.00,0.90
4778.00,0.90
4777.00,0.90
4776.00,0.90
4775.00,0.90
4774.00,0.91
4773.00,0.91
4772.00,0.91
4771.00,0.91
4770.00,0.91
4769.00,0.91
4768.00,0.91
4767.00,0.92
4766.00,0.92
4765.00,0.92
4764.00,0.92
4763.00,0.92
4762.00,0.92
4761.00,0.92
4760.00,0.93
4759.00,0.93
4758.00,0.93
4757.00,0.93
4756.00,0.93
4755.00,0.93
4754.00,0.93
4753.00,0.94
4752.00,0.94
4751.00,0.94
4750.00,0.94
4749.00,0.94
4748.00,0.94
4747.00,0.94
4746.00,0.94
4745.00,0.94
4744.00,0.94
4743.00,0.95
4742.00,0.95
4741.00,0.95
4740.00,0.95
4739.00,0.95
4738.00,0.95
4737.00,0.95
4736.00,0.95
4735.00,0.96
4734.00,0.96
4733.00,0.96
4732.00,0.96
4731.00,0.96
4730.00,0.97
4729.00,0.97
4728.00,0.97
4727.00,0.97
4726.00,0.98
4725.00,0.98
4724.00,0.98
4723.00,0.98
4722.00,0.98
4721.00,0.99
4720.00,0.99
4719.00,0.99
4718.00,0.99
4717.00,0.99
4716.00,1.00
4715.00,1.00
4714.00,1.00
4713.00,1.00
4712.00,1.00
4711.00,1.01
4710.00,1.01
4709.00,1.01
4708.00,1.01
4707.00,1.01
4706.00,1.01
4705.00,1.01
4704.00,1.01
4703.00,1.02
4702.00,1.02
4701.00,1.02
4700.00,1.02
4699.00,1.02
4698.00,1.02
4697.00,1.02
4696.00,1.02
4695.00,1.02
4694.00,1.02
4693.00,1.03
4692.00,1.03
4691.00,1.03
4690.00,1.03
4689.00,1.03
4688.00,1.03
4687.00,1.03
4686.00,1.03
4685.00,1.04
4684.00,1.04
4683.00,1.04
4682.00,1.04
4681.00,1.04
4680.00,1.04
4679.00,1.04
4678.00,1.04
4677.00,1.05
4676.00,1.05
4675.00,1.05
4674.00,1.05
4673.00,1.05
4672.00,1.05
4671.00,1.05
4670.00,1.05
4669.00,1.05
4668.00,1.05
4667.00,1.06
4666.00,1.06
4665.00,1.06
4664.00,1.06
4663.00,1.06
4662.00,1.06
4661.00,1.07
4660.00,1.07
4659.00,1.07
4658.00,1.07
4657.00,1.07
4656.00,1.08
4655.00,1.08
4654.00,1.08
4653.00,1.08
4652.00,1.09
4651.00,1.09
4650.00,1.09
4649.00,1.09
4648.00,1.09
4647.00,1.09
4646.00,1.10
4645.00,1.10
4644.00,1.10
4643.00,1.10
4642.00,1.10
4641.00,1.10
4640.00,1.10
4639.00,1.10
4638.00,1.10
4637.00,1.11
4636.00,1.11
4635.00,1.11
4634.00,1.11
4633.00,1.11
4632.00,1.11
4631.00,1.11
4630.00,1.11
4629.00,1.11
4628.00,1.11
4627.00,1.11
4626.00,1.12
4625.00,1.12
4624.00,1.12
4623.00,1.12
4622.00,1.12
4621.00,1.12
4620.00,1.12
4619.00,1.12
4618.00,1.12
4617.00,1.12
4616.00,1.12
4615.00,1.12
4614.00,1.12
4613.00,1.12
4612.00,1.13
4611.00,1.13
4610.00,1.13
4609.00,1.13
4608.00,1.13
4607.00,1.13
4606.00,1.13
4605.00,1.13
4604.00,1.13
4603.00,1.13
4602.00,1.13
4601.00,1.13
4600.00,1.14
4599.00,1.14
4598.00,1.14
4597.00,1.14
4596.00,1.14
4595.00,1.14
4594.00,1.14
4593.00,1.14
4592.00,1.14
4591.00,1.14
4590.00,1.14
4589.00,1.14
4588.00,1.14
4587.00,1.15
4586.00,1.15
4585.00,1.15
4584.00,1.15
4583.00,1.15
4582.00,1.15
4581.00,1.15
4580.00,1.16
4579.00,1.16
4578.00,1.16
4577.00,1.16
4576.00,1.16
4575.00,1.16
4574.00,1.16
4573.00,1.16
4572.00,1.17
4571.00,1.17
4570.00,1.17
4569.00,1.17
4568.00,1.17
4567.00,1.17
4566.00,1.17
4565.00,1.17
4564.00,1.17
4563.00,1.17
4562.00,1.17
4561.00,1.17
4560.00,1.17
4559.00,1.17
4558.00,1.17
4557.00,1.17
4556.00,1.17
4555.00,1.17
4554.00,1.17
4553.00,1.18
4552.00,1.18
4551.00,1.18
4550.00,1.18
4549.00,1.18
4548.00,1.18
4547.00,1.18
4546.00,1.18
4545.00,1.18
4544.00,1.18
4543.00,1.18
4542.00,1.18
4541.00,1.18
4540.00,1.19
4539.00,1.19
4538.00,1.19
4537.00,1.19
4536.00,1.18
4535.00,1.18
4534.00,1.18
4533.00,1.18
4532.00,1.18
4531.00,1.18
4530.00,1.18
4529.00,1.18
4528.00,1.18
4527.00,1.18
4526.00,1.18
4525.00,1.18
4524.00,1.18
4523.00,1.18
4522.00,1.18
4521.00,1.18
4520.00,1.18
4519.00,1.18
4518.00,1.18
4517.00,1.18
4516.00,1.18
4515.00,1.19
4514.00,1.19
4513.00,1.19
4512.00,1.19
4511.00,1.19
4510.00,1.19
4509.00,1.19
4508.00,1.19
4507.00,1.19
4506.00,1.19
4505.00,1.19
4504.00,1.20
4503.00,1.20
4502.00,1.20
4501.00,1.20
4500.00,1.20
4499.00,1.20
4498.00,1.20
4497.00,1.20
4496.00,1.20
4495.00,1.19
4494.00,1.19
4493.00,1.19
4492.00,1.19
4491.00,1.19
4490.00,1.19
4489.00,1.19
4488.00,1.19
4487.00,1.19
4486.00,1.18
4485.00,1.18
4484.00,1.18
4483.00,1.18
4482.00,1.18
4481.00,1.18
4480.00,1.17
4479.00,1.17
4478.00,1.17
4477.00,1.17
4476.00,1.16
4475.00,1.16
4474.00,1.16
4473.00,1.16
4472.00,1.15
4471.00,1.15
4470.00,1.15
4469.00,1.14
4468.00,1.14
4467.00,1.14
4466.00,1.14
4465.00,1.13
4464.00,1.13
4463.00,1.13
4462.00,1.12
4461.00,1.12
4460.00,1.12
4459.00,1.12
4458.00,1.11
4457.00,1.11
4456.00,1.11
4455.00,1.10
4454.00,1.10
4453.00,1.09
4452.00,1.09
4451.00,1.09
4450.00,1.08
4449.00,1.08
4448.00,1.07
4447.00,1.07
4446.00,1.06
4445.00,1.06
4444.00,1.06
4443.00,1.05
4442.00,1.05
4441.00,1.04
4440.00,1.04
4439.00,1.03
4438.00,1.03
4437.00,1.03
4436.00,1.02
4435.00,1.02
4434.00,1.01
4433.00,1.01
4432.00,1.01
4431.00,1.00
4430.00,1.00
4429.00,1.00
4428.00,0.99
4427.00,0.99
4426.00,0.99
4425.00,0.99
4424.00,0.99
4423.00,0.99
4422.00,0.98
4421.00,0.98
4420.00,0.98
4419.00,0.98
4418.00,0.98
4417.00,0.98
4416.00,0.98
4415.00,0.98
4414.00,0.98
4413.00,0.98
4412.00,0.98
4411.00,0.99
4410.00,0.99
4409.00,0.99
4408.00,0.99
4407.00,0.99
4406.00,0.99
4405.00,0.99
4404.00,0.99
4403.00,0.99
4402.00,0.99
4401.00,0.99
4400.00,1.00
4399.00,1.00
4398.00,1.00
4397.00,1.00
4396.00,1.00
4395.00,1.00
4394.00,1.00
4393.00,1.00
4392.00,1.00
4391.00,1.00
4390.00,1.00
4389.00,1.00
4388.00,1.00
4387.00,1.00
4386.00,1.01
4385.00,1.01
4384.00,1.01
4383.00,1.01
4382.00,1.01
4381.00,1.01
4380.00,1.01
4379.00,1.01
4378.00,1.02
4377.00,1.02
4376.00,1.02
4375.00,1.02
4374.00,1.02
4373.00,1.02
4372.00,1.02
4371.00,1.02
4370.00,1.02
4369.00,1.02
4368.00,1.02
4367.00,1.02
4366.00,1.02
4365.00,1.02
4364.00,1.02
4363.00,1.02
4362.00,1.02
4361.00,1.02
4360.00,1.02
4359.00,1.02
4358.00,1.02
4357.00,1.02
4356.00,1.02
4355.00,1.02
4354.00,1.02
4353.00,1.02
4352.00,1.02
4351.00,1.02
4350.00,1.02
4349.00,1.02
4348.00,1.02
4347.00,1.02
4346.00,1.02
4345.00,1.02
4344.00,1.02
4343.00,1.02
4342.00,1.02
4341.00,1.02
4340.00,1.02
4339.00,1.02
4338.00,1.02
4337.00,1.02
4336.00,1.03
4335.00,1.03
4334.00,1.03
4333.00,1.03
4332.00,1.03
4331.00,1.03
4330.00,1.03
4329.00,1.03
4328.00,1.03
4327.00,1.04
4326.00,1.04
4325.00,1.04
4324.00,1.04
4323.00,1.04
4322.00,1.05
4321.00,1.05
4320.00,1.05
4319.00,1.05
4318.00,1.05
4317.00,1.06
4316.00,1.06
4315.00,1.06
4314.00,1.06
4313.00,1.06
4312.00,1.06
4311.00,1.07
4310.00,1.07
4309.00,1.07
4308.00,1.07
4307.00,1.07
4306.00,1.07
4305.00,1.07
4304.00,1.07
4303.00,1.08
4302.00,1.08
4301.00,1.08
4300.00,1.08
4299.00,1.08
4298.00,1.08
4297.00,1.08
4296.00,1.09
4295.00,1.09
4294.00,1.09
4293.00,1.09
4292.00,1.09
4291.00,1.09
4290.00,1.10
4289.00,1.10
4288.00,1.10
4287.00,1.10
4286.00,1.10
4285.00,1.10
4284.00,1.10
4283.00,1.10
4282.00,1.10
4281.00,1.10
4280.00,1.10
4279.00,1.10
4278.00,1.10
4277.00,1.10
4276.00,1.10
4275.00,1.10
4274.00,1.10
4273.00,1.10
4272.00,1.10
4271.00,1.10
4270.00,1.10
4269.00,1.10
4268.00,1.10
4267.00,1.10
4266.00,1.10
4265.00,1.10
4264.00,1.10
4263.00,1.10
4262.00,1.10
4261.00,1.10
4260.00,1.10
4259.00,1.10
4258.00,1.10
4257.00,1.10
4256.00,1.10
4255.00,1.10
4254.00,1.10
4253.00,1.10
4252.00,1.10
4251.00,1.10
4250.00,1.10
4249.00,1.10
4248.00,1.10
4247.00,1.10
4246.00,1.11
4245.00,1.11
4244.00,1.11
4243.00,1.11
4242.00,1.11
4241.00,1.11
4240.00,1.11
4239.00,1.12
4238.00,1.12
4237.00,1.12
4236.00,1.12
4235.00,1.12
4234.00,1.12
4233.00,1.13
4232.00,1.13
4231.00,1.13
4230.00,1.13
4229.00,1.13
4228.00,1.13
4227.00,1.14
4226.00,1.14
4225.00,1.14
4224.00,1.14
4223.00,1.14
4222.00,1.14
4221.00,1.14
4220.00,1.14
4219.00,1.14
4218.00,1.14
4217.00,1.14
4216.00,1.14
4215.00,1.14
4214.00,1.14
4213.00,1.14
4212.00,1.14
4211.00,1.14
4210.00,1.14
4209.00,1.14
4208.00,1.14
4207.00,1.14
4206.00,1.14
4205.00,1.15
4204.00,1.15
4203.00,1.15
4202.00,1.15
4201.00,1.15
4200.00,1.15
4199.00,1.15
4198.00,1.15
4197.00,1.15
4196.00,1.15
4195.00,1.16
4194.00,1.16
4193.00,1.16
4192.00,1.16
4191.00,1.16
4190.00,1.16
4189.00,1.16
4188.00,1.16
4187.00,1.16
4186.00,1.16
4185.00,1.16
4184.00,1.16
4183.00,1.16
4182.00,1.16
4181.00,1.16
4180.00,1.16
4179.00,1.16
4178.00,1.16
4177.00,1.16
4176.00,1.16
4175.00,1.16
4174.00,1.16
4173.00,1.16
4172.00,1.16
4171.00,1.16
4170.00,1.16
4169.00,1.16
4168.00,1.16
4167.00,1.16
4166.00,1.16
4165.00,1.16
4164.00,1.16
4163.00,1.16
4162.00,1.16
4161.00,1.16
4160.00,1.16
4159.00,1.16
4158.00,1.16
4157.00,1.16
4156.00,1.16
4155.00,1.16
4154.00,1.16
4153.00,1.17
4152.00,1.17
4151.00,1.17
4150.00,1.17
4149.00,1.17
4148.00,1.17
4147.00,1.17
4146.00,1.17
4145.00,1.17
4144.00,1.17
4143.00,1.17
4142.00,1.17
4141.00,1.17
4140.00,1.17
4139.00,1.17
4138.00,1.17
4137.00,1.17
4136.00,1.17
4135.00,1.17
4134.00,1.17
4133.00,1.17
4132.00,1.17
4131.00,1.17
4130.00,1.17
4129.00,1.17
4128.00,1.17
4127.00,1.17
4126.00,1.17
4125.00,1.17
4124.00,1.17
4123.00,1.17
4122.00,1.17
4121.00,1.17
4120.00,1.17
4119.00,1.17
4118.00,1.17
4117.00,1.17
4116.00,1.17
4115.00,1.17
4114.00,1.17
4113.00,1.17
4112.00,1.17
4111.00,1.17
4110.00,1.17
4109.00,1.17
4108.00,1.17
4107.00,1.18
4106.00,1.18
4105.00,1.18
4104.00,1.18
4103.00,1.18
4102.00,1.18
4101.00,1.18
4100.00,1.18
4099.00,1.18
4098.00,1.18
4097.00,1.18
4096.00,1.18
4095.00,1.18
4094.00,1.18
4093.00,1.18
4092.00,1.18
4091.00,1.17
4090.00,1.17
4089.00,1.17
4088.00,1.17
4087.00,1.17
4086.00,1.17
4085.00,1.17
4084.00,1.17
4083.00,1.17
4082.00,1.17
4081.00,1.17
4080.00,1.17
4079.00,1.18
4078.00,1.18
4077.00,1.18
4076.00,1.18
4075.00,1.18
4074.00,1.18
4073.00,1.18
4072.00,1.19
4071.00,1.19
4070.00,1.19
4069.00,1.19
4068.00,1.19
4067.00,1.19
4066.00,1.19
4065.00,1.19
4064.00,1.19
4063.00,1.19
4062.00,1.19
4061.00,1.19
4060.00,1.19
4059.00,1.19
4058.00,1.19
4057.00,1.19
4056.00,1.19
4055.00,1.20
4054.00,1.20
4053.00,1.20
4052.00,1.20
4051.00,1.20
4050.00,1.20
4049.00,1.20
4048.00,1.20
4047.00,1.20
4046.00,1.21
4045.00,1.21
4044.00,1.21
4043.00,1.21
4042.00,1.21
4041.00,1.21
4040.00,1.21
4039.00,1.21
4038.00,1.21
4037.00,1.21
4036.00,1.21
4035.00,1.21
4034.00,1.21
4033.00,1.22
4032.00,1.22
4031.00,1.22
4030.00,1.22
4029.00,1.22
4028.00,1.22
4027.00,1.22
4026.00,1.23
4025.00,1.23
4024.00,1.23
4023.00,1.23
4022.00,1.23
4021.00,1.23
4020.00,1.23
4019.00,1.23
4018.00,1.24
4017.00,1.24
4016.00,1.24
4015.00,1.24
4014.00,1.24
4013.00,1.24
4012.00,1.24
4011.00,1.24
4010.00,1.24
4009.00,1.24
4008.00,1.24
4007.00,1.24
4006.00,1.24
4005.00,1.24
4004.00,1.24
4003.00,1.25
4002.00,1.25
4001.00,1.25
4000.00,1.25
