创建为新数据集,样品 049 用户 Administrator 日期 星期五, 七月 20 2018
cm-1,%T
10000.00,1.18
9999.00,1.18
9998.00,1.18
9997.00,1.18
9996.00,1.18
9995.00,1.18
9994.00,1.18
9993.00,1.18
9992.00,1.18
9991.00,1.18
9990.00,1.18
9989.00,1.18
9988.00,1.18
9987.00,1.18
9986.00,1.18
9985.00,1.18
9984.00,1.18
9983.00,1.18
9982.00,1.18
9981.00,1.18
9980.00,1.18
9979.00,1.18
9978.00,1.18
9977.00,1.18
9976.00,1.18
9975.00,1.17
9974.00,1.17
9973.00,1.17
9972.00,1.17
9971.00,1.16
9970.00,1.16
9969.00,1.16
9968.00,1.16
9967.00,1.16
9966.00,1.15
9965.00,1.15
9964.00,1.15
9963.00,1.15
9962.00,1.15
9961.00,1.15
9960.00,1.14
9959.00,1.14
9958.00,1.14
9957.00,1.14
9956.00,1.14
9955.00,1.14
9954.00,1.14
9953.00,1.14
9952.00,1.14
9951.00,1.14
9950.00,1.14
9949.00,1.14
9948.00,1.14
9947.00,1.14
9946.00,1.14
9945.00,1.14
9944.00,1.14
9943.00,1.14
9942.00,1.14
9941.00,1.14
9940.00,1.15
9939.00,1.15
9938.00,1.15
9937.00,1.15
9936.00,1.15
9935.00,1.15
9934.00,1.15
9933.00,1.15
9932.00,1.15
9931.00,1.15
9930.00,1.15
9929.00,1.15
9928.00,1.15
9927.00,1.15
9926.00,1.15
9925.00,1.15
9924.00,1.15
9923.00,1.15
9922.00,1.15
9921.00,1.15
9920.00,1.14
9919.00,1.14
9918.00,1.14
9917.00,1.14
9916.00,1.14
9915.00,1.14
9914.00,1.14
9913.00,1.14
9912.00,1.14
9911.00,1.14
9910.00,1.14
9909.00,1.14
9908.00,1.14
9907.00,1.14
9906.00,1.14
9905.00,1.14
9904.00,1.14
9903.00,1.14
9902.00,1.14
9901.00,1.14
9900.00,1.15
9899.00,1.15
9898.00,1.15
9897.00,1.15
9896.00,1.16
9895.00,1.16
9894.00,1.16
9893.00,1.16
9892.00,1.16
9891.00,1.17
9890.00,1.17
9889.00,1.17
9888.00,1.17
9887.00,1.17
9886.00,1.17
9885.00,1.17
9884.00,1.17
9883.00,1.17
9882.00,1.17
9881.00,1.16
9880.00,1.16
9879.00,1.16
9878.00,1.16
9877.00,1.15
9876.00,1.15
9875.00,1.15
9874.00,1.15
9873.00,1.14
9872.00,1.14
9871.00,1.14
9870.00,1.14
9869.00,1.13
9868.00,1.13
9867.00,1.13
9866.00,1.13
9865.00,1.13
9864.00,1.12
9863.00,1.12
9862.00,1.12
9861.00,1.12
9860.00,1.12
9859.00,1.12
9858.00,1.13
9857.00,1.13
9856.00,1.13
9855.00,1.13
9854.00,1.13
9853.00,1.14
9852.00,1.14
9851.00,1.14
9850.00,1.14
9849.00,1.15
9848.00,1.15
9847.00,1.15
9846.00,1.15
9845.00,1.16
9844.00,1.16
9843.00,1.16
9842.00,1.16
9841.00,1.16
9840.00,1.16
9839.00,1.16
9838.00,1.16
9837.00,1.16
9836.00,1.15
9835.00,1.15
9834.00,1.15
9833.00,1.15
9832.00,1.15
9831.00,1.15
9830.00,1.15
9829.00,1.15
9828.00,1.15
9827.00,1.15
9826.00,1.15
9825.00,1.15
9824.00,1.15
9823.00,1.15
9822.00,1.15
9821.00,1.15
9820.00,1.15
9819.00,1.14
9818.00,1.14
9817.00,1.14
9816.00,1.14
9815.00,1.14
9814.00,1.14
9813.00,1.13
9812.00,1.13
9811.00,1.13
9810.00,1.13
9809.00,1.13
9808.00,1.13
9807.00,1.13
9806.00,1.13
9805.00,1.13
9804.00,1.13
9803.00,1.13
9802.00,1.13
9801.00,1.13
9800.00,1.13
9799.00,1.14
9798.00,1.14
9797.00,1.14
9796.00,1.14
9795.00,1.15
9794.00,1.15
9793.00,1.15
9792.00,1.15
9791.00,1.16
9790.00,1.16
9789.00,1.16
9788.00,1.16
9787.00,1.16
9786.00,1.16
9785.00,1.16
9784.00,1.16
9783.00,1.16
9782.00,1.15
9781.00,1.15
9780.00,1.15
9779.00,1.15
9778.00,1.14
9777.00,1.14
9776.00,1.14
9775.00,1.13
9774.00,1.13
9773.00,1.13
9772.00,1.13
9771.00,1.13
9770.00,1.12
9769.00,1.12
9768.00,1.12
9767.00,1.12
9766.00,1.12
9765.00,1.12
9764.00,1.12
9763.00,1.13
9762.00,1.13
9761.00,1.13
9760.00,1.13
9759.00,1.13
9758.00,1.14
9757.00,1.14
9756.00,1.14
9755.00,1.15
9754.00,1.15
9753.00,1.15
9752.00,1.15
9751.00,1.15
9750.00,1.16
9749.00,1.16
9748.00,1.16
9747.00,1.16
9746.00,1.16
9745.00,1.16
9744.00,1.16
9743.00,1.16
9742.00,1.16
9741.00,1.16
9740.00,1.16
9739.00,1.16
9738.00,1.16
9737.00,1.16
9736.00,1.17
9735.00,1.17
9734.00,1.17
9733.00,1.17
9732.00,1.17
9731.00,1.17
9730.00,1.17
9729.00,1.17
9728.00,1.18
9727.00,1.18
9726.00,1.18
9725.00,1.18
9724.00,1.18
9723.00,1.18
9722.00,1.18
9721.00,1.18
9720.00,1.18
9719.00,1.18
9718.00,1.18
9717.00,1.18
9716.00,1.18
9715.00,1.17
9714.00,1.17
9713.00,1.17
9712.00,1.17
9711.00,1.17
9710.00,1.16
9709.00,1.16
9708.00,1.16
9707.00,1.16
9706.00,1.15
9705.00,1.15
9704.00,1.15
9703.00,1.15
9702.00,1.14
9701.00,1.14
9700.00,1.14
9699.00,1.14
9698.00,1.13
9697.00,1.13
9696.00,1.13
9695.00,1.13
9694.00,1.13
9693.00,1.13
9692.00,1.13
9691.00,1.13
9690.00,1.13
9689.00,1.13
9688.00,1.14
9687.00,1.14
9686.00,1.14
9685.00,1.14
9684.00,1.14
9683.00,1.15
9682.00,1.15
9681.00,1.15
9680.00,1.16
9679.00,1.16
9678.00,1.16
9677.00,1.16
9676.00,1.16
9675.00,1.16
9674.00,1.16
9673.00,1.16
9672.00,1.16
9671.00,1.16
9670.00,1.16
9669.00,1.16
9668.00,1.16
9667.00,1.15
9666.00,1.15
9665.00,1.15
9664.00,1.14
9663.00,1.14
9662.00,1.14
9661.00,1.13
9660.00,1.13
9659.00,1.13
9658.00,1.12
9657.00,1.12
9656.00,1.12
9655.00,1.12
9654.00,1.12
9653.00,1.12
9652.00,1.12
9651.00,1.12
9650.00,1.12
9649.00,1.12
9648.00,1.12
9647.00,1.12
9646.00,1.12
9645.00,1.13
9644.00,1.13
9643.00,1.13
9642.00,1.14
9641.00,1.14
9640.00,1.14
9639.00,1.14
9638.00,1.15
9637.00,1.15
9636.00,1.15
9635.00,1.15
9634.00,1.15
9633.00,1.15
9632.00,1.15
9631.00,1.15
9630.00,1.15
9629.00,1.15
9628.00,1.15
9627.00,1.15
9626.00,1.15
9625.00,1.15
9624.00,1.15
9623.00,1.15
9622.00,1.15
9621.00,1.15
9620.00,1.15
9619.00,1.15
9618.00,1.15
9617.00,1.15
9616.00,1.15
9615.00,1.15
9614.00,1.16
9613.00,1.16
9612.00,1.16
9611.00,1.16
9610.00,1.16
9609.00,1.16
9608.00,1.16
9607.00,1.16
9606.00,1.16
9605.00,1.16
9604.00,1.16
9603.00,1.16
9602.00,1.16
9601.00,1.16
9600.00,1.16
9599.00,1.16
9598.00,1.15
9597.00,1.15
9596.00,1.15
9595.00,1.15
9594.00,1.15
9593.00,1.15
9592.00,1.15
9591.00,1.15
9590.00,1.15
9589.00,1.15
9588.00,1.15
9587.00,1.15
9586.00,1.15
9585.00,1.15
9584.00,1.15
9583.00,1.15
9582.00,1.15
9581.00,1.15
9580.00,1.15
9579.00,1.15
9578.00,1.15
9577.00,1.15
9576.00,1.15
9575.00,1.15
9574.00,1.15
9573.00,1.15
9572.00,1.15
9571.00,1.15
9570.00,1.15
9569.00,1.15
9568.00,1.15
9567.00,1.15
9566.00,1.15
9565.00,1.15
9564.00,1.15
9563.00,1.15
9562.00,1.15
9561.00,1.14
9560.00,1.14
9559.00,1.14
9558.00,1.14
9557.00,1.14
9556.00,1.14
9555.00,1.14
9554.00,1.14
9553.00,1.14
9552.00,1.14
9551.00,1.14
9550.00,1.14
9549.00,1.14
9548.00,1.14
9547.00,1.14
9546.00,1.14
9545.00,1.14
9544.00,1.14
9543.00,1.14
9542.00,1.15
9541.00,1.15
9540.00,1.15
9539.00,1.15
9538.00,1.15
9537.00,1.15
9536.00,1.15
9535.00,1.15
9534.00,1.15
9533.00,1.16
9532.00,1.16
9531.00,1.16
9530.00,1.16
9529.00,1.16
9528.00,1.16
9527.00,1.16
9526.00,1.16
9525.00,1.16
9524.00,1.16
9523.00,1.17
9522.00,1.17
9521.00,1.17
9520.00,1.17
9519.00,1.17
9518.00,1.17
9517.00,1.17
9516.00,1.17
9515.00,1.17
9514.00,1.17
9513.00,1.17
9512.00,1.17
9511.00,1.17
9510.00,1.17
9509.00,1.17
9508.00,1.17
9507.00,1.17
9506.00,1.17
9505.00,1.17
9504.00,1.17
9503.00,1.17
9502.00,1.17
9501.00,1.17
9500.00,1.17
9499.00,1.16
9498.00,1.16
9497.00,1.16
9496.00,1.16
9495.00,1.16
9494.00,1.15
9493.00,1.15
9492.00,1.15
9491.00,1.15
9490.00,1.14
9489.00,1.14
9488.00,1.14
9487.00,1.14
9486.00,1.14
9485.00,1.14
9484.00,1.14
9483.00,1.14
9482.00,1.14
9481.00,1.14
9480.00,1.15
9479.00,1.15
9478.00,1.15
9477.00,1.15
9476.00,1.15
9475.00,1.16
9474.00,1.16
9473.00,1.16
9472.00,1.16
9471.00,1.16
9470.00,1.16
9469.00,1.16
9468.00,1.16
9467.00,1.16
9466.00,1.16
9465.00,1.16
9464.00,1.15
9463.00,1.15
9462.00,1.15
9461.00,1.15
9460.00,1.15
9459.00,1.15
9458.00,1.15
9457.00,1.15
9456.00,1.15
9455.00,1.15
9454.00,1.15
9453.00,1.15
9452.00,1.15
9451.00,1.15
9450.00,1.15
9449.00,1.15
9448.00,1.15
9447.00,1.15
9446.00,1.15
9445.00,1.15
9444.00,1.15
9443.00,1.15
9442.00,1.15
9441.00,1.15
9440.00,1.15
9439.00,1.15
9438.00,1.15
9437.00,1.15
9436.00,1.15
9435.00,1.15
9434.00,1.15
9433.00,1.16
9432.00,1.16
9431.00,1.16
9430.00,1.16
9429.00,1.16
9428.00,1.16
9427.00,1.16
9426.00,1.16
9425.00,1.16
9424.00,1.16
9423.00,1.16
9422.00,1.17
9421.00,1.17
9420.00,1.17
9419.00,1.17
9418.00,1.17
9417.00,1.17
9416.00,1.17
9415.00,1.16
9414.00,1.16
9413.00,1.16
9412.00,1.16
9411.00,1.16
9410.00,1.16
9409.00,1.16
9408.00,1.16
9407.00,1.16
9406.00,1.16
9405.00,1.16
9404.00,1.16
9403.00,1.16
9402.00,1.16
9401.00,1.16
9400.00,1.16
9399.00,1.16
9398.00,1.16
9397.00,1.16
9396.00,1.16
9395.00,1.16
9394.00,1.16
9393.00,1.16
9392.00,1.16
9391.00,1.16
9390.00,1.16
9389.00,1.15
9388.00,1.15
9387.00,1.15
9386.00,1.15
9385.00,1.15
9384.00,1.15
9383.00,1.15
9382.00,1.15
9381.00,1.15
9380.00,1.15
9379.00,1.15
9378.00,1.15
9377.00,1.15
9376.00,1.15
9375.00,1.15
9374.00,1.15
9373.00,1.15
9372.00,1.15
9371.00,1.15
9370.00,1.15
9369.00,1.15
9368.00,1.15
9367.00,1.15
9366.00,1.15
9365.00,1.15
9364.00,1.15
9363.00,1.15
9362.00,1.15
9361.00,1.15
9360.00,1.15
9359.00,1.15
9358.00,1.15
9357.00,1.15
9356.00,1.15
9355.00,1.15
9354.00,1.15
9353.00,1.15
9352.00,1.15
9351.00,1.15
9350.00,1.15
9349.00,1.15
9348.00,1.15
9347.00,1.15
9346.00,1.15
9345.00,1.16
9344.00,1.16
9343.00,1.16
9342.00,1.16
9341.00,1.16
9340.00,1.16
9339.00,1.16
9338.00,1.16
9337.00,1.16
9336.00,1.17
9335.00,1.17
9334.00,1.17
9333.00,1.17
9332.00,1.17
9331.00,1.17
9330.00,1.17
9329.00,1.17
9328.00,1.17
9327.00,1.17
9326.00,1.17
9325.00,1.17
9324.00,1.18
9323.00,1.18
9322.00,1.18
9321.00,1.18
9320.00,1.18
9319.00,1.18
9318.00,1.18
9317.00,1.18
9316.00,1.18
9315.00,1.18
9314.00,1.18
9313.00,1.18
9312.00,1.18
9311.00,1.18
9310.00,1.18
9309.00,1.18
9308.00,1.18
9307.00,1.18
9306.00,1.18
9305.00,1.18
9304.00,1.18
9303.00,1.18
9302.00,1.18
9301.00,1.18
9300.00,1.18
9299.00,1.18
9298.00,1.17
9297.00,1.17
9296.00,1.17
9295.00,1.17
9294.00,1.17
9293.00,1.17
9292.00,1.16
9291.00,1.16
9290.00,1.16
9289.00,1.16
9288.00,1.16
9287.00,1.16
9286.00,1.16
9285.00,1.15
9284.00,1.15
9283.00,1.15
9282.00,1.15
9281.00,1.15
9280.00,1.15
9279.00,1.15
9278.00,1.15
9277.00,1.15
9276.00,1.15
9275.00,1.15
9274.00,1.15
9273.00,1.15
9272.00,1.15
9271.00,1.15
9270.00,1.15
9269.00,1.16
9268.00,1.16
9267.00,1.16
9266.00,1.16
9265.00,1.16
9264.00,1.16
9263.00,1.17
9262.00,1.17
9261.00,1.17
9260.00,1.17
9259.00,1.17
9258.00,1.17
9257.00,1.17
9256.00,1.17
9255.00,1.17
9254.00,1.17
9253.00,1.17
9252.00,1.17
9251.00,1.16
9250.00,1.16
9249.00,1.16
9248.00,1.16
9247.00,1.16
9246.00,1.16
9245.00,1.16
9244.00,1.15
9243.00,1.15
9242.00,1.15
9241.00,1.15
9240.00,1.15
9239.00,1.15
9238.00,1.15
9237.00,1.15
9236.00,1.15
9235.00,1.15
9234.00,1.15
9233.00,1.15
9232.00,1.16
9231.00,1.16
9230.00,1.16
9229.00,1.16
9228.00,1.16
9227.00,1.16
9226.00,1.16
9225.00,1.16
9224.00,1.16
9223.00,1.16
9222.00,1.16
9221.00,1.16
9220.00,1.17
9219.00,1.17
9218.00,1.17
9217.00,1.17
9216.00,1.17
9215.00,1.17
9214.00,1.17
9213.00,1.17
9212.00,1.17
9211.00,1.17
9210.00,1.17
9209.00,1.17
9208.00,1.17
9207.00,1.17
9206.00,1.17
9205.00,1.17
9204.00,1.17
9203.00,1.17
9202.00,1.17
9201.00,1.17
9200.00,1.17
9199.00,1.17
9198.00,1.17
9197.00,1.17
9196.00,1.17
9195.00,1.17
9194.00,1.17
9193.00,1.17
9192.00,1.17
9191.00,1.17
9190.00,1.17
9189.00,1.17
9188.00,1.18
9187.00,1.18
9186.00,1.18
9185.00,1.18
9184.00,1.18
9183.00,1.17
9182.00,1.17
9181.00,1.17
9180.00,1.17
9179.00,1.17
9178.00,1.17
9177.00,1.17
9176.00,1.17
9175.00,1.17
9174.00,1.17
9173.00,1.17
9172.00,1.17
9171.00,1.17
9170.00,1.17
9169.00,1.17
9168.00,1.17
9167.00,1.17
9166.00,1.17
9165.00,1.17
9164.00,1.17
9163.00,1.17
9162.00,1.17
9161.00,1.18
9160.00,1.18
9159.00,1.18
9158.00,1.18
9157.00,1.18
9156.00,1.18
9155.00,1.17
9154.00,1.17
9153.00,1.17
9152.00,1.17
9151.00,1.17
9150.00,1.17
9149.00,1.17
9148.00,1.17
9147.00,1.17
9146.00,1.17
9145.00,1.16
9144.00,1.16
9143.00,1.16
9142.00,1.16
9141.00,1.16
9140.00,1.16
9139.00,1.15
9138.00,1.15
9137.00,1.15
9136.00,1.15
9135.00,1.15
9134.00,1.15
9133.00,1.15
9132.00,1.15
9131.00,1.15
9130.00,1.15
9129.00,1.16
9128.00,1.16
9127.00,1.16
9126.00,1.16
9125.00,1.16
9124.00,1.17
9123.00,1.17
9122.00,1.17
9121.00,1.17
9120.00,1.17
9119.00,1.18
9118.00,1.18
9117.00,1.18
9116.00,1.18
9115.00,1.18
9114.00,1.18
9113.00,1.18
9112.00,1.18
9111.00,1.18
9110.00,1.18
9109.00,1.18
9108.00,1.18
9107.00,1.18
9106.00,1.18
9105.00,1.18
9104.00,1.18
9103.00,1.17
9102.00,1.17
9101.00,1.17
9100.00,1.17
9099.00,1.17
9098.00,1.18
9097.00,1.18
9096.00,1.18
9095.00,1.18
9094.00,1.18
9093.00,1.18
9092.00,1.18
9091.00,1.18
9090.00,1.18
9089.00,1.18
9088.00,1.18
9087.00,1.18
9086.00,1.18
9085.00,1.18
9084.00,1.18
9083.00,1.18
9082.00,1.18
9081.00,1.18
9080.00,1.18
9079.00,1.18
9078.00,1.18
9077.00,1.18
9076.00,1.18
9075.00,1.18
9074.00,1.18
9073.00,1.18
9072.00,1.17
9071.00,1.17
9070.00,1.17
9069.00,1.17
9068.00,1.17
9067.00,1.17
9066.00,1.17
9065.00,1.16
9064.00,1.16
9063.00,1.16
9062.00,1.16
9061.00,1.16
9060.00,1.16
9059.00,1.15
9058.00,1.15
9057.00,1.15
9056.00,1.15
9055.00,1.15
9054.00,1.15
9053.00,1.14
9052.00,1.14
9051.00,1.14
9050.00,1.14
9049.00,1.14
9048.00,1.14
9047.00,1.14
9046.00,1.15
9045.00,1.15
9044.00,1.15
9043.00,1.15
9042.00,1.15
9041.00,1.15
9040.00,1.15
9039.00,1.15
9038.00,1.16
9037.00,1.16
9036.00,1.16
9035.00,1.16
9034.00,1.16
9033.00,1.16
9032.00,1.16
9031.00,1.16
9030.00,1.16
9029.00,1.16
9028.00,1.16
9027.00,1.16
9026.00,1.16
9025.00,1.16
9024.00,1.15
9023.00,1.15
9022.00,1.15
9021.00,1.15
9020.00,1.15
9019.00,1.15
9018.00,1.15
9017.00,1.15
9016.00,1.15
9015.00,1.15
9014.00,1.15
9013.00,1.15
9012.00,1.15
9011.00,1.15
9010.00,1.15
9009.00,1.15
9008.00,1.15
9007.00,1.15
9006.00,1.16
9005.00,1.16
9004.00,1.16
9003.00,1.16
9002.00,1.16
9001.00,1.16
9000.00,1.16
8999.00,1.16
8998.00,1.16
8997.00,1.16
8996.00,1.16
8995.00,1.16
8994.00,1.16
8993.00,1.16
8992.00,1.16
8991.00,1.16
8990.00,1.16
8989.00,1.16
8988.00,1.16
8987.00,1.16
8986.00,1.16
8985.00,1.17
8984.00,1.17
8983.00,1.17
8982.00,1.17
8981.00,1.17
8980.00,1.17
8979.00,1.17
8978.00,1.18
8977.00,1.18
8976.00,1.18
8975.00,1.18
8974.00,1.18
8973.00,1.18
8972.00,1.18
8971.00,1.18
8970.00,1.18
8969.00,1.18
8968.00,1.18
8967.00,1.18
8966.00,1.18
8965.00,1.18
8964.00,1.18
8963.00,1.18
8962.00,1.17
8961.00,1.17
8960.00,1.17
8959.00,1.17
8958.00,1.17
8957.00,1.17
8956.00,1.17
8955.00,1.16
8954.00,1.16
8953.00,1.16
8952.00,1.16
8951.00,1.16
8950.00,1.16
8949.00,1.16
8948.00,1.16
8947.00,1.16
8946.00,1.16
8945.00,1.16
8944.00,1.16
8943.00,1.16
8942.00,1.16
8941.00,1.16
8940.00,1.16
8939.00,1.16
8938.00,1.16
8937.00,1.16
8936.00,1.16
8935.00,1.16
8934.00,1.16
8933.00,1.16
8932.00,1.16
8931.00,1.16
8930.00,1.17
8929.00,1.17
8928.00,1.17
8927.00,1.17
8926.00,1.17
8925.00,1.17
8924.00,1.17
8923.00,1.17
8922.00,1.17
8921.00,1.18
8920.00,1.18
8919.00,1.18
8918.00,1.18
8917.00,1.18
8916.00,1.18
8915.00,1.18
8914.00,1.18
8913.00,1.18
8912.00,1.18
8911.00,1.18
8910.00,1.18
8909.00,1.18
8908.00,1.18
8907.00,1.17
8906.00,1.17
8905.00,1.17
8904.00,1.17
8903.00,1.17
8902.00,1.17
8901.00,1.17
8900.00,1.17
8899.00,1.17
8898.00,1.17
8897.00,1.17
8896.00,1.17
8895.00,1.17
8894.00,1.17
8893.00,1.17
8892.00,1.17
8891.00,1.17
8890.00,1.17
8889.00,1.18
8888.00,1.18
8887.00,1.18
8886.00,1.18
8885.00,1.18
8884.00,1.18
8883.00,1.18
8882.00,1.18
8881.00,1.18
8880.00,1.18
8879.00,1.18
8878.00,1.18
8877.00,1.18
8876.00,1.17
8875.00,1.17
8874.00,1.17
8873.00,1.17
8872.00,1.17
8871.00,1.16
8870.00,1.16
8869.00,1.16
8868.00,1.16
8867.00,1.16
8866.00,1.16
8865.00,1.16
8864.00,1.15
8863.00,1.15
8862.00,1.15
8861.00,1.15
8860.00,1.15
8859.00,1.15
8858.00,1.15
8857.00,1.15
8856.00,1.15
8855.00,1.16
8854.00,1.16
8853.00,1.16
8852.00,1.16
8851.00,1.16
8850.00,1.16
8849.00,1.16
8848.00,1.16
8847.00,1.16
8846.00,1.16
8845.00,1.15
8844.00,1.15
8843.00,1.15
8842.00,1.15
8841.00,1.15
8840.00,1.15
8839.00,1.15
8838.00,1.15
8837.00,1.15
8836.00,1.15
8835.00,1.15
8834.00,1.15
8833.00,1.15
8832.00,1.15
8831.00,1.15
8830.00,1.15
8829.00,1.15
8828.00,1.15
8827.00,1.15
8826.00,1.15
8825.00,1.15
8824.00,1.14
8823.00,1.14
8822.00,1.14
8821.00,1.14
8820.00,1.14
8819.00,1.14
8818.00,1.14
8817.00,1.15
8816.00,1.15
8815.00,1.15
8814.00,1.15
8813.00,1.15
8812.00,1.15
8811.00,1.15
8810.00,1.15
8809.00,1.15
8808.00,1.15
8807.00,1.15
8806.00,1.15
8805.00,1.15
8804.00,1.15
8803.00,1.15
8802.00,1.15
8801.00,1.15
8800.00,1.15
8799.00,1.14
8798.00,1.14
8797.00,1.14
8796.00,1.14
8795.00,1.14
8794.00,1.14
8793.00,1.14
8792.00,1.14
8791.00,1.14
8790.00,1.14
8789.00,1.14
8788.00,1.14
8787.00,1.14
8786.00,1.14
8785.00,1.14
8784.00,1.14
8783.00,1.14
8782.00,1.14
8781.00,1.14
8780.00,1.14
8779.00,1.14
8778.00,1.14
8777.00,1.14
8776.00,1.14
8775.00,1.14
8774.00,1.14
8773.00,1.13
8772.00,1.13
8771.00,1.13
8770.00,1.13
8769.00,1.13
8768.00,1.13
8767.00,1.12
8766.00,1.12
8765.00,1.12
8764.00,1.12
8763.00,1.12
8762.00,1.12
8761.00,1.12
8760.00,1.11
8759.00,1.11
8758.00,1.11
8757.00,1.11
8756.00,1.11
8755.00,1.11
8754.00,1.11
8753.00,1.11
8752.00,1.11
8751.00,1.11
8750.00,1.11
8749.00,1.11
8748.00,1.11
8747.00,1.11
8746.00,1.11
8745.00,1.11
8744.00,1.11
8743.00,1.11
8742.00,1.11
8741.00,1.11
8740.00,1.11
8739.00,1.11
8738.00,1.11
8737.00,1.11
8736.00,1.11
8735.00,1.11
8734.00,1.11
8733.00,1.11
8732.00,1.11
8731.00,1.11
8730.00,1.10
8729.00,1.10
8728.00,1.10
8727.00,1.10
8726.00,1.10
8725.00,1.10
8724.00,1.10
8723.00,1.10
8722.00,1.10
8721.00,1.10
8720.00,1.10
8719.00,1.10
8718.00,1.10
8717.00,1.10
8716.00,1.10
8715.00,1.10
8714.00,1.10
8713.00,1.10
8712.00,1.10
8711.00,1.10
8710.00,1.10
8709.00,1.10
8708.00,1.10
8707.00,1.10
8706.00,1.10
8705.00,1.10
8704.00,1.10
8703.00,1.10
8702.00,1.10
8701.00,1.10
8700.00,1.10
8699.00,1.10
8698.00,1.10
8697.00,1.10
8696.00,1.10
8695.00,1.10
8694.00,1.10
8693.00,1.10
8692.00,1.10
8691.00,1.10
8690.00,1.10
8689.00,1.10
8688.00,1.10
8687.00,1.11
8686.00,1.11
8685.00,1.11
8684.00,1.11
8683.00,1.11
8682.00,1.11
8681.00,1.11
8680.00,1.11
8679.00,1.10
8678.00,1.10
8677.00,1.10
8676.00,1.10
8675.00,1.10
8674.00,1.10
8673.00,1.10
8672.00,1.10
8671.00,1.10
8670.00,1.09
8669.00,1.09
8668.00,1.09
8667.00,1.09
8666.00,1.09
8665.00,1.09
8664.00,1.09
8663.00,1.10
8662.00,1.10
8661.00,1.10
8660.00,1.10
8659.00,1.10
8658.00,1.10
8657.00,1.10
8656.00,1.10
8655.00,1.10
8654.00,1.10
8653.00,1.10
8652.00,1.10
8651.00,1.10
8650.00,1.10
8649.00,1.10
8648.00,1.09
8647.00,1.09
8646.00,1.09
8645.00,1.09
8644.00,1.09
8643.00,1.09
8642.00,1.09
8641.00,1.09
8640.00,1.09
8639.00,1.09
8638.00,1.09
8637.00,1.09
8636.00,1.09
8635.00,1.08
8634.00,1.08
8633.00,1.08
8632.00,1.08
8631.00,1.08
8630.00,1.08
8629.00,1.08
8628.00,1.08
8627.00,1.08
8626.00,1.08
8625.00,1.08
8624.00,1.08
8623.00,1.08
8622.00,1.08
8621.00,1.07
8620.00,1.07
8619.00,1.07
8618.00,1.07
8617.00,1.07
8616.00,1.07
8615.00,1.07
8614.00,1.07
8613.00,1.07
8612.00,1.07
8611.00,1.07
8610.00,1.07
8609.00,1.07
8608.00,1.07
8607.00,1.07
8606.00,1.07
8605.00,1.07
8604.00,1.07
8603.00,1.07
8602.00,1.07
8601.00,1.07
8600.00,1.07
8599.00,1.07
8598.00,1.07
8597.00,1.07
8596.00,1.07
8595.00,1.07
8594.00,1.07
8593.00,1.07
8592.00,1.07
8591.00,1.07
8590.00,1.07
8589.00,1.08
8588.00,1.08
8587.00,1.08
8586.00,1.08
8585.00,1.08
8584.00,1.08
8583.00,1.08
8582.00,1.08
8581.00,1.08
8580.00,1.08
8579.00,1.08
8578.00,1.08
8577.00,1.07
8576.00,1.07
8575.00,1.07
8574.00,1.07
8573.00,1.07
8572.00,1.07
8571.00,1.07
8570.00,1.07
8569.00,1.07
8568.00,1.07
8567.00,1.07
8566.00,1.07
8565.00,1.07
8564.00,1.07
8563.00,1.07
8562.00,1.07
8561.00,1.07
8560.00,1.07
8559.00,1.07
8558.00,1.07
8557.00,1.07
8556.00,1.07
8555.00,1.07
8554.00,1.07
8553.00,1.07
8552.00,1.06
8551.00,1.06
8550.00,1.06
8549.00,1.06
8548.00,1.06
8547.00,1.05
8546.00,1.05
8545.00,1.05
8544.00,1.05
8543.00,1.05
8542.00,1.04
8541.00,1.04
8540.00,1.04
8539.00,1.04
8538.00,1.04
8537.00,1.04
8536.00,1.04
8535.00,1.04
8534.00,1.04
8533.00,1.04
8532.00,1.04
8531.00,1.04
8530.00,1.04
8529.00,1.04
8528.00,1.04
8527.00,1.04
8526.00,1.04
8525.00,1.04
8524.00,1.04
8523.00,1.04
8522.00,1.04
8521.00,1.04
8520.00,1.04
8519.00,1.04
8518.00,1.04
8517.00,1.04
8516.00,1.04
8515.00,1.04
8514.00,1.04
8513.00,1.04
8512.00,1.04
8511.00,1.04
8510.00,1.04
8509.00,1.03
8508.00,1.03
8507.00,1.03
8506.00,1.03
8505.00,1.03
8504.00,1.03
8503.00,1.02
8502.00,1.02
8501.00,1.02
8500.00,1.02
8499.00,1.02
8498.00,1.02
8497.00,1.01
8496.00,1.01
8495.00,1.01
8494.00,1.01
8493.00,1.01
8492.00,1.01
8491.00,1.01
8490.00,1.01
8489.00,1.01
8488.00,1.01
8487.00,1.01
8486.00,1.01
8485.00,1.01
8484.00,1.00
8483.00,1.00
8482.00,1.00
8481.00,1.00
8480.00,1.00
8479.00,1.00
8478.00,1.00
8477.00,1.00
8476.00,1.00
8475.00,1.00
8474.00,1.00
8473.00,1.00
8472.00,1.00
8471.00,1.00
8470.00,1.00
8469.00,1.00
8468.00,1.00
8467.00,0.99
8466.00,0.99
8465.00,0.99
8464.00,0.99
8463.00,0.99
8462.00,0.99
8461.00,0.99
8460.00,0.99
8459.00,0.99
8458.00,0.99
8457.00,0.99
8456.00,0.98
8455.00,0.98
8454.00,0.98
8453.00,0.98
8452.00,0.98
8451.00,0.98
8450.00,0.98
8449.00,0.98
8448.00,0.98
8447.00,0.98
8446.00,0.98
8445.00,0.98
8444.00,0.98
8443.00,0.98
8442.00,0.98
8441.00,0.98
8440.00,0.98
8439.00,0.98
8438.00,0.98
8437.00,0.98
8436.00,0.98
8435.00,0.98
8434.00,0.98
8433.00,0.98
8432.00,0.98
8431.00,0.98
8430.00,0.98
8429.00,0.98
8428.00,0.98
8427.00,0.98
8426.00,0.99
8425.00,0.99
8424.00,0.99
8423.00,0.99
8422.00,0.99
8421.00,0.99
8420.00,0.99
8419.00,0.99
8418.00,0.99
8417.00,0.99
8416.00,0.99
8415.00,1.00
8414.00,1.00
8413.00,1.00
8412.00,1.00
8411.00,1.00
8410.00,1.00
8409.00,1.00
8408.00,1.00
8407.00,1.00
8406.00,1.00
8405.00,1.00
8404.00,1.00
8403.00,1.00
8402.00,1.00
8401.00,1.00
8400.00,1.01
8399.00,1.01
8398.00,1.01
8397.00,1.01
8396.00,1.01
8395.00,1.01
8394.00,1.01
8393.00,1.01
8392.00,1.01
8391.00,1.01
8390.00,1.01
8389.00,1.01
8388.00,1.01
8387.00,1.01
8386.00,1.01
8385.00,1.01
8384.00,1.01
8383.00,1.01
8382.00,1.01
8381.00,1.01
8380.00,1.01
8379.00,1.02
8378.00,1.02
8377.00,1.02
8376.00,1.02
8375.00,1.02
8374.00,1.02
8373.00,1.02
8372.00,1.02
8371.00,1.02
8370.00,1.02
8369.00,1.02
8368.00,1.02
8367.00,1.02
8366.00,1.02
8365.00,1.02
8364.00,1.02
8363.00,1.02
8362.00,1.02
8361.00,1.02
8360.00,1.02
8359.00,1.02
8358.00,1.02
8357.00,1.02
8356.00,1.02
8355.00,1.02
8354.00,1.02
8353.00,1.02
8352.00,1.02
8351.00,1.02
8350.00,1.02
8349.00,1.02
8348.00,1.02
8347.00,1.02
8346.00,1.02
8345.00,1.03
8344.00,1.03
8343.00,1.03
8342.00,1.03
8341.00,1.03
8340.00,1.04
8339.00,1.04
8338.00,1.04
8337.00,1.04
8336.00,1.04
8335.00,1.04
8334.00,1.04
8333.00,1.04
8332.00,1.04
8331.00,1.04
8330.00,1.04
8329.00,1.04
8328.00,1.04
8327.00,1.04
8326.00,1.04
8325.00,1.04
8324.00,1.04
8323.00,1.04
8322.00,1.04
8321.00,1.04
8320.00,1.04
8319.00,1.04
8318.00,1.04
8317.00,1.04
8316.00,1.04
8315.00,1.04
8314.00,1.04
8313.00,1.04
8312.00,1.04
8311.00,1.04
8310.00,1.04
8309.00,1.04
8308.00,1.04
8307.00,1.04
8306.00,1.04
8305.00,1.04
8304.00,1.04
8303.00,1.04
8302.00,1.04
8301.00,1.04
8300.00,1.04
8299.00,1.04
8298.00,1.04
8297.00,1.05
8296.00,1.05
8295.00,1.05
8294.00,1.05
8293.00,1.05
8292.00,1.05
8291.00,1.05
8290.00,1.05
8289.00,1.05
8288.00,1.05
8287.00,1.05
8286.00,1.05
8285.00,1.05
8284.00,1.05
8283.00,1.05
8282.00,1.05
8281.00,1.05
8280.00,1.05
8279.00,1.05
8278.00,1.05
8277.00,1.05
8276.00,1.05
8275.00,1.05
8274.00,1.05
8273.00,1.05
8272.00,1.05
8271.00,1.05
8270.00,1.05
8269.00,1.05
8268.00,1.05
8267.00,1.05
8266.00,1.05
8265.00,1.05
8264.00,1.05
8263.00,1.05
8262.00,1.05
8261.00,1.05
8260.00,1.05
8259.00,1.06
8258.00,1.06
8257.00,1.06
8256.00,1.06
8255.00,1.06
8254.00,1.06
8253.00,1.06
8252.00,1.06
8251.00,1.06
8250.00,1.06
8249.00,1.06
8248.00,1.06
8247.00,1.06
8246.00,1.06
8245.00,1.06
8244.00,1.06
8243.00,1.06
8242.00,1.07
8241.00,1.07
8240.00,1.07
8239.00,1.07
8238.00,1.07
8237.00,1.07
8236.00,1.07
8235.00,1.07
8234.00,1.07
8233.00,1.07
8232.00,1.07
8231.00,1.08
8230.00,1.08
8229.00,1.08
8228.00,1.08
8227.00,1.08
8226.00,1.08
8225.00,1.08
8224.00,1.08
8223.00,1.08
8222.00,1.08
8221.00,1.08
8220.00,1.08
8219.00,1.08
8218.00,1.08
8217.00,1.08
8216.00,1.07
8215.00,1.08
8214.00,1.08
8213.00,1.08
8212.00,1.08
8211.00,1.08
8210.00,1.08
8209.00,1.08
8208.00,1.08
8207.00,1.08
8206.00,1.08
8205.00,1.08
8204.00,1.08
8203.00,1.08
8202.00,1.08
8201.00,1.08
8200.00,1.08
8199.00,1.08
8198.00,1.08
8197.00,1.08
8196.00,1.08
8195.00,1.08
8194.00,1.08
8193.00,1.08
8192.00,1.08
8191.00,1.08
8190.00,1.08
8189.00,1.08
8188.00,1.08
8187.00,1.08
8186.00,1.08
8185.00,1.08
8184.00,1.08
8183.00,1.08
8182.00,1.07
8181.00,1.07
8180.00,1.07
8179.00,1.07
8178.00,1.07
8177.00,1.07
8176.00,1.07
8175.00,1.07
8174.00,1.07
8173.00,1.07
8172.00,1.07
8171.00,1.07
8170.00,1.07
8169.00,1.07
8168.00,1.08
8167.00,1.08
8166.00,1.08
8165.00,1.08
8164.00,1.08
8163.00,1.08
8162.00,1.08
8161.00,1.08
8160.00,1.09
8159.00,1.09
8158.00,1.09
8157.00,1.09
8156.00,1.09
8155.00,1.09
8154.00,1.09
8153.00,1.09
8152.00,1.09
8151.00,1.09
8150.00,1.09
8149.00,1.09
8148.00,1.09
8147.00,1.09
8146.00,1.09
8145.00,1.09
8144.00,1.09
8143.00,1.09
8142.00,1.09
8141.00,1.09
8140.00,1.09
8139.00,1.09
8138.00,1.09
8137.00,1.09
8136.00,1.09
8135.00,1.09
8134.00,1.10
8133.00,1.10
8132.00,1.10
8131.00,1.10
8130.00,1.10
8129.00,1.10
8128.00,1.10
8127.00,1.10
8126.00,1.10
8125.00,1.11
8124.00,1.11
8123.00,1.11
8122.00,1.11
8121.00,1.11
8120.00,1.11
8119.00,1.11
8118.00,1.11
8117.00,1.11
8116.00,1.11
8115.00,1.11
8114.00,1.11
8113.00,1.11
8112.00,1.11
8111.00,1.11
8110.00,1.11
8109.00,1.11
8108.00,1.12
8107.00,1.12
8106.00,1.12
8105.00,1.12
8104.00,1.12
8103.00,1.12
8102.00,1.12
8101.00,1.12
8100.00,1.12
8099.00,1.12
8098.00,1.12
8097.00,1.12
8096.00,1.12
8095.00,1.12
8094.00,1.12
8093.00,1.12
8092.00,1.12
8091.00,1.12
8090.00,1.12
8089.00,1.12
8088.00,1.12
8087.00,1.12
8086.00,1.12
8085.00,1.11
8084.00,1.11
8083.00,1.11
8082.00,1.11
8081.00,1.11
8080.00,1.11
8079.00,1.11
8078.00,1.11
8077.00,1.11
8076.00,1.11
8075.00,1.11
8074.00,1.11
8073.00,1.11
8072.00,1.11
8071.00,1.11
8070.00,1.11
8069.00,1.11
8068.00,1.12
8067.00,1.12
8066.00,1.12
8065.00,1.12
8064.00,1.12
8063.00,1.12
8062.00,1.12
8061.00,1.12
8060.00,1.12
8059.00,1.12
8058.00,1.13
8057.00,1.13
8056.00,1.13
8055.00,1.13
8054.00,1.13
8053.00,1.13
8052.00,1.13
8051.00,1.13
8050.00,1.13
8049.00,1.13
8048.00,1.13
8047.00,1.13
8046.00,1.13
8045.00,1.13
8044.00,1.13
8043.00,1.13
8042.00,1.13
8041.00,1.13
8040.00,1.13
8039.00,1.13
8038.00,1.13
8037.00,1.13
8036.00,1.13
8035.00,1.13
8034.00,1.13
8033.00,1.13
8032.00,1.13
8031.00,1.13
8030.00,1.13
8029.00,1.13
8028.00,1.13
8027.00,1.14
8026.00,1.14
8025.00,1.14
8024.00,1.14
8023.00,1.14
8022.00,1.14
8021.00,1.14
8020.00,1.14
8019.00,1.14
8018.00,1.14
8017.00,1.14
8016.00,1.14
8015.00,1.14
8014.00,1.14
8013.00,1.14
8012.00,1.14
8011.00,1.13
8010.00,1.13
8009.00,1.13
8008.00,1.13
8007.00,1.13
8006.00,1.13
8005.00,1.13
8004.00,1.13
8003.00,1.13
8002.00,1.13
8001.00,1.13
8000.00,1.13
7999.00,1.13
7998.00,1.13
7997.00,1.13
7996.00,1.13
7995.00,1.13
7994.00,1.13
7993.00,1.13
7992.00,1.13
7991.00,1.13
7990.00,1.13
7989.00,1.14
7988.00,1.14
7987.00,1.14
7986.00,1.14
7985.00,1.14
7984.00,1.14
7983.00,1.14
7982.00,1.14
7981.00,1.14
7980.00,1.14
7979.00,1.14
7978.00,1.14
7977.00,1.14
7976.00,1.14
7975.00,1.14
7974.00,1.13
7973.00,1.13
7972.00,1.13
7971.00,1.13
7970.00,1.13
7969.00,1.13
7968.00,1.13
7967.00,1.13
7966.00,1.13
7965.00,1.13
7964.00,1.14
7963.00,1.14
7962.00,1.14
7961.00,1.14
7960.00,1.14
7959.00,1.14
7958.00,1.14
7957.00,1.15
7956.00,1.15
7955.00,1.15
7954.00,1.15
7953.00,1.15
7952.00,1.15
7951.00,1.15
7950.00,1.15
7949.00,1.15
7948.00,1.16
7947.00,1.16
7946.00,1.16
7945.00,1.16
7944.00,1.16
7943.00,1.16
7942.00,1.16
7941.00,1.16
7940.00,1.15
7939.00,1.15
7938.00,1.15
7937.00,1.15
7936.00,1.15
7935.00,1.15
7934.00,1.15
7933.00,1.15
7932.00,1.15
7931.00,1.15
7930.00,1.15
7929.00,1.15
7928.00,1.15
7927.00,1.15
7926.00,1.15
7925.00,1.15
7924.00,1.15
7923.00,1.15
7922.00,1.15
7921.00,1.15
7920.00,1.16
7919.00,1.16
7918.00,1.16
7917.00,1.16
7916.00,1.16
7915.00,1.16
7914.00,1.16
7913.00,1.16
7912.00,1.16
7911.00,1.16
7910.00,1.16
7909.00,1.16
7908.00,1.16
7907.00,1.16
7906.00,1.16
7905.00,1.16
7904.00,1.16
7903.00,1.16
7902.00,1.16
7901.00,1.16
7900.00,1.16
7899.00,1.16
7898.00,1.15
7897.00,1.15
7896.00,1.15
7895.00,1.15
7894.00,1.15
7893.00,1.15
7892.00,1.15
7891.00,1.15
7890.00,1.15
7889.00,1.15
7888.00,1.15
7887.00,1.15
7886.00,1.15
7885.00,1.15
7884.00,1.15
7883.00,1.15
7882.00,1.15
7881.00,1.15
7880.00,1.15
7879.00,1.15
7878.00,1.15
7877.00,1.15
7876.00,1.15
7875.00,1.15
7874.00,1.15
7873.00,1.15
7872.00,1.15
7871.00,1.15
7870.00,1.15
7869.00,1.15
7868.00,1.15
7867.00,1.15
7866.00,1.15
7865.00,1.15
7864.00,1.15
7863.00,1.15
7862.00,1.15
7861.00,1.15
7860.00,1.15
7859.00,1.15
7858.00,1.15
7857.00,1.15
7856.00,1.15
7855.00,1.15
7854.00,1.15
7853.00,1.15
7852.00,1.15
7851.00,1.15
7850.00,1.15
7849.00,1.15
7848.00,1.15
7847.00,1.15
7846.00,1.15
7845.00,1.15
7844.00,1.16
7843.00,1.16
7842.00,1.16
7841.00,1.16
7840.00,1.16
7839.00,1.16
7838.00,1.16
7837.00,1.16
7836.00,1.16
7835.00,1.16
7834.00,1.16
7833.00,1.16
7832.00,1.16
7831.00,1.16
7830.00,1.17
7829.00,1.17
7828.00,1.17
7827.00,1.17
7826.00,1.17
7825.00,1.17
7824.00,1.17
7823.00,1.17
7822.00,1.17
7821.00,1.17
7820.00,1.17
7819.00,1.17
7818.00,1.17
7817.00,1.17
7816.00,1.17
7815.00,1.17
7814.00,1.17
7813.00,1.17
7812.00,1.17
7811.00,1.17
7810.00,1.17
7809.00,1.17
7808.00,1.17
7807.00,1.17
7806.00,1.16
7805.00,1.16
7804.00,1.16
7803.00,1.16
7802.00,1.16
7801.00,1.16
7800.00,1.16
7799.00,1.16
7798.00,1.16
7797.00,1.16
7796.00,1.16
7795.00,1.16
7794.00,1.16
7793.00,1.16
7792.00,1.16
7791.00,1.16
7790.00,1.16
7789.00,1.16
7788.00,1.16
7787.00,1.16
7786.00,1.17
7785.00,1.17
7784.00,1.17
7783.00,1.17
7782.00,1.17
7781.00,1.17
7780.00,1.17
7779.00,1.18
7778.00,1.18
7777.00,1.18
7776.00,1.18
7775.00,1.18
7774.00,1.18
7773.00,1.18
7772.00,1.18
7771.00,1.18
7770.00,1.18
7769.00,1.18
7768.00,1.18
7767.00,1.18
7766.00,1.18
7765.00,1.18
7764.00,1.18
7763.00,1.18
7762.00,1.18
7761.00,1.18
7760.00,1.18
7759.00,1.18
7758.00,1.18
7757.00,1.18
7756.00,1.18
7755.00,1.18
7754.00,1.18
7753.00,1.17
7752.00,1.17
7751.00,1.17
7750.00,1.17
7749.00,1.17
7748.00,1.17
7747.00,1.17
7746.00,1.17
7745.00,1.17
7744.00,1.17
7743.00,1.17
7742.00,1.17
7741.00,1.17
7740.00,1.17
7739.00,1.17
7738.00,1.17
7737.00,1.17
7736.00,1.17
7735.00,1.17
7734.00,1.17
7733.00,1.17
7732.00,1.17
7731.00,1.17
7730.00,1.17
7729.00,1.17
7728.00,1.17
7727.00,1.17
7726.00,1.17
7725.00,1.17
7724.00,1.17
7723.00,1.17
7722.00,1.17
7721.00,1.17
7720.00,1.17
7719.00,1.17
7718.00,1.17
7717.00,1.17
7716.00,1.17
7715.00,1.17
7714.00,1.17
7713.00,1.17
7712.00,1.18
7711.00,1.18
7710.00,1.18
7709.00,1.18
7708.00,1.18
7707.00,1.18
7706.00,1.18
7705.00,1.18
7704.00,1.18
7703.00,1.18
7702.00,1.18
7701.00,1.18
7700.00,1.18
7699.00,1.18
7698.00,1.18
7697.00,1.18
7696.00,1.18
7695.00,1.18
7694.00,1.18
7693.00,1.18
7692.00,1.18
7691.00,1.18
7690.00,1.18
7689.00,1.18
7688.00,1.18
7687.00,1.18
7686.00,1.18
7685.00,1.18
7684.00,1.18
7683.00,1.18
7682.00,1.18
7681.00,1.18
7680.00,1.18
7679.00,1.18
7678.00,1.18
7677.00,1.18
7676.00,1.18
7675.00,1.18
7674.00,1.18
7673.00,1.18
7672.00,1.18
7671.00,1.18
7670.00,1.18
7669.00,1.18
7668.00,1.18
7667.00,1.18
7666.00,1.18
7665.00,1.18
7664.00,1.18
7663.00,1.18
7662.00,1.18
7661.00,1.18
7660.00,1.18
7659.00,1.18
7658.00,1.18
7657.00,1.18
7656.00,1.18
7655.00,1.18
7654.00,1.18
7653.00,1.18
7652.00,1.18
7651.00,1.18
7650.00,1.18
7649.00,1.18
7648.00,1.18
7647.00,1.18
7646.00,1.18
7645.00,1.18
7644.00,1.18
7643.00,1.18
7642.00,1.18
7641.00,1.18
7640.00,1.18
7639.00,1.17
7638.00,1.17
7637.00,1.17
7636.00,1.17
7635.00,1.17
7634.00,1.17
7633.00,1.17
7632.00,1.16
7631.00,1.16
7630.00,1.16
7629.00,1.16
7628.00,1.16
7627.00,1.16
7626.00,1.16
7625.00,1.16
7624.00,1.16
7623.00,1.16
7622.00,1.16
7621.00,1.16
7620.00,1.16
7619.00,1.17
7618.00,1.17
7617.00,1.17
7616.00,1.17
7615.00,1.17
7614.00,1.17
7613.00,1.17
7612.00,1.17
7611.00,1.18
7610.00,1.18
7609.00,1.18
7608.00,1.18
7607.00,1.18
7606.00,1.18
7605.00,1.18
7604.00,1.18
7603.00,1.18
7602.00,1.18
7601.00,1.18
7600.00,1.18
7599.00,1.18
7598.00,1.18
7597.00,1.18
7596.00,1.18
7595.00,1.18
7594.00,1.18
7593.00,1.18
7592.00,1.18
7591.00,1.18
7590.00,1.18
7589.00,1.18
7588.00,1.18
7587.00,1.18
7586.00,1.18
7585.00,1.18
7584.00,1.18
7583.00,1.18
7582.00,1.18
7581.00,1.18
7580.00,1.18
7579.00,1.18
7578.00,1.18
7577.00,1.18
7576.00,1.18
7575.00,1.18
7574.00,1.18
7573.00,1.18
7572.00,1.18
7571.00,1.18
7570.00,1.18
7569.00,1.18
7568.00,1.18
7567.00,1.18
7566.00,1.18
7565.00,1.18
7564.00,1.18
7563.00,1.17
7562.00,1.17
7561.00,1.17
7560.00,1.17
7559.00,1.17
7558.00,1.17
7557.00,1.17
7556.00,1.17
7555.00,1.17
7554.00,1.17
7553.00,1.17
7552.00,1.17
7551.00,1.17
7550.00,1.17
7549.00,1.16
7548.00,1.16
7547.00,1.16
7546.00,1.16
7545.00,1.16
7544.00,1.16
7543.00,1.16
7542.00,1.16
7541.00,1.16
7540.00,1.16
7539.00,1.16
7538.00,1.16
7537.00,1.16
7536.00,1.16
7535.00,1.16
7534.00,1.16
7533.00,1.16
7532.00,1.16
7531.00,1.16
7530.00,1.16
7529.00,1.16
7528.00,1.16
7527.00,1.16
7526.00,1.16
7525.00,1.16
7524.00,1.16
7523.00,1.16
7522.00,1.16
7521.00,1.16
7520.00,1.15
7519.00,1.15
7518.00,1.15
7517.00,1.15
7516.00,1.15
7515.00,1.15
7514.00,1.15
7513.00,1.15
7512.00,1.15
7511.00,1.15
7510.00,1.15
7509.00,1.15
7508.00,1.15
7507.00,1.15
7506.00,1.15
7505.00,1.15
7504.00,1.15
7503.00,1.15
7502.00,1.15
7501.00,1.15
7500.00,1.15
7499.00,1.15
7498.00,1.15
7497.00,1.15
7496.00,1.15
7495.00,1.15
7494.00,1.15
7493.00,1.15
7492.00,1.15
7491.00,1.15
7490.00,1.15
7489.00,1.15
7488.00,1.14
7487.00,1.14
7486.00,1.14
7485.00,1.14
7484.00,1.14
7483.00,1.14
7482.00,1.14
7481.00,1.14
7480.00,1.14
7479.00,1.14
7478.00,1.14
7477.00,1.14
7476.00,1.14
7475.00,1.14
7474.00,1.14
7473.00,1.14
7472.00,1.13
7471.00,1.13
7470.00,1.13
7469.00,1.13
7468.00,1.13
7467.00,1.13
7466.00,1.13
7465.00,1.13
7464.00,1.13
7463.00,1.13
7462.00,1.13
7461.00,1.13
7460.00,1.13
7459.00,1.13
7458.00,1.13
7457.00,1.13
7456.00,1.13
7455.00,1.13
7454.00,1.13
7453.00,1.13
7452.00,1.13
7451.00,1.13
7450.00,1.13
7449.00,1.13
7448.00,1.13
7447.00,1.13
7446.00,1.12
7445.00,1.12
7444.00,1.12
7443.00,1.12
7442.00,1.12
7441.00,1.12
7440.00,1.12
7439.00,1.12
7438.00,1.12
7437.00,1.11
7436.00,1.11
7435.00,1.11
7434.00,1.11
7433.00,1.11
7432.00,1.11
7431.00,1.11
7430.00,1.10
7429.00,1.10
7428.00,1.10
7427.00,1.10
7426.00,1.10
7425.00,1.10
7424.00,1.10
7423.00,1.10
7422.00,1.10
7421.00,1.10
7420.00,1.10
7419.00,1.10
7418.00,1.10
7417.00,1.09
7416.00,1.09
7415.00,1.09
7414.00,1.09
7413.00,1.09
7412.00,1.09
7411.00,1.09
7410.00,1.09
7409.00,1.09
7408.00,1.09
7407.00,1.08
7406.00,1.08
7405.00,1.08
7404.00,1.08
7403.00,1.08
7402.00,1.08
7401.00,1.07
7400.00,1.07
7399.00,1.07
7398.00,1.07
7397.00,1.07
7396.00,1.07
7395.00,1.07
7394.00,1.07
7393.00,1.07
7392.00,1.07
7391.00,1.07
7390.00,1.06
7389.00,1.06
7388.00,1.06
7387.00,1.06
7386.00,1.06
7385.00,1.06
7384.00,1.06
7383.00,1.06
7382.00,1.06
7381.00,1.06
7380.00,1.06
7379.00,1.06
7378.00,1.05
7377.00,1.05
7376.00,1.05
7375.00,1.05
7374.00,1.05
7373.00,1.05
7372.00,1.05
7371.00,1.04
7370.00,1.04
7369.00,1.04
7368.00,1.04
7367.00,1.04
7366.00,1.04
7365.00,1.04
7364.00,1.04
7363.00,1.04
7362.00,1.04
7361.00,1.04
7360.00,1.04
7359.00,1.04
7358.00,1.04
7357.00,1.04
7356.00,1.04
7355.00,1.04
7354.00,1.04
7353.00,1.04
7352.00,1.04
7351.00,1.04
7350.00,1.04
7349.00,1.04
7348.00,1.04
7347.00,1.04
7346.00,1.04
7345.00,1.04
7344.00,1.04
7343.00,1.04
7342.00,1.04
7341.00,1.04
7340.00,1.04
7339.00,1.04
7338.00,1.04
7337.00,1.04
7336.00,1.04
7335.00,1.04
7334.00,1.04
7333.00,1.04
7332.00,1.04
7331.00,1.04
7330.00,1.04
7329.00,1.04
7328.00,1.04
7327.00,1.04
7326.00,1.04
7325.00,1.04
7324.00,1.04
7323.00,1.04
7322.00,1.03
7321.00,1.03
7320.00,1.03
7319.00,1.03
7318.00,1.03
7317.00,1.03
7316.00,1.03
7315.00,1.03
7314.00,1.03
7313.00,1.03
7312.00,1.02
7311.00,1.02
7310.00,1.02
7309.00,1.02
7308.00,1.02
7307.00,1.02
7306.00,1.02
7305.00,1.02
7304.00,1.02
7303.00,1.02
7302.00,1.02
7301.00,1.01
7300.00,1.01
7299.00,1.01
7298.00,1.01
7297.00,1.01
7296.00,1.01
7295.00,1.01
7294.00,1.01
7293.00,1.01
7292.00,1.01
7291.00,1.01
7290.00,1.01
7289.00,1.00
7288.00,1.00
7287.00,1.00
7286.00,1.00
7285.00,1.00
7284.00,1.00
7283.00,1.00
7282.00,0.99
7281.00,0.99
7280.00,0.99
7279.00,0.99
7278.00,0.99
7277.00,0.99
7276.00,0.99
7275.00,0.99
7274.00,0.98
7273.00,0.98
7272.00,0.98
7271.00,0.98
7270.00,0.98
7269.00,0.98
7268.00,0.98
7267.00,0.98
7266.00,0.98
7265.00,0.98
7264.00,0.98
7263.00,0.98
7262.00,0.97
7261.00,0.97
7260.00,0.97
7259.00,0.97
7258.00,0.97
7257.00,0.97
7256.00,0.97
7255.00,0.97
7254.00,0.96
7253.00,0.96
7252.00,0.96
7251.00,0.96
7250.00,0.96
7249.00,0.95
7248.00,0.95
7247.00,0.95
7246.00,0.95
7245.00,0.94
7244.00,0.94
7243.00,0.94
7242.00,0.94
7241.00,0.93
7240.00,0.93
7239.00,0.93
7238.00,0.92
7237.00,0.92
7236.00,0.92
7235.00,0.92
7234.00,0.91
7233.00,0.91
7232.00,0.91
7231.00,0.90
7230.00,0.90
7229.00,0.90
7228.00,0.89
7227.00,0.89
7226.00,0.89
7225.00,0.88
7224.00,0.88
7223.00,0.88
7222.00,0.87
7221.00,0.87
7220.00,0.87
7219.00,0.87
7218.00,0.86
7217.00,0.86
7216.00,0.86
7215.00,0.85
7214.00,0.85
7213.00,0.85
7212.00,0.85
7211.00,0.84
7210.00,0.84
7209.00,0.84
7208.00,0.83
7207.00,0.83
7206.00,0.83
7205.00,0.83
7204.00,0.82
7203.00,0.82
7202.00,0.82
7201.00,0.81
7200.00,0.81
7199.00,0.81
7198.00,0.81
7197.00,0.80
7196.00,0.80
7195.00,0.80
7194.00,0.80
7193.00,0.79
7192.00,0.79
7191.00,0.79
7190.00,0.79
7189.00,0.78
7188.00,0.78
7187.00,0.78
7186.00,0.78
7185.00,0.78
7184.00,0.78
7183.00,0.77
7182.00,0.77
7181.00,0.77
7180.00,0.77
7179.00,0.77
7178.00,0.77
7177.00,0.77
7176.00,0.76
7175.00,0.76
7174.00,0.76
7173.00,0.76
7172.00,0.76
7171.00,0.75
7170.00,0.75
7169.00,0.75
7168.00,0.75
7167.00,0.74
7166.00,0.74
7165.00,0.74
7164.00,0.74
7163.00,0.73
7162.00,0.73
7161.00,0.73
7160.00,0.73
7159.00,0.72
7158.00,0.72
7157.00,0.72
7156.00,0.72
7155.00,0.71
7154.00,0.71
7153.00,0.71
7152.00,0.71
7151.00,0.70
7150.00,0.70
7149.00,0.70
7148.00,0.70
7147.00,0.70
7146.00,0.69
7145.00,0.69
7144.00,0.69
7143.00,0.69
7142.00,0.69
7141.00,0.68
7140.00,0.68
7139.00,0.68
7138.00,0.68
7137.00,0.67
7136.00,0.67
7135.00,0.67
7134.00,0.67
7133.00,0.67
7132.00,0.67
7131.00,0.66
7130.00,0.66
7129.00,0.66
7128.00,0.66
7127.00,0.66
7126.00,0.66
7125.00,0.66
7124.00,0.65
7123.00,0.65
7122.00,0.65
7121.00,0.65
7120.00,0.65
7119.00,0.65
7118.00,0.64
7117.00,0.64
7116.00,0.64
7115.00,0.64
7114.00,0.63
7113.00,0.63
7112.00,0.63
7111.00,0.63
7110.00,0.62
7109.00,0.62
7108.00,0.62
7107.00,0.62
7106.00,0.62
7105.00,0.61
7104.00,0.61
7103.00,0.61
7102.00,0.61
7101.00,0.61
7100.00,0.61
7099.00,0.61
7098.00,0.61
7097.00,0.61
7096.00,0.60
7095.00,0.60
7094.00,0.60
7093.00,0.60
7092.00,0.60
7091.00,0.60
7090.00,0.60
7089.00,0.60
7088.00,0.60
7087.00,0.60
7086.00,0.60
7085.00,0.60
7084.00,0.60
7083.00,0.60
7082.00,0.60
7081.00,0.60
7080.00,0.59
7079.00,0.59
7078.00,0.59
7077.00,0.59
7076.00,0.59
7075.00,0.59
7074.00,0.59
7073.00,0.59
7072.00,0.59
7071.00,0.58
7070.00,0.58
7069.00,0.58
7068.00,0.58
7067.00,0.58
7066.00,0.58
7065.00,0.58
7064.00,0.58
7063.00,0.58
7062.00,0.58
7061.00,0.58
7060.00,0.58
7059.00,0.58
7058.00,0.57
7057.00,0.57
7056.00,0.57
7055.00,0.57
7054.00,0.57
7053.00,0.57
7052.00,0.57
7051.00,0.57
7050.00,0.57
7049.00,0.57
7048.00,0.57
7047.00,0.57
7046.00,0.56
7045.00,0.56
7044.00,0.56
7043.00,0.56
7042.00,0.56
7041.00,0.56
7040.00,0.56
7039.00,0.56
7038.00,0.56
7037.00,0.55
7036.00,0.55
7035.00,0.55
7034.00,0.55
7033.00,0.55
7032.00,0.55
7031.00,0.55
7030.00,0.55
7029.00,0.55
7028.00,0.55
7027.00,0.55
7026.00,0.55
7025.00,0.55
7024.00,0.55
7023.00,0.55
7022.00,0.55
7021.00,0.55
7020.00,0.55
7019.00,0.55
7018.00,0.54
7017.00,0.54
7016.00,0.54
7015.00,0.54
7014.00,0.54
7013.00,0.54
7012.00,0.54
7011.00,0.54
7010.00,0.54
7009.00,0.54
7008.00,0.54
7007.00,0.54
7006.00,0.54
7005.00,0.54
7004.00,0.54
7003.00,0.54
7002.00,0.54
7001.00,0.54
7000.00,0.54
6999.00,0.54
6998.00,0.54
6997.00,0.54
6996.00,0.54
6995.00,0.54
6994.00,0.54
6993.00,0.54
6992.00,0.54
6991.00,0.54
6990.00,0.54
6989.00,0.54
6988.00,0.54
6987.00,0.54
6986.00,0.54
6985.00,0.54
6984.00,0.54
6983.00,0.54
6982.00,0.54
6981.00,0.54
6980.00,0.54
6979.00,0.54
6978.00,0.54
6977.00,0.54
6976.00,0.54
6975.00,0.54
6974.00,0.54
6973.00,0.54
6972.00,0.54
6971.00,0.54
6970.00,0.54
6969.00,0.54
6968.00,0.54
6967.00,0.53
6966.00,0.53
6965.00,0.53
6964.00,0.53
6963.00,0.53
6962.00,0.53
6961.00,0.53
6960.00,0.53
6959.00,0.53
6958.00,0.53
6957.00,0.53
6956.00,0.53
6955.00,0.54
6954.00,0.54
6953.00,0.54
6952.00,0.54
6951.00,0.54
6950.00,0.54
6949.00,0.54
6948.00,0.54
6947.00,0.54
6946.00,0.54
6945.00,0.54
6944.00,0.54
6943.00,0.54
6942.00,0.53
6941.00,0.53
6940.00,0.53
6939.00,0.53
6938.00,0.53
6937.00,0.53
6936.00,0.53
6935.00,0.53
6934.00,0.53
6933.00,0.53
6932.00,0.53
6931.00,0.53
6930.00,0.53
6929.00,0.53
6928.00,0.53
6927.00,0.53
6926.00,0.53
6925.00,0.53
6924.00,0.53
6923.00,0.53
6922.00,0.53
6921.00,0.53
6920.00,0.53
6919.00,0.53
6918.00,0.53
6917.00,0.53
6916.00,0.53
6915.00,0.53
6914.00,0.53
6913.00,0.53
6912.00,0.53
6911.00,0.53
6910.00,0.53
6909.00,0.53
6908.00,0.53
6907.00,0.53
6906.00,0.53
6905.00,0.53
6904.00,0.53
6903.00,0.53
6902.00,0.53
6901.00,0.53
6900.00,0.53
6899.00,0.53
6898.00,0.53
6897.00,0.53
6896.00,0.53
6895.00,0.53
6894.00,0.53
6893.00,0.53
6892.00,0.53
6891.00,0.53
6890.00,0.53
6889.00,0.53
6888.00,0.53
6887.00,0.53
6886.00,0.53
6885.00,0.53
6884.00,0.53
6883.00,0.53
6882.00,0.53
6881.00,0.53
6880.00,0.53
6879.00,0.53
6878.00,0.53
6877.00,0.53
6876.00,0.53
6875.00,0.53
6874.00,0.53
6873.00,0.53
6872.00,0.53
6871.00,0.53
6870.00,0.53
6869.00,0.54
6868.00,0.54
6867.00,0.54
6866.00,0.54
6865.00,0.54
6864.00,0.54
6863.00,0.54
6862.00,0.54
6861.00,0.54
6860.00,0.54
6859.00,0.54
6858.00,0.54
6857.00,0.54
6856.00,0.54
6855.00,0.54
6854.00,0.54
6853.00,0.54
6852.00,0.54
6851.00,0.54
6850.00,0.54
6849.00,0.54
6848.00,0.54
6847.00,0.53
6846.00,0.53
6845.00,0.53
6844.00,0.53
6843.00,0.53
6842.00,0.53
6841.00,0.53
6840.00,0.53
6839.00,0.53
6838.00,0.53
6837.00,0.53
6836.00,0.53
6835.00,0.53
6834.00,0.53
6833.00,0.53
6832.00,0.52
6831.00,0.52
6830.00,0.52
6829.00,0.52
6828.00,0.52
6827.00,0.52
6826.00,0.52
6825.00,0.52
6824.00,0.52
6823.00,0.52
6822.00,0.53
6821.00,0.53
6820.00,0.53
6819.00,0.53
6818.00,0.53
6817.00,0.53
6816.00,0.53
6815.00,0.53
6814.00,0.53
6813.00,0.53
6812.00,0.53
6811.00,0.53
6810.00,0.54
6809.00,0.54
6808.00,0.54
6807.00,0.54
6806.00,0.54
6805.00,0.54
6804.00,0.54
6803.00,0.54
6802.00,0.54
6801.00,0.54
6800.00,0.54
6799.00,0.54
6798.00,0.54
6797.00,0.54
6796.00,0.54
6795.00,0.54
6794.00,0.54
6793.00,0.54
6792.00,0.54
6791.00,0.54
6790.00,0.54
6789.00,0.54
6788.00,0.54
6787.00,0.55
6786.00,0.55
6785.00,0.55
6784.00,0.55
6783.00,0.55
6782.00,0.55
6781.00,0.55
6780.00,0.55
6779.00,0.55
6778.00,0.55
6777.00,0.55
6776.00,0.55
6775.00,0.55
6774.00,0.55
6773.00,0.55
6772.00,0.55
6771.00,0.55
6770.00,0.55
6769.00,0.55
6768.00,0.55
6767.00,0.55
6766.00,0.55
6765.00,0.55
6764.00,0.55
6763.00,0.55
6762.00,0.55
6761.00,0.55
6760.00,0.55
6759.00,0.55
6758.00,0.55
6757.00,0.55
6756.00,0.55
6755.00,0.55
6754.00,0.55
6753.00,0.56
6752.00,0.56
6751.00,0.56
6750.00,0.56
6749.00,0.56
6748.00,0.56
6747.00,0.56
6746.00,0.56
6745.00,0.56
6744.00,0.56
6743.00,0.56
6742.00,0.56
6741.00,0.56
6740.00,0.56
6739.00,0.56
6738.00,0.56
6737.00,0.56
6736.00,0.56
6735.00,0.56
6734.00,0.56
6733.00,0.56
6732.00,0.56
6731.00,0.56
6730.00,0.56
6729.00,0.56
6728.00,0.56
6727.00,0.56
6726.00,0.56
6725.00,0.56
6724.00,0.57
6723.00,0.57
6722.00,0.57
6721.00,0.57
6720.00,0.57
6719.00,0.57
6718.00,0.57
6717.00,0.57
6716.00,0.57
6715.00,0.57
6714.00,0.57
6713.00,0.57
6712.00,0.57
6711.00,0.57
6710.00,0.57
6709.00,0.57
6708.00,0.57
6707.00,0.57
6706.00,0.57
6705.00,0.57
6704.00,0.57
6703.00,0.57
6702.00,0.58
6701.00,0.58
6700.00,0.58
6699.00,0.58
6698.00,0.58
6697.00,0.58
6696.00,0.58
6695.00,0.58
6694.00,0.58
6693.00,0.58
6692.00,0.58
6691.00,0.58
6690.00,0.58
6689.00,0.58
6688.00,0.58
6687.00,0.59
6686.00,0.59
6685.00,0.59
6684.00,0.59
6683.00,0.59
6682.00,0.59
6681.00,0.59
6680.00,0.59
6679.00,0.59
6678.00,0.59
6677.00,0.59
6676.00,0.59
6675.00,0.59
6674.00,0.59
6673.00,0.59
6672.00,0.59
6671.00,0.60
6670.00,0.60
6669.00,0.60
6668.00,0.60
6667.00,0.60
6666.00,0.60
6665.00,0.60
6664.00,0.60
6663.00,0.60
6662.00,0.60
6661.00,0.60
6660.00,0.60
6659.00,0.60
6658.00,0.60
6657.00,0.60
6656.00,0.60
6655.00,0.60
6654.00,0.60
6653.00,0.60
6652.00,0.61
6651.00,0.61
6650.00,0.61
6649.00,0.61
6648.00,0.61
6647.00,0.61
6646.00,0.61
6645.00,0.61
6644.00,0.61
6643.00,0.61
6642.00,0.61
6641.00,0.61
6640.00,0.62
6639.00,0.62
6638.00,0.62
6637.00,0.62
6636.00,0.62
6635.00,0.62
6634.00,0.62
6633.00,0.62
6632.00,0.62
6631.00,0.62
6630.00,0.62
6629.00,0.62
6628.00,0.62
6627.00,0.62
6626.00,0.62
6625.00,0.62
6624.00,0.62
6623.00,0.62
6622.00,0.62
6621.00,0.62
6620.00,0.62
6619.00,0.63
6618.00,0.63
6617.00,0.63
6616.00,0.63
6615.00,0.63
6614.00,0.63
6613.00,0.63
6612.00,0.63
6611.00,0.63
6610.00,0.63
6609.00,0.63
6608.00,0.64
6607.00,0.64
6606.00,0.64
6605.00,0.64
6604.00,0.64
6603.00,0.64
6602.00,0.64
6601.00,0.64
6600.00,0.64
6599.00,0.64
6598.00,0.64
6597.00,0.64
6596.00,0.64
6595.00,0.64
6594.00,0.64
6593.00,0.64
6592.00,0.64
6591.00,0.64
6590.00,0.64
6589.00,0.64
6588.00,0.64
6587.00,0.65
6586.00,0.65
6585.00,0.65
6584.00,0.65
6583.00,0.65
6582.00,0.65
6581.00,0.65
6580.00,0.65
6579.00,0.65
6578.00,0.65
6577.00,0.65
6576.00,0.65
6575.00,0.65
6574.00,0.65
6573.00,0.65
6572.00,0.66
6571.00,0.66
6570.00,0.66
6569.00,0.66
6568.00,0.66
6567.00,0.66
6566.00,0.66
6565.00,0.66
6564.00,0.66
6563.00,0.66
6562.00,0.66
6561.00,0.66
6560.00,0.66
6559.00,0.66
6558.00,0.66
6557.00,0.66
6556.00,0.66
6555.00,0.66
6554.00,0.66
6553.00,0.66
6552.00,0.66
6551.00,0.66
6550.00,0.66
6549.00,0.66
6548.00,0.67
6547.00,0.67
6546.00,0.67
6545.00,0.67
6544.00,0.67
6543.00,0.67
6542.00,0.67
6541.00,0.68
6540.00,0.68
6539.00,0.68
6538.00,0.68
6537.00,0.68
6536.00,0.68
6535.00,0.68
6534.00,0.68
6533.00,0.68
6532.00,0.68
6531.00,0.68
6530.00,0.68
6529.00,0.68
6528.00,0.68
6527.00,0.68
6526.00,0.69
6525.00,0.69
6524.00,0.69
6523.00,0.69
6522.00,0.69
6521.00,0.69
6520.00,0.69
6519.00,0.69
6518.00,0.69
6517.00,0.69
6516.00,0.69
6515.00,0.69
6514.00,0.69
6513.00,0.69
6512.00,0.69
6511.00,0.69
6510.00,0.69
6509.00,0.69
6508.00,0.69
6507.00,0.69
6506.00,0.69
6505.00,0.69
6504.00,0.69
6503.00,0.69
6502.00,0.69
6501.00,0.69
6500.00,0.69
6499.00,0.69
6498.00,0.69
6497.00,0.69
6496.00,0.69
6495.00,0.69
6494.00,0.69
6493.00,0.70
6492.00,0.70
6491.00,0.70
6490.00,0.70
6489.00,0.70
6488.00,0.70
6487.00,0.70
6486.00,0.70
6485.00,0.70
6484.00,0.70
6483.00,0.70
6482.00,0.70
6481.00,0.71
6480.00,0.71
6479.00,0.71
6478.00,0.71
6477.00,0.71
6476.00,0.71
6475.00,0.71
6474.00,0.71
6473.00,0.71
6472.00,0.71
6471.00,0.71
6470.00,0.71
6469.00,0.71
6468.00,0.71
6467.00,0.71
6466.00,0.71
6465.00,0.71
6464.00,0.71
6463.00,0.71
6462.00,0.71
6461.00,0.71
6460.00,0.71
6459.00,0.71
6458.00,0.71
6457.00,0.71
6456.00,0.71
6455.00,0.71
6454.00,0.71
6453.00,0.71
6452.00,0.71
6451.00,0.71
6450.00,0.71
6449.00,0.71
6448.00,0.71
6447.00,0.71
6446.00,0.71
6445.00,0.71
6444.00,0.71
6443.00,0.71
6442.00,0.71
6441.00,0.71
6440.00,0.71
6439.00,0.71
6438.00,0.71
6437.00,0.71
6436.00,0.71
6435.00,0.71
6434.00,0.71
6433.00,0.71
6432.00,0.71
6431.00,0.71
6430.00,0.72
6429.00,0.72
6428.00,0.72
6427.00,0.72
6426.00,0.72
6425.00,0.72
6424.00,0.72
6423.00,0.72
6422.00,0.72
6421.00,0.72
6420.00,0.72
6419.00,0.72
6418.00,0.73
6417.00,0.73
6416.00,0.73
6415.00,0.73
6414.00,0.73
6413.00,0.73
6412.00,0.73
6411.00,0.73
6410.00,0.73
6409.00,0.73
6408.00,0.73
6407.00,0.73
6406.00,0.73
6405.00,0.73
6404.00,0.73
6403.00,0.73
6402.00,0.73
6401.00,0.73
6400.00,0.73
6399.00,0.73
6398.00,0.73
6397.00,0.73
6396.00,0.74
6395.00,0.74
6394.00,0.74
6393.00,0.74
6392.00,0.74
6391.00,0.74
6390.00,0.74
6389.00,0.74
6388.00,0.74
6387.00,0.74
6386.00,0.74
6385.00,0.74
6384.00,0.74
6383.00,0.74
6382.00,0.74
6381.00,0.74
6380.00,0.75
6379.00,0.75
6378.00,0.75
6377.00,0.75
6376.00,0.75
6375.00,0.75
6374.00,0.75
6373.00,0.75
6372.00,0.75
6371.00,0.75
6370.00,0.75
6369.00,0.75
6368.00,0.75
6367.00,0.75
6366.00,0.76
6365.00,0.76
6364.00,0.76
6363.00,0.76
6362.00,0.76
6361.00,0.76
6360.00,0.76
6359.00,0.76
6358.00,0.76
6357.00,0.76
6356.00,0.76
6355.00,0.76
6354.00,0.76
6353.00,0.76
6352.00,0.76
6351.00,0.76
6350.00,0.76
6349.00,0.76
6348.00,0.76
6347.00,0.77
6346.00,0.77
6345.00,0.77
6344.00,0.77
6343.00,0.77
6342.00,0.77
6341.00,0.77
6340.00,0.77
6339.00,0.77
6338.00,0.77
6337.00,0.77
6336.00,0.78
6335.00,0.78
6334.00,0.78
6333.00,0.78
6332.00,0.78
6331.00,0.78
6330.00,0.78
6329.00,0.78
6328.00,0.78
6327.00,0.78
6326.00,0.78
6325.00,0.79
6324.00,0.79
6323.00,0.79
6322.00,0.79
6321.00,0.79
6320.00,0.79
6319.00,0.79
6318.00,0.79
6317.00,0.79
6316.00,0.79
6315.00,0.79
6314.00,0.79
6313.00,0.79
6312.00,0.79
6311.00,0.79
6310.00,0.79
6309.00,0.79
6308.00,0.79
6307.00,0.79
6306.00,0.79
6305.00,0.79
6304.00,0.80
6303.00,0.80
6302.00,0.80
6301.00,0.80
6300.00,0.80
6299.00,0.80
6298.00,0.80
6297.00,0.80
6296.00,0.80
6295.00,0.80
6294.00,0.80
6293.00,0.80
6292.00,0.80
6291.00,0.80
6290.00,0.81
6289.00,0.81
6288.00,0.81
6287.00,0.81
6286.00,0.81
6285.00,0.81
6284.00,0.81
6283.00,0.81
6282.00,0.81
6281.00,0.82
6280.00,0.82
6279.00,0.82
6278.00,0.82
6277.00,0.82
6276.00,0.82
6275.00,0.82
6274.00,0.82
6273.00,0.82
6272.00,0.82
6271.00,0.83
6270.00,0.83
6269.00,0.83
6268.00,0.83
6267.00,0.83
6266.00,0.83
6265.00,0.83
6264.00,0.83
6263.00,0.83
6262.00,0.83
6261.00,0.83
6260.00,0.84
6259.00,0.84
6258.00,0.84
6257.00,0.84
6256.00,0.84
6255.00,0.84
6254.00,0.84
6253.00,0.84
6252.00,0.84
6251.00,0.84
6250.00,0.84
6249.00,0.84
6248.00,0.84
6247.00,0.85
6246.00,0.85
6245.00,0.85
6244.00,0.85
6243.00,0.85
6242.00,0.85
6241.00,0.85
6240.00,0.85
6239.00,0.85
6238.00,0.85
6237.00,0.85
6236.00,0.85
6235.00,0.86
6234.00,0.86
6233.00,0.86
6232.00,0.86
6231.00,0.86
6230.00,0.86
6229.00,0.86
6228.00,0.86
6227.00,0.86
6226.00,0.86
6225.00,0.87
6224.00,0.87
6223.00,0.87
6222.00,0.87
6221.00,0.87
6220.00,0.87
6219.00,0.87
6218.00,0.87
6217.00,0.88
6216.00,0.88
6215.00,0.88
6214.00,0.88
6213.00,0.88
6212.00,0.88
6211.00,0.88
6210.00,0.88
6209.00,0.89
6208.00,0.89
6207.00,0.89
6206.00,0.89
6205.00,0.89
6204.00,0.89
6203.00,0.89
6202.00,0.89
6201.00,0.90
6200.00,0.90
6199.00,0.90
6198.00,0.90
6197.00,0.90
6196.00,0.90
6195.00,0.90
6194.00,0.90
6193.00,0.90
6192.00,0.91
6191.00,0.91
6190.00,0.91
6189.00,0.91
6188.00,0.91
6187.00,0.91
6186.00,0.91
6185.00,0.91
6184.00,0.91
6183.00,0.91
6182.00,0.91
6181.00,0.92
6180.00,0.92
6179.00,0.92
6178.00,0.92
6177.00,0.92
6176.00,0.92
6175.00,0.92
6174.00,0.92
6173.00,0.92
6172.00,0.92
6171.00,0.93
6170.00,0.93
6169.00,0.93
6168.00,0.93
6167.00,0.93
6166.00,0.93
6165.00,0.93
6164.00,0.93
6163.00,0.94
6162.00,0.94
6161.00,0.94
6160.00,0.94
6159.00,0.94
6158.00,0.94
6157.00,0.94
6156.00,0.95
6155.00,0.95
6154.00,0.95
6153.00,0.95
6152.00,0.95
6151.00,0.95
6150.00,0.95
6149.00,0.95
6148.00,0.96
6147.00,0.96
6146.00,0.96
6145.00,0.96
6144.00,0.96
6143.00,0.96
6142.00,0.96
6141.00,0.96
6140.00,0.96
6139.00,0.96
6138.00,0.96
6137.00,0.97
6136.00,0.97
6135.00,0.97
6134.00,0.97
6133.00,0.97
6132.00,0.97
6131.00,0.97
6130.00,0.97
6129.00,0.97
6128.00,0.98
6127.00,0.98
6126.00,0.98
6125.00,0.98
6124.00,0.98
6123.00,0.98
6122.00,0.98
6121.00,0.99
6120.00,0.99
6119.00,0.99
6118.00,0.99
6117.00,0.99
6116.00,0.99
6115.00,0.99
6114.00,1.00
6113.00,1.00
6112.00,1.00
6111.00,1.00
6110.00,1.00
6109.00,1.00
6108.00,1.00
6107.00,1.00
6106.00,1.01
6105.00,1.01
6104.00,1.01
6103.00,1.01
6102.00,1.01
6101.00,1.01
6100.00,1.01
6099.00,1.02
6098.00,1.02
6097.00,1.02
6096.00,1.02
6095.00,1.02
6094.00,1.02
6093.00,1.02
6092.00,1.02
6091.00,1.03
6090.00,1.03
6089.00,1.03
6088.00,1.03
6087.00,1.03
6086.00,1.03
6085.00,1.03
6084.00,1.04
6083.00,1.04
6082.00,1.04
6081.00,1.04
6080.00,1.04
6079.00,1.04
6078.00,1.04
6077.00,1.04
6076.00,1.04
6075.00,1.04
6074.00,1.04
6073.00,1.04
6072.00,1.04
6071.00,1.05
6070.00,1.05
6069.00,1.05
6068.00,1.05
6067.00,1.05
6066.00,1.05
6065.00,1.05
6064.00,1.05
6063.00,1.05
6062.00,1.05
6061.00,1.05
6060.00,1.05
6059.00,1.05
6058.00,1.05
6057.00,1.06
6056.00,1.06
6055.00,1.06
6054.00,1.06
6053.00,1.06
6052.00,1.06
6051.00,1.06
6050.00,1.06
6049.00,1.06
6048.00,1.06
6047.00,1.06
6046.00,1.06
6045.00,1.06
6044.00,1.06
6043.00,1.07
6042.00,1.07
6041.00,1.07
6040.00,1.07
6039.00,1.07
6038.00,1.07
6037.00,1.07
6036.00,1.07
6035.00,1.07
6034.00,1.07
6033.00,1.07
6032.00,1.07
6031.00,1.07
6030.00,1.08
6029.00,1.08
6028.00,1.08
6027.00,1.08
6026.00,1.08
6025.00,1.08
6024.00,1.08
6023.00,1.08
6022.00,1.08
6021.00,1.08
6020.00,1.08
6019.00,1.08
6018.00,1.08
6017.00,1.08
6016.00,1.08
6015.00,1.08
6014.00,1.08
6013.00,1.08
6012.00,1.08
6011.00,1.08
6010.00,1.08
6009.00,1.08
6008.00,1.08
6007.00,1.08
6006.00,1.08
6005.00,1.08
6004.00,1.07
6003.00,1.07
6002.00,1.07
6001.00,1.07
6000.00,1.07
5999.00,1.07
5998.00,1.07
5997.00,1.07
5996.00,1.07
5995.00,1.07
5994.00,1.07
5993.00,1.07
5992.00,1.07
5991.00,1.07
5990.00,1.07
5989.00,1.06
5988.00,1.06
5987.00,1.06
5986.00,1.06
5985.00,1.06
5984.00,1.06
5983.00,1.05
5982.00,1.05
5981.00,1.05
5980.00,1.04
5979.00,1.04
5978.00,1.04
5977.00,1.03
5976.00,1.03
5975.00,1.03
5974.00,1.02
5973.00,1.02
5972.00,1.01
5971.00,1.01
5970.00,1.00
5969.00,1.00
5968.00,0.99
5967.00,0.99
5966.00,0.98
5965.00,0.98
5964.00,0.97
5963.00,0.96
5962.00,0.96
5961.00,0.95
5960.00,0.95
5959.00,0.94
5958.00,0.94
5957.00,0.93
5956.00,0.93
5955.00,0.92
5954.00,0.92
5953.00,0.91
5952.00,0.91
5951.00,0.90
5950.00,0.90
5949.00,0.90
5948.00,0.89
5947.00,0.89
5946.00,0.89
5945.00,0.88
5944.00,0.88
5943.00,0.88
5942.00,0.88
5941.00,0.88
5940.00,0.87
5939.00,0.87
5938.00,0.87
5937.00,0.87
5936.00,0.87
5935.00,0.87
5934.00,0.87
5933.00,0.87
5932.00,0.87
5931.00,0.87
5930.00,0.87
5929.00,0.86
5928.00,0.86
5927.00,0.86
5926.00,0.86
5925.00,0.86
5924.00,0.86
5923.00,0.86
5922.00,0.86
5921.00,0.86
5920.00,0.85
5919.00,0.85
5918.00,0.85
5917.00,0.85
5916.00,0.85
5915.00,0.84
5914.00,0.84
5913.00,0.84
5912.00,0.84
5911.00,0.84
5910.00,0.84
5909.00,0.83
5908.00,0.83
5907.00,0.83
5906.00,0.83
5905.00,0.83
5904.00,0.83
5903.00,0.83
5902.00,0.83
5901.00,0.83
5900.00,0.83
5899.00,0.83
5898.00,0.83
5897.00,0.83
5896.00,0.83
5895.00,0.83
5894.00,0.83
5893.00,0.83
5892.00,0.84
5891.00,0.84
5890.00,0.84
5889.00,0.84
5888.00,0.84
5887.00,0.84
5886.00,0.85
5885.00,0.85
5884.00,0.85
5883.00,0.85
5882.00,0.86
5881.00,0.86
5880.00,0.86
5879.00,0.86
5878.00,0.86
5877.00,0.87
5876.00,0.87
5875.00,0.87
5874.00,0.87
5873.00,0.87
5872.00,0.88
5871.00,0.88
5870.00,0.88
5869.00,0.88
5868.00,0.88
5867.00,0.88
5866.00,0.89
5865.00,0.89
5864.00,0.89
5863.00,0.89
5862.00,0.89
5861.00,0.89
5860.00,0.90
5859.00,0.90
5858.00,0.90
5857.00,0.90
5856.00,0.90
5855.00,0.90
5854.00,0.90
5853.00,0.90
5852.00,0.91
5851.00,0.91
5850.00,0.91
5849.00,0.91
5848.00,0.91
5847.00,0.91
5846.00,0.91
5845.00,0.91
5844.00,0.91
5843.00,0.91
5842.00,0.91
5841.00,0.91
5840.00,0.91
5839.00,0.91
5838.00,0.91
5837.00,0.91
5836.00,0.91
5835.00,0.91
5834.00,0.91
5833.00,0.91
5832.00,0.91
5831.00,0.91
5830.00,0.91
5829.00,0.91
5828.00,0.91
5827.00,0.91
5826.00,0.91
5825.00,0.91
5824.00,0.91
5823.00,0.91
5822.00,0.91
5821.00,0.91
5820.00,0.91
5819.00,0.91
5818.00,0.91
5817.00,0.92
5816.00,0.92
5815.00,0.92
5814.00,0.92
5813.00,0.92
5812.00,0.92
5811.00,0.92
5810.00,0.92
5809.00,0.92
5808.00,0.92
5807.00,0.92
5806.00,0.92
5805.00,0.92
5804.00,0.92
5803.00,0.91
5802.00,0.91
5801.00,0.91
5800.00,0.91
5799.00,0.91
5798.00,0.91
5797.00,0.91
5796.00,0.91
5795.00,0.90
5794.00,0.90
5793.00,0.90
5792.00,0.90
5791.00,0.90
5790.00,0.90
5789.00,0.89
5788.00,0.89
5787.00,0.89
5786.00,0.89
5785.00,0.89
5784.00,0.88
5783.00,0.88
5782.00,0.88
5781.00,0.88
5780.00,0.88
5779.00,0.88
5778.00,0.88
5777.00,0.87
5776.00,0.87
5775.00,0.87
5774.00,0.87
5773.00,0.87
5772.00,0.87
5771.00,0.87
5770.00,0.87
5769.00,0.87
5768.00,0.87
5767.00,0.88
5766.00,0.88
5765.00,0.88
5764.00,0.88
5763.00,0.88
5762.00,0.88
5761.00,0.88
5760.00,0.89
5759.00,0.89
5758.00,0.89
5757.00,0.89
5756.00,0.90
5755.00,0.90
5754.00,0.90
5753.00,0.90
5752.00,0.91
5751.00,0.91
5750.00,0.91
5749.00,0.92
5748.00,0.92
5747.00,0.92
5746.00,0.92
5745.00,0.93
5744.00,0.93
5743.00,0.93
5742.00,0.93
5741.00,0.93
5740.00,0.94
5739.00,0.94
5738.00,0.94
5737.00,0.94
5736.00,0.94
5735.00,0.95
5734.00,0.95
5733.00,0.95
5732.00,0.95
5731.00,0.95
5730.00,0.95
5729.00,0.96
5728.00,0.96
5727.00,0.96
5726.00,0.96
5725.00,0.96
5724.00,0.96
5723.00,0.96
5722.00,0.96
5721.00,0.96
5720.00,0.97
5719.00,0.97
5718.00,0.97
5717.00,0.97
5716.00,0.97
5715.00,0.97
5714.00,0.97
5713.00,0.97
5712.00,0.97
5711.00,0.97
5710.00,0.97
5709.00,0.97
5708.00,0.97
5707.00,0.97
5706.00,0.97
5705.00,0.97
5704.00,0.97
5703.00,0.96
5702.00,0.96
5701.00,0.96
5700.00,0.96
5699.00,0.96
5698.00,0.96
5697.00,0.96
5696.00,0.96
5695.00,0.95
5694.00,0.95
5693.00,0.95
5692.00,0.95
5691.00,0.95
5690.00,0.95
5689.00,0.95
5688.00,0.95
5687.00,0.94
5686.00,0.94
5685.00,0.94
5684.00,0.94
5683.00,0.94
5682.00,0.94
5681.00,0.94
5680.00,0.94
5679.00,0.94
5678.00,0.94
5677.00,0.94
5676.00,0.94
5675.00,0.94
5674.00,0.94
5673.00,0.94
5672.00,0.94
5671.00,0.94
5670.00,0.94
5669.00,0.94
5668.00,0.94
5667.00,0.94
5666.00,0.94
5665.00,0.94
5664.00,0.94
5663.00,0.94
5662.00,0.94
5661.00,0.95
5660.00,0.95
5659.00,0.95
5658.00,0.95
5657.00,0.95
5656.00,0.95
5655.00,0.95
5654.00,0.95
5653.00,0.96
5652.00,0.96
5651.00,0.96
5650.00,0.96
5649.00,0.96
5648.00,0.96
5647.00,0.96
5646.00,0.97
5645.00,0.97
5644.00,0.97
5643.00,0.97
5642.00,0.97
5641.00,0.97
5640.00,0.97
5639.00,0.97
5638.00,0.98
5637.00,0.98
5636.00,0.98
5635.00,0.98
5634.00,0.98
5633.00,0.98
5632.00,0.98
5631.00,0.98
5630.00,0.98
5629.00,0.98
5628.00,0.99
5627.00,0.99
5626.00,0.99
5625.00,0.99
5624.00,0.99
5623.00,0.99
5622.00,0.99
5621.00,0.99
5620.00,1.00
5619.00,1.00
5618.00,1.00
5617.00,1.00
5616.00,1.00
5615.00,1.01
5614.00,1.01
5613.00,1.01
5612.00,1.01
5611.00,1.01
5610.00,1.02
5609.00,1.02
5608.00,1.02
5607.00,1.02
5606.00,1.02
5605.00,1.03
5604.00,1.03
5603.00,1.03
5602.00,1.03
5601.00,1.03
5600.00,1.03
5599.00,1.04
5598.00,1.04
5597.00,1.04
5596.00,1.04
5595.00,1.04
5594.00,1.04
5593.00,1.04
5592.00,1.05
5591.00,1.05
5590.00,1.05
5589.00,1.05
5588.00,1.05
5587.00,1.05
5586.00,1.05
5585.00,1.05
5584.00,1.05
5583.00,1.05
5582.00,1.06
5581.00,1.06
5580.00,1.06
5579.00,1.06
5578.00,1.06
5577.00,1.06
5576.00,1.06
5575.00,1.06
5574.00,1.06
5573.00,1.06
5572.00,1.07
5571.00,1.07
5570.00,1.07
5569.00,1.07
5568.00,1.07
5567.00,1.07
5566.00,1.07
5565.00,1.07
5564.00,1.08
5563.00,1.08
5562.00,1.08
5561.00,1.08
5560.00,1.08
5559.00,1.08
5558.00,1.08
5557.00,1.08
5556.00,1.08
5555.00,1.09
5554.00,1.09
5553.00,1.09
5552.00,1.09
5551.00,1.09
5550.00,1.09
5549.00,1.09
5548.00,1.09
5547.00,1.09
5546.00,1.09
5545.00,1.10
5544.00,1.10
5543.00,1.10
5542.00,1.10
5541.00,1.10
5540.00,1.10
5539.00,1.10
5538.00,1.10
5537.00,1.10
5536.00,1.10
5535.00,1.11
5534.00,1.11
5533.00,1.11
5532.00,1.11
5531.00,1.11
5530.00,1.11
5529.00,1.11
5528.00,1.11
5527.00,1.11
5526.00,1.12
5525.00,1.12
5524.00,1.12
5523.00,1.12
5522.00,1.12
5521.00,1.12
5520.00,1.12
5519.00,1.12
5518.00,1.12
5517.00,1.12
5516.00,1.12
5515.00,1.12
5514.00,1.12
5513.00,1.12
5512.00,1.13
5511.00,1.13
5510.00,1.13
5509.00,1.13
5508.00,1.13
5507.00,1.13
5506.00,1.13
5505.00,1.13
5504.00,1.13
5503.00,1.13
5502.00,1.13
5501.00,1.13
5500.00,1.13
5499.00,1.13
5498.00,1.13
5497.00,1.13
5496.00,1.13
5495.00,1.13
5494.00,1.13
5493.00,1.14
5492.00,1.14
5491.00,1.14
5490.00,1.14
5489.00,1.14
5488.00,1.14
5487.00,1.14
5486.00,1.14
5485.00,1.14
5484.00,1.14
5483.00,1.15
5482.00,1.15
5481.00,1.15
5480.00,1.15
5479.00,1.15
5478.00,1.15
5477.00,1.15
5476.00,1.15
5475.00,1.15
5474.00,1.15
5473.00,1.15
5472.00,1.15
5471.00,1.15
5470.00,1.15
5469.00,1.15
5468.00,1.16
5467.00,1.16
5466.00,1.16
5465.00,1.16
5464.00,1.16
5463.00,1.16
5462.00,1.16
5461.00,1.16
5460.00,1.16
5459.00,1.16
5458.00,1.17
5457.00,1.17
5456.00,1.17
5455.00,1.17
5454.00,1.17
5453.00,1.17
5452.00,1.17
5451.00,1.17
5450.00,1.17
5449.00,1.17
5448.00,1.17
5447.00,1.17
5446.00,1.17
5445.00,1.17
5444.00,1.17
5443.00,1.17
5442.00,1.17
5441.00,1.18
5440.00,1.18
5439.00,1.18
5438.00,1.18
5437.00,1.18
5436.00,1.18
5435.00,1.18
5434.00,1.18
5433.00,1.18
5432.00,1.18
5431.00,1.18
5430.00,1.18
5429.00,1.18
5428.00,1.18
5427.00,1.18
5426.00,1.18
5425.00,1.18
5424.00,1.18
5423.00,1.18
5422.00,1.18
5421.00,1.18
5420.00,1.18
5419.00,1.18
5418.00,1.18
5417.00,1.18
5416.00,1.18
5415.00,1.18
5414.00,1.18
5413.00,1.18
5412.00,1.18
5411.00,1.18
5410.00,1.18
5409.00,1.18
5408.00,1.18
5407.00,1.18
5406.00,1.18
5405.00,1.18
5404.00,1.18
5403.00,1.18
5402.00,1.17
5401.00,1.17
5400.00,1.17
5399.00,1.17
5398.00,1.17
5397.00,1.17
5396.00,1.17
5395.00,1.17
5394.00,1.17
5393.00,1.17
5392.00,1.16
5391.00,1.16
5390.00,1.16
5389.00,1.16
5388.00,1.16
5387.00,1.16
5386.00,1.16
5385.00,1.15
5384.00,1.15
5383.00,1.15
5382.00,1.15
5381.00,1.14
5380.00,1.14
5379.00,1.14
5378.00,1.13
5377.00,1.13
5376.00,1.13
5375.00,1.12
5374.00,1.12
5373.00,1.12
5372.00,1.11
5371.00,1.11
5370.00,1.10
5369.00,1.10
5368.00,1.10
5367.00,1.09
5366.00,1.09
5365.00,1.08
5364.00,1.08
5363.00,1.07
5362.00,1.07
5361.00,1.06
5360.00,1.06
5359.00,1.05
5358.00,1.05
5357.00,1.04
5356.00,1.04
5355.00,1.03
5354.00,1.02
5353.00,1.02
5352.00,1.01
5351.00,1.00
5350.00,1.00
5349.00,0.99
5348.00,0.98
5347.00,0.98
5346.00,0.97
5345.00,0.96
5344.00,0.96
5343.00,0.95
5342.00,0.94
5341.00,0.94
5340.00,0.93
5339.00,0.92
5338.00,0.92
5337.00,0.91
5336.00,0.90
5335.00,0.90
5334.00,0.89
5333.00,0.89
5332.00,0.88
5331.00,0.87
5330.00,0.87
5329.00,0.86
5328.00,0.86
5327.00,0.85
5326.00,0.84
5325.00,0.84
5324.00,0.83
5323.00,0.83
5322.00,0.82
5321.00,0.82
5320.00,0.81
5319.00,0.80
5318.00,0.80
5317.00,0.79
5316.00,0.79
5315.00,0.79
5314.00,0.78
5313.00,0.78
5312.00,0.77
5311.00,0.77
5310.00,0.77
5309.00,0.76
5308.00,0.76
5307.00,0.76
5306.00,0.75
5305.00,0.75
5304.00,0.75
5303.00,0.75
5302.00,0.75
5301.00,0.75
5300.00,0.74
5299.00,0.74
5298.00,0.74
5297.00,0.74
5296.00,0.74
5295.00,0.74
5294.00,0.74
5293.00,0.74
5292.00,0.74
5291.00,0.74
5290.00,0.74
5289.00,0.74
5288.00,0.73
5287.00,0.73
5286.00,0.73
5285.00,0.73
5284.00,0.73
5283.00,0.73
5282.00,0.73
5281.00,0.73
5280.00,0.73
5279.00,0.73
5278.00,0.73
5277.00,0.73
5276.00,0.73
5275.00,0.73
5274.00,0.73
5273.00,0.73
5272.00,0.73
5271.00,0.73
5270.00,0.73
5269.00,0.73
5268.00,0.73
5267.00,0.73
5266.00,0.73
5265.00,0.73
5264.00,0.73
5263.00,0.73
5262.00,0.73
5261.00,0.73
5260.00,0.73
5259.00,0.73
5258.00,0.73
5257.00,0.73
5256.00,0.73
5255.00,0.73
5254.00,0.73
5253.00,0.73
5252.00,0.73
5251.00,0.73
5250.00,0.73
5249.00,0.73
5248.00,0.73
5247.00,0.73
5246.00,0.73
5245.00,0.73
5244.00,0.73
5243.00,0.73
5242.00,0.73
5241.00,0.73
5240.00,0.73
5239.00,0.73
5238.00,0.74
5237.00,0.74
5236.00,0.74
5235.00,0.74
5234.00,0.74
5233.00,0.74
5232.00,0.74
5231.00,0.74
5230.00,0.74
5229.00,0.74
5228.00,0.74
5227.00,0.74
5226.00,0.74
5225.00,0.74
5224.00,0.74
5223.00,0.74
5222.00,0.74
5221.00,0.74
5220.00,0.74
5219.00,0.74
5218.00,0.74
5217.00,0.74
5216.00,0.74
5215.00,0.74
5214.00,0.74
5213.00,0.75
5212.00,0.75
5211.00,0.75
5210.00,0.75
5209.00,0.75
5208.00,0.75
5207.00,0.75
5206.00,0.75
5205.00,0.75
5204.00,0.75
5203.00,0.75
5202.00,0.75
5201.00,0.75
5200.00,0.75
5199.00,0.75
5198.00,0.75
5197.00,0.75
5196.00,0.75
5195.00,0.75
5194.00,0.75
5193.00,0.75
5192.00,0.75
5191.00,0.75
5190.00,0.75
5189.00,0.75
5188.00,0.75
5187.00,0.75
5186.00,0.75
5185.00,0.75
5184.00,0.75
5183.00,0.75
5182.00,0.75
5181.00,0.75
5180.00,0.75
5179.00,0.75
5178.00,0.75
5177.00,0.75
5176.00,0.75
5175.00,0.75
5174.00,0.75
5173.00,0.75
5172.00,0.75
5171.00,0.75
5170.00,0.75
5169.00,0.75
5168.00,0.75
5167.00,0.75
5166.00,0.75
5165.00,0.75
5164.00,0.75
5163.00,0.75
5162.00,0.75
5161.00,0.75
5160.00,0.75
5159.00,0.75
5158.00,0.75
5157.00,0.75
5156.00,0.75
5155.00,0.75
5154.00,0.75
5153.00,0.75
5152.00,0.75
5151.00,0.75
5150.00,0.75
5149.00,0.76
5148.00,0.76
5147.00,0.76
5146.00,0.76
5145.00,0.76
5144.00,0.76
5143.00,0.76
5142.00,0.76
5141.00,0.76
5140.00,0.76
5139.00,0.76
5138.00,0.76
5137.00,0.76
5136.00,0.76
5135.00,0.76
5134.00,0.76
5133.00,0.76
5132.00,0.76
5131.00,0.77
5130.00,0.77
5129.00,0.77
5128.00,0.77
5127.00,0.77
5126.00,0.77
5125.00,0.77
5124.00,0.77
5123.00,0.77
5122.00,0.77
5121.00,0.77
5120.00,0.77
5119.00,0.77
5118.00,0.77
5117.00,0.77
5116.00,0.77
5115.00,0.77
5114.00,0.77
5113.00,0.77
5112.00,0.77
5111.00,0.77
5110.00,0.77
5109.00,0.77
5108.00,0.77
5107.00,0.77
5106.00,0.77
5105.00,0.77
5104.00,0.77
5103.00,0.77
5102.00,0.78
5101.00,0.78
5100.00,0.78
5099.00,0.78
5098.00,0.78
5097.00,0.78
5096.00,0.78
5095.00,0.78
5094.00,0.78
5093.00,0.78
5092.00,0.78
5091.00,0.78
5090.00,0.78
5089.00,0.78
5088.00,0.78
5087.00,0.78
5086.00,0.78
5085.00,0.78
5084.00,0.78
5083.00,0.78
5082.00,0.78
5081.00,0.79
5080.00,0.79
5079.00,0.79
5078.00,0.79
5077.00,0.79
5076.00,0.79
5075.00,0.79
5074.00,0.79
5073.00,0.79
5072.00,0.79
5071.00,0.79
5070.00,0.79
5069.00,0.79
5068.00,0.79
5067.00,0.79
5066.00,0.79
5065.00,0.79
5064.00,0.79
5063.00,0.79
5062.00,0.79
5061.00,0.79
5060.00,0.79
5059.00,0.79
5058.00,0.79
5057.00,0.79
5056.00,0.79
5055.00,0.79
5054.00,0.79
5053.00,0.79
5052.00,0.79
5051.00,0.79
5050.00,0.79
5049.00,0.79
5048.00,0.79
5047.00,0.79
5046.00,0.79
5045.00,0.79
5044.00,0.79
5043.00,0.79
5042.00,0.79
5041.00,0.79
5040.00,0.79
5039.00,0.79
5038.00,0.80
5037.00,0.80
5036.00,0.80
5035.00,0.80
5034.00,0.80
5033.00,0.80
5032.00,0.80
5031.00,0.80
5030.00,0.80
5029.00,0.80
5028.00,0.80
5027.00,0.80
5026.00,0.80
5025.00,0.80
5024.00,0.80
5023.00,0.80
5022.00,0.80
5021.00,0.80
5020.00,0.80
5019.00,0.80
5018.00,0.80
5017.00,0.80
5016.00,0.80
5015.00,0.80
5014.00,0.80
5013.00,0.80
5012.00,0.80
5011.00,0.80
5010.00,0.80
5009.00,0.80
5008.00,0.80
5007.00,0.80
5006.00,0.80
5005.00,0.80
5004.00,0.80
5003.00,0.80
5002.00,0.80
5001.00,0.80
5000.00,0.80
4999.00,0.81
4998.00,0.81
4997.00,0.81
4996.00,0.81
4995.00,0.81
4994.00,0.81
4993.00,0.81
4992.00,0.81
4991.00,0.81
4990.00,0.81
4989.00,0.81
4988.00,0.81
4987.00,0.81
4986.00,0.81
4985.00,0.82
4984.00,0.82
4983.00,0.82
4982.00,0.82
4981.00,0.82
4980.00,0.82
4979.00,0.82
4978.00,0.82
4977.00,0.82
4976.00,0.82
4975.00,0.82
4974.00,0.82
4973.00,0.82
4972.00,0.82
4971.00,0.83
4970.00,0.83
4969.00,0.83
4968.00,0.83
4967.00,0.83
4966.00,0.83
4965.00,0.83
4964.00,0.83
4963.00,0.83
4962.00,0.83
4961.00,0.83
4960.00,0.83
4959.00,0.83
4958.00,0.83
4957.00,0.83
4956.00,0.83
4955.00,0.83
4954.00,0.83
4953.00,0.83
4952.00,0.83
4951.00,0.83
4950.00,0.83
4949.00,0.83
4948.00,0.83
4947.00,0.83
4946.00,0.83
4945.00,0.84
4944.00,0.84
4943.00,0.84
4942.00,0.84
4941.00,0.84
4940.00,0.84
4939.00,0.84
4938.00,0.84
4937.00,0.84
4936.00,0.84
4935.00,0.84
4934.00,0.84
4933.00,0.84
4932.00,0.84
4931.00,0.84
4930.00,0.84
4929.00,0.84
4928.00,0.84
4927.00,0.84
4926.00,0.84
4925.00,0.84
4924.00,0.84
4923.00,0.84
4922.00,0.84
4921.00,0.84
4920.00,0.85
4919.00,0.85
4918.00,0.85
4917.00,0.85
4916.00,0.85
4915.00,0.85
4914.00,0.85
4913.00,0.85
4912.00,0.85
4911.00,0.85
4910.00,0.85
4909.00,0.85
4908.00,0.85
4907.00,0.85
4906.00,0.85
4905.00,0.85
4904.00,0.86
4903.00,0.86
4902.00,0.86
4901.00,0.86
4900.00,0.86
4899.00,0.86
4898.00,0.86
4897.00,0.86
4896.00,0.86
4895.00,0.86
4894.00,0.86
4893.00,0.86
4892.00,0.86
4891.00,0.86
4890.00,0.86
4889.00,0.86
4888.00,0.86
4887.00,0.86
4886.00,0.86
4885.00,0.86
4884.00,0.86
4883.00,0.85
4882.00,0.85
4881.00,0.85
4880.00,0.85
4879.00,0.86
4878.00,0.86
4877.00,0.86
4876.00,0.86
4875.00,0.86
4874.00,0.86
4873.00,0.86
4872.00,0.86
4871.00,0.86
4870.00,0.86
4869.00,0.86
4868.00,0.86
4867.00,0.86
4866.00,0.86
4865.00,0.86
4864.00,0.86
4863.00,0.86
4862.00,0.86
4861.00,0.86
4860.00,0.86
4859.00,0.86
4858.00,0.86
4857.00,0.86
4856.00,0.86
4855.00,0.86
4854.00,0.86
4853.00,0.86
4852.00,0.86
4851.00,0.86
4850.00,0.86
4849.00,0.86
4848.00,0.86
4847.00,0.86
4846.00,0.86
4845.00,0.87
4844.00,0.87
4843.00,0.87
4842.00,0.87
4841.00,0.87
4840.00,0.87
4839.00,0.87
4838.00,0.87
4837.00,0.87
4836.00,0.87
4835.00,0.87
4834.00,0.87
4833.00,0.87
4832.00,0.87
4831.00,0.87
4830.00,0.87
4829.00,0.87
4828.00,0.87
4827.00,0.88
4826.00,0.88
4825.00,0.88
4824.00,0.88
4823.00,0.88
4822.00,0.88
4821.00,0.88
4820.00,0.88
4819.00,0.88
4818.00,0.88
4817.00,0.88
4816.00,0.88
4815.00,0.88
4814.00,0.88
4813.00,0.88
4812.00,0.88
4811.00,0.88
4810.00,0.89
4809.00,0.89
4808.00,0.89
4807.00,0.89
4806.00,0.89
4805.00,0.89
4804.00,0.89
4803.00,0.89
4802.00,0.89
4801.00,0.89
4800.00,0.89
4799.00,0.90
4798.00,0.90
4797.00,0.90
4796.00,0.90
4795.00,0.90
4794.00,0.90
4793.00,0.90
4792.00,0.90
4791.00,0.90
4790.00,0.90
4789.00,0.90
4788.00,0.90
4787.00,0.90
4786.00,0.90
4785.00,0.90
4784.00,0.90
4783.00,0.90
4782.00,0.90
4781.00,0.90
4780.00,0.90
4779.00,0.90
4778.00,0.90
4777.00,0.89
4776.00,0.89
4775.00,0.89
4774.00,0.89
4773.00,0.89
4772.00,0.89
4771.00,0.89
4770.00,0.90
4769.00,0.90
4768.00,0.90
4767.00,0.90
4766.00,0.90
4765.00,0.90
4764.00,0.90
4763.00,0.90
4762.00,0.90
4761.00,0.90
4760.00,0.90
4759.00,0.90
4758.00,0.90
4757.00,0.91
4756.00,0.91
4755.00,0.91
4754.00,0.91
4753.00,0.91
4752.00,0.91
4751.00,0.91
4750.00,0.91
4749.00,0.91
4748.00,0.91
4747.00,0.91
4746.00,0.91
4745.00,0.91
4744.00,0.92
4743.00,0.92
4742.00,0.92
4741.00,0.92
4740.00,0.92
4739.00,0.92
4738.00,0.92
4737.00,0.92
4736.00,0.92
4735.00,0.92
4734.00,0.92
4733.00,0.92
4732.00,0.93
4731.00,0.93
4730.00,0.93
4729.00,0.93
4728.00,0.93
4727.00,0.93
4726.00,0.93
4725.00,0.93
4724.00,0.93
4723.00,0.93
4722.00,0.93
4721.00,0.93
4720.00,0.93
4719.00,0.93
4718.00,0.94
4717.00,0.94
4716.00,0.94
4715.00,0.94
4714.00,0.94
4713.00,0.94
4712.00,0.94
4711.00,0.94
4710.00,0.94
4709.00,0.94
4708.00,0.94
4707.00,0.94
4706.00,0.95
4705.00,0.95
4704.00,0.95
4703.00,0.95
4702.00,0.95
4701.00,0.95
4700.00,0.95
4699.00,0.95
4698.00,0.95
4697.00,0.95
4696.00,0.95
4695.00,0.95
4694.00,0.95
4693.00,0.95
4692.00,0.95
4691.00,0.95
4690.00,0.95
4689.00,0.95
4688.00,0.95
4687.00,0.95
4686.00,0.95
4685.00,0.95
4684.00,0.96
4683.00,0.96
4682.00,0.96
4681.00,0.96
4680.00,0.96
4679.00,0.96
4678.00,0.96
4677.00,0.96
4676.00,0.96
4675.00,0.96
4674.00,0.96
4673.00,0.96
4672.00,0.96
4671.00,0.96
4670.00,0.97
4669.00,0.97
4668.00,0.97
4667.00,0.97
4666.00,0.97
4665.00,0.97
4664.00,0.97
4663.00,0.97
4662.00,0.98
4661.00,0.98
4660.00,0.98
4659.00,0.98
4658.00,0.98
4657.00,0.98
4656.00,0.98
4655.00,0.98
4654.00,0.98
4653.00,0.98
4652.00,0.98
4651.00,0.98
4650.00,0.98
4649.00,0.98
4648.00,0.98
4647.00,0.98
4646.00,0.98
4645.00,0.99
4644.00,0.99
4643.00,0.99
4642.00,0.99
4641.00,0.99
4640.00,0.99
4639.00,0.99
4638.00,0.99
4637.00,0.99
4636.00,0.99
4635.00,0.99
4634.00,0.99
4633.00,0.99
4632.00,0.99
4631.00,0.99
4630.00,0.99
4629.00,0.99
4628.00,0.99
4627.00,0.99
4626.00,0.99
4625.00,0.99
4624.00,0.99
4623.00,0.99
4622.00,0.99
4621.00,0.99
4620.00,0.99
4619.00,0.99
4618.00,0.99
4617.00,0.99
4616.00,0.99
4615.00,0.99
4614.00,0.99
4613.00,0.99
4612.00,0.99
4611.00,0.99
4610.00,0.99
4609.00,0.99
4608.00,0.99
4607.00,0.99
4606.00,0.99
4605.00,0.99
4604.00,0.99
4603.00,0.99
4602.00,0.99
4601.00,1.00
4600.00,1.00
4599.00,1.00
4598.00,1.00
4597.00,1.00
4596.00,1.00
4595.00,1.00
4594.00,1.00
4593.00,1.00
4592.00,1.00
4591.00,1.00
4590.00,1.00
4589.00,1.00
4588.00,1.00
4587.00,1.00
4586.00,1.00
4585.00,1.00
4584.00,1.01
4583.00,1.01
4582.00,1.01
4581.00,1.01
4580.00,1.01
4579.00,1.01
4578.00,1.01
4577.00,1.01
4576.00,1.01
4575.00,1.01
4574.00,1.01
4573.00,1.01
4572.00,1.01
4571.00,1.01
4570.00,1.01
4569.00,1.01
4568.00,1.01
4567.00,1.01
4566.00,1.01
4565.00,1.02
4564.00,1.02
4563.00,1.02
4562.00,1.02
4561.00,1.02
4560.00,1.02
4559.00,1.02
4558.00,1.02
4557.00,1.02
4556.00,1.02
4555.00,1.02
4554.00,1.02
4553.00,1.02
4552.00,1.02
4551.00,1.03
4550.00,1.03
4549.00,1.03
4548.00,1.03
4547.00,1.03
4546.00,1.03
4545.00,1.03
4544.00,1.03
4543.00,1.03
4542.00,1.03
4541.00,1.03
4540.00,1.03
4539.00,1.03
4538.00,1.03
4537.00,1.03
4536.00,1.03
4535.00,1.03
4534.00,1.03
4533.00,1.03
4532.00,1.03
4531.00,1.03
4530.00,1.03
4529.00,1.03
4528.00,1.03
4527.00,1.03
4526.00,1.03
4525.00,1.03
4524.00,1.03
4523.00,1.03
4522.00,1.03
4521.00,1.03
4520.00,1.03
4519.00,1.03
4518.00,1.03
4517.00,1.03
4516.00,1.03
4515.00,1.03
4514.00,1.03
4513.00,1.03
4512.00,1.03
4511.00,1.03
4510.00,1.03
4509.00,1.03
4508.00,1.03
4507.00,1.04
4506.00,1.04
4505.00,1.04
4504.00,1.04
4503.00,1.04
4502.00,1.04
4501.00,1.04
4500.00,1.04
4499.00,1.04
4498.00,1.04
4497.00,1.03
4496.00,1.03
4495.00,1.03
4494.00,1.03
4493.00,1.03
4492.00,1.03
4491.00,1.03
4490.00,1.03
4489.00,1.03
4488.00,1.03
4487.00,1.03
4486.00,1.03
4485.00,1.03
4484.00,1.03
4483.00,1.03
4482.00,1.03
4481.00,1.03
4480.00,1.03
4479.00,1.03
4478.00,1.02
4477.00,1.02
4476.00,1.02
4475.00,1.02
4474.00,1.02
4473.00,1.02
4472.00,1.02
4471.00,1.02
4470.00,1.02
4469.00,1.02
4468.00,1.02
4467.00,1.02
4466.00,1.01
4465.00,1.01
4464.00,1.01
4463.00,1.01
4462.00,1.01
4461.00,1.01
4460.00,1.01
4459.00,1.01
4458.00,1.01
4457.00,1.01
4456.00,1.00
4455.00,1.00
4454.00,1.00
4453.00,1.00
4452.00,1.00
4451.00,1.00
4450.00,1.00
4449.00,1.00
4448.00,1.00
4447.00,1.00
4446.00,1.00
4445.00,1.00
4444.00,1.00
4443.00,1.00
4442.00,0.99
4441.00,0.99
4440.00,0.99
4439.00,0.99
4438.00,0.99
4437.00,0.99
4436.00,0.99
4435.00,0.99
4434.00,0.99
4433.00,0.99
4432.00,0.99
4431.00,0.99
4430.00,0.99
4429.00,0.99
4428.00,0.99
4427.00,0.99
4426.00,0.99
4425.00,1.00
4424.00,1.00
4423.00,1.00
4422.00,1.00
4421.00,1.00
4420.00,1.00
4419.00,1.00
4418.00,1.00
4417.00,1.00
4416.00,1.00
4415.00,1.00
4414.00,1.00
4413.00,1.00
4412.00,1.00
4411.00,1.00
4410.00,1.00
4409.00,1.00
4408.00,1.00
4407.00,1.00
4406.00,1.00
4405.00,1.00
4404.00,1.00
4403.00,1.00
4402.00,1.00
4401.00,1.00
4400.00,1.00
4399.00,1.00
4398.00,1.00
4397.00,1.00
4396.00,1.00
4395.00,1.00
4394.00,1.00
4393.00,1.00
4392.00,1.01
4391.00,1.01
4390.00,1.01
4389.00,1.01
4388.00,1.01
4387.00,1.01
4386.00,1.01
4385.00,1.01
4384.00,1.01
4383.00,1.01
4382.00,1.01
4381.00,1.01
4380.00,1.01
4379.00,1.01
4378.00,1.02
4377.00,1.02
4376.00,1.02
4375.00,1.02
4374.00,1.02
4373.00,1.02
4372.00,1.02
4371.00,1.02
4370.00,1.02
4369.00,1.02
4368.00,1.02
4367.00,1.02
4366.00,1.02
4365.00,1.02
4364.00,1.02
4363.00,1.02
4362.00,1.02
4361.00,1.02
4360.00,1.02
4359.00,1.02
4358.00,1.02
4357.00,1.02
4356.00,1.02
4355.00,1.02
4354.00,1.02
4353.00,1.02
4352.00,1.02
4351.00,1.02
4350.00,1.02
4349.00,1.02
4348.00,1.02
4347.00,1.02
4346.00,1.02
4345.00,1.02
4344.00,1.02
4343.00,1.02
4342.00,1.03
4341.00,1.03
4340.00,1.03
4339.00,1.03
4338.00,1.03
4337.00,1.03
4336.00,1.03
4335.00,1.03
4334.00,1.03
4333.00,1.03
4332.00,1.03
4331.00,1.03
4330.00,1.03
4329.00,1.03
4328.00,1.03
4327.00,1.03
4326.00,1.03
4325.00,1.03
4324.00,1.03
4323.00,1.03
4322.00,1.03
4321.00,1.03
4320.00,1.03
4319.00,1.03
4318.00,1.03
4317.00,1.03
4316.00,1.03
4315.00,1.03
4314.00,1.04
4313.00,1.04
4312.00,1.04
4311.00,1.04
4310.00,1.04
4309.00,1.04
4308.00,1.04
4307.00,1.04
4306.00,1.04
4305.00,1.04
4304.00,1.04
4303.00,1.04
4302.00,1.04
4301.00,1.04
4300.00,1.04
4299.00,1.04
4298.00,1.04
4297.00,1.04
4296.00,1.04
4295.00,1.04
4294.00,1.05
4293.00,1.05
4292.00,1.05
4291.00,1.05
4290.00,1.05
4289.00,1.05
4288.00,1.05
4287.00,1.05
4286.00,1.05
4285.00,1.05
4284.00,1.05
4283.00,1.05
4282.00,1.05
4281.00,1.05
4280.00,1.05
4279.00,1.05
4278.00,1.06
4277.00,1.06
4276.00,1.06
4275.00,1.06
4274.00,1.06
4273.00,1.06
4272.00,1.06
4271.00,1.06
4270.00,1.06
4269.00,1.06
4268.00,1.06
4267.00,1.06
4266.00,1.06
4265.00,1.06
4264.00,1.06
4263.00,1.06
4262.00,1.06
4261.00,1.06
4260.00,1.06
4259.00,1.06
4258.00,1.06
4257.00,1.06
4256.00,1.06
4255.00,1.06
4254.00,1.06
4253.00,1.06
4252.00,1.06
4251.00,1.06
4250.00,1.06
4249.00,1.06
4248.00,1.06
4247.00,1.06
4246.00,1.06
4245.00,1.06
4244.00,1.06
4243.00,1.06
4242.00,1.06
4241.00,1.06
4240.00,1.06
4239.00,1.06
4238.00,1.07
4237.00,1.07
4236.00,1.07
4235.00,1.07
4234.00,1.07
4233.00,1.07
4232.00,1.07
4231.00,1.07
4230.00,1.07
4229.00,1.07
4228.00,1.07
4227.00,1.07
4226.00,1.07
4225.00,1.07
4224.00,1.07
4223.00,1.07
4222.00,1.07
4221.00,1.07
4220.00,1.07
4219.00,1.07
4218.00,1.07
4217.00,1.07
4216.00,1.07
4215.00,1.07
4214.00,1.07
4213.00,1.07
4212.00,1.07
4211.00,1.07
4210.00,1.07
4209.00,1.08
4208.00,1.08
4207.00,1.08
4206.00,1.08
4205.00,1.08
4204.00,1.08
4203.00,1.08
4202.00,1.08
4201.00,1.08
4200.00,1.08
4199.00,1.08
4198.00,1.08
4197.00,1.08
4196.00,1.09
4195.00,1.09
4194.00,1.09
4193.00,1.09
4192.00,1.09
4191.00,1.09
4190.00,1.09
4189.00,1.09
4188.00,1.09
4187.00,1.09
4186.00,1.09
4185.00,1.09
4184.00,1.09
4183.00,1.09
4182.00,1.09
4181.00,1.09
4180.00,1.09
4179.00,1.09
4178.00,1.09
4177.00,1.09
4176.00,1.08
4175.00,1.08
4174.00,1.08
4173.00,1.08
4172.00,1.09
4171.00,1.09
4170.00,1.09
4169.00,1.09
4168.00,1.09
4167.00,1.09
4166.00,1.09
4165.00,1.09
4164.00,1.09
4163.00,1.09
4162.00,1.09
4161.00,1.09
4160.00,1.09
4159.00,1.10
4158.00,1.10
4157.00,1.10
4156.00,1.10
4155.00,1.10
4154.00,1.10
4153.00,1.10
4152.00,1.10
4151.00,1.10
4150.00,1.10
4149.00,1.10
4148.00,1.10
4147.00,1.10
4146.00,1.10
4145.00,1.10
4144.00,1.10
4143.00,1.10
4142.00,1.10
4141.00,1.10
4140.00,1.10
4139.00,1.10
4138.00,1.10
4137.00,1.10
4136.00,1.10
4135.00,1.10
4134.00,1.11
4133.00,1.11
4132.00,1.11
4131.00,1.11
4130.00,1.11
4129.00,1.11
4128.00,1.11
4127.00,1.11
4126.00,1.11
4125.00,1.11
4124.00,1.12
4123.00,1.12
4122.00,1.12
4121.00,1.12
4120.00,1.12
4119.00,1.12
4118.00,1.12
4117.00,1.12
4116.00,1.12
4115.00,1.12
4114.00,1.11
4113.00,1.11
4112.00,1.11
4111.00,1.11
4110.00,1.11
4109.00,1.12
4108.00,1.12
4107.00,1.12
4106.00,1.12
4105.00,1.12
4104.00,1.12
4103.00,1.12
4102.00,1.12
4101.00,1.12
4100.00,1.12
4099.00,1.13
4098.00,1.13
4097.00,1.13
4096.00,1.13
4095.00,1.13
4094.00,1.13
4093.00,1.13
4092.00,1.13
4091.00,1.13
4090.00,1.13
4089.00,1.14
4088.00,1.14
4087.00,1.14
4086.00,1.14
4085.00,1.14
4084.00,1.13
4083.00,1.13
4082.00,1.13
4081.00,1.13
4080.00,1.13
4079.00,1.13
4078.00,1.13
4077.00,1.13
4076.00,1.13
4075.00,1.13
4074.00,1.13
4073.00,1.13
4072.00,1.13
4071.00,1.13
4070.00,1.13
4069.00,1.13
4068.00,1.13
4067.00,1.13
4066.00,1.14
4065.00,1.14
4064.00,1.14
4063.00,1.14
4062.00,1.14
4061.00,1.14
4060.00,1.14
4059.00,1.14
4058.00,1.14
4057.00,1.14
4056.00,1.14
4055.00,1.15
4054.00,1.15
4053.00,1.15
4052.00,1.15
4051.00,1.15
4050.00,1.15
4049.00,1.15
4048.00,1.15
4047.00,1.15
4046.00,1.15
4045.00,1.15
4044.00,1.15
4043.00,1.15
4042.00,1.15
4041.00,1.15
4040.00,1.15
4039.00,1.15
4038.00,1.15
4037.00,1.15
4036.00,1.15
4035.00,1.15
4034.00,1.15
4033.00,1.15
4032.00,1.15
4031.00,1.15
4030.00,1.15
4029.00,1.15
4028.00,1.15
4027.00,1.15
4026.00,1.15
4025.00,1.15
4024.00,1.15
4023.00,1.15
4022.00,1.15
4021.00,1.15
4020.00,1.15
4019.00,1.15
4018.00,1.16
4017.00,1.16
4016.00,1.16
4015.00,1.16
4014.00,1.16
4013.00,1.16
4012.00,1.17
4011.00,1.17
4010.00,1.17
4009.00,1.17
4008.00,1.17
4007.00,1.18
4006.00,1.18
4005.00,1.18
4004.00,1.18
4003.00,1.18
4002.00,1.18
4001.00,1.18
4000.00,1.18
