创建为新数据集,样品 052 用户 Administrator 日期 星期五, 七月 20 2018
cm-1,%T
10000.00,1.71
9999.00,1.71
9998.00,1.71
9997.00,1.71
9996.00,1.70
9995.00,1.70
9994.00,1.70
9993.00,1.70
9992.00,1.70
9991.00,1.70
9990.00,1.70
9989.00,1.70
9988.00,1.70
9987.00,1.69
9986.00,1.69
9985.00,1.69
9984.00,1.69
9983.00,1.69
9982.00,1.69
9981.00,1.69
9980.00,1.68
9979.00,1.68
9978.00,1.68
9977.00,1.68
9976.00,1.68
9975.00,1.68
9974.00,1.68
9973.00,1.68
9972.00,1.68
9971.00,1.69
9970.00,1.69
9969.00,1.69
9968.00,1.69
9967.00,1.69
9966.00,1.69
9965.00,1.69
9964.00,1.69
9963.00,1.69
9962.00,1.69
9961.00,1.69
9960.00,1.70
9959.00,1.70
9958.00,1.70
9957.00,1.70
9956.00,1.70
9955.00,1.70
9954.00,1.70
9953.00,1.70
9952.00,1.70
9951.00,1.70
9950.00,1.70
9949.00,1.70
9948.00,1.70
9947.00,1.70
9946.00,1.70
9945.00,1.70
9944.00,1.70
9943.00,1.70
9942.00,1.70
9941.00,1.70
9940.00,1.70
9939.00,1.70
9938.00,1.70
9937.00,1.70
9936.00,1.69
9935.00,1.69
9934.00,1.69
9933.00,1.69
9932.00,1.69
9931.00,1.69
9930.00,1.68
9929.00,1.68
9928.00,1.68
9927.00,1.68
9926.00,1.68
9925.00,1.68
9924.00,1.68
9923.00,1.68
9922.00,1.69
9921.00,1.69
9920.00,1.69
9919.00,1.69
9918.00,1.69
9917.00,1.69
9916.00,1.69
9915.00,1.69
9914.00,1.69
9913.00,1.69
9912.00,1.69
9911.00,1.69
9910.00,1.69
9909.00,1.69
9908.00,1.69
9907.00,1.69
9906.00,1.69
9905.00,1.69
9904.00,1.68
9903.00,1.68
9902.00,1.68
9901.00,1.68
9900.00,1.68
9899.00,1.68
9898.00,1.68
9897.00,1.68
9896.00,1.68
9895.00,1.68
9894.00,1.68
9893.00,1.68
9892.00,1.68
9891.00,1.68
9890.00,1.67
9889.00,1.67
9888.00,1.67
9887.00,1.67
9886.00,1.66
9885.00,1.66
9884.00,1.66
9883.00,1.66
9882.00,1.66
9881.00,1.66
9880.00,1.65
9879.00,1.65
9878.00,1.65
9877.00,1.65
9876.00,1.66
9875.00,1.66
9874.00,1.66
9873.00,1.66
9872.00,1.66
9871.00,1.66
9870.00,1.67
9869.00,1.67
9868.00,1.67
9867.00,1.67
9866.00,1.67
9865.00,1.67
9864.00,1.67
9863.00,1.67
9862.00,1.68
9861.00,1.68
9860.00,1.68
9859.00,1.68
9858.00,1.68
9857.00,1.68
9856.00,1.68
9855.00,1.68
9854.00,1.68
9853.00,1.69
9852.00,1.69
9851.00,1.69
9850.00,1.69
9849.00,1.69
9848.00,1.70
9847.00,1.70
9846.00,1.70
9845.00,1.70
9844.00,1.70
9843.00,1.71
9842.00,1.71
9841.00,1.71
9840.00,1.71
9839.00,1.70
9838.00,1.70
9837.00,1.70
9836.00,1.70
9835.00,1.70
9834.00,1.69
9833.00,1.69
9832.00,1.69
9831.00,1.69
9830.00,1.68
9829.00,1.68
9828.00,1.68
9827.00,1.68
9826.00,1.68
9825.00,1.67
9824.00,1.67
9823.00,1.67
9822.00,1.67
9821.00,1.67
9820.00,1.67
9819.00,1.67
9818.00,1.67
9817.00,1.67
9816.00,1.67
9815.00,1.66
9814.00,1.66
9813.00,1.66
9812.00,1.66
9811.00,1.66
9810.00,1.66
9809.00,1.65
9808.00,1.65
9807.00,1.65
9806.00,1.65
9805.00,1.65
9804.00,1.64
9803.00,1.64
9802.00,1.64
9801.00,1.64
9800.00,1.64
9799.00,1.64
9798.00,1.64
9797.00,1.64
9796.00,1.64
9795.00,1.64
9794.00,1.64
9793.00,1.64
9792.00,1.65
9791.00,1.65
9790.00,1.65
9789.00,1.66
9788.00,1.66
9787.00,1.66
9786.00,1.67
9785.00,1.67
9784.00,1.68
9783.00,1.68
9782.00,1.68
9781.00,1.69
9780.00,1.69
9779.00,1.69
9778.00,1.70
9777.00,1.70
9776.00,1.70
9775.00,1.70
9774.00,1.71
9773.00,1.71
9772.00,1.71
9771.00,1.71
9770.00,1.71
9769.00,1.71
9768.00,1.70
9767.00,1.70
9766.00,1.70
9765.00,1.70
9764.00,1.70
9763.00,1.69
9762.00,1.69
9761.00,1.69
9760.00,1.69
9759.00,1.68
9758.00,1.68
9757.00,1.68
9756.00,1.68
9755.00,1.67
9754.00,1.67
9753.00,1.67
9752.00,1.67
9751.00,1.66
9750.00,1.66
9749.00,1.66
9748.00,1.66
9747.00,1.66
9746.00,1.66
9745.00,1.65
9744.00,1.65
9743.00,1.65
9742.00,1.65
9741.00,1.65
9740.00,1.65
9739.00,1.65
9738.00,1.65
9737.00,1.65
9736.00,1.65
9735.00,1.65
9734.00,1.64
9733.00,1.64
9732.00,1.64
9731.00,1.64
9730.00,1.64
9729.00,1.64
9728.00,1.64
9727.00,1.64
9726.00,1.64
9725.00,1.64
9724.00,1.64
9723.00,1.64
9722.00,1.64
9721.00,1.65
9720.00,1.65
9719.00,1.65
9718.00,1.65
9717.00,1.65
9716.00,1.66
9715.00,1.66
9714.00,1.66
9713.00,1.66
9712.00,1.67
9711.00,1.67
9710.00,1.67
9709.00,1.67
9708.00,1.67
9707.00,1.68
9706.00,1.68
9705.00,1.68
9704.00,1.68
9703.00,1.68
9702.00,1.68
9701.00,1.68
9700.00,1.68
9699.00,1.68
9698.00,1.68
9697.00,1.68
9696.00,1.68
9695.00,1.68
9694.00,1.68
9693.00,1.68
9692.00,1.67
9691.00,1.67
9690.00,1.67
9689.00,1.67
9688.00,1.67
9687.00,1.67
9686.00,1.67
9685.00,1.67
9684.00,1.67
9683.00,1.67
9682.00,1.67
9681.00,1.67
9680.00,1.67
9679.00,1.67
9678.00,1.67
9677.00,1.67
9676.00,1.67
9675.00,1.68
9674.00,1.68
9673.00,1.68
9672.00,1.68
9671.00,1.69
9670.00,1.69
9669.00,1.69
9668.00,1.69
9667.00,1.69
9666.00,1.70
9665.00,1.70
9664.00,1.70
9663.00,1.69
9662.00,1.69
9661.00,1.69
9660.00,1.69
9659.00,1.68
9658.00,1.68
9657.00,1.68
9656.00,1.67
9655.00,1.67
9654.00,1.66
9653.00,1.66
9652.00,1.66
9651.00,1.65
9650.00,1.65
9649.00,1.65
9648.00,1.64
9647.00,1.64
9646.00,1.64
9645.00,1.64
9644.00,1.64
9643.00,1.64
9642.00,1.64
9641.00,1.64
9640.00,1.64
9639.00,1.64
9638.00,1.64
9637.00,1.65
9636.00,1.65
9635.00,1.65
9634.00,1.65
9633.00,1.65
9632.00,1.66
9631.00,1.66
9630.00,1.66
9629.00,1.66
9628.00,1.66
9627.00,1.66
9626.00,1.67
9625.00,1.67
9624.00,1.67
9623.00,1.67
9622.00,1.67
9621.00,1.67
9620.00,1.67
9619.00,1.67
9618.00,1.67
9617.00,1.67
9616.00,1.67
9615.00,1.67
9614.00,1.67
9613.00,1.67
9612.00,1.67
9611.00,1.67
9610.00,1.67
9609.00,1.67
9608.00,1.67
9607.00,1.67
9606.00,1.67
9605.00,1.67
9604.00,1.66
9603.00,1.66
9602.00,1.66
9601.00,1.66
9600.00,1.66
9599.00,1.66
9598.00,1.66
9597.00,1.66
9596.00,1.66
9595.00,1.66
9594.00,1.66
9593.00,1.66
9592.00,1.67
9591.00,1.67
9590.00,1.67
9589.00,1.67
9588.00,1.67
9587.00,1.67
9586.00,1.67
9585.00,1.67
9584.00,1.68
9583.00,1.68
9582.00,1.68
9581.00,1.68
9580.00,1.68
9579.00,1.68
9578.00,1.68
9577.00,1.68
9576.00,1.68
9575.00,1.68
9574.00,1.68
9573.00,1.67
9572.00,1.67
9571.00,1.67
9570.00,1.67
9569.00,1.67
9568.00,1.67
9567.00,1.67
9566.00,1.66
9565.00,1.66
9564.00,1.66
9563.00,1.66
9562.00,1.66
9561.00,1.66
9560.00,1.66
9559.00,1.67
9558.00,1.67
9557.00,1.67
9556.00,1.67
9555.00,1.67
9554.00,1.67
9553.00,1.67
9552.00,1.68
9551.00,1.68
9550.00,1.68
9549.00,1.68
9548.00,1.68
9547.00,1.68
9546.00,1.68
9545.00,1.68
9544.00,1.68
9543.00,1.67
9542.00,1.67
9541.00,1.67
9540.00,1.67
9539.00,1.67
9538.00,1.67
9537.00,1.67
9536.00,1.66
9535.00,1.66
9534.00,1.66
9533.00,1.66
9532.00,1.66
9531.00,1.66
9530.00,1.66
9529.00,1.66
9528.00,1.66
9527.00,1.65
9526.00,1.65
9525.00,1.65
9524.00,1.65
9523.00,1.65
9522.00,1.65
9521.00,1.65
9520.00,1.65
9519.00,1.65
9518.00,1.65
9517.00,1.65
9516.00,1.65
9515.00,1.65
9514.00,1.65
9513.00,1.65
9512.00,1.65
9511.00,1.66
9510.00,1.66
9509.00,1.66
9508.00,1.66
9507.00,1.66
9506.00,1.66
9505.00,1.66
9504.00,1.66
9503.00,1.66
9502.00,1.66
9501.00,1.67
9500.00,1.67
9499.00,1.67
9498.00,1.67
9497.00,1.67
9496.00,1.67
9495.00,1.67
9494.00,1.67
9493.00,1.67
9492.00,1.67
9491.00,1.67
9490.00,1.67
9489.00,1.67
9488.00,1.68
9487.00,1.68
9486.00,1.68
9485.00,1.68
9484.00,1.68
9483.00,1.68
9482.00,1.68
9481.00,1.69
9480.00,1.69
9479.00,1.69
9478.00,1.69
9477.00,1.69
9476.00,1.69
9475.00,1.69
9474.00,1.69
9473.00,1.69
9472.00,1.69
9471.00,1.69
9470.00,1.69
9469.00,1.69
9468.00,1.69
9467.00,1.69
9466.00,1.68
9465.00,1.68
9464.00,1.68
9463.00,1.68
9462.00,1.68
9461.00,1.67
9460.00,1.67
9459.00,1.67
9458.00,1.66
9457.00,1.66
9456.00,1.66
9455.00,1.66
9454.00,1.66
9453.00,1.66
9452.00,1.66
9451.00,1.66
9450.00,1.66
9449.00,1.66
9448.00,1.66
9447.00,1.66
9446.00,1.66
9445.00,1.67
9444.00,1.67
9443.00,1.67
9442.00,1.67
9441.00,1.68
9440.00,1.68
9439.00,1.68
9438.00,1.68
9437.00,1.68
9436.00,1.68
9435.00,1.68
9434.00,1.68
9433.00,1.68
9432.00,1.68
9431.00,1.67
9430.00,1.67
9429.00,1.67
9428.00,1.66
9427.00,1.66
9426.00,1.66
9425.00,1.66
9424.00,1.65
9423.00,1.65
9422.00,1.65
9421.00,1.65
9420.00,1.64
9419.00,1.64
9418.00,1.64
9417.00,1.64
9416.00,1.64
9415.00,1.64
9414.00,1.64
9413.00,1.64
9412.00,1.64
9411.00,1.64
9410.00,1.64
9409.00,1.64
9408.00,1.64
9407.00,1.64
9406.00,1.65
9405.00,1.65
9404.00,1.65
9403.00,1.65
9402.00,1.65
9401.00,1.65
9400.00,1.65
9399.00,1.66
9398.00,1.66
9397.00,1.66
9396.00,1.66
9395.00,1.66
9394.00,1.66
9393.00,1.66
9392.00,1.66
9391.00,1.66
9390.00,1.66
9389.00,1.66
9388.00,1.66
9387.00,1.66
9386.00,1.66
9385.00,1.66
9384.00,1.66
9383.00,1.66
9382.00,1.66
9381.00,1.66
9380.00,1.66
9379.00,1.66
9378.00,1.66
9377.00,1.66
9376.00,1.66
9375.00,1.66
9374.00,1.66
9373.00,1.66
9372.00,1.67
9371.00,1.67
9370.00,1.67
9369.00,1.67
9368.00,1.67
9367.00,1.67
9366.00,1.68
9365.00,1.68
9364.00,1.68
9363.00,1.68
9362.00,1.68
9361.00,1.68
9360.00,1.68
9359.00,1.68
9358.00,1.68
9357.00,1.68
9356.00,1.68
9355.00,1.68
9354.00,1.68
9353.00,1.68
9352.00,1.68
9351.00,1.68
9350.00,1.68
9349.00,1.68
9348.00,1.68
9347.00,1.68
9346.00,1.68
9345.00,1.68
9344.00,1.68
9343.00,1.68
9342.00,1.68
9341.00,1.68
9340.00,1.69
9339.00,1.69
9338.00,1.69
9337.00,1.69
9336.00,1.69
9335.00,1.69
9334.00,1.69
9333.00,1.69
9332.00,1.69
9331.00,1.69
9330.00,1.69
9329.00,1.69
9328.00,1.69
9327.00,1.69
9326.00,1.69
9325.00,1.69
9324.00,1.69
9323.00,1.69
9322.00,1.69
9321.00,1.69
9320.00,1.69
9319.00,1.69
9318.00,1.69
9317.00,1.69
9316.00,1.69
9315.00,1.69
9314.00,1.69
9313.00,1.69
9312.00,1.69
9311.00,1.69
9310.00,1.69
9309.00,1.69
9308.00,1.69
9307.00,1.69
9306.00,1.69
9305.00,1.69
9304.00,1.69
9303.00,1.69
9302.00,1.69
9301.00,1.69
9300.00,1.69
9299.00,1.69
9298.00,1.69
9297.00,1.69
9296.00,1.69
9295.00,1.68
9294.00,1.68
9293.00,1.68
9292.00,1.68
9291.00,1.68
9290.00,1.68
9289.00,1.68
9288.00,1.68
9287.00,1.68
9286.00,1.68
9285.00,1.68
9284.00,1.68
9283.00,1.68
9282.00,1.68
9281.00,1.68
9280.00,1.68
9279.00,1.68
9278.00,1.68
9277.00,1.68
9276.00,1.68
9275.00,1.68
9274.00,1.68
9273.00,1.68
9272.00,1.68
9271.00,1.68
9270.00,1.68
9269.00,1.68
9268.00,1.68
9267.00,1.68
9266.00,1.68
9265.00,1.68
9264.00,1.68
9263.00,1.68
9262.00,1.68
9261.00,1.68
9260.00,1.68
9259.00,1.68
9258.00,1.68
9257.00,1.68
9256.00,1.68
9255.00,1.68
9254.00,1.68
9253.00,1.68
9252.00,1.68
9251.00,1.68
9250.00,1.68
9249.00,1.68
9248.00,1.68
9247.00,1.68
9246.00,1.68
9245.00,1.68
9244.00,1.68
9243.00,1.68
9242.00,1.68
9241.00,1.68
9240.00,1.68
9239.00,1.68
9238.00,1.68
9237.00,1.68
9236.00,1.68
9235.00,1.68
9234.00,1.68
9233.00,1.68
9232.00,1.68
9231.00,1.68
9230.00,1.68
9229.00,1.68
9228.00,1.68
9227.00,1.67
9226.00,1.67
9225.00,1.67
9224.00,1.67
9223.00,1.67
9222.00,1.67
9221.00,1.67
9220.00,1.67
9219.00,1.67
9218.00,1.67
9217.00,1.67
9216.00,1.68
9215.00,1.68
9214.00,1.68
9213.00,1.68
9212.00,1.68
9211.00,1.68
9210.00,1.68
9209.00,1.68
9208.00,1.68
9207.00,1.68
9206.00,1.68
9205.00,1.68
9204.00,1.68
9203.00,1.68
9202.00,1.68
9201.00,1.68
9200.00,1.68
9199.00,1.68
9198.00,1.67
9197.00,1.67
9196.00,1.67
9195.00,1.67
9194.00,1.67
9193.00,1.67
9192.00,1.67
9191.00,1.67
9190.00,1.67
9189.00,1.66
9188.00,1.66
9187.00,1.66
9186.00,1.66
9185.00,1.66
9184.00,1.66
9183.00,1.66
9182.00,1.66
9181.00,1.66
9180.00,1.66
9179.00,1.66
9178.00,1.66
9177.00,1.67
9176.00,1.67
9175.00,1.67
9174.00,1.67
9173.00,1.67
9172.00,1.67
9171.00,1.68
9170.00,1.68
9169.00,1.68
9168.00,1.68
9167.00,1.68
9166.00,1.68
9165.00,1.68
9164.00,1.68
9163.00,1.68
9162.00,1.68
9161.00,1.68
9160.00,1.68
9159.00,1.68
9158.00,1.68
9157.00,1.68
9156.00,1.68
9155.00,1.68
9154.00,1.67
9153.00,1.67
9152.00,1.67
9151.00,1.67
9150.00,1.67
9149.00,1.67
9148.00,1.67
9147.00,1.67
9146.00,1.68
9145.00,1.68
9144.00,1.68
9143.00,1.68
9142.00,1.68
9141.00,1.68
9140.00,1.68
9139.00,1.68
9138.00,1.68
9137.00,1.68
9136.00,1.68
9135.00,1.68
9134.00,1.68
9133.00,1.68
9132.00,1.68
9131.00,1.68
9130.00,1.68
9129.00,1.68
9128.00,1.68
9127.00,1.68
9126.00,1.68
9125.00,1.68
9124.00,1.68
9123.00,1.68
9122.00,1.68
9121.00,1.68
9120.00,1.68
9119.00,1.68
9118.00,1.68
9117.00,1.68
9116.00,1.68
9115.00,1.68
9114.00,1.68
9113.00,1.68
9112.00,1.68
9111.00,1.68
9110.00,1.68
9109.00,1.68
9108.00,1.67
9107.00,1.67
9106.00,1.67
9105.00,1.67
9104.00,1.67
9103.00,1.67
9102.00,1.67
9101.00,1.67
9100.00,1.67
9099.00,1.67
9098.00,1.67
9097.00,1.67
9096.00,1.67
9095.00,1.67
9094.00,1.67
9093.00,1.67
9092.00,1.68
9091.00,1.68
9090.00,1.68
9089.00,1.68
9088.00,1.68
9087.00,1.68
9086.00,1.68
9085.00,1.68
9084.00,1.68
9083.00,1.68
9082.00,1.68
9081.00,1.68
9080.00,1.68
9079.00,1.68
9078.00,1.68
9077.00,1.68
9076.00,1.68
9075.00,1.68
9074.00,1.68
9073.00,1.68
9072.00,1.69
9071.00,1.69
9070.00,1.69
9069.00,1.69
9068.00,1.69
9067.00,1.69
9066.00,1.69
9065.00,1.69
9064.00,1.69
9063.00,1.69
9062.00,1.69
9061.00,1.68
9060.00,1.68
9059.00,1.68
9058.00,1.68
9057.00,1.68
9056.00,1.68
9055.00,1.68
9054.00,1.68
9053.00,1.68
9052.00,1.68
9051.00,1.68
9050.00,1.69
9049.00,1.69
9048.00,1.69
9047.00,1.69
9046.00,1.69
9045.00,1.69
9044.00,1.69
9043.00,1.69
9042.00,1.69
9041.00,1.69
9040.00,1.69
9039.00,1.69
9038.00,1.69
9037.00,1.69
9036.00,1.69
9035.00,1.69
9034.00,1.69
9033.00,1.69
9032.00,1.69
9031.00,1.69
9030.00,1.69
9029.00,1.69
9028.00,1.69
9027.00,1.69
9026.00,1.69
9025.00,1.69
9024.00,1.69
9023.00,1.68
9022.00,1.68
9021.00,1.68
9020.00,1.68
9019.00,1.68
9018.00,1.68
9017.00,1.67
9016.00,1.67
9015.00,1.67
9014.00,1.67
9013.00,1.67
9012.00,1.67
9011.00,1.67
9010.00,1.66
9009.00,1.66
9008.00,1.66
9007.00,1.66
9006.00,1.66
9005.00,1.67
9004.00,1.67
9003.00,1.67
9002.00,1.67
9001.00,1.67
9000.00,1.67
8999.00,1.67
8998.00,1.67
8997.00,1.68
8996.00,1.68
8995.00,1.68
8994.00,1.68
8993.00,1.68
8992.00,1.68
8991.00,1.68
8990.00,1.68
8989.00,1.68
8988.00,1.68
8987.00,1.68
8986.00,1.68
8985.00,1.68
8984.00,1.68
8983.00,1.68
8982.00,1.68
8981.00,1.68
8980.00,1.68
8979.00,1.67
8978.00,1.67
8977.00,1.67
8976.00,1.67
8975.00,1.67
8974.00,1.67
8973.00,1.67
8972.00,1.67
8971.00,1.67
8970.00,1.67
8969.00,1.67
8968.00,1.67
8967.00,1.68
8966.00,1.68
8965.00,1.68
8964.00,1.68
8963.00,1.68
8962.00,1.68
8961.00,1.68
8960.00,1.68
8959.00,1.68
8958.00,1.67
8957.00,1.67
8956.00,1.67
8955.00,1.67
8954.00,1.67
8953.00,1.67
8952.00,1.67
8951.00,1.67
8950.00,1.67
8949.00,1.67
8948.00,1.67
8947.00,1.67
8946.00,1.67
8945.00,1.67
8944.00,1.68
8943.00,1.68
8942.00,1.68
8941.00,1.68
8940.00,1.68
8939.00,1.68
8938.00,1.68
8937.00,1.68
8936.00,1.68
8935.00,1.69
8934.00,1.69
8933.00,1.69
8932.00,1.69
8931.00,1.69
8930.00,1.69
8929.00,1.69
8928.00,1.69
8927.00,1.69
8926.00,1.69
8925.00,1.69
8924.00,1.69
8923.00,1.68
8922.00,1.68
8921.00,1.68
8920.00,1.68
8919.00,1.68
8918.00,1.68
8917.00,1.68
8916.00,1.68
8915.00,1.68
8914.00,1.68
8913.00,1.68
8912.00,1.68
8911.00,1.68
8910.00,1.68
8909.00,1.68
8908.00,1.68
8907.00,1.68
8906.00,1.68
8905.00,1.68
8904.00,1.68
8903.00,1.68
8902.00,1.68
8901.00,1.68
8900.00,1.68
8899.00,1.68
8898.00,1.68
8897.00,1.69
8896.00,1.69
8895.00,1.69
8894.00,1.69
8893.00,1.69
8892.00,1.69
8891.00,1.69
8890.00,1.70
8889.00,1.70
8888.00,1.70
8887.00,1.70
8886.00,1.70
8885.00,1.70
8884.00,1.70
8883.00,1.70
8882.00,1.70
8881.00,1.70
8880.00,1.70
8879.00,1.70
8878.00,1.70
8877.00,1.70
8876.00,1.70
8875.00,1.70
8874.00,1.70
8873.00,1.70
8872.00,1.69
8871.00,1.69
8870.00,1.69
8869.00,1.69
8868.00,1.69
8867.00,1.69
8866.00,1.68
8865.00,1.68
8864.00,1.68
8863.00,1.68
8862.00,1.68
8861.00,1.68
8860.00,1.68
8859.00,1.68
8858.00,1.68
8857.00,1.68
8856.00,1.69
8855.00,1.69
8854.00,1.69
8853.00,1.69
8852.00,1.69
8851.00,1.69
8850.00,1.69
8849.00,1.70
8848.00,1.70
8847.00,1.70
8846.00,1.70
8845.00,1.70
8844.00,1.70
8843.00,1.70
8842.00,1.70
8841.00,1.70
8840.00,1.70
8839.00,1.70
8838.00,1.70
8837.00,1.70
8836.00,1.70
8835.00,1.70
8834.00,1.70
8833.00,1.70
8832.00,1.70
8831.00,1.69
8830.00,1.69
8829.00,1.69
8828.00,1.69
8827.00,1.69
8826.00,1.68
8825.00,1.68
8824.00,1.68
8823.00,1.68
8822.00,1.67
8821.00,1.67
8820.00,1.67
8819.00,1.67
8818.00,1.67
8817.00,1.67
8816.00,1.67
8815.00,1.67
8814.00,1.67
8813.00,1.67
8812.00,1.67
8811.00,1.67
8810.00,1.67
8809.00,1.67
8808.00,1.67
8807.00,1.67
8806.00,1.68
8805.00,1.68
8804.00,1.68
8803.00,1.68
8802.00,1.68
8801.00,1.68
8800.00,1.68
8799.00,1.68
8798.00,1.67
8797.00,1.67
8796.00,1.67
8795.00,1.67
8794.00,1.67
8793.00,1.67
8792.00,1.67
8791.00,1.67
8790.00,1.66
8789.00,1.66
8788.00,1.66
8787.00,1.66
8786.00,1.66
8785.00,1.66
8784.00,1.66
8783.00,1.66
8782.00,1.66
8781.00,1.66
8780.00,1.66
8779.00,1.66
8778.00,1.66
8777.00,1.66
8776.00,1.66
8775.00,1.66
8774.00,1.66
8773.00,1.66
8772.00,1.66
8771.00,1.66
8770.00,1.66
8769.00,1.66
8768.00,1.66
8767.00,1.66
8766.00,1.66
8765.00,1.66
8764.00,1.66
8763.00,1.66
8762.00,1.66
8761.00,1.66
8760.00,1.66
8759.00,1.66
8758.00,1.66
8757.00,1.65
8756.00,1.65
8755.00,1.65
8754.00,1.65
8753.00,1.65
8752.00,1.65
8751.00,1.65
8750.00,1.65
8749.00,1.65
8748.00,1.65
8747.00,1.65
8746.00,1.65
8745.00,1.65
8744.00,1.65
8743.00,1.65
8742.00,1.65
8741.00,1.65
8740.00,1.65
8739.00,1.65
8738.00,1.65
8737.00,1.65
8736.00,1.65
8735.00,1.65
8734.00,1.65
8733.00,1.64
8732.00,1.64
8731.00,1.64
8730.00,1.64
8729.00,1.64
8728.00,1.64
8727.00,1.64
8726.00,1.64
8725.00,1.63
8724.00,1.63
8723.00,1.63
8722.00,1.64
8721.00,1.64
8720.00,1.64
8719.00,1.64
8718.00,1.64
8717.00,1.64
8716.00,1.64
8715.00,1.64
8714.00,1.65
8713.00,1.65
8712.00,1.65
8711.00,1.65
8710.00,1.65
8709.00,1.65
8708.00,1.65
8707.00,1.65
8706.00,1.65
8705.00,1.65
8704.00,1.65
8703.00,1.64
8702.00,1.64
8701.00,1.64
8700.00,1.64
8699.00,1.64
8698.00,1.64
8697.00,1.64
8696.00,1.64
8695.00,1.64
8694.00,1.64
8693.00,1.63
8692.00,1.63
8691.00,1.63
8690.00,1.63
8689.00,1.63
8688.00,1.63
8687.00,1.63
8686.00,1.63
8685.00,1.63
8684.00,1.63
8683.00,1.63
8682.00,1.63
8681.00,1.63
8680.00,1.63
8679.00,1.63
8678.00,1.63
8677.00,1.63
8676.00,1.63
8675.00,1.63
8674.00,1.63
8673.00,1.63
8672.00,1.63
8671.00,1.63
8670.00,1.63
8669.00,1.63
8668.00,1.63
8667.00,1.63
8666.00,1.63
8665.00,1.63
8664.00,1.63
8663.00,1.63
8662.00,1.63
8661.00,1.63
8660.00,1.63
8659.00,1.63
8658.00,1.63
8657.00,1.63
8656.00,1.63
8655.00,1.63
8654.00,1.63
8653.00,1.63
8652.00,1.63
8651.00,1.63
8650.00,1.63
8649.00,1.63
8648.00,1.63
8647.00,1.63
8646.00,1.63
8645.00,1.63
8644.00,1.63
8643.00,1.63
8642.00,1.63
8641.00,1.63
8640.00,1.64
8639.00,1.64
8638.00,1.64
8637.00,1.64
8636.00,1.64
8635.00,1.64
8634.00,1.64
8633.00,1.64
8632.00,1.64
8631.00,1.64
8630.00,1.64
8629.00,1.64
8628.00,1.64
8627.00,1.64
8626.00,1.64
8625.00,1.63
8624.00,1.63
8623.00,1.63
8622.00,1.63
8621.00,1.63
8620.00,1.63
8619.00,1.63
8618.00,1.63
8617.00,1.63
8616.00,1.63
8615.00,1.63
8614.00,1.63
8613.00,1.63
8612.00,1.62
8611.00,1.62
8610.00,1.62
8609.00,1.62
8608.00,1.62
8607.00,1.62
8606.00,1.62
8605.00,1.62
8604.00,1.62
8603.00,1.62
8602.00,1.62
8601.00,1.62
8600.00,1.62
8599.00,1.62
8598.00,1.62
8597.00,1.62
8596.00,1.62
8595.00,1.62
8594.00,1.62
8593.00,1.62
8592.00,1.62
8591.00,1.62
8590.00,1.62
8589.00,1.63
8588.00,1.63
8587.00,1.63
8586.00,1.63
8585.00,1.63
8584.00,1.63
8583.00,1.63
8582.00,1.63
8581.00,1.63
8580.00,1.63
8579.00,1.63
8578.00,1.63
8577.00,1.63
8576.00,1.63
8575.00,1.62
8574.00,1.62
8573.00,1.62
8572.00,1.62
8571.00,1.61
8570.00,1.61
8569.00,1.61
8568.00,1.60
8567.00,1.60
8566.00,1.60
8565.00,1.59
8564.00,1.59
8563.00,1.59
8562.00,1.59
8561.00,1.58
8560.00,1.58
8559.00,1.58
8558.00,1.58
8557.00,1.58
8556.00,1.58
8555.00,1.58
8554.00,1.58
8553.00,1.59
8552.00,1.59
8551.00,1.59
8550.00,1.59
8549.00,1.59
8548.00,1.59
8547.00,1.59
8546.00,1.59
8545.00,1.60
8544.00,1.60
8543.00,1.60
8542.00,1.60
8541.00,1.60
8540.00,1.60
8539.00,1.60
8538.00,1.60
8537.00,1.60
8536.00,1.60
8535.00,1.60
8534.00,1.60
8533.00,1.60
8532.00,1.60
8531.00,1.60
8530.00,1.59
8529.00,1.59
8528.00,1.59
8527.00,1.59
8526.00,1.59
8525.00,1.59
8524.00,1.59
8523.00,1.59
8522.00,1.59
8521.00,1.59
8520.00,1.59
8519.00,1.59
8518.00,1.59
8517.00,1.59
8516.00,1.59
8515.00,1.59
8514.00,1.59
8513.00,1.59
8512.00,1.59
8511.00,1.60
8510.00,1.60
8509.00,1.60
8508.00,1.60
8507.00,1.60
8506.00,1.60
8505.00,1.60
8504.00,1.59
8503.00,1.59
8502.00,1.59
8501.00,1.59
8500.00,1.59
8499.00,1.59
8498.00,1.59
8497.00,1.59
8496.00,1.59
8495.00,1.59
8494.00,1.58
8493.00,1.58
8492.00,1.58
8491.00,1.58
8490.00,1.58
8489.00,1.58
8488.00,1.58
8487.00,1.58
8486.00,1.58
8485.00,1.58
8484.00,1.58
8483.00,1.58
8482.00,1.58
8481.00,1.57
8480.00,1.57
8479.00,1.57
8478.00,1.57
8477.00,1.57
8476.00,1.57
8475.00,1.57
8474.00,1.57
8473.00,1.56
8472.00,1.56
8471.00,1.56
8470.00,1.56
8469.00,1.56
8468.00,1.56
8467.00,1.55
8466.00,1.55
8465.00,1.55
8464.00,1.55
8463.00,1.55
8462.00,1.55
8461.00,1.55
8460.00,1.55
8459.00,1.55
8458.00,1.54
8457.00,1.54
8456.00,1.54
8455.00,1.54
8454.00,1.54
8453.00,1.54
8452.00,1.55
8451.00,1.55
8450.00,1.55
8449.00,1.55
8448.00,1.55
8447.00,1.55
8446.00,1.55
8445.00,1.55
8444.00,1.55
8443.00,1.55
8442.00,1.55
8441.00,1.55
8440.00,1.55
8439.00,1.55
8438.00,1.55
8437.00,1.55
8436.00,1.55
8435.00,1.55
8434.00,1.55
8433.00,1.55
8432.00,1.55
8431.00,1.55
8430.00,1.55
8429.00,1.55
8428.00,1.55
8427.00,1.55
8426.00,1.55
8425.00,1.55
8424.00,1.55
8423.00,1.55
8422.00,1.56
8421.00,1.56
8420.00,1.56
8419.00,1.56
8418.00,1.56
8417.00,1.56
8416.00,1.56
8415.00,1.56
8414.00,1.56
8413.00,1.56
8412.00,1.56
8411.00,1.56
8410.00,1.56
8409.00,1.56
8408.00,1.56
8407.00,1.56
8406.00,1.56
8405.00,1.56
8404.00,1.56
8403.00,1.56
8402.00,1.56
8401.00,1.56
8400.00,1.57
8399.00,1.57
8398.00,1.57
8397.00,1.57
8396.00,1.57
8395.00,1.57
8394.00,1.57
8393.00,1.58
8392.00,1.58
8391.00,1.58
8390.00,1.58
8389.00,1.58
8388.00,1.58
8387.00,1.58
8386.00,1.58
8385.00,1.58
8384.00,1.58
8383.00,1.58
8382.00,1.58
8381.00,1.58
8380.00,1.58
8379.00,1.58
8378.00,1.58
8377.00,1.59
8376.00,1.59
8375.00,1.59
8374.00,1.59
8373.00,1.59
8372.00,1.59
8371.00,1.59
8370.00,1.59
8369.00,1.59
8368.00,1.59
8367.00,1.59
8366.00,1.59
8365.00,1.60
8364.00,1.60
8363.00,1.60
8362.00,1.60
8361.00,1.60
8360.00,1.60
8359.00,1.60
8358.00,1.60
8357.00,1.60
8356.00,1.60
8355.00,1.60
8354.00,1.60
8353.00,1.60
8352.00,1.60
8351.00,1.60
8350.00,1.60
8349.00,1.60
8348.00,1.60
8347.00,1.60
8346.00,1.60
8345.00,1.60
8344.00,1.60
8343.00,1.60
8342.00,1.60
8341.00,1.60
8340.00,1.60
8339.00,1.60
8338.00,1.59
8337.00,1.59
8336.00,1.59
8335.00,1.59
8334.00,1.59
8333.00,1.59
8332.00,1.59
8331.00,1.59
8330.00,1.59
8329.00,1.59
8328.00,1.59
8327.00,1.59
8326.00,1.59
8325.00,1.59
8324.00,1.59
8323.00,1.59
8322.00,1.60
8321.00,1.60
8320.00,1.60
8319.00,1.60
8318.00,1.60
8317.00,1.60
8316.00,1.60
8315.00,1.60
8314.00,1.60
8313.00,1.60
8312.00,1.60
8311.00,1.60
8310.00,1.60
8309.00,1.60
8308.00,1.60
8307.00,1.61
8306.00,1.61
8305.00,1.61
8304.00,1.61
8303.00,1.61
8302.00,1.61
8301.00,1.61
8300.00,1.61
8299.00,1.61
8298.00,1.61
8297.00,1.61
8296.00,1.61
8295.00,1.61
8294.00,1.61
8293.00,1.61
8292.00,1.61
8291.00,1.61
8290.00,1.61
8289.00,1.61
8288.00,1.61
8287.00,1.61
8286.00,1.61
8285.00,1.61
8284.00,1.60
8283.00,1.60
8282.00,1.60
8281.00,1.60
8280.00,1.60
8279.00,1.60
8278.00,1.60
8277.00,1.60
8276.00,1.60
8275.00,1.60
8274.00,1.60
8273.00,1.60
8272.00,1.60
8271.00,1.60
8270.00,1.60
8269.00,1.60
8268.00,1.60
8267.00,1.60
8266.00,1.60
8265.00,1.60
8264.00,1.60
8263.00,1.60
8262.00,1.61
8261.00,1.61
8260.00,1.61
8259.00,1.61
8258.00,1.61
8257.00,1.61
8256.00,1.61
8255.00,1.61
8254.00,1.61
8253.00,1.61
8252.00,1.61
8251.00,1.62
8250.00,1.62
8249.00,1.62
8248.00,1.62
8247.00,1.62
8246.00,1.62
8245.00,1.62
8244.00,1.62
8243.00,1.62
8242.00,1.62
8241.00,1.62
8240.00,1.62
8239.00,1.62
8238.00,1.62
8237.00,1.62
8236.00,1.62
8235.00,1.62
8234.00,1.62
8233.00,1.62
8232.00,1.62
8231.00,1.62
8230.00,1.62
8229.00,1.62
8228.00,1.62
8227.00,1.62
8226.00,1.62
8225.00,1.62
8224.00,1.62
8223.00,1.62
8222.00,1.62
8221.00,1.62
8220.00,1.62
8219.00,1.62
8218.00,1.62
8217.00,1.62
8216.00,1.62
8215.00,1.62
8214.00,1.62
8213.00,1.62
8212.00,1.62
8211.00,1.62
8210.00,1.62
8209.00,1.62
8208.00,1.62
8207.00,1.62
8206.00,1.62
8205.00,1.62
8204.00,1.62
8203.00,1.62
8202.00,1.61
8201.00,1.61
8200.00,1.61
8199.00,1.61
8198.00,1.62
8197.00,1.62
8196.00,1.62
8195.00,1.62
8194.00,1.62
8193.00,1.62
8192.00,1.62
8191.00,1.62
8190.00,1.62
8189.00,1.62
8188.00,1.62
8187.00,1.62
8186.00,1.62
8185.00,1.62
8184.00,1.62
8183.00,1.62
8182.00,1.62
8181.00,1.62
8180.00,1.62
8179.00,1.62
8178.00,1.62
8177.00,1.62
8176.00,1.62
8175.00,1.62
8174.00,1.62
8173.00,1.62
8172.00,1.62
8171.00,1.62
8170.00,1.63
8169.00,1.63
8168.00,1.63
8167.00,1.63
8166.00,1.63
8165.00,1.63
8164.00,1.63
8163.00,1.63
8162.00,1.63
8161.00,1.63
8160.00,1.63
8159.00,1.63
8158.00,1.63
8157.00,1.63
8156.00,1.63
8155.00,1.63
8154.00,1.63
8153.00,1.63
8152.00,1.63
8151.00,1.63
8150.00,1.63
8149.00,1.64
8148.00,1.64
8147.00,1.64
8146.00,1.64
8145.00,1.64
8144.00,1.64
8143.00,1.64
8142.00,1.64
8141.00,1.64
8140.00,1.64
8139.00,1.64
8138.00,1.64
8137.00,1.64
8136.00,1.64
8135.00,1.64
8134.00,1.64
8133.00,1.64
8132.00,1.64
8131.00,1.64
8130.00,1.64
8129.00,1.63
8128.00,1.63
8127.00,1.63
8126.00,1.63
8125.00,1.63
8124.00,1.63
8123.00,1.63
8122.00,1.64
8121.00,1.64
8120.00,1.64
8119.00,1.64
8118.00,1.64
8117.00,1.64
8116.00,1.64
8115.00,1.64
8114.00,1.64
8113.00,1.64
8112.00,1.64
8111.00,1.64
8110.00,1.64
8109.00,1.64
8108.00,1.64
8107.00,1.64
8106.00,1.64
8105.00,1.64
8104.00,1.64
8103.00,1.64
8102.00,1.64
8101.00,1.64
8100.00,1.64
8099.00,1.64
8098.00,1.64
8097.00,1.64
8096.00,1.64
8095.00,1.64
8094.00,1.65
8093.00,1.65
8092.00,1.65
8091.00,1.65
8090.00,1.65
8089.00,1.65
8088.00,1.65
8087.00,1.65
8086.00,1.65
8085.00,1.65
8084.00,1.65
8083.00,1.65
8082.00,1.65
8081.00,1.65
8080.00,1.65
8079.00,1.65
8078.00,1.65
8077.00,1.65
8076.00,1.65
8075.00,1.65
8074.00,1.65
8073.00,1.65
8072.00,1.65
8071.00,1.65
8070.00,1.65
8069.00,1.65
8068.00,1.65
8067.00,1.65
8066.00,1.65
8065.00,1.65
8064.00,1.65
8063.00,1.65
8062.00,1.65
8061.00,1.65
8060.00,1.65
8059.00,1.65
8058.00,1.65
8057.00,1.65
8056.00,1.65
8055.00,1.65
8054.00,1.65
8053.00,1.65
8052.00,1.65
8051.00,1.65
8050.00,1.65
8049.00,1.65
8048.00,1.65
8047.00,1.66
8046.00,1.66
8045.00,1.66
8044.00,1.66
8043.00,1.66
8042.00,1.66
8041.00,1.66
8040.00,1.66
8039.00,1.66
8038.00,1.66
8037.00,1.66
8036.00,1.66
8035.00,1.66
8034.00,1.66
8033.00,1.66
8032.00,1.66
8031.00,1.66
8030.00,1.66
8029.00,1.66
8028.00,1.66
8027.00,1.66
8026.00,1.66
8025.00,1.66
8024.00,1.66
8023.00,1.66
8022.00,1.66
8021.00,1.66
8020.00,1.66
8019.00,1.66
8018.00,1.66
8017.00,1.66
8016.00,1.66
8015.00,1.66
8014.00,1.66
8013.00,1.66
8012.00,1.66
8011.00,1.66
8010.00,1.66
8009.00,1.66
8008.00,1.66
8007.00,1.66
8006.00,1.66
8005.00,1.66
8004.00,1.67
8003.00,1.67
8002.00,1.67
8001.00,1.67
8000.00,1.67
7999.00,1.67
7998.00,1.67
7997.00,1.68
7996.00,1.68
7995.00,1.68
7994.00,1.68
7993.00,1.68
7992.00,1.68
7991.00,1.68
7990.00,1.68
7989.00,1.68
7988.00,1.68
7987.00,1.68
7986.00,1.68
7985.00,1.68
7984.00,1.67
7983.00,1.67
7982.00,1.67
7981.00,1.67
7980.00,1.67
7979.00,1.67
7978.00,1.67
7977.00,1.67
7976.00,1.67
7975.00,1.67
7974.00,1.67
7973.00,1.67
7972.00,1.67
7971.00,1.67
7970.00,1.67
7969.00,1.67
7968.00,1.67
7967.00,1.67
7966.00,1.67
7965.00,1.67
7964.00,1.67
7963.00,1.67
7962.00,1.67
7961.00,1.67
7960.00,1.67
7959.00,1.67
7958.00,1.67
7957.00,1.67
7956.00,1.67
7955.00,1.67
7954.00,1.67
7953.00,1.67
7952.00,1.67
7951.00,1.67
7950.00,1.67
7949.00,1.67
7948.00,1.67
7947.00,1.67
7946.00,1.67
7945.00,1.67
7944.00,1.67
7943.00,1.67
7942.00,1.67
7941.00,1.67
7940.00,1.67
7939.00,1.67
7938.00,1.67
7937.00,1.67
7936.00,1.67
7935.00,1.67
7934.00,1.67
7933.00,1.67
7932.00,1.67
7931.00,1.67
7930.00,1.67
7929.00,1.67
7928.00,1.67
7927.00,1.67
7926.00,1.67
7925.00,1.68
7924.00,1.68
7923.00,1.68
7922.00,1.68
7921.00,1.68
7920.00,1.68
7919.00,1.68
7918.00,1.68
7917.00,1.68
7916.00,1.68
7915.00,1.69
7914.00,1.69
7913.00,1.69
7912.00,1.69
7911.00,1.69
7910.00,1.69
7909.00,1.69
7908.00,1.68
7907.00,1.68
7906.00,1.68
7905.00,1.68
7904.00,1.68
7903.00,1.68
7902.00,1.68
7901.00,1.68
7900.00,1.67
7899.00,1.67
7898.00,1.67
7897.00,1.67
7896.00,1.67
7895.00,1.67
7894.00,1.67
7893.00,1.67
7892.00,1.67
7891.00,1.67
7890.00,1.67
7889.00,1.67
7888.00,1.67
7887.00,1.67
7886.00,1.67
7885.00,1.67
7884.00,1.67
7883.00,1.67
7882.00,1.67
7881.00,1.68
7880.00,1.68
7879.00,1.68
7878.00,1.68
7877.00,1.68
7876.00,1.68
7875.00,1.68
7874.00,1.68
7873.00,1.68
7872.00,1.68
7871.00,1.69
7870.00,1.69
7869.00,1.69
7868.00,1.69
7867.00,1.69
7866.00,1.69
7865.00,1.69
7864.00,1.69
7863.00,1.69
7862.00,1.69
7861.00,1.69
7860.00,1.69
7859.00,1.69
7858.00,1.69
7857.00,1.69
7856.00,1.69
7855.00,1.69
7854.00,1.68
7853.00,1.68
7852.00,1.68
7851.00,1.68
7850.00,1.68
7849.00,1.68
7848.00,1.68
7847.00,1.69
7846.00,1.69
7845.00,1.69
7844.00,1.69
7843.00,1.69
7842.00,1.69
7841.00,1.69
7840.00,1.69
7839.00,1.69
7838.00,1.69
7837.00,1.69
7836.00,1.69
7835.00,1.70
7834.00,1.70
7833.00,1.70
7832.00,1.70
7831.00,1.70
7830.00,1.70
7829.00,1.70
7828.00,1.70
7827.00,1.70
7826.00,1.70
7825.00,1.70
7824.00,1.70
7823.00,1.70
7822.00,1.70
7821.00,1.70
7820.00,1.70
7819.00,1.70
7818.00,1.70
7817.00,1.70
7816.00,1.70
7815.00,1.70
7814.00,1.70
7813.00,1.70
7812.00,1.70
7811.00,1.70
7810.00,1.71
7809.00,1.71
7808.00,1.71
7807.00,1.71
7806.00,1.71
7805.00,1.70
7804.00,1.70
7803.00,1.70
7802.00,1.70
7801.00,1.70
7800.00,1.70
7799.00,1.70
7798.00,1.70
7797.00,1.70
7796.00,1.70
7795.00,1.71
7794.00,1.71
7793.00,1.71
7792.00,1.71
7791.00,1.71
7790.00,1.71
7789.00,1.71
7788.00,1.71
7787.00,1.71
7786.00,1.71
7785.00,1.71
7784.00,1.71
7783.00,1.71
7782.00,1.71
7781.00,1.71
7780.00,1.71
7779.00,1.71
7778.00,1.71
7777.00,1.71
7776.00,1.71
7775.00,1.71
7774.00,1.71
7773.00,1.71
7772.00,1.71
7771.00,1.70
7770.00,1.70
7769.00,1.70
7768.00,1.70
7767.00,1.70
7766.00,1.70
7765.00,1.70
7764.00,1.70
7763.00,1.70
7762.00,1.70
7761.00,1.70
7760.00,1.70
7759.00,1.70
7758.00,1.70
7757.00,1.70
7756.00,1.70
7755.00,1.70
7754.00,1.70
7753.00,1.70
7752.00,1.70
7751.00,1.70
7750.00,1.71
7749.00,1.71
7748.00,1.71
7747.00,1.71
7746.00,1.71
7745.00,1.71
7744.00,1.71
7743.00,1.71
7742.00,1.71
7741.00,1.71
7740.00,1.71
7739.00,1.71
7738.00,1.71
7737.00,1.71
7736.00,1.71
7735.00,1.71
7734.00,1.71
7733.00,1.71
7732.00,1.71
7731.00,1.71
7730.00,1.71
7729.00,1.71
7728.00,1.71
7727.00,1.71
7726.00,1.71
7725.00,1.70
7724.00,1.70
7723.00,1.70
7722.00,1.70
7721.00,1.70
7720.00,1.70
7719.00,1.70
7718.00,1.70
7717.00,1.70
7716.00,1.70
7715.00,1.70
7714.00,1.70
7713.00,1.70
7712.00,1.70
7711.00,1.70
7710.00,1.70
7709.00,1.70
7708.00,1.70
7707.00,1.70
7706.00,1.70
7705.00,1.70
7704.00,1.70
7703.00,1.70
7702.00,1.70
7701.00,1.70
7700.00,1.70
7699.00,1.70
7698.00,1.70
7697.00,1.70
7696.00,1.70
7695.00,1.70
7694.00,1.70
7693.00,1.70
7692.00,1.70
7691.00,1.70
7690.00,1.70
7689.00,1.70
7688.00,1.70
7687.00,1.70
7686.00,1.70
7685.00,1.70
7684.00,1.70
7683.00,1.70
7682.00,1.70
7681.00,1.70
7680.00,1.70
7679.00,1.70
7678.00,1.70
7677.00,1.70
7676.00,1.70
7675.00,1.70
7674.00,1.70
7673.00,1.70
7672.00,1.70
7671.00,1.70
7670.00,1.70
7669.00,1.70
7668.00,1.70
7667.00,1.70
7666.00,1.70
7665.00,1.70
7664.00,1.70
7663.00,1.70
7662.00,1.70
7661.00,1.70
7660.00,1.70
7659.00,1.70
7658.00,1.70
7657.00,1.70
7656.00,1.70
7655.00,1.71
7654.00,1.71
7653.00,1.71
7652.00,1.71
7651.00,1.71
7650.00,1.71
7649.00,1.71
7648.00,1.71
7647.00,1.71
7646.00,1.70
7645.00,1.70
7644.00,1.70
7643.00,1.70
7642.00,1.70
7641.00,1.70
7640.00,1.70
7639.00,1.70
7638.00,1.70
7637.00,1.70
7636.00,1.70
7635.00,1.70
7634.00,1.70
7633.00,1.70
7632.00,1.69
7631.00,1.69
7630.00,1.69
7629.00,1.69
7628.00,1.69
7627.00,1.69
7626.00,1.69
7625.00,1.69
7624.00,1.69
7623.00,1.69
7622.00,1.69
7621.00,1.69
7620.00,1.69
7619.00,1.69
7618.00,1.69
7617.00,1.69
7616.00,1.69
7615.00,1.69
7614.00,1.69
7613.00,1.69
7612.00,1.69
7611.00,1.69
7610.00,1.69
7609.00,1.69
7608.00,1.69
7607.00,1.69
7606.00,1.69
7605.00,1.69
7604.00,1.70
7603.00,1.70
7602.00,1.70
7601.00,1.70
7600.00,1.70
7599.00,1.70
7598.00,1.70
7597.00,1.70
7596.00,1.70
7595.00,1.71
7594.00,1.71
7593.00,1.71
7592.00,1.71
7591.00,1.71
7590.00,1.71
7589.00,1.71
7588.00,1.71
7587.00,1.71
7586.00,1.71
7585.00,1.70
7584.00,1.70
7583.00,1.70
7582.00,1.70
7581.00,1.70
7580.00,1.70
7579.00,1.70
7578.00,1.70
7577.00,1.70
7576.00,1.70
7575.00,1.69
7574.00,1.69
7573.00,1.69
7572.00,1.69
7571.00,1.69
7570.00,1.69
7569.00,1.69
7568.00,1.69
7567.00,1.69
7566.00,1.69
7565.00,1.69
7564.00,1.69
7563.00,1.69
7562.00,1.69
7561.00,1.69
7560.00,1.69
7559.00,1.69
7558.00,1.69
7557.00,1.69
7556.00,1.69
7555.00,1.69
7554.00,1.69
7553.00,1.69
7552.00,1.69
7551.00,1.69
7550.00,1.69
7549.00,1.69
7548.00,1.69
7547.00,1.69
7546.00,1.69
7545.00,1.69
7544.00,1.69
7543.00,1.69
7542.00,1.69
7541.00,1.69
7540.00,1.69
7539.00,1.69
7538.00,1.69
7537.00,1.69
7536.00,1.69
7535.00,1.69
7534.00,1.69
7533.00,1.69
7532.00,1.69
7531.00,1.69
7530.00,1.69
7529.00,1.69
7528.00,1.69
7527.00,1.69
7526.00,1.69
7525.00,1.69
7524.00,1.69
7523.00,1.69
7522.00,1.69
7521.00,1.69
7520.00,1.69
7519.00,1.69
7518.00,1.69
7517.00,1.69
7516.00,1.69
7515.00,1.69
7514.00,1.69
7513.00,1.69
7512.00,1.69
7511.00,1.69
7510.00,1.69
7509.00,1.69
7508.00,1.69
7507.00,1.69
7506.00,1.69
7505.00,1.68
7504.00,1.68
7503.00,1.68
7502.00,1.68
7501.00,1.68
7500.00,1.68
7499.00,1.68
7498.00,1.68
7497.00,1.68
7496.00,1.68
7495.00,1.68
7494.00,1.68
7493.00,1.68
7492.00,1.68
7491.00,1.68
7490.00,1.68
7489.00,1.68
7488.00,1.68
7487.00,1.68
7486.00,1.68
7485.00,1.68
7484.00,1.68
7483.00,1.68
7482.00,1.68
7481.00,1.68
7480.00,1.68
7479.00,1.68
7478.00,1.68
7477.00,1.68
7476.00,1.68
7475.00,1.68
7474.00,1.68
7473.00,1.68
7472.00,1.68
7471.00,1.68
7470.00,1.68
7469.00,1.68
7468.00,1.68
7467.00,1.67
7466.00,1.67
7465.00,1.67
7464.00,1.67
7463.00,1.67
7462.00,1.67
7461.00,1.67
7460.00,1.67
7459.00,1.67
7458.00,1.67
7457.00,1.67
7456.00,1.67
7455.00,1.67
7454.00,1.67
7453.00,1.67
7452.00,1.67
7451.00,1.67
7450.00,1.67
7449.00,1.67
7448.00,1.67
7447.00,1.67
7446.00,1.67
7445.00,1.67
7444.00,1.67
7443.00,1.67
7442.00,1.67
7441.00,1.67
7440.00,1.67
7439.00,1.67
7438.00,1.67
7437.00,1.67
7436.00,1.67
7435.00,1.67
7434.00,1.67
7433.00,1.67
7432.00,1.67
7431.00,1.66
7430.00,1.66
7429.00,1.66
7428.00,1.66
7427.00,1.66
7426.00,1.66
7425.00,1.66
7424.00,1.66
7423.00,1.66
7422.00,1.66
7421.00,1.66
7420.00,1.66
7419.00,1.66
7418.00,1.66
7417.00,1.66
7416.00,1.65
7415.00,1.65
7414.00,1.65
7413.00,1.65
7412.00,1.65
7411.00,1.65
7410.00,1.65
7409.00,1.65
7408.00,1.64
7407.00,1.64
7406.00,1.64
7405.00,1.64
7404.00,1.64
7403.00,1.64
7402.00,1.64
7401.00,1.64
7400.00,1.64
7399.00,1.64
7398.00,1.64
7397.00,1.64
7396.00,1.64
7395.00,1.64
7394.00,1.64
7393.00,1.64
7392.00,1.64
7391.00,1.63
7390.00,1.63
7389.00,1.63
7388.00,1.63
7387.00,1.63
7386.00,1.63
7385.00,1.63
7384.00,1.63
7383.00,1.62
7382.00,1.62
7381.00,1.62
7380.00,1.62
7379.00,1.62
7378.00,1.62
7377.00,1.62
7376.00,1.61
7375.00,1.61
7374.00,1.61
7373.00,1.61
7372.00,1.61
7371.00,1.61
7370.00,1.61
7369.00,1.61
7368.00,1.61
7367.00,1.61
7366.00,1.61
7365.00,1.61
7364.00,1.61
7363.00,1.61
7362.00,1.61
7361.00,1.61
7360.00,1.61
7359.00,1.61
7358.00,1.61
7357.00,1.61
7356.00,1.61
7355.00,1.61
7354.00,1.61
7353.00,1.61
7352.00,1.61
7351.00,1.61
7350.00,1.61
7349.00,1.61
7348.00,1.61
7347.00,1.60
7346.00,1.60
7345.00,1.60
7344.00,1.60
7343.00,1.60
7342.00,1.60
7341.00,1.60
7340.00,1.60
7339.00,1.60
7338.00,1.60
7337.00,1.61
7336.00,1.61
7335.00,1.61
7334.00,1.61
7333.00,1.61
7332.00,1.61
7331.00,1.61
7330.00,1.61
7329.00,1.61
7328.00,1.61
7327.00,1.61
7326.00,1.61
7325.00,1.61
7324.00,1.62
7323.00,1.62
7322.00,1.62
7321.00,1.62
7320.00,1.62
7319.00,1.62
7318.00,1.62
7317.00,1.62
7316.00,1.61
7315.00,1.61
7314.00,1.61
7313.00,1.61
7312.00,1.61
7311.00,1.61
7310.00,1.61
7309.00,1.61
7308.00,1.60
7307.00,1.60
7306.00,1.60
7305.00,1.60
7304.00,1.60
7303.00,1.60
7302.00,1.59
7301.00,1.59
7300.00,1.59
7299.00,1.59
7298.00,1.59
7297.00,1.59
7296.00,1.58
7295.00,1.58
7294.00,1.58
7293.00,1.58
7292.00,1.58
7291.00,1.58
7290.00,1.58
7289.00,1.58
7288.00,1.58
7287.00,1.58
7286.00,1.58
7285.00,1.58
7284.00,1.58
7283.00,1.58
7282.00,1.58
7281.00,1.58
7280.00,1.58
7279.00,1.58
7278.00,1.58
7277.00,1.58
7276.00,1.57
7275.00,1.57
7274.00,1.57
7273.00,1.57
7272.00,1.57
7271.00,1.57
7270.00,1.57
7269.00,1.57
7268.00,1.57
7267.00,1.57
7266.00,1.57
7265.00,1.57
7264.00,1.57
7263.00,1.56
7262.00,1.56
7261.00,1.56
7260.00,1.56
7259.00,1.56
7258.00,1.55
7257.00,1.55
7256.00,1.55
7255.00,1.55
7254.00,1.54
7253.00,1.54
7252.00,1.54
7251.00,1.54
7250.00,1.53
7249.00,1.53
7248.00,1.53
7247.00,1.53
7246.00,1.52
7245.00,1.52
7244.00,1.52
7243.00,1.52
7242.00,1.51
7241.00,1.51
7240.00,1.51
7239.00,1.51
7238.00,1.50
7237.00,1.50
7236.00,1.50
7235.00,1.50
7234.00,1.49
7233.00,1.49
7232.00,1.49
7231.00,1.48
7230.00,1.48
7229.00,1.48
7228.00,1.47
7227.00,1.47
7226.00,1.47
7225.00,1.46
7224.00,1.46
7223.00,1.46
7222.00,1.45
7221.00,1.45
7220.00,1.45
7219.00,1.44
7218.00,1.44
7217.00,1.44
7216.00,1.43
7215.00,1.43
7214.00,1.43
7213.00,1.43
7212.00,1.42
7211.00,1.42
7210.00,1.42
7209.00,1.42
7208.00,1.41
7207.00,1.41
7206.00,1.41
7205.00,1.41
7204.00,1.40
7203.00,1.40
7202.00,1.40
7201.00,1.39
7200.00,1.39
7199.00,1.39
7198.00,1.38
7197.00,1.38
7196.00,1.38
7195.00,1.37
7194.00,1.37
7193.00,1.37
7192.00,1.36
7191.00,1.36
7190.00,1.36
7189.00,1.35
7188.00,1.35
7187.00,1.35
7186.00,1.34
7185.00,1.34
7184.00,1.34
7183.00,1.33
7182.00,1.33
7181.00,1.32
7180.00,1.32
7179.00,1.32
7178.00,1.31
7177.00,1.31
7176.00,1.31
7175.00,1.30
7174.00,1.30
7173.00,1.30
7172.00,1.29
7171.00,1.29
7170.00,1.29
7169.00,1.28
7168.00,1.28
7167.00,1.28
7166.00,1.28
7165.00,1.27
7164.00,1.27
7163.00,1.27
7162.00,1.26
7161.00,1.26
7160.00,1.26
7159.00,1.26
7158.00,1.25
7157.00,1.25
7156.00,1.25
7155.00,1.25
7154.00,1.25
7153.00,1.24
7152.00,1.24
7151.00,1.24
7150.00,1.23
7149.00,1.23
7148.00,1.23
7147.00,1.23
7146.00,1.22
7145.00,1.22
7144.00,1.22
7143.00,1.21
7142.00,1.21
7141.00,1.21
7140.00,1.20
7139.00,1.20
7138.00,1.20
7137.00,1.19
7136.00,1.19
7135.00,1.19
7134.00,1.19
7133.00,1.18
7132.00,1.18
7131.00,1.18
7130.00,1.18
7129.00,1.17
7128.00,1.17
7127.00,1.17
7126.00,1.17
7125.00,1.16
7124.00,1.16
7123.00,1.16
7122.00,1.16
7121.00,1.15
7120.00,1.15
7119.00,1.14
7118.00,1.14
7117.00,1.14
7116.00,1.13
7115.00,1.13
7114.00,1.13
7113.00,1.12
7112.00,1.12
7111.00,1.12
7110.00,1.11
7109.00,1.11
7108.00,1.11
7107.00,1.10
7106.00,1.10
7105.00,1.10
7104.00,1.10
7103.00,1.09
7102.00,1.09
7101.00,1.09
7100.00,1.09
7099.00,1.08
7098.00,1.08
7097.00,1.08
7096.00,1.08
7095.00,1.07
7094.00,1.07
7093.00,1.07
7092.00,1.07
7091.00,1.06
7090.00,1.06
7089.00,1.06
7088.00,1.06
7087.00,1.06
7086.00,1.05
7085.00,1.05
7084.00,1.05
7083.00,1.05
7082.00,1.05
7081.00,1.04
7080.00,1.04
7079.00,1.04
7078.00,1.04
7077.00,1.04
7076.00,1.04
7075.00,1.03
7074.00,1.03
7073.00,1.03
7072.00,1.03
7071.00,1.03
7070.00,1.02
7069.00,1.02
7068.00,1.02
7067.00,1.02
7066.00,1.02
7065.00,1.01
7064.00,1.01
7063.00,1.01
7062.00,1.01
7061.00,1.01
7060.00,1.00
7059.00,1.00
7058.00,1.00
7057.00,1.00
7056.00,1.00
7055.00,0.99
7054.00,0.99
7053.00,0.99
7052.00,0.99
7051.00,0.99
7050.00,0.98
7049.00,0.98
7048.00,0.98
7047.00,0.98
7046.00,0.98
7045.00,0.97
7044.00,0.97
7043.00,0.97
7042.00,0.97
7041.00,0.97
7040.00,0.97
7039.00,0.96
7038.00,0.96
7037.00,0.96
7036.00,0.96
7035.00,0.96
7034.00,0.96
7033.00,0.95
7032.00,0.95
7031.00,0.95
7030.00,0.95
7029.00,0.95
7028.00,0.95
7027.00,0.95
7026.00,0.94
7025.00,0.94
7024.00,0.94
7023.00,0.94
7022.00,0.94
7021.00,0.94
7020.00,0.94
7019.00,0.93
7018.00,0.93
7017.00,0.93
7016.00,0.93
7015.00,0.93
7014.00,0.93
7013.00,0.93
7012.00,0.92
7011.00,0.92
7010.00,0.92
7009.00,0.92
7008.00,0.92
7007.00,0.92
7006.00,0.92
7005.00,0.91
7004.00,0.91
7003.00,0.91
7002.00,0.91
7001.00,0.91
7000.00,0.91
6999.00,0.91
6998.00,0.91
6997.00,0.90
6996.00,0.90
6995.00,0.90
6994.00,0.90
6993.00,0.90
6992.00,0.90
6991.00,0.90
6990.00,0.90
6989.00,0.90
6988.00,0.90
6987.00,0.90
6986.00,0.90
6985.00,0.90
6984.00,0.90
6983.00,0.90
6982.00,0.89
6981.00,0.89
6980.00,0.89
6979.00,0.89
6978.00,0.89
6977.00,0.89
6976.00,0.89
6975.00,0.89
6974.00,0.89
6973.00,0.89
6972.00,0.89
6971.00,0.88
6970.00,0.88
6969.00,0.88
6968.00,0.88
6967.00,0.88
6966.00,0.88
6965.00,0.88
6964.00,0.88
6963.00,0.88
6962.00,0.87
6961.00,0.87
6960.00,0.87
6959.00,0.87
6958.00,0.87
6957.00,0.87
6956.00,0.87
6955.00,0.87
6954.00,0.87
6953.00,0.87
6952.00,0.87
6951.00,0.87
6950.00,0.87
6949.00,0.87
6948.00,0.87
6947.00,0.87
6946.00,0.87
6945.00,0.87
6944.00,0.87
6943.00,0.87
6942.00,0.87
6941.00,0.87
6940.00,0.87
6939.00,0.87
6938.00,0.87
6937.00,0.86
6936.00,0.86
6935.00,0.86
6934.00,0.86
6933.00,0.86
6932.00,0.86
6931.00,0.86
6930.00,0.86
6929.00,0.86
6928.00,0.86
6927.00,0.86
6926.00,0.86
6925.00,0.86
6924.00,0.86
6923.00,0.86
6922.00,0.86
6921.00,0.86
6920.00,0.86
6919.00,0.86
6918.00,0.86
6917.00,0.85
6916.00,0.85
6915.00,0.85
6914.00,0.85
6913.00,0.85
6912.00,0.85
6911.00,0.85
6910.00,0.85
6909.00,0.85
6908.00,0.85
6907.00,0.85
6906.00,0.85
6905.00,0.85
6904.00,0.85
6903.00,0.85
6902.00,0.85
6901.00,0.85
6900.00,0.85
6899.00,0.85
6898.00,0.85
6897.00,0.85
6896.00,0.85
6895.00,0.85
6894.00,0.85
6893.00,0.85
6892.00,0.85
6891.00,0.85
6890.00,0.85
6889.00,0.85
6888.00,0.85
6887.00,0.85
6886.00,0.84
6885.00,0.84
6884.00,0.84
6883.00,0.84
6882.00,0.84
6881.00,0.84
6880.00,0.84
6879.00,0.84
6878.00,0.84
6877.00,0.84
6876.00,0.84
6875.00,0.84
6874.00,0.84
6873.00,0.84
6872.00,0.84
6871.00,0.84
6870.00,0.84
6869.00,0.84
6868.00,0.84
6867.00,0.84
6866.00,0.84
6865.00,0.84
6864.00,0.84
6863.00,0.84
6862.00,0.84
6861.00,0.84
6860.00,0.84
6859.00,0.84
6858.00,0.85
6857.00,0.85
6856.00,0.85
6855.00,0.85
6854.00,0.85
6853.00,0.85
6852.00,0.85
6851.00,0.85
6850.00,0.85
6849.00,0.85
6848.00,0.85
6847.00,0.85
6846.00,0.85
6845.00,0.85
6844.00,0.85
6843.00,0.85
6842.00,0.85
6841.00,0.85
6840.00,0.84
6839.00,0.85
6838.00,0.85
6837.00,0.85
6836.00,0.85
6835.00,0.85
6834.00,0.85
6833.00,0.85
6832.00,0.85
6831.00,0.85
6830.00,0.85
6829.00,0.85
6828.00,0.85
6827.00,0.85
6826.00,0.85
6825.00,0.85
6824.00,0.85
6823.00,0.85
6822.00,0.85
6821.00,0.85
6820.00,0.85
6819.00,0.85
6818.00,0.85
6817.00,0.85
6816.00,0.85
6815.00,0.85
6814.00,0.85
6813.00,0.86
6812.00,0.86
6811.00,0.86
6810.00,0.86
6809.00,0.86
6808.00,0.86
6807.00,0.86
6806.00,0.86
6805.00,0.86
6804.00,0.86
6803.00,0.86
6802.00,0.86
6801.00,0.87
6800.00,0.87
6799.00,0.87
6798.00,0.87
6797.00,0.87
6796.00,0.87
6795.00,0.87
6794.00,0.87
6793.00,0.87
6792.00,0.87
6791.00,0.87
6790.00,0.87
6789.00,0.87
6788.00,0.87
6787.00,0.87
6786.00,0.87
6785.00,0.87
6784.00,0.87
6783.00,0.88
6782.00,0.88
6781.00,0.88
6780.00,0.88
6779.00,0.88
6778.00,0.88
6777.00,0.88
6776.00,0.89
6775.00,0.89
6774.00,0.89
6773.00,0.89
6772.00,0.89
6771.00,0.89
6770.00,0.89
6769.00,0.89
6768.00,0.89
6767.00,0.89
6766.00,0.90
6765.00,0.90
6764.00,0.90
6763.00,0.90
6762.00,0.90
6761.00,0.90
6760.00,0.90
6759.00,0.90
6758.00,0.90
6757.00,0.90
6756.00,0.90
6755.00,0.90
6754.00,0.90
6753.00,0.90
6752.00,0.90
6751.00,0.90
6750.00,0.91
6749.00,0.91
6748.00,0.91
6747.00,0.91
6746.00,0.91
6745.00,0.91
6744.00,0.91
6743.00,0.91
6742.00,0.91
6741.00,0.91
6740.00,0.91
6739.00,0.92
6738.00,0.92
6737.00,0.92
6736.00,0.92
6735.00,0.92
6734.00,0.92
6733.00,0.92
6732.00,0.92
6731.00,0.92
6730.00,0.92
6729.00,0.92
6728.00,0.92
6727.00,0.92
6726.00,0.92
6725.00,0.93
6724.00,0.93
6723.00,0.93
6722.00,0.93
6721.00,0.93
6720.00,0.93
6719.00,0.93
6718.00,0.93
6717.00,0.94
6716.00,0.94
6715.00,0.94
6714.00,0.94
6713.00,0.94
6712.00,0.94
6711.00,0.94
6710.00,0.95
6709.00,0.95
6708.00,0.95
6707.00,0.95
6706.00,0.95
6705.00,0.95
6704.00,0.95
6703.00,0.95
6702.00,0.95
6701.00,0.95
6700.00,0.96
6699.00,0.96
6698.00,0.96
6697.00,0.96
6696.00,0.96
6695.00,0.96
6694.00,0.96
6693.00,0.96
6692.00,0.96
6691.00,0.96
6690.00,0.96
6689.00,0.97
6688.00,0.97
6687.00,0.97
6686.00,0.97
6685.00,0.97
6684.00,0.97
6683.00,0.97
6682.00,0.97
6681.00,0.98
6680.00,0.98
6679.00,0.98
6678.00,0.98
6677.00,0.98
6676.00,0.98
6675.00,0.98
6674.00,0.98
6673.00,0.99
6672.00,0.99
6671.00,0.99
6670.00,0.99
6669.00,0.99
6668.00,0.99
6667.00,1.00
6666.00,1.00
6665.00,1.00
6664.00,1.00
6663.00,1.00
6662.00,1.00
6661.00,1.00
6660.00,1.01
6659.00,1.01
6658.00,1.01
6657.00,1.01
6656.00,1.01
6655.00,1.01
6654.00,1.01
6653.00,1.02
6652.00,1.02
6651.00,1.02
6650.00,1.02
6649.00,1.02
6648.00,1.02
6647.00,1.02
6646.00,1.02
6645.00,1.02
6644.00,1.02
6643.00,1.03
6642.00,1.03
6641.00,1.03
6640.00,1.03
6639.00,1.03
6638.00,1.03
6637.00,1.03
6636.00,1.04
6635.00,1.04
6634.00,1.04
6633.00,1.04
6632.00,1.04
6631.00,1.04
6630.00,1.05
6629.00,1.05
6628.00,1.05
6627.00,1.05
6626.00,1.05
6625.00,1.05
6624.00,1.06
6623.00,1.06
6622.00,1.06
6621.00,1.06
6620.00,1.06
6619.00,1.06
6618.00,1.06
6617.00,1.06
6616.00,1.06
6615.00,1.06
6614.00,1.06
6613.00,1.07
6612.00,1.07
6611.00,1.07
6610.00,1.07
6609.00,1.07
6608.00,1.07
6607.00,1.07
6606.00,1.07
6605.00,1.07
6604.00,1.08
6603.00,1.08
6602.00,1.08
6601.00,1.08
6600.00,1.08
6599.00,1.08
6598.00,1.08
6597.00,1.09
6596.00,1.09
6595.00,1.09
6594.00,1.09
6593.00,1.09
6592.00,1.09
6591.00,1.10
6590.00,1.10
6589.00,1.10
6588.00,1.10
6587.00,1.10
6586.00,1.10
6585.00,1.10
6584.00,1.10
6583.00,1.10
6582.00,1.10
6581.00,1.11
6580.00,1.11
6579.00,1.11
6578.00,1.11
6577.00,1.11
6576.00,1.11
6575.00,1.11
6574.00,1.11
6573.00,1.11
6572.00,1.11
6571.00,1.11
6570.00,1.12
6569.00,1.12
6568.00,1.12
6567.00,1.12
6566.00,1.12
6565.00,1.12
6564.00,1.12
6563.00,1.12
6562.00,1.12
6561.00,1.12
6560.00,1.12
6559.00,1.12
6558.00,1.13
6557.00,1.13
6556.00,1.13
6555.00,1.13
6554.00,1.13
6553.00,1.13
6552.00,1.13
6551.00,1.13
6550.00,1.13
6549.00,1.13
6548.00,1.14
6547.00,1.14
6546.00,1.14
6545.00,1.14
6544.00,1.14
6543.00,1.14
6542.00,1.14
6541.00,1.14
6540.00,1.14
6539.00,1.14
6538.00,1.15
6537.00,1.15
6536.00,1.15
6535.00,1.15
6534.00,1.15
6533.00,1.15
6532.00,1.15
6531.00,1.15
6530.00,1.15
6529.00,1.16
6528.00,1.16
6527.00,1.16
6526.00,1.16
6525.00,1.16
6524.00,1.16
6523.00,1.16
6522.00,1.16
6521.00,1.16
6520.00,1.16
6519.00,1.16
6518.00,1.16
6517.00,1.16
6516.00,1.16
6515.00,1.16
6514.00,1.17
6513.00,1.17
6512.00,1.17
6511.00,1.17
6510.00,1.17
6509.00,1.17
6508.00,1.17
6507.00,1.17
6506.00,1.17
6505.00,1.17
6504.00,1.17
6503.00,1.18
6502.00,1.18
6501.00,1.18
6500.00,1.18
6499.00,1.18
6498.00,1.18
6497.00,1.18
6496.00,1.18
6495.00,1.18
6494.00,1.18
6493.00,1.18
6492.00,1.18
6491.00,1.19
6490.00,1.19
6489.00,1.19
6488.00,1.19
6487.00,1.19
6486.00,1.19
6485.00,1.19
6484.00,1.19
6483.00,1.19
6482.00,1.19
6481.00,1.19
6480.00,1.20
6479.00,1.20
6478.00,1.20
6477.00,1.20
6476.00,1.20
6475.00,1.20
6474.00,1.20
6473.00,1.20
6472.00,1.20
6471.00,1.20
6470.00,1.20
6469.00,1.21
6468.00,1.21
6467.00,1.21
6466.00,1.21
6465.00,1.21
6464.00,1.21
6463.00,1.21
6462.00,1.21
6461.00,1.21
6460.00,1.21
6459.00,1.22
6458.00,1.22
6457.00,1.22
6456.00,1.22
6455.00,1.22
6454.00,1.22
6453.00,1.22
6452.00,1.22
6451.00,1.22
6450.00,1.22
6449.00,1.22
6448.00,1.22
6447.00,1.22
6446.00,1.22
6445.00,1.22
6444.00,1.22
6443.00,1.22
6442.00,1.22
6441.00,1.22
6440.00,1.22
6439.00,1.23
6438.00,1.23
6437.00,1.23
6436.00,1.23
6435.00,1.23
6434.00,1.23
6433.00,1.23
6432.00,1.23
6431.00,1.23
6430.00,1.23
6429.00,1.23
6428.00,1.23
6427.00,1.23
6426.00,1.23
6425.00,1.23
6424.00,1.23
6423.00,1.23
6422.00,1.23
6421.00,1.23
6420.00,1.23
6419.00,1.23
6418.00,1.24
6417.00,1.24
6416.00,1.24
6415.00,1.24
6414.00,1.24
6413.00,1.24
6412.00,1.24
6411.00,1.24
6410.00,1.24
6409.00,1.24
6408.00,1.24
6407.00,1.24
6406.00,1.25
6405.00,1.25
6404.00,1.25
6403.00,1.25
6402.00,1.25
6401.00,1.25
6400.00,1.25
6399.00,1.25
6398.00,1.25
6397.00,1.25
6396.00,1.25
6395.00,1.25
6394.00,1.25
6393.00,1.26
6392.00,1.26
6391.00,1.26
6390.00,1.26
6389.00,1.26
6388.00,1.26
6387.00,1.26
6386.00,1.26
6385.00,1.26
6384.00,1.26
6383.00,1.26
6382.00,1.26
6381.00,1.26
6380.00,1.27
6379.00,1.27
6378.00,1.27
6377.00,1.27
6376.00,1.27
6375.00,1.27
6374.00,1.27
6373.00,1.27
6372.00,1.27
6371.00,1.27
6370.00,1.27
6369.00,1.27
6368.00,1.27
6367.00,1.27
6366.00,1.28
6365.00,1.28
6364.00,1.28
6363.00,1.28
6362.00,1.28
6361.00,1.28
6360.00,1.28
6359.00,1.28
6358.00,1.28
6357.00,1.28
6356.00,1.28
6355.00,1.28
6354.00,1.28
6353.00,1.28
6352.00,1.29
6351.00,1.29
6350.00,1.29
6349.00,1.29
6348.00,1.29
6347.00,1.29
6346.00,1.29
6345.00,1.29
6344.00,1.29
6343.00,1.29
6342.00,1.30
6341.00,1.30
6340.00,1.30
6339.00,1.30
6338.00,1.30
6337.00,1.30
6336.00,1.30
6335.00,1.30
6334.00,1.30
6333.00,1.31
6332.00,1.31
6331.00,1.31
6330.00,1.31
6329.00,1.31
6328.00,1.31
6327.00,1.31
6326.00,1.31
6325.00,1.32
6324.00,1.32
6323.00,1.32
6322.00,1.32
6321.00,1.32
6320.00,1.32
6319.00,1.32
6318.00,1.32
6317.00,1.33
6316.00,1.33
6315.00,1.33
6314.00,1.33
6313.00,1.33
6312.00,1.33
6311.00,1.33
6310.00,1.33
6309.00,1.34
6308.00,1.34
6307.00,1.34
6306.00,1.34
6305.00,1.34
6304.00,1.34
6303.00,1.34
6302.00,1.34
6301.00,1.34
6300.00,1.34
6299.00,1.34
6298.00,1.34
6297.00,1.34
6296.00,1.35
6295.00,1.35
6294.00,1.35
6293.00,1.35
6292.00,1.35
6291.00,1.35
6290.00,1.35
6289.00,1.35
6288.00,1.35
6287.00,1.35
6286.00,1.35
6285.00,1.35
6284.00,1.35
6283.00,1.36
6282.00,1.36
6281.00,1.36
6280.00,1.36
6279.00,1.36
6278.00,1.36
6277.00,1.36
6276.00,1.36
6275.00,1.36
6274.00,1.36
6273.00,1.37
6272.00,1.37
6271.00,1.37
6270.00,1.37
6269.00,1.37
6268.00,1.37
6267.00,1.37
6266.00,1.37
6265.00,1.37
6264.00,1.37
6263.00,1.38
6262.00,1.38
6261.00,1.38
6260.00,1.38
6259.00,1.38
6258.00,1.38
6257.00,1.38
6256.00,1.38
6255.00,1.38
6254.00,1.38
6253.00,1.39
6252.00,1.39
6251.00,1.39
6250.00,1.39
6249.00,1.39
6248.00,1.39
6247.00,1.40
6246.00,1.40
6245.00,1.40
6244.00,1.40
6243.00,1.40
6242.00,1.40
6241.00,1.41
6240.00,1.41
6239.00,1.41
6238.00,1.41
6237.00,1.41
6236.00,1.41
6235.00,1.41
6234.00,1.41
6233.00,1.41
6232.00,1.42
6231.00,1.42
6230.00,1.42
6229.00,1.42
6228.00,1.42
6227.00,1.42
6226.00,1.42
6225.00,1.42
6224.00,1.42
6223.00,1.42
6222.00,1.43
6221.00,1.43
6220.00,1.43
6219.00,1.43
6218.00,1.43
6217.00,1.43
6216.00,1.43
6215.00,1.43
6214.00,1.43
6213.00,1.43
6212.00,1.43
6211.00,1.43
6210.00,1.44
6209.00,1.44
6208.00,1.44
6207.00,1.44
6206.00,1.44
6205.00,1.44
6204.00,1.44
6203.00,1.44
6202.00,1.44
6201.00,1.44
6200.00,1.45
6199.00,1.45
6198.00,1.45
6197.00,1.45
6196.00,1.45
6195.00,1.45
6194.00,1.45
6193.00,1.46
6192.00,1.46
6191.00,1.46
6190.00,1.46
6189.00,1.46
6188.00,1.46
6187.00,1.46
6186.00,1.46
6185.00,1.46
6184.00,1.47
6183.00,1.47
6182.00,1.47
6181.00,1.47
6180.00,1.47
6179.00,1.47
6178.00,1.47
6177.00,1.47
6176.00,1.47
6175.00,1.48
6174.00,1.48
6173.00,1.48
6172.00,1.48
6171.00,1.48
6170.00,1.48
6169.00,1.49
6168.00,1.49
6167.00,1.49
6166.00,1.49
6165.00,1.49
6164.00,1.49
6163.00,1.50
6162.00,1.50
6161.00,1.50
6160.00,1.50
6159.00,1.50
6158.00,1.50
6157.00,1.50
6156.00,1.50
6155.00,1.51
6154.00,1.51
6153.00,1.51
6152.00,1.51
6151.00,1.51
6150.00,1.51
6149.00,1.51
6148.00,1.51
6147.00,1.51
6146.00,1.51
6145.00,1.51
6144.00,1.52
6143.00,1.52
6142.00,1.52
6141.00,1.52
6140.00,1.52
6139.00,1.52
6138.00,1.52
6137.00,1.53
6136.00,1.53
6135.00,1.53
6134.00,1.53
6133.00,1.53
6132.00,1.53
6131.00,1.54
6130.00,1.54
6129.00,1.54
6128.00,1.54
6127.00,1.54
6126.00,1.54
6125.00,1.54
6124.00,1.55
6123.00,1.55
6122.00,1.55
6121.00,1.55
6120.00,1.55
6119.00,1.55
6118.00,1.55
6117.00,1.55
6116.00,1.56
6115.00,1.56
6114.00,1.56
6113.00,1.56
6112.00,1.56
6111.00,1.56
6110.00,1.56
6109.00,1.56
6108.00,1.57
6107.00,1.57
6106.00,1.57
6105.00,1.57
6104.00,1.57
6103.00,1.57
6102.00,1.58
6101.00,1.58
6100.00,1.58
6099.00,1.58
6098.00,1.58
6097.00,1.59
6096.00,1.59
6095.00,1.59
6094.00,1.59
6093.00,1.59
6092.00,1.59
6091.00,1.59
6090.00,1.60
6089.00,1.60
6088.00,1.60
6087.00,1.60
6086.00,1.60
6085.00,1.60
6084.00,1.60
6083.00,1.60
6082.00,1.60
6081.00,1.60
6080.00,1.60
6079.00,1.60
6078.00,1.60
6077.00,1.60
6076.00,1.60
6075.00,1.60
6074.00,1.60
6073.00,1.60
6072.00,1.60
6071.00,1.60
6070.00,1.60
6069.00,1.61
6068.00,1.61
6067.00,1.61
6066.00,1.61
6065.00,1.61
6064.00,1.61
6063.00,1.61
6062.00,1.61
6061.00,1.62
6060.00,1.62
6059.00,1.62
6058.00,1.62
6057.00,1.62
6056.00,1.62
6055.00,1.62
6054.00,1.63
6053.00,1.63
6052.00,1.63
6051.00,1.63
6050.00,1.63
6049.00,1.63
6048.00,1.63
6047.00,1.63
6046.00,1.63
6045.00,1.63
6044.00,1.63
6043.00,1.63
6042.00,1.64
6041.00,1.64
6040.00,1.64
6039.00,1.64
6038.00,1.64
6037.00,1.64
6036.00,1.64
6035.00,1.64
6034.00,1.64
6033.00,1.64
6032.00,1.64
6031.00,1.64
6030.00,1.64
6029.00,1.64
6028.00,1.64
6027.00,1.64
6026.00,1.64
6025.00,1.64
6024.00,1.64
6023.00,1.64
6022.00,1.65
6021.00,1.65
6020.00,1.65
6019.00,1.65
6018.00,1.65
6017.00,1.65
6016.00,1.65
6015.00,1.65
6014.00,1.65
6013.00,1.65
6012.00,1.65
6011.00,1.65
6010.00,1.65
6009.00,1.65
6008.00,1.65
6007.00,1.65
6006.00,1.65
6005.00,1.65
6004.00,1.65
6003.00,1.64
6002.00,1.64
6001.00,1.64
6000.00,1.64
5999.00,1.64
5998.00,1.64
5997.00,1.64
5996.00,1.64
5995.00,1.64
5994.00,1.64
5993.00,1.64
5992.00,1.64
5991.00,1.64
5990.00,1.63
5989.00,1.63
5988.00,1.63
5987.00,1.63
5986.00,1.63
5985.00,1.62
5984.00,1.62
5983.00,1.62
5982.00,1.62
5981.00,1.61
5980.00,1.61
5979.00,1.61
5978.00,1.60
5977.00,1.60
5976.00,1.59
5975.00,1.59
5974.00,1.59
5973.00,1.58
5972.00,1.57
5971.00,1.57
5970.00,1.56
5969.00,1.56
5968.00,1.55
5967.00,1.54
5966.00,1.54
5965.00,1.53
5964.00,1.52
5963.00,1.52
5962.00,1.51
5961.00,1.50
5960.00,1.50
5959.00,1.49
5958.00,1.48
5957.00,1.48
5956.00,1.47
5955.00,1.47
5954.00,1.46
5953.00,1.45
5952.00,1.45
5951.00,1.44
5950.00,1.44
5949.00,1.43
5948.00,1.43
5947.00,1.42
5946.00,1.42
5945.00,1.42
5944.00,1.41
5943.00,1.41
5942.00,1.41
5941.00,1.41
5940.00,1.40
5939.00,1.40
5938.00,1.40
5937.00,1.40
5936.00,1.40
5935.00,1.40
5934.00,1.40
5933.00,1.39
5932.00,1.39
5931.00,1.39
5930.00,1.39
5929.00,1.39
5928.00,1.39
5927.00,1.39
5926.00,1.39
5925.00,1.38
5924.00,1.38
5923.00,1.38
5922.00,1.38
5921.00,1.38
5920.00,1.38
5919.00,1.37
5918.00,1.37
5917.00,1.37
5916.00,1.37
5915.00,1.36
5914.00,1.36
5913.00,1.36
5912.00,1.36
5911.00,1.35
5910.00,1.35
5909.00,1.35
5908.00,1.35
5907.00,1.35
5906.00,1.35
5905.00,1.35
5904.00,1.34
5903.00,1.34
5902.00,1.34
5901.00,1.34
5900.00,1.35
5899.00,1.35
5898.00,1.35
5897.00,1.35
5896.00,1.35
5895.00,1.35
5894.00,1.35
5893.00,1.36
5892.00,1.36
5891.00,1.36
5890.00,1.36
5889.00,1.37
5888.00,1.37
5887.00,1.37
5886.00,1.37
5885.00,1.38
5884.00,1.38
5883.00,1.38
5882.00,1.39
5881.00,1.39
5880.00,1.39
5879.00,1.39
5878.00,1.40
5877.00,1.40
5876.00,1.40
5875.00,1.41
5874.00,1.41
5873.00,1.41
5872.00,1.41
5871.00,1.42
5870.00,1.42
5869.00,1.42
5868.00,1.42
5867.00,1.43
5866.00,1.43
5865.00,1.43
5864.00,1.43
5863.00,1.44
5862.00,1.44
5861.00,1.44
5860.00,1.44
5859.00,1.44
5858.00,1.44
5857.00,1.44
5856.00,1.44
5855.00,1.45
5854.00,1.45
5853.00,1.45
5852.00,1.45
5851.00,1.45
5850.00,1.45
5849.00,1.45
5848.00,1.45
5847.00,1.45
5846.00,1.45
5845.00,1.45
5844.00,1.45
5843.00,1.45
5842.00,1.45
5841.00,1.45
5840.00,1.45
5839.00,1.45
5838.00,1.45
5837.00,1.45
5836.00,1.45
5835.00,1.45
5834.00,1.45
5833.00,1.45
5832.00,1.45
5831.00,1.45
5830.00,1.45
5829.00,1.45
5828.00,1.45
5827.00,1.45
5826.00,1.45
5825.00,1.45
5824.00,1.45
5823.00,1.45
5822.00,1.45
5821.00,1.45
5820.00,1.45
5819.00,1.45
5818.00,1.45
5817.00,1.45
5816.00,1.45
5815.00,1.45
5814.00,1.45
5813.00,1.45
5812.00,1.45
5811.00,1.45
5810.00,1.45
5809.00,1.45
5808.00,1.45
5807.00,1.45
5806.00,1.45
5805.00,1.45
5804.00,1.44
5803.00,1.44
5802.00,1.44
5801.00,1.44
5800.00,1.44
5799.00,1.43
5798.00,1.43
5797.00,1.43
5796.00,1.43
5795.00,1.43
5794.00,1.42
5793.00,1.42
5792.00,1.42
5791.00,1.41
5790.00,1.41
5789.00,1.41
5788.00,1.41
5787.00,1.40
5786.00,1.40
5785.00,1.40
5784.00,1.40
5783.00,1.39
5782.00,1.39
5781.00,1.39
5780.00,1.39
5779.00,1.39
5778.00,1.39
5777.00,1.38
5776.00,1.38
5775.00,1.38
5774.00,1.38
5773.00,1.38
5772.00,1.38
5771.00,1.38
5770.00,1.38
5769.00,1.38
5768.00,1.39
5767.00,1.39
5766.00,1.39
5765.00,1.39
5764.00,1.39
5763.00,1.39
5762.00,1.40
5761.00,1.40
5760.00,1.40
5759.00,1.41
5758.00,1.41
5757.00,1.41
5756.00,1.41
5755.00,1.42
5754.00,1.42
5753.00,1.43
5752.00,1.43
5751.00,1.43
5750.00,1.44
5749.00,1.44
5748.00,1.44
5747.00,1.44
5746.00,1.45
5745.00,1.45
5744.00,1.45
5743.00,1.46
5742.00,1.46
5741.00,1.46
5740.00,1.46
5739.00,1.47
5738.00,1.47
5737.00,1.47
5736.00,1.47
5735.00,1.47
5734.00,1.47
5733.00,1.48
5732.00,1.48
5731.00,1.48
5730.00,1.48
5729.00,1.48
5728.00,1.48
5727.00,1.48
5726.00,1.49
5725.00,1.49
5724.00,1.49
5723.00,1.49
5722.00,1.49
5721.00,1.49
5720.00,1.49
5719.00,1.49
5718.00,1.49
5717.00,1.49
5716.00,1.49
5715.00,1.49
5714.00,1.49
5713.00,1.49
5712.00,1.49
5711.00,1.48
5710.00,1.48
5709.00,1.48
5708.00,1.48
5707.00,1.48
5706.00,1.48
5705.00,1.48
5704.00,1.48
5703.00,1.47
5702.00,1.47
5701.00,1.47
5700.00,1.47
5699.00,1.47
5698.00,1.47
5697.00,1.46
5696.00,1.46
5695.00,1.46
5694.00,1.46
5693.00,1.46
5692.00,1.46
5691.00,1.45
5690.00,1.45
5689.00,1.45
5688.00,1.45
5687.00,1.45
5686.00,1.45
5685.00,1.45
5684.00,1.45
5683.00,1.44
5682.00,1.44
5681.00,1.44
5680.00,1.44
5679.00,1.44
5678.00,1.44
5677.00,1.44
5676.00,1.44
5675.00,1.44
5674.00,1.44
5673.00,1.44
5672.00,1.44
5671.00,1.44
5670.00,1.44
5669.00,1.44
5668.00,1.44
5667.00,1.45
5666.00,1.45
5665.00,1.45
5664.00,1.45
5663.00,1.45
5662.00,1.45
5661.00,1.45
5660.00,1.45
5659.00,1.46
5658.00,1.46
5657.00,1.46
5656.00,1.46
5655.00,1.46
5654.00,1.46
5653.00,1.46
5652.00,1.47
5651.00,1.47
5650.00,1.47
5649.00,1.47
5648.00,1.47
5647.00,1.47
5646.00,1.48
5645.00,1.48
5644.00,1.48
5643.00,1.48
5642.00,1.48
5641.00,1.48
5640.00,1.49
5639.00,1.49
5638.00,1.49
5637.00,1.49
5636.00,1.49
5635.00,1.49
5634.00,1.49
5633.00,1.50
5632.00,1.50
5631.00,1.50
5630.00,1.50
5629.00,1.50
5628.00,1.50
5627.00,1.51
5626.00,1.51
5625.00,1.51
5624.00,1.51
5623.00,1.51
5622.00,1.51
5621.00,1.52
5620.00,1.52
5619.00,1.52
5618.00,1.52
5617.00,1.52
5616.00,1.52
5615.00,1.52
5614.00,1.53
5613.00,1.53
5612.00,1.53
5611.00,1.53
5610.00,1.53
5609.00,1.53
5608.00,1.53
5607.00,1.54
5606.00,1.54
5605.00,1.54
5604.00,1.54
5603.00,1.54
5602.00,1.54
5601.00,1.55
5600.00,1.55
5599.00,1.55
5598.00,1.55
5597.00,1.55
5596.00,1.55
5595.00,1.55
5594.00,1.55
5593.00,1.56
5592.00,1.56
5591.00,1.56
5590.00,1.56
5589.00,1.56
5588.00,1.56
5587.00,1.56
5586.00,1.56
5585.00,1.57
5584.00,1.57
5583.00,1.57
5582.00,1.57
5581.00,1.57
5580.00,1.57
5579.00,1.57
5578.00,1.57
5577.00,1.58
5576.00,1.58
5575.00,1.58
5574.00,1.58
5573.00,1.58
5572.00,1.58
5571.00,1.58
5570.00,1.59
5569.00,1.59
5568.00,1.59
5567.00,1.59
5566.00,1.59
5565.00,1.59
5564.00,1.59
5563.00,1.60
5562.00,1.60
5561.00,1.60
5560.00,1.60
5559.00,1.60
5558.00,1.60
5557.00,1.60
5556.00,1.60
5555.00,1.60
5554.00,1.61
5553.00,1.61
5552.00,1.61
5551.00,1.61
5550.00,1.61
5549.00,1.61
5548.00,1.61
5547.00,1.61
5546.00,1.61
5545.00,1.61
5544.00,1.62
5543.00,1.62
5542.00,1.62
5541.00,1.62
5540.00,1.62
5539.00,1.62
5538.00,1.62
5537.00,1.62
5536.00,1.62
5535.00,1.62
5534.00,1.63
5533.00,1.63
5532.00,1.63
5531.00,1.63
5530.00,1.63
5529.00,1.63
5528.00,1.63
5527.00,1.63
5526.00,1.63
5525.00,1.64
5524.00,1.64
5523.00,1.64
5522.00,1.64
5521.00,1.64
5520.00,1.64
5519.00,1.64
5518.00,1.64
5517.00,1.65
5516.00,1.65
5515.00,1.65
5514.00,1.65
5513.00,1.65
5512.00,1.65
5511.00,1.65
5510.00,1.65
5509.00,1.65
5508.00,1.65
5507.00,1.65
5506.00,1.65
5505.00,1.65
5504.00,1.65
5503.00,1.65
5502.00,1.65
5501.00,1.65
5500.00,1.65
5499.00,1.65
5498.00,1.65
5497.00,1.65
5496.00,1.65
5495.00,1.65
5494.00,1.65
5493.00,1.65
5492.00,1.65
5491.00,1.66
5490.00,1.66
5489.00,1.66
5488.00,1.66
5487.00,1.66
5486.00,1.66
5485.00,1.66
5484.00,1.66
5483.00,1.67
5482.00,1.67
5481.00,1.67
5480.00,1.67
5479.00,1.67
5478.00,1.67
5477.00,1.67
5476.00,1.68
5475.00,1.68
5474.00,1.68
5473.00,1.68
5472.00,1.68
5471.00,1.68
5470.00,1.68
5469.00,1.68
5468.00,1.68
5467.00,1.68
5466.00,1.69
5465.00,1.69
5464.00,1.69
5463.00,1.69
5462.00,1.69
5461.00,1.69
5460.00,1.69
5459.00,1.69
5458.00,1.69
5457.00,1.69
5456.00,1.69
5455.00,1.69
5454.00,1.69
5453.00,1.69
5452.00,1.70
5451.00,1.70
5450.00,1.70
5449.00,1.70
5448.00,1.70
5447.00,1.70
5446.00,1.70
5445.00,1.70
5444.00,1.70
5443.00,1.70
5442.00,1.70
5441.00,1.70
5440.00,1.70
5439.00,1.70
5438.00,1.70
5437.00,1.70
5436.00,1.70
5435.00,1.70
5434.00,1.71
5433.00,1.71
5432.00,1.71
5431.00,1.71
5430.00,1.71
5429.00,1.71
5428.00,1.71
5427.00,1.71
5426.00,1.71
5425.00,1.71
5424.00,1.71
5423.00,1.71
5422.00,1.71
5421.00,1.71
5420.00,1.71
5419.00,1.71
5418.00,1.71
5417.00,1.71
5416.00,1.71
5415.00,1.71
5414.00,1.71
5413.00,1.71
5412.00,1.71
5411.00,1.71
5410.00,1.71
5409.00,1.71
5408.00,1.71
5407.00,1.71
5406.00,1.71
5405.00,1.71
5404.00,1.71
5403.00,1.71
5402.00,1.71
5401.00,1.71
5400.00,1.71
5399.00,1.71
5398.00,1.70
5397.00,1.70
5396.00,1.70
5395.00,1.70
5394.00,1.70
5393.00,1.70
5392.00,1.70
5391.00,1.70
5390.00,1.70
5389.00,1.69
5388.00,1.69
5387.00,1.69
5386.00,1.69
5385.00,1.69
5384.00,1.68
5383.00,1.68
5382.00,1.68
5381.00,1.68
5380.00,1.67
5379.00,1.67
5378.00,1.67
5377.00,1.66
5376.00,1.66
5375.00,1.66
5374.00,1.65
5373.00,1.65
5372.00,1.65
5371.00,1.64
5370.00,1.64
5369.00,1.63
5368.00,1.63
5367.00,1.62
5366.00,1.62
5365.00,1.61
5364.00,1.61
5363.00,1.60
5362.00,1.59
5361.00,1.59
5360.00,1.58
5359.00,1.57
5358.00,1.57
5357.00,1.56
5356.00,1.55
5355.00,1.54
5354.00,1.54
5353.00,1.53
5352.00,1.52
5351.00,1.51
5350.00,1.50
5349.00,1.49
5348.00,1.48
5347.00,1.47
5346.00,1.46
5345.00,1.45
5344.00,1.44
5343.00,1.43
5342.00,1.42
5341.00,1.41
5340.00,1.40
5339.00,1.39
5338.00,1.38
5337.00,1.37
5336.00,1.35
5335.00,1.34
5334.00,1.33
5333.00,1.32
5332.00,1.30
5331.00,1.29
5330.00,1.28
5329.00,1.26
5328.00,1.25
5327.00,1.24
5326.00,1.22
5325.00,1.21
5324.00,1.20
5323.00,1.18
5322.00,1.17
5321.00,1.16
5320.00,1.14
5319.00,1.13
5318.00,1.11
5317.00,1.10
5316.00,1.09
5315.00,1.07
5314.00,1.06
5313.00,1.05
5312.00,1.03
5311.00,1.02
5310.00,1.01
5309.00,0.99
5308.00,0.98
5307.00,0.97
5306.00,0.96
5305.00,0.95
5304.00,0.94
5303.00,0.93
5302.00,0.92
5301.00,0.91
5300.00,0.90
5299.00,0.89
5298.00,0.88
5297.00,0.87
5296.00,0.86
5295.00,0.85
5294.00,0.85
5293.00,0.84
5292.00,0.83
5291.00,0.82
5290.00,0.82
5289.00,0.81
5288.00,0.80
5287.00,0.80
5286.00,0.79
5285.00,0.79
5284.00,0.78
5283.00,0.78
5282.00,0.77
5281.00,0.77
5280.00,0.76
5279.00,0.76
5278.00,0.75
5277.00,0.75
5276.00,0.75
5275.00,0.74
5274.00,0.74
5273.00,0.74
5272.00,0.73
5271.00,0.73
5270.00,0.73
5269.00,0.73
5268.00,0.72
5267.00,0.72
5266.00,0.72
5265.00,0.72
5264.00,0.72
5263.00,0.72
5262.00,0.71
5261.00,0.71
5260.00,0.71
5259.00,0.71
5258.00,0.71
5257.00,0.71
5256.00,0.70
5255.00,0.70
5254.00,0.70
5253.00,0.70
5252.00,0.70
5251.00,0.70
5250.00,0.70
5249.00,0.70
5248.00,0.69
5247.00,0.69
5246.00,0.69
5245.00,0.69
5244.00,0.69
5243.00,0.69
5242.00,0.69
5241.00,0.69
5240.00,0.69
5239.00,0.69
5238.00,0.69
5237.00,0.69
5236.00,0.69
5235.00,0.69
5234.00,0.68
5233.00,0.68
5232.00,0.68
5231.00,0.68
5230.00,0.68
5229.00,0.68
5228.00,0.68
5227.00,0.68
5226.00,0.68
5225.00,0.68
5224.00,0.68
5223.00,0.68
5222.00,0.68
5221.00,0.68
5220.00,0.68
5219.00,0.68
5218.00,0.68
5217.00,0.68
5216.00,0.68
5215.00,0.68
5214.00,0.68
5213.00,0.68
5212.00,0.68
5211.00,0.68
5210.00,0.67
5209.00,0.67
5208.00,0.67
5207.00,0.67
5206.00,0.67
5205.00,0.67
5204.00,0.67
5203.00,0.67
5202.00,0.67
5201.00,0.67
5200.00,0.67
5199.00,0.67
5198.00,0.67
5197.00,0.67
5196.00,0.68
5195.00,0.68
5194.00,0.68
5193.00,0.68
5192.00,0.68
5191.00,0.68
5190.00,0.68
5189.00,0.68
5188.00,0.68
5187.00,0.68
5186.00,0.68
5185.00,0.68
5184.00,0.69
5183.00,0.69
5182.00,0.69
5181.00,0.69
5180.00,0.69
5179.00,0.69
5178.00,0.69
5177.00,0.69
5176.00,0.69
5175.00,0.69
5174.00,0.69
5173.00,0.69
5172.00,0.69
5171.00,0.69
5170.00,0.69
5169.00,0.69
5168.00,0.69
5167.00,0.69
5166.00,0.69
5165.00,0.69
5164.00,0.69
5163.00,0.69
5162.00,0.69
5161.00,0.69
5160.00,0.69
5159.00,0.69
5158.00,0.69
5157.00,0.69
5156.00,0.70
5155.00,0.70
5154.00,0.70
5153.00,0.70
5152.00,0.70
5151.00,0.70
5150.00,0.70
5149.00,0.70
5148.00,0.70
5147.00,0.70
5146.00,0.70
5145.00,0.70
5144.00,0.70
5143.00,0.70
5142.00,0.70
5141.00,0.70
5140.00,0.70
5139.00,0.70
5138.00,0.71
5137.00,0.71
5136.00,0.71
5135.00,0.71
5134.00,0.71
5133.00,0.71
5132.00,0.71
5131.00,0.71
5130.00,0.71
5129.00,0.71
5128.00,0.71
5127.00,0.71
5126.00,0.72
5125.00,0.72
5124.00,0.72
5123.00,0.72
5122.00,0.72
5121.00,0.72
5120.00,0.72
5119.00,0.72
5118.00,0.72
5117.00,0.72
5116.00,0.73
5115.00,0.73
5114.00,0.73
5113.00,0.73
5112.00,0.73
5111.00,0.73
5110.00,0.73
5109.00,0.73
5108.00,0.73
5107.00,0.74
5106.00,0.74
5105.00,0.74
5104.00,0.74
5103.00,0.74
5102.00,0.74
5101.00,0.74
5100.00,0.74
5099.00,0.74
5098.00,0.74
5097.00,0.74
5096.00,0.74
5095.00,0.74
5094.00,0.75
5093.00,0.75
5092.00,0.75
5091.00,0.75
5090.00,0.75
5089.00,0.75
5088.00,0.75
5087.00,0.75
5086.00,0.75
5085.00,0.75
5084.00,0.75
5083.00,0.75
5082.00,0.75
5081.00,0.76
5080.00,0.76
5079.00,0.76
5078.00,0.76
5077.00,0.76
5076.00,0.76
5075.00,0.76
5074.00,0.76
5073.00,0.77
5072.00,0.77
5071.00,0.77
5070.00,0.77
5069.00,0.77
5068.00,0.77
5067.00,0.77
5066.00,0.77
5065.00,0.77
5064.00,0.77
5063.00,0.78
5062.00,0.78
5061.00,0.78
5060.00,0.78
5059.00,0.78
5058.00,0.78
5057.00,0.78
5056.00,0.79
5055.00,0.79
5054.00,0.79
5053.00,0.79
5052.00,0.79
5051.00,0.79
5050.00,0.80
5049.00,0.80
5048.00,0.80
5047.00,0.80
5046.00,0.80
5045.00,0.80
5044.00,0.81
5043.00,0.81
5042.00,0.81
5041.00,0.81
5040.00,0.81
5039.00,0.81
5038.00,0.82
5037.00,0.82
5036.00,0.82
5035.00,0.82
5034.00,0.82
5033.00,0.82
5032.00,0.83
5031.00,0.83
5030.00,0.83
5029.00,0.83
5028.00,0.83
5027.00,0.83
5026.00,0.84
5025.00,0.84
5024.00,0.84
5023.00,0.84
5022.00,0.84
5021.00,0.84
5020.00,0.84
5019.00,0.85
5018.00,0.85
5017.00,0.85
5016.00,0.85
5015.00,0.85
5014.00,0.85
5013.00,0.86
5012.00,0.86
5011.00,0.86
5010.00,0.86
5009.00,0.86
5008.00,0.86
5007.00,0.87
5006.00,0.87
5005.00,0.87
5004.00,0.87
5003.00,0.87
5002.00,0.87
5001.00,0.88
5000.00,0.88
4999.00,0.88
4998.00,0.88
4997.00,0.88
4996.00,0.88
4995.00,0.88
4994.00,0.89
4993.00,0.89
4992.00,0.89
4991.00,0.89
4990.00,0.89
4989.00,0.90
4988.00,0.90
4987.00,0.90
4986.00,0.90
4985.00,0.90
4984.00,0.91
4983.00,0.91
4982.00,0.91
4981.00,0.91
4980.00,0.91
4979.00,0.92
4978.00,0.92
4977.00,0.92
4976.00,0.92
4975.00,0.92
4974.00,0.92
4973.00,0.93
4972.00,0.93
4971.00,0.93
4970.00,0.93
4969.00,0.93
4968.00,0.94
4967.00,0.94
4966.00,0.94
4965.00,0.94
4964.00,0.94
4963.00,0.94
4962.00,0.95
4961.00,0.95
4960.00,0.95
4959.00,0.95
4958.00,0.95
4957.00,0.96
4956.00,0.96
4955.00,0.96
4954.00,0.96
4953.00,0.96
4952.00,0.97
4951.00,0.97
4950.00,0.97
4949.00,0.97
4948.00,0.97
4947.00,0.97
4946.00,0.97
4945.00,0.98
4944.00,0.98
4943.00,0.98
4942.00,0.98
4941.00,0.98
4940.00,0.98
4939.00,0.98
4938.00,0.98
4937.00,0.98
4936.00,0.98
4935.00,0.99
4934.00,0.99
4933.00,0.99
4932.00,0.99
4931.00,0.99
4930.00,0.99
4929.00,0.99
4928.00,0.99
4927.00,1.00
4926.00,1.00
4925.00,1.00
4924.00,1.00
4923.00,1.00
4922.00,1.00
4921.00,1.01
4920.00,1.01
4919.00,1.01
4918.00,1.01
4917.00,1.01
4916.00,1.01
4915.00,1.01
4914.00,1.02
4913.00,1.02
4912.00,1.02
4911.00,1.02
4910.00,1.02
4909.00,1.02
4908.00,1.02
4907.00,1.02
4906.00,1.02
4905.00,1.03
4904.00,1.03
4903.00,1.03
4902.00,1.03
4901.00,1.03
4900.00,1.03
4899.00,1.03
4898.00,1.03
4897.00,1.03
4896.00,1.03
4895.00,1.04
4894.00,1.04
4893.00,1.04
4892.00,1.04
4891.00,1.04
4890.00,1.04
4889.00,1.04
4888.00,1.04
4887.00,1.04
4886.00,1.04
4885.00,1.04
4884.00,1.04
4883.00,1.04
4882.00,1.04
4881.00,1.04
4880.00,1.04
4879.00,1.04
4878.00,1.05
4877.00,1.05
4876.00,1.05
4875.00,1.05
4874.00,1.05
4873.00,1.05
4872.00,1.05
4871.00,1.05
4870.00,1.05
4869.00,1.06
4868.00,1.06
4867.00,1.06
4866.00,1.06
4865.00,1.06
4864.00,1.06
4863.00,1.06
4862.00,1.06
4861.00,1.06
4860.00,1.07
4859.00,1.07
4858.00,1.07
4857.00,1.07
4856.00,1.07
4855.00,1.07
4854.00,1.07
4853.00,1.07
4852.00,1.07
4851.00,1.07
4850.00,1.07
4849.00,1.07
4848.00,1.07
4847.00,1.07
4846.00,1.08
4845.00,1.08
4844.00,1.08
4843.00,1.08
4842.00,1.08
4841.00,1.08
4840.00,1.08
4839.00,1.08
4838.00,1.08
4837.00,1.08
4836.00,1.09
4835.00,1.09
4834.00,1.09
4833.00,1.09
4832.00,1.09
4831.00,1.10
4830.00,1.10
4829.00,1.10
4828.00,1.10
4827.00,1.11
4826.00,1.11
4825.00,1.11
4824.00,1.11
4823.00,1.11
4822.00,1.12
4821.00,1.12
4820.00,1.12
4819.00,1.12
4818.00,1.12
4817.00,1.12
4816.00,1.12
4815.00,1.12
4814.00,1.13
4813.00,1.13
4812.00,1.13
4811.00,1.13
4810.00,1.13
4809.00,1.13
4808.00,1.13
4807.00,1.13
4806.00,1.14
4805.00,1.14
4804.00,1.14
4803.00,1.14
4802.00,1.14
4801.00,1.15
4800.00,1.15
4799.00,1.15
4798.00,1.15
4797.00,1.16
4796.00,1.16
4795.00,1.16
4794.00,1.16
4793.00,1.17
4792.00,1.17
4791.00,1.17
4790.00,1.17
4789.00,1.18
4788.00,1.18
4787.00,1.18
4786.00,1.18
4785.00,1.19
4784.00,1.19
4783.00,1.19
4782.00,1.19
4781.00,1.20
4780.00,1.20
4779.00,1.20
4778.00,1.20
4777.00,1.21
4776.00,1.21
4775.00,1.21
4774.00,1.21
4773.00,1.22
4772.00,1.22
4771.00,1.22
4770.00,1.22
4769.00,1.23
4768.00,1.23
4767.00,1.23
4766.00,1.24
4765.00,1.24
4764.00,1.24
4763.00,1.24
4762.00,1.25
4761.00,1.25
4760.00,1.25
4759.00,1.26
4758.00,1.26
4757.00,1.26
4756.00,1.26
4755.00,1.27
4754.00,1.27
4753.00,1.27
4752.00,1.27
4751.00,1.28
4750.00,1.28
4749.00,1.28
4748.00,1.28
4747.00,1.29
4746.00,1.29
4745.00,1.29
4744.00,1.29
4743.00,1.30
4742.00,1.30
4741.00,1.30
4740.00,1.30
4739.00,1.31
4738.00,1.31
4737.00,1.31
4736.00,1.32
4735.00,1.32
4734.00,1.32
4733.00,1.32
4732.00,1.33
4731.00,1.33
4730.00,1.33
4729.00,1.34
4728.00,1.34
4727.00,1.34
4726.00,1.35
4725.00,1.35
4724.00,1.35
4723.00,1.36
4722.00,1.36
4721.00,1.36
4720.00,1.36
4719.00,1.37
4718.00,1.37
4717.00,1.37
4716.00,1.38
4715.00,1.38
4714.00,1.38
4713.00,1.39
4712.00,1.39
4711.00,1.39
4710.00,1.39
4709.00,1.40
4708.00,1.40
4707.00,1.40
4706.00,1.41
4705.00,1.41
4704.00,1.41
4703.00,1.42
4702.00,1.42
4701.00,1.42
4700.00,1.42
4699.00,1.43
4698.00,1.43
4697.00,1.43
4696.00,1.43
4695.00,1.43
4694.00,1.44
4693.00,1.44
4692.00,1.44
4691.00,1.44
4690.00,1.44
4689.00,1.45
4688.00,1.45
4687.00,1.45
4686.00,1.45
4685.00,1.45
4684.00,1.46
4683.00,1.46
4682.00,1.46
4681.00,1.46
4680.00,1.46
4679.00,1.47
4678.00,1.47
4677.00,1.47
4676.00,1.47
4675.00,1.48
4674.00,1.48
4673.00,1.48
4672.00,1.48
4671.00,1.48
4670.00,1.49
4669.00,1.49
4668.00,1.49
4667.00,1.50
4666.00,1.50
4665.00,1.50
4664.00,1.51
4663.00,1.51
4662.00,1.51
4661.00,1.52
4660.00,1.52
4659.00,1.52
4658.00,1.52
4657.00,1.53
4656.00,1.53
4655.00,1.53
4654.00,1.53
4653.00,1.54
4652.00,1.54
4651.00,1.54
4650.00,1.54
4649.00,1.55
4648.00,1.55
4647.00,1.55
4646.00,1.55
4645.00,1.55
4644.00,1.55
4643.00,1.56
4642.00,1.56
4641.00,1.56
4640.00,1.56
4639.00,1.56
4638.00,1.57
4637.00,1.57
4636.00,1.57
4635.00,1.57
4634.00,1.57
4633.00,1.57
4632.00,1.57
4631.00,1.58
4630.00,1.58
4629.00,1.58
4628.00,1.58
4627.00,1.58
4626.00,1.58
4625.00,1.58
4624.00,1.59
4623.00,1.59
4622.00,1.59
4621.00,1.59
4620.00,1.59
4619.00,1.59
4618.00,1.59
4617.00,1.59
4616.00,1.60
4615.00,1.60
4614.00,1.60
4613.00,1.60
4612.00,1.60
4611.00,1.60
4610.00,1.60
4609.00,1.60
4608.00,1.60
4607.00,1.61
4606.00,1.61
4605.00,1.61
4604.00,1.61
4603.00,1.61
4602.00,1.61
4601.00,1.61
4600.00,1.61
4599.00,1.61
4598.00,1.61
4597.00,1.62
4596.00,1.62
4595.00,1.62
4594.00,1.62
4593.00,1.62
4592.00,1.62
4591.00,1.63
4590.00,1.63
4589.00,1.63
4588.00,1.63
4587.00,1.64
4586.00,1.64
4585.00,1.64
4584.00,1.64
4583.00,1.64
4582.00,1.65
4581.00,1.65
4580.00,1.65
4579.00,1.65
4578.00,1.65
4577.00,1.66
4576.00,1.66
4575.00,1.66
4574.00,1.66
4573.00,1.66
4572.00,1.66
4571.00,1.66
4570.00,1.66
4569.00,1.67
4568.00,1.67
4567.00,1.67
4566.00,1.67
4565.00,1.67
4564.00,1.67
4563.00,1.67
4562.00,1.67
4561.00,1.67
4560.00,1.67
4559.00,1.67
4558.00,1.68
4557.00,1.68
4556.00,1.68
4555.00,1.68
4554.00,1.68
4553.00,1.68
4552.00,1.68
4551.00,1.68
4550.00,1.69
4549.00,1.69
4548.00,1.69
4547.00,1.69
4546.00,1.69
4545.00,1.69
4544.00,1.70
4543.00,1.70
4542.00,1.70
4541.00,1.70
4540.00,1.70
4539.00,1.70
4538.00,1.70
4537.00,1.70
4536.00,1.70
4535.00,1.70
4534.00,1.70
4533.00,1.71
4532.00,1.71
4531.00,1.71
4530.00,1.71
4529.00,1.71
4528.00,1.71
4527.00,1.71
4526.00,1.71
4525.00,1.71
4524.00,1.71
4523.00,1.71
4522.00,1.71
4521.00,1.71
4520.00,1.71
4519.00,1.71
4518.00,1.71
4517.00,1.71
4516.00,1.71
4515.00,1.71
4514.00,1.71
4513.00,1.71
4512.00,1.71
4511.00,1.71
4510.00,1.71
4509.00,1.71
4508.00,1.71
4507.00,1.71
4506.00,1.71
4505.00,1.71
4504.00,1.71
4503.00,1.71
4502.00,1.71
4501.00,1.71
4500.00,1.71
4499.00,1.71
4498.00,1.71
4497.00,1.70
4496.00,1.70
4495.00,1.70
4494.00,1.70
4493.00,1.70
4492.00,1.70
4491.00,1.70
4490.00,1.70
4489.00,1.69
4488.00,1.69
4487.00,1.69
4486.00,1.69
4485.00,1.68
4484.00,1.68
4483.00,1.68
4482.00,1.68
4481.00,1.67
4480.00,1.67
4479.00,1.67
4478.00,1.66
4477.00,1.66
4476.00,1.66
4475.00,1.65
4474.00,1.65
4473.00,1.65
4472.00,1.64
4471.00,1.64
4470.00,1.64
4469.00,1.63
4468.00,1.63
4467.00,1.63
4466.00,1.62
4465.00,1.62
4464.00,1.61
4463.00,1.61
4462.00,1.60
4461.00,1.60
4460.00,1.59
4459.00,1.59
4458.00,1.58
4457.00,1.57
4456.00,1.57
4455.00,1.56
4454.00,1.55
4453.00,1.55
4452.00,1.54
4451.00,1.53
4450.00,1.52
4449.00,1.51
4448.00,1.50
4447.00,1.49
4446.00,1.48
4445.00,1.47
4444.00,1.46
4443.00,1.45
4442.00,1.44
4441.00,1.43
4440.00,1.42
4439.00,1.41
4438.00,1.40
4437.00,1.38
4436.00,1.37
4435.00,1.36
4434.00,1.35
4433.00,1.34
4432.00,1.32
4431.00,1.31
4430.00,1.30
4429.00,1.29
4428.00,1.28
4427.00,1.27
4426.00,1.26
4425.00,1.26
4424.00,1.25
4423.00,1.24
4422.00,1.24
4421.00,1.23
4420.00,1.23
4419.00,1.22
4418.00,1.22
4417.00,1.22
4416.00,1.21
4415.00,1.21
4414.00,1.21
4413.00,1.21
4412.00,1.21
4411.00,1.20
4410.00,1.20
4409.00,1.20
4408.00,1.20
4407.00,1.20
4406.00,1.20
4405.00,1.21
4404.00,1.21
4403.00,1.21
4402.00,1.21
4401.00,1.21
4400.00,1.22
4399.00,1.22
4398.00,1.22
4397.00,1.23
4396.00,1.23
4395.00,1.23
4394.00,1.24
4393.00,1.24
4392.00,1.24
4391.00,1.25
4390.00,1.25
4389.00,1.26
4388.00,1.26
4387.00,1.27
4386.00,1.27
4385.00,1.28
4384.00,1.28
4383.00,1.29
4382.00,1.29
4381.00,1.30
4380.00,1.30
4379.00,1.30
4378.00,1.31
4377.00,1.31
4376.00,1.32
4375.00,1.32
4374.00,1.32
4373.00,1.32
4372.00,1.32
4371.00,1.32
4370.00,1.32
4369.00,1.32
4368.00,1.32
4367.00,1.32
4366.00,1.32
4365.00,1.32
4364.00,1.31
4363.00,1.31
4362.00,1.31
4361.00,1.30
4360.00,1.30
4359.00,1.30
4358.00,1.29
4357.00,1.29
4356.00,1.29
4355.00,1.28
4354.00,1.28
4353.00,1.28
4352.00,1.27
4351.00,1.27
4350.00,1.27
4349.00,1.26
4348.00,1.26
4347.00,1.26
4346.00,1.26
4345.00,1.26
4344.00,1.26
4343.00,1.26
4342.00,1.26
4341.00,1.26
4340.00,1.26
4339.00,1.26
4338.00,1.26
4337.00,1.26
4336.00,1.27
4335.00,1.27
4334.00,1.27
4333.00,1.28
4332.00,1.28
4331.00,1.28
4330.00,1.29
4329.00,1.29
4328.00,1.30
4327.00,1.30
4326.00,1.31
4325.00,1.31
4324.00,1.32
4323.00,1.32
4322.00,1.33
4321.00,1.34
4320.00,1.34
4319.00,1.35
4318.00,1.35
4317.00,1.36
4316.00,1.37
4315.00,1.37
4314.00,1.38
4313.00,1.39
4312.00,1.39
4311.00,1.40
4310.00,1.41
4309.00,1.41
4308.00,1.42
4307.00,1.43
4306.00,1.43
4305.00,1.44
4304.00,1.44
4303.00,1.45
4302.00,1.45
4301.00,1.46
4300.00,1.46
4299.00,1.47
4298.00,1.47
4297.00,1.48
4296.00,1.48
4295.00,1.48
4294.00,1.49
4293.00,1.49
4292.00,1.50
4291.00,1.50
4290.00,1.50
4289.00,1.51
4288.00,1.51
4287.00,1.51
4286.00,1.51
4285.00,1.52
4284.00,1.52
4283.00,1.52
4282.00,1.52
4281.00,1.52
4280.00,1.52
4279.00,1.52
4278.00,1.52
4277.00,1.52
4276.00,1.51
4275.00,1.51
4274.00,1.51
4273.00,1.51
4272.00,1.51
4271.00,1.50
4270.00,1.50
4269.00,1.50
4268.00,1.49
4267.00,1.49
4266.00,1.49
4265.00,1.48
4264.00,1.48
4263.00,1.48
4262.00,1.48
4261.00,1.47
4260.00,1.47
4259.00,1.47
4258.00,1.47
4257.00,1.47
4256.00,1.47
4255.00,1.47
4254.00,1.47
4253.00,1.47
4252.00,1.47
4251.00,1.47
4250.00,1.48
4249.00,1.48
4248.00,1.48
4247.00,1.48
4246.00,1.48
4245.00,1.49
4244.00,1.49
4243.00,1.49
4242.00,1.50
4241.00,1.50
4240.00,1.50
4239.00,1.51
4238.00,1.51
4237.00,1.51
4236.00,1.52
4235.00,1.52
4234.00,1.52
4233.00,1.53
4232.00,1.53
4231.00,1.54
4230.00,1.54
4229.00,1.54
4228.00,1.55
4227.00,1.55
4226.00,1.55
4225.00,1.56
4224.00,1.56
4223.00,1.56
4222.00,1.57
4221.00,1.57
4220.00,1.57
4219.00,1.58
4218.00,1.58
4217.00,1.58
4216.00,1.58
4215.00,1.58
4214.00,1.59
4213.00,1.59
4212.00,1.59
4211.00,1.59
4210.00,1.59
4209.00,1.59
4208.00,1.59
4207.00,1.59
4206.00,1.59
4205.00,1.59
4204.00,1.60
4203.00,1.60
4202.00,1.60
4201.00,1.60
4200.00,1.60
4199.00,1.60
4198.00,1.60
4197.00,1.60
4196.00,1.60
4195.00,1.59
4194.00,1.59
4193.00,1.59
4192.00,1.59
4191.00,1.59
4190.00,1.59
4189.00,1.59
4188.00,1.59
4187.00,1.58
4186.00,1.58
4185.00,1.58
4184.00,1.58
4183.00,1.58
4182.00,1.58
4181.00,1.58
4180.00,1.58
4179.00,1.58
4178.00,1.58
4177.00,1.57
4176.00,1.58
4175.00,1.58
4174.00,1.58
4173.00,1.58
4172.00,1.58
4171.00,1.58
4170.00,1.58
4169.00,1.58
4168.00,1.58
4167.00,1.58
4166.00,1.58
4165.00,1.58
4164.00,1.58
4163.00,1.58
4162.00,1.58
4161.00,1.58
4160.00,1.58
4159.00,1.58
4158.00,1.58
4157.00,1.58
4156.00,1.58
4155.00,1.58
4154.00,1.58
4153.00,1.57
4152.00,1.57
4151.00,1.57
4150.00,1.57
4149.00,1.57
4148.00,1.57
4147.00,1.57
4146.00,1.57
4145.00,1.57
4144.00,1.57
4143.00,1.57
4142.00,1.57
4141.00,1.57
4140.00,1.58
4139.00,1.58
4138.00,1.58
4137.00,1.58
4136.00,1.58
4135.00,1.58
4134.00,1.58
4133.00,1.59
4132.00,1.59
4131.00,1.59
4130.00,1.59
4129.00,1.59
4128.00,1.59
4127.00,1.59
4126.00,1.60
4125.00,1.60
4124.00,1.60
4123.00,1.60
4122.00,1.60
4121.00,1.60
4120.00,1.60
4119.00,1.60
4118.00,1.60
4117.00,1.60
4116.00,1.60
4115.00,1.60
4114.00,1.60
4113.00,1.60
4112.00,1.60
4111.00,1.60
4110.00,1.60
4109.00,1.59
4108.00,1.59
4107.00,1.59
4106.00,1.59
4105.00,1.59
4104.00,1.59
4103.00,1.59
4102.00,1.59
4101.00,1.59
4100.00,1.59
4099.00,1.58
4098.00,1.58
4097.00,1.58
4096.00,1.58
4095.00,1.58
4094.00,1.58
4093.00,1.58
4092.00,1.58
4091.00,1.58
4090.00,1.58
4089.00,1.58
4088.00,1.58
4087.00,1.58
4086.00,1.58
4085.00,1.58
4084.00,1.58
4083.00,1.58
4082.00,1.58
4081.00,1.59
4080.00,1.59
4079.00,1.59
4078.00,1.59
4077.00,1.59
4076.00,1.59
4075.00,1.59
4074.00,1.59
4073.00,1.59
4072.00,1.59
4071.00,1.59
4070.00,1.59
4069.00,1.59
4068.00,1.59
4067.00,1.59
4066.00,1.59
4065.00,1.59
4064.00,1.59
4063.00,1.59
4062.00,1.59
4061.00,1.59
4060.00,1.59
4059.00,1.59
4058.00,1.59
4057.00,1.59
4056.00,1.59
4055.00,1.59
4054.00,1.59
4053.00,1.59
4052.00,1.60
4051.00,1.60
4050.00,1.60
4049.00,1.60
4048.00,1.60
4047.00,1.60
4046.00,1.60
4045.00,1.60
4044.00,1.60
4043.00,1.60
4042.00,1.60
4041.00,1.60
4040.00,1.60
4039.00,1.60
4038.00,1.60
4037.00,1.60
4036.00,1.60
4035.00,1.61
4034.00,1.61
4033.00,1.61
4032.00,1.61
4031.00,1.62
4030.00,1.62
4029.00,1.62
4028.00,1.62
4027.00,1.63
4026.00,1.63
4025.00,1.63
4024.00,1.64
4023.00,1.64
4022.00,1.64
4021.00,1.65
4020.00,1.65
4019.00,1.65
4018.00,1.65
4017.00,1.65
4016.00,1.66
4015.00,1.66
4014.00,1.66
4013.00,1.67
4012.00,1.67
4011.00,1.67
4010.00,1.67
4009.00,1.68
4008.00,1.68
4007.00,1.68
4006.00,1.69
4005.00,1.69
4004.00,1.70
4003.00,1.70
4002.00,1.70
4001.00,1.71
4000.00,1.71
