创建为新数据集,样品 070 用户 Administrator 日期 星期五, 七月 20 2018
cm-1,%T
10000.00,1.28
9999.00,1.28
9998.00,1.28
9997.00,1.28
9996.00,1.28
9995.00,1.28
9994.00,1.28
9993.00,1.28
9992.00,1.28
9991.00,1.28
9990.00,1.28
9989.00,1.28
9988.00,1.28
9987.00,1.28
9986.00,1.28
9985.00,1.28
9984.00,1.28
9983.00,1.28
9982.00,1.28
9981.00,1.28
9980.00,1.28
9979.00,1.28
9978.00,1.28
9977.00,1.28
9976.00,1.28
9975.00,1.28
9974.00,1.28
9973.00,1.28
9972.00,1.27
9971.00,1.27
9970.00,1.27
9969.00,1.27
9968.00,1.27
9967.00,1.27
9966.00,1.27
9965.00,1.27
9964.00,1.27
9963.00,1.27
9962.00,1.27
9961.00,1.27
9960.00,1.27
9959.00,1.27
9958.00,1.27
9957.00,1.27
9956.00,1.27
9955.00,1.27
9954.00,1.27
9953.00,1.27
9952.00,1.27
9951.00,1.27
9950.00,1.27
9949.00,1.27
9948.00,1.27
9947.00,1.27
9946.00,1.26
9945.00,1.26
9944.00,1.26
9943.00,1.26
9942.00,1.26
9941.00,1.26
9940.00,1.26
9939.00,1.25
9938.00,1.25
9937.00,1.25
9936.00,1.26
9935.00,1.26
9934.00,1.26
9933.00,1.26
9932.00,1.26
9931.00,1.26
9930.00,1.26
9929.00,1.26
9928.00,1.26
9927.00,1.26
9926.00,1.26
9925.00,1.26
9924.00,1.26
9923.00,1.26
9922.00,1.26
9921.00,1.25
9920.00,1.25
9919.00,1.25
9918.00,1.25
9917.00,1.24
9916.00,1.24
9915.00,1.24
9914.00,1.24
9913.00,1.24
9912.00,1.24
9911.00,1.24
9910.00,1.24
9909.00,1.24
9908.00,1.24
9907.00,1.24
9906.00,1.24
9905.00,1.24
9904.00,1.24
9903.00,1.24
9902.00,1.24
9901.00,1.24
9900.00,1.25
9899.00,1.25
9898.00,1.25
9897.00,1.25
9896.00,1.25
9895.00,1.25
9894.00,1.25
9893.00,1.25
9892.00,1.26
9891.00,1.26
9890.00,1.26
9889.00,1.26
9888.00,1.26
9887.00,1.26
9886.00,1.26
9885.00,1.27
9884.00,1.27
9883.00,1.27
9882.00,1.27
9881.00,1.27
9880.00,1.27
9879.00,1.27
9878.00,1.27
9877.00,1.27
9876.00,1.27
9875.00,1.27
9874.00,1.26
9873.00,1.26
9872.00,1.26
9871.00,1.26
9870.00,1.26
9869.00,1.25
9868.00,1.25
9867.00,1.25
9866.00,1.25
9865.00,1.25
9864.00,1.24
9863.00,1.24
9862.00,1.24
9861.00,1.24
9860.00,1.24
9859.00,1.24
9858.00,1.23
9857.00,1.23
9856.00,1.23
9855.00,1.23
9854.00,1.23
9853.00,1.23
9852.00,1.23
9851.00,1.22
9850.00,1.22
9849.00,1.22
9848.00,1.22
9847.00,1.22
9846.00,1.22
9845.00,1.22
9844.00,1.23
9843.00,1.23
9842.00,1.23
9841.00,1.23
9840.00,1.23
9839.00,1.23
9838.00,1.23
9837.00,1.23
9836.00,1.23
9835.00,1.23
9834.00,1.23
9833.00,1.23
9832.00,1.23
9831.00,1.24
9830.00,1.24
9829.00,1.24
9828.00,1.24
9827.00,1.24
9826.00,1.24
9825.00,1.24
9824.00,1.24
9823.00,1.25
9822.00,1.25
9821.00,1.25
9820.00,1.25
9819.00,1.25
9818.00,1.25
9817.00,1.25
9816.00,1.25
9815.00,1.25
9814.00,1.25
9813.00,1.25
9812.00,1.25
9811.00,1.25
9810.00,1.25
9809.00,1.25
9808.00,1.24
9807.00,1.24
9806.00,1.24
9805.00,1.24
9804.00,1.24
9803.00,1.24
9802.00,1.24
9801.00,1.24
9800.00,1.24
9799.00,1.24
9798.00,1.24
9797.00,1.24
9796.00,1.24
9795.00,1.24
9794.00,1.25
9793.00,1.25
9792.00,1.25
9791.00,1.25
9790.00,1.25
9789.00,1.25
9788.00,1.25
9787.00,1.25
9786.00,1.25
9785.00,1.25
9784.00,1.25
9783.00,1.25
9782.00,1.25
9781.00,1.25
9780.00,1.25
9779.00,1.25
9778.00,1.25
9777.00,1.25
9776.00,1.24
9775.00,1.24
9774.00,1.24
9773.00,1.24
9772.00,1.24
9771.00,1.24
9770.00,1.24
9769.00,1.24
9768.00,1.24
9767.00,1.24
9766.00,1.23
9765.00,1.23
9764.00,1.23
9763.00,1.23
9762.00,1.23
9761.00,1.23
9760.00,1.23
9759.00,1.23
9758.00,1.23
9757.00,1.23
9756.00,1.23
9755.00,1.23
9754.00,1.24
9753.00,1.24
9752.00,1.24
9751.00,1.24
9750.00,1.24
9749.00,1.24
9748.00,1.24
9747.00,1.24
9746.00,1.24
9745.00,1.25
9744.00,1.25
9743.00,1.25
9742.00,1.25
9741.00,1.25
9740.00,1.26
9739.00,1.26
9738.00,1.26
9737.00,1.26
9736.00,1.27
9735.00,1.27
9734.00,1.27
9733.00,1.27
9732.00,1.27
9731.00,1.28
9730.00,1.28
9729.00,1.28
9728.00,1.28
9727.00,1.28
9726.00,1.28
9725.00,1.27
9724.00,1.27
9723.00,1.27
9722.00,1.27
9721.00,1.27
9720.00,1.27
9719.00,1.27
9718.00,1.27
9717.00,1.26
9716.00,1.26
9715.00,1.26
9714.00,1.26
9713.00,1.26
9712.00,1.25
9711.00,1.25
9710.00,1.25
9709.00,1.25
9708.00,1.24
9707.00,1.24
9706.00,1.24
9705.00,1.24
9704.00,1.24
9703.00,1.23
9702.00,1.23
9701.00,1.23
9700.00,1.23
9699.00,1.23
9698.00,1.23
9697.00,1.23
9696.00,1.23
9695.00,1.23
9694.00,1.23
9693.00,1.23
9692.00,1.23
9691.00,1.23
9690.00,1.23
9689.00,1.23
9688.00,1.23
9687.00,1.23
9686.00,1.23
9685.00,1.23
9684.00,1.23
9683.00,1.24
9682.00,1.24
9681.00,1.24
9680.00,1.24
9679.00,1.24
9678.00,1.24
9677.00,1.24
9676.00,1.24
9675.00,1.24
9674.00,1.24
9673.00,1.24
9672.00,1.24
9671.00,1.24
9670.00,1.24
9669.00,1.24
9668.00,1.24
9667.00,1.24
9666.00,1.24
9665.00,1.24
9664.00,1.24
9663.00,1.24
9662.00,1.24
9661.00,1.24
9660.00,1.24
9659.00,1.24
9658.00,1.24
9657.00,1.24
9656.00,1.24
9655.00,1.24
9654.00,1.24
9653.00,1.25
9652.00,1.25
9651.00,1.25
9650.00,1.25
9649.00,1.25
9648.00,1.25
9647.00,1.25
9646.00,1.25
9645.00,1.25
9644.00,1.25
9643.00,1.25
9642.00,1.25
9641.00,1.25
9640.00,1.25
9639.00,1.25
9638.00,1.25
9637.00,1.25
9636.00,1.25
9635.00,1.25
9634.00,1.25
9633.00,1.25
9632.00,1.25
9631.00,1.25
9630.00,1.25
9629.00,1.26
9628.00,1.26
9627.00,1.26
9626.00,1.26
9625.00,1.26
9624.00,1.26
9623.00,1.26
9622.00,1.26
9621.00,1.26
9620.00,1.26
9619.00,1.26
9618.00,1.26
9617.00,1.26
9616.00,1.26
9615.00,1.26
9614.00,1.26
9613.00,1.26
9612.00,1.26
9611.00,1.26
9610.00,1.26
9609.00,1.26
9608.00,1.26
9607.00,1.25
9606.00,1.25
9605.00,1.25
9604.00,1.25
9603.00,1.25
9602.00,1.25
9601.00,1.25
9600.00,1.25
9599.00,1.25
9598.00,1.25
9597.00,1.25
9596.00,1.25
9595.00,1.25
9594.00,1.25
9593.00,1.25
9592.00,1.25
9591.00,1.25
9590.00,1.26
9589.00,1.26
9588.00,1.26
9587.00,1.26
9586.00,1.26
9585.00,1.26
9584.00,1.26
9583.00,1.26
9582.00,1.26
9581.00,1.26
9580.00,1.26
9579.00,1.26
9578.00,1.26
9577.00,1.26
9576.00,1.26
9575.00,1.26
9574.00,1.26
9573.00,1.26
9572.00,1.26
9571.00,1.26
9570.00,1.26
9569.00,1.26
9568.00,1.26
9567.00,1.26
9566.00,1.26
9565.00,1.26
9564.00,1.26
9563.00,1.26
9562.00,1.26
9561.00,1.26
9560.00,1.26
9559.00,1.26
9558.00,1.26
9557.00,1.26
9556.00,1.26
9555.00,1.26
9554.00,1.26
9553.00,1.27
9552.00,1.27
9551.00,1.27
9550.00,1.27
9549.00,1.27
9548.00,1.27
9547.00,1.27
9546.00,1.27
9545.00,1.27
9544.00,1.27
9543.00,1.27
9542.00,1.27
9541.00,1.27
9540.00,1.27
9539.00,1.27
9538.00,1.27
9537.00,1.27
9536.00,1.26
9535.00,1.26
9534.00,1.26
9533.00,1.26
9532.00,1.26
9531.00,1.25
9530.00,1.25
9529.00,1.25
9528.00,1.25
9527.00,1.25
9526.00,1.24
9525.00,1.24
9524.00,1.24
9523.00,1.24
9522.00,1.24
9521.00,1.24
9520.00,1.24
9519.00,1.24
9518.00,1.24
9517.00,1.25
9516.00,1.25
9515.00,1.25
9514.00,1.25
9513.00,1.25
9512.00,1.26
9511.00,1.26
9510.00,1.26
9509.00,1.26
9508.00,1.26
9507.00,1.26
9506.00,1.26
9505.00,1.27
9504.00,1.27
9503.00,1.27
9502.00,1.27
9501.00,1.27
9500.00,1.27
9499.00,1.27
9498.00,1.27
9497.00,1.27
9496.00,1.26
9495.00,1.26
9494.00,1.26
9493.00,1.26
9492.00,1.26
9491.00,1.26
9490.00,1.26
9489.00,1.26
9488.00,1.26
9487.00,1.26
9486.00,1.26
9485.00,1.27
9484.00,1.27
9483.00,1.27
9482.00,1.27
9481.00,1.27
9480.00,1.27
9479.00,1.27
9478.00,1.27
9477.00,1.27
9476.00,1.28
9475.00,1.28
9474.00,1.28
9473.00,1.28
9472.00,1.28
9471.00,1.28
9470.00,1.28
9469.00,1.27
9468.00,1.27
9467.00,1.27
9466.00,1.27
9465.00,1.27
9464.00,1.27
9463.00,1.27
9462.00,1.27
9461.00,1.27
9460.00,1.26
9459.00,1.26
9458.00,1.26
9457.00,1.26
9456.00,1.26
9455.00,1.26
9454.00,1.26
9453.00,1.26
9452.00,1.26
9451.00,1.26
9450.00,1.26
9449.00,1.26
9448.00,1.26
9447.00,1.25
9446.00,1.25
9445.00,1.25
9444.00,1.25
9443.00,1.25
9442.00,1.25
9441.00,1.25
9440.00,1.25
9439.00,1.25
9438.00,1.25
9437.00,1.25
9436.00,1.25
9435.00,1.25
9434.00,1.25
9433.00,1.25
9432.00,1.25
9431.00,1.25
9430.00,1.25
9429.00,1.25
9428.00,1.25
9427.00,1.25
9426.00,1.25
9425.00,1.25
9424.00,1.25
9423.00,1.25
9422.00,1.25
9421.00,1.25
9420.00,1.25
9419.00,1.25
9418.00,1.25
9417.00,1.25
9416.00,1.26
9415.00,1.26
9414.00,1.26
9413.00,1.26
9412.00,1.26
9411.00,1.26
9410.00,1.26
9409.00,1.26
9408.00,1.26
9407.00,1.27
9406.00,1.27
9405.00,1.27
9404.00,1.27
9403.00,1.27
9402.00,1.27
9401.00,1.27
9400.00,1.27
9399.00,1.27
9398.00,1.27
9397.00,1.27
9396.00,1.27
9395.00,1.27
9394.00,1.27
9393.00,1.27
9392.00,1.27
9391.00,1.27
9390.00,1.27
9389.00,1.26
9388.00,1.26
9387.00,1.26
9386.00,1.26
9385.00,1.26
9384.00,1.26
9383.00,1.26
9382.00,1.26
9381.00,1.26
9380.00,1.26
9379.00,1.26
9378.00,1.26
9377.00,1.26
9376.00,1.26
9375.00,1.26
9374.00,1.26
9373.00,1.25
9372.00,1.25
9371.00,1.25
9370.00,1.25
9369.00,1.25
9368.00,1.25
9367.00,1.25
9366.00,1.25
9365.00,1.25
9364.00,1.26
9363.00,1.26
9362.00,1.26
9361.00,1.26
9360.00,1.26
9359.00,1.26
9358.00,1.26
9357.00,1.26
9356.00,1.26
9355.00,1.26
9354.00,1.26
9353.00,1.26
9352.00,1.26
9351.00,1.26
9350.00,1.26
9349.00,1.26
9348.00,1.26
9347.00,1.26
9346.00,1.26
9345.00,1.26
9344.00,1.26
9343.00,1.26
9342.00,1.26
9341.00,1.26
9340.00,1.26
9339.00,1.26
9338.00,1.26
9337.00,1.26
9336.00,1.26
9335.00,1.26
9334.00,1.26
9333.00,1.26
9332.00,1.26
9331.00,1.26
9330.00,1.25
9329.00,1.25
9328.00,1.25
9327.00,1.25
9326.00,1.25
9325.00,1.25
9324.00,1.25
9323.00,1.25
9322.00,1.25
9321.00,1.25
9320.00,1.25
9319.00,1.25
9318.00,1.25
9317.00,1.25
9316.00,1.25
9315.00,1.25
9314.00,1.25
9313.00,1.25
9312.00,1.25
9311.00,1.25
9310.00,1.25
9309.00,1.25
9308.00,1.25
9307.00,1.25
9306.00,1.25
9305.00,1.25
9304.00,1.25
9303.00,1.26
9302.00,1.26
9301.00,1.26
9300.00,1.26
9299.00,1.26
9298.00,1.26
9297.00,1.27
9296.00,1.27
9295.00,1.27
9294.00,1.27
9293.00,1.27
9292.00,1.27
9291.00,1.27
9290.00,1.27
9289.00,1.27
9288.00,1.27
9287.00,1.27
9286.00,1.27
9285.00,1.26
9284.00,1.26
9283.00,1.26
9282.00,1.26
9281.00,1.25
9280.00,1.25
9279.00,1.25
9278.00,1.25
9277.00,1.25
9276.00,1.24
9275.00,1.24
9274.00,1.24
9273.00,1.24
9272.00,1.24
9271.00,1.24
9270.00,1.24
9269.00,1.24
9268.00,1.24
9267.00,1.24
9266.00,1.24
9265.00,1.24
9264.00,1.24
9263.00,1.24
9262.00,1.24
9261.00,1.24
9260.00,1.24
9259.00,1.24
9258.00,1.24
9257.00,1.24
9256.00,1.24
9255.00,1.24
9254.00,1.24
9253.00,1.24
9252.00,1.24
9251.00,1.24
9250.00,1.24
9249.00,1.24
9248.00,1.24
9247.00,1.24
9246.00,1.24
9245.00,1.24
9244.00,1.24
9243.00,1.24
9242.00,1.24
9241.00,1.24
9240.00,1.24
9239.00,1.24
9238.00,1.24
9237.00,1.24
9236.00,1.24
9235.00,1.24
9234.00,1.24
9233.00,1.25
9232.00,1.25
9231.00,1.25
9230.00,1.25
9229.00,1.25
9228.00,1.26
9227.00,1.26
9226.00,1.26
9225.00,1.26
9224.00,1.27
9223.00,1.27
9222.00,1.27
9221.00,1.27
9220.00,1.27
9219.00,1.27
9218.00,1.27
9217.00,1.27
9216.00,1.27
9215.00,1.27
9214.00,1.27
9213.00,1.27
9212.00,1.27
9211.00,1.27
9210.00,1.27
9209.00,1.27
9208.00,1.27
9207.00,1.26
9206.00,1.26
9205.00,1.26
9204.00,1.26
9203.00,1.26
9202.00,1.25
9201.00,1.25
9200.00,1.25
9199.00,1.25
9198.00,1.25
9197.00,1.25
9196.00,1.25
9195.00,1.24
9194.00,1.24
9193.00,1.24
9192.00,1.24
9191.00,1.24
9190.00,1.24
9189.00,1.24
9188.00,1.25
9187.00,1.25
9186.00,1.25
9185.00,1.25
9184.00,1.25
9183.00,1.25
9182.00,1.26
9181.00,1.26
9180.00,1.26
9179.00,1.26
9178.00,1.26
9177.00,1.27
9176.00,1.27
9175.00,1.27
9174.00,1.27
9173.00,1.27
9172.00,1.27
9171.00,1.28
9170.00,1.28
9169.00,1.28
9168.00,1.28
9167.00,1.28
9166.00,1.28
9165.00,1.28
9164.00,1.28
9163.00,1.28
9162.00,1.27
9161.00,1.27
9160.00,1.27
9159.00,1.27
9158.00,1.27
9157.00,1.27
9156.00,1.27
9155.00,1.27
9154.00,1.27
9153.00,1.27
9152.00,1.27
9151.00,1.27
9150.00,1.27
9149.00,1.27
9148.00,1.27
9147.00,1.27
9146.00,1.27
9145.00,1.27
9144.00,1.27
9143.00,1.27
9142.00,1.27
9141.00,1.27
9140.00,1.27
9139.00,1.27
9138.00,1.27
9137.00,1.27
9136.00,1.27
9135.00,1.27
9134.00,1.27
9133.00,1.26
9132.00,1.26
9131.00,1.26
9130.00,1.26
9129.00,1.26
9128.00,1.26
9127.00,1.26
9126.00,1.26
9125.00,1.26
9124.00,1.26
9123.00,1.26
9122.00,1.26
9121.00,1.26
9120.00,1.26
9119.00,1.26
9118.00,1.26
9117.00,1.26
9116.00,1.26
9115.00,1.26
9114.00,1.26
9113.00,1.26
9112.00,1.26
9111.00,1.26
9110.00,1.26
9109.00,1.26
9108.00,1.26
9107.00,1.26
9106.00,1.26
9105.00,1.26
9104.00,1.26
9103.00,1.25
9102.00,1.25
9101.00,1.25
9100.00,1.25
9099.00,1.25
9098.00,1.25
9097.00,1.25
9096.00,1.25
9095.00,1.25
9094.00,1.25
9093.00,1.25
9092.00,1.25
9091.00,1.25
9090.00,1.25
9089.00,1.25
9088.00,1.25
9087.00,1.26
9086.00,1.26
9085.00,1.26
9084.00,1.26
9083.00,1.27
9082.00,1.27
9081.00,1.27
9080.00,1.27
9079.00,1.27
9078.00,1.27
9077.00,1.28
9076.00,1.28
9075.00,1.28
9074.00,1.27
9073.00,1.27
9072.00,1.27
9071.00,1.27
9070.00,1.27
9069.00,1.27
9068.00,1.27
9067.00,1.26
9066.00,1.26
9065.00,1.26
9064.00,1.26
9063.00,1.26
9062.00,1.25
9061.00,1.25
9060.00,1.25
9059.00,1.25
9058.00,1.25
9057.00,1.25
9056.00,1.25
9055.00,1.25
9054.00,1.25
9053.00,1.25
9052.00,1.25
9051.00,1.25
9050.00,1.25
9049.00,1.25
9048.00,1.25
9047.00,1.25
9046.00,1.25
9045.00,1.25
9044.00,1.25
9043.00,1.25
9042.00,1.25
9041.00,1.25
9040.00,1.25
9039.00,1.25
9038.00,1.25
9037.00,1.25
9036.00,1.25
9035.00,1.25
9034.00,1.25
9033.00,1.25
9032.00,1.25
9031.00,1.25
9030.00,1.25
9029.00,1.25
9028.00,1.26
9027.00,1.26
9026.00,1.26
9025.00,1.26
9024.00,1.26
9023.00,1.26
9022.00,1.26
9021.00,1.27
9020.00,1.27
9019.00,1.27
9018.00,1.27
9017.00,1.27
9016.00,1.27
9015.00,1.27
9014.00,1.27
9013.00,1.27
9012.00,1.27
9011.00,1.27
9010.00,1.27
9009.00,1.28
9008.00,1.28
9007.00,1.28
9006.00,1.28
9005.00,1.28
9004.00,1.28
9003.00,1.28
9002.00,1.28
9001.00,1.28
9000.00,1.28
8999.00,1.27
8998.00,1.27
8997.00,1.27
8996.00,1.27
8995.00,1.27
8994.00,1.27
8993.00,1.27
8992.00,1.27
8991.00,1.27
8990.00,1.27
8989.00,1.27
8988.00,1.27
8987.00,1.27
8986.00,1.27
8985.00,1.26
8984.00,1.26
8983.00,1.26
8982.00,1.26
8981.00,1.26
8980.00,1.26
8979.00,1.26
8978.00,1.26
8977.00,1.26
8976.00,1.26
8975.00,1.25
8974.00,1.25
8973.00,1.25
8972.00,1.25
8971.00,1.25
8970.00,1.25
8969.00,1.25
8968.00,1.25
8967.00,1.25
8966.00,1.25
8965.00,1.25
8964.00,1.25
8963.00,1.26
8962.00,1.26
8961.00,1.26
8960.00,1.26
8959.00,1.26
8958.00,1.26
8957.00,1.26
8956.00,1.26
8955.00,1.26
8954.00,1.26
8953.00,1.26
8952.00,1.26
8951.00,1.26
8950.00,1.26
8949.00,1.26
8948.00,1.26
8947.00,1.26
8946.00,1.26
8945.00,1.26
8944.00,1.26
8943.00,1.25
8942.00,1.25
8941.00,1.25
8940.00,1.25
8939.00,1.25
8938.00,1.26
8937.00,1.26
8936.00,1.26
8935.00,1.26
8934.00,1.26
8933.00,1.26
8932.00,1.26
8931.00,1.27
8930.00,1.27
8929.00,1.27
8928.00,1.27
8927.00,1.27
8926.00,1.27
8925.00,1.27
8924.00,1.27
8923.00,1.27
8922.00,1.27
8921.00,1.27
8920.00,1.27
8919.00,1.27
8918.00,1.26
8917.00,1.26
8916.00,1.26
8915.00,1.26
8914.00,1.26
8913.00,1.26
8912.00,1.26
8911.00,1.25
8910.00,1.25
8909.00,1.25
8908.00,1.25
8907.00,1.25
8906.00,1.25
8905.00,1.25
8904.00,1.25
8903.00,1.25
8902.00,1.24
8901.00,1.24
8900.00,1.24
8899.00,1.24
8898.00,1.24
8897.00,1.24
8896.00,1.24
8895.00,1.24
8894.00,1.24
8893.00,1.24
8892.00,1.24
8891.00,1.25
8890.00,1.25
8889.00,1.25
8888.00,1.25
8887.00,1.25
8886.00,1.25
8885.00,1.25
8884.00,1.26
8883.00,1.26
8882.00,1.26
8881.00,1.26
8880.00,1.26
8879.00,1.26
8878.00,1.26
8877.00,1.26
8876.00,1.26
8875.00,1.26
8874.00,1.26
8873.00,1.26
8872.00,1.26
8871.00,1.26
8870.00,1.26
8869.00,1.26
8868.00,1.26
8867.00,1.25
8866.00,1.25
8865.00,1.25
8864.00,1.25
8863.00,1.25
8862.00,1.25
8861.00,1.25
8860.00,1.24
8859.00,1.24
8858.00,1.24
8857.00,1.24
8856.00,1.24
8855.00,1.24
8854.00,1.24
8853.00,1.24
8852.00,1.24
8851.00,1.24
8850.00,1.24
8849.00,1.24
8848.00,1.25
8847.00,1.25
8846.00,1.25
8845.00,1.25
8844.00,1.25
8843.00,1.25
8842.00,1.26
8841.00,1.26
8840.00,1.26
8839.00,1.26
8838.00,1.26
8837.00,1.26
8836.00,1.26
8835.00,1.26
8834.00,1.26
8833.00,1.26
8832.00,1.26
8831.00,1.26
8830.00,1.26
8829.00,1.26
8828.00,1.26
8827.00,1.26
8826.00,1.25
8825.00,1.25
8824.00,1.25
8823.00,1.25
8822.00,1.25
8821.00,1.25
8820.00,1.25
8819.00,1.24
8818.00,1.24
8817.00,1.24
8816.00,1.24
8815.00,1.24
8814.00,1.24
8813.00,1.24
8812.00,1.23
8811.00,1.23
8810.00,1.23
8809.00,1.23
8808.00,1.23
8807.00,1.23
8806.00,1.23
8805.00,1.23
8804.00,1.23
8803.00,1.23
8802.00,1.23
8801.00,1.23
8800.00,1.22
8799.00,1.22
8798.00,1.22
8797.00,1.22
8796.00,1.22
8795.00,1.22
8794.00,1.22
8793.00,1.22
8792.00,1.22
8791.00,1.22
8790.00,1.22
8789.00,1.22
8788.00,1.21
8787.00,1.21
8786.00,1.21
8785.00,1.21
8784.00,1.21
8783.00,1.21
8782.00,1.21
8781.00,1.21
8780.00,1.21
8779.00,1.20
8778.00,1.20
8777.00,1.20
8776.00,1.20
8775.00,1.20
8774.00,1.20
8773.00,1.20
8772.00,1.20
8771.00,1.20
8770.00,1.20
8769.00,1.20
8768.00,1.20
8767.00,1.20
8766.00,1.20
8765.00,1.20
8764.00,1.20
8763.00,1.20
8762.00,1.20
8761.00,1.20
8760.00,1.20
8759.00,1.20
8758.00,1.20
8757.00,1.20
8756.00,1.20
8755.00,1.20
8754.00,1.20
8753.00,1.20
8752.00,1.20
8751.00,1.19
8750.00,1.19
8749.00,1.19
8748.00,1.19
8747.00,1.19
8746.00,1.18
8745.00,1.18
8744.00,1.18
8743.00,1.18
8742.00,1.18
8741.00,1.18
8740.00,1.18
8739.00,1.18
8738.00,1.18
8737.00,1.18
8736.00,1.18
8735.00,1.17
8734.00,1.17
8733.00,1.17
8732.00,1.17
8731.00,1.17
8730.00,1.17
8729.00,1.17
8728.00,1.17
8727.00,1.17
8726.00,1.17
8725.00,1.17
8724.00,1.17
8723.00,1.18
8722.00,1.18
8721.00,1.18
8720.00,1.18
8719.00,1.18
8718.00,1.18
8717.00,1.18
8716.00,1.18
8715.00,1.18
8714.00,1.18
8713.00,1.19
8712.00,1.19
8711.00,1.19
8710.00,1.19
8709.00,1.19
8708.00,1.19
8707.00,1.19
8706.00,1.19
8705.00,1.19
8704.00,1.19
8703.00,1.19
8702.00,1.19
8701.00,1.19
8700.00,1.19
8699.00,1.19
8698.00,1.19
8697.00,1.19
8696.00,1.19
8695.00,1.19
8694.00,1.19
8693.00,1.19
8692.00,1.19
8691.00,1.19
8690.00,1.19
8689.00,1.19
8688.00,1.19
8687.00,1.18
8686.00,1.18
8685.00,1.18
8684.00,1.18
8683.00,1.18
8682.00,1.18
8681.00,1.18
8680.00,1.18
8679.00,1.18
8678.00,1.17
8677.00,1.17
8676.00,1.17
8675.00,1.17
8674.00,1.17
8673.00,1.17
8672.00,1.17
8671.00,1.17
8670.00,1.17
8669.00,1.17
8668.00,1.17
8667.00,1.17
8666.00,1.17
8665.00,1.17
8664.00,1.17
8663.00,1.17
8662.00,1.17
8661.00,1.17
8660.00,1.17
8659.00,1.17
8658.00,1.17
8657.00,1.17
8656.00,1.17
8655.00,1.17
8654.00,1.17
8653.00,1.17
8652.00,1.17
8651.00,1.17
8650.00,1.17
8649.00,1.17
8648.00,1.17
8647.00,1.17
8646.00,1.17
8645.00,1.16
8644.00,1.16
8643.00,1.16
8642.00,1.16
8641.00,1.16
8640.00,1.16
8639.00,1.16
8638.00,1.15
8637.00,1.15
8636.00,1.15
8635.00,1.15
8634.00,1.15
8633.00,1.15
8632.00,1.15
8631.00,1.15
8630.00,1.15
8629.00,1.15
8628.00,1.15
8627.00,1.15
8626.00,1.15
8625.00,1.15
8624.00,1.15
8623.00,1.15
8622.00,1.15
8621.00,1.15
8620.00,1.15
8619.00,1.15
8618.00,1.15
8617.00,1.15
8616.00,1.15
8615.00,1.15
8614.00,1.15
8613.00,1.15
8612.00,1.15
8611.00,1.15
8610.00,1.15
8609.00,1.15
8608.00,1.15
8607.00,1.15
8606.00,1.15
8605.00,1.15
8604.00,1.15
8603.00,1.15
8602.00,1.15
8601.00,1.15
8600.00,1.15
8599.00,1.15
8598.00,1.15
8597.00,1.15
8596.00,1.15
8595.00,1.15
8594.00,1.16
8593.00,1.16
8592.00,1.16
8591.00,1.16
8590.00,1.16
8589.00,1.16
8588.00,1.16
8587.00,1.16
8586.00,1.16
8585.00,1.16
8584.00,1.16
8583.00,1.16
8582.00,1.16
8581.00,1.16
8580.00,1.16
8579.00,1.16
8578.00,1.16
8577.00,1.16
8576.00,1.16
8575.00,1.16
8574.00,1.16
8573.00,1.16
8572.00,1.15
8571.00,1.15
8570.00,1.15
8569.00,1.15
8568.00,1.15
8567.00,1.15
8566.00,1.15
8565.00,1.14
8564.00,1.14
8563.00,1.14
8562.00,1.14
8561.00,1.14
8560.00,1.14
8559.00,1.13
8558.00,1.13
8557.00,1.13
8556.00,1.13
8555.00,1.13
8554.00,1.13
8553.00,1.13
8552.00,1.13
8551.00,1.13
8550.00,1.13
8549.00,1.13
8548.00,1.13
8547.00,1.13
8546.00,1.13
8545.00,1.13
8544.00,1.13
8543.00,1.13
8542.00,1.13
8541.00,1.13
8540.00,1.13
8539.00,1.14
8538.00,1.14
8537.00,1.14
8536.00,1.14
8535.00,1.14
8534.00,1.14
8533.00,1.14
8532.00,1.14
8531.00,1.14
8530.00,1.15
8529.00,1.15
8528.00,1.15
8527.00,1.15
8526.00,1.15
8525.00,1.15
8524.00,1.15
8523.00,1.15
8522.00,1.15
8521.00,1.15
8520.00,1.15
8519.00,1.14
8518.00,1.14
8517.00,1.14
8516.00,1.14
8515.00,1.13
8514.00,1.13
8513.00,1.13
8512.00,1.13
8511.00,1.13
8510.00,1.13
8509.00,1.12
8508.00,1.12
8507.00,1.12
8506.00,1.12
8505.00,1.12
8504.00,1.12
8503.00,1.12
8502.00,1.12
8501.00,1.12
8500.00,1.12
8499.00,1.12
8498.00,1.12
8497.00,1.12
8496.00,1.12
8495.00,1.12
8494.00,1.12
8493.00,1.12
8492.00,1.11
8491.00,1.11
8490.00,1.11
8489.00,1.11
8488.00,1.11
8487.00,1.11
8486.00,1.11
8485.00,1.10
8484.00,1.10
8483.00,1.10
8482.00,1.10
8481.00,1.10
8480.00,1.09
8479.00,1.09
8478.00,1.09
8477.00,1.09
8476.00,1.09
8475.00,1.09
8474.00,1.09
8473.00,1.08
8472.00,1.08
8471.00,1.08
8470.00,1.08
8469.00,1.08
8468.00,1.08
8467.00,1.08
8466.00,1.08
8465.00,1.08
8464.00,1.08
8463.00,1.08
8462.00,1.08
8461.00,1.08
8460.00,1.08
8459.00,1.08
8458.00,1.08
8457.00,1.08
8456.00,1.08
8455.00,1.08
8454.00,1.08
8453.00,1.09
8452.00,1.09
8451.00,1.09
8450.00,1.09
8449.00,1.09
8448.00,1.09
8447.00,1.09
8446.00,1.09
8445.00,1.09
8444.00,1.09
8443.00,1.09
8442.00,1.09
8441.00,1.09
8440.00,1.08
8439.00,1.08
8438.00,1.08
8437.00,1.08
8436.00,1.08
8435.00,1.08
8434.00,1.08
8433.00,1.08
8432.00,1.08
8431.00,1.08
8430.00,1.08
8429.00,1.08
8428.00,1.08
8427.00,1.08
8426.00,1.08
8425.00,1.08
8424.00,1.09
8423.00,1.09
8422.00,1.09
8421.00,1.09
8420.00,1.09
8419.00,1.09
8418.00,1.09
8417.00,1.09
8416.00,1.09
8415.00,1.09
8414.00,1.09
8413.00,1.09
8412.00,1.09
8411.00,1.09
8410.00,1.09
8409.00,1.09
8408.00,1.10
8407.00,1.10
8406.00,1.10
8405.00,1.10
8404.00,1.10
8403.00,1.10
8402.00,1.10
8401.00,1.10
8400.00,1.10
8399.00,1.10
8398.00,1.10
8397.00,1.10
8396.00,1.10
8395.00,1.10
8394.00,1.10
8393.00,1.10
8392.00,1.10
8391.00,1.10
8390.00,1.10
8389.00,1.10
8388.00,1.10
8387.00,1.10
8386.00,1.10
8385.00,1.10
8384.00,1.10
8383.00,1.10
8382.00,1.10
8381.00,1.10
8380.00,1.10
8379.00,1.10
8378.00,1.10
8377.00,1.11
8376.00,1.11
8375.00,1.11
8374.00,1.11
8373.00,1.11
8372.00,1.11
8371.00,1.11
8370.00,1.11
8369.00,1.11
8368.00,1.11
8367.00,1.11
8366.00,1.11
8365.00,1.11
8364.00,1.11
8363.00,1.12
8362.00,1.12
8361.00,1.12
8360.00,1.12
8359.00,1.12
8358.00,1.12
8357.00,1.12
8356.00,1.12
8355.00,1.12
8354.00,1.12
8353.00,1.12
8352.00,1.12
8351.00,1.12
8350.00,1.12
8349.00,1.12
8348.00,1.12
8347.00,1.12
8346.00,1.12
8345.00,1.12
8344.00,1.12
8343.00,1.12
8342.00,1.12
8341.00,1.12
8340.00,1.12
8339.00,1.13
8338.00,1.13
8337.00,1.13
8336.00,1.13
8335.00,1.13
8334.00,1.13
8333.00,1.13
8332.00,1.13
8331.00,1.13
8330.00,1.13
8329.00,1.13
8328.00,1.13
8327.00,1.13
8326.00,1.13
8325.00,1.13
8324.00,1.13
8323.00,1.13
8322.00,1.13
8321.00,1.13
8320.00,1.13
8319.00,1.13
8318.00,1.12
8317.00,1.12
8316.00,1.12
8315.00,1.12
8314.00,1.12
8313.00,1.12
8312.00,1.12
8311.00,1.12
8310.00,1.12
8309.00,1.11
8308.00,1.11
8307.00,1.11
8306.00,1.11
8305.00,1.12
8304.00,1.12
8303.00,1.12
8302.00,1.12
8301.00,1.12
8300.00,1.12
8299.00,1.12
8298.00,1.12
8297.00,1.13
8296.00,1.13
8295.00,1.13
8294.00,1.13
8293.00,1.13
8292.00,1.13
8291.00,1.13
8290.00,1.14
8289.00,1.14
8288.00,1.14
8287.00,1.14
8286.00,1.14
8285.00,1.14
8284.00,1.14
8283.00,1.14
8282.00,1.14
8281.00,1.14
8280.00,1.14
8279.00,1.14
8278.00,1.14
8277.00,1.14
8276.00,1.14
8275.00,1.14
8274.00,1.14
8273.00,1.14
8272.00,1.14
8271.00,1.14
8270.00,1.14
8269.00,1.14
8268.00,1.14
8267.00,1.14
8266.00,1.14
8265.00,1.14
8264.00,1.14
8263.00,1.14
8262.00,1.14
8261.00,1.14
8260.00,1.14
8259.00,1.15
8258.00,1.15
8257.00,1.15
8256.00,1.15
8255.00,1.15
8254.00,1.15
8253.00,1.15
8252.00,1.15
8251.00,1.15
8250.00,1.15
8249.00,1.16
8248.00,1.16
8247.00,1.16
8246.00,1.16
8245.00,1.15
8244.00,1.15
8243.00,1.15
8242.00,1.15
8241.00,1.15
8240.00,1.15
8239.00,1.15
8238.00,1.15
8237.00,1.15
8236.00,1.15
8235.00,1.15
8234.00,1.15
8233.00,1.15
8232.00,1.16
8231.00,1.16
8230.00,1.16
8229.00,1.16
8228.00,1.16
8227.00,1.16
8226.00,1.16
8225.00,1.16
8224.00,1.16
8223.00,1.16
8222.00,1.16
8221.00,1.16
8220.00,1.16
8219.00,1.17
8218.00,1.17
8217.00,1.17
8216.00,1.17
8215.00,1.17
8214.00,1.17
8213.00,1.17
8212.00,1.17
8211.00,1.17
8210.00,1.17
8209.00,1.17
8208.00,1.17
8207.00,1.17
8206.00,1.17
8205.00,1.17
8204.00,1.17
8203.00,1.17
8202.00,1.17
8201.00,1.17
8200.00,1.17
8199.00,1.17
8198.00,1.17
8197.00,1.17
8196.00,1.17
8195.00,1.17
8194.00,1.17
8193.00,1.17
8192.00,1.17
8191.00,1.17
8190.00,1.17
8189.00,1.18
8188.00,1.18
8187.00,1.18
8186.00,1.18
8185.00,1.18
8184.00,1.18
8183.00,1.18
8182.00,1.18
8181.00,1.18
8180.00,1.18
8179.00,1.18
8178.00,1.18
8177.00,1.18
8176.00,1.18
8175.00,1.18
8174.00,1.18
8173.00,1.18
8172.00,1.18
8171.00,1.18
8170.00,1.18
8169.00,1.18
8168.00,1.18
8167.00,1.18
8166.00,1.18
8165.00,1.18
8164.00,1.18
8163.00,1.18
8162.00,1.18
8161.00,1.18
8160.00,1.18
8159.00,1.18
8158.00,1.18
8157.00,1.18
8156.00,1.18
8155.00,1.18
8154.00,1.18
8153.00,1.18
8152.00,1.18
8151.00,1.18
8150.00,1.18
8149.00,1.18
8148.00,1.18
8147.00,1.18
8146.00,1.18
8145.00,1.18
8144.00,1.18
8143.00,1.19
8142.00,1.19
8141.00,1.19
8140.00,1.19
8139.00,1.19
8138.00,1.19
8137.00,1.19
8136.00,1.19
8135.00,1.20
8134.00,1.20
8133.00,1.20
8132.00,1.20
8131.00,1.20
8130.00,1.20
8129.00,1.20
8128.00,1.20
8127.00,1.20
8126.00,1.20
8125.00,1.20
8124.00,1.20
8123.00,1.20
8122.00,1.20
8121.00,1.20
8120.00,1.20
8119.00,1.20
8118.00,1.20
8117.00,1.20
8116.00,1.20
8115.00,1.20
8114.00,1.20
8113.00,1.20
8112.00,1.20
8111.00,1.20
8110.00,1.20
8109.00,1.20
8108.00,1.20
8107.00,1.20
8106.00,1.20
8105.00,1.20
8104.00,1.20
8103.00,1.20
8102.00,1.20
8101.00,1.20
8100.00,1.20
8099.00,1.20
8098.00,1.20
8097.00,1.20
8096.00,1.20
8095.00,1.20
8094.00,1.20
8093.00,1.20
8092.00,1.20
8091.00,1.21
8090.00,1.21
8089.00,1.21
8088.00,1.21
8087.00,1.21
8086.00,1.21
8085.00,1.21
8084.00,1.21
8083.00,1.21
8082.00,1.21
8081.00,1.21
8080.00,1.21
8079.00,1.21
8078.00,1.21
8077.00,1.21
8076.00,1.21
8075.00,1.21
8074.00,1.21
8073.00,1.21
8072.00,1.21
8071.00,1.21
8070.00,1.21
8069.00,1.20
8068.00,1.20
8067.00,1.20
8066.00,1.20
8065.00,1.20
8064.00,1.20
8063.00,1.20
8062.00,1.21
8061.00,1.21
8060.00,1.21
8059.00,1.21
8058.00,1.21
8057.00,1.21
8056.00,1.21
8055.00,1.21
8054.00,1.21
8053.00,1.21
8052.00,1.21
8051.00,1.21
8050.00,1.21
8049.00,1.21
8048.00,1.21
8047.00,1.21
8046.00,1.22
8045.00,1.22
8044.00,1.22
8043.00,1.22
8042.00,1.22
8041.00,1.22
8040.00,1.22
8039.00,1.22
8038.00,1.22
8037.00,1.22
8036.00,1.22
8035.00,1.22
8034.00,1.22
8033.00,1.22
8032.00,1.23
8031.00,1.23
8030.00,1.23
8029.00,1.23
8028.00,1.23
8027.00,1.23
8026.00,1.23
8025.00,1.23
8024.00,1.23
8023.00,1.23
8022.00,1.23
8021.00,1.23
8020.00,1.23
8019.00,1.23
8018.00,1.23
8017.00,1.23
8016.00,1.23
8015.00,1.23
8014.00,1.23
8013.00,1.23
8012.00,1.23
8011.00,1.23
8010.00,1.23
8009.00,1.23
8008.00,1.23
8007.00,1.23
8006.00,1.23
8005.00,1.23
8004.00,1.23
8003.00,1.23
8002.00,1.23
8001.00,1.23
8000.00,1.23
7999.00,1.23
7998.00,1.23
7997.00,1.23
7996.00,1.23
7995.00,1.23
7994.00,1.23
7993.00,1.23
7992.00,1.23
7991.00,1.23
7990.00,1.23
7989.00,1.23
7988.00,1.23
7987.00,1.23
7986.00,1.23
7985.00,1.24
7984.00,1.23
7983.00,1.23
7982.00,1.23
7981.00,1.23
7980.00,1.23
7979.00,1.23
7978.00,1.23
7977.00,1.23
7976.00,1.23
7975.00,1.23
7974.00,1.23
7973.00,1.23
7972.00,1.23
7971.00,1.23
7970.00,1.23
7969.00,1.23
7968.00,1.23
7967.00,1.23
7966.00,1.23
7965.00,1.23
7964.00,1.23
7963.00,1.24
7962.00,1.24
7961.00,1.24
7960.00,1.24
7959.00,1.24
7958.00,1.24
7957.00,1.24
7956.00,1.24
7955.00,1.24
7954.00,1.24
7953.00,1.24
7952.00,1.24
7951.00,1.24
7950.00,1.24
7949.00,1.24
7948.00,1.24
7947.00,1.24
7946.00,1.24
7945.00,1.24
7944.00,1.24
7943.00,1.24
7942.00,1.24
7941.00,1.24
7940.00,1.24
7939.00,1.24
7938.00,1.24
7937.00,1.24
7936.00,1.24
7935.00,1.24
7934.00,1.24
7933.00,1.24
7932.00,1.24
7931.00,1.24
7930.00,1.24
7929.00,1.24
7928.00,1.24
7927.00,1.24
7926.00,1.24
7925.00,1.24
7924.00,1.24
7923.00,1.24
7922.00,1.24
7921.00,1.24
7920.00,1.24
7919.00,1.24
7918.00,1.24
7917.00,1.24
7916.00,1.24
7915.00,1.24
7914.00,1.24
7913.00,1.24
7912.00,1.24
7911.00,1.24
7910.00,1.24
7909.00,1.24
7908.00,1.24
7907.00,1.24
7906.00,1.24
7905.00,1.24
7904.00,1.24
7903.00,1.24
7902.00,1.24
7901.00,1.24
7900.00,1.24
7899.00,1.24
7898.00,1.24
7897.00,1.24
7896.00,1.24
7895.00,1.24
7894.00,1.24
7893.00,1.24
7892.00,1.24
7891.00,1.24
7890.00,1.24
7889.00,1.24
7888.00,1.24
7887.00,1.24
7886.00,1.24
7885.00,1.24
7884.00,1.24
7883.00,1.24
7882.00,1.24
7881.00,1.24
7880.00,1.24
7879.00,1.24
7878.00,1.24
7877.00,1.24
7876.00,1.25
7875.00,1.25
7874.00,1.25
7873.00,1.25
7872.00,1.25
7871.00,1.25
7870.00,1.25
7869.00,1.25
7868.00,1.25
7867.00,1.25
7866.00,1.25
7865.00,1.25
7864.00,1.25
7863.00,1.25
7862.00,1.25
7861.00,1.25
7860.00,1.25
7859.00,1.25
7858.00,1.25
7857.00,1.25
7856.00,1.25
7855.00,1.25
7854.00,1.25
7853.00,1.25
7852.00,1.25
7851.00,1.25
7850.00,1.25
7849.00,1.25
7848.00,1.25
7847.00,1.25
7846.00,1.25
7845.00,1.25
7844.00,1.25
7843.00,1.25
7842.00,1.25
7841.00,1.25
7840.00,1.25
7839.00,1.25
7838.00,1.25
7837.00,1.25
7836.00,1.26
7835.00,1.26
7834.00,1.26
7833.00,1.26
7832.00,1.26
7831.00,1.26
7830.00,1.26
7829.00,1.26
7828.00,1.26
7827.00,1.26
7826.00,1.26
7825.00,1.27
7824.00,1.27
7823.00,1.27
7822.00,1.27
7821.00,1.27
7820.00,1.27
7819.00,1.27
7818.00,1.27
7817.00,1.27
7816.00,1.27
7815.00,1.27
7814.00,1.27
7813.00,1.27
7812.00,1.27
7811.00,1.27
7810.00,1.27
7809.00,1.27
7808.00,1.27
7807.00,1.27
7806.00,1.27
7805.00,1.27
7804.00,1.27
7803.00,1.27
7802.00,1.27
7801.00,1.27
7800.00,1.27
7799.00,1.27
7798.00,1.27
7797.00,1.27
7796.00,1.27
7795.00,1.27
7794.00,1.27
7793.00,1.27
7792.00,1.27
7791.00,1.27
7790.00,1.27
7789.00,1.26
7788.00,1.26
7787.00,1.26
7786.00,1.26
7785.00,1.26
7784.00,1.26
7783.00,1.26
7782.00,1.26
7781.00,1.26
7780.00,1.26
7779.00,1.26
7778.00,1.26
7777.00,1.26
7776.00,1.26
7775.00,1.26
7774.00,1.26
7773.00,1.26
7772.00,1.26
7771.00,1.26
7770.00,1.26
7769.00,1.26
7768.00,1.26
7767.00,1.26
7766.00,1.26
7765.00,1.26
7764.00,1.27
7763.00,1.27
7762.00,1.27
7761.00,1.27
7760.00,1.27
7759.00,1.27
7758.00,1.27
7757.00,1.27
7756.00,1.27
7755.00,1.27
7754.00,1.27
7753.00,1.28
7752.00,1.28
7751.00,1.28
7750.00,1.28
7749.00,1.28
7748.00,1.28
7747.00,1.28
7746.00,1.28
7745.00,1.28
7744.00,1.27
7743.00,1.27
7742.00,1.27
7741.00,1.27
7740.00,1.27
7739.00,1.27
7738.00,1.27
7737.00,1.27
7736.00,1.27
7735.00,1.27
7734.00,1.26
7733.00,1.26
7732.00,1.26
7731.00,1.26
7730.00,1.26
7729.00,1.26
7728.00,1.26
7727.00,1.26
7726.00,1.26
7725.00,1.26
7724.00,1.26
7723.00,1.27
7722.00,1.27
7721.00,1.27
7720.00,1.27
7719.00,1.27
7718.00,1.27
7717.00,1.27
7716.00,1.27
7715.00,1.27
7714.00,1.27
7713.00,1.28
7712.00,1.28
7711.00,1.28
7710.00,1.28
7709.00,1.27
7708.00,1.27
7707.00,1.27
7706.00,1.27
7705.00,1.27
7704.00,1.27
7703.00,1.27
7702.00,1.27
7701.00,1.27
7700.00,1.27
7699.00,1.27
7698.00,1.27
7697.00,1.27
7696.00,1.27
7695.00,1.27
7694.00,1.27
7693.00,1.27
7692.00,1.27
7691.00,1.27
7690.00,1.27
7689.00,1.27
7688.00,1.27
7687.00,1.27
7686.00,1.27
7685.00,1.27
7684.00,1.27
7683.00,1.27
7682.00,1.27
7681.00,1.27
7680.00,1.27
7679.00,1.26
7678.00,1.26
7677.00,1.26
7676.00,1.26
7675.00,1.26
7674.00,1.26
7673.00,1.26
7672.00,1.26
7671.00,1.26
7670.00,1.26
7669.00,1.26
7668.00,1.26
7667.00,1.26
7666.00,1.26
7665.00,1.26
7664.00,1.26
7663.00,1.27
7662.00,1.27
7661.00,1.27
7660.00,1.27
7659.00,1.27
7658.00,1.27
7657.00,1.27
7656.00,1.27
7655.00,1.27
7654.00,1.27
7653.00,1.26
7652.00,1.26
7651.00,1.26
7650.00,1.26
7649.00,1.26
7648.00,1.26
7647.00,1.26
7646.00,1.26
7645.00,1.26
7644.00,1.26
7643.00,1.26
7642.00,1.26
7641.00,1.26
7640.00,1.26
7639.00,1.27
7638.00,1.27
7637.00,1.27
7636.00,1.27
7635.00,1.27
7634.00,1.27
7633.00,1.27
7632.00,1.27
7631.00,1.27
7630.00,1.28
7629.00,1.28
7628.00,1.28
7627.00,1.28
7626.00,1.28
7625.00,1.28
7624.00,1.28
7623.00,1.27
7622.00,1.27
7621.00,1.27
7620.00,1.27
7619.00,1.27
7618.00,1.27
7617.00,1.27
7616.00,1.27
7615.00,1.26
7614.00,1.26
7613.00,1.26
7612.00,1.26
7611.00,1.26
7610.00,1.26
7609.00,1.26
7608.00,1.26
7607.00,1.26
7606.00,1.26
7605.00,1.26
7604.00,1.26
7603.00,1.26
7602.00,1.26
7601.00,1.26
7600.00,1.26
7599.00,1.26
7598.00,1.26
7597.00,1.26
7596.00,1.26
7595.00,1.26
7594.00,1.26
7593.00,1.26
7592.00,1.26
7591.00,1.26
7590.00,1.26
7589.00,1.26
7588.00,1.26
7587.00,1.26
7586.00,1.26
7585.00,1.26
7584.00,1.26
7583.00,1.26
7582.00,1.26
7581.00,1.26
7580.00,1.26
7579.00,1.26
7578.00,1.26
7577.00,1.25
7576.00,1.25
7575.00,1.25
7574.00,1.25
7573.00,1.25
7572.00,1.25
7571.00,1.25
7570.00,1.25
7569.00,1.25
7568.00,1.25
7567.00,1.25
7566.00,1.25
7565.00,1.25
7564.00,1.25
7563.00,1.25
7562.00,1.25
7561.00,1.25
7560.00,1.25
7559.00,1.25
7558.00,1.25
7557.00,1.25
7556.00,1.24
7555.00,1.24
7554.00,1.24
7553.00,1.24
7552.00,1.24
7551.00,1.24
7550.00,1.24
7549.00,1.24
7548.00,1.24
7547.00,1.24
7546.00,1.24
7545.00,1.24
7544.00,1.24
7543.00,1.24
7542.00,1.24
7541.00,1.24
7540.00,1.24
7539.00,1.24
7538.00,1.24
7537.00,1.24
7536.00,1.23
7535.00,1.23
7534.00,1.23
7533.00,1.23
7532.00,1.23
7531.00,1.23
7530.00,1.23
7529.00,1.23
7528.00,1.23
7527.00,1.23
7526.00,1.23
7525.00,1.22
7524.00,1.22
7523.00,1.22
7522.00,1.22
7521.00,1.22
7520.00,1.22
7519.00,1.22
7518.00,1.22
7517.00,1.22
7516.00,1.22
7515.00,1.22
7514.00,1.22
7513.00,1.22
7512.00,1.22
7511.00,1.22
7510.00,1.22
7509.00,1.22
7508.00,1.22
7507.00,1.22
7506.00,1.22
7505.00,1.22
7504.00,1.22
7503.00,1.22
7502.00,1.22
7501.00,1.22
7500.00,1.22
7499.00,1.22
7498.00,1.22
7497.00,1.22
7496.00,1.22
7495.00,1.22
7494.00,1.22
7493.00,1.21
7492.00,1.21
7491.00,1.21
7490.00,1.21
7489.00,1.21
7488.00,1.21
7487.00,1.21
7486.00,1.21
7485.00,1.21
7484.00,1.21
7483.00,1.21
7482.00,1.20
7481.00,1.20
7480.00,1.20
7479.00,1.20
7478.00,1.20
7477.00,1.20
7476.00,1.20
7475.00,1.20
7474.00,1.20
7473.00,1.20
7472.00,1.20
7471.00,1.20
7470.00,1.20
7469.00,1.20
7468.00,1.20
7467.00,1.20
7466.00,1.20
7465.00,1.20
7464.00,1.20
7463.00,1.20
7462.00,1.20
7461.00,1.20
7460.00,1.20
7459.00,1.20
7458.00,1.20
7457.00,1.20
7456.00,1.20
7455.00,1.20
7454.00,1.20
7453.00,1.20
7452.00,1.20
7451.00,1.20
7450.00,1.20
7449.00,1.20
7448.00,1.19
7447.00,1.19
7446.00,1.19
7445.00,1.19
7444.00,1.19
7443.00,1.19
7442.00,1.18
7441.00,1.18
7440.00,1.18
7439.00,1.18
7438.00,1.18
7437.00,1.18
7436.00,1.18
7435.00,1.17
7434.00,1.17
7433.00,1.17
7432.00,1.17
7431.00,1.17
7430.00,1.17
7429.00,1.17
7428.00,1.17
7427.00,1.17
7426.00,1.17
7425.00,1.16
7424.00,1.16
7423.00,1.16
7422.00,1.16
7421.00,1.16
7420.00,1.16
7419.00,1.16
7418.00,1.16
7417.00,1.16
7416.00,1.16
7415.00,1.16
7414.00,1.16
7413.00,1.15
7412.00,1.15
7411.00,1.15
7410.00,1.15
7409.00,1.15
7408.00,1.15
7407.00,1.15
7406.00,1.15
7405.00,1.14
7404.00,1.14
7403.00,1.14
7402.00,1.14
7401.00,1.14
7400.00,1.14
7399.00,1.13
7398.00,1.13
7397.00,1.13
7396.00,1.13
7395.00,1.13
7394.00,1.12
7393.00,1.12
7392.00,1.12
7391.00,1.12
7390.00,1.12
7389.00,1.11
7388.00,1.11
7387.00,1.11
7386.00,1.11
7385.00,1.11
7384.00,1.11
7383.00,1.11
7382.00,1.11
7381.00,1.11
7380.00,1.11
7379.00,1.11
7378.00,1.11
7377.00,1.11
7376.00,1.12
7375.00,1.12
7374.00,1.12
7373.00,1.12
7372.00,1.12
7371.00,1.12
7370.00,1.12
7369.00,1.12
7368.00,1.12
7367.00,1.12
7366.00,1.12
7365.00,1.12
7364.00,1.12
7363.00,1.12
7362.00,1.12
7361.00,1.12
7360.00,1.12
7359.00,1.12
7358.00,1.12
7357.00,1.12
7356.00,1.11
7355.00,1.11
7354.00,1.11
7353.00,1.11
7352.00,1.11
7351.00,1.11
7350.00,1.11
7349.00,1.11
7348.00,1.11
7347.00,1.10
7346.00,1.10
7345.00,1.10
7344.00,1.10
7343.00,1.10
7342.00,1.10
7341.00,1.10
7340.00,1.10
7339.00,1.10
7338.00,1.10
7337.00,1.09
7336.00,1.09
7335.00,1.09
7334.00,1.09
7333.00,1.09
7332.00,1.09
7331.00,1.09
7330.00,1.09
7329.00,1.09
7328.00,1.09
7327.00,1.09
7326.00,1.09
7325.00,1.09
7324.00,1.08
7323.00,1.08
7322.00,1.08
7321.00,1.08
7320.00,1.08
7319.00,1.08
7318.00,1.08
7317.00,1.08
7316.00,1.08
7315.00,1.08
7314.00,1.08
7313.00,1.08
7312.00,1.08
7311.00,1.08
7310.00,1.08
7309.00,1.08
7308.00,1.08
7307.00,1.08
7306.00,1.07
7305.00,1.07
7304.00,1.07
7303.00,1.07
7302.00,1.07
7301.00,1.07
7300.00,1.07
7299.00,1.07
7298.00,1.07
7297.00,1.06
7296.00,1.06
7295.00,1.06
7294.00,1.06
7293.00,1.06
7292.00,1.06
7291.00,1.06
7290.00,1.06
7289.00,1.06
7288.00,1.06
7287.00,1.05
7286.00,1.05
7285.00,1.05
7284.00,1.05
7283.00,1.05
7282.00,1.05
7281.00,1.05
7280.00,1.05
7279.00,1.05
7278.00,1.04
7277.00,1.04
7276.00,1.04
7275.00,1.04
7274.00,1.04
7273.00,1.04
7272.00,1.04
7271.00,1.04
7270.00,1.03
7269.00,1.03
7268.00,1.03
7267.00,1.03
7266.00,1.03
7265.00,1.03
7264.00,1.03
7263.00,1.03
7262.00,1.03
7261.00,1.03
7260.00,1.03
7259.00,1.03
7258.00,1.02
7257.00,1.02
7256.00,1.02
7255.00,1.02
7254.00,1.02
7253.00,1.01
7252.00,1.01
7251.00,1.01
7250.00,1.00
7249.00,1.00
7248.00,1.00
7247.00,0.99
7246.00,0.99
7245.00,0.99
7244.00,0.98
7243.00,0.98
7242.00,0.98
7241.00,0.97
7240.00,0.97
7239.00,0.97
7238.00,0.96
7237.00,0.96
7236.00,0.96
7235.00,0.95
7234.00,0.95
7233.00,0.95
7232.00,0.94
7231.00,0.94
7230.00,0.94
7229.00,0.93
7228.00,0.93
7227.00,0.93
7226.00,0.92
7225.00,0.92
7224.00,0.91
7223.00,0.91
7222.00,0.91
7221.00,0.90
7220.00,0.90
7219.00,0.90
7218.00,0.89
7217.00,0.89
7216.00,0.89
7215.00,0.88
7214.00,0.88
7213.00,0.88
7212.00,0.87
7211.00,0.87
7210.00,0.87
7209.00,0.86
7208.00,0.86
7207.00,0.86
7206.00,0.85
7205.00,0.85
7204.00,0.85
7203.00,0.84
7202.00,0.84
7201.00,0.84
7200.00,0.84
7199.00,0.83
7198.00,0.83
7197.00,0.83
7196.00,0.82
7195.00,0.82
7194.00,0.82
7193.00,0.82
7192.00,0.81
7191.00,0.81
7190.00,0.81
7189.00,0.80
7188.00,0.80
7187.00,0.80
7186.00,0.79
7185.00,0.79
7184.00,0.79
7183.00,0.78
7182.00,0.78
7181.00,0.78
7180.00,0.77
7179.00,0.77
7178.00,0.76
7177.00,0.76
7176.00,0.76
7175.00,0.75
7174.00,0.75
7173.00,0.75
7172.00,0.74
7171.00,0.74
7170.00,0.74
7169.00,0.73
7168.00,0.73
7167.00,0.73
7166.00,0.72
7165.00,0.72
7164.00,0.72
7163.00,0.72
7162.00,0.71
7161.00,0.71
7160.00,0.71
7159.00,0.71
7158.00,0.71
7157.00,0.70
7156.00,0.70
7155.00,0.70
7154.00,0.70
7153.00,0.70
7152.00,0.70
7151.00,0.70
7150.00,0.70
7149.00,0.69
7148.00,0.69
7147.00,0.69
7146.00,0.69
7145.00,0.69
7144.00,0.68
7143.00,0.68
7142.00,0.68
7141.00,0.68
7140.00,0.67
7139.00,0.67
7138.00,0.67
7137.00,0.67
7136.00,0.66
7135.00,0.66
7134.00,0.66
7133.00,0.66
7132.00,0.66
7131.00,0.65
7130.00,0.65
7129.00,0.65
7128.00,0.65
7127.00,0.65
7126.00,0.65
7125.00,0.65
7124.00,0.65
7123.00,0.64
7122.00,0.64
7121.00,0.64
7120.00,0.64
7119.00,0.64
7118.00,0.64
7117.00,0.63
7116.00,0.63
7115.00,0.63
7114.00,0.63
7113.00,0.63
7112.00,0.63
7111.00,0.62
7110.00,0.62
7109.00,0.62
7108.00,0.62
7107.00,0.62
7106.00,0.61
7105.00,0.61
7104.00,0.61
7103.00,0.61
7102.00,0.61
7101.00,0.61
7100.00,0.61
7099.00,0.60
7098.00,0.60
7097.00,0.60
7096.00,0.60
7095.00,0.60
7094.00,0.60
7093.00,0.60
7092.00,0.60
7091.00,0.60
7090.00,0.60
7089.00,0.60
7088.00,0.60
7087.00,0.60
7086.00,0.60
7085.00,0.60
7084.00,0.60
7083.00,0.60
7082.00,0.60
7081.00,0.59
7080.00,0.59
7079.00,0.59
7078.00,0.59
7077.00,0.59
7076.00,0.59
7075.00,0.59
7074.00,0.59
7073.00,0.59
7072.00,0.59
7071.00,0.59
7070.00,0.59
7069.00,0.59
7068.00,0.59
7067.00,0.59
7066.00,0.59
7065.00,0.59
7064.00,0.59
7063.00,0.59
7062.00,0.59
7061.00,0.59
7060.00,0.59
7059.00,0.59
7058.00,0.59
7057.00,0.58
7056.00,0.58
7055.00,0.58
7054.00,0.58
7053.00,0.58
7052.00,0.58
7051.00,0.58
7050.00,0.58
7049.00,0.58
7048.00,0.58
7047.00,0.58
7046.00,0.58
7045.00,0.58
7044.00,0.58
7043.00,0.57
7042.00,0.57
7041.00,0.57
7040.00,0.57
7039.00,0.57
7038.00,0.57
7037.00,0.57
7036.00,0.57
7035.00,0.57
7034.00,0.57
7033.00,0.57
7032.00,0.57
7031.00,0.58
7030.00,0.58
7029.00,0.58
7028.00,0.58
7027.00,0.58
7026.00,0.58
7025.00,0.58
7024.00,0.57
7023.00,0.57
7022.00,0.57
7021.00,0.57
7020.00,0.57
7019.00,0.57
7018.00,0.57
7017.00,0.57
7016.00,0.57
7015.00,0.57
7014.00,0.57
7013.00,0.57
7012.00,0.57
7011.00,0.57
7010.00,0.57
7009.00,0.57
7008.00,0.57
7007.00,0.57
7006.00,0.57
7005.00,0.57
7004.00,0.57
7003.00,0.57
7002.00,0.57
7001.00,0.57
7000.00,0.57
6999.00,0.57
6998.00,0.56
6997.00,0.56
6996.00,0.56
6995.00,0.56
6994.00,0.56
6993.00,0.56
6992.00,0.56
6991.00,0.56
6990.00,0.56
6989.00,0.56
6988.00,0.56
6987.00,0.56
6986.00,0.56
6985.00,0.56
6984.00,0.56
6983.00,0.56
6982.00,0.56
6981.00,0.56
6980.00,0.56
6979.00,0.56
6978.00,0.56
6977.00,0.56
6976.00,0.56
6975.00,0.55
6974.00,0.55
6973.00,0.55
6972.00,0.55
6971.00,0.55
6970.00,0.55
6969.00,0.55
6968.00,0.55
6967.00,0.56
6966.00,0.56
6965.00,0.56
6964.00,0.56
6963.00,0.56
6962.00,0.56
6961.00,0.56
6960.00,0.56
6959.00,0.56
6958.00,0.56
6957.00,0.56
6956.00,0.56
6955.00,0.56
6954.00,0.56
6953.00,0.57
6952.00,0.57
6951.00,0.57
6950.00,0.57
6949.00,0.57
6948.00,0.57
6947.00,0.57
6946.00,0.57
6945.00,0.57
6944.00,0.57
6943.00,0.57
6942.00,0.56
6941.00,0.56
6940.00,0.56
6939.00,0.56
6938.00,0.56
6937.00,0.56
6936.00,0.56
6935.00,0.56
6934.00,0.56
6933.00,0.56
6932.00,0.56
6931.00,0.56
6930.00,0.56
6929.00,0.56
6928.00,0.56
6927.00,0.56
6926.00,0.56
6925.00,0.56
6924.00,0.56
6923.00,0.56
6922.00,0.57
6921.00,0.57
6920.00,0.57
6919.00,0.57
6918.00,0.57
6917.00,0.57
6916.00,0.57
6915.00,0.57
6914.00,0.57
6913.00,0.56
6912.00,0.56
6911.00,0.56
6910.00,0.56
6909.00,0.56
6908.00,0.56
6907.00,0.56
6906.00,0.56
6905.00,0.56
6904.00,0.56
6903.00,0.56
6902.00,0.56
6901.00,0.56
6900.00,0.56
6899.00,0.56
6898.00,0.56
6897.00,0.56
6896.00,0.56
6895.00,0.56
6894.00,0.56
6893.00,0.56
6892.00,0.56
6891.00,0.56
6890.00,0.56
6889.00,0.56
6888.00,0.56
6887.00,0.56
6886.00,0.56
6885.00,0.56
6884.00,0.56
6883.00,0.56
6882.00,0.57
6881.00,0.57
6880.00,0.57
6879.00,0.57
6878.00,0.57
6877.00,0.57
6876.00,0.57
6875.00,0.57
6874.00,0.57
6873.00,0.57
6872.00,0.57
6871.00,0.57
6870.00,0.57
6869.00,0.57
6868.00,0.57
6867.00,0.57
6866.00,0.57
6865.00,0.57
6864.00,0.57
6863.00,0.57
6862.00,0.57
6861.00,0.57
6860.00,0.57
6859.00,0.57
6858.00,0.57
6857.00,0.57
6856.00,0.57
6855.00,0.57
6854.00,0.57
6853.00,0.57
6852.00,0.57
6851.00,0.57
6850.00,0.57
6849.00,0.57
6848.00,0.57
6847.00,0.57
6846.00,0.57
6845.00,0.57
6844.00,0.57
6843.00,0.57
6842.00,0.57
6841.00,0.57
6840.00,0.57
6839.00,0.57
6838.00,0.57
6837.00,0.57
6836.00,0.57
6835.00,0.57
6834.00,0.57
6833.00,0.57
6832.00,0.57
6831.00,0.57
6830.00,0.57
6829.00,0.57
6828.00,0.57
6827.00,0.57
6826.00,0.57
6825.00,0.57
6824.00,0.57
6823.00,0.57
6822.00,0.57
6821.00,0.57
6820.00,0.57
6819.00,0.57
6818.00,0.57
6817.00,0.57
6816.00,0.57
6815.00,0.57
6814.00,0.57
6813.00,0.57
6812.00,0.58
6811.00,0.58
6810.00,0.58
6809.00,0.58
6808.00,0.58
6807.00,0.58
6806.00,0.58
6805.00,0.58
6804.00,0.58
6803.00,0.58
6802.00,0.58
6801.00,0.58
6800.00,0.58
6799.00,0.58
6798.00,0.58
6797.00,0.58
6796.00,0.58
6795.00,0.58
6794.00,0.58
6793.00,0.58
6792.00,0.58
6791.00,0.58
6790.00,0.58
6789.00,0.58
6788.00,0.58
6787.00,0.58
6786.00,0.58
6785.00,0.58
6784.00,0.58
6783.00,0.58
6782.00,0.58
6781.00,0.58
6780.00,0.58
6779.00,0.58
6778.00,0.58
6777.00,0.58
6776.00,0.58
6775.00,0.58
6774.00,0.58
6773.00,0.59
6772.00,0.59
6771.00,0.59
6770.00,0.59
6769.00,0.59
6768.00,0.59
6767.00,0.59
6766.00,0.59
6765.00,0.59
6764.00,0.59
6763.00,0.59
6762.00,0.59
6761.00,0.59
6760.00,0.59
6759.00,0.59
6758.00,0.59
6757.00,0.59
6756.00,0.59
6755.00,0.59
6754.00,0.59
6753.00,0.59
6752.00,0.59
6751.00,0.59
6750.00,0.59
6749.00,0.59
6748.00,0.59
6747.00,0.59
6746.00,0.59
6745.00,0.59
6744.00,0.60
6743.00,0.60
6742.00,0.60
6741.00,0.60
6740.00,0.60
6739.00,0.60
6738.00,0.60
6737.00,0.60
6736.00,0.60
6735.00,0.60
6734.00,0.60
6733.00,0.60
6732.00,0.61
6731.00,0.61
6730.00,0.61
6729.00,0.61
6728.00,0.61
6727.00,0.61
6726.00,0.61
6725.00,0.61
6724.00,0.61
6723.00,0.61
6722.00,0.61
6721.00,0.61
6720.00,0.61
6719.00,0.61
6718.00,0.61
6717.00,0.61
6716.00,0.61
6715.00,0.61
6714.00,0.61
6713.00,0.61
6712.00,0.61
6711.00,0.61
6710.00,0.61
6709.00,0.61
6708.00,0.61
6707.00,0.61
6706.00,0.61
6705.00,0.61
6704.00,0.61
6703.00,0.61
6702.00,0.61
6701.00,0.61
6700.00,0.61
6699.00,0.61
6698.00,0.61
6697.00,0.61
6696.00,0.61
6695.00,0.61
6694.00,0.62
6693.00,0.62
6692.00,0.62
6691.00,0.62
6690.00,0.62
6689.00,0.62
6688.00,0.62
6687.00,0.62
6686.00,0.62
6685.00,0.62
6684.00,0.62
6683.00,0.62
6682.00,0.62
6681.00,0.62
6680.00,0.62
6679.00,0.62
6678.00,0.62
6677.00,0.62
6676.00,0.62
6675.00,0.62
6674.00,0.62
6673.00,0.62
6672.00,0.62
6671.00,0.62
6670.00,0.62
6669.00,0.63
6668.00,0.63
6667.00,0.63
6666.00,0.63
6665.00,0.63
6664.00,0.63
6663.00,0.63
6662.00,0.63
6661.00,0.63
6660.00,0.63
6659.00,0.63
6658.00,0.63
6657.00,0.64
6656.00,0.64
6655.00,0.64
6654.00,0.64
6653.00,0.64
6652.00,0.64
6651.00,0.64
6650.00,0.64
6649.00,0.64
6648.00,0.64
6647.00,0.64
6646.00,0.64
6645.00,0.65
6644.00,0.65
6643.00,0.65
6642.00,0.65
6641.00,0.65
6640.00,0.65
6639.00,0.65
6638.00,0.65
6637.00,0.65
6636.00,0.65
6635.00,0.65
6634.00,0.65
6633.00,0.65
6632.00,0.65
6631.00,0.65
6630.00,0.66
6629.00,0.66
6628.00,0.66
6627.00,0.66
6626.00,0.66
6625.00,0.66
6624.00,0.66
6623.00,0.66
6622.00,0.66
6621.00,0.66
6620.00,0.66
6619.00,0.66
6618.00,0.66
6617.00,0.66
6616.00,0.66
6615.00,0.66
6614.00,0.66
6613.00,0.66
6612.00,0.66
6611.00,0.66
6610.00,0.66
6609.00,0.66
6608.00,0.66
6607.00,0.66
6606.00,0.66
6605.00,0.66
6604.00,0.66
6603.00,0.66
6602.00,0.67
6601.00,0.67
6600.00,0.67
6599.00,0.67
6598.00,0.67
6597.00,0.67
6596.00,0.67
6595.00,0.68
6594.00,0.68
6593.00,0.68
6592.00,0.68
6591.00,0.68
6590.00,0.68
6589.00,0.68
6588.00,0.68
6587.00,0.68
6586.00,0.68
6585.00,0.68
6584.00,0.68
6583.00,0.68
6582.00,0.68
6581.00,0.68
6580.00,0.68
6579.00,0.68
6578.00,0.69
6577.00,0.69
6576.00,0.69
6575.00,0.69
6574.00,0.69
6573.00,0.69
6572.00,0.69
6571.00,0.69
6570.00,0.69
6569.00,0.69
6568.00,0.69
6567.00,0.70
6566.00,0.70
6565.00,0.70
6564.00,0.70
6563.00,0.70
6562.00,0.70
6561.00,0.70
6560.00,0.70
6559.00,0.70
6558.00,0.70
6557.00,0.70
6556.00,0.70
6555.00,0.70
6554.00,0.70
6553.00,0.70
6552.00,0.70
6551.00,0.70
6550.00,0.70
6549.00,0.70
6548.00,0.70
6547.00,0.70
6546.00,0.70
6545.00,0.70
6544.00,0.71
6543.00,0.71
6542.00,0.71
6541.00,0.71
6540.00,0.71
6539.00,0.71
6538.00,0.71
6537.00,0.71
6536.00,0.72
6535.00,0.72
6534.00,0.72
6533.00,0.72
6532.00,0.72
6531.00,0.72
6530.00,0.72
6529.00,0.72
6528.00,0.72
6527.00,0.72
6526.00,0.73
6525.00,0.73
6524.00,0.73
6523.00,0.73
6522.00,0.73
6521.00,0.73
6520.00,0.73
6519.00,0.73
6518.00,0.73
6517.00,0.73
6516.00,0.73
6515.00,0.73
6514.00,0.73
6513.00,0.73
6512.00,0.73
6511.00,0.73
6510.00,0.73
6509.00,0.73
6508.00,0.73
6507.00,0.73
6506.00,0.73
6505.00,0.73
6504.00,0.73
6503.00,0.73
6502.00,0.73
6501.00,0.73
6500.00,0.73
6499.00,0.73
6498.00,0.73
6497.00,0.74
6496.00,0.74
6495.00,0.74
6494.00,0.74
6493.00,0.74
6492.00,0.74
6491.00,0.74
6490.00,0.74
6489.00,0.74
6488.00,0.74
6487.00,0.74
6486.00,0.74
6485.00,0.74
6484.00,0.75
6483.00,0.75
6482.00,0.75
6481.00,0.75
6480.00,0.75
6479.00,0.75
6478.00,0.75
6477.00,0.75
6476.00,0.76
6475.00,0.76
6474.00,0.76
6473.00,0.76
6472.00,0.76
6471.00,0.76
6470.00,0.76
6469.00,0.76
6468.00,0.76
6467.00,0.76
6466.00,0.76
6465.00,0.76
6464.00,0.76
6463.00,0.76
6462.00,0.76
6461.00,0.76
6460.00,0.76
6459.00,0.76
6458.00,0.76
6457.00,0.76
6456.00,0.76
6455.00,0.76
6454.00,0.76
6453.00,0.76
6452.00,0.76
6451.00,0.76
6450.00,0.76
6449.00,0.76
6448.00,0.76
6447.00,0.77
6446.00,0.77
6445.00,0.77
6444.00,0.77
6443.00,0.77
6442.00,0.77
6441.00,0.77
6440.00,0.77
6439.00,0.77
6438.00,0.77
6437.00,0.77
6436.00,0.77
6435.00,0.77
6434.00,0.77
6433.00,0.77
6432.00,0.77
6431.00,0.78
6430.00,0.78
6429.00,0.78
6428.00,0.78
6427.00,0.78
6426.00,0.78
6425.00,0.78
6424.00,0.78
6423.00,0.78
6422.00,0.78
6421.00,0.78
6420.00,0.79
6419.00,0.79
6418.00,0.79
6417.00,0.79
6416.00,0.79
6415.00,0.79
6414.00,0.79
6413.00,0.79
6412.00,0.79
6411.00,0.80
6410.00,0.80
6409.00,0.80
6408.00,0.80
6407.00,0.80
6406.00,0.80
6405.00,0.80
6404.00,0.80
6403.00,0.80
6402.00,0.81
6401.00,0.81
6400.00,0.81
6399.00,0.81
6398.00,0.81
6397.00,0.81
6396.00,0.81
6395.00,0.81
6394.00,0.81
6393.00,0.81
6392.00,0.81
6391.00,0.82
6390.00,0.82
6389.00,0.82
6388.00,0.82
6387.00,0.82
6386.00,0.82
6385.00,0.82
6384.00,0.82
6383.00,0.82
6382.00,0.82
6381.00,0.82
6380.00,0.82
6379.00,0.82
6378.00,0.82
6377.00,0.82
6376.00,0.82
6375.00,0.82
6374.00,0.82
6373.00,0.82
6372.00,0.83
6371.00,0.83
6370.00,0.83
6369.00,0.83
6368.00,0.83
6367.00,0.83
6366.00,0.83
6365.00,0.83
6364.00,0.83
6363.00,0.83
6362.00,0.83
6361.00,0.84
6360.00,0.84
6359.00,0.84
6358.00,0.84
6357.00,0.84
6356.00,0.84
6355.00,0.84
6354.00,0.84
6353.00,0.84
6352.00,0.84
6351.00,0.84
6350.00,0.84
6349.00,0.85
6348.00,0.85
6347.00,0.85
6346.00,0.85
6345.00,0.85
6344.00,0.85
6343.00,0.85
6342.00,0.85
6341.00,0.85
6340.00,0.85
6339.00,0.86
6338.00,0.86
6337.00,0.86
6336.00,0.86
6335.00,0.86
6334.00,0.86
6333.00,0.86
6332.00,0.86
6331.00,0.87
6330.00,0.87
6329.00,0.87
6328.00,0.87
6327.00,0.87
6326.00,0.87
6325.00,0.87
6324.00,0.87
6323.00,0.87
6322.00,0.87
6321.00,0.87
6320.00,0.88
6319.00,0.88
6318.00,0.88
6317.00,0.88
6316.00,0.88
6315.00,0.88
6314.00,0.88
6313.00,0.88
6312.00,0.88
6311.00,0.88
6310.00,0.88
6309.00,0.88
6308.00,0.89
6307.00,0.89
6306.00,0.89
6305.00,0.89
6304.00,0.89
6303.00,0.89
6302.00,0.89
6301.00,0.89
6300.00,0.89
6299.00,0.89
6298.00,0.89
6297.00,0.89
6296.00,0.89
6295.00,0.89
6294.00,0.89
6293.00,0.89
6292.00,0.90
6291.00,0.90
6290.00,0.90
6289.00,0.90
6288.00,0.90
6287.00,0.90
6286.00,0.90
6285.00,0.90
6284.00,0.90
6283.00,0.90
6282.00,0.90
6281.00,0.90
6280.00,0.91
6279.00,0.91
6278.00,0.91
6277.00,0.91
6276.00,0.91
6275.00,0.91
6274.00,0.91
6273.00,0.91
6272.00,0.91
6271.00,0.92
6270.00,0.92
6269.00,0.92
6268.00,0.92
6267.00,0.92
6266.00,0.92
6265.00,0.92
6264.00,0.92
6263.00,0.93
6262.00,0.93
6261.00,0.93
6260.00,0.93
6259.00,0.93
6258.00,0.93
6257.00,0.93
6256.00,0.93
6255.00,0.94
6254.00,0.94
6253.00,0.94
6252.00,0.94
6251.00,0.94
6250.00,0.94
6249.00,0.94
6248.00,0.94
6247.00,0.95
6246.00,0.95
6245.00,0.95
6244.00,0.95
6243.00,0.95
6242.00,0.95
6241.00,0.95
6240.00,0.95
6239.00,0.95
6238.00,0.95
6237.00,0.95
6236.00,0.96
6235.00,0.96
6234.00,0.96
6233.00,0.96
6232.00,0.96
6231.00,0.96
6230.00,0.96
6229.00,0.96
6228.00,0.97
6227.00,0.97
6226.00,0.97
6225.00,0.97
6224.00,0.97
6223.00,0.97
6222.00,0.97
6221.00,0.97
6220.00,0.97
6219.00,0.97
6218.00,0.97
6217.00,0.98
6216.00,0.98
6215.00,0.98
6214.00,0.98
6213.00,0.98
6212.00,0.98
6211.00,0.98
6210.00,0.98
6209.00,0.99
6208.00,0.99
6207.00,0.99
6206.00,0.99
6205.00,0.99
6204.00,0.99
6203.00,1.00
6202.00,1.00
6201.00,1.00
6200.00,1.00
6199.00,1.00
6198.00,1.00
6197.00,1.01
6196.00,1.01
6195.00,1.01
6194.00,1.01
6193.00,1.01
6192.00,1.01
6191.00,1.01
6190.00,1.02
6189.00,1.02
6188.00,1.02
6187.00,1.02
6186.00,1.02
6185.00,1.02
6184.00,1.02
6183.00,1.02
6182.00,1.02
6181.00,1.02
6180.00,1.02
6179.00,1.02
6178.00,1.02
6177.00,1.02
6176.00,1.02
6175.00,1.02
6174.00,1.03
6173.00,1.03
6172.00,1.03
6171.00,1.03
6170.00,1.03
6169.00,1.03
6168.00,1.03
6167.00,1.03
6166.00,1.03
6165.00,1.04
6164.00,1.04
6163.00,1.04
6162.00,1.04
6161.00,1.04
6160.00,1.04
6159.00,1.05
6158.00,1.05
6157.00,1.05
6156.00,1.05
6155.00,1.05
6154.00,1.06
6153.00,1.06
6152.00,1.06
6151.00,1.06
6150.00,1.06
6149.00,1.06
6148.00,1.07
6147.00,1.07
6146.00,1.07
6145.00,1.07
6144.00,1.07
6143.00,1.07
6142.00,1.08
6141.00,1.08
6140.00,1.08
6139.00,1.08
6138.00,1.08
6137.00,1.08
6136.00,1.08
6135.00,1.08
6134.00,1.08
6133.00,1.09
6132.00,1.09
6131.00,1.09
6130.00,1.09
6129.00,1.09
6128.00,1.09
6127.00,1.09
6126.00,1.09
6125.00,1.09
6124.00,1.09
6123.00,1.10
6122.00,1.10
6121.00,1.10
6120.00,1.10
6119.00,1.10
6118.00,1.10
6117.00,1.10
6116.00,1.10
6115.00,1.10
6114.00,1.10
6113.00,1.11
6112.00,1.11
6111.00,1.11
6110.00,1.11
6109.00,1.11
6108.00,1.11
6107.00,1.11
6106.00,1.11
6105.00,1.11
6104.00,1.11
6103.00,1.12
6102.00,1.12
6101.00,1.12
6100.00,1.12
6099.00,1.12
6098.00,1.12
6097.00,1.12
6096.00,1.13
6095.00,1.13
6094.00,1.13
6093.00,1.13
6092.00,1.13
6091.00,1.13
6090.00,1.13
6089.00,1.14
6088.00,1.14
6087.00,1.14
6086.00,1.14
6085.00,1.14
6084.00,1.14
6083.00,1.14
6082.00,1.14
6081.00,1.14
6080.00,1.15
6079.00,1.15
6078.00,1.15
6077.00,1.15
6076.00,1.15
6075.00,1.15
6074.00,1.15
6073.00,1.15
6072.00,1.16
6071.00,1.16
6070.00,1.16
6069.00,1.16
6068.00,1.16
6067.00,1.16
6066.00,1.16
6065.00,1.16
6064.00,1.17
6063.00,1.17
6062.00,1.17
6061.00,1.17
6060.00,1.17
6059.00,1.17
6058.00,1.17
6057.00,1.17
6056.00,1.17
6055.00,1.17
6054.00,1.17
6053.00,1.17
6052.00,1.18
6051.00,1.18
6050.00,1.18
6049.00,1.18
6048.00,1.18
6047.00,1.18
6046.00,1.18
6045.00,1.18
6044.00,1.18
6043.00,1.18
6042.00,1.19
6041.00,1.19
6040.00,1.19
6039.00,1.19
6038.00,1.19
6037.00,1.19
6036.00,1.19
6035.00,1.19
6034.00,1.19
6033.00,1.19
6032.00,1.19
6031.00,1.19
6030.00,1.19
6029.00,1.19
6028.00,1.19
6027.00,1.20
6026.00,1.20
6025.00,1.20
6024.00,1.20
6023.00,1.20
6022.00,1.20
6021.00,1.20
6020.00,1.20
6019.00,1.20
6018.00,1.20
6017.00,1.20
6016.00,1.20
6015.00,1.20
6014.00,1.20
6013.00,1.20
6012.00,1.20
6011.00,1.20
6010.00,1.20
6009.00,1.20
6008.00,1.20
6007.00,1.20
6006.00,1.20
6005.00,1.20
6004.00,1.20
6003.00,1.20
6002.00,1.20
6001.00,1.20
6000.00,1.19
5999.00,1.19
5998.00,1.19
5997.00,1.19
5996.00,1.19
5995.00,1.19
5994.00,1.19
5993.00,1.18
5992.00,1.18
5991.00,1.18
5990.00,1.18
5989.00,1.18
5988.00,1.17
5987.00,1.17
5986.00,1.17
5985.00,1.17
5984.00,1.17
5983.00,1.16
5982.00,1.16
5981.00,1.16
5980.00,1.16
5979.00,1.16
5978.00,1.15
5977.00,1.15
5976.00,1.15
5975.00,1.15
5974.00,1.14
5973.00,1.14
5972.00,1.14
5971.00,1.13
5970.00,1.13
5969.00,1.13
5968.00,1.12
5967.00,1.12
5966.00,1.11
5965.00,1.11
5964.00,1.10
5963.00,1.10
5962.00,1.09
5961.00,1.09
5960.00,1.09
5959.00,1.08
5958.00,1.08
5957.00,1.07
5956.00,1.07
5955.00,1.06
5954.00,1.06
5953.00,1.05
5952.00,1.05
5951.00,1.05
5950.00,1.04
5949.00,1.04
5948.00,1.04
5947.00,1.04
5946.00,1.03
5945.00,1.03
5944.00,1.03
5943.00,1.03
5942.00,1.03
5941.00,1.03
5940.00,1.03
5939.00,1.02
5938.00,1.02
5937.00,1.02
5936.00,1.02
5935.00,1.02
5934.00,1.02
5933.00,1.02
5932.00,1.02
5931.00,1.02
5930.00,1.02
5929.00,1.02
5928.00,1.01
5927.00,1.01
5926.00,1.01
5925.00,1.01
5924.00,1.01
5923.00,1.01
5922.00,1.01
5921.00,1.01
5920.00,1.01
5919.00,1.00
5918.00,1.00
5917.00,1.00
5916.00,1.00
5915.00,1.00
5914.00,1.00
5913.00,1.00
5912.00,1.00
5911.00,1.00
5910.00,0.99
5909.00,0.99
5908.00,0.99
5907.00,0.99
5906.00,0.99
5905.00,0.99
5904.00,0.99
5903.00,0.99
5902.00,0.99
5901.00,0.99
5900.00,0.99
5899.00,0.99
5898.00,0.99
5897.00,1.00
5896.00,1.00
5895.00,1.00
5894.00,1.00
5893.00,1.00
5892.00,1.00
5891.00,1.01
5890.00,1.01
5889.00,1.01
5888.00,1.01
5887.00,1.01
5886.00,1.01
5885.00,1.02
5884.00,1.02
5883.00,1.02
5882.00,1.02
5881.00,1.02
5880.00,1.02
5879.00,1.03
5878.00,1.03
5877.00,1.03
5876.00,1.03
5875.00,1.03
5874.00,1.03
5873.00,1.04
5872.00,1.04
5871.00,1.04
5870.00,1.04
5869.00,1.04
5868.00,1.05
5867.00,1.05
5866.00,1.05
5865.00,1.05
5864.00,1.05
5863.00,1.06
5862.00,1.06
5861.00,1.06
5860.00,1.06
5859.00,1.06
5858.00,1.07
5857.00,1.07
5856.00,1.07
5855.00,1.07
5854.00,1.07
5853.00,1.07
5852.00,1.07
5851.00,1.08
5850.00,1.08
5849.00,1.08
5848.00,1.08
5847.00,1.08
5846.00,1.08
5845.00,1.08
5844.00,1.08
5843.00,1.08
5842.00,1.08
5841.00,1.08
5840.00,1.08
5839.00,1.08
5838.00,1.08
5837.00,1.07
5836.00,1.07
5835.00,1.07
5834.00,1.07
5833.00,1.07
5832.00,1.07
5831.00,1.07
5830.00,1.07
5829.00,1.07
5828.00,1.07
5827.00,1.07
5826.00,1.07
5825.00,1.07
5824.00,1.07
5823.00,1.07
5822.00,1.07
5821.00,1.07
5820.00,1.07
5819.00,1.07
5818.00,1.07
5817.00,1.07
5816.00,1.07
5815.00,1.07
5814.00,1.07
5813.00,1.07
5812.00,1.07
5811.00,1.07
5810.00,1.07
5809.00,1.07
5808.00,1.07
5807.00,1.07
5806.00,1.07
5805.00,1.07
5804.00,1.07
5803.00,1.07
5802.00,1.07
5801.00,1.07
5800.00,1.06
5799.00,1.06
5798.00,1.06
5797.00,1.06
5796.00,1.06
5795.00,1.06
5794.00,1.06
5793.00,1.05
5792.00,1.05
5791.00,1.05
5790.00,1.05
5789.00,1.05
5788.00,1.05
5787.00,1.05
5786.00,1.04
5785.00,1.04
5784.00,1.04
5783.00,1.04
5782.00,1.04
5781.00,1.04
5780.00,1.04
5779.00,1.04
5778.00,1.03
5777.00,1.03
5776.00,1.03
5775.00,1.03
5774.00,1.03
5773.00,1.03
5772.00,1.03
5771.00,1.03
5770.00,1.03
5769.00,1.03
5768.00,1.03
5767.00,1.03
5766.00,1.03
5765.00,1.04
5764.00,1.04
5763.00,1.04
5762.00,1.04
5761.00,1.04
5760.00,1.04
5759.00,1.05
5758.00,1.05
5757.00,1.05
5756.00,1.05
5755.00,1.06
5754.00,1.06
5753.00,1.06
5752.00,1.06
5751.00,1.06
5750.00,1.07
5749.00,1.07
5748.00,1.07
5747.00,1.07
5746.00,1.08
5745.00,1.08
5744.00,1.08
5743.00,1.08
5742.00,1.08
5741.00,1.08
5740.00,1.09
5739.00,1.09
5738.00,1.09
5737.00,1.09
5736.00,1.09
5735.00,1.09
5734.00,1.09
5733.00,1.09
5732.00,1.10
5731.00,1.10
5730.00,1.10
5729.00,1.10
5728.00,1.10
5727.00,1.10
5726.00,1.10
5725.00,1.10
5724.00,1.10
5723.00,1.10
5722.00,1.10
5721.00,1.10
5720.00,1.10
5719.00,1.10
5718.00,1.10
5717.00,1.10
5716.00,1.10
5715.00,1.10
5714.00,1.10
5713.00,1.10
5712.00,1.10
5711.00,1.10
5710.00,1.10
5709.00,1.09
5708.00,1.09
5707.00,1.09
5706.00,1.09
5705.00,1.09
5704.00,1.09
5703.00,1.09
5702.00,1.09
5701.00,1.08
5700.00,1.08
5699.00,1.08
5698.00,1.08
5697.00,1.08
5696.00,1.08
5695.00,1.08
5694.00,1.08
5693.00,1.08
5692.00,1.07
5691.00,1.07
5690.00,1.07
5689.00,1.07
5688.00,1.07
5687.00,1.07
5686.00,1.07
5685.00,1.07
5684.00,1.07
5683.00,1.06
5682.00,1.06
5681.00,1.06
5680.00,1.06
5679.00,1.06
5678.00,1.06
5677.00,1.06
5676.00,1.06
5675.00,1.06
5674.00,1.06
5673.00,1.06
5672.00,1.06
5671.00,1.06
5670.00,1.06
5669.00,1.06
5668.00,1.06
5667.00,1.06
5666.00,1.06
5665.00,1.06
5664.00,1.06
5663.00,1.06
5662.00,1.06
5661.00,1.06
5660.00,1.07
5659.00,1.07
5658.00,1.07
5657.00,1.07
5656.00,1.07
5655.00,1.07
5654.00,1.07
5653.00,1.08
5652.00,1.08
5651.00,1.08
5650.00,1.08
5649.00,1.08
5648.00,1.08
5647.00,1.08
5646.00,1.08
5645.00,1.09
5644.00,1.09
5643.00,1.09
5642.00,1.09
5641.00,1.09
5640.00,1.09
5639.00,1.09
5638.00,1.09
5637.00,1.10
5636.00,1.10
5635.00,1.10
5634.00,1.10
5633.00,1.10
5632.00,1.10
5631.00,1.10
5630.00,1.10
5629.00,1.10
5628.00,1.10
5627.00,1.10
5626.00,1.10
5625.00,1.10
5624.00,1.10
5623.00,1.11
5622.00,1.11
5621.00,1.11
5620.00,1.11
5619.00,1.11
5618.00,1.11
5617.00,1.11
5616.00,1.11
5615.00,1.11
5614.00,1.11
5613.00,1.11
5612.00,1.11
5611.00,1.11
5610.00,1.11
5609.00,1.11
5608.00,1.12
5607.00,1.12
5606.00,1.12
5605.00,1.12
5604.00,1.12
5603.00,1.12
5602.00,1.12
5601.00,1.13
5600.00,1.13
5599.00,1.13
5598.00,1.13
5597.00,1.13
5596.00,1.13
5595.00,1.14
5594.00,1.14
5593.00,1.14
5592.00,1.14
5591.00,1.14
5590.00,1.14
5589.00,1.14
5588.00,1.15
5587.00,1.15
5586.00,1.15
5585.00,1.15
5584.00,1.15
5583.00,1.15
5582.00,1.15
5581.00,1.15
5580.00,1.15
5579.00,1.15
5578.00,1.16
5577.00,1.16
5576.00,1.16
5575.00,1.16
5574.00,1.16
5573.00,1.16
5572.00,1.16
5571.00,1.16
5570.00,1.16
5569.00,1.16
5568.00,1.16
5567.00,1.17
5566.00,1.17
5565.00,1.17
5564.00,1.17
5563.00,1.17
5562.00,1.17
5561.00,1.17
5560.00,1.17
5559.00,1.17
5558.00,1.18
5557.00,1.18
5556.00,1.18
5555.00,1.18
5554.00,1.18
5553.00,1.18
5552.00,1.18
5551.00,1.18
5550.00,1.19
5549.00,1.19
5548.00,1.19
5547.00,1.19
5546.00,1.19
5545.00,1.19
5544.00,1.19
5543.00,1.19
5542.00,1.20
5541.00,1.20
5540.00,1.20
5539.00,1.20
5538.00,1.20
5537.00,1.20
5536.00,1.20
5535.00,1.20
5534.00,1.20
5533.00,1.20
5532.00,1.20
5531.00,1.21
5530.00,1.21
5529.00,1.21
5528.00,1.21
5527.00,1.21
5526.00,1.21
5525.00,1.21
5524.00,1.21
5523.00,1.21
5522.00,1.21
5521.00,1.21
5520.00,1.21
5519.00,1.21
5518.00,1.21
5517.00,1.21
5516.00,1.21
5515.00,1.21
5514.00,1.21
5513.00,1.21
5512.00,1.21
5511.00,1.21
5510.00,1.21
5509.00,1.22
5508.00,1.22
5507.00,1.22
5506.00,1.22
5505.00,1.22
5504.00,1.22
5503.00,1.22
5502.00,1.22
5501.00,1.22
5500.00,1.22
5499.00,1.22
5498.00,1.23
5497.00,1.23
5496.00,1.23
5495.00,1.23
5494.00,1.23
5493.00,1.23
5492.00,1.23
5491.00,1.23
5490.00,1.23
5489.00,1.23
5488.00,1.24
5487.00,1.24
5486.00,1.24
5485.00,1.24
5484.00,1.24
5483.00,1.24
5482.00,1.24
5481.00,1.24
5480.00,1.24
5479.00,1.24
5478.00,1.25
5477.00,1.25
5476.00,1.25
5475.00,1.25
5474.00,1.25
5473.00,1.25
5472.00,1.25
5471.00,1.25
5470.00,1.25
5469.00,1.25
5468.00,1.25
5467.00,1.25
5466.00,1.25
5465.00,1.25
5464.00,1.25
5463.00,1.25
5462.00,1.25
5461.00,1.25
5460.00,1.26
5459.00,1.26
5458.00,1.26
5457.00,1.26
5456.00,1.26
5455.00,1.26
5454.00,1.26
5453.00,1.26
5452.00,1.26
5451.00,1.26
5450.00,1.26
5449.00,1.26
5448.00,1.26
5447.00,1.26
5446.00,1.26
5445.00,1.26
5444.00,1.26
5443.00,1.26
5442.00,1.26
5441.00,1.25
5440.00,1.25
5439.00,1.25
5438.00,1.25
5437.00,1.25
5436.00,1.25
5435.00,1.25
5434.00,1.25
5433.00,1.25
5432.00,1.25
5431.00,1.25
5430.00,1.25
5429.00,1.25
5428.00,1.25
5427.00,1.25
5426.00,1.25
5425.00,1.25
5424.00,1.25
5423.00,1.25
5422.00,1.25
5421.00,1.25
5420.00,1.25
5419.00,1.25
5418.00,1.25
5417.00,1.24
5416.00,1.24
5415.00,1.24
5414.00,1.24
5413.00,1.24
5412.00,1.24
5411.00,1.24
5410.00,1.24
5409.00,1.24
5408.00,1.24
5407.00,1.24
5406.00,1.24
5405.00,1.23
5404.00,1.23
5403.00,1.23
5402.00,1.23
5401.00,1.23
5400.00,1.23
5399.00,1.23
5398.00,1.23
5397.00,1.22
5396.00,1.22
5395.00,1.22
5394.00,1.22
5393.00,1.22
5392.00,1.21
5391.00,1.21
5390.00,1.21
5389.00,1.21
5388.00,1.20
5387.00,1.20
5386.00,1.20
5385.00,1.19
5384.00,1.19
5383.00,1.19
5382.00,1.18
5381.00,1.18
5380.00,1.18
5379.00,1.17
5378.00,1.17
5377.00,1.16
5376.00,1.16
5375.00,1.16
5374.00,1.15
5373.00,1.15
5372.00,1.14
5371.00,1.14
5370.00,1.13
5369.00,1.13
5368.00,1.12
5367.00,1.12
5366.00,1.11
5365.00,1.11
5364.00,1.10
5363.00,1.10
5362.00,1.09
5361.00,1.08
5360.00,1.08
5359.00,1.07
5358.00,1.07
5357.00,1.06
5356.00,1.05
5355.00,1.05
5354.00,1.04
5353.00,1.03
5352.00,1.03
5351.00,1.02
5350.00,1.01
5349.00,1.01
5348.00,1.00
5347.00,0.99
5346.00,0.99
5345.00,0.98
5344.00,0.97
5343.00,0.97
5342.00,0.96
5341.00,0.95
5340.00,0.95
5339.00,0.94
5338.00,0.94
5337.00,0.93
5336.00,0.93
5335.00,0.92
5334.00,0.92
5333.00,0.91
5332.00,0.91
5331.00,0.90
5330.00,0.90
5329.00,0.90
5328.00,0.89
5327.00,0.89
5326.00,0.89
5325.00,0.88
5324.00,0.88
5323.00,0.88
5322.00,0.87
5321.00,0.87
5320.00,0.87
5319.00,0.87
5318.00,0.86
5317.00,0.86
5316.00,0.86
5315.00,0.86
5314.00,0.85
5313.00,0.85
5312.00,0.85
5311.00,0.85
5310.00,0.84
5309.00,0.84
5308.00,0.84
5307.00,0.84
5306.00,0.84
5305.00,0.83
5304.00,0.83
5303.00,0.83
5302.00,0.83
5301.00,0.83
5300.00,0.83
5299.00,0.83
5298.00,0.83
5297.00,0.83
5296.00,0.83
5295.00,0.83
5294.00,0.82
5293.00,0.82
5292.00,0.82
5291.00,0.82
5290.00,0.82
5289.00,0.82
5288.00,0.82
5287.00,0.82
5286.00,0.82
5285.00,0.82
5284.00,0.82
5283.00,0.82
5282.00,0.82
5281.00,0.82
5280.00,0.82
5279.00,0.82
5278.00,0.82
5277.00,0.82
5276.00,0.82
5275.00,0.82
5274.00,0.82
5273.00,0.82
5272.00,0.82
5271.00,0.82
5270.00,0.82
5269.00,0.82
5268.00,0.82
5267.00,0.82
5266.00,0.82
5265.00,0.82
5264.00,0.82
5263.00,0.82
5262.00,0.82
5261.00,0.82
5260.00,0.82
5259.00,0.82
5258.00,0.82
5257.00,0.82
5256.00,0.83
5255.00,0.83
5254.00,0.83
5253.00,0.83
5252.00,0.83
5251.00,0.83
5250.00,0.83
5249.00,0.83
5248.00,0.83
5247.00,0.83
5246.00,0.83
5245.00,0.83
5244.00,0.83
5243.00,0.83
5242.00,0.83
5241.00,0.83
5240.00,0.83
5239.00,0.83
5238.00,0.83
5237.00,0.83
5236.00,0.83
5235.00,0.83
5234.00,0.83
5233.00,0.83
5232.00,0.83
5231.00,0.83
5230.00,0.83
5229.00,0.83
5228.00,0.83
5227.00,0.83
5226.00,0.83
5225.00,0.84
5224.00,0.84
5223.00,0.84
5222.00,0.84
5221.00,0.84
5220.00,0.84
5219.00,0.84
5218.00,0.84
5217.00,0.84
5216.00,0.84
5215.00,0.84
5214.00,0.84
5213.00,0.84
5212.00,0.84
5211.00,0.84
5210.00,0.84
5209.00,0.84
5208.00,0.84
5207.00,0.84
5206.00,0.84
5205.00,0.84
5204.00,0.84
5203.00,0.84
5202.00,0.84
5201.00,0.84
5200.00,0.84
5199.00,0.84
5198.00,0.84
5197.00,0.84
5196.00,0.84
5195.00,0.85
5194.00,0.85
5193.00,0.85
5192.00,0.85
5191.00,0.85
5190.00,0.85
5189.00,0.85
5188.00,0.85
5187.00,0.85
5186.00,0.85
5185.00,0.85
5184.00,0.85
5183.00,0.85
5182.00,0.85
5181.00,0.85
5180.00,0.85
5179.00,0.85
5178.00,0.85
5177.00,0.85
5176.00,0.85
5175.00,0.85
5174.00,0.85
5173.00,0.85
5172.00,0.85
5171.00,0.85
5170.00,0.85
5169.00,0.85
5168.00,0.85
5167.00,0.85
5166.00,0.85
5165.00,0.85
5164.00,0.85
5163.00,0.85
5162.00,0.85
5161.00,0.85
5160.00,0.85
5159.00,0.85
5158.00,0.85
5157.00,0.85
5156.00,0.85
5155.00,0.85
5154.00,0.85
5153.00,0.85
5152.00,0.85
5151.00,0.85
5150.00,0.85
5149.00,0.85
5148.00,0.85
5147.00,0.85
5146.00,0.85
5145.00,0.85
5144.00,0.85
5143.00,0.85
5142.00,0.85
5141.00,0.85
5140.00,0.85
5139.00,0.85
5138.00,0.85
5137.00,0.86
5136.00,0.86
5135.00,0.86
5134.00,0.86
5133.00,0.86
5132.00,0.86
5131.00,0.86
5130.00,0.86
5129.00,0.86
5128.00,0.86
5127.00,0.86
5126.00,0.86
5125.00,0.86
5124.00,0.86
5123.00,0.86
5122.00,0.87
5121.00,0.87
5120.00,0.87
5119.00,0.87
5118.00,0.87
5117.00,0.87
5116.00,0.87
5115.00,0.87
5114.00,0.87
5113.00,0.87
5112.00,0.87
5111.00,0.87
5110.00,0.87
5109.00,0.87
5108.00,0.87
5107.00,0.87
5106.00,0.87
5105.00,0.87
5104.00,0.87
5103.00,0.87
5102.00,0.87
5101.00,0.87
5100.00,0.88
5099.00,0.88
5098.00,0.88
5097.00,0.88
5096.00,0.88
5095.00,0.88
5094.00,0.88
5093.00,0.88
5092.00,0.88
5091.00,0.88
5090.00,0.88
5089.00,0.88
5088.00,0.88
5087.00,0.89
5086.00,0.89
5085.00,0.89
5084.00,0.89
5083.00,0.89
5082.00,0.89
5081.00,0.89
5080.00,0.89
5079.00,0.89
5078.00,0.89
5077.00,0.89
5076.00,0.89
5075.00,0.89
5074.00,0.89
5073.00,0.89
5072.00,0.89
5071.00,0.89
5070.00,0.89
5069.00,0.89
5068.00,0.89
5067.00,0.89
5066.00,0.89
5065.00,0.89
5064.00,0.89
5063.00,0.89
5062.00,0.89
5061.00,0.89
5060.00,0.89
5059.00,0.89
5058.00,0.89
5057.00,0.89
5056.00,0.89
5055.00,0.89
5054.00,0.89
5053.00,0.89
5052.00,0.89
5051.00,0.89
5050.00,0.89
5049.00,0.89
5048.00,0.90
5047.00,0.90
5046.00,0.90
5045.00,0.90
5044.00,0.90
5043.00,0.90
5042.00,0.90
5041.00,0.90
5040.00,0.90
5039.00,0.90
5038.00,0.90
5037.00,0.90
5036.00,0.90
5035.00,0.90
5034.00,0.90
5033.00,0.90
5032.00,0.90
5031.00,0.90
5030.00,0.90
5029.00,0.90
5028.00,0.90
5027.00,0.90
5026.00,0.90
5025.00,0.90
5024.00,0.90
5023.00,0.90
5022.00,0.91
5021.00,0.91
5020.00,0.91
5019.00,0.91
5018.00,0.91
5017.00,0.91
5016.00,0.91
5015.00,0.91
5014.00,0.91
5013.00,0.91
5012.00,0.91
5011.00,0.91
5010.00,0.91
5009.00,0.91
5008.00,0.91
5007.00,0.91
5006.00,0.91
5005.00,0.91
5004.00,0.91
5003.00,0.92
5002.00,0.92
5001.00,0.92
5000.00,0.92
4999.00,0.92
4998.00,0.92
4997.00,0.92
4996.00,0.92
4995.00,0.92
4994.00,0.92
4993.00,0.92
4992.00,0.92
4991.00,0.92
4990.00,0.92
4989.00,0.92
4988.00,0.92
4987.00,0.92
4986.00,0.92
4985.00,0.92
4984.00,0.92
4983.00,0.92
4982.00,0.92
4981.00,0.92
4980.00,0.92
4979.00,0.92
4978.00,0.92
4977.00,0.92
4976.00,0.92
4975.00,0.92
4974.00,0.93
4973.00,0.93
4972.00,0.93
4971.00,0.93
4970.00,0.93
4969.00,0.93
4968.00,0.93
4967.00,0.93
4966.00,0.93
4965.00,0.93
4964.00,0.93
4963.00,0.93
4962.00,0.93
4961.00,0.93
4960.00,0.93
4959.00,0.93
4958.00,0.93
4957.00,0.93
4956.00,0.93
4955.00,0.93
4954.00,0.93
4953.00,0.93
4952.00,0.93
4951.00,0.93
4950.00,0.93
4949.00,0.93
4948.00,0.93
4947.00,0.94
4946.00,0.94
4945.00,0.94
4944.00,0.94
4943.00,0.94
4942.00,0.94
4941.00,0.94
4940.00,0.94
4939.00,0.94
4938.00,0.94
4937.00,0.94
4936.00,0.94
4935.00,0.94
4934.00,0.94
4933.00,0.94
4932.00,0.94
4931.00,0.94
4930.00,0.94
4929.00,0.94
4928.00,0.94
4927.00,0.94
4926.00,0.94
4925.00,0.95
4924.00,0.95
4923.00,0.95
4922.00,0.95
4921.00,0.95
4920.00,0.95
4919.00,0.95
4918.00,0.95
4917.00,0.95
4916.00,0.95
4915.00,0.95
4914.00,0.95
4913.00,0.95
4912.00,0.95
4911.00,0.95
4910.00,0.95
4909.00,0.95
4908.00,0.95
4907.00,0.95
4906.00,0.95
4905.00,0.95
4904.00,0.95
4903.00,0.95
4902.00,0.95
4901.00,0.95
4900.00,0.95
4899.00,0.95
4898.00,0.95
4897.00,0.95
4896.00,0.95
4895.00,0.95
4894.00,0.95
4893.00,0.95
4892.00,0.95
4891.00,0.95
4890.00,0.95
4889.00,0.95
4888.00,0.95
4887.00,0.95
4886.00,0.95
4885.00,0.95
4884.00,0.95
4883.00,0.95
4882.00,0.95
4881.00,0.95
4880.00,0.95
4879.00,0.95
4878.00,0.95
4877.00,0.95
4876.00,0.95
4875.00,0.96
4874.00,0.96
4873.00,0.96
4872.00,0.96
4871.00,0.96
4870.00,0.96
4869.00,0.96
4868.00,0.96
4867.00,0.97
4866.00,0.97
4865.00,0.97
4864.00,0.97
4863.00,0.97
4862.00,0.97
4861.00,0.97
4860.00,0.97
4859.00,0.97
4858.00,0.97
4857.00,0.97
4856.00,0.97
4855.00,0.97
4854.00,0.97
4853.00,0.97
4852.00,0.97
4851.00,0.97
4850.00,0.97
4849.00,0.97
4848.00,0.97
4847.00,0.97
4846.00,0.97
4845.00,0.97
4844.00,0.97
4843.00,0.97
4842.00,0.97
4841.00,0.97
4840.00,0.97
4839.00,0.97
4838.00,0.97
4837.00,0.97
4836.00,0.97
4835.00,0.97
4834.00,0.97
4833.00,0.97
4832.00,0.97
4831.00,0.97
4830.00,0.97
4829.00,0.98
4828.00,0.98
4827.00,0.98
4826.00,0.98
4825.00,0.98
4824.00,0.98
4823.00,0.98
4822.00,0.98
4821.00,0.98
4820.00,0.98
4819.00,0.98
4818.00,0.98
4817.00,0.98
4816.00,0.98
4815.00,0.98
4814.00,0.98
4813.00,0.98
4812.00,0.98
4811.00,0.98
4810.00,0.98
4809.00,0.98
4808.00,0.99
4807.00,0.99
4806.00,0.99
4805.00,0.99
4804.00,0.99
4803.00,0.99
4802.00,0.99
4801.00,0.99
4800.00,0.99
4799.00,0.99
4798.00,0.99
4797.00,0.99
4796.00,0.99
4795.00,0.99
4794.00,0.99
4793.00,0.99
4792.00,0.99
4791.00,0.99
4790.00,1.00
4789.00,1.00
4788.00,1.00
4787.00,1.00
4786.00,1.00
4785.00,1.00
4784.00,1.00
4783.00,1.00
4782.00,1.00
4781.00,1.00
4780.00,1.00
4779.00,1.01
4778.00,1.01
4777.00,1.01
4776.00,1.01
4775.00,1.01
4774.00,1.01
4773.00,1.01
4772.00,1.01
4771.00,1.01
4770.00,1.01
4769.00,1.01
4768.00,1.01
4767.00,1.01
4766.00,1.01
4765.00,1.01
4764.00,1.01
4763.00,1.01
4762.00,1.01
4761.00,1.01
4760.00,1.01
4759.00,1.01
4758.00,1.01
4757.00,1.01
4756.00,1.01
4755.00,1.02
4754.00,1.02
4753.00,1.02
4752.00,1.02
4751.00,1.02
4750.00,1.02
4749.00,1.02
4748.00,1.02
4747.00,1.02
4746.00,1.02
4745.00,1.02
4744.00,1.02
4743.00,1.02
4742.00,1.02
4741.00,1.02
4740.00,1.02
4739.00,1.03
4738.00,1.03
4737.00,1.03
4736.00,1.03
4735.00,1.03
4734.00,1.03
4733.00,1.03
4732.00,1.03
4731.00,1.03
4730.00,1.03
4729.00,1.03
4728.00,1.04
4727.00,1.04
4726.00,1.04
4725.00,1.04
4724.00,1.04
4723.00,1.04
4722.00,1.04
4721.00,1.04
4720.00,1.04
4719.00,1.04
4718.00,1.04
4717.00,1.04
4716.00,1.04
4715.00,1.04
4714.00,1.04
4713.00,1.04
4712.00,1.05
4711.00,1.05
4710.00,1.05
4709.00,1.05
4708.00,1.05
4707.00,1.05
4706.00,1.05
4705.00,1.05
4704.00,1.05
4703.00,1.05
4702.00,1.05
4701.00,1.05
4700.00,1.05
4699.00,1.05
4698.00,1.05
4697.00,1.05
4696.00,1.05
4695.00,1.05
4694.00,1.05
4693.00,1.05
4692.00,1.06
4691.00,1.06
4690.00,1.06
4689.00,1.06
4688.00,1.06
4687.00,1.06
4686.00,1.06
4685.00,1.06
4684.00,1.06
4683.00,1.06
4682.00,1.06
4681.00,1.06
4680.00,1.07
4679.00,1.07
4678.00,1.07
4677.00,1.07
4676.00,1.07
4675.00,1.07
4674.00,1.07
4673.00,1.07
4672.00,1.07
4671.00,1.07
4670.00,1.07
4669.00,1.08
4668.00,1.08
4667.00,1.08
4666.00,1.08
4665.00,1.08
4664.00,1.08
4663.00,1.08
4662.00,1.08
4661.00,1.08
4660.00,1.08
4659.00,1.08
4658.00,1.08
4657.00,1.08
4656.00,1.08
4655.00,1.08
4654.00,1.08
4653.00,1.08
4652.00,1.08
4651.00,1.08
4650.00,1.08
4649.00,1.08
4648.00,1.08
4647.00,1.08
4646.00,1.08
4645.00,1.08
4644.00,1.08
4643.00,1.08
4642.00,1.08
4641.00,1.08
4640.00,1.08
4639.00,1.08
4638.00,1.08
4637.00,1.08
4636.00,1.08
4635.00,1.08
4634.00,1.08
4633.00,1.08
4632.00,1.08
4631.00,1.08
4630.00,1.08
4629.00,1.08
4628.00,1.08
4627.00,1.08
4626.00,1.08
4625.00,1.08
4624.00,1.08
4623.00,1.09
4622.00,1.09
4621.00,1.09
4620.00,1.09
4619.00,1.09
4618.00,1.09
4617.00,1.09
4616.00,1.09
4615.00,1.09
4614.00,1.09
4613.00,1.09
4612.00,1.09
4611.00,1.09
4610.00,1.10
4609.00,1.10
4608.00,1.10
4607.00,1.10
4606.00,1.10
4605.00,1.10
4604.00,1.10
4603.00,1.10
4602.00,1.10
4601.00,1.10
4600.00,1.11
4599.00,1.11
4598.00,1.11
4597.00,1.11
4596.00,1.11
4595.00,1.11
4594.00,1.11
4593.00,1.11
4592.00,1.11
4591.00,1.11
4590.00,1.11
4589.00,1.11
4588.00,1.11
4587.00,1.11
4586.00,1.11
4585.00,1.11
4584.00,1.11
4583.00,1.11
4582.00,1.11
4581.00,1.11
4580.00,1.11
4579.00,1.11
4578.00,1.11
4577.00,1.11
4576.00,1.11
4575.00,1.11
4574.00,1.11
4573.00,1.11
4572.00,1.11
4571.00,1.11
4570.00,1.11
4569.00,1.11
4568.00,1.11
4567.00,1.11
4566.00,1.11
4565.00,1.11
4564.00,1.12
4563.00,1.12
4562.00,1.12
4561.00,1.12
4560.00,1.12
4559.00,1.12
4558.00,1.12
4557.00,1.12
4556.00,1.12
4555.00,1.13
4554.00,1.13
4553.00,1.13
4552.00,1.13
4551.00,1.13
4550.00,1.13
4549.00,1.13
4548.00,1.13
4547.00,1.13
4546.00,1.13
4545.00,1.13
4544.00,1.13
4543.00,1.14
4542.00,1.14
4541.00,1.14
4540.00,1.13
4539.00,1.13
4538.00,1.13
4537.00,1.13
4536.00,1.13
4535.00,1.13
4534.00,1.13
4533.00,1.13
4532.00,1.13
4531.00,1.13
4530.00,1.13
4529.00,1.13
4528.00,1.13
4527.00,1.13
4526.00,1.13
4525.00,1.13
4524.00,1.13
4523.00,1.13
4522.00,1.13
4521.00,1.13
4520.00,1.13
4519.00,1.13
4518.00,1.13
4517.00,1.13
4516.00,1.13
4515.00,1.13
4514.00,1.13
4513.00,1.13
4512.00,1.13
4511.00,1.13
4510.00,1.13
4509.00,1.13
4508.00,1.13
4507.00,1.13
4506.00,1.13
4505.00,1.13
4504.00,1.13
4503.00,1.13
4502.00,1.13
4501.00,1.13
4500.00,1.13
4499.00,1.13
4498.00,1.13
4497.00,1.13
4496.00,1.13
4495.00,1.13
4494.00,1.13
4493.00,1.13
4492.00,1.13
4491.00,1.14
4490.00,1.14
4489.00,1.14
4488.00,1.14
4487.00,1.14
4486.00,1.14
4485.00,1.14
4484.00,1.14
4483.00,1.14
4482.00,1.14
4481.00,1.14
4480.00,1.14
4479.00,1.14
4478.00,1.14
4477.00,1.14
4476.00,1.14
4475.00,1.14
4474.00,1.14
4473.00,1.14
4472.00,1.14
4471.00,1.14
4470.00,1.14
4469.00,1.14
4468.00,1.14
4467.00,1.14
4466.00,1.14
4465.00,1.14
4464.00,1.14
4463.00,1.14
4462.00,1.14
4461.00,1.13
4460.00,1.13
4459.00,1.13
4458.00,1.13
4457.00,1.13
4456.00,1.13
4455.00,1.12
4454.00,1.12
4453.00,1.12
4452.00,1.12
4451.00,1.12
4450.00,1.11
4449.00,1.11
4448.00,1.11
4447.00,1.11
4446.00,1.11
4445.00,1.11
4444.00,1.11
4443.00,1.11
4442.00,1.11
4441.00,1.10
4440.00,1.10
4439.00,1.10
4438.00,1.10
4437.00,1.10
4436.00,1.10
4435.00,1.10
4434.00,1.10
4433.00,1.10
4432.00,1.10
4431.00,1.10
4430.00,1.10
4429.00,1.10
4428.00,1.10
4427.00,1.10
4426.00,1.10
4425.00,1.10
4424.00,1.10
4423.00,1.10
4422.00,1.10
4421.00,1.11
4420.00,1.11
4419.00,1.11
4418.00,1.11
4417.00,1.11
4416.00,1.11
4415.00,1.11
4414.00,1.11
4413.00,1.11
4412.00,1.11
4411.00,1.11
4410.00,1.11
4409.00,1.11
4408.00,1.11
4407.00,1.11
4406.00,1.11
4405.00,1.11
4404.00,1.11
4403.00,1.11
4402.00,1.11
4401.00,1.11
4400.00,1.11
4399.00,1.11
4398.00,1.11
4397.00,1.12
4396.00,1.12
4395.00,1.12
4394.00,1.12
4393.00,1.12
4392.00,1.12
4391.00,1.12
4390.00,1.12
4389.00,1.12
4388.00,1.12
4387.00,1.12
4386.00,1.13
4385.00,1.13
4384.00,1.13
4383.00,1.13
4382.00,1.13
4381.00,1.13
4380.00,1.13
4379.00,1.13
4378.00,1.13
4377.00,1.13
4376.00,1.13
4375.00,1.13
4374.00,1.13
4373.00,1.13
4372.00,1.13
4371.00,1.13
4370.00,1.12
4369.00,1.12
4368.00,1.12
4367.00,1.12
4366.00,1.13
4365.00,1.13
4364.00,1.13
4363.00,1.13
4362.00,1.13
4361.00,1.13
4360.00,1.13
4359.00,1.13
4358.00,1.13
4357.00,1.13
4356.00,1.13
4355.00,1.13
4354.00,1.13
4353.00,1.13
4352.00,1.13
4351.00,1.13
4350.00,1.13
4349.00,1.13
4348.00,1.14
4347.00,1.14
4346.00,1.14
4345.00,1.14
4344.00,1.14
4343.00,1.14
4342.00,1.14
4341.00,1.14
4340.00,1.14
4339.00,1.14
4338.00,1.14
4337.00,1.14
4336.00,1.14
4335.00,1.14
4334.00,1.14
4333.00,1.14
4332.00,1.14
4331.00,1.14
4330.00,1.14
4329.00,1.14
4328.00,1.14
4327.00,1.14
4326.00,1.14
4325.00,1.14
4324.00,1.14
4323.00,1.14
4322.00,1.14
4321.00,1.14
4320.00,1.14
4319.00,1.15
4318.00,1.15
4317.00,1.15
4316.00,1.15
4315.00,1.15
4314.00,1.15
4313.00,1.15
4312.00,1.15
4311.00,1.15
4310.00,1.15
4309.00,1.15
4308.00,1.15
4307.00,1.15
4306.00,1.15
4305.00,1.15
4304.00,1.15
4303.00,1.15
4302.00,1.15
4301.00,1.15
4300.00,1.15
4299.00,1.15
4298.00,1.15
4297.00,1.15
4296.00,1.15
4295.00,1.15
4294.00,1.15
4293.00,1.15
4292.00,1.15
4291.00,1.16
4290.00,1.16
4289.00,1.16
4288.00,1.16
4287.00,1.16
4286.00,1.16
4285.00,1.16
4284.00,1.16
4283.00,1.16
4282.00,1.17
4281.00,1.17
4280.00,1.17
4279.00,1.17
4278.00,1.17
4277.00,1.17
4276.00,1.17
4275.00,1.17
4274.00,1.17
4273.00,1.17
4272.00,1.17
4271.00,1.17
4270.00,1.17
4269.00,1.17
4268.00,1.17
4267.00,1.17
4266.00,1.17
4265.00,1.17
4264.00,1.17
4263.00,1.17
4262.00,1.17
4261.00,1.17
4260.00,1.17
4259.00,1.17
4258.00,1.17
4257.00,1.17
4256.00,1.17
4255.00,1.17
4254.00,1.17
4253.00,1.17
4252.00,1.17
4251.00,1.17
4250.00,1.17
4249.00,1.17
4248.00,1.17
4247.00,1.17
4246.00,1.17
4245.00,1.17
4244.00,1.17
4243.00,1.17
4242.00,1.17
4241.00,1.18
4240.00,1.18
4239.00,1.18
4238.00,1.18
4237.00,1.18
4236.00,1.18
4235.00,1.18
4234.00,1.18
4233.00,1.18
4232.00,1.18
4231.00,1.19
4230.00,1.19
4229.00,1.19
4228.00,1.19
4227.00,1.19
4226.00,1.19
4225.00,1.19
4224.00,1.19
4223.00,1.19
4222.00,1.19
4221.00,1.19
4220.00,1.19
4219.00,1.19
4218.00,1.19
4217.00,1.20
4216.00,1.20
4215.00,1.20
4214.00,1.20
4213.00,1.20
4212.00,1.20
4211.00,1.20
4210.00,1.20
4209.00,1.20
4208.00,1.20
4207.00,1.20
4206.00,1.20
4205.00,1.20
4204.00,1.20
4203.00,1.20
4202.00,1.20
4201.00,1.20
4200.00,1.20
4199.00,1.20
4198.00,1.20
4197.00,1.20
4196.00,1.20
4195.00,1.20
4194.00,1.20
4193.00,1.20
4192.00,1.20
4191.00,1.20
4190.00,1.20
4189.00,1.20
4188.00,1.20
4187.00,1.20
4186.00,1.20
4185.00,1.19
4184.00,1.19
4183.00,1.19
4182.00,1.19
4181.00,1.19
4180.00,1.19
4179.00,1.19
4178.00,1.19
4177.00,1.19
4176.00,1.19
4175.00,1.20
4174.00,1.20
4173.00,1.20
4172.00,1.20
4171.00,1.20
4170.00,1.20
4169.00,1.20
4168.00,1.21
4167.00,1.21
4166.00,1.21
4165.00,1.21
4164.00,1.21
4163.00,1.21
4162.00,1.21
4161.00,1.21
4160.00,1.21
4159.00,1.21
4158.00,1.21
4157.00,1.21
4156.00,1.21
4155.00,1.21
4154.00,1.22
4153.00,1.22
4152.00,1.22
4151.00,1.22
4150.00,1.22
4149.00,1.22
4148.00,1.22
4147.00,1.22
4146.00,1.22
4145.00,1.22
4144.00,1.22
4143.00,1.22
4142.00,1.22
4141.00,1.22
4140.00,1.22
4139.00,1.22
4138.00,1.23
4137.00,1.23
4136.00,1.23
4135.00,1.23
4134.00,1.23
4133.00,1.23
4132.00,1.23
4131.00,1.23
4130.00,1.23
4129.00,1.23
4128.00,1.23
4127.00,1.23
4126.00,1.23
4125.00,1.23
4124.00,1.23
4123.00,1.23
4122.00,1.23
4121.00,1.23
4120.00,1.23
4119.00,1.23
4118.00,1.23
4117.00,1.23
4116.00,1.23
4115.00,1.23
4114.00,1.23
4113.00,1.23
4112.00,1.24
4111.00,1.24
4110.00,1.24
4109.00,1.24
4108.00,1.24
4107.00,1.24
4106.00,1.24
4105.00,1.24
4104.00,1.24
4103.00,1.24
4102.00,1.24
4101.00,1.24
4100.00,1.24
4099.00,1.24
4098.00,1.24
4097.00,1.24
4096.00,1.24
4095.00,1.24
4094.00,1.24
4093.00,1.24
4092.00,1.24
4091.00,1.24
4090.00,1.24
4089.00,1.24
4088.00,1.24
4087.00,1.24
4086.00,1.25
4085.00,1.25
4084.00,1.25
4083.00,1.25
4082.00,1.25
4081.00,1.25
4080.00,1.25
4079.00,1.25
4078.00,1.25
4077.00,1.25
4076.00,1.26
4075.00,1.26
4074.00,1.26
4073.00,1.26
4072.00,1.26
4071.00,1.26
4070.00,1.26
4069.00,1.26
4068.00,1.26
4067.00,1.27
4066.00,1.27
4065.00,1.27
4064.00,1.27
4063.00,1.27
4062.00,1.27
4061.00,1.27
4060.00,1.27
4059.00,1.27
4058.00,1.27
4057.00,1.27
4056.00,1.27
4055.00,1.27
4054.00,1.27
4053.00,1.27
4052.00,1.27
4051.00,1.26
4050.00,1.26
4049.00,1.26
4048.00,1.26
4047.00,1.26
4046.00,1.26
4045.00,1.26
4044.00,1.26
4043.00,1.26
4042.00,1.26
4041.00,1.26
4040.00,1.26
4039.00,1.26
4038.00,1.26
4037.00,1.26
4036.00,1.26
4035.00,1.26
4034.00,1.26
4033.00,1.26
4032.00,1.26
4031.00,1.26
4030.00,1.26
4029.00,1.26
4028.00,1.26
4027.00,1.26
4026.00,1.26
4025.00,1.26
4024.00,1.26
4023.00,1.26
4022.00,1.26
4021.00,1.26
4020.00,1.26
4019.00,1.26
4018.00,1.26
4017.00,1.26
4016.00,1.26
4015.00,1.26
4014.00,1.26
4013.00,1.26
4012.00,1.26
4011.00,1.26
4010.00,1.26
4009.00,1.27
4008.00,1.27
4007.00,1.27
4006.00,1.27
4005.00,1.27
4004.00,1.27
4003.00,1.27
4002.00,1.28
4001.00,1.28
4000.00,1.28
