创建为新数据集,样品 073 用户 Administrator 日期 星期六, 七月 21 2018
cm-1,%T
10000.00,1.59
9999.00,1.59
9998.00,1.59
9997.00,1.59
9996.00,1.59
9995.00,1.59
9994.00,1.59
9993.00,1.59
9992.00,1.59
9991.00,1.59
9990.00,1.59
9989.00,1.58
9988.00,1.58
9987.00,1.58
9986.00,1.58
9985.00,1.57
9984.00,1.57
9983.00,1.57
9982.00,1.57
9981.00,1.56
9980.00,1.56
9979.00,1.56
9978.00,1.56
9977.00,1.56
9976.00,1.56
9975.00,1.56
9974.00,1.56
9973.00,1.56
9972.00,1.56
9971.00,1.56
9970.00,1.56
9969.00,1.56
9968.00,1.56
9967.00,1.56
9966.00,1.56
9965.00,1.56
9964.00,1.56
9963.00,1.56
9962.00,1.56
9961.00,1.56
9960.00,1.56
9959.00,1.56
9958.00,1.55
9957.00,1.55
9956.00,1.55
9955.00,1.55
9954.00,1.55
9953.00,1.54
9952.00,1.54
9951.00,1.54
9950.00,1.54
9949.00,1.53
9948.00,1.53
9947.00,1.53
9946.00,1.52
9945.00,1.52
9944.00,1.52
9943.00,1.52
9942.00,1.52
9941.00,1.52
9940.00,1.52
9939.00,1.52
9938.00,1.52
9937.00,1.52
9936.00,1.53
9935.00,1.53
9934.00,1.53
9933.00,1.54
9932.00,1.54
9931.00,1.54
9930.00,1.55
9929.00,1.55
9928.00,1.55
9927.00,1.56
9926.00,1.56
9925.00,1.56
9924.00,1.56
9923.00,1.56
9922.00,1.56
9921.00,1.56
9920.00,1.56
9919.00,1.56
9918.00,1.56
9917.00,1.56
9916.00,1.56
9915.00,1.56
9914.00,1.56
9913.00,1.56
9912.00,1.55
9911.00,1.55
9910.00,1.55
9909.00,1.55
9908.00,1.55
9907.00,1.54
9906.00,1.54
9905.00,1.54
9904.00,1.54
9903.00,1.53
9902.00,1.53
9901.00,1.53
9900.00,1.53
9899.00,1.52
9898.00,1.52
9897.00,1.52
9896.00,1.52
9895.00,1.52
9894.00,1.52
9893.00,1.52
9892.00,1.52
9891.00,1.52
9890.00,1.52
9889.00,1.52
9888.00,1.52
9887.00,1.52
9886.00,1.52
9885.00,1.52
9884.00,1.52
9883.00,1.52
9882.00,1.52
9881.00,1.52
9880.00,1.52
9879.00,1.52
9878.00,1.52
9877.00,1.52
9876.00,1.52
9875.00,1.52
9874.00,1.52
9873.00,1.52
9872.00,1.53
9871.00,1.53
9870.00,1.53
9869.00,1.53
9868.00,1.53
9867.00,1.53
9866.00,1.53
9865.00,1.53
9864.00,1.53
9863.00,1.53
9862.00,1.53
9861.00,1.53
9860.00,1.53
9859.00,1.54
9858.00,1.54
9857.00,1.54
9856.00,1.54
9855.00,1.54
9854.00,1.54
9853.00,1.54
9852.00,1.54
9851.00,1.54
9850.00,1.54
9849.00,1.54
9848.00,1.54
9847.00,1.54
9846.00,1.54
9845.00,1.54
9844.00,1.54
9843.00,1.54
9842.00,1.54
9841.00,1.53
9840.00,1.53
9839.00,1.53
9838.00,1.53
9837.00,1.52
9836.00,1.52
9835.00,1.52
9834.00,1.52
9833.00,1.52
9832.00,1.51
9831.00,1.51
9830.00,1.51
9829.00,1.51
9828.00,1.51
9827.00,1.51
9826.00,1.51
9825.00,1.51
9824.00,1.51
9823.00,1.51
9822.00,1.51
9821.00,1.52
9820.00,1.52
9819.00,1.52
9818.00,1.53
9817.00,1.53
9816.00,1.53
9815.00,1.54
9814.00,1.54
9813.00,1.55
9812.00,1.55
9811.00,1.56
9810.00,1.56
9809.00,1.57
9808.00,1.57
9807.00,1.58
9806.00,1.58
9805.00,1.58
9804.00,1.59
9803.00,1.59
9802.00,1.59
9801.00,1.59
9800.00,1.59
9799.00,1.59
9798.00,1.59
9797.00,1.59
9796.00,1.59
9795.00,1.59
9794.00,1.58
9793.00,1.58
9792.00,1.58
9791.00,1.58
9790.00,1.58
9789.00,1.57
9788.00,1.57
9787.00,1.57
9786.00,1.57
9785.00,1.57
9784.00,1.57
9783.00,1.56
9782.00,1.56
9781.00,1.56
9780.00,1.56
9779.00,1.56
9778.00,1.56
9777.00,1.56
9776.00,1.56
9775.00,1.56
9774.00,1.56
9773.00,1.55
9772.00,1.55
9771.00,1.55
9770.00,1.55
9769.00,1.55
9768.00,1.55
9767.00,1.55
9766.00,1.55
9765.00,1.55
9764.00,1.55
9763.00,1.55
9762.00,1.55
9761.00,1.55
9760.00,1.55
9759.00,1.55
9758.00,1.56
9757.00,1.56
9756.00,1.56
9755.00,1.56
9754.00,1.57
9753.00,1.57
9752.00,1.57
9751.00,1.57
9750.00,1.57
9749.00,1.58
9748.00,1.58
9747.00,1.58
9746.00,1.58
9745.00,1.58
9744.00,1.58
9743.00,1.58
9742.00,1.58
9741.00,1.58
9740.00,1.58
9739.00,1.58
9738.00,1.58
9737.00,1.57
9736.00,1.57
9735.00,1.57
9734.00,1.57
9733.00,1.57
9732.00,1.56
9731.00,1.56
9730.00,1.56
9729.00,1.56
9728.00,1.55
9727.00,1.55
9726.00,1.55
9725.00,1.55
9724.00,1.54
9723.00,1.54
9722.00,1.54
9721.00,1.54
9720.00,1.53
9719.00,1.53
9718.00,1.53
9717.00,1.53
9716.00,1.53
9715.00,1.53
9714.00,1.53
9713.00,1.54
9712.00,1.54
9711.00,1.54
9710.00,1.54
9709.00,1.54
9708.00,1.55
9707.00,1.55
9706.00,1.55
9705.00,1.55
9704.00,1.55
9703.00,1.55
9702.00,1.55
9701.00,1.55
9700.00,1.55
9699.00,1.55
9698.00,1.55
9697.00,1.55
9696.00,1.55
9695.00,1.55
9694.00,1.55
9693.00,1.55
9692.00,1.55
9691.00,1.55
9690.00,1.55
9689.00,1.55
9688.00,1.55
9687.00,1.56
9686.00,1.56
9685.00,1.56
9684.00,1.56
9683.00,1.56
9682.00,1.56
9681.00,1.56
9680.00,1.56
9679.00,1.56
9678.00,1.56
9677.00,1.56
9676.00,1.56
9675.00,1.56
9674.00,1.56
9673.00,1.56
9672.00,1.57
9671.00,1.57
9670.00,1.57
9669.00,1.57
9668.00,1.57
9667.00,1.57
9666.00,1.57
9665.00,1.57
9664.00,1.57
9663.00,1.57
9662.00,1.57
9661.00,1.57
9660.00,1.57
9659.00,1.57
9658.00,1.57
9657.00,1.57
9656.00,1.57
9655.00,1.56
9654.00,1.56
9653.00,1.56
9652.00,1.56
9651.00,1.56
9650.00,1.56
9649.00,1.56
9648.00,1.56
9647.00,1.56
9646.00,1.56
9645.00,1.56
9644.00,1.56
9643.00,1.56
9642.00,1.55
9641.00,1.55
9640.00,1.55
9639.00,1.55
9638.00,1.55
9637.00,1.54
9636.00,1.54
9635.00,1.54
9634.00,1.54
9633.00,1.54
9632.00,1.54
9631.00,1.54
9630.00,1.54
9629.00,1.54
9628.00,1.54
9627.00,1.54
9626.00,1.54
9625.00,1.54
9624.00,1.55
9623.00,1.55
9622.00,1.55
9621.00,1.55
9620.00,1.56
9619.00,1.56
9618.00,1.56
9617.00,1.57
9616.00,1.57
9615.00,1.57
9614.00,1.58
9613.00,1.58
9612.00,1.58
9611.00,1.59
9610.00,1.59
9609.00,1.59
9608.00,1.59
9607.00,1.59
9606.00,1.59
9605.00,1.59
9604.00,1.59
9603.00,1.59
9602.00,1.59
9601.00,1.59
9600.00,1.59
9599.00,1.59
9598.00,1.58
9597.00,1.58
9596.00,1.58
9595.00,1.58
9594.00,1.57
9593.00,1.57
9592.00,1.57
9591.00,1.57
9590.00,1.56
9589.00,1.56
9588.00,1.56
9587.00,1.56
9586.00,1.56
9585.00,1.56
9584.00,1.55
9583.00,1.55
9582.00,1.55
9581.00,1.55
9580.00,1.55
9579.00,1.55
9578.00,1.55
9577.00,1.55
9576.00,1.54
9575.00,1.54
9574.00,1.54
9573.00,1.54
9572.00,1.54
9571.00,1.54
9570.00,1.54
9569.00,1.54
9568.00,1.54
9567.00,1.54
9566.00,1.54
9565.00,1.54
9564.00,1.54
9563.00,1.54
9562.00,1.54
9561.00,1.54
9560.00,1.54
9559.00,1.54
9558.00,1.54
9557.00,1.54
9556.00,1.54
9555.00,1.54
9554.00,1.54
9553.00,1.54
9552.00,1.54
9551.00,1.54
9550.00,1.54
9549.00,1.54
9548.00,1.54
9547.00,1.54
9546.00,1.54
9545.00,1.54
9544.00,1.54
9543.00,1.54
9542.00,1.54
9541.00,1.54
9540.00,1.54
9539.00,1.54
9538.00,1.54
9537.00,1.54
9536.00,1.54
9535.00,1.55
9534.00,1.55
9533.00,1.55
9532.00,1.55
9531.00,1.55
9530.00,1.55
9529.00,1.55
9528.00,1.55
9527.00,1.55
9526.00,1.55
9525.00,1.55
9524.00,1.55
9523.00,1.56
9522.00,1.56
9521.00,1.56
9520.00,1.56
9519.00,1.56
9518.00,1.56
9517.00,1.56
9516.00,1.56
9515.00,1.56
9514.00,1.56
9513.00,1.56
9512.00,1.56
9511.00,1.55
9510.00,1.55
9509.00,1.55
9508.00,1.55
9507.00,1.55
9506.00,1.54
9505.00,1.54
9504.00,1.54
9503.00,1.54
9502.00,1.54
9501.00,1.54
9500.00,1.54
9499.00,1.54
9498.00,1.54
9497.00,1.54
9496.00,1.54
9495.00,1.54
9494.00,1.54
9493.00,1.54
9492.00,1.54
9491.00,1.55
9490.00,1.55
9489.00,1.55
9488.00,1.55
9487.00,1.55
9486.00,1.55
9485.00,1.55
9484.00,1.55
9483.00,1.55
9482.00,1.55
9481.00,1.55
9480.00,1.55
9479.00,1.55
9478.00,1.55
9477.00,1.55
9476.00,1.55
9475.00,1.55
9474.00,1.55
9473.00,1.55
9472.00,1.56
9471.00,1.56
9470.00,1.56
9469.00,1.56
9468.00,1.56
9467.00,1.56
9466.00,1.56
9465.00,1.57
9464.00,1.57
9463.00,1.57
9462.00,1.57
9461.00,1.57
9460.00,1.57
9459.00,1.57
9458.00,1.57
9457.00,1.57
9456.00,1.57
9455.00,1.56
9454.00,1.56
9453.00,1.56
9452.00,1.56
9451.00,1.55
9450.00,1.55
9449.00,1.55
9448.00,1.55
9447.00,1.55
9446.00,1.55
9445.00,1.55
9444.00,1.55
9443.00,1.55
9442.00,1.55
9441.00,1.55
9440.00,1.55
9439.00,1.55
9438.00,1.55
9437.00,1.55
9436.00,1.55
9435.00,1.56
9434.00,1.56
9433.00,1.56
9432.00,1.56
9431.00,1.56
9430.00,1.56
9429.00,1.56
9428.00,1.56
9427.00,1.56
9426.00,1.56
9425.00,1.56
9424.00,1.55
9423.00,1.55
9422.00,1.55
9421.00,1.55
9420.00,1.55
9419.00,1.55
9418.00,1.55
9417.00,1.55
9416.00,1.55
9415.00,1.55
9414.00,1.55
9413.00,1.55
9412.00,1.55
9411.00,1.55
9410.00,1.55
9409.00,1.55
9408.00,1.55
9407.00,1.55
9406.00,1.56
9405.00,1.56
9404.00,1.56
9403.00,1.56
9402.00,1.56
9401.00,1.56
9400.00,1.56
9399.00,1.56
9398.00,1.56
9397.00,1.56
9396.00,1.56
9395.00,1.56
9394.00,1.56
9393.00,1.56
9392.00,1.56
9391.00,1.56
9390.00,1.56
9389.00,1.56
9388.00,1.56
9387.00,1.56
9386.00,1.56
9385.00,1.56
9384.00,1.55
9383.00,1.55
9382.00,1.55
9381.00,1.55
9380.00,1.55
9379.00,1.55
9378.00,1.55
9377.00,1.55
9376.00,1.55
9375.00,1.55
9374.00,1.55
9373.00,1.54
9372.00,1.54
9371.00,1.54
9370.00,1.54
9369.00,1.54
9368.00,1.54
9367.00,1.54
9366.00,1.54
9365.00,1.54
9364.00,1.54
9363.00,1.54
9362.00,1.54
9361.00,1.54
9360.00,1.54
9359.00,1.54
9358.00,1.54
9357.00,1.54
9356.00,1.54
9355.00,1.54
9354.00,1.54
9353.00,1.54
9352.00,1.54
9351.00,1.54
9350.00,1.54
9349.00,1.54
9348.00,1.55
9347.00,1.55
9346.00,1.55
9345.00,1.55
9344.00,1.55
9343.00,1.55
9342.00,1.56
9341.00,1.56
9340.00,1.56
9339.00,1.56
9338.00,1.57
9337.00,1.57
9336.00,1.57
9335.00,1.57
9334.00,1.57
9333.00,1.57
9332.00,1.58
9331.00,1.58
9330.00,1.58
9329.00,1.58
9328.00,1.58
9327.00,1.58
9326.00,1.58
9325.00,1.58
9324.00,1.58
9323.00,1.58
9322.00,1.58
9321.00,1.58
9320.00,1.58
9319.00,1.58
9318.00,1.58
9317.00,1.57
9316.00,1.57
9315.00,1.57
9314.00,1.57
9313.00,1.57
9312.00,1.57
9311.00,1.57
9310.00,1.56
9309.00,1.56
9308.00,1.56
9307.00,1.56
9306.00,1.56
9305.00,1.56
9304.00,1.56
9303.00,1.56
9302.00,1.56
9301.00,1.56
9300.00,1.56
9299.00,1.56
9298.00,1.56
9297.00,1.56
9296.00,1.56
9295.00,1.56
9294.00,1.56
9293.00,1.56
9292.00,1.56
9291.00,1.56
9290.00,1.56
9289.00,1.56
9288.00,1.56
9287.00,1.56
9286.00,1.56
9285.00,1.56
9284.00,1.56
9283.00,1.56
9282.00,1.56
9281.00,1.56
9280.00,1.56
9279.00,1.56
9278.00,1.55
9277.00,1.55
9276.00,1.55
9275.00,1.55
9274.00,1.55
9273.00,1.55
9272.00,1.55
9271.00,1.55
9270.00,1.55
9269.00,1.55
9268.00,1.55
9267.00,1.55
9266.00,1.55
9265.00,1.55
9264.00,1.55
9263.00,1.55
9262.00,1.55
9261.00,1.55
9260.00,1.55
9259.00,1.55
9258.00,1.55
9257.00,1.55
9256.00,1.55
9255.00,1.55
9254.00,1.56
9253.00,1.56
9252.00,1.56
9251.00,1.56
9250.00,1.56
9249.00,1.56
9248.00,1.56
9247.00,1.56
9246.00,1.56
9245.00,1.56
9244.00,1.56
9243.00,1.56
9242.00,1.56
9241.00,1.56
9240.00,1.56
9239.00,1.56
9238.00,1.57
9237.00,1.57
9236.00,1.57
9235.00,1.57
9234.00,1.57
9233.00,1.57
9232.00,1.57
9231.00,1.57
9230.00,1.57
9229.00,1.57
9228.00,1.57
9227.00,1.57
9226.00,1.57
9225.00,1.56
9224.00,1.56
9223.00,1.56
9222.00,1.56
9221.00,1.55
9220.00,1.55
9219.00,1.55
9218.00,1.55
9217.00,1.55
9216.00,1.55
9215.00,1.54
9214.00,1.54
9213.00,1.54
9212.00,1.55
9211.00,1.55
9210.00,1.55
9209.00,1.55
9208.00,1.55
9207.00,1.55
9206.00,1.55
9205.00,1.55
9204.00,1.56
9203.00,1.56
9202.00,1.56
9201.00,1.56
9200.00,1.56
9199.00,1.56
9198.00,1.56
9197.00,1.56
9196.00,1.56
9195.00,1.56
9194.00,1.56
9193.00,1.55
9192.00,1.55
9191.00,1.55
9190.00,1.55
9189.00,1.55
9188.00,1.55
9187.00,1.55
9186.00,1.55
9185.00,1.55
9184.00,1.55
9183.00,1.55
9182.00,1.55
9181.00,1.55
9180.00,1.54
9179.00,1.54
9178.00,1.54
9177.00,1.54
9176.00,1.54
9175.00,1.54
9174.00,1.54
9173.00,1.54
9172.00,1.54
9171.00,1.54
9170.00,1.54
9169.00,1.54
9168.00,1.54
9167.00,1.54
9166.00,1.54
9165.00,1.54
9164.00,1.54
9163.00,1.54
9162.00,1.54
9161.00,1.54
9160.00,1.54
9159.00,1.54
9158.00,1.54
9157.00,1.55
9156.00,1.55
9155.00,1.55
9154.00,1.55
9153.00,1.55
9152.00,1.55
9151.00,1.56
9150.00,1.56
9149.00,1.56
9148.00,1.56
9147.00,1.56
9146.00,1.56
9145.00,1.56
9144.00,1.56
9143.00,1.56
9142.00,1.56
9141.00,1.56
9140.00,1.56
9139.00,1.56
9138.00,1.56
9137.00,1.56
9136.00,1.56
9135.00,1.56
9134.00,1.56
9133.00,1.56
9132.00,1.56
9131.00,1.56
9130.00,1.56
9129.00,1.56
9128.00,1.56
9127.00,1.56
9126.00,1.56
9125.00,1.56
9124.00,1.56
9123.00,1.56
9122.00,1.56
9121.00,1.56
9120.00,1.56
9119.00,1.56
9118.00,1.56
9117.00,1.56
9116.00,1.56
9115.00,1.56
9114.00,1.56
9113.00,1.56
9112.00,1.56
9111.00,1.56
9110.00,1.56
9109.00,1.56
9108.00,1.56
9107.00,1.56
9106.00,1.57
9105.00,1.57
9104.00,1.57
9103.00,1.57
9102.00,1.57
9101.00,1.57
9100.00,1.57
9099.00,1.57
9098.00,1.57
9097.00,1.56
9096.00,1.56
9095.00,1.56
9094.00,1.56
9093.00,1.56
9092.00,1.56
9091.00,1.55
9090.00,1.55
9089.00,1.55
9088.00,1.55
9087.00,1.55
9086.00,1.55
9085.00,1.55
9084.00,1.54
9083.00,1.55
9082.00,1.55
9081.00,1.55
9080.00,1.55
9079.00,1.55
9078.00,1.55
9077.00,1.56
9076.00,1.56
9075.00,1.56
9074.00,1.56
9073.00,1.57
9072.00,1.57
9071.00,1.57
9070.00,1.57
9069.00,1.57
9068.00,1.57
9067.00,1.57
9066.00,1.58
9065.00,1.57
9064.00,1.57
9063.00,1.57
9062.00,1.57
9061.00,1.57
9060.00,1.57
9059.00,1.57
9058.00,1.57
9057.00,1.57
9056.00,1.56
9055.00,1.56
9054.00,1.56
9053.00,1.56
9052.00,1.56
9051.00,1.56
9050.00,1.56
9049.00,1.56
9048.00,1.56
9047.00,1.56
9046.00,1.56
9045.00,1.56
9044.00,1.57
9043.00,1.57
9042.00,1.57
9041.00,1.57
9040.00,1.57
9039.00,1.57
9038.00,1.58
9037.00,1.58
9036.00,1.58
9035.00,1.58
9034.00,1.58
9033.00,1.58
9032.00,1.58
9031.00,1.58
9030.00,1.58
9029.00,1.58
9028.00,1.58
9027.00,1.58
9026.00,1.58
9025.00,1.57
9024.00,1.57
9023.00,1.57
9022.00,1.57
9021.00,1.57
9020.00,1.57
9019.00,1.57
9018.00,1.56
9017.00,1.56
9016.00,1.56
9015.00,1.56
9014.00,1.56
9013.00,1.56
9012.00,1.56
9011.00,1.56
9010.00,1.56
9009.00,1.56
9008.00,1.56
9007.00,1.56
9006.00,1.56
9005.00,1.56
9004.00,1.56
9003.00,1.56
9002.00,1.56
9001.00,1.57
9000.00,1.57
8999.00,1.57
8998.00,1.57
8997.00,1.57
8996.00,1.57
8995.00,1.58
8994.00,1.58
8993.00,1.58
8992.00,1.58
8991.00,1.58
8990.00,1.58
8989.00,1.58
8988.00,1.58
8987.00,1.58
8986.00,1.58
8985.00,1.58
8984.00,1.57
8983.00,1.57
8982.00,1.57
8981.00,1.57
8980.00,1.57
8979.00,1.57
8978.00,1.57
8977.00,1.57
8976.00,1.57
8975.00,1.57
8974.00,1.57
8973.00,1.57
8972.00,1.57
8971.00,1.57
8970.00,1.57
8969.00,1.57
8968.00,1.56
8967.00,1.56
8966.00,1.56
8965.00,1.56
8964.00,1.56
8963.00,1.56
8962.00,1.56
8961.00,1.56
8960.00,1.57
8959.00,1.57
8958.00,1.57
8957.00,1.57
8956.00,1.57
8955.00,1.58
8954.00,1.58
8953.00,1.58
8952.00,1.58
8951.00,1.58
8950.00,1.59
8949.00,1.59
8948.00,1.59
8947.00,1.59
8946.00,1.59
8945.00,1.59
8944.00,1.59
8943.00,1.59
8942.00,1.59
8941.00,1.59
8940.00,1.59
8939.00,1.59
8938.00,1.59
8937.00,1.58
8936.00,1.58
8935.00,1.58
8934.00,1.58
8933.00,1.58
8932.00,1.57
8931.00,1.57
8930.00,1.57
8929.00,1.57
8928.00,1.57
8927.00,1.57
8926.00,1.57
8925.00,1.57
8924.00,1.57
8923.00,1.57
8922.00,1.57
8921.00,1.57
8920.00,1.58
8919.00,1.58
8918.00,1.58
8917.00,1.58
8916.00,1.58
8915.00,1.58
8914.00,1.58
8913.00,1.58
8912.00,1.58
8911.00,1.58
8910.00,1.58
8909.00,1.58
8908.00,1.58
8907.00,1.58
8906.00,1.58
8905.00,1.57
8904.00,1.57
8903.00,1.57
8902.00,1.57
8901.00,1.57
8900.00,1.56
8899.00,1.56
8898.00,1.56
8897.00,1.56
8896.00,1.56
8895.00,1.56
8894.00,1.56
8893.00,1.56
8892.00,1.56
8891.00,1.56
8890.00,1.56
8889.00,1.56
8888.00,1.56
8887.00,1.56
8886.00,1.56
8885.00,1.56
8884.00,1.56
8883.00,1.56
8882.00,1.56
8881.00,1.56
8880.00,1.56
8879.00,1.56
8878.00,1.56
8877.00,1.56
8876.00,1.56
8875.00,1.56
8874.00,1.56
8873.00,1.55
8872.00,1.55
8871.00,1.55
8870.00,1.55
8869.00,1.55
8868.00,1.55
8867.00,1.55
8866.00,1.55
8865.00,1.55
8864.00,1.55
8863.00,1.55
8862.00,1.55
8861.00,1.55
8860.00,1.55
8859.00,1.55
8858.00,1.55
8857.00,1.55
8856.00,1.55
8855.00,1.55
8854.00,1.55
8853.00,1.55
8852.00,1.56
8851.00,1.56
8850.00,1.56
8849.00,1.56
8848.00,1.56
8847.00,1.56
8846.00,1.56
8845.00,1.57
8844.00,1.57
8843.00,1.57
8842.00,1.57
8841.00,1.57
8840.00,1.57
8839.00,1.57
8838.00,1.57
8837.00,1.57
8836.00,1.57
8835.00,1.57
8834.00,1.57
8833.00,1.57
8832.00,1.56
8831.00,1.56
8830.00,1.56
8829.00,1.56
8828.00,1.56
8827.00,1.55
8826.00,1.55
8825.00,1.55
8824.00,1.55
8823.00,1.54
8822.00,1.54
8821.00,1.54
8820.00,1.54
8819.00,1.54
8818.00,1.54
8817.00,1.54
8816.00,1.53
8815.00,1.53
8814.00,1.53
8813.00,1.53
8812.00,1.53
8811.00,1.54
8810.00,1.54
8809.00,1.54
8808.00,1.54
8807.00,1.54
8806.00,1.54
8805.00,1.54
8804.00,1.54
8803.00,1.54
8802.00,1.54
8801.00,1.54
8800.00,1.54
8799.00,1.54
8798.00,1.54
8797.00,1.54
8796.00,1.54
8795.00,1.54
8794.00,1.54
8793.00,1.54
8792.00,1.54
8791.00,1.54
8790.00,1.54
8789.00,1.53
8788.00,1.53
8787.00,1.53
8786.00,1.53
8785.00,1.53
8784.00,1.53
8783.00,1.53
8782.00,1.53
8781.00,1.54
8780.00,1.54
8779.00,1.54
8778.00,1.54
8777.00,1.54
8776.00,1.54
8775.00,1.54
8774.00,1.54
8773.00,1.53
8772.00,1.53
8771.00,1.53
8770.00,1.53
8769.00,1.53
8768.00,1.52
8767.00,1.52
8766.00,1.52
8765.00,1.52
8764.00,1.51
8763.00,1.51
8762.00,1.51
8761.00,1.51
8760.00,1.51
8759.00,1.51
8758.00,1.50
8757.00,1.51
8756.00,1.51
8755.00,1.51
8754.00,1.51
8753.00,1.51
8752.00,1.51
8751.00,1.51
8750.00,1.51
8749.00,1.51
8748.00,1.51
8747.00,1.52
8746.00,1.52
8745.00,1.52
8744.00,1.52
8743.00,1.52
8742.00,1.52
8741.00,1.52
8740.00,1.52
8739.00,1.52
8738.00,1.52
8737.00,1.52
8736.00,1.52
8735.00,1.52
8734.00,1.52
8733.00,1.52
8732.00,1.52
8731.00,1.52
8730.00,1.52
8729.00,1.52
8728.00,1.52
8727.00,1.52
8726.00,1.52
8725.00,1.51
8724.00,1.51
8723.00,1.51
8722.00,1.51
8721.00,1.51
8720.00,1.51
8719.00,1.51
8718.00,1.51
8717.00,1.51
8716.00,1.51
8715.00,1.50
8714.00,1.50
8713.00,1.50
8712.00,1.50
8711.00,1.50
8710.00,1.50
8709.00,1.50
8708.00,1.50
8707.00,1.50
8706.00,1.50
8705.00,1.50
8704.00,1.50
8703.00,1.50
8702.00,1.50
8701.00,1.50
8700.00,1.50
8699.00,1.50
8698.00,1.50
8697.00,1.50
8696.00,1.50
8695.00,1.50
8694.00,1.50
8693.00,1.51
8692.00,1.51
8691.00,1.51
8690.00,1.51
8689.00,1.51
8688.00,1.51
8687.00,1.51
8686.00,1.51
8685.00,1.51
8684.00,1.50
8683.00,1.50
8682.00,1.50
8681.00,1.50
8680.00,1.50
8679.00,1.49
8678.00,1.49
8677.00,1.49
8676.00,1.49
8675.00,1.49
8674.00,1.49
8673.00,1.49
8672.00,1.49
8671.00,1.49
8670.00,1.49
8669.00,1.49
8668.00,1.49
8667.00,1.49
8666.00,1.49
8665.00,1.49
8664.00,1.49
8663.00,1.49
8662.00,1.48
8661.00,1.48
8660.00,1.48
8659.00,1.48
8658.00,1.48
8657.00,1.48
8656.00,1.48
8655.00,1.48
8654.00,1.48
8653.00,1.48
8652.00,1.48
8651.00,1.48
8650.00,1.48
8649.00,1.48
8648.00,1.48
8647.00,1.48
8646.00,1.48
8645.00,1.48
8644.00,1.48
8643.00,1.48
8642.00,1.48
8641.00,1.48
8640.00,1.48
8639.00,1.48
8638.00,1.48
8637.00,1.48
8636.00,1.48
8635.00,1.48
8634.00,1.48
8633.00,1.48
8632.00,1.48
8631.00,1.48
8630.00,1.48
8629.00,1.48
8628.00,1.48
8627.00,1.48
8626.00,1.48
8625.00,1.48
8624.00,1.48
8623.00,1.47
8622.00,1.47
8621.00,1.47
8620.00,1.47
8619.00,1.47
8618.00,1.47
8617.00,1.47
8616.00,1.47
8615.00,1.47
8614.00,1.47
8613.00,1.47
8612.00,1.47
8611.00,1.47
8610.00,1.47
8609.00,1.47
8608.00,1.47
8607.00,1.47
8606.00,1.47
8605.00,1.47
8604.00,1.47
8603.00,1.47
8602.00,1.46
8601.00,1.46
8600.00,1.46
8599.00,1.46
8598.00,1.46
8597.00,1.46
8596.00,1.46
8595.00,1.46
8594.00,1.46
8593.00,1.46
8592.00,1.46
8591.00,1.46
8590.00,1.46
8589.00,1.46
8588.00,1.46
8587.00,1.46
8586.00,1.46
8585.00,1.46
8584.00,1.46
8583.00,1.46
8582.00,1.46
8581.00,1.46
8580.00,1.46
8579.00,1.46
8578.00,1.46
8577.00,1.45
8576.00,1.45
8575.00,1.45
8574.00,1.45
8573.00,1.45
8572.00,1.45
8571.00,1.45
8570.00,1.45
8569.00,1.45
8568.00,1.45
8567.00,1.45
8566.00,1.45
8565.00,1.45
8564.00,1.46
8563.00,1.46
8562.00,1.46
8561.00,1.46
8560.00,1.46
8559.00,1.46
8558.00,1.46
8557.00,1.46
8556.00,1.46
8555.00,1.46
8554.00,1.46
8553.00,1.45
8552.00,1.45
8551.00,1.45
8550.00,1.45
8549.00,1.45
8548.00,1.45
8547.00,1.45
8546.00,1.45
8545.00,1.45
8544.00,1.45
8543.00,1.45
8542.00,1.45
8541.00,1.45
8540.00,1.44
8539.00,1.45
8538.00,1.45
8537.00,1.45
8536.00,1.45
8535.00,1.45
8534.00,1.45
8533.00,1.45
8532.00,1.45
8531.00,1.45
8530.00,1.45
8529.00,1.45
8528.00,1.45
8527.00,1.45
8526.00,1.45
8525.00,1.45
8524.00,1.45
8523.00,1.45
8522.00,1.45
8521.00,1.45
8520.00,1.45
8519.00,1.45
8518.00,1.45
8517.00,1.44
8516.00,1.44
8515.00,1.44
8514.00,1.44
8513.00,1.43
8512.00,1.43
8511.00,1.43
8510.00,1.43
8509.00,1.42
8508.00,1.42
8507.00,1.42
8506.00,1.42
8505.00,1.42
8504.00,1.42
8503.00,1.42
8502.00,1.41
8501.00,1.41
8500.00,1.41
8499.00,1.41
8498.00,1.41
8497.00,1.41
8496.00,1.41
8495.00,1.41
8494.00,1.41
8493.00,1.41
8492.00,1.41
8491.00,1.41
8490.00,1.41
8489.00,1.41
8488.00,1.41
8487.00,1.41
8486.00,1.41
8485.00,1.41
8484.00,1.41
8483.00,1.41
8482.00,1.41
8481.00,1.41
8480.00,1.41
8479.00,1.41
8478.00,1.41
8477.00,1.41
8476.00,1.41
8475.00,1.41
8474.00,1.41
8473.00,1.40
8472.00,1.40
8471.00,1.40
8470.00,1.40
8469.00,1.39
8468.00,1.39
8467.00,1.39
8466.00,1.39
8465.00,1.38
8464.00,1.38
8463.00,1.38
8462.00,1.38
8461.00,1.38
8460.00,1.38
8459.00,1.38
8458.00,1.38
8457.00,1.38
8456.00,1.38
8455.00,1.38
8454.00,1.38
8453.00,1.38
8452.00,1.38
8451.00,1.38
8450.00,1.38
8449.00,1.38
8448.00,1.38
8447.00,1.38
8446.00,1.38
8445.00,1.39
8444.00,1.39
8443.00,1.39
8442.00,1.39
8441.00,1.39
8440.00,1.39
8439.00,1.38
8438.00,1.38
8437.00,1.38
8436.00,1.38
8435.00,1.38
8434.00,1.38
8433.00,1.38
8432.00,1.38
8431.00,1.38
8430.00,1.38
8429.00,1.38
8428.00,1.38
8427.00,1.38
8426.00,1.38
8425.00,1.38
8424.00,1.38
8423.00,1.38
8422.00,1.38
8421.00,1.38
8420.00,1.38
8419.00,1.38
8418.00,1.38
8417.00,1.38
8416.00,1.38
8415.00,1.38
8414.00,1.38
8413.00,1.38
8412.00,1.38
8411.00,1.39
8410.00,1.39
8409.00,1.39
8408.00,1.39
8407.00,1.39
8406.00,1.39
8405.00,1.39
8404.00,1.39
8403.00,1.39
8402.00,1.39
8401.00,1.39
8400.00,1.39
8399.00,1.40
8398.00,1.40
8397.00,1.40
8396.00,1.40
8395.00,1.40
8394.00,1.40
8393.00,1.40
8392.00,1.40
8391.00,1.40
8390.00,1.40
8389.00,1.40
8388.00,1.40
8387.00,1.40
8386.00,1.41
8385.00,1.41
8384.00,1.41
8383.00,1.41
8382.00,1.41
8381.00,1.42
8380.00,1.42
8379.00,1.42
8378.00,1.42
8377.00,1.42
8376.00,1.43
8375.00,1.43
8374.00,1.43
8373.00,1.43
8372.00,1.43
8371.00,1.43
8370.00,1.43
8369.00,1.43
8368.00,1.43
8367.00,1.43
8366.00,1.43
8365.00,1.43
8364.00,1.43
8363.00,1.43
8362.00,1.43
8361.00,1.43
8360.00,1.43
8359.00,1.43
8358.00,1.43
8357.00,1.43
8356.00,1.43
8355.00,1.43
8354.00,1.43
8353.00,1.43
8352.00,1.43
8351.00,1.43
8350.00,1.43
8349.00,1.43
8348.00,1.43
8347.00,1.43
8346.00,1.43
8345.00,1.43
8344.00,1.43
8343.00,1.43
8342.00,1.43
8341.00,1.43
8340.00,1.43
8339.00,1.43
8338.00,1.43
8337.00,1.43
8336.00,1.43
8335.00,1.43
8334.00,1.43
8333.00,1.43
8332.00,1.43
8331.00,1.43
8330.00,1.43
8329.00,1.43
8328.00,1.43
8327.00,1.43
8326.00,1.43
8325.00,1.43
8324.00,1.43
8323.00,1.43
8322.00,1.43
8321.00,1.43
8320.00,1.43
8319.00,1.43
8318.00,1.43
8317.00,1.43
8316.00,1.43
8315.00,1.43
8314.00,1.43
8313.00,1.43
8312.00,1.43
8311.00,1.43
8310.00,1.43
8309.00,1.43
8308.00,1.43
8307.00,1.43
8306.00,1.43
8305.00,1.43
8304.00,1.43
8303.00,1.43
8302.00,1.44
8301.00,1.44
8300.00,1.44
8299.00,1.44
8298.00,1.44
8297.00,1.44
8296.00,1.44
8295.00,1.44
8294.00,1.44
8293.00,1.45
8292.00,1.45
8291.00,1.45
8290.00,1.45
8289.00,1.45
8288.00,1.45
8287.00,1.45
8286.00,1.45
8285.00,1.45
8284.00,1.45
8283.00,1.45
8282.00,1.45
8281.00,1.45
8280.00,1.45
8279.00,1.45
8278.00,1.45
8277.00,1.45
8276.00,1.45
8275.00,1.45
8274.00,1.45
8273.00,1.45
8272.00,1.45
8271.00,1.45
8270.00,1.45
8269.00,1.45
8268.00,1.45
8267.00,1.45
8266.00,1.45
8265.00,1.45
8264.00,1.45
8263.00,1.45
8262.00,1.45
8261.00,1.45
8260.00,1.45
8259.00,1.45
8258.00,1.45
8257.00,1.45
8256.00,1.45
8255.00,1.45
8254.00,1.45
8253.00,1.45
8252.00,1.45
8251.00,1.45
8250.00,1.45
8249.00,1.45
8248.00,1.45
8247.00,1.44
8246.00,1.44
8245.00,1.44
8244.00,1.44
8243.00,1.44
8242.00,1.44
8241.00,1.45
8240.00,1.45
8239.00,1.45
8238.00,1.45
8237.00,1.45
8236.00,1.45
8235.00,1.45
8234.00,1.45
8233.00,1.45
8232.00,1.45
8231.00,1.45
8230.00,1.46
8229.00,1.46
8228.00,1.46
8227.00,1.46
8226.00,1.46
8225.00,1.46
8224.00,1.46
8223.00,1.46
8222.00,1.46
8221.00,1.47
8220.00,1.47
8219.00,1.47
8218.00,1.47
8217.00,1.47
8216.00,1.47
8215.00,1.47
8214.00,1.47
8213.00,1.46
8212.00,1.46
8211.00,1.46
8210.00,1.46
8209.00,1.46
8208.00,1.46
8207.00,1.46
8206.00,1.46
8205.00,1.46
8204.00,1.46
8203.00,1.46
8202.00,1.46
8201.00,1.46
8200.00,1.46
8199.00,1.46
8198.00,1.47
8197.00,1.47
8196.00,1.47
8195.00,1.47
8194.00,1.47
8193.00,1.47
8192.00,1.47
8191.00,1.47
8190.00,1.47
8189.00,1.47
8188.00,1.47
8187.00,1.47
8186.00,1.47
8185.00,1.48
8184.00,1.48
8183.00,1.48
8182.00,1.48
8181.00,1.48
8180.00,1.48
8179.00,1.48
8178.00,1.48
8177.00,1.48
8176.00,1.48
8175.00,1.48
8174.00,1.48
8173.00,1.48
8172.00,1.48
8171.00,1.48
8170.00,1.48
8169.00,1.48
8168.00,1.48
8167.00,1.48
8166.00,1.49
8165.00,1.49
8164.00,1.49
8163.00,1.49
8162.00,1.49
8161.00,1.49
8160.00,1.49
8159.00,1.50
8158.00,1.50
8157.00,1.50
8156.00,1.50
8155.00,1.50
8154.00,1.50
8153.00,1.50
8152.00,1.50
8151.00,1.50
8150.00,1.50
8149.00,1.50
8148.00,1.50
8147.00,1.50
8146.00,1.50
8145.00,1.50
8144.00,1.50
8143.00,1.50
8142.00,1.50
8141.00,1.50
8140.00,1.51
8139.00,1.51
8138.00,1.51
8137.00,1.51
8136.00,1.51
8135.00,1.51
8134.00,1.51
8133.00,1.51
8132.00,1.51
8131.00,1.51
8130.00,1.51
8129.00,1.51
8128.00,1.51
8127.00,1.51
8126.00,1.51
8125.00,1.50
8124.00,1.50
8123.00,1.50
8122.00,1.50
8121.00,1.50
8120.00,1.50
8119.00,1.50
8118.00,1.50
8117.00,1.49
8116.00,1.49
8115.00,1.49
8114.00,1.49
8113.00,1.49
8112.00,1.49
8111.00,1.49
8110.00,1.50
8109.00,1.50
8108.00,1.50
8107.00,1.50
8106.00,1.50
8105.00,1.50
8104.00,1.50
8103.00,1.50
8102.00,1.50
8101.00,1.50
8100.00,1.50
8099.00,1.50
8098.00,1.50
8097.00,1.50
8096.00,1.51
8095.00,1.51
8094.00,1.51
8093.00,1.51
8092.00,1.51
8091.00,1.51
8090.00,1.51
8089.00,1.51
8088.00,1.51
8087.00,1.51
8086.00,1.52
8085.00,1.52
8084.00,1.52
8083.00,1.52
8082.00,1.52
8081.00,1.52
8080.00,1.52
8079.00,1.52
8078.00,1.52
8077.00,1.52
8076.00,1.52
8075.00,1.52
8074.00,1.52
8073.00,1.52
8072.00,1.52
8071.00,1.52
8070.00,1.52
8069.00,1.52
8068.00,1.52
8067.00,1.52
8066.00,1.52
8065.00,1.52
8064.00,1.53
8063.00,1.53
8062.00,1.53
8061.00,1.53
8060.00,1.53
8059.00,1.53
8058.00,1.53
8057.00,1.54
8056.00,1.54
8055.00,1.54
8054.00,1.54
8053.00,1.54
8052.00,1.54
8051.00,1.54
8050.00,1.55
8049.00,1.55
8048.00,1.55
8047.00,1.55
8046.00,1.55
8045.00,1.55
8044.00,1.54
8043.00,1.54
8042.00,1.54
8041.00,1.54
8040.00,1.54
8039.00,1.54
8038.00,1.54
8037.00,1.54
8036.00,1.54
8035.00,1.54
8034.00,1.54
8033.00,1.54
8032.00,1.54
8031.00,1.54
8030.00,1.54
8029.00,1.54
8028.00,1.54
8027.00,1.54
8026.00,1.54
8025.00,1.54
8024.00,1.54
8023.00,1.54
8022.00,1.54
8021.00,1.55
8020.00,1.55
8019.00,1.55
8018.00,1.55
8017.00,1.55
8016.00,1.55
8015.00,1.55
8014.00,1.55
8013.00,1.55
8012.00,1.55
8011.00,1.55
8010.00,1.56
8009.00,1.56
8008.00,1.56
8007.00,1.56
8006.00,1.56
8005.00,1.56
8004.00,1.56
8003.00,1.55
8002.00,1.55
8001.00,1.55
8000.00,1.55
7999.00,1.55
7998.00,1.55
7997.00,1.55
7996.00,1.55
7995.00,1.55
7994.00,1.55
7993.00,1.55
7992.00,1.55
7991.00,1.55
7990.00,1.55
7989.00,1.55
7988.00,1.55
7987.00,1.55
7986.00,1.55
7985.00,1.55
7984.00,1.55
7983.00,1.55
7982.00,1.55
7981.00,1.55
7980.00,1.55
7979.00,1.55
7978.00,1.55
7977.00,1.55
7976.00,1.55
7975.00,1.55
7974.00,1.55
7973.00,1.55
7972.00,1.55
7971.00,1.55
7970.00,1.55
7969.00,1.55
7968.00,1.55
7967.00,1.55
7966.00,1.55
7965.00,1.55
7964.00,1.55
7963.00,1.55
7962.00,1.55
7961.00,1.55
7960.00,1.55
7959.00,1.55
7958.00,1.55
7957.00,1.55
7956.00,1.55
7955.00,1.55
7954.00,1.55
7953.00,1.55
7952.00,1.55
7951.00,1.55
7950.00,1.55
7949.00,1.55
7948.00,1.55
7947.00,1.55
7946.00,1.55
7945.00,1.55
7944.00,1.55
7943.00,1.55
7942.00,1.55
7941.00,1.55
7940.00,1.55
7939.00,1.55
7938.00,1.55
7937.00,1.55
7936.00,1.55
7935.00,1.55
7934.00,1.55
7933.00,1.55
7932.00,1.55
7931.00,1.55
7930.00,1.55
7929.00,1.55
7928.00,1.55
7927.00,1.55
7926.00,1.55
7925.00,1.55
7924.00,1.55
7923.00,1.56
7922.00,1.56
7921.00,1.56
7920.00,1.56
7919.00,1.56
7918.00,1.56
7917.00,1.56
7916.00,1.56
7915.00,1.56
7914.00,1.56
7913.00,1.56
7912.00,1.56
7911.00,1.56
7910.00,1.56
7909.00,1.56
7908.00,1.56
7907.00,1.56
7906.00,1.56
7905.00,1.55
7904.00,1.55
7903.00,1.55
7902.00,1.55
7901.00,1.55
7900.00,1.55
7899.00,1.55
7898.00,1.55
7897.00,1.55
7896.00,1.55
7895.00,1.55
7894.00,1.56
7893.00,1.56
7892.00,1.56
7891.00,1.56
7890.00,1.56
7889.00,1.56
7888.00,1.56
7887.00,1.56
7886.00,1.56
7885.00,1.56
7884.00,1.56
7883.00,1.56
7882.00,1.56
7881.00,1.56
7880.00,1.56
7879.00,1.56
7878.00,1.56
7877.00,1.56
7876.00,1.56
7875.00,1.56
7874.00,1.56
7873.00,1.56
7872.00,1.56
7871.00,1.56
7870.00,1.56
7869.00,1.56
7868.00,1.56
7867.00,1.56
7866.00,1.56
7865.00,1.57
7864.00,1.57
7863.00,1.57
7862.00,1.57
7861.00,1.57
7860.00,1.57
7859.00,1.57
7858.00,1.57
7857.00,1.57
7856.00,1.57
7855.00,1.57
7854.00,1.57
7853.00,1.57
7852.00,1.56
7851.00,1.56
7850.00,1.56
7849.00,1.56
7848.00,1.56
7847.00,1.56
7846.00,1.56
7845.00,1.56
7844.00,1.56
7843.00,1.56
7842.00,1.56
7841.00,1.56
7840.00,1.56
7839.00,1.56
7838.00,1.56
7837.00,1.56
7836.00,1.56
7835.00,1.56
7834.00,1.56
7833.00,1.56
7832.00,1.56
7831.00,1.56
7830.00,1.56
7829.00,1.57
7828.00,1.57
7827.00,1.57
7826.00,1.57
7825.00,1.57
7824.00,1.57
7823.00,1.57
7822.00,1.57
7821.00,1.57
7820.00,1.57
7819.00,1.57
7818.00,1.57
7817.00,1.57
7816.00,1.57
7815.00,1.57
7814.00,1.57
7813.00,1.57
7812.00,1.57
7811.00,1.57
7810.00,1.57
7809.00,1.57
7808.00,1.57
7807.00,1.57
7806.00,1.57
7805.00,1.58
7804.00,1.58
7803.00,1.58
7802.00,1.58
7801.00,1.58
7800.00,1.58
7799.00,1.58
7798.00,1.58
7797.00,1.58
7796.00,1.58
7795.00,1.58
7794.00,1.58
7793.00,1.58
7792.00,1.58
7791.00,1.58
7790.00,1.58
7789.00,1.58
7788.00,1.58
7787.00,1.58
7786.00,1.58
7785.00,1.58
7784.00,1.58
7783.00,1.58
7782.00,1.58
7781.00,1.58
7780.00,1.58
7779.00,1.58
7778.00,1.58
7777.00,1.58
7776.00,1.58
7775.00,1.58
7774.00,1.58
7773.00,1.58
7772.00,1.58
7771.00,1.58
7770.00,1.58
7769.00,1.58
7768.00,1.58
7767.00,1.59
7766.00,1.59
7765.00,1.59
7764.00,1.59
7763.00,1.59
7762.00,1.59
7761.00,1.59
7760.00,1.59
7759.00,1.59
7758.00,1.59
7757.00,1.59
7756.00,1.59
7755.00,1.59
7754.00,1.59
7753.00,1.58
7752.00,1.58
7751.00,1.58
7750.00,1.58
7749.00,1.58
7748.00,1.58
7747.00,1.58
7746.00,1.58
7745.00,1.58
7744.00,1.58
7743.00,1.58
7742.00,1.58
7741.00,1.58
7740.00,1.58
7739.00,1.58
7738.00,1.58
7737.00,1.58
7736.00,1.58
7735.00,1.58
7734.00,1.58
7733.00,1.58
7732.00,1.58
7731.00,1.58
7730.00,1.58
7729.00,1.58
7728.00,1.59
7727.00,1.59
7726.00,1.59
7725.00,1.59
7724.00,1.59
7723.00,1.59
7722.00,1.59
7721.00,1.59
7720.00,1.59
7719.00,1.59
7718.00,1.59
7717.00,1.59
7716.00,1.59
7715.00,1.59
7714.00,1.59
7713.00,1.59
7712.00,1.59
7711.00,1.59
7710.00,1.59
7709.00,1.59
7708.00,1.59
7707.00,1.59
7706.00,1.59
7705.00,1.59
7704.00,1.59
7703.00,1.59
7702.00,1.59
7701.00,1.59
7700.00,1.58
7699.00,1.58
7698.00,1.58
7697.00,1.58
7696.00,1.58
7695.00,1.58
7694.00,1.58
7693.00,1.58
7692.00,1.58
7691.00,1.58
7690.00,1.58
7689.00,1.58
7688.00,1.58
7687.00,1.58
7686.00,1.58
7685.00,1.58
7684.00,1.58
7683.00,1.59
7682.00,1.59
7681.00,1.59
7680.00,1.59
7679.00,1.59
7678.00,1.59
7677.00,1.59
7676.00,1.59
7675.00,1.59
7674.00,1.59
7673.00,1.59
7672.00,1.59
7671.00,1.59
7670.00,1.60
7669.00,1.60
7668.00,1.60
7667.00,1.60
7666.00,1.60
7665.00,1.59
7664.00,1.59
7663.00,1.59
7662.00,1.59
7661.00,1.59
7660.00,1.59
7659.00,1.59
7658.00,1.59
7657.00,1.59
7656.00,1.59
7655.00,1.59
7654.00,1.59
7653.00,1.59
7652.00,1.59
7651.00,1.59
7650.00,1.59
7649.00,1.59
7648.00,1.59
7647.00,1.59
7646.00,1.59
7645.00,1.58
7644.00,1.58
7643.00,1.58
7642.00,1.58
7641.00,1.58
7640.00,1.58
7639.00,1.58
7638.00,1.58
7637.00,1.58
7636.00,1.58
7635.00,1.58
7634.00,1.58
7633.00,1.58
7632.00,1.58
7631.00,1.58
7630.00,1.58
7629.00,1.58
7628.00,1.58
7627.00,1.59
7626.00,1.59
7625.00,1.59
7624.00,1.59
7623.00,1.59
7622.00,1.59
7621.00,1.59
7620.00,1.59
7619.00,1.59
7618.00,1.59
7617.00,1.59
7616.00,1.59
7615.00,1.59
7614.00,1.59
7613.00,1.59
7612.00,1.59
7611.00,1.59
7610.00,1.59
7609.00,1.59
7608.00,1.59
7607.00,1.59
7606.00,1.59
7605.00,1.59
7604.00,1.59
7603.00,1.59
7602.00,1.59
7601.00,1.59
7600.00,1.59
7599.00,1.59
7598.00,1.59
7597.00,1.59
7596.00,1.59
7595.00,1.59
7594.00,1.59
7593.00,1.59
7592.00,1.59
7591.00,1.59
7590.00,1.59
7589.00,1.59
7588.00,1.59
7587.00,1.59
7586.00,1.59
7585.00,1.59
7584.00,1.59
7583.00,1.59
7582.00,1.59
7581.00,1.59
7580.00,1.59
7579.00,1.59
7578.00,1.59
7577.00,1.59
7576.00,1.59
7575.00,1.59
7574.00,1.59
7573.00,1.59
7572.00,1.59
7571.00,1.59
7570.00,1.59
7569.00,1.59
7568.00,1.59
7567.00,1.59
7566.00,1.59
7565.00,1.58
7564.00,1.58
7563.00,1.58
7562.00,1.58
7561.00,1.58
7560.00,1.58
7559.00,1.58
7558.00,1.58
7557.00,1.58
7556.00,1.58
7555.00,1.58
7554.00,1.58
7553.00,1.58
7552.00,1.58
7551.00,1.58
7550.00,1.58
7549.00,1.58
7548.00,1.58
7547.00,1.58
7546.00,1.58
7545.00,1.58
7544.00,1.58
7543.00,1.58
7542.00,1.57
7541.00,1.57
7540.00,1.57
7539.00,1.57
7538.00,1.57
7537.00,1.57
7536.00,1.57
7535.00,1.57
7534.00,1.57
7533.00,1.57
7532.00,1.57
7531.00,1.57
7530.00,1.57
7529.00,1.57
7528.00,1.57
7527.00,1.57
7526.00,1.57
7525.00,1.57
7524.00,1.57
7523.00,1.57
7522.00,1.57
7521.00,1.57
7520.00,1.57
7519.00,1.57
7518.00,1.57
7517.00,1.57
7516.00,1.57
7515.00,1.57
7514.00,1.57
7513.00,1.57
7512.00,1.57
7511.00,1.57
7510.00,1.57
7509.00,1.57
7508.00,1.57
7507.00,1.57
7506.00,1.57
7505.00,1.57
7504.00,1.57
7503.00,1.57
7502.00,1.57
7501.00,1.57
7500.00,1.57
7499.00,1.57
7498.00,1.57
7497.00,1.57
7496.00,1.57
7495.00,1.56
7494.00,1.56
7493.00,1.56
7492.00,1.56
7491.00,1.56
7490.00,1.56
7489.00,1.56
7488.00,1.56
7487.00,1.56
7486.00,1.55
7485.00,1.55
7484.00,1.55
7483.00,1.55
7482.00,1.55
7481.00,1.55
7480.00,1.55
7479.00,1.55
7478.00,1.55
7477.00,1.55
7476.00,1.55
7475.00,1.55
7474.00,1.55
7473.00,1.55
7472.00,1.55
7471.00,1.55
7470.00,1.55
7469.00,1.55
7468.00,1.55
7467.00,1.55
7466.00,1.55
7465.00,1.55
7464.00,1.55
7463.00,1.55
7462.00,1.55
7461.00,1.55
7460.00,1.55
7459.00,1.55
7458.00,1.55
7457.00,1.55
7456.00,1.54
7455.00,1.54
7454.00,1.54
7453.00,1.54
7452.00,1.54
7451.00,1.54
7450.00,1.54
7449.00,1.54
7448.00,1.54
7447.00,1.54
7446.00,1.54
7445.00,1.54
7444.00,1.54
7443.00,1.54
7442.00,1.54
7441.00,1.54
7440.00,1.54
7439.00,1.54
7438.00,1.53
7437.00,1.53
7436.00,1.53
7435.00,1.53
7434.00,1.53
7433.00,1.53
7432.00,1.53
7431.00,1.53
7430.00,1.53
7429.00,1.53
7428.00,1.53
7427.00,1.53
7426.00,1.53
7425.00,1.53
7424.00,1.53
7423.00,1.53
7422.00,1.53
7421.00,1.53
7420.00,1.52
7419.00,1.52
7418.00,1.52
7417.00,1.52
7416.00,1.52
7415.00,1.52
7414.00,1.52
7413.00,1.51
7412.00,1.51
7411.00,1.51
7410.00,1.51
7409.00,1.51
7408.00,1.50
7407.00,1.50
7406.00,1.50
7405.00,1.50
7404.00,1.49
7403.00,1.49
7402.00,1.49
7401.00,1.49
7400.00,1.49
7399.00,1.49
7398.00,1.48
7397.00,1.48
7396.00,1.48
7395.00,1.48
7394.00,1.48
7393.00,1.48
7392.00,1.48
7391.00,1.48
7390.00,1.48
7389.00,1.48
7388.00,1.48
7387.00,1.48
7386.00,1.48
7385.00,1.48
7384.00,1.48
7383.00,1.48
7382.00,1.48
7381.00,1.48
7380.00,1.48
7379.00,1.47
7378.00,1.47
7377.00,1.47
7376.00,1.47
7375.00,1.47
7374.00,1.47
7373.00,1.47
7372.00,1.47
7371.00,1.48
7370.00,1.48
7369.00,1.48
7368.00,1.48
7367.00,1.47
7366.00,1.47
7365.00,1.47
7364.00,1.47
7363.00,1.47
7362.00,1.47
7361.00,1.47
7360.00,1.47
7359.00,1.47
7358.00,1.47
7357.00,1.47
7356.00,1.47
7355.00,1.47
7354.00,1.47
7353.00,1.47
7352.00,1.47
7351.00,1.47
7350.00,1.47
7349.00,1.46
7348.00,1.46
7347.00,1.46
7346.00,1.46
7345.00,1.46
7344.00,1.46
7343.00,1.47
7342.00,1.47
7341.00,1.47
7340.00,1.47
7339.00,1.47
7338.00,1.47
7337.00,1.47
7336.00,1.47
7335.00,1.47
7334.00,1.47
7333.00,1.47
7332.00,1.47
7331.00,1.47
7330.00,1.47
7329.00,1.46
7328.00,1.46
7327.00,1.46
7326.00,1.46
7325.00,1.46
7324.00,1.46
7323.00,1.46
7322.00,1.45
7321.00,1.45
7320.00,1.45
7319.00,1.45
7318.00,1.45
7317.00,1.45
7316.00,1.45
7315.00,1.44
7314.00,1.44
7313.00,1.44
7312.00,1.44
7311.00,1.44
7310.00,1.44
7309.00,1.44
7308.00,1.44
7307.00,1.44
7306.00,1.44
7305.00,1.44
7304.00,1.44
7303.00,1.44
7302.00,1.44
7301.00,1.44
7300.00,1.44
7299.00,1.44
7298.00,1.44
7297.00,1.44
7296.00,1.44
7295.00,1.44
7294.00,1.44
7293.00,1.44
7292.00,1.43
7291.00,1.43
7290.00,1.43
7289.00,1.43
7288.00,1.43
7287.00,1.43
7286.00,1.43
7285.00,1.42
7284.00,1.42
7283.00,1.42
7282.00,1.42
7281.00,1.42
7280.00,1.41
7279.00,1.41
7278.00,1.41
7277.00,1.41
7276.00,1.40
7275.00,1.40
7274.00,1.40
7273.00,1.40
7272.00,1.40
7271.00,1.40
7270.00,1.40
7269.00,1.40
7268.00,1.40
7267.00,1.40
7266.00,1.39
7265.00,1.39
7264.00,1.39
7263.00,1.39
7262.00,1.39
7261.00,1.39
7260.00,1.39
7259.00,1.39
7258.00,1.39
7257.00,1.38
7256.00,1.38
7255.00,1.38
7254.00,1.38
7253.00,1.37
7252.00,1.37
7251.00,1.37
7250.00,1.36
7249.00,1.36
7248.00,1.36
7247.00,1.35
7246.00,1.35
7245.00,1.34
7244.00,1.34
7243.00,1.34
7242.00,1.33
7241.00,1.33
7240.00,1.33
7239.00,1.32
7238.00,1.32
7237.00,1.32
7236.00,1.31
7235.00,1.31
7234.00,1.31
7233.00,1.30
7232.00,1.30
7231.00,1.30
7230.00,1.29
7229.00,1.29
7228.00,1.29
7227.00,1.28
7226.00,1.28
7225.00,1.28
7224.00,1.27
7223.00,1.27
7222.00,1.26
7221.00,1.26
7220.00,1.26
7219.00,1.25
7218.00,1.25
7217.00,1.24
7216.00,1.24
7215.00,1.23
7214.00,1.23
7213.00,1.22
7212.00,1.22
7211.00,1.21
7210.00,1.21
7209.00,1.21
7208.00,1.20
7207.00,1.20
7206.00,1.19
7205.00,1.19
7204.00,1.19
7203.00,1.18
7202.00,1.18
7201.00,1.18
7200.00,1.17
7199.00,1.17
7198.00,1.16
7197.00,1.16
7196.00,1.16
7195.00,1.15
7194.00,1.15
7193.00,1.15
7192.00,1.15
7191.00,1.14
7190.00,1.14
7189.00,1.14
7188.00,1.13
7187.00,1.13
7186.00,1.13
7185.00,1.12
7184.00,1.12
7183.00,1.12
7182.00,1.11
7181.00,1.11
7180.00,1.11
7179.00,1.11
7178.00,1.10
7177.00,1.10
7176.00,1.10
7175.00,1.09
7174.00,1.09
7173.00,1.09
7172.00,1.08
7171.00,1.08
7170.00,1.08
7169.00,1.08
7168.00,1.07
7167.00,1.07
7166.00,1.07
7165.00,1.06
7164.00,1.06
7163.00,1.06
7162.00,1.05
7161.00,1.05
7160.00,1.05
7159.00,1.04
7158.00,1.04
7157.00,1.04
7156.00,1.03
7155.00,1.03
7154.00,1.03
7153.00,1.02
7152.00,1.02
7151.00,1.02
7150.00,1.01
7149.00,1.01
7148.00,1.01
7147.00,1.00
7146.00,1.00
7145.00,1.00
7144.00,0.99
7143.00,0.99
7142.00,0.99
7141.00,0.98
7140.00,0.98
7139.00,0.97
7138.00,0.97
7137.00,0.97
7136.00,0.96
7135.00,0.96
7134.00,0.96
7133.00,0.95
7132.00,0.95
7131.00,0.95
7130.00,0.95
7129.00,0.94
7128.00,0.94
7127.00,0.94
7126.00,0.93
7125.00,0.93
7124.00,0.93
7123.00,0.93
7122.00,0.92
7121.00,0.92
7120.00,0.92
7119.00,0.91
7118.00,0.91
7117.00,0.91
7116.00,0.90
7115.00,0.90
7114.00,0.90
7113.00,0.89
7112.00,0.89
7111.00,0.89
7110.00,0.89
7109.00,0.88
7108.00,0.88
7107.00,0.88
7106.00,0.87
7105.00,0.87
7104.00,0.87
7103.00,0.87
7102.00,0.86
7101.00,0.86
7100.00,0.86
7099.00,0.86
7098.00,0.85
7097.00,0.85
7096.00,0.85
7095.00,0.84
7094.00,0.84
7093.00,0.84
7092.00,0.84
7091.00,0.83
7090.00,0.83
7089.00,0.83
7088.00,0.83
7087.00,0.82
7086.00,0.82
7085.00,0.82
7084.00,0.82
7083.00,0.82
7082.00,0.82
7081.00,0.81
7080.00,0.81
7079.00,0.81
7078.00,0.81
7077.00,0.81
7076.00,0.81
7075.00,0.80
7074.00,0.80
7073.00,0.80
7072.00,0.80
7071.00,0.80
7070.00,0.79
7069.00,0.79
7068.00,0.79
7067.00,0.79
7066.00,0.78
7065.00,0.78
7064.00,0.78
7063.00,0.78
7062.00,0.77
7061.00,0.77
7060.00,0.77
7059.00,0.77
7058.00,0.77
7057.00,0.77
7056.00,0.76
7055.00,0.76
7054.00,0.76
7053.00,0.76
7052.00,0.76
7051.00,0.76
7050.00,0.76
7049.00,0.76
7048.00,0.76
7047.00,0.76
7046.00,0.76
7045.00,0.75
7044.00,0.75
7043.00,0.75
7042.00,0.75
7041.00,0.75
7040.00,0.75
7039.00,0.75
7038.00,0.74
7037.00,0.74
7036.00,0.74
7035.00,0.74
7034.00,0.74
7033.00,0.74
7032.00,0.73
7031.00,0.73
7030.00,0.73
7029.00,0.73
7028.00,0.73
7027.00,0.72
7026.00,0.72
7025.00,0.72
7024.00,0.72
7023.00,0.72
7022.00,0.72
7021.00,0.72
7020.00,0.72
7019.00,0.71
7018.00,0.71
7017.00,0.71
7016.00,0.71
7015.00,0.71
7014.00,0.71
7013.00,0.71
7012.00,0.71
7011.00,0.71
7010.00,0.71
7009.00,0.71
7008.00,0.71
7007.00,0.70
7006.00,0.70
7005.00,0.70
7004.00,0.70
7003.00,0.70
7002.00,0.70
7001.00,0.70
7000.00,0.70
6999.00,0.70
6998.00,0.69
6997.00,0.69
6996.00,0.69
6995.00,0.69
6994.00,0.69
6993.00,0.69
6992.00,0.69
6991.00,0.69
6990.00,0.68
6989.00,0.68
6988.00,0.68
6987.00,0.68
6986.00,0.68
6985.00,0.68
6984.00,0.68
6983.00,0.68
6982.00,0.68
6981.00,0.68
6980.00,0.68
6979.00,0.68
6978.00,0.68
6977.00,0.68
6976.00,0.68
6975.00,0.68
6974.00,0.68
6973.00,0.68
6972.00,0.67
6971.00,0.67
6970.00,0.67
6969.00,0.67
6968.00,0.67
6967.00,0.67
6966.00,0.67
6965.00,0.67
6964.00,0.67
6963.00,0.67
6962.00,0.67
6961.00,0.67
6960.00,0.67
6959.00,0.67
6958.00,0.66
6957.00,0.66
6956.00,0.66
6955.00,0.66
6954.00,0.66
6953.00,0.66
6952.00,0.66
6951.00,0.66
6950.00,0.66
6949.00,0.66
6948.00,0.66
6947.00,0.66
6946.00,0.66
6945.00,0.66
6944.00,0.66
6943.00,0.66
6942.00,0.66
6941.00,0.66
6940.00,0.67
6939.00,0.67
6938.00,0.67
6937.00,0.67
6936.00,0.67
6935.00,0.67
6934.00,0.67
6933.00,0.67
6932.00,0.67
6931.00,0.67
6930.00,0.66
6929.00,0.66
6928.00,0.66
6927.00,0.66
6926.00,0.66
6925.00,0.66
6924.00,0.66
6923.00,0.66
6922.00,0.66
6921.00,0.66
6920.00,0.66
6919.00,0.66
6918.00,0.66
6917.00,0.66
6916.00,0.66
6915.00,0.66
6914.00,0.66
6913.00,0.66
6912.00,0.66
6911.00,0.66
6910.00,0.66
6909.00,0.66
6908.00,0.66
6907.00,0.66
6906.00,0.66
6905.00,0.66
6904.00,0.66
6903.00,0.66
6902.00,0.66
6901.00,0.66
6900.00,0.66
6899.00,0.66
6898.00,0.65
6897.00,0.65
6896.00,0.65
6895.00,0.65
6894.00,0.65
6893.00,0.65
6892.00,0.65
6891.00,0.65
6890.00,0.65
6889.00,0.65
6888.00,0.65
6887.00,0.65
6886.00,0.65
6885.00,0.65
6884.00,0.65
6883.00,0.65
6882.00,0.65
6881.00,0.65
6880.00,0.65
6879.00,0.65
6878.00,0.65
6877.00,0.65
6876.00,0.64
6875.00,0.64
6874.00,0.64
6873.00,0.64
6872.00,0.64
6871.00,0.64
6870.00,0.64
6869.00,0.64
6868.00,0.64
6867.00,0.64
6866.00,0.64
6865.00,0.64
6864.00,0.64
6863.00,0.64
6862.00,0.64
6861.00,0.64
6860.00,0.64
6859.00,0.64
6858.00,0.64
6857.00,0.64
6856.00,0.64
6855.00,0.64
6854.00,0.64
6853.00,0.65
6852.00,0.65
6851.00,0.65
6850.00,0.65
6849.00,0.65
6848.00,0.65
6847.00,0.65
6846.00,0.65
6845.00,0.65
6844.00,0.65
6843.00,0.65
6842.00,0.65
6841.00,0.65
6840.00,0.65
6839.00,0.65
6838.00,0.65
6837.00,0.65
6836.00,0.65
6835.00,0.65
6834.00,0.65
6833.00,0.65
6832.00,0.65
6831.00,0.65
6830.00,0.65
6829.00,0.65
6828.00,0.65
6827.00,0.65
6826.00,0.66
6825.00,0.66
6824.00,0.66
6823.00,0.66
6822.00,0.66
6821.00,0.66
6820.00,0.66
6819.00,0.66
6818.00,0.66
6817.00,0.67
6816.00,0.67
6815.00,0.67
6814.00,0.67
6813.00,0.67
6812.00,0.67
6811.00,0.67
6810.00,0.67
6809.00,0.67
6808.00,0.67
6807.00,0.67
6806.00,0.67
6805.00,0.67
6804.00,0.67
6803.00,0.67
6802.00,0.67
6801.00,0.67
6800.00,0.67
6799.00,0.67
6798.00,0.67
6797.00,0.67
6796.00,0.67
6795.00,0.67
6794.00,0.68
6793.00,0.68
6792.00,0.68
6791.00,0.68
6790.00,0.68
6789.00,0.68
6788.00,0.68
6787.00,0.68
6786.00,0.68
6785.00,0.68
6784.00,0.68
6783.00,0.68
6782.00,0.68
6781.00,0.68
6780.00,0.68
6779.00,0.68
6778.00,0.68
6777.00,0.68
6776.00,0.68
6775.00,0.68
6774.00,0.68
6773.00,0.68
6772.00,0.69
6771.00,0.69
6770.00,0.69
6769.00,0.69
6768.00,0.69
6767.00,0.69
6766.00,0.69
6765.00,0.69
6764.00,0.69
6763.00,0.69
6762.00,0.70
6761.00,0.70
6760.00,0.70
6759.00,0.70
6758.00,0.70
6757.00,0.70
6756.00,0.70
6755.00,0.70
6754.00,0.70
6753.00,0.70
6752.00,0.70
6751.00,0.70
6750.00,0.70
6749.00,0.70
6748.00,0.70
6747.00,0.70
6746.00,0.71
6745.00,0.71
6744.00,0.71
6743.00,0.71
6742.00,0.71
6741.00,0.71
6740.00,0.71
6739.00,0.71
6738.00,0.71
6737.00,0.72
6736.00,0.72
6735.00,0.72
6734.00,0.72
6733.00,0.72
6732.00,0.72
6731.00,0.72
6730.00,0.72
6729.00,0.72
6728.00,0.72
6727.00,0.72
6726.00,0.72
6725.00,0.73
6724.00,0.73
6723.00,0.73
6722.00,0.73
6721.00,0.73
6720.00,0.73
6719.00,0.73
6718.00,0.74
6717.00,0.74
6716.00,0.74
6715.00,0.74
6714.00,0.74
6713.00,0.74
6712.00,0.75
6711.00,0.75
6710.00,0.75
6709.00,0.75
6708.00,0.75
6707.00,0.75
6706.00,0.75
6705.00,0.75
6704.00,0.76
6703.00,0.76
6702.00,0.76
6701.00,0.76
6700.00,0.76
6699.00,0.76
6698.00,0.76
6697.00,0.76
6696.00,0.76
6695.00,0.76
6694.00,0.76
6693.00,0.76
6692.00,0.76
6691.00,0.77
6690.00,0.77
6689.00,0.77
6688.00,0.77
6687.00,0.77
6686.00,0.77
6685.00,0.77
6684.00,0.77
6683.00,0.77
6682.00,0.77
6681.00,0.77
6680.00,0.77
6679.00,0.77
6678.00,0.77
6677.00,0.77
6676.00,0.77
6675.00,0.78
6674.00,0.78
6673.00,0.78
6672.00,0.78
6671.00,0.78
6670.00,0.78
6669.00,0.79
6668.00,0.79
6667.00,0.79
6666.00,0.79
6665.00,0.79
6664.00,0.80
6663.00,0.80
6662.00,0.80
6661.00,0.80
6660.00,0.80
6659.00,0.80
6658.00,0.80
6657.00,0.80
6656.00,0.81
6655.00,0.81
6654.00,0.81
6653.00,0.81
6652.00,0.81
6651.00,0.81
6650.00,0.81
6649.00,0.81
6648.00,0.81
6647.00,0.81
6646.00,0.81
6645.00,0.81
6644.00,0.81
6643.00,0.82
6642.00,0.82
6641.00,0.82
6640.00,0.82
6639.00,0.82
6638.00,0.82
6637.00,0.82
6636.00,0.82
6635.00,0.83
6634.00,0.83
6633.00,0.83
6632.00,0.83
6631.00,0.83
6630.00,0.83
6629.00,0.83
6628.00,0.84
6627.00,0.84
6626.00,0.84
6625.00,0.84
6624.00,0.84
6623.00,0.84
6622.00,0.84
6621.00,0.84
6620.00,0.84
6619.00,0.85
6618.00,0.85
6617.00,0.85
6616.00,0.85
6615.00,0.85
6614.00,0.85
6613.00,0.85
6612.00,0.85
6611.00,0.85
6610.00,0.85
6609.00,0.85
6608.00,0.86
6607.00,0.86
6606.00,0.86
6605.00,0.86
6604.00,0.86
6603.00,0.86
6602.00,0.86
6601.00,0.86
6600.00,0.86
6599.00,0.86
6598.00,0.86
6597.00,0.87
6596.00,0.87
6595.00,0.87
6594.00,0.87
6593.00,0.87
6592.00,0.87
6591.00,0.87
6590.00,0.88
6589.00,0.88
6588.00,0.88
6587.00,0.88
6586.00,0.88
6585.00,0.88
6584.00,0.89
6583.00,0.89
6582.00,0.89
6581.00,0.89
6580.00,0.89
6579.00,0.90
6578.00,0.90
6577.00,0.90
6576.00,0.90
6575.00,0.90
6574.00,0.90
6573.00,0.90
6572.00,0.91
6571.00,0.91
6570.00,0.91
6569.00,0.91
6568.00,0.91
6567.00,0.91
6566.00,0.91
6565.00,0.91
6564.00,0.92
6563.00,0.92
6562.00,0.92
6561.00,0.92
6560.00,0.92
6559.00,0.92
6558.00,0.92
6557.00,0.92
6556.00,0.92
6555.00,0.92
6554.00,0.92
6553.00,0.92
6552.00,0.92
6551.00,0.92
6550.00,0.93
6549.00,0.93
6548.00,0.93
6547.00,0.93
6546.00,0.93
6545.00,0.93
6544.00,0.93
6543.00,0.93
6542.00,0.93
6541.00,0.93
6540.00,0.93
6539.00,0.93
6538.00,0.93
6537.00,0.93
6536.00,0.93
6535.00,0.94
6534.00,0.94
6533.00,0.94
6532.00,0.94
6531.00,0.94
6530.00,0.94
6529.00,0.95
6528.00,0.95
6527.00,0.95
6526.00,0.95
6525.00,0.95
6524.00,0.95
6523.00,0.96
6522.00,0.96
6521.00,0.96
6520.00,0.96
6519.00,0.96
6518.00,0.96
6517.00,0.96
6516.00,0.96
6515.00,0.97
6514.00,0.97
6513.00,0.97
6512.00,0.97
6511.00,0.97
6510.00,0.97
6509.00,0.97
6508.00,0.97
6507.00,0.97
6506.00,0.97
6505.00,0.97
6504.00,0.97
6503.00,0.97
6502.00,0.97
6501.00,0.97
6500.00,0.97
6499.00,0.97
6498.00,0.97
6497.00,0.97
6496.00,0.97
6495.00,0.97
6494.00,0.97
6493.00,0.97
6492.00,0.97
6491.00,0.97
6490.00,0.97
6489.00,0.97
6488.00,0.98
6487.00,0.98
6486.00,0.98
6485.00,0.98
6484.00,0.98
6483.00,0.98
6482.00,0.98
6481.00,0.98
6480.00,0.98
6479.00,0.98
6478.00,0.99
6477.00,0.99
6476.00,0.99
6475.00,0.99
6474.00,0.99
6473.00,0.99
6472.00,0.99
6471.00,0.99
6470.00,1.00
6469.00,1.00
6468.00,1.00
6467.00,1.00
6466.00,1.00
6465.00,1.00
6464.00,1.00
6463.00,1.01
6462.00,1.01
6461.00,1.01
6460.00,1.01
6459.00,1.01
6458.00,1.01
6457.00,1.01
6456.00,1.01
6455.00,1.01
6454.00,1.01
6453.00,1.01
6452.00,1.01
6451.00,1.01
6450.00,1.01
6449.00,1.01
6448.00,1.01
6447.00,1.01
6446.00,1.01
6445.00,1.01
6444.00,1.01
6443.00,1.01
6442.00,1.01
6441.00,1.01
6440.00,1.01
6439.00,1.01
6438.00,1.01
6437.00,1.02
6436.00,1.02
6435.00,1.02
6434.00,1.02
6433.00,1.02
6432.00,1.02
6431.00,1.02
6430.00,1.02
6429.00,1.02
6428.00,1.02
6427.00,1.02
6426.00,1.02
6425.00,1.02
6424.00,1.02
6423.00,1.02
6422.00,1.02
6421.00,1.02
6420.00,1.02
6419.00,1.02
6418.00,1.02
6417.00,1.03
6416.00,1.03
6415.00,1.03
6414.00,1.03
6413.00,1.03
6412.00,1.03
6411.00,1.03
6410.00,1.03
6409.00,1.03
6408.00,1.03
6407.00,1.03
6406.00,1.03
6405.00,1.03
6404.00,1.03
6403.00,1.04
6402.00,1.04
6401.00,1.04
6400.00,1.04
6399.00,1.04
6398.00,1.04
6397.00,1.04
6396.00,1.04
6395.00,1.04
6394.00,1.04
6393.00,1.04
6392.00,1.04
6391.00,1.04
6390.00,1.05
6389.00,1.05
6388.00,1.05
6387.00,1.05
6386.00,1.05
6385.00,1.05
6384.00,1.05
6383.00,1.05
6382.00,1.05
6381.00,1.05
6380.00,1.05
6379.00,1.05
6378.00,1.05
6377.00,1.05
6376.00,1.05
6375.00,1.05
6374.00,1.06
6373.00,1.06
6372.00,1.06
6371.00,1.06
6370.00,1.06
6369.00,1.06
6368.00,1.06
6367.00,1.06
6366.00,1.06
6365.00,1.06
6364.00,1.06
6363.00,1.06
6362.00,1.06
6361.00,1.07
6360.00,1.07
6359.00,1.07
6358.00,1.07
6357.00,1.07
6356.00,1.07
6355.00,1.07
6354.00,1.07
6353.00,1.07
6352.00,1.07
6351.00,1.08
6350.00,1.08
6349.00,1.08
6348.00,1.08
6347.00,1.08
6346.00,1.08
6345.00,1.08
6344.00,1.08
6343.00,1.09
6342.00,1.09
6341.00,1.09
6340.00,1.09
6339.00,1.09
6338.00,1.09
6337.00,1.09
6336.00,1.10
6335.00,1.10
6334.00,1.10
6333.00,1.10
6332.00,1.10
6331.00,1.10
6330.00,1.10
6329.00,1.11
6328.00,1.11
6327.00,1.11
6326.00,1.11
6325.00,1.11
6324.00,1.11
6323.00,1.11
6322.00,1.11
6321.00,1.11
6320.00,1.11
6319.00,1.12
6318.00,1.12
6317.00,1.12
6316.00,1.12
6315.00,1.12
6314.00,1.12
6313.00,1.12
6312.00,1.12
6311.00,1.12
6310.00,1.12
6309.00,1.12
6308.00,1.13
6307.00,1.13
6306.00,1.13
6305.00,1.13
6304.00,1.13
6303.00,1.13
6302.00,1.13
6301.00,1.13
6300.00,1.14
6299.00,1.14
6298.00,1.14
6297.00,1.14
6296.00,1.14
6295.00,1.14
6294.00,1.14
6293.00,1.14
6292.00,1.14
6291.00,1.15
6290.00,1.15
6289.00,1.15
6288.00,1.15
6287.00,1.15
6286.00,1.15
6285.00,1.15
6284.00,1.15
6283.00,1.16
6282.00,1.16
6281.00,1.16
6280.00,1.16
6279.00,1.16
6278.00,1.16
6277.00,1.16
6276.00,1.16
6275.00,1.16
6274.00,1.17
6273.00,1.17
6272.00,1.17
6271.00,1.17
6270.00,1.17
6269.00,1.17
6268.00,1.17
6267.00,1.17
6266.00,1.17
6265.00,1.17
6264.00,1.18
6263.00,1.18
6262.00,1.18
6261.00,1.18
6260.00,1.18
6259.00,1.18
6258.00,1.18
6257.00,1.18
6256.00,1.18
6255.00,1.18
6254.00,1.19
6253.00,1.19
6252.00,1.19
6251.00,1.19
6250.00,1.19
6249.00,1.19
6248.00,1.19
6247.00,1.19
6246.00,1.19
6245.00,1.20
6244.00,1.20
6243.00,1.20
6242.00,1.20
6241.00,1.20
6240.00,1.20
6239.00,1.21
6238.00,1.21
6237.00,1.21
6236.00,1.21
6235.00,1.21
6234.00,1.21
6233.00,1.22
6232.00,1.22
6231.00,1.22
6230.00,1.22
6229.00,1.22
6228.00,1.22
6227.00,1.22
6226.00,1.23
6225.00,1.23
6224.00,1.23
6223.00,1.23
6222.00,1.23
6221.00,1.23
6220.00,1.24
6219.00,1.24
6218.00,1.24
6217.00,1.24
6216.00,1.24
6215.00,1.24
6214.00,1.25
6213.00,1.25
6212.00,1.25
6211.00,1.25
6210.00,1.25
6209.00,1.25
6208.00,1.25
6207.00,1.25
6206.00,1.26
6205.00,1.26
6204.00,1.26
6203.00,1.26
6202.00,1.26
6201.00,1.26
6200.00,1.26
6199.00,1.26
6198.00,1.26
6197.00,1.27
6196.00,1.27
6195.00,1.27
6194.00,1.27
6193.00,1.27
6192.00,1.27
6191.00,1.27
6190.00,1.28
6189.00,1.28
6188.00,1.28
6187.00,1.28
6186.00,1.28
6185.00,1.28
6184.00,1.28
6183.00,1.29
6182.00,1.29
6181.00,1.29
6180.00,1.29
6179.00,1.29
6178.00,1.29
6177.00,1.30
6176.00,1.30
6175.00,1.30
6174.00,1.30
6173.00,1.30
6172.00,1.31
6171.00,1.31
6170.00,1.31
6169.00,1.31
6168.00,1.31
6167.00,1.31
6166.00,1.32
6165.00,1.32
6164.00,1.32
6163.00,1.32
6162.00,1.32
6161.00,1.32
6160.00,1.32
6159.00,1.32
6158.00,1.33
6157.00,1.33
6156.00,1.33
6155.00,1.33
6154.00,1.33
6153.00,1.33
6152.00,1.33
6151.00,1.34
6150.00,1.34
6149.00,1.34
6148.00,1.34
6147.00,1.34
6146.00,1.34
6145.00,1.35
6144.00,1.35
6143.00,1.35
6142.00,1.35
6141.00,1.35
6140.00,1.35
6139.00,1.36
6138.00,1.36
6137.00,1.36
6136.00,1.36
6135.00,1.36
6134.00,1.36
6133.00,1.37
6132.00,1.37
6131.00,1.37
6130.00,1.37
6129.00,1.37
6128.00,1.38
6127.00,1.38
6126.00,1.38
6125.00,1.38
6124.00,1.38
6123.00,1.39
6122.00,1.39
6121.00,1.39
6120.00,1.39
6119.00,1.39
6118.00,1.40
6117.00,1.40
6116.00,1.40
6115.00,1.40
6114.00,1.40
6113.00,1.40
6112.00,1.40
6111.00,1.40
6110.00,1.41
6109.00,1.41
6108.00,1.41
6107.00,1.41
6106.00,1.41
6105.00,1.41
6104.00,1.41
6103.00,1.41
6102.00,1.41
6101.00,1.42
6100.00,1.42
6099.00,1.42
6098.00,1.42
6097.00,1.42
6096.00,1.42
6095.00,1.43
6094.00,1.43
6093.00,1.43
6092.00,1.43
6091.00,1.43
6090.00,1.43
6089.00,1.44
6088.00,1.44
6087.00,1.44
6086.00,1.44
6085.00,1.44
6084.00,1.45
6083.00,1.45
6082.00,1.45
6081.00,1.45
6080.00,1.45
6079.00,1.45
6078.00,1.45
6077.00,1.45
6076.00,1.46
6075.00,1.46
6074.00,1.46
6073.00,1.46
6072.00,1.46
6071.00,1.46
6070.00,1.46
6069.00,1.46
6068.00,1.46
6067.00,1.46
6066.00,1.47
6065.00,1.47
6064.00,1.47
6063.00,1.47
6062.00,1.47
6061.00,1.47
6060.00,1.47
6059.00,1.47
6058.00,1.48
6057.00,1.48
6056.00,1.48
6055.00,1.48
6054.00,1.48
6053.00,1.48
6052.00,1.48
6051.00,1.49
6050.00,1.49
6049.00,1.49
6048.00,1.49
6047.00,1.49
6046.00,1.49
6045.00,1.49
6044.00,1.49
6043.00,1.49
6042.00,1.49
6041.00,1.50
6040.00,1.50
6039.00,1.50
6038.00,1.50
6037.00,1.50
6036.00,1.50
6035.00,1.50
6034.00,1.50
6033.00,1.50
6032.00,1.50
6031.00,1.50
6030.00,1.50
6029.00,1.50
6028.00,1.50
6027.00,1.50
6026.00,1.50
6025.00,1.50
6024.00,1.50
6023.00,1.50
6022.00,1.50
6021.00,1.50
6020.00,1.50
6019.00,1.50
6018.00,1.50
6017.00,1.50
6016.00,1.50
6015.00,1.50
6014.00,1.50
6013.00,1.50
6012.00,1.50
6011.00,1.50
6010.00,1.50
6009.00,1.50
6008.00,1.50
6007.00,1.50
6006.00,1.50
6005.00,1.50
6004.00,1.50
6003.00,1.50
6002.00,1.50
6001.00,1.50
6000.00,1.50
5999.00,1.49
5998.00,1.49
5997.00,1.49
5996.00,1.49
5995.00,1.49
5994.00,1.49
5993.00,1.49
5992.00,1.49
5991.00,1.49
5990.00,1.48
5989.00,1.48
5988.00,1.48
5987.00,1.48
5986.00,1.48
5985.00,1.47
5984.00,1.47
5983.00,1.47
5982.00,1.46
5981.00,1.46
5980.00,1.46
5979.00,1.45
5978.00,1.45
5977.00,1.44
5976.00,1.44
5975.00,1.43
5974.00,1.43
5973.00,1.42
5972.00,1.42
5971.00,1.41
5970.00,1.40
5969.00,1.39
5968.00,1.39
5967.00,1.38
5966.00,1.37
5965.00,1.36
5964.00,1.36
5963.00,1.35
5962.00,1.34
5961.00,1.33
5960.00,1.32
5959.00,1.32
5958.00,1.31
5957.00,1.30
5956.00,1.29
5955.00,1.28
5954.00,1.28
5953.00,1.27
5952.00,1.26
5951.00,1.25
5950.00,1.25
5949.00,1.24
5948.00,1.24
5947.00,1.23
5946.00,1.23
5945.00,1.22
5944.00,1.22
5943.00,1.21
5942.00,1.21
5941.00,1.21
5940.00,1.20
5939.00,1.20
5938.00,1.20
5937.00,1.20
5936.00,1.20
5935.00,1.20
5934.00,1.19
5933.00,1.19
5932.00,1.19
5931.00,1.19
5930.00,1.19
5929.00,1.19
5928.00,1.19
5927.00,1.19
5926.00,1.19
5925.00,1.19
5924.00,1.19
5923.00,1.19
5922.00,1.18
5921.00,1.18
5920.00,1.18
5919.00,1.17
5918.00,1.17
5917.00,1.17
5916.00,1.16
5915.00,1.16
5914.00,1.16
5913.00,1.15
5912.00,1.15
5911.00,1.15
5910.00,1.14
5909.00,1.14
5908.00,1.14
5907.00,1.13
5906.00,1.13
5905.00,1.13
5904.00,1.13
5903.00,1.13
5902.00,1.13
5901.00,1.13
5900.00,1.13
5899.00,1.13
5898.00,1.13
5897.00,1.13
5896.00,1.13
5895.00,1.14
5894.00,1.14
5893.00,1.14
5892.00,1.14
5891.00,1.15
5890.00,1.15
5889.00,1.15
5888.00,1.16
5887.00,1.16
5886.00,1.17
5885.00,1.17
5884.00,1.17
5883.00,1.18
5882.00,1.18
5881.00,1.19
5880.00,1.19
5879.00,1.19
5878.00,1.20
5877.00,1.20
5876.00,1.20
5875.00,1.21
5874.00,1.21
5873.00,1.21
5872.00,1.21
5871.00,1.22
5870.00,1.22
5869.00,1.22
5868.00,1.22
5867.00,1.22
5866.00,1.23
5865.00,1.23
5864.00,1.23
5863.00,1.23
5862.00,1.23
5861.00,1.23
5860.00,1.24
5859.00,1.24
5858.00,1.24
5857.00,1.24
5856.00,1.24
5855.00,1.24
5854.00,1.24
5853.00,1.24
5852.00,1.25
5851.00,1.25
5850.00,1.25
5849.00,1.25
5848.00,1.25
5847.00,1.25
5846.00,1.25
5845.00,1.25
5844.00,1.25
5843.00,1.25
5842.00,1.25
5841.00,1.25
5840.00,1.25
5839.00,1.25
5838.00,1.24
5837.00,1.24
5836.00,1.24
5835.00,1.24
5834.00,1.24
5833.00,1.24
5832.00,1.24
5831.00,1.24
5830.00,1.24
5829.00,1.24
5828.00,1.24
5827.00,1.24
5826.00,1.24
5825.00,1.24
5824.00,1.24
5823.00,1.24
5822.00,1.24
5821.00,1.24
5820.00,1.25
5819.00,1.25
5818.00,1.25
5817.00,1.25
5816.00,1.25
5815.00,1.25
5814.00,1.25
5813.00,1.25
5812.00,1.25
5811.00,1.25
5810.00,1.25
5809.00,1.25
5808.00,1.25
5807.00,1.25
5806.00,1.25
5805.00,1.25
5804.00,1.25
5803.00,1.25
5802.00,1.25
5801.00,1.25
5800.00,1.24
5799.00,1.24
5798.00,1.24
5797.00,1.24
5796.00,1.24
5795.00,1.23
5794.00,1.23
5793.00,1.23
5792.00,1.23
5791.00,1.22
5790.00,1.22
5789.00,1.22
5788.00,1.21
5787.00,1.21
5786.00,1.21
5785.00,1.20
5784.00,1.20
5783.00,1.20
5782.00,1.20
5781.00,1.19
5780.00,1.19
5779.00,1.19
5778.00,1.19
5777.00,1.19
5776.00,1.18
5775.00,1.18
5774.00,1.18
5773.00,1.18
5772.00,1.18
5771.00,1.18
5770.00,1.18
5769.00,1.18
5768.00,1.19
5767.00,1.19
5766.00,1.19
5765.00,1.19
5764.00,1.19
5763.00,1.20
5762.00,1.20
5761.00,1.20
5760.00,1.21
5759.00,1.21
5758.00,1.21
5757.00,1.22
5756.00,1.22
5755.00,1.23
5754.00,1.23
5753.00,1.23
5752.00,1.24
5751.00,1.24
5750.00,1.25
5749.00,1.25
5748.00,1.25
5747.00,1.26
5746.00,1.26
5745.00,1.26
5744.00,1.27
5743.00,1.27
5742.00,1.27
5741.00,1.28
5740.00,1.28
5739.00,1.28
5738.00,1.29
5737.00,1.29
5736.00,1.29
5735.00,1.30
5734.00,1.30
5733.00,1.30
5732.00,1.30
5731.00,1.31
5730.00,1.31
5729.00,1.31
5728.00,1.31
5727.00,1.31
5726.00,1.31
5725.00,1.31
5724.00,1.31
5723.00,1.31
5722.00,1.31
5721.00,1.31
5720.00,1.31
5719.00,1.31
5718.00,1.31
5717.00,1.31
5716.00,1.31
5715.00,1.31
5714.00,1.31
5713.00,1.31
5712.00,1.31
5711.00,1.31
5710.00,1.31
5709.00,1.31
5708.00,1.31
5707.00,1.31
5706.00,1.30
5705.00,1.30
5704.00,1.30
5703.00,1.30
5702.00,1.30
5701.00,1.30
5700.00,1.30
5699.00,1.29
5698.00,1.29
5697.00,1.29
5696.00,1.29
5695.00,1.29
5694.00,1.29
5693.00,1.29
5692.00,1.28
5691.00,1.28
5690.00,1.28
5689.00,1.28
5688.00,1.28
5687.00,1.28
5686.00,1.28
5685.00,1.27
5684.00,1.27
5683.00,1.27
5682.00,1.27
5681.00,1.27
5680.00,1.27
5679.00,1.27
5678.00,1.27
5677.00,1.27
5676.00,1.27
5675.00,1.27
5674.00,1.27
5673.00,1.27
5672.00,1.27
5671.00,1.27
5670.00,1.27
5669.00,1.27
5668.00,1.27
5667.00,1.27
5666.00,1.28
5665.00,1.28
5664.00,1.28
5663.00,1.28
5662.00,1.28
5661.00,1.28
5660.00,1.29
5659.00,1.29
5658.00,1.29
5657.00,1.29
5656.00,1.29
5655.00,1.29
5654.00,1.30
5653.00,1.30
5652.00,1.30
5651.00,1.30
5650.00,1.30
5649.00,1.31
5648.00,1.31
5647.00,1.31
5646.00,1.31
5645.00,1.31
5644.00,1.32
5643.00,1.32
5642.00,1.32
5641.00,1.32
5640.00,1.33
5639.00,1.33
5638.00,1.33
5637.00,1.33
5636.00,1.33
5635.00,1.34
5634.00,1.34
5633.00,1.34
5632.00,1.34
5631.00,1.34
5630.00,1.34
5629.00,1.34
5628.00,1.35
5627.00,1.35
5626.00,1.35
5625.00,1.35
5624.00,1.35
5623.00,1.35
5622.00,1.35
5621.00,1.35
5620.00,1.36
5619.00,1.36
5618.00,1.36
5617.00,1.36
5616.00,1.36
5615.00,1.37
5614.00,1.37
5613.00,1.37
5612.00,1.37
5611.00,1.38
5610.00,1.38
5609.00,1.38
5608.00,1.38
5607.00,1.38
5606.00,1.39
5605.00,1.39
5604.00,1.39
5603.00,1.39
5602.00,1.39
5601.00,1.40
5600.00,1.40
5599.00,1.40
5598.00,1.40
5597.00,1.40
5596.00,1.40
5595.00,1.41
5594.00,1.41
5593.00,1.41
5592.00,1.41
5591.00,1.41
5590.00,1.41
5589.00,1.42
5588.00,1.42
5587.00,1.42
5586.00,1.42
5585.00,1.42
5584.00,1.42
5583.00,1.43
5582.00,1.43
5581.00,1.43
5580.00,1.43
5579.00,1.43
5578.00,1.43
5577.00,1.44
5576.00,1.44
5575.00,1.44
5574.00,1.44
5573.00,1.44
5572.00,1.44
5571.00,1.44
5570.00,1.45
5569.00,1.45
5568.00,1.45
5567.00,1.45
5566.00,1.45
5565.00,1.45
5564.00,1.46
5563.00,1.46
5562.00,1.46
5561.00,1.46
5560.00,1.46
5559.00,1.46
5558.00,1.47
5557.00,1.47
5556.00,1.47
5555.00,1.47
5554.00,1.47
5553.00,1.47
5552.00,1.47
5551.00,1.48
5550.00,1.48
5549.00,1.48
5548.00,1.48
5547.00,1.48
5546.00,1.48
5545.00,1.49
5544.00,1.49
5543.00,1.49
5542.00,1.49
5541.00,1.49
5540.00,1.49
5539.00,1.49
5538.00,1.50
5537.00,1.50
5536.00,1.50
5535.00,1.50
5534.00,1.50
5533.00,1.50
5532.00,1.50
5531.00,1.50
5530.00,1.50
5529.00,1.51
5528.00,1.51
5527.00,1.51
5526.00,1.51
5525.00,1.51
5524.00,1.51
5523.00,1.51
5522.00,1.51
5521.00,1.51
5520.00,1.51
5519.00,1.51
5518.00,1.51
5517.00,1.51
5516.00,1.51
5515.00,1.51
5514.00,1.51
5513.00,1.51
5512.00,1.51
5511.00,1.52
5510.00,1.52
5509.00,1.52
5508.00,1.52
5507.00,1.52
5506.00,1.52
5505.00,1.52
5504.00,1.52
5503.00,1.52
5502.00,1.52
5501.00,1.53
5500.00,1.53
5499.00,1.53
5498.00,1.53
5497.00,1.53
5496.00,1.53
5495.00,1.53
5494.00,1.53
5493.00,1.53
5492.00,1.53
5491.00,1.54
5490.00,1.54
5489.00,1.54
5488.00,1.54
5487.00,1.54
5486.00,1.54
5485.00,1.54
5484.00,1.54
5483.00,1.55
5482.00,1.55
5481.00,1.55
5480.00,1.55
5479.00,1.55
5478.00,1.55
5477.00,1.55
5476.00,1.56
5475.00,1.56
5474.00,1.56
5473.00,1.56
5472.00,1.56
5471.00,1.56
5470.00,1.56
5469.00,1.56
5468.00,1.56
5467.00,1.57
5466.00,1.57
5465.00,1.57
5464.00,1.57
5463.00,1.57
5462.00,1.57
5461.00,1.57
5460.00,1.57
5459.00,1.57
5458.00,1.57
5457.00,1.57
5456.00,1.58
5455.00,1.58
5454.00,1.58
5453.00,1.58
5452.00,1.58
5451.00,1.58
5450.00,1.58
5449.00,1.58
5448.00,1.58
5447.00,1.58
5446.00,1.58
5445.00,1.58
5444.00,1.58
5443.00,1.58
5442.00,1.59
5441.00,1.59
5440.00,1.59
5439.00,1.59
5438.00,1.59
5437.00,1.59
5436.00,1.59
5435.00,1.59
5434.00,1.59
5433.00,1.59
5432.00,1.59
5431.00,1.59
5430.00,1.59
5429.00,1.59
5428.00,1.59
5427.00,1.59
5426.00,1.60
5425.00,1.60
5424.00,1.60
5423.00,1.60
5422.00,1.60
5421.00,1.60
5420.00,1.60
5419.00,1.60
5418.00,1.60
5417.00,1.60
5416.00,1.60
5415.00,1.60
5414.00,1.60
5413.00,1.60
5412.00,1.59
5411.00,1.59
5410.00,1.59
5409.00,1.59
5408.00,1.59
5407.00,1.59
5406.00,1.59
5405.00,1.59
5404.00,1.59
5403.00,1.59
5402.00,1.59
5401.00,1.59
5400.00,1.59
5399.00,1.59
5398.00,1.59
5397.00,1.59
5396.00,1.59
5395.00,1.59
5394.00,1.59
5393.00,1.59
5392.00,1.58
5391.00,1.58
5390.00,1.58
5389.00,1.58
5388.00,1.58
5387.00,1.58
5386.00,1.57
5385.00,1.57
5384.00,1.57
5383.00,1.56
5382.00,1.56
5381.00,1.56
5380.00,1.55
5379.00,1.55
5378.00,1.55
5377.00,1.54
5376.00,1.54
5375.00,1.53
5374.00,1.53
5373.00,1.52
5372.00,1.52
5371.00,1.51
5370.00,1.51
5369.00,1.50
5368.00,1.50
5367.00,1.49
5366.00,1.49
5365.00,1.48
5364.00,1.48
5363.00,1.47
5362.00,1.47
5361.00,1.46
5360.00,1.45
5359.00,1.45
5358.00,1.44
5357.00,1.43
5356.00,1.42
5355.00,1.42
5354.00,1.41
5353.00,1.40
5352.00,1.39
5351.00,1.38
5350.00,1.37
5349.00,1.36
5348.00,1.35
5347.00,1.34
5346.00,1.33
5345.00,1.31
5344.00,1.30
5343.00,1.29
5342.00,1.28
5341.00,1.27
5340.00,1.25
5339.00,1.24
5338.00,1.23
5337.00,1.22
5336.00,1.20
5335.00,1.19
5334.00,1.18
5333.00,1.17
5332.00,1.15
5331.00,1.14
5330.00,1.13
5329.00,1.11
5328.00,1.10
5327.00,1.09
5326.00,1.08
5325.00,1.06
5324.00,1.05
5323.00,1.04
5322.00,1.02
5321.00,1.01
5320.00,1.00
5319.00,0.99
5318.00,0.98
5317.00,0.96
5316.00,0.95
5315.00,0.94
5314.00,0.93
5313.00,0.92
5312.00,0.90
5311.00,0.89
5310.00,0.88
5309.00,0.87
5308.00,0.86
5307.00,0.85
5306.00,0.84
5305.00,0.83
5304.00,0.82
5303.00,0.82
5302.00,0.81
5301.00,0.80
5300.00,0.79
5299.00,0.79
5298.00,0.78
5297.00,0.77
5296.00,0.77
5295.00,0.76
5294.00,0.76
5293.00,0.75
5292.00,0.75
5291.00,0.75
5290.00,0.74
5289.00,0.74
5288.00,0.73
5287.00,0.73
5286.00,0.73
5285.00,0.73
5284.00,0.72
5283.00,0.72
5282.00,0.72
5281.00,0.72
5280.00,0.71
5279.00,0.71
5278.00,0.71
5277.00,0.71
5276.00,0.71
5275.00,0.71
5274.00,0.70
5273.00,0.70
5272.00,0.70
5271.00,0.70
5270.00,0.70
5269.00,0.70
5268.00,0.70
5267.00,0.70
5266.00,0.70
5265.00,0.70
5264.00,0.70
5263.00,0.69
5262.00,0.69
5261.00,0.69
5260.00,0.69
5259.00,0.69
5258.00,0.69
5257.00,0.69
5256.00,0.69
5255.00,0.69
5254.00,0.69
5253.00,0.69
5252.00,0.69
5251.00,0.69
5250.00,0.69
5249.00,0.69
5248.00,0.69
5247.00,0.69
5246.00,0.69
5245.00,0.69
5244.00,0.69
5243.00,0.69
5242.00,0.69
5241.00,0.69
5240.00,0.69
5239.00,0.69
5238.00,0.69
5237.00,0.69
5236.00,0.69
5235.00,0.69
5234.00,0.69
5233.00,0.69
5232.00,0.69
5231.00,0.69
5230.00,0.69
5229.00,0.69
5228.00,0.69
5227.00,0.69
5226.00,0.69
5225.00,0.69
5224.00,0.69
5223.00,0.69
5222.00,0.69
5221.00,0.69
5220.00,0.69
5219.00,0.69
5218.00,0.69
5217.00,0.69
5216.00,0.69
5215.00,0.69
5214.00,0.69
5213.00,0.69
5212.00,0.69
5211.00,0.69
5210.00,0.69
5209.00,0.69
5208.00,0.69
5207.00,0.69
5206.00,0.69
5205.00,0.69
5204.00,0.69
5203.00,0.69
5202.00,0.69
5201.00,0.69
5200.00,0.69
5199.00,0.69
5198.00,0.69
5197.00,0.69
5196.00,0.69
5195.00,0.69
5194.00,0.69
5193.00,0.70
5192.00,0.70
5191.00,0.70
5190.00,0.70
5189.00,0.70
5188.00,0.70
5187.00,0.70
5186.00,0.70
5185.00,0.70
5184.00,0.70
5183.00,0.70
5182.00,0.70
5181.00,0.70
5180.00,0.70
5179.00,0.71
5178.00,0.71
5177.00,0.71
5176.00,0.71
5175.00,0.71
5174.00,0.71
5173.00,0.71
5172.00,0.71
5171.00,0.71
5170.00,0.71
5169.00,0.71
5168.00,0.71
5167.00,0.71
5166.00,0.71
5165.00,0.72
5164.00,0.72
5163.00,0.72
5162.00,0.72
5161.00,0.72
5160.00,0.72
5159.00,0.72
5158.00,0.72
5157.00,0.72
5156.00,0.72
5155.00,0.72
5154.00,0.72
5153.00,0.72
5152.00,0.72
5151.00,0.73
5150.00,0.73
5149.00,0.73
5148.00,0.73
5147.00,0.73
5146.00,0.73
5145.00,0.73
5144.00,0.73
5143.00,0.73
5142.00,0.73
5141.00,0.73
5140.00,0.73
5139.00,0.73
5138.00,0.73
5137.00,0.73
5136.00,0.73
5135.00,0.73
5134.00,0.73
5133.00,0.73
5132.00,0.73
5131.00,0.73
5130.00,0.73
5129.00,0.73
5128.00,0.73
5127.00,0.73
5126.00,0.73
5125.00,0.73
5124.00,0.73
5123.00,0.74
5122.00,0.74
5121.00,0.74
5120.00,0.74
5119.00,0.74
5118.00,0.74
5117.00,0.74
5116.00,0.75
5115.00,0.75
5114.00,0.75
5113.00,0.75
5112.00,0.75
5111.00,0.75
5110.00,0.75
5109.00,0.75
5108.00,0.75
5107.00,0.75
5106.00,0.75
5105.00,0.75
5104.00,0.75
5103.00,0.75
5102.00,0.75
5101.00,0.75
5100.00,0.75
5099.00,0.75
5098.00,0.75
5097.00,0.75
5096.00,0.76
5095.00,0.76
5094.00,0.76
5093.00,0.76
5092.00,0.76
5091.00,0.76
5090.00,0.76
5089.00,0.76
5088.00,0.76
5087.00,0.76
5086.00,0.76
5085.00,0.76
5084.00,0.76
5083.00,0.77
5082.00,0.77
5081.00,0.77
5080.00,0.77
5079.00,0.77
5078.00,0.77
5077.00,0.77
5076.00,0.77
5075.00,0.77
5074.00,0.77
5073.00,0.77
5072.00,0.77
5071.00,0.77
5070.00,0.77
5069.00,0.77
5068.00,0.77
5067.00,0.77
5066.00,0.77
5065.00,0.77
5064.00,0.77
5063.00,0.77
5062.00,0.77
5061.00,0.77
5060.00,0.77
5059.00,0.78
5058.00,0.78
5057.00,0.78
5056.00,0.78
5055.00,0.78
5054.00,0.78
5053.00,0.78
5052.00,0.78
5051.00,0.79
5050.00,0.79
5049.00,0.79
5048.00,0.79
5047.00,0.79
5046.00,0.79
5045.00,0.79
5044.00,0.79
5043.00,0.79
5042.00,0.79
5041.00,0.80
5040.00,0.80
5039.00,0.80
5038.00,0.80
5037.00,0.80
5036.00,0.80
5035.00,0.80
5034.00,0.80
5033.00,0.80
5032.00,0.81
5031.00,0.81
5030.00,0.81
5029.00,0.81
5028.00,0.81
5027.00,0.81
5026.00,0.82
5025.00,0.82
5024.00,0.82
5023.00,0.82
5022.00,0.82
5021.00,0.82
5020.00,0.83
5019.00,0.83
5018.00,0.83
5017.00,0.83
5016.00,0.83
5015.00,0.83
5014.00,0.83
5013.00,0.83
5012.00,0.84
5011.00,0.84
5010.00,0.84
5009.00,0.84
5008.00,0.84
5007.00,0.84
5006.00,0.84
5005.00,0.84
5004.00,0.84
5003.00,0.84
5002.00,0.85
5001.00,0.85
5000.00,0.85
4999.00,0.85
4998.00,0.85
4997.00,0.85
4996.00,0.85
4995.00,0.85
4994.00,0.85
4993.00,0.85
4992.00,0.85
4991.00,0.86
4990.00,0.86
4989.00,0.86
4988.00,0.86
4987.00,0.86
4986.00,0.86
4985.00,0.86
4984.00,0.86
4983.00,0.86
4982.00,0.86
4981.00,0.86
4980.00,0.87
4979.00,0.87
4978.00,0.87
4977.00,0.87
4976.00,0.87
4975.00,0.87
4974.00,0.87
4973.00,0.88
4972.00,0.88
4971.00,0.88
4970.00,0.88
4969.00,0.88
4968.00,0.88
4967.00,0.88
4966.00,0.89
4965.00,0.89
4964.00,0.89
4963.00,0.89
4962.00,0.89
4961.00,0.89
4960.00,0.89
4959.00,0.89
4958.00,0.89
4957.00,0.89
4956.00,0.90
4955.00,0.90
4954.00,0.90
4953.00,0.90
4952.00,0.90
4951.00,0.90
4950.00,0.91
4949.00,0.91
4948.00,0.91
4947.00,0.91
4946.00,0.91
4945.00,0.92
4944.00,0.92
4943.00,0.92
4942.00,0.92
4941.00,0.92
4940.00,0.93
4939.00,0.93
4938.00,0.93
4937.00,0.93
4936.00,0.93
4935.00,0.93
4934.00,0.93
4933.00,0.94
4932.00,0.94
4931.00,0.94
4930.00,0.94
4929.00,0.94
4928.00,0.94
4927.00,0.94
4926.00,0.94
4925.00,0.94
4924.00,0.94
4923.00,0.94
4922.00,0.94
4921.00,0.94
4920.00,0.94
4919.00,0.94
4918.00,0.94
4917.00,0.94
4916.00,0.94
4915.00,0.94
4914.00,0.94
4913.00,0.94
4912.00,0.94
4911.00,0.95
4910.00,0.95
4909.00,0.95
4908.00,0.95
4907.00,0.95
4906.00,0.95
4905.00,0.95
4904.00,0.95
4903.00,0.95
4902.00,0.96
4901.00,0.96
4900.00,0.96
4899.00,0.96
4898.00,0.96
4897.00,0.96
4896.00,0.96
4895.00,0.96
4894.00,0.96
4893.00,0.97
4892.00,0.97
4891.00,0.97
4890.00,0.97
4889.00,0.97
4888.00,0.97
4887.00,0.97
4886.00,0.97
4885.00,0.97
4884.00,0.97
4883.00,0.98
4882.00,0.98
4881.00,0.98
4880.00,0.98
4879.00,0.98
4878.00,0.98
4877.00,0.98
4876.00,0.98
4875.00,0.98
4874.00,0.98
4873.00,0.98
4872.00,0.99
4871.00,0.99
4870.00,0.99
4869.00,0.99
4868.00,0.99
4867.00,0.99
4866.00,0.99
4865.00,0.99
4864.00,0.99
4863.00,0.99
4862.00,0.99
4861.00,0.99
4860.00,0.99
4859.00,0.99
4858.00,0.99
4857.00,0.99
4856.00,0.99
4855.00,0.99
4854.00,0.99
4853.00,0.99
4852.00,0.99
4851.00,0.99
4850.00,0.99
4849.00,0.99
4848.00,0.99
4847.00,0.99
4846.00,1.00
4845.00,1.00
4844.00,1.00
4843.00,1.00
4842.00,1.00
4841.00,1.00
4840.00,1.00
4839.00,1.00
4838.00,1.00
4837.00,1.00
4836.00,1.01
4835.00,1.01
4834.00,1.01
4833.00,1.01
4832.00,1.01
4831.00,1.01
4830.00,1.01
4829.00,1.02
4828.00,1.02
4827.00,1.02
4826.00,1.02
4825.00,1.02
4824.00,1.03
4823.00,1.03
4822.00,1.03
4821.00,1.03
4820.00,1.03
4819.00,1.04
4818.00,1.04
4817.00,1.04
4816.00,1.04
4815.00,1.04
4814.00,1.04
4813.00,1.05
4812.00,1.05
4811.00,1.05
4810.00,1.05
4809.00,1.05
4808.00,1.05
4807.00,1.05
4806.00,1.05
4805.00,1.06
4804.00,1.06
4803.00,1.06
4802.00,1.06
4801.00,1.06
4800.00,1.06
4799.00,1.06
4798.00,1.06
4797.00,1.06
4796.00,1.07
4795.00,1.07
4794.00,1.07
4793.00,1.07
4792.00,1.07
4791.00,1.07
4790.00,1.07
4789.00,1.07
4788.00,1.08
4787.00,1.08
4786.00,1.08
4785.00,1.08
4784.00,1.08
4783.00,1.08
4782.00,1.08
4781.00,1.08
4780.00,1.08
4779.00,1.08
4778.00,1.08
4777.00,1.09
4776.00,1.09
4775.00,1.09
4774.00,1.09
4773.00,1.09
4772.00,1.09
4771.00,1.09
4770.00,1.10
4769.00,1.10
4768.00,1.10
4767.00,1.10
4766.00,1.10
4765.00,1.11
4764.00,1.11
4763.00,1.11
4762.00,1.11
4761.00,1.11
4760.00,1.12
4759.00,1.12
4758.00,1.12
4757.00,1.12
4756.00,1.12
4755.00,1.13
4754.00,1.13
4753.00,1.13
4752.00,1.13
4751.00,1.14
4750.00,1.14
4749.00,1.14
4748.00,1.14
4747.00,1.14
4746.00,1.15
4745.00,1.15
4744.00,1.15
4743.00,1.15
4742.00,1.15
4741.00,1.16
4740.00,1.16
4739.00,1.16
4738.00,1.16
4737.00,1.17
4736.00,1.17
4735.00,1.17
4734.00,1.17
4733.00,1.18
4732.00,1.18
4731.00,1.18
4730.00,1.18
4729.00,1.19
4728.00,1.19
4727.00,1.19
4726.00,1.20
4725.00,1.20
4724.00,1.20
4723.00,1.20
4722.00,1.21
4721.00,1.21
4720.00,1.21
4719.00,1.21
4718.00,1.22
4717.00,1.22
4716.00,1.22
4715.00,1.22
4714.00,1.23
4713.00,1.23
4712.00,1.23
4711.00,1.23
4710.00,1.24
4709.00,1.24
4708.00,1.24
4707.00,1.25
4706.00,1.25
4705.00,1.25
4704.00,1.25
4703.00,1.26
4702.00,1.26
4701.00,1.26
4700.00,1.26
4699.00,1.27
4698.00,1.27
4697.00,1.27
4696.00,1.27
4695.00,1.27
4694.00,1.27
4693.00,1.28
4692.00,1.28
4691.00,1.28
4690.00,1.28
4689.00,1.28
4688.00,1.28
4687.00,1.28
4686.00,1.29
4685.00,1.29
4684.00,1.29
4683.00,1.29
4682.00,1.29
4681.00,1.30
4680.00,1.30
4679.00,1.30
4678.00,1.30
4677.00,1.30
4676.00,1.31
4675.00,1.31
4674.00,1.31
4673.00,1.31
4672.00,1.32
4671.00,1.32
4670.00,1.32
4669.00,1.32
4668.00,1.33
4667.00,1.33
4666.00,1.33
4665.00,1.33
4664.00,1.34
4663.00,1.34
4662.00,1.34
4661.00,1.34
4660.00,1.34
4659.00,1.35
4658.00,1.35
4657.00,1.35
4656.00,1.35
4655.00,1.35
4654.00,1.35
4653.00,1.36
4652.00,1.36
4651.00,1.36
4650.00,1.36
4649.00,1.37
4648.00,1.37
4647.00,1.37
4646.00,1.37
4645.00,1.38
4644.00,1.38
4643.00,1.38
4642.00,1.38
4641.00,1.38
4640.00,1.39
4639.00,1.39
4638.00,1.39
4637.00,1.39
4636.00,1.39
4635.00,1.39
4634.00,1.40
4633.00,1.40
4632.00,1.40
4631.00,1.40
4630.00,1.40
4629.00,1.40
4628.00,1.40
4627.00,1.40
4626.00,1.40
4625.00,1.41
4624.00,1.41
4623.00,1.41
4622.00,1.41
4621.00,1.41
4620.00,1.41
4619.00,1.41
4618.00,1.41
4617.00,1.41
4616.00,1.41
4615.00,1.41
4614.00,1.41
4613.00,1.41
4612.00,1.41
4611.00,1.41
4610.00,1.41
4609.00,1.41
4608.00,1.42
4607.00,1.42
4606.00,1.42
4605.00,1.42
4604.00,1.42
4603.00,1.42
4602.00,1.42
4601.00,1.42
4600.00,1.42
4599.00,1.42
4598.00,1.42
4597.00,1.42
4596.00,1.42
4595.00,1.42
4594.00,1.43
4593.00,1.43
4592.00,1.43
4591.00,1.43
4590.00,1.43
4589.00,1.43
4588.00,1.43
4587.00,1.43
4586.00,1.43
4585.00,1.43
4584.00,1.43
4583.00,1.44
4582.00,1.44
4581.00,1.44
4580.00,1.44
4579.00,1.44
4578.00,1.44
4577.00,1.45
4576.00,1.45
4575.00,1.45
4574.00,1.45
4573.00,1.45
4572.00,1.45
4571.00,1.46
4570.00,1.46
4569.00,1.46
4568.00,1.46
4567.00,1.46
4566.00,1.46
4565.00,1.47
4564.00,1.47
4563.00,1.47
4562.00,1.47
4561.00,1.47
4560.00,1.47
4559.00,1.47
4558.00,1.47
4557.00,1.47
4556.00,1.47
4555.00,1.47
4554.00,1.47
4553.00,1.47
4552.00,1.47
4551.00,1.47
4550.00,1.48
4549.00,1.48
4548.00,1.48
4547.00,1.48
4546.00,1.48
4545.00,1.48
4544.00,1.48
4543.00,1.48
4542.00,1.48
4541.00,1.48
4540.00,1.48
4539.00,1.48
4538.00,1.49
4537.00,1.49
4536.00,1.49
4535.00,1.49
4534.00,1.49
4533.00,1.49
4532.00,1.49
4531.00,1.49
4530.00,1.50
4529.00,1.50
4528.00,1.50
4527.00,1.50
4526.00,1.50
4525.00,1.50
4524.00,1.50
4523.00,1.50
4522.00,1.50
4521.00,1.50
4520.00,1.50
4519.00,1.50
4518.00,1.50
4517.00,1.50
4516.00,1.50
4515.00,1.50
4514.00,1.50
4513.00,1.50
4512.00,1.50
4511.00,1.50
4510.00,1.50
4509.00,1.50
4508.00,1.50
4507.00,1.50
4506.00,1.50
4505.00,1.50
4504.00,1.50
4503.00,1.50
4502.00,1.50
4501.00,1.50
4500.00,1.50
4499.00,1.50
4498.00,1.49
4497.00,1.49
4496.00,1.49
4495.00,1.49
4494.00,1.49
4493.00,1.49
4492.00,1.49
4491.00,1.49
4490.00,1.49
4489.00,1.49
4488.00,1.49
4487.00,1.49
4486.00,1.48
4485.00,1.48
4484.00,1.48
4483.00,1.48
4482.00,1.48
4481.00,1.47
4480.00,1.47
4479.00,1.47
4478.00,1.46
4477.00,1.46
4476.00,1.46
4475.00,1.45
4474.00,1.45
4473.00,1.45
4472.00,1.44
4471.00,1.44
4470.00,1.44
4469.00,1.43
4468.00,1.43
4467.00,1.43
4466.00,1.42
4465.00,1.42
4464.00,1.42
4463.00,1.41
4462.00,1.41
4461.00,1.41
4460.00,1.40
4459.00,1.40
4458.00,1.39
4457.00,1.39
4456.00,1.39
4455.00,1.38
4454.00,1.38
4453.00,1.37
4452.00,1.37
4451.00,1.36
4450.00,1.35
4449.00,1.35
4448.00,1.34
4447.00,1.34
4446.00,1.33
4445.00,1.32
4444.00,1.32
4443.00,1.31
4442.00,1.30
4441.00,1.30
4440.00,1.29
4439.00,1.29
4438.00,1.28
4437.00,1.27
4436.00,1.27
4435.00,1.26
4434.00,1.26
4433.00,1.25
4432.00,1.25
4431.00,1.24
4430.00,1.24
4429.00,1.23
4428.00,1.23
4427.00,1.23
4426.00,1.22
4425.00,1.22
4424.00,1.22
4423.00,1.21
4422.00,1.21
4421.00,1.21
4420.00,1.21
4419.00,1.21
4418.00,1.21
4417.00,1.21
4416.00,1.21
4415.00,1.21
4414.00,1.21
4413.00,1.21
4412.00,1.21
4411.00,1.21
4410.00,1.21
4409.00,1.21
4408.00,1.21
4407.00,1.21
4406.00,1.21
4405.00,1.21
4404.00,1.21
4403.00,1.21
4402.00,1.21
4401.00,1.21
4400.00,1.21
4399.00,1.22
4398.00,1.22
4397.00,1.22
4396.00,1.22
4395.00,1.22
4394.00,1.22
4393.00,1.22
4392.00,1.23
4391.00,1.23
4390.00,1.23
4389.00,1.23
4388.00,1.24
4387.00,1.24
4386.00,1.24
4385.00,1.25
4384.00,1.25
4383.00,1.25
4382.00,1.25
4381.00,1.26
4380.00,1.26
4379.00,1.26
4378.00,1.26
4377.00,1.26
4376.00,1.27
4375.00,1.27
4374.00,1.27
4373.00,1.27
4372.00,1.27
4371.00,1.27
4370.00,1.27
4369.00,1.27
4368.00,1.27
4367.00,1.27
4366.00,1.27
4365.00,1.27
4364.00,1.27
4363.00,1.27
4362.00,1.26
4361.00,1.26
4360.00,1.26
4359.00,1.26
4358.00,1.26
4357.00,1.26
4356.00,1.26
4355.00,1.26
4354.00,1.26
4353.00,1.26
4352.00,1.26
4351.00,1.26
4350.00,1.26
4349.00,1.26
4348.00,1.26
4347.00,1.26
4346.00,1.26
4345.00,1.26
4344.00,1.26
4343.00,1.26
4342.00,1.26
4341.00,1.26
4340.00,1.26
4339.00,1.26
4338.00,1.26
4337.00,1.26
4336.00,1.26
4335.00,1.26
4334.00,1.26
4333.00,1.26
4332.00,1.26
4331.00,1.26
4330.00,1.27
4329.00,1.27
4328.00,1.27
4327.00,1.27
4326.00,1.27
4325.00,1.27
4324.00,1.28
4323.00,1.28
4322.00,1.28
4321.00,1.29
4320.00,1.29
4319.00,1.29
4318.00,1.29
4317.00,1.30
4316.00,1.30
4315.00,1.30
4314.00,1.31
4313.00,1.31
4312.00,1.31
4311.00,1.31
4310.00,1.32
4309.00,1.32
4308.00,1.32
4307.00,1.32
4306.00,1.33
4305.00,1.33
4304.00,1.33
4303.00,1.33
4302.00,1.34
4301.00,1.34
4300.00,1.34
4299.00,1.35
4298.00,1.35
4297.00,1.35
4296.00,1.36
4295.00,1.36
4294.00,1.36
4293.00,1.37
4292.00,1.37
4291.00,1.37
4290.00,1.37
4289.00,1.37
4288.00,1.38
4287.00,1.38
4286.00,1.38
4285.00,1.38
4284.00,1.38
4283.00,1.38
4282.00,1.38
4281.00,1.38
4280.00,1.37
4279.00,1.37
4278.00,1.37
4277.00,1.37
4276.00,1.37
4275.00,1.37
4274.00,1.37
4273.00,1.37
4272.00,1.37
4271.00,1.37
4270.00,1.36
4269.00,1.36
4268.00,1.36
4267.00,1.36
4266.00,1.36
4265.00,1.36
4264.00,1.36
4263.00,1.36
4262.00,1.36
4261.00,1.36
4260.00,1.36
4259.00,1.36
4258.00,1.36
4257.00,1.36
4256.00,1.36
4255.00,1.36
4254.00,1.36
4253.00,1.36
4252.00,1.37
4251.00,1.37
4250.00,1.37
4249.00,1.37
4248.00,1.37
4247.00,1.37
4246.00,1.38
4245.00,1.38
4244.00,1.38
4243.00,1.38
4242.00,1.39
4241.00,1.39
4240.00,1.39
4239.00,1.39
4238.00,1.40
4237.00,1.40
4236.00,1.40
4235.00,1.40
4234.00,1.40
4233.00,1.41
4232.00,1.41
4231.00,1.41
4230.00,1.41
4229.00,1.41
4228.00,1.41
4227.00,1.42
4226.00,1.42
4225.00,1.42
4224.00,1.42
4223.00,1.42
4222.00,1.42
4221.00,1.42
4220.00,1.42
4219.00,1.42
4218.00,1.42
4217.00,1.42
4216.00,1.42
4215.00,1.42
4214.00,1.42
4213.00,1.42
4212.00,1.42
4211.00,1.42
4210.00,1.42
4209.00,1.42
4208.00,1.42
4207.00,1.42
4206.00,1.42
4205.00,1.42
4204.00,1.42
4203.00,1.43
4202.00,1.43
4201.00,1.43
4200.00,1.43
4199.00,1.43
4198.00,1.43
4197.00,1.43
4196.00,1.43
4195.00,1.43
4194.00,1.43
4193.00,1.43
4192.00,1.43
4191.00,1.43
4190.00,1.43
4189.00,1.43
4188.00,1.43
4187.00,1.43
4186.00,1.43
4185.00,1.43
4184.00,1.43
4183.00,1.43
4182.00,1.43
4181.00,1.43
4180.00,1.43
4179.00,1.43
4178.00,1.43
4177.00,1.44
4176.00,1.44
4175.00,1.44
4174.00,1.44
4173.00,1.44
4172.00,1.44
4171.00,1.44
4170.00,1.44
4169.00,1.44
4168.00,1.45
4167.00,1.45
4166.00,1.45
4165.00,1.45
4164.00,1.45
4163.00,1.45
4162.00,1.45
4161.00,1.45
4160.00,1.45
4159.00,1.45
4158.00,1.45
4157.00,1.45
4156.00,1.45
4155.00,1.45
4154.00,1.45
4153.00,1.46
4152.00,1.46
4151.00,1.46
4150.00,1.46
4149.00,1.46
4148.00,1.46
4147.00,1.46
4146.00,1.46
4145.00,1.46
4144.00,1.46
4143.00,1.46
4142.00,1.46
4141.00,1.45
4140.00,1.45
4139.00,1.45
4138.00,1.45
4137.00,1.45
4136.00,1.45
4135.00,1.45
4134.00,1.45
4133.00,1.45
4132.00,1.45
4131.00,1.45
4130.00,1.45
4129.00,1.46
4128.00,1.46
4127.00,1.46
4126.00,1.46
4125.00,1.46
4124.00,1.46
4123.00,1.46
4122.00,1.46
4121.00,1.46
4120.00,1.47
4119.00,1.47
4118.00,1.47
4117.00,1.47
4116.00,1.47
4115.00,1.47
4114.00,1.47
4113.00,1.47
4112.00,1.47
4111.00,1.47
4110.00,1.47
4109.00,1.48
4108.00,1.48
4107.00,1.48
4106.00,1.48
4105.00,1.48
4104.00,1.48
4103.00,1.48
4102.00,1.49
4101.00,1.49
4100.00,1.49
4099.00,1.49
4098.00,1.49
4097.00,1.49
4096.00,1.49
4095.00,1.49
4094.00,1.49
4093.00,1.49
4092.00,1.49
4091.00,1.49
4090.00,1.49
4089.00,1.49
4088.00,1.49
4087.00,1.49
4086.00,1.49
4085.00,1.49
4084.00,1.49
4083.00,1.49
4082.00,1.49
4081.00,1.49
4080.00,1.49
4079.00,1.49
4078.00,1.49
4077.00,1.49
4076.00,1.50
4075.00,1.50
4074.00,1.50
4073.00,1.50
4072.00,1.50
4071.00,1.50
4070.00,1.51
4069.00,1.51
4068.00,1.51
4067.00,1.51
4066.00,1.51
4065.00,1.51
4064.00,1.52
4063.00,1.52
4062.00,1.52
4061.00,1.52
4060.00,1.53
4059.00,1.53
4058.00,1.53
4057.00,1.53
4056.00,1.54
4055.00,1.54
4054.00,1.54
4053.00,1.55
4052.00,1.55
4051.00,1.55
4050.00,1.55
4049.00,1.55
4048.00,1.55
4047.00,1.55
4046.00,1.55
4045.00,1.55
4044.00,1.55
4043.00,1.55
4042.00,1.55
4041.00,1.55
4040.00,1.55
4039.00,1.55
4038.00,1.55
4037.00,1.55
4036.00,1.55
4035.00,1.55
4034.00,1.55
4033.00,1.55
4032.00,1.55
4031.00,1.55
4030.00,1.55
4029.00,1.54
4028.00,1.54
4027.00,1.54
4026.00,1.54
4025.00,1.54
4024.00,1.54
4023.00,1.54
4022.00,1.54
4021.00,1.54
4020.00,1.54
4019.00,1.54
4018.00,1.54
4017.00,1.54
4016.00,1.54
4015.00,1.54
4014.00,1.55
4013.00,1.55
4012.00,1.55
4011.00,1.55
4010.00,1.56
4009.00,1.56
4008.00,1.57
4007.00,1.57
4006.00,1.57
4005.00,1.58
4004.00,1.58
4003.00,1.59
4002.00,1.59
4001.00,1.59
4000.00,1.60
