创建为新数据集,样品 075 用户 Administrator 日期 星期六, 七月 21 2018
cm-1,%T
10000.00,1.47
9999.00,1.47
9998.00,1.47
9997.00,1.47
9996.00,1.47
9995.00,1.47
9994.00,1.46
9993.00,1.46
9992.00,1.46
9991.00,1.46
9990.00,1.46
9989.00,1.46
9988.00,1.46
9987.00,1.46
9986.00,1.46
9985.00,1.46
9984.00,1.46
9983.00,1.46
9982.00,1.46
9981.00,1.46
9980.00,1.45
9979.00,1.45
9978.00,1.45
9977.00,1.45
9976.00,1.44
9975.00,1.44
9974.00,1.44
9973.00,1.44
9972.00,1.43
9971.00,1.43
9970.00,1.43
9969.00,1.43
9968.00,1.44
9967.00,1.44
9966.00,1.44
9965.00,1.44
9964.00,1.45
9963.00,1.45
9962.00,1.45
9961.00,1.46
9960.00,1.46
9959.00,1.46
9958.00,1.46
9957.00,1.46
9956.00,1.46
9955.00,1.47
9954.00,1.46
9953.00,1.46
9952.00,1.46
9951.00,1.46
9950.00,1.46
9949.00,1.46
9948.00,1.46
9947.00,1.46
9946.00,1.46
9945.00,1.46
9944.00,1.46
9943.00,1.46
9942.00,1.46
9941.00,1.46
9940.00,1.46
9939.00,1.46
9938.00,1.47
9937.00,1.47
9936.00,1.47
9935.00,1.47
9934.00,1.47
9933.00,1.46
9932.00,1.46
9931.00,1.46
9930.00,1.46
9929.00,1.46
9928.00,1.45
9927.00,1.45
9926.00,1.45
9925.00,1.44
9924.00,1.44
9923.00,1.44
9922.00,1.44
9921.00,1.43
9920.00,1.43
9919.00,1.43
9918.00,1.43
9917.00,1.44
9916.00,1.44
9915.00,1.44
9914.00,1.44
9913.00,1.45
9912.00,1.45
9911.00,1.45
9910.00,1.46
9909.00,1.46
9908.00,1.46
9907.00,1.46
9906.00,1.46
9905.00,1.46
9904.00,1.46
9903.00,1.46
9902.00,1.46
9901.00,1.46
9900.00,1.45
9899.00,1.45
9898.00,1.45
9897.00,1.44
9896.00,1.44
9895.00,1.43
9894.00,1.43
9893.00,1.42
9892.00,1.42
9891.00,1.41
9890.00,1.41
9889.00,1.41
9888.00,1.41
9887.00,1.40
9886.00,1.40
9885.00,1.40
9884.00,1.40
9883.00,1.40
9882.00,1.40
9881.00,1.40
9880.00,1.40
9879.00,1.40
9878.00,1.40
9877.00,1.41
9876.00,1.41
9875.00,1.41
9874.00,1.41
9873.00,1.41
9872.00,1.42
9871.00,1.42
9870.00,1.42
9869.00,1.42
9868.00,1.42
9867.00,1.42
9866.00,1.42
9865.00,1.42
9864.00,1.43
9863.00,1.43
9862.00,1.43
9861.00,1.43
9860.00,1.43
9859.00,1.43
9858.00,1.43
9857.00,1.43
9856.00,1.43
9855.00,1.43
9854.00,1.43
9853.00,1.42
9852.00,1.42
9851.00,1.42
9850.00,1.42
9849.00,1.42
9848.00,1.42
9847.00,1.42
9846.00,1.42
9845.00,1.42
9844.00,1.42
9843.00,1.42
9842.00,1.41
9841.00,1.41
9840.00,1.41
9839.00,1.41
9838.00,1.41
9837.00,1.42
9836.00,1.42
9835.00,1.42
9834.00,1.42
9833.00,1.42
9832.00,1.42
9831.00,1.42
9830.00,1.42
9829.00,1.42
9828.00,1.43
9827.00,1.43
9826.00,1.43
9825.00,1.43
9824.00,1.43
9823.00,1.44
9822.00,1.44
9821.00,1.44
9820.00,1.44
9819.00,1.45
9818.00,1.45
9817.00,1.45
9816.00,1.45
9815.00,1.46
9814.00,1.46
9813.00,1.46
9812.00,1.46
9811.00,1.46
9810.00,1.46
9809.00,1.46
9808.00,1.46
9807.00,1.46
9806.00,1.46
9805.00,1.46
9804.00,1.46
9803.00,1.46
9802.00,1.46
9801.00,1.46
9800.00,1.45
9799.00,1.45
9798.00,1.45
9797.00,1.45
9796.00,1.45
9795.00,1.44
9794.00,1.44
9793.00,1.44
9792.00,1.44
9791.00,1.44
9790.00,1.44
9789.00,1.43
9788.00,1.43
9787.00,1.43
9786.00,1.43
9785.00,1.43
9784.00,1.43
9783.00,1.44
9782.00,1.44
9781.00,1.44
9780.00,1.44
9779.00,1.44
9778.00,1.45
9777.00,1.45
9776.00,1.45
9775.00,1.45
9774.00,1.46
9773.00,1.46
9772.00,1.46
9771.00,1.46
9770.00,1.47
9769.00,1.47
9768.00,1.47
9767.00,1.47
9766.00,1.47
9765.00,1.47
9764.00,1.47
9763.00,1.46
9762.00,1.46
9761.00,1.46
9760.00,1.46
9759.00,1.46
9758.00,1.46
9757.00,1.46
9756.00,1.46
9755.00,1.46
9754.00,1.45
9753.00,1.45
9752.00,1.45
9751.00,1.45
9750.00,1.45
9749.00,1.45
9748.00,1.45
9747.00,1.45
9746.00,1.45
9745.00,1.45
9744.00,1.45
9743.00,1.45
9742.00,1.45
9741.00,1.45
9740.00,1.45
9739.00,1.45
9738.00,1.45
9737.00,1.45
9736.00,1.45
9735.00,1.46
9734.00,1.46
9733.00,1.46
9732.00,1.46
9731.00,1.46
9730.00,1.46
9729.00,1.47
9728.00,1.47
9727.00,1.46
9726.00,1.46
9725.00,1.46
9724.00,1.46
9723.00,1.46
9722.00,1.45
9721.00,1.45
9720.00,1.45
9719.00,1.44
9718.00,1.44
9717.00,1.44
9716.00,1.43
9715.00,1.43
9714.00,1.42
9713.00,1.42
9712.00,1.42
9711.00,1.42
9710.00,1.42
9709.00,1.41
9708.00,1.41
9707.00,1.41
9706.00,1.41
9705.00,1.41
9704.00,1.42
9703.00,1.42
9702.00,1.42
9701.00,1.42
9700.00,1.43
9699.00,1.43
9698.00,1.43
9697.00,1.43
9696.00,1.44
9695.00,1.44
9694.00,1.45
9693.00,1.45
9692.00,1.45
9691.00,1.45
9690.00,1.46
9689.00,1.46
9688.00,1.46
9687.00,1.46
9686.00,1.46
9685.00,1.46
9684.00,1.46
9683.00,1.46
9682.00,1.46
9681.00,1.46
9680.00,1.46
9679.00,1.46
9678.00,1.46
9677.00,1.46
9676.00,1.45
9675.00,1.45
9674.00,1.45
9673.00,1.45
9672.00,1.45
9671.00,1.45
9670.00,1.45
9669.00,1.45
9668.00,1.45
9667.00,1.45
9666.00,1.45
9665.00,1.45
9664.00,1.45
9663.00,1.45
9662.00,1.45
9661.00,1.45
9660.00,1.45
9659.00,1.45
9658.00,1.45
9657.00,1.45
9656.00,1.45
9655.00,1.45
9654.00,1.45
9653.00,1.45
9652.00,1.45
9651.00,1.45
9650.00,1.45
9649.00,1.45
9648.00,1.45
9647.00,1.45
9646.00,1.44
9645.00,1.44
9644.00,1.44
9643.00,1.44
9642.00,1.43
9641.00,1.43
9640.00,1.43
9639.00,1.42
9638.00,1.42
9637.00,1.42
9636.00,1.42
9635.00,1.41
9634.00,1.41
9633.00,1.41
9632.00,1.41
9631.00,1.41
9630.00,1.41
9629.00,1.41
9628.00,1.42
9627.00,1.42
9626.00,1.42
9625.00,1.42
9624.00,1.43
9623.00,1.43
9622.00,1.43
9621.00,1.44
9620.00,1.44
9619.00,1.44
9618.00,1.44
9617.00,1.45
9616.00,1.45
9615.00,1.45
9614.00,1.45
9613.00,1.45
9612.00,1.45
9611.00,1.45
9610.00,1.45
9609.00,1.45
9608.00,1.45
9607.00,1.44
9606.00,1.44
9605.00,1.44
9604.00,1.44
9603.00,1.44
9602.00,1.44
9601.00,1.44
9600.00,1.43
9599.00,1.43
9598.00,1.43
9597.00,1.42
9596.00,1.42
9595.00,1.42
9594.00,1.42
9593.00,1.41
9592.00,1.41
9591.00,1.41
9590.00,1.40
9589.00,1.40
9588.00,1.40
9587.00,1.40
9586.00,1.40
9585.00,1.39
9584.00,1.39
9583.00,1.39
9582.00,1.39
9581.00,1.39
9580.00,1.40
9579.00,1.40
9578.00,1.40
9577.00,1.40
9576.00,1.40
9575.00,1.40
9574.00,1.40
9573.00,1.40
9572.00,1.41
9571.00,1.41
9570.00,1.41
9569.00,1.41
9568.00,1.41
9567.00,1.41
9566.00,1.41
9565.00,1.41
9564.00,1.41
9563.00,1.42
9562.00,1.42
9561.00,1.42
9560.00,1.42
9559.00,1.42
9558.00,1.42
9557.00,1.42
9556.00,1.42
9555.00,1.42
9554.00,1.42
9553.00,1.42
9552.00,1.42
9551.00,1.42
9550.00,1.42
9549.00,1.42
9548.00,1.42
9547.00,1.43
9546.00,1.43
9545.00,1.43
9544.00,1.43
9543.00,1.43
9542.00,1.43
9541.00,1.43
9540.00,1.43
9539.00,1.43
9538.00,1.43
9537.00,1.43
9536.00,1.43
9535.00,1.43
9534.00,1.43
9533.00,1.43
9532.00,1.43
9531.00,1.43
9530.00,1.43
9529.00,1.43
9528.00,1.43
9527.00,1.43
9526.00,1.43
9525.00,1.43
9524.00,1.43
9523.00,1.43
9522.00,1.43
9521.00,1.43
9520.00,1.43
9519.00,1.44
9518.00,1.44
9517.00,1.44
9516.00,1.44
9515.00,1.44
9514.00,1.45
9513.00,1.45
9512.00,1.45
9511.00,1.45
9510.00,1.45
9509.00,1.45
9508.00,1.45
9507.00,1.45
9506.00,1.45
9505.00,1.45
9504.00,1.44
9503.00,1.44
9502.00,1.44
9501.00,1.44
9500.00,1.44
9499.00,1.43
9498.00,1.43
9497.00,1.43
9496.00,1.43
9495.00,1.43
9494.00,1.42
9493.00,1.42
9492.00,1.42
9491.00,1.42
9490.00,1.42
9489.00,1.42
9488.00,1.42
9487.00,1.42
9486.00,1.42
9485.00,1.42
9484.00,1.42
9483.00,1.42
9482.00,1.42
9481.00,1.43
9480.00,1.43
9479.00,1.43
9478.00,1.43
9477.00,1.43
9476.00,1.43
9475.00,1.43
9474.00,1.43
9473.00,1.43
9472.00,1.43
9471.00,1.43
9470.00,1.43
9469.00,1.43
9468.00,1.43
9467.00,1.43
9466.00,1.43
9465.00,1.43
9464.00,1.43
9463.00,1.43
9462.00,1.43
9461.00,1.43
9460.00,1.43
9459.00,1.43
9458.00,1.43
9457.00,1.44
9456.00,1.44
9455.00,1.44
9454.00,1.44
9453.00,1.44
9452.00,1.44
9451.00,1.44
9450.00,1.44
9449.00,1.44
9448.00,1.44
9447.00,1.45
9446.00,1.45
9445.00,1.45
9444.00,1.45
9443.00,1.45
9442.00,1.45
9441.00,1.45
9440.00,1.45
9439.00,1.45
9438.00,1.45
9437.00,1.45
9436.00,1.45
9435.00,1.45
9434.00,1.45
9433.00,1.45
9432.00,1.45
9431.00,1.45
9430.00,1.45
9429.00,1.45
9428.00,1.45
9427.00,1.45
9426.00,1.45
9425.00,1.45
9424.00,1.45
9423.00,1.45
9422.00,1.45
9421.00,1.45
9420.00,1.46
9419.00,1.46
9418.00,1.46
9417.00,1.46
9416.00,1.46
9415.00,1.46
9414.00,1.46
9413.00,1.47
9412.00,1.47
9411.00,1.47
9410.00,1.47
9409.00,1.47
9408.00,1.47
9407.00,1.47
9406.00,1.46
9405.00,1.46
9404.00,1.46
9403.00,1.46
9402.00,1.46
9401.00,1.45
9400.00,1.45
9399.00,1.45
9398.00,1.44
9397.00,1.44
9396.00,1.43
9395.00,1.43
9394.00,1.43
9393.00,1.43
9392.00,1.42
9391.00,1.42
9390.00,1.42
9389.00,1.42
9388.00,1.42
9387.00,1.42
9386.00,1.42
9385.00,1.42
9384.00,1.42
9383.00,1.42
9382.00,1.43
9381.00,1.43
9380.00,1.43
9379.00,1.43
9378.00,1.43
9377.00,1.43
9376.00,1.43
9375.00,1.43
9374.00,1.43
9373.00,1.43
9372.00,1.43
9371.00,1.43
9370.00,1.42
9369.00,1.42
9368.00,1.42
9367.00,1.42
9366.00,1.41
9365.00,1.41
9364.00,1.41
9363.00,1.41
9362.00,1.41
9361.00,1.41
9360.00,1.40
9359.00,1.40
9358.00,1.40
9357.00,1.40
9356.00,1.40
9355.00,1.40
9354.00,1.40
9353.00,1.40
9352.00,1.41
9351.00,1.41
9350.00,1.41
9349.00,1.41
9348.00,1.41
9347.00,1.41
9346.00,1.41
9345.00,1.41
9344.00,1.41
9343.00,1.42
9342.00,1.42
9341.00,1.42
9340.00,1.42
9339.00,1.42
9338.00,1.42
9337.00,1.43
9336.00,1.43
9335.00,1.43
9334.00,1.43
9333.00,1.43
9332.00,1.43
9331.00,1.44
9330.00,1.44
9329.00,1.44
9328.00,1.44
9327.00,1.44
9326.00,1.44
9325.00,1.43
9324.00,1.43
9323.00,1.43
9322.00,1.43
9321.00,1.43
9320.00,1.43
9319.00,1.43
9318.00,1.43
9317.00,1.42
9316.00,1.42
9315.00,1.42
9314.00,1.42
9313.00,1.42
9312.00,1.42
9311.00,1.42
9310.00,1.42
9309.00,1.42
9308.00,1.42
9307.00,1.42
9306.00,1.42
9305.00,1.42
9304.00,1.42
9303.00,1.42
9302.00,1.42
9301.00,1.42
9300.00,1.41
9299.00,1.41
9298.00,1.41
9297.00,1.41
9296.00,1.41
9295.00,1.41
9294.00,1.41
9293.00,1.41
9292.00,1.41
9291.00,1.41
9290.00,1.41
9289.00,1.41
9288.00,1.41
9287.00,1.41
9286.00,1.41
9285.00,1.41
9284.00,1.41
9283.00,1.41
9282.00,1.41
9281.00,1.41
9280.00,1.41
9279.00,1.41
9278.00,1.41
9277.00,1.41
9276.00,1.41
9275.00,1.41
9274.00,1.41
9273.00,1.41
9272.00,1.41
9271.00,1.41
9270.00,1.41
9269.00,1.41
9268.00,1.41
9267.00,1.41
9266.00,1.41
9265.00,1.41
9264.00,1.41
9263.00,1.42
9262.00,1.42
9261.00,1.42
9260.00,1.42
9259.00,1.42
9258.00,1.42
9257.00,1.42
9256.00,1.42
9255.00,1.42
9254.00,1.42
9253.00,1.42
9252.00,1.42
9251.00,1.42
9250.00,1.42
9249.00,1.42
9248.00,1.42
9247.00,1.42
9246.00,1.42
9245.00,1.42
9244.00,1.42
9243.00,1.42
9242.00,1.42
9241.00,1.43
9240.00,1.43
9239.00,1.43
9238.00,1.43
9237.00,1.43
9236.00,1.43
9235.00,1.43
9234.00,1.43
9233.00,1.43
9232.00,1.43
9231.00,1.43
9230.00,1.43
9229.00,1.43
9228.00,1.43
9227.00,1.43
9226.00,1.43
9225.00,1.43
9224.00,1.43
9223.00,1.43
9222.00,1.43
9221.00,1.43
9220.00,1.43
9219.00,1.43
9218.00,1.43
9217.00,1.42
9216.00,1.42
9215.00,1.42
9214.00,1.42
9213.00,1.42
9212.00,1.42
9211.00,1.41
9210.00,1.41
9209.00,1.41
9208.00,1.41
9207.00,1.41
9206.00,1.41
9205.00,1.41
9204.00,1.41
9203.00,1.41
9202.00,1.41
9201.00,1.41
9200.00,1.41
9199.00,1.41
9198.00,1.42
9197.00,1.42
9196.00,1.42
9195.00,1.42
9194.00,1.42
9193.00,1.41
9192.00,1.41
9191.00,1.41
9190.00,1.41
9189.00,1.41
9188.00,1.41
9187.00,1.41
9186.00,1.41
9185.00,1.41
9184.00,1.41
9183.00,1.41
9182.00,1.41
9181.00,1.41
9180.00,1.41
9179.00,1.41
9178.00,1.41
9177.00,1.41
9176.00,1.41
9175.00,1.41
9174.00,1.41
9173.00,1.41
9172.00,1.41
9171.00,1.41
9170.00,1.42
9169.00,1.42
9168.00,1.42
9167.00,1.42
9166.00,1.42
9165.00,1.42
9164.00,1.42
9163.00,1.42
9162.00,1.42
9161.00,1.42
9160.00,1.42
9159.00,1.42
9158.00,1.42
9157.00,1.42
9156.00,1.42
9155.00,1.43
9154.00,1.43
9153.00,1.43
9152.00,1.43
9151.00,1.43
9150.00,1.43
9149.00,1.43
9148.00,1.43
9147.00,1.43
9146.00,1.43
9145.00,1.43
9144.00,1.43
9143.00,1.43
9142.00,1.43
9141.00,1.43
9140.00,1.42
9139.00,1.42
9138.00,1.42
9137.00,1.42
9136.00,1.42
9135.00,1.42
9134.00,1.42
9133.00,1.42
9132.00,1.42
9131.00,1.42
9130.00,1.42
9129.00,1.42
9128.00,1.42
9127.00,1.42
9126.00,1.42
9125.00,1.42
9124.00,1.42
9123.00,1.42
9122.00,1.43
9121.00,1.43
9120.00,1.43
9119.00,1.43
9118.00,1.43
9117.00,1.43
9116.00,1.43
9115.00,1.43
9114.00,1.43
9113.00,1.44
9112.00,1.44
9111.00,1.44
9110.00,1.44
9109.00,1.44
9108.00,1.44
9107.00,1.44
9106.00,1.44
9105.00,1.44
9104.00,1.44
9103.00,1.44
9102.00,1.44
9101.00,1.44
9100.00,1.44
9099.00,1.44
9098.00,1.44
9097.00,1.44
9096.00,1.44
9095.00,1.45
9094.00,1.45
9093.00,1.45
9092.00,1.45
9091.00,1.45
9090.00,1.45
9089.00,1.45
9088.00,1.45
9087.00,1.45
9086.00,1.45
9085.00,1.45
9084.00,1.45
9083.00,1.46
9082.00,1.46
9081.00,1.46
9080.00,1.46
9079.00,1.46
9078.00,1.46
9077.00,1.46
9076.00,1.46
9075.00,1.46
9074.00,1.46
9073.00,1.46
9072.00,1.46
9071.00,1.46
9070.00,1.46
9069.00,1.46
9068.00,1.46
9067.00,1.45
9066.00,1.45
9065.00,1.45
9064.00,1.45
9063.00,1.45
9062.00,1.45
9061.00,1.44
9060.00,1.44
9059.00,1.44
9058.00,1.44
9057.00,1.44
9056.00,1.44
9055.00,1.44
9054.00,1.44
9053.00,1.44
9052.00,1.44
9051.00,1.44
9050.00,1.44
9049.00,1.44
9048.00,1.44
9047.00,1.44
9046.00,1.44
9045.00,1.44
9044.00,1.45
9043.00,1.45
9042.00,1.45
9041.00,1.45
9040.00,1.45
9039.00,1.45
9038.00,1.45
9037.00,1.45
9036.00,1.45
9035.00,1.45
9034.00,1.45
9033.00,1.45
9032.00,1.45
9031.00,1.45
9030.00,1.45
9029.00,1.45
9028.00,1.45
9027.00,1.45
9026.00,1.45
9025.00,1.45
9024.00,1.45
9023.00,1.45
9022.00,1.45
9021.00,1.45
9020.00,1.45
9019.00,1.45
9018.00,1.45
9017.00,1.45
9016.00,1.45
9015.00,1.45
9014.00,1.45
9013.00,1.45
9012.00,1.45
9011.00,1.45
9010.00,1.45
9009.00,1.45
9008.00,1.45
9007.00,1.45
9006.00,1.45
9005.00,1.45
9004.00,1.45
9003.00,1.45
9002.00,1.45
9001.00,1.45
9000.00,1.45
8999.00,1.45
8998.00,1.45
8997.00,1.45
8996.00,1.45
8995.00,1.45
8994.00,1.45
8993.00,1.45
8992.00,1.45
8991.00,1.45
8990.00,1.45
8989.00,1.45
8988.00,1.45
8987.00,1.45
8986.00,1.45
8985.00,1.45
8984.00,1.45
8983.00,1.45
8982.00,1.45
8981.00,1.45
8980.00,1.45
8979.00,1.45
8978.00,1.45
8977.00,1.45
8976.00,1.45
8975.00,1.45
8974.00,1.45
8973.00,1.45
8972.00,1.44
8971.00,1.44
8970.00,1.44
8969.00,1.44
8968.00,1.44
8967.00,1.45
8966.00,1.45
8965.00,1.45
8964.00,1.45
8963.00,1.45
8962.00,1.45
8961.00,1.45
8960.00,1.45
8959.00,1.45
8958.00,1.46
8957.00,1.46
8956.00,1.46
8955.00,1.46
8954.00,1.46
8953.00,1.46
8952.00,1.46
8951.00,1.46
8950.00,1.47
8949.00,1.47
8948.00,1.47
8947.00,1.47
8946.00,1.47
8945.00,1.47
8944.00,1.47
8943.00,1.47
8942.00,1.47
8941.00,1.47
8940.00,1.47
8939.00,1.47
8938.00,1.47
8937.00,1.47
8936.00,1.47
8935.00,1.47
8934.00,1.47
8933.00,1.47
8932.00,1.47
8931.00,1.47
8930.00,1.47
8929.00,1.47
8928.00,1.47
8927.00,1.47
8926.00,1.47
8925.00,1.47
8924.00,1.47
8923.00,1.47
8922.00,1.47
8921.00,1.47
8920.00,1.46
8919.00,1.46
8918.00,1.46
8917.00,1.46
8916.00,1.46
8915.00,1.46
8914.00,1.46
8913.00,1.46
8912.00,1.46
8911.00,1.46
8910.00,1.46
8909.00,1.46
8908.00,1.46
8907.00,1.46
8906.00,1.46
8905.00,1.46
8904.00,1.46
8903.00,1.46
8902.00,1.46
8901.00,1.46
8900.00,1.46
8899.00,1.46
8898.00,1.46
8897.00,1.46
8896.00,1.45
8895.00,1.45
8894.00,1.45
8893.00,1.45
8892.00,1.45
8891.00,1.45
8890.00,1.45
8889.00,1.45
8888.00,1.45
8887.00,1.45
8886.00,1.45
8885.00,1.46
8884.00,1.46
8883.00,1.46
8882.00,1.46
8881.00,1.46
8880.00,1.46
8879.00,1.46
8878.00,1.46
8877.00,1.46
8876.00,1.46
8875.00,1.46
8874.00,1.45
8873.00,1.45
8872.00,1.45
8871.00,1.45
8870.00,1.45
8869.00,1.45
8868.00,1.44
8867.00,1.44
8866.00,1.44
8865.00,1.44
8864.00,1.44
8863.00,1.43
8862.00,1.43
8861.00,1.43
8860.00,1.43
8859.00,1.43
8858.00,1.43
8857.00,1.43
8856.00,1.43
8855.00,1.43
8854.00,1.43
8853.00,1.43
8852.00,1.43
8851.00,1.43
8850.00,1.43
8849.00,1.43
8848.00,1.43
8847.00,1.43
8846.00,1.43
8845.00,1.43
8844.00,1.43
8843.00,1.43
8842.00,1.43
8841.00,1.43
8840.00,1.43
8839.00,1.43
8838.00,1.43
8837.00,1.43
8836.00,1.43
8835.00,1.43
8834.00,1.43
8833.00,1.43
8832.00,1.43
8831.00,1.43
8830.00,1.43
8829.00,1.43
8828.00,1.43
8827.00,1.43
8826.00,1.43
8825.00,1.43
8824.00,1.43
8823.00,1.43
8822.00,1.43
8821.00,1.43
8820.00,1.43
8819.00,1.43
8818.00,1.43
8817.00,1.43
8816.00,1.43
8815.00,1.43
8814.00,1.43
8813.00,1.42
8812.00,1.42
8811.00,1.42
8810.00,1.42
8809.00,1.42
8808.00,1.42
8807.00,1.42
8806.00,1.41
8805.00,1.41
8804.00,1.41
8803.00,1.41
8802.00,1.41
8801.00,1.41
8800.00,1.41
8799.00,1.41
8798.00,1.41
8797.00,1.41
8796.00,1.41
8795.00,1.41
8794.00,1.41
8793.00,1.42
8792.00,1.42
8791.00,1.42
8790.00,1.42
8789.00,1.42
8788.00,1.42
8787.00,1.42
8786.00,1.42
8785.00,1.42
8784.00,1.42
8783.00,1.42
8782.00,1.42
8781.00,1.42
8780.00,1.42
8779.00,1.42
8778.00,1.42
8777.00,1.42
8776.00,1.42
8775.00,1.42
8774.00,1.42
8773.00,1.42
8772.00,1.42
8771.00,1.42
8770.00,1.42
8769.00,1.41
8768.00,1.41
8767.00,1.41
8766.00,1.41
8765.00,1.41
8764.00,1.41
8763.00,1.41
8762.00,1.41
8761.00,1.41
8760.00,1.41
8759.00,1.40
8758.00,1.40
8757.00,1.40
8756.00,1.40
8755.00,1.40
8754.00,1.40
8753.00,1.40
8752.00,1.39
8751.00,1.39
8750.00,1.39
8749.00,1.39
8748.00,1.39
8747.00,1.39
8746.00,1.39
8745.00,1.39
8744.00,1.39
8743.00,1.39
8742.00,1.39
8741.00,1.39
8740.00,1.39
8739.00,1.39
8738.00,1.39
8737.00,1.39
8736.00,1.39
8735.00,1.39
8734.00,1.39
8733.00,1.39
8732.00,1.40
8731.00,1.40
8730.00,1.40
8729.00,1.40
8728.00,1.40
8727.00,1.40
8726.00,1.40
8725.00,1.40
8724.00,1.40
8723.00,1.40
8722.00,1.40
8721.00,1.40
8720.00,1.39
8719.00,1.39
8718.00,1.39
8717.00,1.39
8716.00,1.39
8715.00,1.39
8714.00,1.39
8713.00,1.39
8712.00,1.39
8711.00,1.39
8710.00,1.39
8709.00,1.39
8708.00,1.39
8707.00,1.39
8706.00,1.39
8705.00,1.39
8704.00,1.39
8703.00,1.39
8702.00,1.39
8701.00,1.39
8700.00,1.39
8699.00,1.39
8698.00,1.39
8697.00,1.39
8696.00,1.39
8695.00,1.39
8694.00,1.39
8693.00,1.39
8692.00,1.39
8691.00,1.39
8690.00,1.39
8689.00,1.39
8688.00,1.39
8687.00,1.39
8686.00,1.39
8685.00,1.39
8684.00,1.39
8683.00,1.39
8682.00,1.39
8681.00,1.39
8680.00,1.39
8679.00,1.38
8678.00,1.38
8677.00,1.38
8676.00,1.38
8675.00,1.38
8674.00,1.38
8673.00,1.38
8672.00,1.38
8671.00,1.38
8670.00,1.38
8669.00,1.38
8668.00,1.38
8667.00,1.38
8666.00,1.38
8665.00,1.38
8664.00,1.38
8663.00,1.38
8662.00,1.38
8661.00,1.38
8660.00,1.38
8659.00,1.38
8658.00,1.37
8657.00,1.37
8656.00,1.37
8655.00,1.37
8654.00,1.37
8653.00,1.37
8652.00,1.36
8651.00,1.36
8650.00,1.36
8649.00,1.36
8648.00,1.36
8647.00,1.36
8646.00,1.36
8645.00,1.36
8644.00,1.36
8643.00,1.36
8642.00,1.36
8641.00,1.36
8640.00,1.36
8639.00,1.36
8638.00,1.36
8637.00,1.37
8636.00,1.37
8635.00,1.37
8634.00,1.37
8633.00,1.37
8632.00,1.37
8631.00,1.37
8630.00,1.37
8629.00,1.37
8628.00,1.37
8627.00,1.37
8626.00,1.37
8625.00,1.37
8624.00,1.36
8623.00,1.36
8622.00,1.36
8621.00,1.36
8620.00,1.36
8619.00,1.36
8618.00,1.36
8617.00,1.36
8616.00,1.36
8615.00,1.36
8614.00,1.36
8613.00,1.36
8612.00,1.36
8611.00,1.36
8610.00,1.36
8609.00,1.36
8608.00,1.36
8607.00,1.36
8606.00,1.36
8605.00,1.36
8604.00,1.36
8603.00,1.36
8602.00,1.36
8601.00,1.36
8600.00,1.36
8599.00,1.36
8598.00,1.36
8597.00,1.36
8596.00,1.36
8595.00,1.36
8594.00,1.36
8593.00,1.36
8592.00,1.36
8591.00,1.36
8590.00,1.36
8589.00,1.36
8588.00,1.36
8587.00,1.36
8586.00,1.36
8585.00,1.36
8584.00,1.36
8583.00,1.36
8582.00,1.36
8581.00,1.36
8580.00,1.36
8579.00,1.36
8578.00,1.36
8577.00,1.36
8576.00,1.36
8575.00,1.36
8574.00,1.36
8573.00,1.36
8572.00,1.36
8571.00,1.35
8570.00,1.35
8569.00,1.35
8568.00,1.35
8567.00,1.35
8566.00,1.35
8565.00,1.35
8564.00,1.35
8563.00,1.35
8562.00,1.35
8561.00,1.35
8560.00,1.34
8559.00,1.34
8558.00,1.34
8557.00,1.34
8556.00,1.34
8555.00,1.34
8554.00,1.34
8553.00,1.34
8552.00,1.34
8551.00,1.34
8550.00,1.34
8549.00,1.34
8548.00,1.34
8547.00,1.34
8546.00,1.34
8545.00,1.34
8544.00,1.34
8543.00,1.34
8542.00,1.34
8541.00,1.34
8540.00,1.34
8539.00,1.34
8538.00,1.34
8537.00,1.34
8536.00,1.34
8535.00,1.34
8534.00,1.34
8533.00,1.34
8532.00,1.34
8531.00,1.34
8530.00,1.34
8529.00,1.34
8528.00,1.34
8527.00,1.34
8526.00,1.33
8525.00,1.33
8524.00,1.33
8523.00,1.33
8522.00,1.33
8521.00,1.33
8520.00,1.33
8519.00,1.33
8518.00,1.33
8517.00,1.32
8516.00,1.32
8515.00,1.32
8514.00,1.32
8513.00,1.32
8512.00,1.32
8511.00,1.32
8510.00,1.32
8509.00,1.31
8508.00,1.31
8507.00,1.31
8506.00,1.31
8505.00,1.31
8504.00,1.30
8503.00,1.30
8502.00,1.30
8501.00,1.30
8500.00,1.30
8499.00,1.30
8498.00,1.30
8497.00,1.30
8496.00,1.30
8495.00,1.29
8494.00,1.29
8493.00,1.29
8492.00,1.29
8491.00,1.29
8490.00,1.29
8489.00,1.29
8488.00,1.29
8487.00,1.29
8486.00,1.29
8485.00,1.29
8484.00,1.29
8483.00,1.29
8482.00,1.29
8481.00,1.29
8480.00,1.30
8479.00,1.30
8478.00,1.30
8477.00,1.30
8476.00,1.30
8475.00,1.30
8474.00,1.30
8473.00,1.31
8472.00,1.31
8471.00,1.31
8470.00,1.31
8469.00,1.31
8468.00,1.31
8467.00,1.30
8466.00,1.30
8465.00,1.30
8464.00,1.30
8463.00,1.30
8462.00,1.29
8461.00,1.29
8460.00,1.29
8459.00,1.29
8458.00,1.29
8457.00,1.28
8456.00,1.28
8455.00,1.28
8454.00,1.28
8453.00,1.28
8452.00,1.28
8451.00,1.28
8450.00,1.28
8449.00,1.27
8448.00,1.27
8447.00,1.27
8446.00,1.27
8445.00,1.27
8444.00,1.27
8443.00,1.27
8442.00,1.27
8441.00,1.27
8440.00,1.27
8439.00,1.27
8438.00,1.27
8437.00,1.27
8436.00,1.27
8435.00,1.27
8434.00,1.27
8433.00,1.27
8432.00,1.27
8431.00,1.27
8430.00,1.27
8429.00,1.27
8428.00,1.27
8427.00,1.27
8426.00,1.27
8425.00,1.27
8424.00,1.27
8423.00,1.27
8422.00,1.27
8421.00,1.27
8420.00,1.28
8419.00,1.28
8418.00,1.28
8417.00,1.28
8416.00,1.28
8415.00,1.28
8414.00,1.28
8413.00,1.28
8412.00,1.28
8411.00,1.28
8410.00,1.28
8409.00,1.28
8408.00,1.28
8407.00,1.28
8406.00,1.28
8405.00,1.28
8404.00,1.28
8403.00,1.28
8402.00,1.28
8401.00,1.29
8400.00,1.29
8399.00,1.29
8398.00,1.29
8397.00,1.29
8396.00,1.29
8395.00,1.29
8394.00,1.30
8393.00,1.30
8392.00,1.30
8391.00,1.30
8390.00,1.30
8389.00,1.30
8388.00,1.31
8387.00,1.31
8386.00,1.31
8385.00,1.31
8384.00,1.31
8383.00,1.31
8382.00,1.31
8381.00,1.31
8380.00,1.31
8379.00,1.31
8378.00,1.31
8377.00,1.31
8376.00,1.31
8375.00,1.31
8374.00,1.32
8373.00,1.32
8372.00,1.32
8371.00,1.32
8370.00,1.32
8369.00,1.32
8368.00,1.32
8367.00,1.32
8366.00,1.33
8365.00,1.33
8364.00,1.33
8363.00,1.33
8362.00,1.33
8361.00,1.33
8360.00,1.33
8359.00,1.33
8358.00,1.33
8357.00,1.33
8356.00,1.33
8355.00,1.33
8354.00,1.33
8353.00,1.33
8352.00,1.33
8351.00,1.34
8350.00,1.34
8349.00,1.33
8348.00,1.33
8347.00,1.33
8346.00,1.33
8345.00,1.33
8344.00,1.33
8343.00,1.33
8342.00,1.33
8341.00,1.33
8340.00,1.33
8339.00,1.33
8338.00,1.33
8337.00,1.33
8336.00,1.33
8335.00,1.33
8334.00,1.32
8333.00,1.32
8332.00,1.32
8331.00,1.32
8330.00,1.32
8329.00,1.33
8328.00,1.33
8327.00,1.33
8326.00,1.33
8325.00,1.33
8324.00,1.33
8323.00,1.33
8322.00,1.33
8321.00,1.33
8320.00,1.33
8319.00,1.33
8318.00,1.33
8317.00,1.33
8316.00,1.33
8315.00,1.34
8314.00,1.34
8313.00,1.34
8312.00,1.34
8311.00,1.34
8310.00,1.34
8309.00,1.34
8308.00,1.33
8307.00,1.33
8306.00,1.33
8305.00,1.33
8304.00,1.33
8303.00,1.33
8302.00,1.33
8301.00,1.33
8300.00,1.33
8299.00,1.33
8298.00,1.33
8297.00,1.33
8296.00,1.33
8295.00,1.33
8294.00,1.33
8293.00,1.33
8292.00,1.33
8291.00,1.33
8290.00,1.33
8289.00,1.33
8288.00,1.33
8287.00,1.33
8286.00,1.33
8285.00,1.33
8284.00,1.33
8283.00,1.34
8282.00,1.34
8281.00,1.34
8280.00,1.34
8279.00,1.34
8278.00,1.34
8277.00,1.34
8276.00,1.34
8275.00,1.34
8274.00,1.34
8273.00,1.34
8272.00,1.34
8271.00,1.34
8270.00,1.35
8269.00,1.35
8268.00,1.35
8267.00,1.35
8266.00,1.35
8265.00,1.35
8264.00,1.35
8263.00,1.36
8262.00,1.36
8261.00,1.36
8260.00,1.36
8259.00,1.36
8258.00,1.36
8257.00,1.36
8256.00,1.36
8255.00,1.36
8254.00,1.36
8253.00,1.36
8252.00,1.36
8251.00,1.36
8250.00,1.36
8249.00,1.36
8248.00,1.36
8247.00,1.36
8246.00,1.36
8245.00,1.36
8244.00,1.36
8243.00,1.36
8242.00,1.36
8241.00,1.36
8240.00,1.36
8239.00,1.36
8238.00,1.36
8237.00,1.36
8236.00,1.36
8235.00,1.36
8234.00,1.36
8233.00,1.36
8232.00,1.36
8231.00,1.36
8230.00,1.36
8229.00,1.36
8228.00,1.36
8227.00,1.37
8226.00,1.37
8225.00,1.37
8224.00,1.37
8223.00,1.37
8222.00,1.37
8221.00,1.37
8220.00,1.37
8219.00,1.37
8218.00,1.37
8217.00,1.37
8216.00,1.37
8215.00,1.37
8214.00,1.37
8213.00,1.37
8212.00,1.37
8211.00,1.37
8210.00,1.37
8209.00,1.37
8208.00,1.37
8207.00,1.37
8206.00,1.37
8205.00,1.37
8204.00,1.36
8203.00,1.36
8202.00,1.36
8201.00,1.36
8200.00,1.36
8199.00,1.36
8198.00,1.36
8197.00,1.36
8196.00,1.36
8195.00,1.36
8194.00,1.36
8193.00,1.36
8192.00,1.36
8191.00,1.36
8190.00,1.36
8189.00,1.36
8188.00,1.36
8187.00,1.36
8186.00,1.37
8185.00,1.37
8184.00,1.37
8183.00,1.37
8182.00,1.37
8181.00,1.37
8180.00,1.38
8179.00,1.38
8178.00,1.38
8177.00,1.38
8176.00,1.38
8175.00,1.39
8174.00,1.39
8173.00,1.39
8172.00,1.39
8171.00,1.39
8170.00,1.39
8169.00,1.39
8168.00,1.39
8167.00,1.40
8166.00,1.40
8165.00,1.40
8164.00,1.40
8163.00,1.40
8162.00,1.40
8161.00,1.40
8160.00,1.40
8159.00,1.39
8158.00,1.39
8157.00,1.39
8156.00,1.39
8155.00,1.39
8154.00,1.39
8153.00,1.39
8152.00,1.39
8151.00,1.39
8150.00,1.39
8149.00,1.39
8148.00,1.39
8147.00,1.39
8146.00,1.39
8145.00,1.39
8144.00,1.39
8143.00,1.39
8142.00,1.39
8141.00,1.39
8140.00,1.39
8139.00,1.39
8138.00,1.39
8137.00,1.39
8136.00,1.39
8135.00,1.39
8134.00,1.39
8133.00,1.39
8132.00,1.39
8131.00,1.39
8130.00,1.39
8129.00,1.39
8128.00,1.39
8127.00,1.39
8126.00,1.39
8125.00,1.39
8124.00,1.39
8123.00,1.39
8122.00,1.39
8121.00,1.39
8120.00,1.39
8119.00,1.39
8118.00,1.39
8117.00,1.39
8116.00,1.40
8115.00,1.40
8114.00,1.40
8113.00,1.40
8112.00,1.40
8111.00,1.40
8110.00,1.40
8109.00,1.40
8108.00,1.40
8107.00,1.40
8106.00,1.41
8105.00,1.41
8104.00,1.41
8103.00,1.41
8102.00,1.41
8101.00,1.41
8100.00,1.41
8099.00,1.41
8098.00,1.41
8097.00,1.41
8096.00,1.41
8095.00,1.41
8094.00,1.41
8093.00,1.41
8092.00,1.41
8091.00,1.41
8090.00,1.41
8089.00,1.41
8088.00,1.41
8087.00,1.41
8086.00,1.41
8085.00,1.41
8084.00,1.41
8083.00,1.41
8082.00,1.41
8081.00,1.41
8080.00,1.41
8079.00,1.41
8078.00,1.41
8077.00,1.41
8076.00,1.41
8075.00,1.41
8074.00,1.41
8073.00,1.41
8072.00,1.40
8071.00,1.40
8070.00,1.40
8069.00,1.40
8068.00,1.40
8067.00,1.40
8066.00,1.40
8065.00,1.40
8064.00,1.40
8063.00,1.40
8062.00,1.41
8061.00,1.41
8060.00,1.41
8059.00,1.41
8058.00,1.41
8057.00,1.41
8056.00,1.41
8055.00,1.41
8054.00,1.41
8053.00,1.41
8052.00,1.41
8051.00,1.41
8050.00,1.41
8049.00,1.42
8048.00,1.42
8047.00,1.42
8046.00,1.42
8045.00,1.42
8044.00,1.42
8043.00,1.42
8042.00,1.42
8041.00,1.42
8040.00,1.42
8039.00,1.42
8038.00,1.42
8037.00,1.42
8036.00,1.42
8035.00,1.42
8034.00,1.42
8033.00,1.42
8032.00,1.42
8031.00,1.42
8030.00,1.42
8029.00,1.42
8028.00,1.42
8027.00,1.42
8026.00,1.42
8025.00,1.42
8024.00,1.42
8023.00,1.42
8022.00,1.42
8021.00,1.42
8020.00,1.42
8019.00,1.43
8018.00,1.43
8017.00,1.43
8016.00,1.43
8015.00,1.43
8014.00,1.43
8013.00,1.43
8012.00,1.43
8011.00,1.43
8010.00,1.43
8009.00,1.43
8008.00,1.43
8007.00,1.43
8006.00,1.43
8005.00,1.42
8004.00,1.42
8003.00,1.42
8002.00,1.42
8001.00,1.42
8000.00,1.42
7999.00,1.42
7998.00,1.42
7997.00,1.42
7996.00,1.42
7995.00,1.42
7994.00,1.42
7993.00,1.42
7992.00,1.42
7991.00,1.42
7990.00,1.42
7989.00,1.42
7988.00,1.42
7987.00,1.42
7986.00,1.42
7985.00,1.42
7984.00,1.42
7983.00,1.42
7982.00,1.42
7981.00,1.42
7980.00,1.42
7979.00,1.42
7978.00,1.42
7977.00,1.42
7976.00,1.42
7975.00,1.42
7974.00,1.42
7973.00,1.42
7972.00,1.42
7971.00,1.42
7970.00,1.43
7969.00,1.43
7968.00,1.43
7967.00,1.43
7966.00,1.43
7965.00,1.43
7964.00,1.43
7963.00,1.43
7962.00,1.43
7961.00,1.43
7960.00,1.43
7959.00,1.43
7958.00,1.43
7957.00,1.43
7956.00,1.43
7955.00,1.43
7954.00,1.43
7953.00,1.43
7952.00,1.43
7951.00,1.43
7950.00,1.43
7949.00,1.43
7948.00,1.42
7947.00,1.42
7946.00,1.42
7945.00,1.42
7944.00,1.42
7943.00,1.42
7942.00,1.42
7941.00,1.42
7940.00,1.43
7939.00,1.43
7938.00,1.43
7937.00,1.43
7936.00,1.43
7935.00,1.43
7934.00,1.43
7933.00,1.43
7932.00,1.43
7931.00,1.43
7930.00,1.43
7929.00,1.43
7928.00,1.43
7927.00,1.43
7926.00,1.43
7925.00,1.43
7924.00,1.43
7923.00,1.43
7922.00,1.43
7921.00,1.43
7920.00,1.43
7919.00,1.43
7918.00,1.43
7917.00,1.42
7916.00,1.42
7915.00,1.42
7914.00,1.42
7913.00,1.42
7912.00,1.42
7911.00,1.42
7910.00,1.42
7909.00,1.42
7908.00,1.42
7907.00,1.43
7906.00,1.43
7905.00,1.43
7904.00,1.43
7903.00,1.43
7902.00,1.43
7901.00,1.43
7900.00,1.43
7899.00,1.43
7898.00,1.44
7897.00,1.44
7896.00,1.44
7895.00,1.44
7894.00,1.44
7893.00,1.44
7892.00,1.44
7891.00,1.44
7890.00,1.44
7889.00,1.44
7888.00,1.44
7887.00,1.44
7886.00,1.44
7885.00,1.44
7884.00,1.44
7883.00,1.44
7882.00,1.44
7881.00,1.44
7880.00,1.44
7879.00,1.44
7878.00,1.44
7877.00,1.44
7876.00,1.44
7875.00,1.44
7874.00,1.44
7873.00,1.44
7872.00,1.44
7871.00,1.44
7870.00,1.44
7869.00,1.44
7868.00,1.44
7867.00,1.44
7866.00,1.44
7865.00,1.44
7864.00,1.44
7863.00,1.44
7862.00,1.44
7861.00,1.44
7860.00,1.44
7859.00,1.44
7858.00,1.44
7857.00,1.45
7856.00,1.45
7855.00,1.45
7854.00,1.45
7853.00,1.45
7852.00,1.45
7851.00,1.45
7850.00,1.45
7849.00,1.45
7848.00,1.46
7847.00,1.46
7846.00,1.46
7845.00,1.46
7844.00,1.46
7843.00,1.46
7842.00,1.46
7841.00,1.46
7840.00,1.46
7839.00,1.46
7838.00,1.46
7837.00,1.46
7836.00,1.46
7835.00,1.46
7834.00,1.46
7833.00,1.46
7832.00,1.46
7831.00,1.46
7830.00,1.46
7829.00,1.46
7828.00,1.46
7827.00,1.46
7826.00,1.46
7825.00,1.46
7824.00,1.46
7823.00,1.46
7822.00,1.46
7821.00,1.46
7820.00,1.46
7819.00,1.46
7818.00,1.46
7817.00,1.46
7816.00,1.46
7815.00,1.46
7814.00,1.46
7813.00,1.46
7812.00,1.46
7811.00,1.46
7810.00,1.46
7809.00,1.45
7808.00,1.45
7807.00,1.45
7806.00,1.45
7805.00,1.45
7804.00,1.45
7803.00,1.45
7802.00,1.45
7801.00,1.45
7800.00,1.45
7799.00,1.45
7798.00,1.45
7797.00,1.45
7796.00,1.45
7795.00,1.45
7794.00,1.45
7793.00,1.45
7792.00,1.45
7791.00,1.45
7790.00,1.45
7789.00,1.45
7788.00,1.45
7787.00,1.45
7786.00,1.45
7785.00,1.45
7784.00,1.45
7783.00,1.45
7782.00,1.45
7781.00,1.45
7780.00,1.45
7779.00,1.45
7778.00,1.45
7777.00,1.45
7776.00,1.45
7775.00,1.45
7774.00,1.45
7773.00,1.45
7772.00,1.45
7771.00,1.45
7770.00,1.46
7769.00,1.46
7768.00,1.46
7767.00,1.46
7766.00,1.46
7765.00,1.46
7764.00,1.46
7763.00,1.46
7762.00,1.46
7761.00,1.46
7760.00,1.46
7759.00,1.46
7758.00,1.46
7757.00,1.46
7756.00,1.46
7755.00,1.46
7754.00,1.46
7753.00,1.46
7752.00,1.46
7751.00,1.46
7750.00,1.46
7749.00,1.46
7748.00,1.46
7747.00,1.46
7746.00,1.46
7745.00,1.46
7744.00,1.46
7743.00,1.46
7742.00,1.46
7741.00,1.46
7740.00,1.46
7739.00,1.46
7738.00,1.46
7737.00,1.46
7736.00,1.46
7735.00,1.46
7734.00,1.46
7733.00,1.46
7732.00,1.46
7731.00,1.46
7730.00,1.46
7729.00,1.46
7728.00,1.46
7727.00,1.46
7726.00,1.46
7725.00,1.46
7724.00,1.46
7723.00,1.46
7722.00,1.46
7721.00,1.46
7720.00,1.46
7719.00,1.46
7718.00,1.46
7717.00,1.46
7716.00,1.46
7715.00,1.46
7714.00,1.46
7713.00,1.46
7712.00,1.46
7711.00,1.46
7710.00,1.46
7709.00,1.46
7708.00,1.46
7707.00,1.46
7706.00,1.46
7705.00,1.46
7704.00,1.46
7703.00,1.47
7702.00,1.47
7701.00,1.47
7700.00,1.47
7699.00,1.47
7698.00,1.47
7697.00,1.47
7696.00,1.47
7695.00,1.47
7694.00,1.47
7693.00,1.47
7692.00,1.47
7691.00,1.47
7690.00,1.47
7689.00,1.47
7688.00,1.47
7687.00,1.47
7686.00,1.47
7685.00,1.47
7684.00,1.47
7683.00,1.46
7682.00,1.46
7681.00,1.46
7680.00,1.46
7679.00,1.46
7678.00,1.46
7677.00,1.46
7676.00,1.46
7675.00,1.46
7674.00,1.46
7673.00,1.46
7672.00,1.46
7671.00,1.46
7670.00,1.46
7669.00,1.46
7668.00,1.46
7667.00,1.46
7666.00,1.46
7665.00,1.46
7664.00,1.46
7663.00,1.46
7662.00,1.46
7661.00,1.46
7660.00,1.46
7659.00,1.46
7658.00,1.46
7657.00,1.46
7656.00,1.46
7655.00,1.46
7654.00,1.46
7653.00,1.46
7652.00,1.46
7651.00,1.46
7650.00,1.46
7649.00,1.46
7648.00,1.46
7647.00,1.46
7646.00,1.46
7645.00,1.46
7644.00,1.46
7643.00,1.46
7642.00,1.46
7641.00,1.46
7640.00,1.46
7639.00,1.46
7638.00,1.46
7637.00,1.46
7636.00,1.46
7635.00,1.46
7634.00,1.46
7633.00,1.46
7632.00,1.46
7631.00,1.46
7630.00,1.46
7629.00,1.46
7628.00,1.46
7627.00,1.46
7626.00,1.46
7625.00,1.46
7624.00,1.45
7623.00,1.45
7622.00,1.45
7621.00,1.45
7620.00,1.45
7619.00,1.45
7618.00,1.45
7617.00,1.45
7616.00,1.45
7615.00,1.45
7614.00,1.45
7613.00,1.45
7612.00,1.46
7611.00,1.46
7610.00,1.46
7609.00,1.46
7608.00,1.46
7607.00,1.46
7606.00,1.46
7605.00,1.46
7604.00,1.46
7603.00,1.46
7602.00,1.47
7601.00,1.47
7600.00,1.47
7599.00,1.47
7598.00,1.47
7597.00,1.47
7596.00,1.47
7595.00,1.47
7594.00,1.47
7593.00,1.47
7592.00,1.47
7591.00,1.47
7590.00,1.47
7589.00,1.47
7588.00,1.46
7587.00,1.46
7586.00,1.46
7585.00,1.46
7584.00,1.46
7583.00,1.46
7582.00,1.46
7581.00,1.46
7580.00,1.46
7579.00,1.46
7578.00,1.46
7577.00,1.46
7576.00,1.46
7575.00,1.46
7574.00,1.46
7573.00,1.46
7572.00,1.46
7571.00,1.46
7570.00,1.46
7569.00,1.46
7568.00,1.46
7567.00,1.46
7566.00,1.46
7565.00,1.46
7564.00,1.46
7563.00,1.46
7562.00,1.46
7561.00,1.46
7560.00,1.46
7559.00,1.46
7558.00,1.46
7557.00,1.46
7556.00,1.46
7555.00,1.46
7554.00,1.46
7553.00,1.46
7552.00,1.46
7551.00,1.46
7550.00,1.46
7549.00,1.46
7548.00,1.46
7547.00,1.46
7546.00,1.46
7545.00,1.46
7544.00,1.46
7543.00,1.46
7542.00,1.46
7541.00,1.46
7540.00,1.46
7539.00,1.46
7538.00,1.45
7537.00,1.45
7536.00,1.45
7535.00,1.45
7534.00,1.45
7533.00,1.45
7532.00,1.45
7531.00,1.45
7530.00,1.45
7529.00,1.45
7528.00,1.45
7527.00,1.45
7526.00,1.45
7525.00,1.45
7524.00,1.45
7523.00,1.45
7522.00,1.45
7521.00,1.45
7520.00,1.45
7519.00,1.45
7518.00,1.45
7517.00,1.45
7516.00,1.45
7515.00,1.45
7514.00,1.45
7513.00,1.45
7512.00,1.45
7511.00,1.45
7510.00,1.45
7509.00,1.45
7508.00,1.45
7507.00,1.45
7506.00,1.45
7505.00,1.45
7504.00,1.45
7503.00,1.45
7502.00,1.45
7501.00,1.45
7500.00,1.45
7499.00,1.45
7498.00,1.44
7497.00,1.44
7496.00,1.44
7495.00,1.44
7494.00,1.44
7493.00,1.44
7492.00,1.44
7491.00,1.44
7490.00,1.44
7489.00,1.44
7488.00,1.43
7487.00,1.43
7486.00,1.43
7485.00,1.43
7484.00,1.43
7483.00,1.43
7482.00,1.43
7481.00,1.43
7480.00,1.43
7479.00,1.43
7478.00,1.43
7477.00,1.43
7476.00,1.43
7475.00,1.43
7474.00,1.43
7473.00,1.43
7472.00,1.43
7471.00,1.43
7470.00,1.43
7469.00,1.43
7468.00,1.43
7467.00,1.42
7466.00,1.42
7465.00,1.42
7464.00,1.42
7463.00,1.42
7462.00,1.42
7461.00,1.42
7460.00,1.42
7459.00,1.42
7458.00,1.42
7457.00,1.41
7456.00,1.41
7455.00,1.41
7454.00,1.41
7453.00,1.41
7452.00,1.41
7451.00,1.41
7450.00,1.41
7449.00,1.41
7448.00,1.41
7447.00,1.40
7446.00,1.40
7445.00,1.40
7444.00,1.40
7443.00,1.40
7442.00,1.40
7441.00,1.40
7440.00,1.40
7439.00,1.40
7438.00,1.40
7437.00,1.40
7436.00,1.40
7435.00,1.40
7434.00,1.41
7433.00,1.41
7432.00,1.41
7431.00,1.41
7430.00,1.41
7429.00,1.41
7428.00,1.41
7427.00,1.41
7426.00,1.41
7425.00,1.41
7424.00,1.41
7423.00,1.41
7422.00,1.41
7421.00,1.41
7420.00,1.41
7419.00,1.41
7418.00,1.41
7417.00,1.40
7416.00,1.40
7415.00,1.40
7414.00,1.40
7413.00,1.40
7412.00,1.40
7411.00,1.40
7410.00,1.39
7409.00,1.39
7408.00,1.39
7407.00,1.39
7406.00,1.39
7405.00,1.39
7404.00,1.38
7403.00,1.38
7402.00,1.38
7401.00,1.38
7400.00,1.38
7399.00,1.38
7398.00,1.38
7397.00,1.37
7396.00,1.37
7395.00,1.37
7394.00,1.37
7393.00,1.37
7392.00,1.37
7391.00,1.37
7390.00,1.37
7389.00,1.37
7388.00,1.36
7387.00,1.36
7386.00,1.36
7385.00,1.36
7384.00,1.36
7383.00,1.36
7382.00,1.36
7381.00,1.36
7380.00,1.36
7379.00,1.36
7378.00,1.36
7377.00,1.35
7376.00,1.35
7375.00,1.35
7374.00,1.35
7373.00,1.35
7372.00,1.35
7371.00,1.35
7370.00,1.35
7369.00,1.35
7368.00,1.35
7367.00,1.36
7366.00,1.36
7365.00,1.36
7364.00,1.36
7363.00,1.36
7362.00,1.36
7361.00,1.36
7360.00,1.36
7359.00,1.36
7358.00,1.36
7357.00,1.36
7356.00,1.36
7355.00,1.36
7354.00,1.36
7353.00,1.36
7352.00,1.36
7351.00,1.36
7350.00,1.36
7349.00,1.36
7348.00,1.36
7347.00,1.36
7346.00,1.36
7345.00,1.36
7344.00,1.36
7343.00,1.36
7342.00,1.36
7341.00,1.36
7340.00,1.36
7339.00,1.36
7338.00,1.36
7337.00,1.36
7336.00,1.36
7335.00,1.36
7334.00,1.36
7333.00,1.36
7332.00,1.36
7331.00,1.36
7330.00,1.36
7329.00,1.36
7328.00,1.36
7327.00,1.36
7326.00,1.36
7325.00,1.36
7324.00,1.36
7323.00,1.35
7322.00,1.35
7321.00,1.35
7320.00,1.35
7319.00,1.35
7318.00,1.35
7317.00,1.35
7316.00,1.34
7315.00,1.34
7314.00,1.34
7313.00,1.34
7312.00,1.34
7311.00,1.34
7310.00,1.34
7309.00,1.33
7308.00,1.33
7307.00,1.33
7306.00,1.33
7305.00,1.33
7304.00,1.33
7303.00,1.33
7302.00,1.33
7301.00,1.33
7300.00,1.32
7299.00,1.32
7298.00,1.32
7297.00,1.32
7296.00,1.32
7295.00,1.32
7294.00,1.32
7293.00,1.31
7292.00,1.31
7291.00,1.31
7290.00,1.31
7289.00,1.31
7288.00,1.31
7287.00,1.30
7286.00,1.30
7285.00,1.30
7284.00,1.30
7283.00,1.30
7282.00,1.30
7281.00,1.30
7280.00,1.30
7279.00,1.30
7278.00,1.30
7277.00,1.29
7276.00,1.29
7275.00,1.29
7274.00,1.29
7273.00,1.29
7272.00,1.29
7271.00,1.29
7270.00,1.29
7269.00,1.29
7268.00,1.29
7267.00,1.29
7266.00,1.29
7265.00,1.29
7264.00,1.29
7263.00,1.29
7262.00,1.28
7261.00,1.28
7260.00,1.28
7259.00,1.28
7258.00,1.28
7257.00,1.28
7256.00,1.28
7255.00,1.28
7254.00,1.27
7253.00,1.27
7252.00,1.27
7251.00,1.27
7250.00,1.26
7249.00,1.26
7248.00,1.26
7247.00,1.26
7246.00,1.25
7245.00,1.25
7244.00,1.25
7243.00,1.24
7242.00,1.24
7241.00,1.24
7240.00,1.23
7239.00,1.23
7238.00,1.23
7237.00,1.22
7236.00,1.22
7235.00,1.22
7234.00,1.21
7233.00,1.21
7232.00,1.21
7231.00,1.20
7230.00,1.20
7229.00,1.19
7228.00,1.19
7227.00,1.19
7226.00,1.18
7225.00,1.18
7224.00,1.17
7223.00,1.17
7222.00,1.17
7221.00,1.16
7220.00,1.16
7219.00,1.15
7218.00,1.15
7217.00,1.15
7216.00,1.14
7215.00,1.14
7214.00,1.14
7213.00,1.13
7212.00,1.13
7211.00,1.13
7210.00,1.12
7209.00,1.12
7208.00,1.12
7207.00,1.11
7206.00,1.11
7205.00,1.11
7204.00,1.10
7203.00,1.10
7202.00,1.10
7201.00,1.09
7200.00,1.09
7199.00,1.09
7198.00,1.09
7197.00,1.08
7196.00,1.08
7195.00,1.08
7194.00,1.07
7193.00,1.07
7192.00,1.07
7191.00,1.06
7190.00,1.06
7189.00,1.06
7188.00,1.05
7187.00,1.05
7186.00,1.05
7185.00,1.04
7184.00,1.04
7183.00,1.04
7182.00,1.03
7181.00,1.03
7180.00,1.03
7179.00,1.03
7178.00,1.02
7177.00,1.02
7176.00,1.02
7175.00,1.01
7174.00,1.01
7173.00,1.01
7172.00,1.01
7171.00,1.01
7170.00,1.00
7169.00,1.00
7168.00,1.00
7167.00,1.00
7166.00,0.99
7165.00,0.99
7164.00,0.99
7163.00,0.99
7162.00,0.98
7161.00,0.98
7160.00,0.98
7159.00,0.98
7158.00,0.97
7157.00,0.97
7156.00,0.97
7155.00,0.96
7154.00,0.96
7153.00,0.96
7152.00,0.95
7151.00,0.95
7150.00,0.95
7149.00,0.94
7148.00,0.94
7147.00,0.94
7146.00,0.94
7145.00,0.93
7144.00,0.93
7143.00,0.93
7142.00,0.93
7141.00,0.92
7140.00,0.92
7139.00,0.92
7138.00,0.91
7137.00,0.91
7136.00,0.91
7135.00,0.90
7134.00,0.90
7133.00,0.90
7132.00,0.90
7131.00,0.89
7130.00,0.89
7129.00,0.89
7128.00,0.88
7127.00,0.88
7126.00,0.88
7125.00,0.88
7124.00,0.87
7123.00,0.87
7122.00,0.87
7121.00,0.86
7120.00,0.86
7119.00,0.86
7118.00,0.86
7117.00,0.85
7116.00,0.85
7115.00,0.85
7114.00,0.84
7113.00,0.84
7112.00,0.84
7111.00,0.84
7110.00,0.83
7109.00,0.83
7108.00,0.83
7107.00,0.82
7106.00,0.82
7105.00,0.82
7104.00,0.81
7103.00,0.81
7102.00,0.81
7101.00,0.80
7100.00,0.80
7099.00,0.80
7098.00,0.80
7097.00,0.79
7096.00,0.79
7095.00,0.79
7094.00,0.78
7093.00,0.78
7092.00,0.78
7091.00,0.78
7090.00,0.78
7089.00,0.77
7088.00,0.77
7087.00,0.77
7086.00,0.77
7085.00,0.77
7084.00,0.76
7083.00,0.76
7082.00,0.76
7081.00,0.76
7080.00,0.76
7079.00,0.75
7078.00,0.75
7077.00,0.75
7076.00,0.75
7075.00,0.74
7074.00,0.74
7073.00,0.74
7072.00,0.74
7071.00,0.73
7070.00,0.73
7069.00,0.73
7068.00,0.73
7067.00,0.72
7066.00,0.72
7065.00,0.72
7064.00,0.72
7063.00,0.72
7062.00,0.72
7061.00,0.72
7060.00,0.71
7059.00,0.71
7058.00,0.71
7057.00,0.71
7056.00,0.71
7055.00,0.71
7054.00,0.71
7053.00,0.71
7052.00,0.71
7051.00,0.71
7050.00,0.70
7049.00,0.70
7048.00,0.70
7047.00,0.70
7046.00,0.70
7045.00,0.70
7044.00,0.70
7043.00,0.70
7042.00,0.70
7041.00,0.69
7040.00,0.69
7039.00,0.69
7038.00,0.69
7037.00,0.69
7036.00,0.69
7035.00,0.69
7034.00,0.69
7033.00,0.69
7032.00,0.68
7031.00,0.68
7030.00,0.68
7029.00,0.68
7028.00,0.68
7027.00,0.68
7026.00,0.68
7025.00,0.67
7024.00,0.67
7023.00,0.67
7022.00,0.67
7021.00,0.67
7020.00,0.67
7019.00,0.66
7018.00,0.66
7017.00,0.66
7016.00,0.66
7015.00,0.66
7014.00,0.66
7013.00,0.65
7012.00,0.65
7011.00,0.65
7010.00,0.65
7009.00,0.65
7008.00,0.65
7007.00,0.65
7006.00,0.65
7005.00,0.65
7004.00,0.65
7003.00,0.65
7002.00,0.64
7001.00,0.64
7000.00,0.64
6999.00,0.64
6998.00,0.64
6997.00,0.64
6996.00,0.64
6995.00,0.64
6994.00,0.64
6993.00,0.64
6992.00,0.64
6991.00,0.64
6990.00,0.64
6989.00,0.64
6988.00,0.64
6987.00,0.64
6986.00,0.64
6985.00,0.64
6984.00,0.64
6983.00,0.64
6982.00,0.64
6981.00,0.64
6980.00,0.64
6979.00,0.64
6978.00,0.64
6977.00,0.64
6976.00,0.64
6975.00,0.64
6974.00,0.64
6973.00,0.64
6972.00,0.63
6971.00,0.63
6970.00,0.63
6969.00,0.63
6968.00,0.63
6967.00,0.63
6966.00,0.63
6965.00,0.63
6964.00,0.63
6963.00,0.63
6962.00,0.63
6961.00,0.63
6960.00,0.62
6959.00,0.62
6958.00,0.62
6957.00,0.62
6956.00,0.62
6955.00,0.62
6954.00,0.62
6953.00,0.62
6952.00,0.62
6951.00,0.62
6950.00,0.62
6949.00,0.62
6948.00,0.62
6947.00,0.62
6946.00,0.62
6945.00,0.62
6944.00,0.61
6943.00,0.61
6942.00,0.61
6941.00,0.61
6940.00,0.61
6939.00,0.61
6938.00,0.61
6937.00,0.61
6936.00,0.61
6935.00,0.61
6934.00,0.61
6933.00,0.60
6932.00,0.60
6931.00,0.60
6930.00,0.60
6929.00,0.60
6928.00,0.60
6927.00,0.60
6926.00,0.60
6925.00,0.60
6924.00,0.60
6923.00,0.60
6922.00,0.60
6921.00,0.60
6920.00,0.60
6919.00,0.60
6918.00,0.60
6917.00,0.60
6916.00,0.60
6915.00,0.60
6914.00,0.60
6913.00,0.60
6912.00,0.60
6911.00,0.60
6910.00,0.60
6909.00,0.60
6908.00,0.60
6907.00,0.60
6906.00,0.60
6905.00,0.60
6904.00,0.60
6903.00,0.60
6902.00,0.60
6901.00,0.60
6900.00,0.60
6899.00,0.60
6898.00,0.60
6897.00,0.60
6896.00,0.60
6895.00,0.60
6894.00,0.60
6893.00,0.60
6892.00,0.60
6891.00,0.60
6890.00,0.60
6889.00,0.60
6888.00,0.60
6887.00,0.60
6886.00,0.60
6885.00,0.60
6884.00,0.60
6883.00,0.60
6882.00,0.60
6881.00,0.60
6880.00,0.60
6879.00,0.60
6878.00,0.60
6877.00,0.60
6876.00,0.60
6875.00,0.60
6874.00,0.60
6873.00,0.60
6872.00,0.60
6871.00,0.60
6870.00,0.60
6869.00,0.60
6868.00,0.60
6867.00,0.60
6866.00,0.60
6865.00,0.60
6864.00,0.60
6863.00,0.60
6862.00,0.60
6861.00,0.60
6860.00,0.60
6859.00,0.60
6858.00,0.60
6857.00,0.60
6856.00,0.60
6855.00,0.60
6854.00,0.60
6853.00,0.60
6852.00,0.60
6851.00,0.60
6850.00,0.60
6849.00,0.60
6848.00,0.60
6847.00,0.60
6846.00,0.60
6845.00,0.60
6844.00,0.60
6843.00,0.60
6842.00,0.60
6841.00,0.60
6840.00,0.60
6839.00,0.60
6838.00,0.60
6837.00,0.61
6836.00,0.61
6835.00,0.61
6834.00,0.61
6833.00,0.61
6832.00,0.61
6831.00,0.61
6830.00,0.61
6829.00,0.61
6828.00,0.61
6827.00,0.61
6826.00,0.61
6825.00,0.62
6824.00,0.62
6823.00,0.62
6822.00,0.62
6821.00,0.62
6820.00,0.62
6819.00,0.62
6818.00,0.62
6817.00,0.62
6816.00,0.62
6815.00,0.62
6814.00,0.62
6813.00,0.62
6812.00,0.62
6811.00,0.62
6810.00,0.62
6809.00,0.62
6808.00,0.62
6807.00,0.62
6806.00,0.62
6805.00,0.62
6804.00,0.62
6803.00,0.62
6802.00,0.62
6801.00,0.62
6800.00,0.62
6799.00,0.62
6798.00,0.62
6797.00,0.62
6796.00,0.62
6795.00,0.62
6794.00,0.62
6793.00,0.62
6792.00,0.63
6791.00,0.63
6790.00,0.63
6789.00,0.63
6788.00,0.63
6787.00,0.63
6786.00,0.63
6785.00,0.63
6784.00,0.63
6783.00,0.63
6782.00,0.63
6781.00,0.63
6780.00,0.63
6779.00,0.64
6778.00,0.64
6777.00,0.64
6776.00,0.64
6775.00,0.64
6774.00,0.64
6773.00,0.64
6772.00,0.64
6771.00,0.64
6770.00,0.64
6769.00,0.64
6768.00,0.64
6767.00,0.64
6766.00,0.64
6765.00,0.64
6764.00,0.64
6763.00,0.64
6762.00,0.64
6761.00,0.64
6760.00,0.65
6759.00,0.65
6758.00,0.65
6757.00,0.65
6756.00,0.65
6755.00,0.65
6754.00,0.65
6753.00,0.65
6752.00,0.65
6751.00,0.65
6750.00,0.65
6749.00,0.65
6748.00,0.65
6747.00,0.65
6746.00,0.65
6745.00,0.65
6744.00,0.66
6743.00,0.66
6742.00,0.66
6741.00,0.66
6740.00,0.66
6739.00,0.66
6738.00,0.66
6737.00,0.67
6736.00,0.67
6735.00,0.67
6734.00,0.67
6733.00,0.67
6732.00,0.67
6731.00,0.67
6730.00,0.67
6729.00,0.67
6728.00,0.68
6727.00,0.68
6726.00,0.68
6725.00,0.68
6724.00,0.68
6723.00,0.68
6722.00,0.68
6721.00,0.68
6720.00,0.68
6719.00,0.68
6718.00,0.68
6717.00,0.68
6716.00,0.68
6715.00,0.68
6714.00,0.68
6713.00,0.68
6712.00,0.68
6711.00,0.68
6710.00,0.68
6709.00,0.68
6708.00,0.68
6707.00,0.68
6706.00,0.68
6705.00,0.69
6704.00,0.69
6703.00,0.69
6702.00,0.69
6701.00,0.69
6700.00,0.69
6699.00,0.69
6698.00,0.69
6697.00,0.69
6696.00,0.69
6695.00,0.69
6694.00,0.69
6693.00,0.69
6692.00,0.69
6691.00,0.69
6690.00,0.69
6689.00,0.69
6688.00,0.69
6687.00,0.69
6686.00,0.69
6685.00,0.70
6684.00,0.70
6683.00,0.70
6682.00,0.70
6681.00,0.70
6680.00,0.70
6679.00,0.70
6678.00,0.70
6677.00,0.71
6676.00,0.71
6675.00,0.71
6674.00,0.71
6673.00,0.71
6672.00,0.71
6671.00,0.72
6670.00,0.72
6669.00,0.72
6668.00,0.72
6667.00,0.72
6666.00,0.72
6665.00,0.72
6664.00,0.73
6663.00,0.73
6662.00,0.73
6661.00,0.73
6660.00,0.73
6659.00,0.73
6658.00,0.73
6657.00,0.73
6656.00,0.74
6655.00,0.74
6654.00,0.74
6653.00,0.74
6652.00,0.74
6651.00,0.74
6650.00,0.74
6649.00,0.74
6648.00,0.75
6647.00,0.75
6646.00,0.75
6645.00,0.75
6644.00,0.75
6643.00,0.75
6642.00,0.75
6641.00,0.75
6640.00,0.76
6639.00,0.76
6638.00,0.76
6637.00,0.76
6636.00,0.76
6635.00,0.76
6634.00,0.76
6633.00,0.76
6632.00,0.76
6631.00,0.77
6630.00,0.77
6629.00,0.77
6628.00,0.77
6627.00,0.77
6626.00,0.77
6625.00,0.77
6624.00,0.78
6623.00,0.78
6622.00,0.78
6621.00,0.78
6620.00,0.78
6619.00,0.78
6618.00,0.78
6617.00,0.79
6616.00,0.79
6615.00,0.79
6614.00,0.79
6613.00,0.79
6612.00,0.79
6611.00,0.79
6610.00,0.79
6609.00,0.79
6608.00,0.79
6607.00,0.79
6606.00,0.79
6605.00,0.79
6604.00,0.80
6603.00,0.80
6602.00,0.80
6601.00,0.80
6600.00,0.80
6599.00,0.80
6598.00,0.80
6597.00,0.80
6596.00,0.80
6595.00,0.80
6594.00,0.80
6593.00,0.80
6592.00,0.80
6591.00,0.81
6590.00,0.81
6589.00,0.81
6588.00,0.81
6587.00,0.81
6586.00,0.81
6585.00,0.81
6584.00,0.81
6583.00,0.81
6582.00,0.81
6581.00,0.81
6580.00,0.82
6579.00,0.82
6578.00,0.82
6577.00,0.82
6576.00,0.82
6575.00,0.82
6574.00,0.82
6573.00,0.82
6572.00,0.82
6571.00,0.83
6570.00,0.83
6569.00,0.83
6568.00,0.83
6567.00,0.83
6566.00,0.83
6565.00,0.83
6564.00,0.83
6563.00,0.84
6562.00,0.84
6561.00,0.84
6560.00,0.84
6559.00,0.84
6558.00,0.84
6557.00,0.84
6556.00,0.84
6555.00,0.85
6554.00,0.85
6553.00,0.85
6552.00,0.85
6551.00,0.85
6550.00,0.85
6549.00,0.85
6548.00,0.85
6547.00,0.85
6546.00,0.86
6545.00,0.86
6544.00,0.86
6543.00,0.86
6542.00,0.86
6541.00,0.86
6540.00,0.86
6539.00,0.86
6538.00,0.86
6537.00,0.86
6536.00,0.86
6535.00,0.86
6534.00,0.86
6533.00,0.86
6532.00,0.86
6531.00,0.86
6530.00,0.86
6529.00,0.86
6528.00,0.86
6527.00,0.86
6526.00,0.87
6525.00,0.87
6524.00,0.87
6523.00,0.87
6522.00,0.87
6521.00,0.87
6520.00,0.87
6519.00,0.87
6518.00,0.87
6517.00,0.87
6516.00,0.88
6515.00,0.88
6514.00,0.88
6513.00,0.88
6512.00,0.88
6511.00,0.88
6510.00,0.88
6509.00,0.88
6508.00,0.88
6507.00,0.88
6506.00,0.88
6505.00,0.88
6504.00,0.88
6503.00,0.88
6502.00,0.88
6501.00,0.89
6500.00,0.89
6499.00,0.89
6498.00,0.89
6497.00,0.89
6496.00,0.89
6495.00,0.89
6494.00,0.89
6493.00,0.89
6492.00,0.90
6491.00,0.90
6490.00,0.90
6489.00,0.90
6488.00,0.90
6487.00,0.90
6486.00,0.90
6485.00,0.91
6484.00,0.91
6483.00,0.91
6482.00,0.91
6481.00,0.91
6480.00,0.91
6479.00,0.91
6478.00,0.91
6477.00,0.91
6476.00,0.92
6475.00,0.92
6474.00,0.92
6473.00,0.92
6472.00,0.92
6471.00,0.92
6470.00,0.92
6469.00,0.92
6468.00,0.92
6467.00,0.92
6466.00,0.92
6465.00,0.92
6464.00,0.92
6463.00,0.92
6462.00,0.92
6461.00,0.92
6460.00,0.92
6459.00,0.92
6458.00,0.92
6457.00,0.92
6456.00,0.92
6455.00,0.92
6454.00,0.92
6453.00,0.93
6452.00,0.93
6451.00,0.93
6450.00,0.93
6449.00,0.93
6448.00,0.93
6447.00,0.93
6446.00,0.93
6445.00,0.93
6444.00,0.93
6443.00,0.93
6442.00,0.93
6441.00,0.93
6440.00,0.93
6439.00,0.93
6438.00,0.93
6437.00,0.93
6436.00,0.93
6435.00,0.93
6434.00,0.94
6433.00,0.94
6432.00,0.94
6431.00,0.94
6430.00,0.94
6429.00,0.94
6428.00,0.94
6427.00,0.94
6426.00,0.94
6425.00,0.94
6424.00,0.94
6423.00,0.94
6422.00,0.94
6421.00,0.94
6420.00,0.94
6419.00,0.94
6418.00,0.94
6417.00,0.94
6416.00,0.94
6415.00,0.94
6414.00,0.94
6413.00,0.94
6412.00,0.94
6411.00,0.95
6410.00,0.95
6409.00,0.95
6408.00,0.95
6407.00,0.95
6406.00,0.95
6405.00,0.95
6404.00,0.95
6403.00,0.95
6402.00,0.95
6401.00,0.95
6400.00,0.95
6399.00,0.95
6398.00,0.96
6397.00,0.96
6396.00,0.96
6395.00,0.96
6394.00,0.96
6393.00,0.96
6392.00,0.96
6391.00,0.96
6390.00,0.96
6389.00,0.97
6388.00,0.97
6387.00,0.97
6386.00,0.97
6385.00,0.97
6384.00,0.97
6383.00,0.97
6382.00,0.97
6381.00,0.97
6380.00,0.97
6379.00,0.97
6378.00,0.97
6377.00,0.98
6376.00,0.98
6375.00,0.98
6374.00,0.98
6373.00,0.98
6372.00,0.98
6371.00,0.98
6370.00,0.98
6369.00,0.98
6368.00,0.98
6367.00,0.98
6366.00,0.98
6365.00,0.98
6364.00,0.98
6363.00,0.99
6362.00,0.99
6361.00,0.99
6360.00,0.99
6359.00,0.99
6358.00,0.99
6357.00,0.99
6356.00,0.99
6355.00,0.99
6354.00,0.99
6353.00,0.99
6352.00,0.99
6351.00,0.99
6350.00,0.99
6349.00,0.99
6348.00,0.99
6347.00,0.99
6346.00,0.99
6345.00,1.00
6344.00,1.00
6343.00,1.00
6342.00,1.00
6341.00,1.00
6340.00,1.00
6339.00,1.00
6338.00,1.00
6337.00,1.01
6336.00,1.01
6335.00,1.01
6334.00,1.01
6333.00,1.01
6332.00,1.01
6331.00,1.01
6330.00,1.01
6329.00,1.01
6328.00,1.01
6327.00,1.01
6326.00,1.01
6325.00,1.01
6324.00,1.01
6323.00,1.02
6322.00,1.02
6321.00,1.02
6320.00,1.02
6319.00,1.02
6318.00,1.02
6317.00,1.02
6316.00,1.02
6315.00,1.02
6314.00,1.02
6313.00,1.03
6312.00,1.03
6311.00,1.03
6310.00,1.03
6309.00,1.03
6308.00,1.03
6307.00,1.03
6306.00,1.03
6305.00,1.03
6304.00,1.03
6303.00,1.03
6302.00,1.04
6301.00,1.04
6300.00,1.04
6299.00,1.04
6298.00,1.04
6297.00,1.04
6296.00,1.04
6295.00,1.04
6294.00,1.05
6293.00,1.05
6292.00,1.05
6291.00,1.05
6290.00,1.05
6289.00,1.05
6288.00,1.05
6287.00,1.05
6286.00,1.06
6285.00,1.06
6284.00,1.06
6283.00,1.06
6282.00,1.06
6281.00,1.06
6280.00,1.06
6279.00,1.06
6278.00,1.06
6277.00,1.06
6276.00,1.06
6275.00,1.07
6274.00,1.07
6273.00,1.07
6272.00,1.07
6271.00,1.07
6270.00,1.07
6269.00,1.07
6268.00,1.07
6267.00,1.07
6266.00,1.08
6265.00,1.08
6264.00,1.08
6263.00,1.08
6262.00,1.08
6261.00,1.08
6260.00,1.08
6259.00,1.08
6258.00,1.09
6257.00,1.09
6256.00,1.09
6255.00,1.09
6254.00,1.09
6253.00,1.09
6252.00,1.09
6251.00,1.09
6250.00,1.09
6249.00,1.09
6248.00,1.09
6247.00,1.09
6246.00,1.09
6245.00,1.10
6244.00,1.10
6243.00,1.10
6242.00,1.10
6241.00,1.10
6240.00,1.10
6239.00,1.10
6238.00,1.10
6237.00,1.10
6236.00,1.11
6235.00,1.11
6234.00,1.11
6233.00,1.11
6232.00,1.11
6231.00,1.12
6230.00,1.12
6229.00,1.12
6228.00,1.12
6227.00,1.12
6226.00,1.12
6225.00,1.13
6224.00,1.13
6223.00,1.13
6222.00,1.13
6221.00,1.13
6220.00,1.13
6219.00,1.14
6218.00,1.14
6217.00,1.14
6216.00,1.14
6215.00,1.14
6214.00,1.14
6213.00,1.15
6212.00,1.15
6211.00,1.15
6210.00,1.15
6209.00,1.15
6208.00,1.15
6207.00,1.15
6206.00,1.16
6205.00,1.16
6204.00,1.16
6203.00,1.16
6202.00,1.16
6201.00,1.16
6200.00,1.16
6199.00,1.16
6198.00,1.17
6197.00,1.17
6196.00,1.17
6195.00,1.17
6194.00,1.17
6193.00,1.17
6192.00,1.18
6191.00,1.18
6190.00,1.18
6189.00,1.18
6188.00,1.18
6187.00,1.18
6186.00,1.18
6185.00,1.18
6184.00,1.18
6183.00,1.19
6182.00,1.19
6181.00,1.19
6180.00,1.19
6179.00,1.19
6178.00,1.19
6177.00,1.19
6176.00,1.19
6175.00,1.19
6174.00,1.20
6173.00,1.20
6172.00,1.20
6171.00,1.20
6170.00,1.20
6169.00,1.20
6168.00,1.21
6167.00,1.21
6166.00,1.21
6165.00,1.21
6164.00,1.22
6163.00,1.22
6162.00,1.22
6161.00,1.22
6160.00,1.22
6159.00,1.22
6158.00,1.23
6157.00,1.23
6156.00,1.23
6155.00,1.23
6154.00,1.23
6153.00,1.23
6152.00,1.24
6151.00,1.24
6150.00,1.24
6149.00,1.24
6148.00,1.24
6147.00,1.24
6146.00,1.24
6145.00,1.24
6144.00,1.25
6143.00,1.25
6142.00,1.25
6141.00,1.25
6140.00,1.25
6139.00,1.25
6138.00,1.25
6137.00,1.25
6136.00,1.25
6135.00,1.26
6134.00,1.26
6133.00,1.26
6132.00,1.26
6131.00,1.26
6130.00,1.26
6129.00,1.26
6128.00,1.27
6127.00,1.27
6126.00,1.27
6125.00,1.27
6124.00,1.27
6123.00,1.28
6122.00,1.28
6121.00,1.28
6120.00,1.28
6119.00,1.28
6118.00,1.29
6117.00,1.29
6116.00,1.29
6115.00,1.29
6114.00,1.29
6113.00,1.29
6112.00,1.29
6111.00,1.29
6110.00,1.30
6109.00,1.30
6108.00,1.30
6107.00,1.30
6106.00,1.30
6105.00,1.30
6104.00,1.30
6103.00,1.30
6102.00,1.30
6101.00,1.30
6100.00,1.30
6099.00,1.30
6098.00,1.30
6097.00,1.30
6096.00,1.30
6095.00,1.30
6094.00,1.30
6093.00,1.31
6092.00,1.31
6091.00,1.31
6090.00,1.31
6089.00,1.31
6088.00,1.31
6087.00,1.32
6086.00,1.32
6085.00,1.32
6084.00,1.32
6083.00,1.32
6082.00,1.33
6081.00,1.33
6080.00,1.33
6079.00,1.33
6078.00,1.33
6077.00,1.33
6076.00,1.34
6075.00,1.34
6074.00,1.34
6073.00,1.34
6072.00,1.34
6071.00,1.34
6070.00,1.34
6069.00,1.35
6068.00,1.35
6067.00,1.35
6066.00,1.35
6065.00,1.35
6064.00,1.35
6063.00,1.35
6062.00,1.35
6061.00,1.35
6060.00,1.35
6059.00,1.35
6058.00,1.36
6057.00,1.36
6056.00,1.36
6055.00,1.36
6054.00,1.36
6053.00,1.36
6052.00,1.36
6051.00,1.36
6050.00,1.36
6049.00,1.36
6048.00,1.36
6047.00,1.36
6046.00,1.36
6045.00,1.36
6044.00,1.36
6043.00,1.36
6042.00,1.36
6041.00,1.36
6040.00,1.36
6039.00,1.36
6038.00,1.36
6037.00,1.36
6036.00,1.36
6035.00,1.37
6034.00,1.37
6033.00,1.37
6032.00,1.37
6031.00,1.37
6030.00,1.37
6029.00,1.37
6028.00,1.37
6027.00,1.37
6026.00,1.37
6025.00,1.37
6024.00,1.37
6023.00,1.37
6022.00,1.37
6021.00,1.37
6020.00,1.37
6019.00,1.37
6018.00,1.37
6017.00,1.37
6016.00,1.37
6015.00,1.37
6014.00,1.37
6013.00,1.37
6012.00,1.37
6011.00,1.37
6010.00,1.37
6009.00,1.37
6008.00,1.37
6007.00,1.37
6006.00,1.37
6005.00,1.37
6004.00,1.37
6003.00,1.37
6002.00,1.37
6001.00,1.37
6000.00,1.37
5999.00,1.37
5998.00,1.37
5997.00,1.37
5996.00,1.37
5995.00,1.37
5994.00,1.37
5993.00,1.37
5992.00,1.37
5991.00,1.37
5990.00,1.36
5989.00,1.36
5988.00,1.36
5987.00,1.36
5986.00,1.35
5985.00,1.35
5984.00,1.35
5983.00,1.35
5982.00,1.34
5981.00,1.34
5980.00,1.33
5979.00,1.33
5978.00,1.33
5977.00,1.32
5976.00,1.32
5975.00,1.31
5974.00,1.31
5973.00,1.30
5972.00,1.30
5971.00,1.29
5970.00,1.29
5969.00,1.28
5968.00,1.28
5967.00,1.27
5966.00,1.26
5965.00,1.26
5964.00,1.25
5963.00,1.24
5962.00,1.23
5961.00,1.23
5960.00,1.22
5959.00,1.21
5958.00,1.20
5957.00,1.20
5956.00,1.19
5955.00,1.18
5954.00,1.17
5953.00,1.17
5952.00,1.16
5951.00,1.15
5950.00,1.15
5949.00,1.14
5948.00,1.14
5947.00,1.13
5946.00,1.13
5945.00,1.12
5944.00,1.12
5943.00,1.12
5942.00,1.11
5941.00,1.11
5940.00,1.11
5939.00,1.11
5938.00,1.10
5937.00,1.10
5936.00,1.10
5935.00,1.10
5934.00,1.10
5933.00,1.10
5932.00,1.10
5931.00,1.10
5930.00,1.09
5929.00,1.09
5928.00,1.09
5927.00,1.09
5926.00,1.09
5925.00,1.09
5924.00,1.08
5923.00,1.08
5922.00,1.08
5921.00,1.08
5920.00,1.07
5919.00,1.07
5918.00,1.07
5917.00,1.07
5916.00,1.06
5915.00,1.06
5914.00,1.06
5913.00,1.05
5912.00,1.05
5911.00,1.05
5910.00,1.05
5909.00,1.05
5908.00,1.04
5907.00,1.04
5906.00,1.04
5905.00,1.04
5904.00,1.04
5903.00,1.04
5902.00,1.04
5901.00,1.04
5900.00,1.04
5899.00,1.04
5898.00,1.04
5897.00,1.04
5896.00,1.05
5895.00,1.05
5894.00,1.05
5893.00,1.05
5892.00,1.05
5891.00,1.06
5890.00,1.06
5889.00,1.06
5888.00,1.07
5887.00,1.07
5886.00,1.07
5885.00,1.08
5884.00,1.08
5883.00,1.08
5882.00,1.09
5881.00,1.09
5880.00,1.09
5879.00,1.09
5878.00,1.10
5877.00,1.10
5876.00,1.10
5875.00,1.10
5874.00,1.11
5873.00,1.11
5872.00,1.11
5871.00,1.11
5870.00,1.12
5869.00,1.12
5868.00,1.12
5867.00,1.12
5866.00,1.13
5865.00,1.13
5864.00,1.13
5863.00,1.13
5862.00,1.13
5861.00,1.14
5860.00,1.14
5859.00,1.14
5858.00,1.14
5857.00,1.14
5856.00,1.14
5855.00,1.15
5854.00,1.15
5853.00,1.15
5852.00,1.15
5851.00,1.15
5850.00,1.15
5849.00,1.15
5848.00,1.15
5847.00,1.15
5846.00,1.15
5845.00,1.15
5844.00,1.15
5843.00,1.15
5842.00,1.15
5841.00,1.15
5840.00,1.15
5839.00,1.15
5838.00,1.15
5837.00,1.15
5836.00,1.15
5835.00,1.15
5834.00,1.15
5833.00,1.15
5832.00,1.15
5831.00,1.15
5830.00,1.15
5829.00,1.15
5828.00,1.15
5827.00,1.15
5826.00,1.15
5825.00,1.15
5824.00,1.15
5823.00,1.15
5822.00,1.15
5821.00,1.15
5820.00,1.15
5819.00,1.15
5818.00,1.15
5817.00,1.15
5816.00,1.15
5815.00,1.15
5814.00,1.15
5813.00,1.15
5812.00,1.15
5811.00,1.15
5810.00,1.15
5809.00,1.15
5808.00,1.15
5807.00,1.15
5806.00,1.15
5805.00,1.15
5804.00,1.15
5803.00,1.14
5802.00,1.14
5801.00,1.14
5800.00,1.14
5799.00,1.14
5798.00,1.14
5797.00,1.14
5796.00,1.13
5795.00,1.13
5794.00,1.13
5793.00,1.13
5792.00,1.12
5791.00,1.12
5790.00,1.12
5789.00,1.12
5788.00,1.11
5787.00,1.11
5786.00,1.11
5785.00,1.10
5784.00,1.10
5783.00,1.10
5782.00,1.10
5781.00,1.09
5780.00,1.09
5779.00,1.09
5778.00,1.09
5777.00,1.09
5776.00,1.09
5775.00,1.09
5774.00,1.09
5773.00,1.09
5772.00,1.09
5771.00,1.09
5770.00,1.09
5769.00,1.09
5768.00,1.09
5767.00,1.09
5766.00,1.09
5765.00,1.10
5764.00,1.10
5763.00,1.10
5762.00,1.10
5761.00,1.11
5760.00,1.11
5759.00,1.11
5758.00,1.11
5757.00,1.12
5756.00,1.12
5755.00,1.13
5754.00,1.13
5753.00,1.13
5752.00,1.14
5751.00,1.14
5750.00,1.14
5749.00,1.15
5748.00,1.15
5747.00,1.16
5746.00,1.16
5745.00,1.16
5744.00,1.17
5743.00,1.17
5742.00,1.17
5741.00,1.18
5740.00,1.18
5739.00,1.18
5738.00,1.19
5737.00,1.19
5736.00,1.19
5735.00,1.19
5734.00,1.20
5733.00,1.20
5732.00,1.20
5731.00,1.20
5730.00,1.20
5729.00,1.20
5728.00,1.20
5727.00,1.21
5726.00,1.21
5725.00,1.21
5724.00,1.21
5723.00,1.21
5722.00,1.21
5721.00,1.21
5720.00,1.21
5719.00,1.21
5718.00,1.21
5717.00,1.21
5716.00,1.21
5715.00,1.21
5714.00,1.21
5713.00,1.21
5712.00,1.21
5711.00,1.21
5710.00,1.21
5709.00,1.21
5708.00,1.21
5707.00,1.21
5706.00,1.21
5705.00,1.21
5704.00,1.21
5703.00,1.21
5702.00,1.20
5701.00,1.20
5700.00,1.20
5699.00,1.20
5698.00,1.20
5697.00,1.20
5696.00,1.20
5695.00,1.19
5694.00,1.19
5693.00,1.19
5692.00,1.19
5691.00,1.19
5690.00,1.19
5689.00,1.18
5688.00,1.18
5687.00,1.18
5686.00,1.18
5685.00,1.18
5684.00,1.17
5683.00,1.17
5682.00,1.17
5681.00,1.17
5680.00,1.17
5679.00,1.17
5678.00,1.17
5677.00,1.17
5676.00,1.17
5675.00,1.17
5674.00,1.17
5673.00,1.17
5672.00,1.17
5671.00,1.17
5670.00,1.17
5669.00,1.17
5668.00,1.17
5667.00,1.17
5666.00,1.17
5665.00,1.17
5664.00,1.17
5663.00,1.17
5662.00,1.18
5661.00,1.18
5660.00,1.18
5659.00,1.18
5658.00,1.18
5657.00,1.18
5656.00,1.18
5655.00,1.19
5654.00,1.19
5653.00,1.19
5652.00,1.19
5651.00,1.19
5650.00,1.20
5649.00,1.20
5648.00,1.20
5647.00,1.20
5646.00,1.21
5645.00,1.21
5644.00,1.21
5643.00,1.21
5642.00,1.22
5641.00,1.22
5640.00,1.22
5639.00,1.22
5638.00,1.22
5637.00,1.23
5636.00,1.23
5635.00,1.23
5634.00,1.23
5633.00,1.23
5632.00,1.24
5631.00,1.24
5630.00,1.24
5629.00,1.24
5628.00,1.24
5627.00,1.24
5626.00,1.25
5625.00,1.25
5624.00,1.25
5623.00,1.25
5622.00,1.25
5621.00,1.25
5620.00,1.26
5619.00,1.26
5618.00,1.26
5617.00,1.26
5616.00,1.26
5615.00,1.26
5614.00,1.26
5613.00,1.26
5612.00,1.27
5611.00,1.27
5610.00,1.27
5609.00,1.27
5608.00,1.27
5607.00,1.27
5606.00,1.27
5605.00,1.28
5604.00,1.28
5603.00,1.28
5602.00,1.28
5601.00,1.28
5600.00,1.29
5599.00,1.29
5598.00,1.29
5597.00,1.29
5596.00,1.29
5595.00,1.30
5594.00,1.30
5593.00,1.30
5592.00,1.30
5591.00,1.30
5590.00,1.31
5589.00,1.31
5588.00,1.31
5587.00,1.31
5586.00,1.31
5585.00,1.31
5584.00,1.32
5583.00,1.32
5582.00,1.32
5581.00,1.32
5580.00,1.32
5579.00,1.32
5578.00,1.32
5577.00,1.32
5576.00,1.33
5575.00,1.33
5574.00,1.33
5573.00,1.33
5572.00,1.33
5571.00,1.33
5570.00,1.33
5569.00,1.33
5568.00,1.33
5567.00,1.34
5566.00,1.34
5565.00,1.34
5564.00,1.34
5563.00,1.34
5562.00,1.34
5561.00,1.34
5560.00,1.35
5559.00,1.35
5558.00,1.35
5557.00,1.35
5556.00,1.35
5555.00,1.35
5554.00,1.36
5553.00,1.36
5552.00,1.36
5551.00,1.36
5550.00,1.36
5549.00,1.36
5548.00,1.37
5547.00,1.37
5546.00,1.37
5545.00,1.37
5544.00,1.37
5543.00,1.37
5542.00,1.38
5541.00,1.38
5540.00,1.38
5539.00,1.38
5538.00,1.38
5537.00,1.38
5536.00,1.38
5535.00,1.38
5534.00,1.38
5533.00,1.38
5532.00,1.39
5531.00,1.39
5530.00,1.39
5529.00,1.39
5528.00,1.39
5527.00,1.39
5526.00,1.39
5525.00,1.39
5524.00,1.39
5523.00,1.39
5522.00,1.39
5521.00,1.40
5520.00,1.40
5519.00,1.40
5518.00,1.40
5517.00,1.40
5516.00,1.40
5515.00,1.40
5514.00,1.40
5513.00,1.40
5512.00,1.40
5511.00,1.41
5510.00,1.41
5509.00,1.41
5508.00,1.41
5507.00,1.41
5506.00,1.41
5505.00,1.41
5504.00,1.41
5503.00,1.41
5502.00,1.41
5501.00,1.41
5500.00,1.41
5499.00,1.41
5498.00,1.41
5497.00,1.41
5496.00,1.41
5495.00,1.41
5494.00,1.41
5493.00,1.41
5492.00,1.42
5491.00,1.42
5490.00,1.42
5489.00,1.42
5488.00,1.42
5487.00,1.42
5486.00,1.42
5485.00,1.42
5484.00,1.42
5483.00,1.42
5482.00,1.42
5481.00,1.42
5480.00,1.43
5479.00,1.43
5478.00,1.43
5477.00,1.43
5476.00,1.43
5475.00,1.43
5474.00,1.43
5473.00,1.44
5472.00,1.44
5471.00,1.44
5470.00,1.44
5469.00,1.44
5468.00,1.44
5467.00,1.44
5466.00,1.45
5465.00,1.45
5464.00,1.45
5463.00,1.45
5462.00,1.45
5461.00,1.45
5460.00,1.45
5459.00,1.45
5458.00,1.45
5457.00,1.45
5456.00,1.45
5455.00,1.45
5454.00,1.45
5453.00,1.45
5452.00,1.46
5451.00,1.46
5450.00,1.46
5449.00,1.46
5448.00,1.46
5447.00,1.46
5446.00,1.46
5445.00,1.46
5444.00,1.46
5443.00,1.46
5442.00,1.46
5441.00,1.46
5440.00,1.46
5439.00,1.46
5438.00,1.46
5437.00,1.47
5436.00,1.47
5435.00,1.47
5434.00,1.47
5433.00,1.47
5432.00,1.47
5431.00,1.47
5430.00,1.47
5429.00,1.47
5428.00,1.47
5427.00,1.47
5426.00,1.47
5425.00,1.47
5424.00,1.47
5423.00,1.47
5422.00,1.47
5421.00,1.47
5420.00,1.47
5419.00,1.47
5418.00,1.47
5417.00,1.47
5416.00,1.47
5415.00,1.47
5414.00,1.47
5413.00,1.47
5412.00,1.47
5411.00,1.47
5410.00,1.47
5409.00,1.47
5408.00,1.47
5407.00,1.47
5406.00,1.47
5405.00,1.47
5404.00,1.47
5403.00,1.47
5402.00,1.47
5401.00,1.47
5400.00,1.46
5399.00,1.46
5398.00,1.46
5397.00,1.46
5396.00,1.46
5395.00,1.46
5394.00,1.46
5393.00,1.46
5392.00,1.46
5391.00,1.46
5390.00,1.45
5389.00,1.45
5388.00,1.45
5387.00,1.45
5386.00,1.45
5385.00,1.45
5384.00,1.44
5383.00,1.44
5382.00,1.44
5381.00,1.44
5380.00,1.43
5379.00,1.43
5378.00,1.43
5377.00,1.42
5376.00,1.42
5375.00,1.42
5374.00,1.41
5373.00,1.41
5372.00,1.40
5371.00,1.40
5370.00,1.39
5369.00,1.39
5368.00,1.38
5367.00,1.38
5366.00,1.37
5365.00,1.37
5364.00,1.36
5363.00,1.36
5362.00,1.35
5361.00,1.35
5360.00,1.34
5359.00,1.33
5358.00,1.33
5357.00,1.32
5356.00,1.31
5355.00,1.30
5354.00,1.30
5353.00,1.29
5352.00,1.28
5351.00,1.27
5350.00,1.26
5349.00,1.25
5348.00,1.24
5347.00,1.23
5346.00,1.22
5345.00,1.21
5344.00,1.20
5343.00,1.19
5342.00,1.18
5341.00,1.17
5340.00,1.16
5339.00,1.15
5338.00,1.14
5337.00,1.13
5336.00,1.11
5335.00,1.10
5334.00,1.09
5333.00,1.08
5332.00,1.07
5331.00,1.05
5330.00,1.04
5329.00,1.03
5328.00,1.02
5327.00,1.01
5326.00,1.00
5325.00,0.98
5324.00,0.97
5323.00,0.96
5322.00,0.95
5321.00,0.94
5320.00,0.92
5319.00,0.91
5318.00,0.90
5317.00,0.89
5316.00,0.88
5315.00,0.87
5314.00,0.86
5313.00,0.85
5312.00,0.84
5311.00,0.83
5310.00,0.82
5309.00,0.81
5308.00,0.80
5307.00,0.79
5306.00,0.78
5305.00,0.77
5304.00,0.77
5303.00,0.76
5302.00,0.75
5301.00,0.75
5300.00,0.74
5299.00,0.73
5298.00,0.73
5297.00,0.72
5296.00,0.72
5295.00,0.71
5294.00,0.71
5293.00,0.70
5292.00,0.70
5291.00,0.70
5290.00,0.69
5289.00,0.69
5288.00,0.68
5287.00,0.68
5286.00,0.68
5285.00,0.68
5284.00,0.67
5283.00,0.67
5282.00,0.67
5281.00,0.67
5280.00,0.66
5279.00,0.66
5278.00,0.66
5277.00,0.66
5276.00,0.66
5275.00,0.66
5274.00,0.65
5273.00,0.65
5272.00,0.65
5271.00,0.65
5270.00,0.65
5269.00,0.65
5268.00,0.65
5267.00,0.65
5266.00,0.65
5265.00,0.65
5264.00,0.64
5263.00,0.64
5262.00,0.64
5261.00,0.64
5260.00,0.64
5259.00,0.64
5258.00,0.64
5257.00,0.64
5256.00,0.64
5255.00,0.64
5254.00,0.64
5253.00,0.64
5252.00,0.64
5251.00,0.64
5250.00,0.64
5249.00,0.64
5248.00,0.64
5247.00,0.64
5246.00,0.64
5245.00,0.64
5244.00,0.64
5243.00,0.64
5242.00,0.64
5241.00,0.64
5240.00,0.64
5239.00,0.64
5238.00,0.64
5237.00,0.64
5236.00,0.64
5235.00,0.64
5234.00,0.64
5233.00,0.64
5232.00,0.64
5231.00,0.64
5230.00,0.64
5229.00,0.64
5228.00,0.64
5227.00,0.64
5226.00,0.64
5225.00,0.64
5224.00,0.64
5223.00,0.64
5222.00,0.64
5221.00,0.64
5220.00,0.64
5219.00,0.64
5218.00,0.64
5217.00,0.64
5216.00,0.65
5215.00,0.65
5214.00,0.65
5213.00,0.65
5212.00,0.65
5211.00,0.65
5210.00,0.65
5209.00,0.65
5208.00,0.65
5207.00,0.65
5206.00,0.65
5205.00,0.65
5204.00,0.65
5203.00,0.65
5202.00,0.65
5201.00,0.65
5200.00,0.65
5199.00,0.65
5198.00,0.65
5197.00,0.65
5196.00,0.65
5195.00,0.66
5194.00,0.66
5193.00,0.66
5192.00,0.66
5191.00,0.66
5190.00,0.66
5189.00,0.66
5188.00,0.66
5187.00,0.66
5186.00,0.66
5185.00,0.66
5184.00,0.66
5183.00,0.66
5182.00,0.66
5181.00,0.66
5180.00,0.66
5179.00,0.66
5178.00,0.66
5177.00,0.66
5176.00,0.66
5175.00,0.66
5174.00,0.66
5173.00,0.67
5172.00,0.67
5171.00,0.67
5170.00,0.67
5169.00,0.67
5168.00,0.67
5167.00,0.67
5166.00,0.67
5165.00,0.67
5164.00,0.67
5163.00,0.67
5162.00,0.67
5161.00,0.67
5160.00,0.67
5159.00,0.67
5158.00,0.67
5157.00,0.67
5156.00,0.67
5155.00,0.67
5154.00,0.67
5153.00,0.67
5152.00,0.67
5151.00,0.68
5150.00,0.68
5149.00,0.68
5148.00,0.68
5147.00,0.68
5146.00,0.68
5145.00,0.68
5144.00,0.68
5143.00,0.68
5142.00,0.68
5141.00,0.68
5140.00,0.68
5139.00,0.68
5138.00,0.68
5137.00,0.68
5136.00,0.68
5135.00,0.69
5134.00,0.69
5133.00,0.69
5132.00,0.69
5131.00,0.69
5130.00,0.69
5129.00,0.69
5128.00,0.69
5127.00,0.69
5126.00,0.69
5125.00,0.69
5124.00,0.69
5123.00,0.69
5122.00,0.69
5121.00,0.69
5120.00,0.69
5119.00,0.69
5118.00,0.69
5117.00,0.69
5116.00,0.69
5115.00,0.69
5114.00,0.69
5113.00,0.69
5112.00,0.70
5111.00,0.70
5110.00,0.70
5109.00,0.70
5108.00,0.70
5107.00,0.70
5106.00,0.70
5105.00,0.70
5104.00,0.70
5103.00,0.70
5102.00,0.70
5101.00,0.70
5100.00,0.71
5099.00,0.71
5098.00,0.71
5097.00,0.71
5096.00,0.71
5095.00,0.71
5094.00,0.71
5093.00,0.71
5092.00,0.71
5091.00,0.71
5090.00,0.71
5089.00,0.71
5088.00,0.71
5087.00,0.71
5086.00,0.71
5085.00,0.71
5084.00,0.71
5083.00,0.71
5082.00,0.71
5081.00,0.71
5080.00,0.71
5079.00,0.71
5078.00,0.71
5077.00,0.71
5076.00,0.71
5075.00,0.71
5074.00,0.71
5073.00,0.71
5072.00,0.72
5071.00,0.72
5070.00,0.72
5069.00,0.72
5068.00,0.72
5067.00,0.72
5066.00,0.72
5065.00,0.72
5064.00,0.73
5063.00,0.73
5062.00,0.73
5061.00,0.73
5060.00,0.73
5059.00,0.73
5058.00,0.73
5057.00,0.73
5056.00,0.73
5055.00,0.73
5054.00,0.74
5053.00,0.74
5052.00,0.74
5051.00,0.74
5050.00,0.74
5049.00,0.74
5048.00,0.74
5047.00,0.74
5046.00,0.74
5045.00,0.74
5044.00,0.74
5043.00,0.74
5042.00,0.74
5041.00,0.74
5040.00,0.74
5039.00,0.75
5038.00,0.75
5037.00,0.75
5036.00,0.75
5035.00,0.75
5034.00,0.75
5033.00,0.75
5032.00,0.75
5031.00,0.75
5030.00,0.75
5029.00,0.75
5028.00,0.76
5027.00,0.76
5026.00,0.76
5025.00,0.76
5024.00,0.76
5023.00,0.76
5022.00,0.77
5021.00,0.77
5020.00,0.77
5019.00,0.77
5018.00,0.77
5017.00,0.77
5016.00,0.77
5015.00,0.78
5014.00,0.78
5013.00,0.78
5012.00,0.78
5011.00,0.78
5010.00,0.78
5009.00,0.78
5008.00,0.78
5007.00,0.78
5006.00,0.79
5005.00,0.79
5004.00,0.79
5003.00,0.79
5002.00,0.79
5001.00,0.79
5000.00,0.79
4999.00,0.79
4998.00,0.79
4997.00,0.79
4996.00,0.79
4995.00,0.80
4994.00,0.80
4993.00,0.80
4992.00,0.80
4991.00,0.80
4990.00,0.80
4989.00,0.80
4988.00,0.80
4987.00,0.80
4986.00,0.80
4985.00,0.80
4984.00,0.81
4983.00,0.81
4982.00,0.81
4981.00,0.81
4980.00,0.81
4979.00,0.81
4978.00,0.81
4977.00,0.81
4976.00,0.82
4975.00,0.82
4974.00,0.82
4973.00,0.82
4972.00,0.82
4971.00,0.82
4970.00,0.82
4969.00,0.83
4968.00,0.83
4967.00,0.83
4966.00,0.83
4965.00,0.83
4964.00,0.83
4963.00,0.83
4962.00,0.83
4961.00,0.83
4960.00,0.84
4959.00,0.84
4958.00,0.84
4957.00,0.84
4956.00,0.84
4955.00,0.84
4954.00,0.84
4953.00,0.84
4952.00,0.84
4951.00,0.84
4950.00,0.84
4949.00,0.85
4948.00,0.85
4947.00,0.85
4946.00,0.85
4945.00,0.85
4944.00,0.85
4943.00,0.85
4942.00,0.85
4941.00,0.85
4940.00,0.85
4939.00,0.85
4938.00,0.86
4937.00,0.86
4936.00,0.86
4935.00,0.86
4934.00,0.86
4933.00,0.86
4932.00,0.86
4931.00,0.86
4930.00,0.86
4929.00,0.87
4928.00,0.87
4927.00,0.87
4926.00,0.87
4925.00,0.87
4924.00,0.87
4923.00,0.87
4922.00,0.87
4921.00,0.87
4920.00,0.87
4919.00,0.87
4918.00,0.87
4917.00,0.87
4916.00,0.87
4915.00,0.87
4914.00,0.88
4913.00,0.88
4912.00,0.88
4911.00,0.88
4910.00,0.88
4909.00,0.88
4908.00,0.88
4907.00,0.88
4906.00,0.88
4905.00,0.88
4904.00,0.88
4903.00,0.89
4902.00,0.89
4901.00,0.89
4900.00,0.89
4899.00,0.89
4898.00,0.89
4897.00,0.89
4896.00,0.89
4895.00,0.89
4894.00,0.89
4893.00,0.89
4892.00,0.89
4891.00,0.89
4890.00,0.89
4889.00,0.89
4888.00,0.90
4887.00,0.90
4886.00,0.90
4885.00,0.90
4884.00,0.90
4883.00,0.90
4882.00,0.90
4881.00,0.90
4880.00,0.90
4879.00,0.90
4878.00,0.90
4877.00,0.90
4876.00,0.90
4875.00,0.90
4874.00,0.90
4873.00,0.90
4872.00,0.90
4871.00,0.90
4870.00,0.90
4869.00,0.91
4868.00,0.91
4867.00,0.91
4866.00,0.91
4865.00,0.91
4864.00,0.91
4863.00,0.91
4862.00,0.91
4861.00,0.91
4860.00,0.91
4859.00,0.91
4858.00,0.91
4857.00,0.91
4856.00,0.91
4855.00,0.91
4854.00,0.91
4853.00,0.91
4852.00,0.91
4851.00,0.91
4850.00,0.92
4849.00,0.92
4848.00,0.92
4847.00,0.92
4846.00,0.92
4845.00,0.92
4844.00,0.92
4843.00,0.92
4842.00,0.92
4841.00,0.92
4840.00,0.93
4839.00,0.93
4838.00,0.93
4837.00,0.93
4836.00,0.93
4835.00,0.93
4834.00,0.94
4833.00,0.94
4832.00,0.94
4831.00,0.94
4830.00,0.94
4829.00,0.94
4828.00,0.94
4827.00,0.94
4826.00,0.95
4825.00,0.95
4824.00,0.95
4823.00,0.95
4822.00,0.95
4821.00,0.95
4820.00,0.95
4819.00,0.95
4818.00,0.95
4817.00,0.95
4816.00,0.95
4815.00,0.96
4814.00,0.96
4813.00,0.96
4812.00,0.96
4811.00,0.96
4810.00,0.96
4809.00,0.96
4808.00,0.96
4807.00,0.97
4806.00,0.97
4805.00,0.97
4804.00,0.97
4803.00,0.97
4802.00,0.97
4801.00,0.97
4800.00,0.98
4799.00,0.98
4798.00,0.98
4797.00,0.98
4796.00,0.98
4795.00,0.98
4794.00,0.98
4793.00,0.98
4792.00,0.99
4791.00,0.99
4790.00,0.99
4789.00,0.99
4788.00,0.99
4787.00,0.99
4786.00,1.00
4785.00,1.00
4784.00,1.00
4783.00,1.00
4782.00,1.00
4781.00,1.00
4780.00,1.01
4779.00,1.01
4778.00,1.01
4777.00,1.01
4776.00,1.02
4775.00,1.02
4774.00,1.02
4773.00,1.02
4772.00,1.02
4771.00,1.03
4770.00,1.03
4769.00,1.03
4768.00,1.03
4767.00,1.03
4766.00,1.04
4765.00,1.04
4764.00,1.04
4763.00,1.04
4762.00,1.04
4761.00,1.04
4760.00,1.04
4759.00,1.04
4758.00,1.05
4757.00,1.05
4756.00,1.05
4755.00,1.05
4754.00,1.05
4753.00,1.05
4752.00,1.05
4751.00,1.05
4750.00,1.05
4749.00,1.06
4748.00,1.06
4747.00,1.06
4746.00,1.06
4745.00,1.06
4744.00,1.07
4743.00,1.07
4742.00,1.07
4741.00,1.07
4740.00,1.08
4739.00,1.08
4738.00,1.08
4737.00,1.08
4736.00,1.09
4735.00,1.09
4734.00,1.09
4733.00,1.09
4732.00,1.10
4731.00,1.10
4730.00,1.10
4729.00,1.10
4728.00,1.10
4727.00,1.10
4726.00,1.11
4725.00,1.11
4724.00,1.11
4723.00,1.11
4722.00,1.11
4721.00,1.12
4720.00,1.12
4719.00,1.12
4718.00,1.12
4717.00,1.12
4716.00,1.13
4715.00,1.13
4714.00,1.13
4713.00,1.13
4712.00,1.13
4711.00,1.14
4710.00,1.14
4709.00,1.14
4708.00,1.14
4707.00,1.15
4706.00,1.15
4705.00,1.15
4704.00,1.15
4703.00,1.16
4702.00,1.16
4701.00,1.16
4700.00,1.16
4699.00,1.17
4698.00,1.17
4697.00,1.17
4696.00,1.18
4695.00,1.18
4694.00,1.18
4693.00,1.18
4692.00,1.19
4691.00,1.19
4690.00,1.19
4689.00,1.19
4688.00,1.19
4687.00,1.20
4686.00,1.20
4685.00,1.20
4684.00,1.20
4683.00,1.20
4682.00,1.20
4681.00,1.20
4680.00,1.21
4679.00,1.21
4678.00,1.21
4677.00,1.21
4676.00,1.21
4675.00,1.21
4674.00,1.21
4673.00,1.21
4672.00,1.21
4671.00,1.22
4670.00,1.22
4669.00,1.22
4668.00,1.22
4667.00,1.22
4666.00,1.22
4665.00,1.22
4664.00,1.22
4663.00,1.23
4662.00,1.23
4661.00,1.23
4660.00,1.23
4659.00,1.23
4658.00,1.23
4657.00,1.24
4656.00,1.24
4655.00,1.24
4654.00,1.24
4653.00,1.24
4652.00,1.25
4651.00,1.25
4650.00,1.25
4649.00,1.25
4648.00,1.26
4647.00,1.26
4646.00,1.26
4645.00,1.26
4644.00,1.27
4643.00,1.27
4642.00,1.27
4641.00,1.27
4640.00,1.27
4639.00,1.27
4638.00,1.27
4637.00,1.28
4636.00,1.28
4635.00,1.28
4634.00,1.28
4633.00,1.28
4632.00,1.28
4631.00,1.28
4630.00,1.28
4629.00,1.28
4628.00,1.29
4627.00,1.29
4626.00,1.29
4625.00,1.29
4624.00,1.29
4623.00,1.29
4622.00,1.29
4621.00,1.29
4620.00,1.29
4619.00,1.30
4618.00,1.30
4617.00,1.30
4616.00,1.30
4615.00,1.30
4614.00,1.30
4613.00,1.30
4612.00,1.30
4611.00,1.31
4610.00,1.31
4609.00,1.31
4608.00,1.31
4607.00,1.31
4606.00,1.31
4605.00,1.31
4604.00,1.31
4603.00,1.31
4602.00,1.31
4601.00,1.32
4600.00,1.32
4599.00,1.32
4598.00,1.32
4597.00,1.32
4596.00,1.32
4595.00,1.32
4594.00,1.32
4593.00,1.32
4592.00,1.32
4591.00,1.32
4590.00,1.32
4589.00,1.32
4588.00,1.32
4587.00,1.32
4586.00,1.32
4585.00,1.33
4584.00,1.33
4583.00,1.33
4582.00,1.33
4581.00,1.33
4580.00,1.33
4579.00,1.33
4578.00,1.34
4577.00,1.34
4576.00,1.34
4575.00,1.34
4574.00,1.34
4573.00,1.34
4572.00,1.35
4571.00,1.35
4570.00,1.35
4569.00,1.35
4568.00,1.35
4567.00,1.36
4566.00,1.36
4565.00,1.36
4564.00,1.36
4563.00,1.36
4562.00,1.36
4561.00,1.37
4560.00,1.37
4559.00,1.37
4558.00,1.37
4557.00,1.37
4556.00,1.37
4555.00,1.37
4554.00,1.37
4553.00,1.37
4552.00,1.37
4551.00,1.37
4550.00,1.37
4549.00,1.37
4548.00,1.37
4547.00,1.37
4546.00,1.37
4545.00,1.37
4544.00,1.37
4543.00,1.37
4542.00,1.37
4541.00,1.37
4540.00,1.37
4539.00,1.38
4538.00,1.38
4537.00,1.38
4536.00,1.38
4535.00,1.38
4534.00,1.38
4533.00,1.38
4532.00,1.38
4531.00,1.38
4530.00,1.38
4529.00,1.38
4528.00,1.38
4527.00,1.38
4526.00,1.38
4525.00,1.38
4524.00,1.39
4523.00,1.39
4522.00,1.39
4521.00,1.39
4520.00,1.39
4519.00,1.39
4518.00,1.39
4517.00,1.39
4516.00,1.39
4515.00,1.39
4514.00,1.39
4513.00,1.39
4512.00,1.39
4511.00,1.39
4510.00,1.39
4509.00,1.39
4508.00,1.39
4507.00,1.39
4506.00,1.39
4505.00,1.39
4504.00,1.39
4503.00,1.39
4502.00,1.39
4501.00,1.39
4500.00,1.39
4499.00,1.39
4498.00,1.39
4497.00,1.39
4496.00,1.39
4495.00,1.39
4494.00,1.39
4493.00,1.39
4492.00,1.38
4491.00,1.38
4490.00,1.38
4489.00,1.38
4488.00,1.38
4487.00,1.37
4486.00,1.37
4485.00,1.37
4484.00,1.37
4483.00,1.36
4482.00,1.36
4481.00,1.36
4480.00,1.36
4479.00,1.35
4478.00,1.35
4477.00,1.35
4476.00,1.34
4475.00,1.34
4474.00,1.34
4473.00,1.34
4472.00,1.33
4471.00,1.33
4470.00,1.33
4469.00,1.32
4468.00,1.32
4467.00,1.32
4466.00,1.31
4465.00,1.31
4464.00,1.31
4463.00,1.30
4462.00,1.30
4461.00,1.30
4460.00,1.29
4459.00,1.29
4458.00,1.29
4457.00,1.28
4456.00,1.28
4455.00,1.27
4454.00,1.27
4453.00,1.26
4452.00,1.26
4451.00,1.25
4450.00,1.25
4449.00,1.24
4448.00,1.24
4447.00,1.23
4446.00,1.23
4445.00,1.22
4444.00,1.22
4443.00,1.21
4442.00,1.20
4441.00,1.20
4440.00,1.19
4439.00,1.19
4438.00,1.18
4437.00,1.18
4436.00,1.17
4435.00,1.17
4434.00,1.16
4433.00,1.16
4432.00,1.15
4431.00,1.15
4430.00,1.15
4429.00,1.14
4428.00,1.14
4427.00,1.13
4426.00,1.13
4425.00,1.13
4424.00,1.12
4423.00,1.12
4422.00,1.12
4421.00,1.12
4420.00,1.12
4419.00,1.12
4418.00,1.11
4417.00,1.11
4416.00,1.11
4415.00,1.11
4414.00,1.11
4413.00,1.11
4412.00,1.11
4411.00,1.12
4410.00,1.12
4409.00,1.12
4408.00,1.12
4407.00,1.12
4406.00,1.12
4405.00,1.12
4404.00,1.13
4403.00,1.13
4402.00,1.13
4401.00,1.13
4400.00,1.13
4399.00,1.13
4398.00,1.14
4397.00,1.14
4396.00,1.14
4395.00,1.14
4394.00,1.14
4393.00,1.14
4392.00,1.15
4391.00,1.15
4390.00,1.15
4389.00,1.15
4388.00,1.15
4387.00,1.15
4386.00,1.16
4385.00,1.16
4384.00,1.16
4383.00,1.16
4382.00,1.16
4381.00,1.16
4380.00,1.17
4379.00,1.17
4378.00,1.17
4377.00,1.17
4376.00,1.17
4375.00,1.17
4374.00,1.17
4373.00,1.17
4372.00,1.17
4371.00,1.17
4370.00,1.17
4369.00,1.17
4368.00,1.17
4367.00,1.17
4366.00,1.17
4365.00,1.17
4364.00,1.17
4363.00,1.17
4362.00,1.17
4361.00,1.17
4360.00,1.17
4359.00,1.17
4358.00,1.17
4357.00,1.17
4356.00,1.16
4355.00,1.16
4354.00,1.16
4353.00,1.16
4352.00,1.16
4351.00,1.16
4350.00,1.16
4349.00,1.16
4348.00,1.16
4347.00,1.16
4346.00,1.16
4345.00,1.16
4344.00,1.16
4343.00,1.16
4342.00,1.16
4341.00,1.16
4340.00,1.16
4339.00,1.16
4338.00,1.16
4337.00,1.16
4336.00,1.17
4335.00,1.17
4334.00,1.17
4333.00,1.17
4332.00,1.17
4331.00,1.17
4330.00,1.17
4329.00,1.18
4328.00,1.18
4327.00,1.18
4326.00,1.18
4325.00,1.18
4324.00,1.18
4323.00,1.19
4322.00,1.19
4321.00,1.19
4320.00,1.19
4319.00,1.19
4318.00,1.20
4317.00,1.20
4316.00,1.20
4315.00,1.20
4314.00,1.21
4313.00,1.21
4312.00,1.21
4311.00,1.21
4310.00,1.22
4309.00,1.22
4308.00,1.22
4307.00,1.22
4306.00,1.23
4305.00,1.23
4304.00,1.23
4303.00,1.24
4302.00,1.24
4301.00,1.24
4300.00,1.24
4299.00,1.25
4298.00,1.25
4297.00,1.25
4296.00,1.26
4295.00,1.26
4294.00,1.26
4293.00,1.26
4292.00,1.26
4291.00,1.27
4290.00,1.27
4289.00,1.27
4288.00,1.27
4287.00,1.27
4286.00,1.27
4285.00,1.27
4284.00,1.27
4283.00,1.27
4282.00,1.28
4281.00,1.28
4280.00,1.28
4279.00,1.28
4278.00,1.28
4277.00,1.27
4276.00,1.27
4275.00,1.27
4274.00,1.27
4273.00,1.27
4272.00,1.27
4271.00,1.27
4270.00,1.27
4269.00,1.27
4268.00,1.27
4267.00,1.27
4266.00,1.27
4265.00,1.27
4264.00,1.27
4263.00,1.26
4262.00,1.26
4261.00,1.26
4260.00,1.26
4259.00,1.26
4258.00,1.26
4257.00,1.26
4256.00,1.26
4255.00,1.26
4254.00,1.26
4253.00,1.26
4252.00,1.26
4251.00,1.26
4250.00,1.26
4249.00,1.27
4248.00,1.27
4247.00,1.27
4246.00,1.27
4245.00,1.27
4244.00,1.27
4243.00,1.27
4242.00,1.27
4241.00,1.27
4240.00,1.28
4239.00,1.28
4238.00,1.28
4237.00,1.28
4236.00,1.28
4235.00,1.28
4234.00,1.29
4233.00,1.29
4232.00,1.29
4231.00,1.29
4230.00,1.30
4229.00,1.30
4228.00,1.30
4227.00,1.31
4226.00,1.31
4225.00,1.31
4224.00,1.31
4223.00,1.32
4222.00,1.32
4221.00,1.32
4220.00,1.32
4219.00,1.33
4218.00,1.33
4217.00,1.33
4216.00,1.33
4215.00,1.33
4214.00,1.33
4213.00,1.33
4212.00,1.33
4211.00,1.33
4210.00,1.33
4209.00,1.33
4208.00,1.33
4207.00,1.33
4206.00,1.33
4205.00,1.33
4204.00,1.33
4203.00,1.33
4202.00,1.33
4201.00,1.33
4200.00,1.33
4199.00,1.33
4198.00,1.33
4197.00,1.33
4196.00,1.33
4195.00,1.33
4194.00,1.33
4193.00,1.33
4192.00,1.33
4191.00,1.33
4190.00,1.33
4189.00,1.33
4188.00,1.33
4187.00,1.33
4186.00,1.33
4185.00,1.33
4184.00,1.33
4183.00,1.33
4182.00,1.33
4181.00,1.33
4180.00,1.33
4179.00,1.33
4178.00,1.33
4177.00,1.33
4176.00,1.33
4175.00,1.33
4174.00,1.34
4173.00,1.34
4172.00,1.34
4171.00,1.34
4170.00,1.34
4169.00,1.34
4168.00,1.34
4167.00,1.34
4166.00,1.34
4165.00,1.34
4164.00,1.34
4163.00,1.34
4162.00,1.34
4161.00,1.34
4160.00,1.33
4159.00,1.33
4158.00,1.33
4157.00,1.33
4156.00,1.33
4155.00,1.33
4154.00,1.33
4153.00,1.33
4152.00,1.33
4151.00,1.33
4150.00,1.33
4149.00,1.33
4148.00,1.33
4147.00,1.33
4146.00,1.33
4145.00,1.34
4144.00,1.34
4143.00,1.34
4142.00,1.34
4141.00,1.34
4140.00,1.34
4139.00,1.34
4138.00,1.34
4137.00,1.34
4136.00,1.34
4135.00,1.35
4134.00,1.35
4133.00,1.35
4132.00,1.35
4131.00,1.35
4130.00,1.35
4129.00,1.36
4128.00,1.36
4127.00,1.36
4126.00,1.36
4125.00,1.36
4124.00,1.36
4123.00,1.36
4122.00,1.37
4121.00,1.37
4120.00,1.37
4119.00,1.37
4118.00,1.37
4117.00,1.37
4116.00,1.37
4115.00,1.37
4114.00,1.37
4113.00,1.37
4112.00,1.37
4111.00,1.38
4110.00,1.38
4109.00,1.38
4108.00,1.38
4107.00,1.38
4106.00,1.38
4105.00,1.38
4104.00,1.38
4103.00,1.38
4102.00,1.38
4101.00,1.38
4100.00,1.38
4099.00,1.38
4098.00,1.38
4097.00,1.38
4096.00,1.38
4095.00,1.38
4094.00,1.38
4093.00,1.38
4092.00,1.38
4091.00,1.38
4090.00,1.38
4089.00,1.38
4088.00,1.38
4087.00,1.38
4086.00,1.37
4085.00,1.37
4084.00,1.37
4083.00,1.37
4082.00,1.37
4081.00,1.37
4080.00,1.37
4079.00,1.37
4078.00,1.37
4077.00,1.37
4076.00,1.38
4075.00,1.38
4074.00,1.38
4073.00,1.38
4072.00,1.38
4071.00,1.38
4070.00,1.39
4069.00,1.39
4068.00,1.39
4067.00,1.39
4066.00,1.39
4065.00,1.39
4064.00,1.39
4063.00,1.40
4062.00,1.40
4061.00,1.40
4060.00,1.40
4059.00,1.40
4058.00,1.40
4057.00,1.40
4056.00,1.40
4055.00,1.40
4054.00,1.40
4053.00,1.40
4052.00,1.40
4051.00,1.40
4050.00,1.40
4049.00,1.40
4048.00,1.40
4047.00,1.40
4046.00,1.40
4045.00,1.40
4044.00,1.40
4043.00,1.40
4042.00,1.40
4041.00,1.40
4040.00,1.40
4039.00,1.41
4038.00,1.41
4037.00,1.41
4036.00,1.41
4035.00,1.41
4034.00,1.41
4033.00,1.42
4032.00,1.42
4031.00,1.42
4030.00,1.42
4029.00,1.42
4028.00,1.43
4027.00,1.43
4026.00,1.43
4025.00,1.43
4024.00,1.43
4023.00,1.44
4022.00,1.44
4021.00,1.44
4020.00,1.44
4019.00,1.44
4018.00,1.44
4017.00,1.44
4016.00,1.45
4015.00,1.45
4014.00,1.45
4013.00,1.45
4012.00,1.45
4011.00,1.45
4010.00,1.45
4009.00,1.45
4008.00,1.46
4007.00,1.46
4006.00,1.46
4005.00,1.46
4004.00,1.46
4003.00,1.46
4002.00,1.47
4001.00,1.47
4000.00,1.47
