创建为新数据集,样品 076 用户 Administrator 日期 星期六, 七月 21 2018
cm-1,%T
10000.00,1.55
9999.00,1.55
9998.00,1.54
9997.00,1.54
9996.00,1.54
9995.00,1.54
9994.00,1.53
9993.00,1.53
9992.00,1.53
9991.00,1.53
9990.00,1.52
9989.00,1.52
9988.00,1.52
9987.00,1.51
9986.00,1.51
9985.00,1.51
9984.00,1.51
9983.00,1.51
9982.00,1.51
9981.00,1.51
9980.00,1.51
9979.00,1.51
9978.00,1.51
9977.00,1.51
9976.00,1.51
9975.00,1.52
9974.00,1.52
9973.00,1.52
9972.00,1.52
9971.00,1.52
9970.00,1.52
9969.00,1.52
9968.00,1.52
9967.00,1.52
9966.00,1.52
9965.00,1.52
9964.00,1.52
9963.00,1.52
9962.00,1.52
9961.00,1.51
9960.00,1.51
9959.00,1.51
9958.00,1.50
9957.00,1.50
9956.00,1.50
9955.00,1.49
9954.00,1.49
9953.00,1.49
9952.00,1.48
9951.00,1.48
9950.00,1.48
9949.00,1.48
9948.00,1.48
9947.00,1.48
9946.00,1.48
9945.00,1.48
9944.00,1.48
9943.00,1.48
9942.00,1.48
9941.00,1.48
9940.00,1.48
9939.00,1.48
9938.00,1.48
9937.00,1.49
9936.00,1.49
9935.00,1.49
9934.00,1.49
9933.00,1.49
9932.00,1.49
9931.00,1.49
9930.00,1.49
9929.00,1.49
9928.00,1.49
9927.00,1.49
9926.00,1.49
9925.00,1.49
9924.00,1.49
9923.00,1.49
9922.00,1.48
9921.00,1.48
9920.00,1.48
9919.00,1.48
9918.00,1.48
9917.00,1.47
9916.00,1.47
9915.00,1.47
9914.00,1.47
9913.00,1.47
9912.00,1.47
9911.00,1.48
9910.00,1.48
9909.00,1.48
9908.00,1.48
9907.00,1.49
9906.00,1.49
9905.00,1.49
9904.00,1.50
9903.00,1.50
9902.00,1.51
9901.00,1.51
9900.00,1.51
9899.00,1.52
9898.00,1.52
9897.00,1.52
9896.00,1.52
9895.00,1.52
9894.00,1.52
9893.00,1.52
9892.00,1.52
9891.00,1.52
9890.00,1.52
9889.00,1.52
9888.00,1.52
9887.00,1.52
9886.00,1.52
9885.00,1.51
9884.00,1.51
9883.00,1.51
9882.00,1.51
9881.00,1.51
9880.00,1.50
9879.00,1.50
9878.00,1.50
9877.00,1.50
9876.00,1.50
9875.00,1.50
9874.00,1.50
9873.00,1.50
9872.00,1.50
9871.00,1.50
9870.00,1.50
9869.00,1.50
9868.00,1.50
9867.00,1.50
9866.00,1.50
9865.00,1.50
9864.00,1.50
9863.00,1.50
9862.00,1.50
9861.00,1.50
9860.00,1.50
9859.00,1.50
9858.00,1.50
9857.00,1.49
9856.00,1.49
9855.00,1.49
9854.00,1.49
9853.00,1.49
9852.00,1.49
9851.00,1.49
9850.00,1.49
9849.00,1.49
9848.00,1.49
9847.00,1.49
9846.00,1.49
9845.00,1.49
9844.00,1.49
9843.00,1.49
9842.00,1.49
9841.00,1.49
9840.00,1.49
9839.00,1.50
9838.00,1.50
9837.00,1.50
9836.00,1.50
9835.00,1.51
9834.00,1.51
9833.00,1.51
9832.00,1.51
9831.00,1.52
9830.00,1.52
9829.00,1.52
9828.00,1.52
9827.00,1.53
9826.00,1.53
9825.00,1.53
9824.00,1.53
9823.00,1.53
9822.00,1.53
9821.00,1.53
9820.00,1.53
9819.00,1.52
9818.00,1.52
9817.00,1.52
9816.00,1.52
9815.00,1.52
9814.00,1.51
9813.00,1.51
9812.00,1.51
9811.00,1.51
9810.00,1.51
9809.00,1.50
9808.00,1.50
9807.00,1.50
9806.00,1.50
9805.00,1.50
9804.00,1.50
9803.00,1.50
9802.00,1.49
9801.00,1.49
9800.00,1.49
9799.00,1.49
9798.00,1.49
9797.00,1.49
9796.00,1.49
9795.00,1.48
9794.00,1.48
9793.00,1.48
9792.00,1.48
9791.00,1.48
9790.00,1.48
9789.00,1.48
9788.00,1.48
9787.00,1.48
9786.00,1.48
9785.00,1.48
9784.00,1.48
9783.00,1.48
9782.00,1.48
9781.00,1.49
9780.00,1.49
9779.00,1.50
9778.00,1.50
9777.00,1.50
9776.00,1.51
9775.00,1.51
9774.00,1.52
9773.00,1.52
9772.00,1.53
9771.00,1.53
9770.00,1.53
9769.00,1.54
9768.00,1.54
9767.00,1.54
9766.00,1.54
9765.00,1.54
9764.00,1.54
9763.00,1.54
9762.00,1.54
9761.00,1.54
9760.00,1.54
9759.00,1.54
9758.00,1.54
9757.00,1.54
9756.00,1.54
9755.00,1.54
9754.00,1.54
9753.00,1.54
9752.00,1.54
9751.00,1.54
9750.00,1.54
9749.00,1.54
9748.00,1.54
9747.00,1.54
9746.00,1.54
9745.00,1.54
9744.00,1.54
9743.00,1.53
9742.00,1.53
9741.00,1.53
9740.00,1.53
9739.00,1.53
9738.00,1.53
9737.00,1.53
9736.00,1.52
9735.00,1.52
9734.00,1.52
9733.00,1.52
9732.00,1.51
9731.00,1.51
9730.00,1.51
9729.00,1.50
9728.00,1.50
9727.00,1.50
9726.00,1.50
9725.00,1.50
9724.00,1.50
9723.00,1.49
9722.00,1.49
9721.00,1.49
9720.00,1.49
9719.00,1.49
9718.00,1.49
9717.00,1.49
9716.00,1.49
9715.00,1.49
9714.00,1.49
9713.00,1.49
9712.00,1.49
9711.00,1.50
9710.00,1.50
9709.00,1.50
9708.00,1.50
9707.00,1.50
9706.00,1.50
9705.00,1.50
9704.00,1.50
9703.00,1.50
9702.00,1.50
9701.00,1.50
9700.00,1.50
9699.00,1.50
9698.00,1.50
9697.00,1.50
9696.00,1.50
9695.00,1.50
9694.00,1.50
9693.00,1.50
9692.00,1.50
9691.00,1.50
9690.00,1.50
9689.00,1.50
9688.00,1.50
9687.00,1.50
9686.00,1.50
9685.00,1.49
9684.00,1.49
9683.00,1.49
9682.00,1.49
9681.00,1.49
9680.00,1.49
9679.00,1.49
9678.00,1.49
9677.00,1.49
9676.00,1.49
9675.00,1.50
9674.00,1.50
9673.00,1.50
9672.00,1.50
9671.00,1.50
9670.00,1.50
9669.00,1.51
9668.00,1.51
9667.00,1.51
9666.00,1.51
9665.00,1.52
9664.00,1.52
9663.00,1.52
9662.00,1.52
9661.00,1.52
9660.00,1.53
9659.00,1.53
9658.00,1.53
9657.00,1.53
9656.00,1.53
9655.00,1.53
9654.00,1.53
9653.00,1.53
9652.00,1.53
9651.00,1.53
9650.00,1.53
9649.00,1.52
9648.00,1.52
9647.00,1.52
9646.00,1.52
9645.00,1.52
9644.00,1.52
9643.00,1.52
9642.00,1.51
9641.00,1.51
9640.00,1.51
9639.00,1.51
9638.00,1.51
9637.00,1.51
9636.00,1.51
9635.00,1.51
9634.00,1.51
9633.00,1.50
9632.00,1.50
9631.00,1.50
9630.00,1.50
9629.00,1.50
9628.00,1.50
9627.00,1.50
9626.00,1.50
9625.00,1.50
9624.00,1.50
9623.00,1.50
9622.00,1.50
9621.00,1.50
9620.00,1.50
9619.00,1.50
9618.00,1.50
9617.00,1.50
9616.00,1.50
9615.00,1.50
9614.00,1.50
9613.00,1.49
9612.00,1.49
9611.00,1.49
9610.00,1.49
9609.00,1.49
9608.00,1.49
9607.00,1.49
9606.00,1.49
9605.00,1.49
9604.00,1.49
9603.00,1.49
9602.00,1.49
9601.00,1.49
9600.00,1.50
9599.00,1.50
9598.00,1.50
9597.00,1.50
9596.00,1.50
9595.00,1.50
9594.00,1.50
9593.00,1.50
9592.00,1.50
9591.00,1.50
9590.00,1.50
9589.00,1.50
9588.00,1.50
9587.00,1.50
9586.00,1.50
9585.00,1.49
9584.00,1.49
9583.00,1.49
9582.00,1.49
9581.00,1.49
9580.00,1.49
9579.00,1.49
9578.00,1.49
9577.00,1.49
9576.00,1.49
9575.00,1.49
9574.00,1.49
9573.00,1.49
9572.00,1.49
9571.00,1.49
9570.00,1.49
9569.00,1.49
9568.00,1.49
9567.00,1.49
9566.00,1.49
9565.00,1.49
9564.00,1.49
9563.00,1.49
9562.00,1.49
9561.00,1.49
9560.00,1.49
9559.00,1.49
9558.00,1.49
9557.00,1.49
9556.00,1.49
9555.00,1.49
9554.00,1.49
9553.00,1.49
9552.00,1.49
9551.00,1.49
9550.00,1.49
9549.00,1.49
9548.00,1.49
9547.00,1.49
9546.00,1.49
9545.00,1.49
9544.00,1.49
9543.00,1.49
9542.00,1.49
9541.00,1.49
9540.00,1.49
9539.00,1.49
9538.00,1.49
9537.00,1.49
9536.00,1.49
9535.00,1.49
9534.00,1.49
9533.00,1.49
9532.00,1.49
9531.00,1.49
9530.00,1.49
9529.00,1.49
9528.00,1.49
9527.00,1.49
9526.00,1.49
9525.00,1.49
9524.00,1.49
9523.00,1.49
9522.00,1.49
9521.00,1.49
9520.00,1.49
9519.00,1.49
9518.00,1.49
9517.00,1.49
9516.00,1.49
9515.00,1.49
9514.00,1.49
9513.00,1.49
9512.00,1.49
9511.00,1.49
9510.00,1.49
9509.00,1.49
9508.00,1.49
9507.00,1.49
9506.00,1.49
9505.00,1.49
9504.00,1.49
9503.00,1.49
9502.00,1.49
9501.00,1.49
9500.00,1.49
9499.00,1.49
9498.00,1.49
9497.00,1.49
9496.00,1.49
9495.00,1.49
9494.00,1.49
9493.00,1.49
9492.00,1.49
9491.00,1.49
9490.00,1.49
9489.00,1.49
9488.00,1.49
9487.00,1.49
9486.00,1.49
9485.00,1.49
9484.00,1.49
9483.00,1.49
9482.00,1.49
9481.00,1.49
9480.00,1.49
9479.00,1.49
9478.00,1.49
9477.00,1.49
9476.00,1.49
9475.00,1.49
9474.00,1.49
9473.00,1.49
9472.00,1.49
9471.00,1.49
9470.00,1.49
9469.00,1.49
9468.00,1.50
9467.00,1.50
9466.00,1.50
9465.00,1.50
9464.00,1.51
9463.00,1.51
9462.00,1.52
9461.00,1.52
9460.00,1.52
9459.00,1.53
9458.00,1.53
9457.00,1.53
9456.00,1.54
9455.00,1.54
9454.00,1.54
9453.00,1.54
9452.00,1.54
9451.00,1.54
9450.00,1.54
9449.00,1.54
9448.00,1.54
9447.00,1.54
9446.00,1.54
9445.00,1.54
9444.00,1.54
9443.00,1.54
9442.00,1.53
9441.00,1.53
9440.00,1.53
9439.00,1.53
9438.00,1.52
9437.00,1.52
9436.00,1.52
9435.00,1.52
9434.00,1.51
9433.00,1.51
9432.00,1.51
9431.00,1.51
9430.00,1.51
9429.00,1.50
9428.00,1.50
9427.00,1.50
9426.00,1.50
9425.00,1.50
9424.00,1.50
9423.00,1.51
9422.00,1.51
9421.00,1.51
9420.00,1.51
9419.00,1.51
9418.00,1.51
9417.00,1.51
9416.00,1.51
9415.00,1.52
9414.00,1.52
9413.00,1.52
9412.00,1.52
9411.00,1.52
9410.00,1.52
9409.00,1.52
9408.00,1.52
9407.00,1.52
9406.00,1.52
9405.00,1.51
9404.00,1.51
9403.00,1.51
9402.00,1.51
9401.00,1.51
9400.00,1.51
9399.00,1.51
9398.00,1.51
9397.00,1.51
9396.00,1.50
9395.00,1.50
9394.00,1.50
9393.00,1.50
9392.00,1.50
9391.00,1.50
9390.00,1.50
9389.00,1.51
9388.00,1.51
9387.00,1.51
9386.00,1.51
9385.00,1.51
9384.00,1.51
9383.00,1.51
9382.00,1.52
9381.00,1.52
9380.00,1.52
9379.00,1.52
9378.00,1.52
9377.00,1.52
9376.00,1.52
9375.00,1.52
9374.00,1.53
9373.00,1.53
9372.00,1.52
9371.00,1.52
9370.00,1.52
9369.00,1.52
9368.00,1.52
9367.00,1.52
9366.00,1.52
9365.00,1.52
9364.00,1.52
9363.00,1.51
9362.00,1.51
9361.00,1.51
9360.00,1.51
9359.00,1.51
9358.00,1.51
9357.00,1.50
9356.00,1.50
9355.00,1.50
9354.00,1.50
9353.00,1.50
9352.00,1.50
9351.00,1.49
9350.00,1.49
9349.00,1.49
9348.00,1.49
9347.00,1.49
9346.00,1.48
9345.00,1.48
9344.00,1.48
9343.00,1.48
9342.00,1.48
9341.00,1.48
9340.00,1.47
9339.00,1.47
9338.00,1.47
9337.00,1.47
9336.00,1.47
9335.00,1.47
9334.00,1.47
9333.00,1.47
9332.00,1.48
9331.00,1.48
9330.00,1.48
9329.00,1.49
9328.00,1.49
9327.00,1.49
9326.00,1.50
9325.00,1.50
9324.00,1.51
9323.00,1.51
9322.00,1.51
9321.00,1.51
9320.00,1.51
9319.00,1.52
9318.00,1.52
9317.00,1.52
9316.00,1.52
9315.00,1.52
9314.00,1.51
9313.00,1.51
9312.00,1.51
9311.00,1.51
9310.00,1.51
9309.00,1.51
9308.00,1.51
9307.00,1.50
9306.00,1.50
9305.00,1.50
9304.00,1.50
9303.00,1.50
9302.00,1.50
9301.00,1.50
9300.00,1.50
9299.00,1.50
9298.00,1.49
9297.00,1.49
9296.00,1.49
9295.00,1.49
9294.00,1.49
9293.00,1.49
9292.00,1.49
9291.00,1.49
9290.00,1.49
9289.00,1.49
9288.00,1.49
9287.00,1.49
9286.00,1.49
9285.00,1.49
9284.00,1.49
9283.00,1.50
9282.00,1.50
9281.00,1.50
9280.00,1.50
9279.00,1.50
9278.00,1.50
9277.00,1.50
9276.00,1.51
9275.00,1.51
9274.00,1.51
9273.00,1.51
9272.00,1.51
9271.00,1.51
9270.00,1.51
9269.00,1.52
9268.00,1.52
9267.00,1.52
9266.00,1.52
9265.00,1.52
9264.00,1.52
9263.00,1.52
9262.00,1.52
9261.00,1.52
9260.00,1.52
9259.00,1.52
9258.00,1.52
9257.00,1.52
9256.00,1.52
9255.00,1.52
9254.00,1.52
9253.00,1.52
9252.00,1.52
9251.00,1.52
9250.00,1.52
9249.00,1.52
9248.00,1.52
9247.00,1.51
9246.00,1.51
9245.00,1.51
9244.00,1.51
9243.00,1.51
9242.00,1.51
9241.00,1.51
9240.00,1.51
9239.00,1.51
9238.00,1.51
9237.00,1.51
9236.00,1.51
9235.00,1.51
9234.00,1.51
9233.00,1.51
9232.00,1.51
9231.00,1.51
9230.00,1.51
9229.00,1.51
9228.00,1.51
9227.00,1.51
9226.00,1.51
9225.00,1.51
9224.00,1.51
9223.00,1.51
9222.00,1.51
9221.00,1.51
9220.00,1.51
9219.00,1.51
9218.00,1.51
9217.00,1.51
9216.00,1.51
9215.00,1.51
9214.00,1.51
9213.00,1.51
9212.00,1.51
9211.00,1.51
9210.00,1.51
9209.00,1.51
9208.00,1.51
9207.00,1.51
9206.00,1.51
9205.00,1.51
9204.00,1.51
9203.00,1.51
9202.00,1.51
9201.00,1.51
9200.00,1.51
9199.00,1.51
9198.00,1.52
9197.00,1.52
9196.00,1.52
9195.00,1.52
9194.00,1.52
9193.00,1.53
9192.00,1.53
9191.00,1.53
9190.00,1.53
9189.00,1.54
9188.00,1.54
9187.00,1.54
9186.00,1.54
9185.00,1.54
9184.00,1.54
9183.00,1.54
9182.00,1.54
9181.00,1.53
9180.00,1.53
9179.00,1.53
9178.00,1.53
9177.00,1.52
9176.00,1.52
9175.00,1.52
9174.00,1.52
9173.00,1.51
9172.00,1.51
9171.00,1.51
9170.00,1.51
9169.00,1.51
9168.00,1.51
9167.00,1.51
9166.00,1.51
9165.00,1.51
9164.00,1.51
9163.00,1.51
9162.00,1.51
9161.00,1.51
9160.00,1.51
9159.00,1.51
9158.00,1.51
9157.00,1.52
9156.00,1.52
9155.00,1.52
9154.00,1.52
9153.00,1.52
9152.00,1.52
9151.00,1.51
9150.00,1.51
9149.00,1.51
9148.00,1.51
9147.00,1.51
9146.00,1.51
9145.00,1.51
9144.00,1.51
9143.00,1.51
9142.00,1.51
9141.00,1.51
9140.00,1.51
9139.00,1.50
9138.00,1.50
9137.00,1.50
9136.00,1.50
9135.00,1.50
9134.00,1.50
9133.00,1.50
9132.00,1.50
9131.00,1.50
9130.00,1.50
9129.00,1.50
9128.00,1.51
9127.00,1.51
9126.00,1.51
9125.00,1.51
9124.00,1.51
9123.00,1.51
9122.00,1.51
9121.00,1.51
9120.00,1.51
9119.00,1.52
9118.00,1.52
9117.00,1.52
9116.00,1.52
9115.00,1.52
9114.00,1.52
9113.00,1.52
9112.00,1.52
9111.00,1.52
9110.00,1.52
9109.00,1.52
9108.00,1.52
9107.00,1.52
9106.00,1.52
9105.00,1.52
9104.00,1.52
9103.00,1.53
9102.00,1.53
9101.00,1.53
9100.00,1.53
9099.00,1.53
9098.00,1.53
9097.00,1.53
9096.00,1.54
9095.00,1.54
9094.00,1.54
9093.00,1.54
9092.00,1.54
9091.00,1.54
9090.00,1.54
9089.00,1.54
9088.00,1.54
9087.00,1.54
9086.00,1.54
9085.00,1.54
9084.00,1.54
9083.00,1.54
9082.00,1.54
9081.00,1.54
9080.00,1.54
9079.00,1.54
9078.00,1.54
9077.00,1.54
9076.00,1.54
9075.00,1.54
9074.00,1.54
9073.00,1.54
9072.00,1.54
9071.00,1.54
9070.00,1.54
9069.00,1.54
9068.00,1.54
9067.00,1.54
9066.00,1.54
9065.00,1.54
9064.00,1.54
9063.00,1.54
9062.00,1.53
9061.00,1.53
9060.00,1.53
9059.00,1.53
9058.00,1.53
9057.00,1.53
9056.00,1.52
9055.00,1.52
9054.00,1.52
9053.00,1.52
9052.00,1.52
9051.00,1.52
9050.00,1.52
9049.00,1.52
9048.00,1.52
9047.00,1.52
9046.00,1.52
9045.00,1.52
9044.00,1.52
9043.00,1.52
9042.00,1.52
9041.00,1.53
9040.00,1.53
9039.00,1.53
9038.00,1.53
9037.00,1.53
9036.00,1.53
9035.00,1.53
9034.00,1.53
9033.00,1.53
9032.00,1.53
9031.00,1.53
9030.00,1.53
9029.00,1.53
9028.00,1.53
9027.00,1.53
9026.00,1.53
9025.00,1.53
9024.00,1.53
9023.00,1.53
9022.00,1.53
9021.00,1.53
9020.00,1.53
9019.00,1.53
9018.00,1.53
9017.00,1.53
9016.00,1.53
9015.00,1.53
9014.00,1.53
9013.00,1.53
9012.00,1.53
9011.00,1.53
9010.00,1.53
9009.00,1.53
9008.00,1.53
9007.00,1.53
9006.00,1.53
9005.00,1.53
9004.00,1.52
9003.00,1.52
9002.00,1.52
9001.00,1.52
9000.00,1.52
8999.00,1.52
8998.00,1.52
8997.00,1.52
8996.00,1.52
8995.00,1.52
8994.00,1.52
8993.00,1.51
8992.00,1.51
8991.00,1.51
8990.00,1.51
8989.00,1.51
8988.00,1.51
8987.00,1.51
8986.00,1.51
8985.00,1.51
8984.00,1.51
8983.00,1.51
8982.00,1.51
8981.00,1.51
8980.00,1.51
8979.00,1.51
8978.00,1.51
8977.00,1.52
8976.00,1.52
8975.00,1.52
8974.00,1.52
8973.00,1.52
8972.00,1.52
8971.00,1.52
8970.00,1.52
8969.00,1.53
8968.00,1.53
8967.00,1.53
8966.00,1.53
8965.00,1.53
8964.00,1.53
8963.00,1.53
8962.00,1.53
8961.00,1.53
8960.00,1.53
8959.00,1.53
8958.00,1.53
8957.00,1.53
8956.00,1.53
8955.00,1.53
8954.00,1.53
8953.00,1.53
8952.00,1.54
8951.00,1.54
8950.00,1.54
8949.00,1.54
8948.00,1.54
8947.00,1.54
8946.00,1.54
8945.00,1.54
8944.00,1.54
8943.00,1.54
8942.00,1.54
8941.00,1.54
8940.00,1.54
8939.00,1.54
8938.00,1.54
8937.00,1.54
8936.00,1.54
8935.00,1.54
8934.00,1.53
8933.00,1.53
8932.00,1.53
8931.00,1.53
8930.00,1.53
8929.00,1.53
8928.00,1.53
8927.00,1.52
8926.00,1.52
8925.00,1.52
8924.00,1.52
8923.00,1.52
8922.00,1.52
8921.00,1.52
8920.00,1.52
8919.00,1.52
8918.00,1.52
8917.00,1.52
8916.00,1.52
8915.00,1.52
8914.00,1.52
8913.00,1.53
8912.00,1.53
8911.00,1.53
8910.00,1.53
8909.00,1.53
8908.00,1.53
8907.00,1.53
8906.00,1.53
8905.00,1.53
8904.00,1.53
8903.00,1.53
8902.00,1.53
8901.00,1.53
8900.00,1.53
8899.00,1.53
8898.00,1.53
8897.00,1.53
8896.00,1.53
8895.00,1.53
8894.00,1.53
8893.00,1.53
8892.00,1.53
8891.00,1.53
8890.00,1.53
8889.00,1.53
8888.00,1.52
8887.00,1.52
8886.00,1.52
8885.00,1.52
8884.00,1.52
8883.00,1.52
8882.00,1.52
8881.00,1.52
8880.00,1.52
8879.00,1.52
8878.00,1.52
8877.00,1.52
8876.00,1.52
8875.00,1.52
8874.00,1.52
8873.00,1.52
8872.00,1.52
8871.00,1.52
8870.00,1.52
8869.00,1.52
8868.00,1.52
8867.00,1.53
8866.00,1.53
8865.00,1.53
8864.00,1.53
8863.00,1.53
8862.00,1.53
8861.00,1.53
8860.00,1.53
8859.00,1.53
8858.00,1.53
8857.00,1.53
8856.00,1.53
8855.00,1.53
8854.00,1.53
8853.00,1.53
8852.00,1.53
8851.00,1.52
8850.00,1.52
8849.00,1.52
8848.00,1.52
8847.00,1.52
8846.00,1.52
8845.00,1.51
8844.00,1.51
8843.00,1.51
8842.00,1.51
8841.00,1.51
8840.00,1.50
8839.00,1.50
8838.00,1.50
8837.00,1.50
8836.00,1.49
8835.00,1.49
8834.00,1.49
8833.00,1.49
8832.00,1.49
8831.00,1.49
8830.00,1.49
8829.00,1.49
8828.00,1.49
8827.00,1.49
8826.00,1.49
8825.00,1.50
8824.00,1.50
8823.00,1.50
8822.00,1.50
8821.00,1.50
8820.00,1.50
8819.00,1.50
8818.00,1.50
8817.00,1.50
8816.00,1.50
8815.00,1.50
8814.00,1.50
8813.00,1.50
8812.00,1.50
8811.00,1.50
8810.00,1.50
8809.00,1.50
8808.00,1.50
8807.00,1.50
8806.00,1.50
8805.00,1.50
8804.00,1.50
8803.00,1.50
8802.00,1.50
8801.00,1.50
8800.00,1.50
8799.00,1.50
8798.00,1.50
8797.00,1.50
8796.00,1.50
8795.00,1.50
8794.00,1.50
8793.00,1.50
8792.00,1.50
8791.00,1.50
8790.00,1.50
8789.00,1.50
8788.00,1.50
8787.00,1.50
8786.00,1.50
8785.00,1.50
8784.00,1.50
8783.00,1.50
8782.00,1.50
8781.00,1.50
8780.00,1.50
8779.00,1.49
8778.00,1.49
8777.00,1.49
8776.00,1.49
8775.00,1.49
8774.00,1.49
8773.00,1.49
8772.00,1.48
8771.00,1.48
8770.00,1.48
8769.00,1.48
8768.00,1.48
8767.00,1.48
8766.00,1.48
8765.00,1.47
8764.00,1.47
8763.00,1.47
8762.00,1.47
8761.00,1.47
8760.00,1.47
8759.00,1.47
8758.00,1.47
8757.00,1.46
8756.00,1.46
8755.00,1.46
8754.00,1.46
8753.00,1.46
8752.00,1.46
8751.00,1.46
8750.00,1.46
8749.00,1.45
8748.00,1.45
8747.00,1.45
8746.00,1.45
8745.00,1.45
8744.00,1.45
8743.00,1.46
8742.00,1.46
8741.00,1.46
8740.00,1.46
8739.00,1.46
8738.00,1.46
8737.00,1.46
8736.00,1.47
8735.00,1.47
8734.00,1.47
8733.00,1.47
8732.00,1.47
8731.00,1.47
8730.00,1.47
8729.00,1.47
8728.00,1.47
8727.00,1.47
8726.00,1.47
8725.00,1.47
8724.00,1.47
8723.00,1.46
8722.00,1.46
8721.00,1.46
8720.00,1.45
8719.00,1.45
8718.00,1.45
8717.00,1.45
8716.00,1.44
8715.00,1.44
8714.00,1.44
8713.00,1.44
8712.00,1.44
8711.00,1.44
8710.00,1.44
8709.00,1.44
8708.00,1.44
8707.00,1.44
8706.00,1.44
8705.00,1.44
8704.00,1.44
8703.00,1.44
8702.00,1.44
8701.00,1.44
8700.00,1.44
8699.00,1.44
8698.00,1.44
8697.00,1.44
8696.00,1.44
8695.00,1.44
8694.00,1.44
8693.00,1.44
8692.00,1.44
8691.00,1.44
8690.00,1.44
8689.00,1.44
8688.00,1.45
8687.00,1.45
8686.00,1.45
8685.00,1.45
8684.00,1.45
8683.00,1.45
8682.00,1.45
8681.00,1.45
8680.00,1.45
8679.00,1.45
8678.00,1.45
8677.00,1.45
8676.00,1.45
8675.00,1.45
8674.00,1.45
8673.00,1.45
8672.00,1.44
8671.00,1.44
8670.00,1.44
8669.00,1.44
8668.00,1.44
8667.00,1.44
8666.00,1.44
8665.00,1.44
8664.00,1.44
8663.00,1.44
8662.00,1.44
8661.00,1.44
8660.00,1.44
8659.00,1.44
8658.00,1.44
8657.00,1.44
8656.00,1.44
8655.00,1.44
8654.00,1.44
8653.00,1.44
8652.00,1.44
8651.00,1.44
8650.00,1.44
8649.00,1.44
8648.00,1.44
8647.00,1.44
8646.00,1.44
8645.00,1.44
8644.00,1.44
8643.00,1.44
8642.00,1.44
8641.00,1.44
8640.00,1.44
8639.00,1.44
8638.00,1.44
8637.00,1.44
8636.00,1.44
8635.00,1.44
8634.00,1.44
8633.00,1.43
8632.00,1.43
8631.00,1.43
8630.00,1.43
8629.00,1.43
8628.00,1.43
8627.00,1.43
8626.00,1.43
8625.00,1.43
8624.00,1.43
8623.00,1.43
8622.00,1.43
8621.00,1.43
8620.00,1.43
8619.00,1.43
8618.00,1.43
8617.00,1.43
8616.00,1.44
8615.00,1.44
8614.00,1.44
8613.00,1.44
8612.00,1.44
8611.00,1.44
8610.00,1.45
8609.00,1.45
8608.00,1.45
8607.00,1.45
8606.00,1.45
8605.00,1.45
8604.00,1.45
8603.00,1.45
8602.00,1.45
8601.00,1.45
8600.00,1.45
8599.00,1.44
8598.00,1.44
8597.00,1.44
8596.00,1.44
8595.00,1.43
8594.00,1.43
8593.00,1.43
8592.00,1.42
8591.00,1.42
8590.00,1.42
8589.00,1.41
8588.00,1.41
8587.00,1.41
8586.00,1.40
8585.00,1.40
8584.00,1.40
8583.00,1.40
8582.00,1.40
8581.00,1.40
8580.00,1.40
8579.00,1.40
8578.00,1.40
8577.00,1.40
8576.00,1.40
8575.00,1.40
8574.00,1.40
8573.00,1.40
8572.00,1.40
8571.00,1.40
8570.00,1.40
8569.00,1.40
8568.00,1.40
8567.00,1.40
8566.00,1.40
8565.00,1.40
8564.00,1.41
8563.00,1.41
8562.00,1.41
8561.00,1.41
8560.00,1.40
8559.00,1.40
8558.00,1.40
8557.00,1.40
8556.00,1.40
8555.00,1.40
8554.00,1.40
8553.00,1.40
8552.00,1.40
8551.00,1.40
8550.00,1.40
8549.00,1.40
8548.00,1.39
8547.00,1.39
8546.00,1.39
8545.00,1.39
8544.00,1.39
8543.00,1.38
8542.00,1.38
8541.00,1.38
8540.00,1.38
8539.00,1.38
8538.00,1.38
8537.00,1.37
8536.00,1.37
8535.00,1.37
8534.00,1.37
8533.00,1.37
8532.00,1.37
8531.00,1.37
8530.00,1.37
8529.00,1.37
8528.00,1.37
8527.00,1.37
8526.00,1.36
8525.00,1.36
8524.00,1.36
8523.00,1.36
8522.00,1.36
8521.00,1.36
8520.00,1.36
8519.00,1.36
8518.00,1.36
8517.00,1.36
8516.00,1.36
8515.00,1.36
8514.00,1.36
8513.00,1.36
8512.00,1.36
8511.00,1.36
8510.00,1.35
8509.00,1.35
8508.00,1.35
8507.00,1.35
8506.00,1.35
8505.00,1.35
8504.00,1.35
8503.00,1.35
8502.00,1.35
8501.00,1.35
8500.00,1.35
8499.00,1.35
8498.00,1.35
8497.00,1.35
8496.00,1.35
8495.00,1.35
8494.00,1.35
8493.00,1.35
8492.00,1.35
8491.00,1.35
8490.00,1.35
8489.00,1.35
8488.00,1.35
8487.00,1.35
8486.00,1.35
8485.00,1.35
8484.00,1.35
8483.00,1.35
8482.00,1.35
8481.00,1.35
8480.00,1.35
8479.00,1.35
8478.00,1.34
8477.00,1.34
8476.00,1.34
8475.00,1.34
8474.00,1.34
8473.00,1.34
8472.00,1.34
8471.00,1.34
8470.00,1.34
8469.00,1.34
8468.00,1.34
8467.00,1.33
8466.00,1.33
8465.00,1.33
8464.00,1.33
8463.00,1.33
8462.00,1.32
8461.00,1.32
8460.00,1.32
8459.00,1.32
8458.00,1.32
8457.00,1.31
8456.00,1.31
8455.00,1.31
8454.00,1.31
8453.00,1.31
8452.00,1.31
8451.00,1.30
8450.00,1.30
8449.00,1.30
8448.00,1.30
8447.00,1.30
8446.00,1.30
8445.00,1.30
8444.00,1.30
8443.00,1.30
8442.00,1.30
8441.00,1.30
8440.00,1.30
8439.00,1.30
8438.00,1.30
8437.00,1.30
8436.00,1.30
8435.00,1.30
8434.00,1.30
8433.00,1.30
8432.00,1.30
8431.00,1.30
8430.00,1.30
8429.00,1.31
8428.00,1.31
8427.00,1.31
8426.00,1.31
8425.00,1.31
8424.00,1.31
8423.00,1.31
8422.00,1.32
8421.00,1.32
8420.00,1.32
8419.00,1.32
8418.00,1.32
8417.00,1.32
8416.00,1.32
8415.00,1.32
8414.00,1.32
8413.00,1.32
8412.00,1.32
8411.00,1.32
8410.00,1.32
8409.00,1.32
8408.00,1.32
8407.00,1.32
8406.00,1.32
8405.00,1.32
8404.00,1.32
8403.00,1.33
8402.00,1.33
8401.00,1.33
8400.00,1.33
8399.00,1.33
8398.00,1.33
8397.00,1.33
8396.00,1.33
8395.00,1.34
8394.00,1.34
8393.00,1.34
8392.00,1.34
8391.00,1.34
8390.00,1.34
8389.00,1.34
8388.00,1.34
8387.00,1.35
8386.00,1.35
8385.00,1.35
8384.00,1.35
8383.00,1.35
8382.00,1.35
8381.00,1.35
8380.00,1.35
8379.00,1.35
8378.00,1.35
8377.00,1.35
8376.00,1.35
8375.00,1.35
8374.00,1.35
8373.00,1.35
8372.00,1.35
8371.00,1.35
8370.00,1.35
8369.00,1.35
8368.00,1.35
8367.00,1.35
8366.00,1.35
8365.00,1.35
8364.00,1.36
8363.00,1.36
8362.00,1.36
8361.00,1.36
8360.00,1.36
8359.00,1.36
8358.00,1.36
8357.00,1.36
8356.00,1.37
8355.00,1.37
8354.00,1.37
8353.00,1.37
8352.00,1.37
8351.00,1.37
8350.00,1.37
8349.00,1.37
8348.00,1.37
8347.00,1.37
8346.00,1.37
8345.00,1.37
8344.00,1.36
8343.00,1.36
8342.00,1.36
8341.00,1.36
8340.00,1.36
8339.00,1.36
8338.00,1.36
8337.00,1.37
8336.00,1.37
8335.00,1.37
8334.00,1.37
8333.00,1.37
8332.00,1.37
8331.00,1.37
8330.00,1.37
8329.00,1.37
8328.00,1.37
8327.00,1.37
8326.00,1.37
8325.00,1.37
8324.00,1.37
8323.00,1.37
8322.00,1.37
8321.00,1.37
8320.00,1.37
8319.00,1.37
8318.00,1.37
8317.00,1.37
8316.00,1.37
8315.00,1.37
8314.00,1.37
8313.00,1.37
8312.00,1.37
8311.00,1.37
8310.00,1.37
8309.00,1.37
8308.00,1.37
8307.00,1.37
8306.00,1.37
8305.00,1.37
8304.00,1.37
8303.00,1.37
8302.00,1.37
8301.00,1.37
8300.00,1.37
8299.00,1.37
8298.00,1.37
8297.00,1.37
8296.00,1.37
8295.00,1.37
8294.00,1.37
8293.00,1.37
8292.00,1.37
8291.00,1.37
8290.00,1.37
8289.00,1.37
8288.00,1.37
8287.00,1.37
8286.00,1.37
8285.00,1.37
8284.00,1.38
8283.00,1.38
8282.00,1.38
8281.00,1.38
8280.00,1.38
8279.00,1.38
8278.00,1.38
8277.00,1.38
8276.00,1.39
8275.00,1.39
8274.00,1.39
8273.00,1.39
8272.00,1.39
8271.00,1.39
8270.00,1.39
8269.00,1.39
8268.00,1.39
8267.00,1.39
8266.00,1.39
8265.00,1.39
8264.00,1.39
8263.00,1.39
8262.00,1.39
8261.00,1.39
8260.00,1.39
8259.00,1.39
8258.00,1.39
8257.00,1.39
8256.00,1.39
8255.00,1.39
8254.00,1.39
8253.00,1.39
8252.00,1.39
8251.00,1.39
8250.00,1.40
8249.00,1.40
8248.00,1.40
8247.00,1.40
8246.00,1.40
8245.00,1.40
8244.00,1.40
8243.00,1.40
8242.00,1.41
8241.00,1.41
8240.00,1.41
8239.00,1.41
8238.00,1.41
8237.00,1.41
8236.00,1.41
8235.00,1.41
8234.00,1.41
8233.00,1.41
8232.00,1.42
8231.00,1.42
8230.00,1.42
8229.00,1.42
8228.00,1.42
8227.00,1.42
8226.00,1.42
8225.00,1.42
8224.00,1.42
8223.00,1.42
8222.00,1.42
8221.00,1.42
8220.00,1.42
8219.00,1.42
8218.00,1.42
8217.00,1.42
8216.00,1.42
8215.00,1.42
8214.00,1.42
8213.00,1.42
8212.00,1.42
8211.00,1.42
8210.00,1.42
8209.00,1.42
8208.00,1.42
8207.00,1.42
8206.00,1.42
8205.00,1.42
8204.00,1.43
8203.00,1.43
8202.00,1.43
8201.00,1.43
8200.00,1.43
8199.00,1.43
8198.00,1.43
8197.00,1.43
8196.00,1.43
8195.00,1.43
8194.00,1.44
8193.00,1.44
8192.00,1.44
8191.00,1.44
8190.00,1.44
8189.00,1.44
8188.00,1.44
8187.00,1.43
8186.00,1.43
8185.00,1.43
8184.00,1.43
8183.00,1.43
8182.00,1.43
8181.00,1.43
8180.00,1.43
8179.00,1.44
8178.00,1.44
8177.00,1.44
8176.00,1.44
8175.00,1.44
8174.00,1.44
8173.00,1.44
8172.00,1.44
8171.00,1.44
8170.00,1.44
8169.00,1.44
8168.00,1.44
8167.00,1.44
8166.00,1.44
8165.00,1.44
8164.00,1.44
8163.00,1.44
8162.00,1.44
8161.00,1.44
8160.00,1.44
8159.00,1.44
8158.00,1.44
8157.00,1.44
8156.00,1.44
8155.00,1.44
8154.00,1.44
8153.00,1.44
8152.00,1.44
8151.00,1.45
8150.00,1.45
8149.00,1.45
8148.00,1.45
8147.00,1.45
8146.00,1.45
8145.00,1.45
8144.00,1.45
8143.00,1.45
8142.00,1.45
8141.00,1.45
8140.00,1.45
8139.00,1.45
8138.00,1.45
8137.00,1.45
8136.00,1.45
8135.00,1.45
8134.00,1.45
8133.00,1.45
8132.00,1.44
8131.00,1.44
8130.00,1.44
8129.00,1.44
8128.00,1.44
8127.00,1.44
8126.00,1.44
8125.00,1.44
8124.00,1.44
8123.00,1.44
8122.00,1.44
8121.00,1.44
8120.00,1.44
8119.00,1.44
8118.00,1.44
8117.00,1.44
8116.00,1.44
8115.00,1.44
8114.00,1.44
8113.00,1.44
8112.00,1.44
8111.00,1.44
8110.00,1.45
8109.00,1.45
8108.00,1.45
8107.00,1.45
8106.00,1.45
8105.00,1.46
8104.00,1.46
8103.00,1.46
8102.00,1.46
8101.00,1.46
8100.00,1.46
8099.00,1.46
8098.00,1.46
8097.00,1.46
8096.00,1.46
8095.00,1.47
8094.00,1.47
8093.00,1.47
8092.00,1.47
8091.00,1.47
8090.00,1.47
8089.00,1.47
8088.00,1.47
8087.00,1.47
8086.00,1.47
8085.00,1.47
8084.00,1.47
8083.00,1.47
8082.00,1.47
8081.00,1.47
8080.00,1.47
8079.00,1.47
8078.00,1.47
8077.00,1.47
8076.00,1.47
8075.00,1.47
8074.00,1.47
8073.00,1.47
8072.00,1.47
8071.00,1.47
8070.00,1.47
8069.00,1.47
8068.00,1.46
8067.00,1.46
8066.00,1.46
8065.00,1.46
8064.00,1.46
8063.00,1.46
8062.00,1.46
8061.00,1.46
8060.00,1.46
8059.00,1.46
8058.00,1.46
8057.00,1.46
8056.00,1.46
8055.00,1.46
8054.00,1.46
8053.00,1.46
8052.00,1.46
8051.00,1.46
8050.00,1.47
8049.00,1.47
8048.00,1.47
8047.00,1.47
8046.00,1.47
8045.00,1.47
8044.00,1.47
8043.00,1.47
8042.00,1.47
8041.00,1.47
8040.00,1.47
8039.00,1.48
8038.00,1.48
8037.00,1.48
8036.00,1.48
8035.00,1.48
8034.00,1.48
8033.00,1.49
8032.00,1.49
8031.00,1.49
8030.00,1.49
8029.00,1.49
8028.00,1.49
8027.00,1.49
8026.00,1.50
8025.00,1.50
8024.00,1.50
8023.00,1.50
8022.00,1.50
8021.00,1.50
8020.00,1.50
8019.00,1.50
8018.00,1.50
8017.00,1.50
8016.00,1.49
8015.00,1.49
8014.00,1.49
8013.00,1.49
8012.00,1.49
8011.00,1.49
8010.00,1.49
8009.00,1.49
8008.00,1.49
8007.00,1.49
8006.00,1.49
8005.00,1.49
8004.00,1.49
8003.00,1.49
8002.00,1.49
8001.00,1.49
8000.00,1.49
7999.00,1.49
7998.00,1.49
7997.00,1.50
7996.00,1.50
7995.00,1.50
7994.00,1.50
7993.00,1.50
7992.00,1.50
7991.00,1.50
7990.00,1.50
7989.00,1.50
7988.00,1.50
7987.00,1.50
7986.00,1.50
7985.00,1.50
7984.00,1.50
7983.00,1.50
7982.00,1.50
7981.00,1.50
7980.00,1.50
7979.00,1.50
7978.00,1.50
7977.00,1.50
7976.00,1.50
7975.00,1.50
7974.00,1.49
7973.00,1.49
7972.00,1.49
7971.00,1.49
7970.00,1.49
7969.00,1.49
7968.00,1.49
7967.00,1.49
7966.00,1.49
7965.00,1.49
7964.00,1.49
7963.00,1.49
7962.00,1.49
7961.00,1.49
7960.00,1.49
7959.00,1.49
7958.00,1.49
7957.00,1.49
7956.00,1.49
7955.00,1.49
7954.00,1.49
7953.00,1.49
7952.00,1.49
7951.00,1.50
7950.00,1.50
7949.00,1.50
7948.00,1.50
7947.00,1.50
7946.00,1.50
7945.00,1.50
7944.00,1.50
7943.00,1.50
7942.00,1.50
7941.00,1.50
7940.00,1.50
7939.00,1.50
7938.00,1.50
7937.00,1.50
7936.00,1.50
7935.00,1.50
7934.00,1.50
7933.00,1.50
7932.00,1.50
7931.00,1.50
7930.00,1.50
7929.00,1.50
7928.00,1.51
7927.00,1.51
7926.00,1.51
7925.00,1.51
7924.00,1.51
7923.00,1.51
7922.00,1.51
7921.00,1.51
7920.00,1.51
7919.00,1.51
7918.00,1.51
7917.00,1.51
7916.00,1.51
7915.00,1.51
7914.00,1.51
7913.00,1.51
7912.00,1.51
7911.00,1.51
7910.00,1.51
7909.00,1.51
7908.00,1.51
7907.00,1.51
7906.00,1.51
7905.00,1.51
7904.00,1.51
7903.00,1.51
7902.00,1.51
7901.00,1.51
7900.00,1.51
7899.00,1.51
7898.00,1.51
7897.00,1.51
7896.00,1.51
7895.00,1.51
7894.00,1.51
7893.00,1.51
7892.00,1.51
7891.00,1.51
7890.00,1.51
7889.00,1.51
7888.00,1.51
7887.00,1.51
7886.00,1.51
7885.00,1.51
7884.00,1.51
7883.00,1.51
7882.00,1.51
7881.00,1.51
7880.00,1.51
7879.00,1.51
7878.00,1.51
7877.00,1.51
7876.00,1.51
7875.00,1.51
7874.00,1.51
7873.00,1.51
7872.00,1.51
7871.00,1.51
7870.00,1.51
7869.00,1.51
7868.00,1.51
7867.00,1.51
7866.00,1.51
7865.00,1.51
7864.00,1.51
7863.00,1.51
7862.00,1.51
7861.00,1.51
7860.00,1.51
7859.00,1.51
7858.00,1.52
7857.00,1.52
7856.00,1.52
7855.00,1.52
7854.00,1.52
7853.00,1.52
7852.00,1.52
7851.00,1.52
7850.00,1.52
7849.00,1.52
7848.00,1.52
7847.00,1.52
7846.00,1.53
7845.00,1.53
7844.00,1.53
7843.00,1.53
7842.00,1.53
7841.00,1.53
7840.00,1.53
7839.00,1.53
7838.00,1.53
7837.00,1.53
7836.00,1.53
7835.00,1.53
7834.00,1.53
7833.00,1.53
7832.00,1.53
7831.00,1.53
7830.00,1.53
7829.00,1.53
7828.00,1.53
7827.00,1.53
7826.00,1.53
7825.00,1.53
7824.00,1.53
7823.00,1.53
7822.00,1.53
7821.00,1.53
7820.00,1.53
7819.00,1.53
7818.00,1.53
7817.00,1.53
7816.00,1.53
7815.00,1.53
7814.00,1.53
7813.00,1.53
7812.00,1.53
7811.00,1.53
7810.00,1.53
7809.00,1.53
7808.00,1.53
7807.00,1.53
7806.00,1.53
7805.00,1.53
7804.00,1.53
7803.00,1.53
7802.00,1.54
7801.00,1.54
7800.00,1.54
7799.00,1.54
7798.00,1.54
7797.00,1.54
7796.00,1.54
7795.00,1.54
7794.00,1.54
7793.00,1.54
7792.00,1.54
7791.00,1.54
7790.00,1.54
7789.00,1.54
7788.00,1.54
7787.00,1.54
7786.00,1.54
7785.00,1.53
7784.00,1.53
7783.00,1.53
7782.00,1.53
7781.00,1.53
7780.00,1.53
7779.00,1.53
7778.00,1.53
7777.00,1.53
7776.00,1.53
7775.00,1.53
7774.00,1.53
7773.00,1.53
7772.00,1.53
7771.00,1.53
7770.00,1.52
7769.00,1.52
7768.00,1.52
7767.00,1.52
7766.00,1.52
7765.00,1.52
7764.00,1.52
7763.00,1.52
7762.00,1.52
7761.00,1.52
7760.00,1.52
7759.00,1.52
7758.00,1.52
7757.00,1.53
7756.00,1.53
7755.00,1.53
7754.00,1.53
7753.00,1.53
7752.00,1.53
7751.00,1.53
7750.00,1.53
7749.00,1.53
7748.00,1.54
7747.00,1.54
7746.00,1.54
7745.00,1.54
7744.00,1.54
7743.00,1.54
7742.00,1.54
7741.00,1.54
7740.00,1.54
7739.00,1.54
7738.00,1.54
7737.00,1.54
7736.00,1.54
7735.00,1.54
7734.00,1.54
7733.00,1.54
7732.00,1.54
7731.00,1.54
7730.00,1.54
7729.00,1.54
7728.00,1.54
7727.00,1.54
7726.00,1.54
7725.00,1.54
7724.00,1.54
7723.00,1.54
7722.00,1.54
7721.00,1.54
7720.00,1.54
7719.00,1.54
7718.00,1.54
7717.00,1.54
7716.00,1.54
7715.00,1.54
7714.00,1.54
7713.00,1.54
7712.00,1.54
7711.00,1.54
7710.00,1.54
7709.00,1.54
7708.00,1.54
7707.00,1.54
7706.00,1.54
7705.00,1.55
7704.00,1.55
7703.00,1.55
7702.00,1.55
7701.00,1.55
7700.00,1.55
7699.00,1.55
7698.00,1.55
7697.00,1.55
7696.00,1.55
7695.00,1.54
7694.00,1.54
7693.00,1.54
7692.00,1.54
7691.00,1.54
7690.00,1.54
7689.00,1.54
7688.00,1.54
7687.00,1.54
7686.00,1.54
7685.00,1.54
7684.00,1.54
7683.00,1.54
7682.00,1.54
7681.00,1.54
7680.00,1.54
7679.00,1.54
7678.00,1.54
7677.00,1.54
7676.00,1.54
7675.00,1.54
7674.00,1.54
7673.00,1.54
7672.00,1.54
7671.00,1.54
7670.00,1.54
7669.00,1.54
7668.00,1.54
7667.00,1.54
7666.00,1.53
7665.00,1.53
7664.00,1.53
7663.00,1.53
7662.00,1.53
7661.00,1.53
7660.00,1.53
7659.00,1.53
7658.00,1.53
7657.00,1.53
7656.00,1.53
7655.00,1.53
7654.00,1.54
7653.00,1.54
7652.00,1.54
7651.00,1.54
7650.00,1.54
7649.00,1.54
7648.00,1.54
7647.00,1.54
7646.00,1.54
7645.00,1.54
7644.00,1.54
7643.00,1.54
7642.00,1.54
7641.00,1.54
7640.00,1.54
7639.00,1.54
7638.00,1.54
7637.00,1.54
7636.00,1.54
7635.00,1.54
7634.00,1.54
7633.00,1.54
7632.00,1.54
7631.00,1.54
7630.00,1.53
7629.00,1.53
7628.00,1.53
7627.00,1.53
7626.00,1.53
7625.00,1.53
7624.00,1.53
7623.00,1.53
7622.00,1.53
7621.00,1.53
7620.00,1.54
7619.00,1.54
7618.00,1.54
7617.00,1.54
7616.00,1.54
7615.00,1.54
7614.00,1.54
7613.00,1.54
7612.00,1.54
7611.00,1.54
7610.00,1.54
7609.00,1.54
7608.00,1.54
7607.00,1.54
7606.00,1.54
7605.00,1.54
7604.00,1.54
7603.00,1.54
7602.00,1.54
7601.00,1.54
7600.00,1.54
7599.00,1.54
7598.00,1.54
7597.00,1.54
7596.00,1.54
7595.00,1.53
7594.00,1.53
7593.00,1.53
7592.00,1.53
7591.00,1.53
7590.00,1.53
7589.00,1.53
7588.00,1.53
7587.00,1.53
7586.00,1.53
7585.00,1.53
7584.00,1.53
7583.00,1.53
7582.00,1.53
7581.00,1.53
7580.00,1.53
7579.00,1.53
7578.00,1.53
7577.00,1.53
7576.00,1.53
7575.00,1.53
7574.00,1.53
7573.00,1.53
7572.00,1.53
7571.00,1.53
7570.00,1.53
7569.00,1.53
7568.00,1.53
7567.00,1.53
7566.00,1.53
7565.00,1.53
7564.00,1.53
7563.00,1.53
7562.00,1.53
7561.00,1.53
7560.00,1.53
7559.00,1.53
7558.00,1.53
7557.00,1.53
7556.00,1.53
7555.00,1.53
7554.00,1.53
7553.00,1.53
7552.00,1.53
7551.00,1.53
7550.00,1.53
7549.00,1.53
7548.00,1.53
7547.00,1.53
7546.00,1.53
7545.00,1.53
7544.00,1.53
7543.00,1.53
7542.00,1.53
7541.00,1.53
7540.00,1.53
7539.00,1.53
7538.00,1.53
7537.00,1.53
7536.00,1.53
7535.00,1.53
7534.00,1.53
7533.00,1.53
7532.00,1.53
7531.00,1.53
7530.00,1.53
7529.00,1.53
7528.00,1.53
7527.00,1.53
7526.00,1.53
7525.00,1.53
7524.00,1.53
7523.00,1.53
7522.00,1.53
7521.00,1.53
7520.00,1.53
7519.00,1.53
7518.00,1.53
7517.00,1.53
7516.00,1.53
7515.00,1.53
7514.00,1.53
7513.00,1.53
7512.00,1.53
7511.00,1.53
7510.00,1.53
7509.00,1.53
7508.00,1.52
7507.00,1.52
7506.00,1.52
7505.00,1.52
7504.00,1.52
7503.00,1.52
7502.00,1.52
7501.00,1.52
7500.00,1.52
7499.00,1.52
7498.00,1.52
7497.00,1.52
7496.00,1.52
7495.00,1.52
7494.00,1.52
7493.00,1.52
7492.00,1.51
7491.00,1.51
7490.00,1.51
7489.00,1.51
7488.00,1.51
7487.00,1.51
7486.00,1.51
7485.00,1.51
7484.00,1.51
7483.00,1.51
7482.00,1.51
7481.00,1.51
7480.00,1.51
7479.00,1.51
7478.00,1.51
7477.00,1.50
7476.00,1.50
7475.00,1.50
7474.00,1.50
7473.00,1.50
7472.00,1.50
7471.00,1.50
7470.00,1.50
7469.00,1.50
7468.00,1.50
7467.00,1.50
7466.00,1.50
7465.00,1.49
7464.00,1.49
7463.00,1.49
7462.00,1.49
7461.00,1.49
7460.00,1.49
7459.00,1.49
7458.00,1.49
7457.00,1.49
7456.00,1.49
7455.00,1.49
7454.00,1.49
7453.00,1.49
7452.00,1.49
7451.00,1.49
7450.00,1.49
7449.00,1.49
7448.00,1.49
7447.00,1.49
7446.00,1.49
7445.00,1.49
7444.00,1.49
7443.00,1.49
7442.00,1.49
7441.00,1.48
7440.00,1.48
7439.00,1.48
7438.00,1.48
7437.00,1.48
7436.00,1.48
7435.00,1.48
7434.00,1.48
7433.00,1.48
7432.00,1.48
7431.00,1.48
7430.00,1.47
7429.00,1.47
7428.00,1.47
7427.00,1.47
7426.00,1.47
7425.00,1.47
7424.00,1.47
7423.00,1.47
7422.00,1.47
7421.00,1.47
7420.00,1.47
7419.00,1.47
7418.00,1.47
7417.00,1.47
7416.00,1.46
7415.00,1.46
7414.00,1.46
7413.00,1.46
7412.00,1.46
7411.00,1.46
7410.00,1.46
7409.00,1.46
7408.00,1.45
7407.00,1.45
7406.00,1.45
7405.00,1.45
7404.00,1.45
7403.00,1.45
7402.00,1.45
7401.00,1.44
7400.00,1.44
7399.00,1.44
7398.00,1.44
7397.00,1.44
7396.00,1.44
7395.00,1.44
7394.00,1.44
7393.00,1.43
7392.00,1.43
7391.00,1.43
7390.00,1.43
7389.00,1.43
7388.00,1.43
7387.00,1.43
7386.00,1.43
7385.00,1.43
7384.00,1.43
7383.00,1.43
7382.00,1.43
7381.00,1.43
7380.00,1.43
7379.00,1.42
7378.00,1.42
7377.00,1.42
7376.00,1.42
7375.00,1.42
7374.00,1.42
7373.00,1.42
7372.00,1.42
7371.00,1.42
7370.00,1.42
7369.00,1.42
7368.00,1.42
7367.00,1.42
7366.00,1.42
7365.00,1.41
7364.00,1.41
7363.00,1.41
7362.00,1.41
7361.00,1.41
7360.00,1.41
7359.00,1.41
7358.00,1.41
7357.00,1.41
7356.00,1.41
7355.00,1.42
7354.00,1.42
7353.00,1.42
7352.00,1.42
7351.00,1.42
7350.00,1.42
7349.00,1.42
7348.00,1.42
7347.00,1.42
7346.00,1.42
7345.00,1.42
7344.00,1.42
7343.00,1.42
7342.00,1.42
7341.00,1.42
7340.00,1.42
7339.00,1.42
7338.00,1.42
7337.00,1.42
7336.00,1.42
7335.00,1.42
7334.00,1.42
7333.00,1.42
7332.00,1.42
7331.00,1.42
7330.00,1.42
7329.00,1.42
7328.00,1.41
7327.00,1.41
7326.00,1.41
7325.00,1.41
7324.00,1.41
7323.00,1.41
7322.00,1.41
7321.00,1.41
7320.00,1.41
7319.00,1.41
7318.00,1.40
7317.00,1.40
7316.00,1.40
7315.00,1.40
7314.00,1.40
7313.00,1.39
7312.00,1.39
7311.00,1.39
7310.00,1.39
7309.00,1.39
7308.00,1.38
7307.00,1.38
7306.00,1.38
7305.00,1.38
7304.00,1.38
7303.00,1.38
7302.00,1.37
7301.00,1.37
7300.00,1.37
7299.00,1.37
7298.00,1.37
7297.00,1.37
7296.00,1.37
7295.00,1.37
7294.00,1.36
7293.00,1.36
7292.00,1.36
7291.00,1.36
7290.00,1.36
7289.00,1.36
7288.00,1.35
7287.00,1.35
7286.00,1.35
7285.00,1.35
7284.00,1.35
7283.00,1.35
7282.00,1.34
7281.00,1.34
7280.00,1.34
7279.00,1.34
7278.00,1.34
7277.00,1.34
7276.00,1.34
7275.00,1.34
7274.00,1.34
7273.00,1.34
7272.00,1.34
7271.00,1.34
7270.00,1.34
7269.00,1.34
7268.00,1.34
7267.00,1.33
7266.00,1.33
7265.00,1.33
7264.00,1.33
7263.00,1.33
7262.00,1.33
7261.00,1.33
7260.00,1.33
7259.00,1.32
7258.00,1.32
7257.00,1.32
7256.00,1.32
7255.00,1.31
7254.00,1.31
7253.00,1.31
7252.00,1.31
7251.00,1.30
7250.00,1.30
7249.00,1.30
7248.00,1.30
7247.00,1.29
7246.00,1.29
7245.00,1.29
7244.00,1.29
7243.00,1.28
7242.00,1.28
7241.00,1.28
7240.00,1.28
7239.00,1.27
7238.00,1.27
7237.00,1.27
7236.00,1.26
7235.00,1.26
7234.00,1.25
7233.00,1.25
7232.00,1.25
7231.00,1.24
7230.00,1.24
7229.00,1.23
7228.00,1.23
7227.00,1.23
7226.00,1.22
7225.00,1.22
7224.00,1.21
7223.00,1.21
7222.00,1.20
7221.00,1.20
7220.00,1.19
7219.00,1.19
7218.00,1.18
7217.00,1.18
7216.00,1.17
7215.00,1.17
7214.00,1.16
7213.00,1.16
7212.00,1.15
7211.00,1.15
7210.00,1.14
7209.00,1.14
7208.00,1.13
7207.00,1.13
7206.00,1.13
7205.00,1.12
7204.00,1.12
7203.00,1.11
7202.00,1.11
7201.00,1.10
7200.00,1.10
7199.00,1.10
7198.00,1.09
7197.00,1.09
7196.00,1.09
7195.00,1.08
7194.00,1.08
7193.00,1.08
7192.00,1.07
7191.00,1.07
7190.00,1.07
7189.00,1.06
7188.00,1.06
7187.00,1.06
7186.00,1.06
7185.00,1.05
7184.00,1.05
7183.00,1.05
7182.00,1.04
7181.00,1.04
7180.00,1.04
7179.00,1.03
7178.00,1.03
7177.00,1.03
7176.00,1.02
7175.00,1.02
7174.00,1.02
7173.00,1.01
7172.00,1.01
7171.00,1.00
7170.00,1.00
7169.00,1.00
7168.00,0.99
7167.00,0.99
7166.00,0.98
7165.00,0.98
7164.00,0.98
7163.00,0.97
7162.00,0.97
7161.00,0.97
7160.00,0.96
7159.00,0.96
7158.00,0.96
7157.00,0.95
7156.00,0.95
7155.00,0.95
7154.00,0.95
7153.00,0.94
7152.00,0.94
7151.00,0.94
7150.00,0.93
7149.00,0.93
7148.00,0.93
7147.00,0.92
7146.00,0.92
7145.00,0.92
7144.00,0.92
7143.00,0.91
7142.00,0.91
7141.00,0.91
7140.00,0.90
7139.00,0.90
7138.00,0.90
7137.00,0.89
7136.00,0.89
7135.00,0.89
7134.00,0.88
7133.00,0.88
7132.00,0.88
7131.00,0.88
7130.00,0.87
7129.00,0.87
7128.00,0.87
7127.00,0.86
7126.00,0.86
7125.00,0.86
7124.00,0.86
7123.00,0.85
7122.00,0.85
7121.00,0.85
7120.00,0.84
7119.00,0.84
7118.00,0.84
7117.00,0.83
7116.00,0.83
7115.00,0.83
7114.00,0.82
7113.00,0.82
7112.00,0.82
7111.00,0.82
7110.00,0.81
7109.00,0.81
7108.00,0.81
7107.00,0.81
7106.00,0.80
7105.00,0.80
7104.00,0.80
7103.00,0.80
7102.00,0.79
7101.00,0.79
7100.00,0.79
7099.00,0.79
7098.00,0.78
7097.00,0.78
7096.00,0.78
7095.00,0.78
7094.00,0.77
7093.00,0.77
7092.00,0.77
7091.00,0.76
7090.00,0.76
7089.00,0.76
7088.00,0.76
7087.00,0.75
7086.00,0.75
7085.00,0.75
7084.00,0.75
7083.00,0.75
7082.00,0.74
7081.00,0.74
7080.00,0.74
7079.00,0.74
7078.00,0.74
7077.00,0.74
7076.00,0.74
7075.00,0.73
7074.00,0.73
7073.00,0.73
7072.00,0.73
7071.00,0.73
7070.00,0.73
7069.00,0.72
7068.00,0.72
7067.00,0.72
7066.00,0.72
7065.00,0.72
7064.00,0.71
7063.00,0.71
7062.00,0.71
7061.00,0.71
7060.00,0.71
7059.00,0.70
7058.00,0.70
7057.00,0.70
7056.00,0.70
7055.00,0.70
7054.00,0.69
7053.00,0.69
7052.00,0.69
7051.00,0.69
7050.00,0.68
7049.00,0.68
7048.00,0.68
7047.00,0.68
7046.00,0.68
7045.00,0.67
7044.00,0.67
7043.00,0.67
7042.00,0.67
7041.00,0.67
7040.00,0.66
7039.00,0.66
7038.00,0.66
7037.00,0.66
7036.00,0.66
7035.00,0.66
7034.00,0.66
7033.00,0.66
7032.00,0.66
7031.00,0.66
7030.00,0.66
7029.00,0.66
7028.00,0.66
7027.00,0.66
7026.00,0.66
7025.00,0.66
7024.00,0.66
7023.00,0.66
7022.00,0.65
7021.00,0.65
7020.00,0.65
7019.00,0.65
7018.00,0.65
7017.00,0.65
7016.00,0.65
7015.00,0.65
7014.00,0.65
7013.00,0.65
7012.00,0.65
7011.00,0.65
7010.00,0.65
7009.00,0.65
7008.00,0.65
7007.00,0.65
7006.00,0.64
7005.00,0.64
7004.00,0.64
7003.00,0.64
7002.00,0.64
7001.00,0.64
7000.00,0.64
6999.00,0.64
6998.00,0.64
6997.00,0.64
6996.00,0.63
6995.00,0.63
6994.00,0.63
6993.00,0.63
6992.00,0.63
6991.00,0.63
6990.00,0.62
6989.00,0.62
6988.00,0.62
6987.00,0.62
6986.00,0.62
6985.00,0.62
6984.00,0.62
6983.00,0.62
6982.00,0.61
6981.00,0.61
6980.00,0.61
6979.00,0.61
6978.00,0.61
6977.00,0.61
6976.00,0.61
6975.00,0.61
6974.00,0.61
6973.00,0.61
6972.00,0.61
6971.00,0.61
6970.00,0.61
6969.00,0.61
6968.00,0.61
6967.00,0.61
6966.00,0.61
6965.00,0.61
6964.00,0.61
6963.00,0.61
6962.00,0.61
6961.00,0.61
6960.00,0.61
6959.00,0.61
6958.00,0.61
6957.00,0.61
6956.00,0.61
6955.00,0.60
6954.00,0.60
6953.00,0.60
6952.00,0.60
6951.00,0.60
6950.00,0.60
6949.00,0.60
6948.00,0.60
6947.00,0.60
6946.00,0.60
6945.00,0.60
6944.00,0.59
6943.00,0.59
6942.00,0.59
6941.00,0.59
6940.00,0.59
6939.00,0.59
6938.00,0.59
6937.00,0.59
6936.00,0.59
6935.00,0.59
6934.00,0.59
6933.00,0.60
6932.00,0.60
6931.00,0.60
6930.00,0.60
6929.00,0.60
6928.00,0.60
6927.00,0.60
6926.00,0.60
6925.00,0.60
6924.00,0.60
6923.00,0.60
6922.00,0.59
6921.00,0.59
6920.00,0.59
6919.00,0.59
6918.00,0.59
6917.00,0.59
6916.00,0.59
6915.00,0.59
6914.00,0.60
6913.00,0.60
6912.00,0.60
6911.00,0.60
6910.00,0.60
6909.00,0.60
6908.00,0.60
6907.00,0.60
6906.00,0.60
6905.00,0.60
6904.00,0.60
6903.00,0.60
6902.00,0.60
6901.00,0.60
6900.00,0.60
6899.00,0.60
6898.00,0.59
6897.00,0.59
6896.00,0.59
6895.00,0.59
6894.00,0.59
6893.00,0.59
6892.00,0.59
6891.00,0.59
6890.00,0.59
6889.00,0.59
6888.00,0.59
6887.00,0.59
6886.00,0.59
6885.00,0.59
6884.00,0.59
6883.00,0.59
6882.00,0.59
6881.00,0.59
6880.00,0.59
6879.00,0.59
6878.00,0.59
6877.00,0.59
6876.00,0.59
6875.00,0.59
6874.00,0.59
6873.00,0.59
6872.00,0.59
6871.00,0.59
6870.00,0.59
6869.00,0.59
6868.00,0.59
6867.00,0.59
6866.00,0.59
6865.00,0.59
6864.00,0.59
6863.00,0.59
6862.00,0.59
6861.00,0.59
6860.00,0.59
6859.00,0.59
6858.00,0.59
6857.00,0.59
6856.00,0.59
6855.00,0.59
6854.00,0.59
6853.00,0.59
6852.00,0.59
6851.00,0.59
6850.00,0.59
6849.00,0.59
6848.00,0.59
6847.00,0.59
6846.00,0.59
6845.00,0.59
6844.00,0.59
6843.00,0.59
6842.00,0.59
6841.00,0.59
6840.00,0.59
6839.00,0.59
6838.00,0.59
6837.00,0.59
6836.00,0.59
6835.00,0.59
6834.00,0.59
6833.00,0.59
6832.00,0.59
6831.00,0.59
6830.00,0.59
6829.00,0.59
6828.00,0.59
6827.00,0.59
6826.00,0.59
6825.00,0.59
6824.00,0.59
6823.00,0.59
6822.00,0.59
6821.00,0.59
6820.00,0.59
6819.00,0.60
6818.00,0.60
6817.00,0.60
6816.00,0.60
6815.00,0.60
6814.00,0.60
6813.00,0.60
6812.00,0.60
6811.00,0.60
6810.00,0.60
6809.00,0.60
6808.00,0.61
6807.00,0.61
6806.00,0.61
6805.00,0.61
6804.00,0.61
6803.00,0.61
6802.00,0.61
6801.00,0.61
6800.00,0.61
6799.00,0.61
6798.00,0.61
6797.00,0.61
6796.00,0.61
6795.00,0.61
6794.00,0.61
6793.00,0.61
6792.00,0.61
6791.00,0.61
6790.00,0.61
6789.00,0.61
6788.00,0.61
6787.00,0.62
6786.00,0.62
6785.00,0.62
6784.00,0.62
6783.00,0.62
6782.00,0.62
6781.00,0.62
6780.00,0.62
6779.00,0.62
6778.00,0.62
6777.00,0.62
6776.00,0.62
6775.00,0.62
6774.00,0.62
6773.00,0.62
6772.00,0.62
6771.00,0.63
6770.00,0.63
6769.00,0.63
6768.00,0.63
6767.00,0.63
6766.00,0.63
6765.00,0.63
6764.00,0.63
6763.00,0.63
6762.00,0.63
6761.00,0.63
6760.00,0.63
6759.00,0.64
6758.00,0.64
6757.00,0.64
6756.00,0.64
6755.00,0.64
6754.00,0.64
6753.00,0.64
6752.00,0.64
6751.00,0.64
6750.00,0.64
6749.00,0.64
6748.00,0.64
6747.00,0.64
6746.00,0.64
6745.00,0.64
6744.00,0.64
6743.00,0.65
6742.00,0.65
6741.00,0.65
6740.00,0.65
6739.00,0.65
6738.00,0.65
6737.00,0.65
6736.00,0.65
6735.00,0.65
6734.00,0.65
6733.00,0.65
6732.00,0.65
6731.00,0.65
6730.00,0.66
6729.00,0.66
6728.00,0.66
6727.00,0.66
6726.00,0.66
6725.00,0.66
6724.00,0.66
6723.00,0.66
6722.00,0.66
6721.00,0.66
6720.00,0.66
6719.00,0.67
6718.00,0.67
6717.00,0.67
6716.00,0.67
6715.00,0.67
6714.00,0.67
6713.00,0.67
6712.00,0.67
6711.00,0.67
6710.00,0.67
6709.00,0.67
6708.00,0.67
6707.00,0.67
6706.00,0.67
6705.00,0.67
6704.00,0.67
6703.00,0.67
6702.00,0.67
6701.00,0.68
6700.00,0.68
6699.00,0.68
6698.00,0.68
6697.00,0.68
6696.00,0.68
6695.00,0.68
6694.00,0.68
6693.00,0.69
6692.00,0.69
6691.00,0.69
6690.00,0.69
6689.00,0.69
6688.00,0.69
6687.00,0.69
6686.00,0.69
6685.00,0.70
6684.00,0.70
6683.00,0.70
6682.00,0.70
6681.00,0.70
6680.00,0.70
6679.00,0.70
6678.00,0.70
6677.00,0.71
6676.00,0.71
6675.00,0.71
6674.00,0.71
6673.00,0.71
6672.00,0.71
6671.00,0.71
6670.00,0.71
6669.00,0.71
6668.00,0.72
6667.00,0.72
6666.00,0.72
6665.00,0.72
6664.00,0.72
6663.00,0.72
6662.00,0.72
6661.00,0.72
6660.00,0.72
6659.00,0.73
6658.00,0.73
6657.00,0.73
6656.00,0.73
6655.00,0.73
6654.00,0.73
6653.00,0.73
6652.00,0.73
6651.00,0.73
6650.00,0.73
6649.00,0.73
6648.00,0.73
6647.00,0.73
6646.00,0.73
6645.00,0.73
6644.00,0.74
6643.00,0.74
6642.00,0.74
6641.00,0.74
6640.00,0.74
6639.00,0.74
6638.00,0.74
6637.00,0.75
6636.00,0.75
6635.00,0.75
6634.00,0.75
6633.00,0.75
6632.00,0.75
6631.00,0.76
6630.00,0.76
6629.00,0.76
6628.00,0.76
6627.00,0.76
6626.00,0.76
6625.00,0.76
6624.00,0.77
6623.00,0.77
6622.00,0.77
6621.00,0.77
6620.00,0.77
6619.00,0.77
6618.00,0.77
6617.00,0.77
6616.00,0.77
6615.00,0.77
6614.00,0.77
6613.00,0.77
6612.00,0.77
6611.00,0.77
6610.00,0.77
6609.00,0.77
6608.00,0.77
6607.00,0.78
6606.00,0.78
6605.00,0.78
6604.00,0.78
6603.00,0.78
6602.00,0.78
6601.00,0.78
6600.00,0.78
6599.00,0.78
6598.00,0.78
6597.00,0.78
6596.00,0.79
6595.00,0.79
6594.00,0.79
6593.00,0.79
6592.00,0.79
6591.00,0.79
6590.00,0.79
6589.00,0.79
6588.00,0.80
6587.00,0.80
6586.00,0.80
6585.00,0.80
6584.00,0.80
6583.00,0.80
6582.00,0.80
6581.00,0.80
6580.00,0.81
6579.00,0.81
6578.00,0.81
6577.00,0.81
6576.00,0.81
6575.00,0.81
6574.00,0.81
6573.00,0.81
6572.00,0.82
6571.00,0.82
6570.00,0.82
6569.00,0.82
6568.00,0.82
6567.00,0.82
6566.00,0.82
6565.00,0.82
6564.00,0.82
6563.00,0.82
6562.00,0.82
6561.00,0.83
6560.00,0.83
6559.00,0.83
6558.00,0.83
6557.00,0.83
6556.00,0.83
6555.00,0.83
6554.00,0.83
6553.00,0.83
6552.00,0.84
6551.00,0.84
6550.00,0.84
6549.00,0.84
6548.00,0.84
6547.00,0.84
6546.00,0.84
6545.00,0.84
6544.00,0.85
6543.00,0.85
6542.00,0.85
6541.00,0.85
6540.00,0.85
6539.00,0.85
6538.00,0.85
6537.00,0.85
6536.00,0.85
6535.00,0.85
6534.00,0.86
6533.00,0.86
6532.00,0.86
6531.00,0.86
6530.00,0.86
6529.00,0.86
6528.00,0.86
6527.00,0.86
6526.00,0.86
6525.00,0.87
6524.00,0.87
6523.00,0.87
6522.00,0.87
6521.00,0.87
6520.00,0.87
6519.00,0.87
6518.00,0.87
6517.00,0.87
6516.00,0.87
6515.00,0.87
6514.00,0.87
6513.00,0.88
6512.00,0.88
6511.00,0.88
6510.00,0.88
6509.00,0.88
6508.00,0.88
6507.00,0.88
6506.00,0.88
6505.00,0.88
6504.00,0.88
6503.00,0.89
6502.00,0.89
6501.00,0.89
6500.00,0.89
6499.00,0.89
6498.00,0.89
6497.00,0.89
6496.00,0.89
6495.00,0.90
6494.00,0.90
6493.00,0.90
6492.00,0.90
6491.00,0.90
6490.00,0.90
6489.00,0.90
6488.00,0.90
6487.00,0.90
6486.00,0.90
6485.00,0.90
6484.00,0.90
6483.00,0.90
6482.00,0.90
6481.00,0.90
6480.00,0.90
6479.00,0.90
6478.00,0.90
6477.00,0.90
6476.00,0.90
6475.00,0.90
6474.00,0.90
6473.00,0.90
6472.00,0.90
6471.00,0.91
6470.00,0.91
6469.00,0.91
6468.00,0.91
6467.00,0.91
6466.00,0.91
6465.00,0.91
6464.00,0.91
6463.00,0.91
6462.00,0.92
6461.00,0.92
6460.00,0.92
6459.00,0.92
6458.00,0.92
6457.00,0.92
6456.00,0.92
6455.00,0.92
6454.00,0.92
6453.00,0.92
6452.00,0.93
6451.00,0.93
6450.00,0.93
6449.00,0.93
6448.00,0.93
6447.00,0.93
6446.00,0.93
6445.00,0.93
6444.00,0.93
6443.00,0.93
6442.00,0.93
6441.00,0.93
6440.00,0.93
6439.00,0.93
6438.00,0.93
6437.00,0.93
6436.00,0.93
6435.00,0.93
6434.00,0.93
6433.00,0.93
6432.00,0.93
6431.00,0.93
6430.00,0.93
6429.00,0.93
6428.00,0.94
6427.00,0.94
6426.00,0.94
6425.00,0.94
6424.00,0.94
6423.00,0.94
6422.00,0.94
6421.00,0.94
6420.00,0.94
6419.00,0.94
6418.00,0.94
6417.00,0.94
6416.00,0.94
6415.00,0.95
6414.00,0.95
6413.00,0.95
6412.00,0.95
6411.00,0.95
6410.00,0.95
6409.00,0.95
6408.00,0.95
6407.00,0.95
6406.00,0.95
6405.00,0.95
6404.00,0.95
6403.00,0.95
6402.00,0.95
6401.00,0.95
6400.00,0.96
6399.00,0.96
6398.00,0.96
6397.00,0.96
6396.00,0.96
6395.00,0.96
6394.00,0.96
6393.00,0.96
6392.00,0.96
6391.00,0.96
6390.00,0.96
6389.00,0.96
6388.00,0.96
6387.00,0.96
6386.00,0.96
6385.00,0.96
6384.00,0.96
6383.00,0.96
6382.00,0.96
6381.00,0.96
6380.00,0.96
6379.00,0.96
6378.00,0.96
6377.00,0.96
6376.00,0.96
6375.00,0.97
6374.00,0.97
6373.00,0.97
6372.00,0.97
6371.00,0.97
6370.00,0.97
6369.00,0.97
6368.00,0.97
6367.00,0.98
6366.00,0.98
6365.00,0.98
6364.00,0.98
6363.00,0.98
6362.00,0.98
6361.00,0.98
6360.00,0.98
6359.00,0.98
6358.00,0.99
6357.00,0.99
6356.00,0.99
6355.00,0.99
6354.00,0.99
6353.00,0.99
6352.00,0.99
6351.00,0.99
6350.00,0.99
6349.00,0.99
6348.00,0.99
6347.00,0.99
6346.00,0.99
6345.00,0.99
6344.00,0.99
6343.00,1.00
6342.00,1.00
6341.00,1.00
6340.00,1.00
6339.00,1.00
6338.00,1.00
6337.00,1.00
6336.00,1.00
6335.00,1.00
6334.00,1.00
6333.00,1.01
6332.00,1.01
6331.00,1.01
6330.00,1.01
6329.00,1.01
6328.00,1.01
6327.00,1.01
6326.00,1.01
6325.00,1.02
6324.00,1.02
6323.00,1.02
6322.00,1.02
6321.00,1.02
6320.00,1.02
6319.00,1.02
6318.00,1.02
6317.00,1.02
6316.00,1.02
6315.00,1.03
6314.00,1.03
6313.00,1.03
6312.00,1.03
6311.00,1.03
6310.00,1.03
6309.00,1.03
6308.00,1.03
6307.00,1.03
6306.00,1.03
6305.00,1.04
6304.00,1.04
6303.00,1.04
6302.00,1.04
6301.00,1.04
6300.00,1.04
6299.00,1.04
6298.00,1.04
6297.00,1.05
6296.00,1.05
6295.00,1.05
6294.00,1.05
6293.00,1.05
6292.00,1.05
6291.00,1.05
6290.00,1.05
6289.00,1.05
6288.00,1.05
6287.00,1.06
6286.00,1.06
6285.00,1.06
6284.00,1.06
6283.00,1.06
6282.00,1.06
6281.00,1.06
6280.00,1.06
6279.00,1.06
6278.00,1.06
6277.00,1.07
6276.00,1.07
6275.00,1.07
6274.00,1.07
6273.00,1.07
6272.00,1.07
6271.00,1.07
6270.00,1.07
6269.00,1.08
6268.00,1.08
6267.00,1.08
6266.00,1.08
6265.00,1.08
6264.00,1.09
6263.00,1.09
6262.00,1.09
6261.00,1.09
6260.00,1.09
6259.00,1.10
6258.00,1.10
6257.00,1.10
6256.00,1.10
6255.00,1.10
6254.00,1.11
6253.00,1.11
6252.00,1.11
6251.00,1.11
6250.00,1.11
6249.00,1.11
6248.00,1.11
6247.00,1.12
6246.00,1.12
6245.00,1.12
6244.00,1.12
6243.00,1.12
6242.00,1.12
6241.00,1.12
6240.00,1.12
6239.00,1.12
6238.00,1.12
6237.00,1.13
6236.00,1.13
6235.00,1.13
6234.00,1.13
6233.00,1.13
6232.00,1.13
6231.00,1.13
6230.00,1.13
6229.00,1.14
6228.00,1.14
6227.00,1.14
6226.00,1.14
6225.00,1.14
6224.00,1.14
6223.00,1.15
6222.00,1.15
6221.00,1.15
6220.00,1.15
6219.00,1.15
6218.00,1.16
6217.00,1.16
6216.00,1.16
6215.00,1.16
6214.00,1.16
6213.00,1.17
6212.00,1.17
6211.00,1.17
6210.00,1.17
6209.00,1.17
6208.00,1.17
6207.00,1.17
6206.00,1.18
6205.00,1.18
6204.00,1.18
6203.00,1.18
6202.00,1.18
6201.00,1.18
6200.00,1.18
6199.00,1.19
6198.00,1.19
6197.00,1.19
6196.00,1.19
6195.00,1.19
6194.00,1.19
6193.00,1.19
6192.00,1.19
6191.00,1.20
6190.00,1.20
6189.00,1.20
6188.00,1.20
6187.00,1.20
6186.00,1.20
6185.00,1.20
6184.00,1.21
6183.00,1.21
6182.00,1.21
6181.00,1.21
6180.00,1.21
6179.00,1.21
6178.00,1.22
6177.00,1.22
6176.00,1.22
6175.00,1.22
6174.00,1.22
6173.00,1.22
6172.00,1.23
6171.00,1.23
6170.00,1.23
6169.00,1.23
6168.00,1.23
6167.00,1.23
6166.00,1.24
6165.00,1.24
6164.00,1.24
6163.00,1.24
6162.00,1.24
6161.00,1.25
6160.00,1.25
6159.00,1.25
6158.00,1.25
6157.00,1.25
6156.00,1.25
6155.00,1.25
6154.00,1.26
6153.00,1.26
6152.00,1.26
6151.00,1.26
6150.00,1.26
6149.00,1.26
6148.00,1.27
6147.00,1.27
6146.00,1.27
6145.00,1.27
6144.00,1.27
6143.00,1.27
6142.00,1.27
6141.00,1.28
6140.00,1.28
6139.00,1.28
6138.00,1.28
6137.00,1.28
6136.00,1.28
6135.00,1.29
6134.00,1.29
6133.00,1.29
6132.00,1.29
6131.00,1.29
6130.00,1.29
6129.00,1.30
6128.00,1.30
6127.00,1.30
6126.00,1.30
6125.00,1.30
6124.00,1.31
6123.00,1.31
6122.00,1.31
6121.00,1.31
6120.00,1.31
6119.00,1.31
6118.00,1.32
6117.00,1.32
6116.00,1.32
6115.00,1.32
6114.00,1.32
6113.00,1.32
6112.00,1.33
6111.00,1.33
6110.00,1.33
6109.00,1.33
6108.00,1.33
6107.00,1.34
6106.00,1.34
6105.00,1.34
6104.00,1.34
6103.00,1.34
6102.00,1.34
6101.00,1.34
6100.00,1.35
6099.00,1.35
6098.00,1.35
6097.00,1.35
6096.00,1.35
6095.00,1.35
6094.00,1.35
6093.00,1.36
6092.00,1.36
6091.00,1.36
6090.00,1.36
6089.00,1.36
6088.00,1.36
6087.00,1.37
6086.00,1.37
6085.00,1.37
6084.00,1.37
6083.00,1.37
6082.00,1.37
6081.00,1.37
6080.00,1.38
6079.00,1.38
6078.00,1.38
6077.00,1.38
6076.00,1.38
6075.00,1.38
6074.00,1.38
6073.00,1.39
6072.00,1.39
6071.00,1.39
6070.00,1.39
6069.00,1.39
6068.00,1.39
6067.00,1.40
6066.00,1.40
6065.00,1.40
6064.00,1.40
6063.00,1.40
6062.00,1.40
6061.00,1.40
6060.00,1.40
6059.00,1.40
6058.00,1.41
6057.00,1.41
6056.00,1.41
6055.00,1.41
6054.00,1.41
6053.00,1.41
6052.00,1.41
6051.00,1.41
6050.00,1.41
6049.00,1.41
6048.00,1.41
6047.00,1.41
6046.00,1.41
6045.00,1.41
6044.00,1.41
6043.00,1.42
6042.00,1.42
6041.00,1.42
6040.00,1.42
6039.00,1.42
6038.00,1.42
6037.00,1.42
6036.00,1.42
6035.00,1.42
6034.00,1.42
6033.00,1.42
6032.00,1.42
6031.00,1.42
6030.00,1.43
6029.00,1.43
6028.00,1.43
6027.00,1.43
6026.00,1.43
6025.00,1.43
6024.00,1.43
6023.00,1.43
6022.00,1.43
6021.00,1.43
6020.00,1.43
6019.00,1.43
6018.00,1.43
6017.00,1.43
6016.00,1.43
6015.00,1.43
6014.00,1.43
6013.00,1.43
6012.00,1.43
6011.00,1.43
6010.00,1.43
6009.00,1.43
6008.00,1.43
6007.00,1.43
6006.00,1.43
6005.00,1.43
6004.00,1.43
6003.00,1.43
6002.00,1.43
6001.00,1.43
6000.00,1.43
5999.00,1.43
5998.00,1.42
5997.00,1.42
5996.00,1.42
5995.00,1.42
5994.00,1.42
5993.00,1.42
5992.00,1.42
5991.00,1.41
5990.00,1.41
5989.00,1.41
5988.00,1.41
5987.00,1.40
5986.00,1.40
5985.00,1.40
5984.00,1.39
5983.00,1.39
5982.00,1.38
5981.00,1.38
5980.00,1.38
5979.00,1.37
5978.00,1.37
5977.00,1.36
5976.00,1.36
5975.00,1.35
5974.00,1.34
5973.00,1.34
5972.00,1.33
5971.00,1.32
5970.00,1.32
5969.00,1.31
5968.00,1.30
5967.00,1.29
5966.00,1.28
5965.00,1.28
5964.00,1.27
5963.00,1.26
5962.00,1.25
5961.00,1.24
5960.00,1.23
5959.00,1.22
5958.00,1.21
5957.00,1.21
5956.00,1.20
5955.00,1.19
5954.00,1.18
5953.00,1.17
5952.00,1.17
5951.00,1.16
5950.00,1.15
5949.00,1.15
5948.00,1.14
5947.00,1.14
5946.00,1.13
5945.00,1.13
5944.00,1.12
5943.00,1.12
5942.00,1.12
5941.00,1.11
5940.00,1.11
5939.00,1.11
5938.00,1.11
5937.00,1.11
5936.00,1.10
5935.00,1.10
5934.00,1.10
5933.00,1.10
5932.00,1.10
5931.00,1.10
5930.00,1.10
5929.00,1.10
5928.00,1.10
5927.00,1.09
5926.00,1.09
5925.00,1.09
5924.00,1.09
5923.00,1.09
5922.00,1.08
5921.00,1.08
5920.00,1.08
5919.00,1.08
5918.00,1.07
5917.00,1.07
5916.00,1.07
5915.00,1.06
5914.00,1.06
5913.00,1.06
5912.00,1.05
5911.00,1.05
5910.00,1.05
5909.00,1.05
5908.00,1.05
5907.00,1.04
5906.00,1.04
5905.00,1.04
5904.00,1.04
5903.00,1.04
5902.00,1.04
5901.00,1.04
5900.00,1.04
5899.00,1.04
5898.00,1.04
5897.00,1.04
5896.00,1.04
5895.00,1.04
5894.00,1.05
5893.00,1.05
5892.00,1.05
5891.00,1.05
5890.00,1.06
5889.00,1.06
5888.00,1.06
5887.00,1.06
5886.00,1.07
5885.00,1.07
5884.00,1.07
5883.00,1.08
5882.00,1.08
5881.00,1.08
5880.00,1.09
5879.00,1.09
5878.00,1.09
5877.00,1.10
5876.00,1.10
5875.00,1.10
5874.00,1.11
5873.00,1.11
5872.00,1.11
5871.00,1.11
5870.00,1.12
5869.00,1.12
5868.00,1.12
5867.00,1.12
5866.00,1.13
5865.00,1.13
5864.00,1.13
5863.00,1.13
5862.00,1.14
5861.00,1.14
5860.00,1.14
5859.00,1.14
5858.00,1.14
5857.00,1.15
5856.00,1.15
5855.00,1.15
5854.00,1.15
5853.00,1.15
5852.00,1.15
5851.00,1.16
5850.00,1.16
5849.00,1.16
5848.00,1.16
5847.00,1.16
5846.00,1.16
5845.00,1.16
5844.00,1.16
5843.00,1.16
5842.00,1.16
5841.00,1.16
5840.00,1.16
5839.00,1.16
5838.00,1.16
5837.00,1.16
5836.00,1.16
5835.00,1.16
5834.00,1.15
5833.00,1.15
5832.00,1.15
5831.00,1.15
5830.00,1.15
5829.00,1.15
5828.00,1.15
5827.00,1.15
5826.00,1.15
5825.00,1.15
5824.00,1.15
5823.00,1.15
5822.00,1.15
5821.00,1.15
5820.00,1.15
5819.00,1.15
5818.00,1.15
5817.00,1.15
5816.00,1.15
5815.00,1.15
5814.00,1.15
5813.00,1.15
5812.00,1.15
5811.00,1.15
5810.00,1.15
5809.00,1.15
5808.00,1.15
5807.00,1.15
5806.00,1.15
5805.00,1.15
5804.00,1.15
5803.00,1.15
5802.00,1.15
5801.00,1.15
5800.00,1.15
5799.00,1.14
5798.00,1.14
5797.00,1.14
5796.00,1.14
5795.00,1.14
5794.00,1.14
5793.00,1.13
5792.00,1.13
5791.00,1.13
5790.00,1.13
5789.00,1.12
5788.00,1.12
5787.00,1.12
5786.00,1.12
5785.00,1.11
5784.00,1.11
5783.00,1.11
5782.00,1.11
5781.00,1.10
5780.00,1.10
5779.00,1.10
5778.00,1.10
5777.00,1.10
5776.00,1.09
5775.00,1.09
5774.00,1.09
5773.00,1.09
5772.00,1.09
5771.00,1.09
5770.00,1.09
5769.00,1.09
5768.00,1.09
5767.00,1.09
5766.00,1.10
5765.00,1.10
5764.00,1.10
5763.00,1.10
5762.00,1.11
5761.00,1.11
5760.00,1.11
5759.00,1.12
5758.00,1.12
5757.00,1.12
5756.00,1.13
5755.00,1.13
5754.00,1.14
5753.00,1.14
5752.00,1.15
5751.00,1.15
5750.00,1.16
5749.00,1.16
5748.00,1.16
5747.00,1.17
5746.00,1.17
5745.00,1.18
5744.00,1.18
5743.00,1.18
5742.00,1.19
5741.00,1.19
5740.00,1.20
5739.00,1.20
5738.00,1.20
5737.00,1.20
5736.00,1.21
5735.00,1.21
5734.00,1.21
5733.00,1.21
5732.00,1.22
5731.00,1.22
5730.00,1.22
5729.00,1.22
5728.00,1.22
5727.00,1.22
5726.00,1.23
5725.00,1.23
5724.00,1.23
5723.00,1.23
5722.00,1.23
5721.00,1.23
5720.00,1.23
5719.00,1.23
5718.00,1.23
5717.00,1.23
5716.00,1.23
5715.00,1.23
5714.00,1.23
5713.00,1.23
5712.00,1.23
5711.00,1.23
5710.00,1.23
5709.00,1.23
5708.00,1.23
5707.00,1.23
5706.00,1.23
5705.00,1.23
5704.00,1.23
5703.00,1.22
5702.00,1.22
5701.00,1.22
5700.00,1.22
5699.00,1.22
5698.00,1.22
5697.00,1.21
5696.00,1.21
5695.00,1.21
5694.00,1.21
5693.00,1.21
5692.00,1.20
5691.00,1.20
5690.00,1.20
5689.00,1.20
5688.00,1.20
5687.00,1.19
5686.00,1.19
5685.00,1.19
5684.00,1.19
5683.00,1.19
5682.00,1.19
5681.00,1.19
5680.00,1.19
5679.00,1.19
5678.00,1.18
5677.00,1.18
5676.00,1.18
5675.00,1.18
5674.00,1.18
5673.00,1.18
5672.00,1.19
5671.00,1.19
5670.00,1.19
5669.00,1.19
5668.00,1.19
5667.00,1.19
5666.00,1.19
5665.00,1.19
5664.00,1.19
5663.00,1.19
5662.00,1.20
5661.00,1.20
5660.00,1.20
5659.00,1.20
5658.00,1.20
5657.00,1.21
5656.00,1.21
5655.00,1.21
5654.00,1.21
5653.00,1.22
5652.00,1.22
5651.00,1.22
5650.00,1.22
5649.00,1.23
5648.00,1.23
5647.00,1.23
5646.00,1.23
5645.00,1.23
5644.00,1.24
5643.00,1.24
5642.00,1.24
5641.00,1.24
5640.00,1.25
5639.00,1.25
5638.00,1.25
5637.00,1.25
5636.00,1.25
5635.00,1.26
5634.00,1.26
5633.00,1.26
5632.00,1.26
5631.00,1.27
5630.00,1.27
5629.00,1.27
5628.00,1.27
5627.00,1.27
5626.00,1.28
5625.00,1.28
5624.00,1.28
5623.00,1.28
5622.00,1.29
5621.00,1.29
5620.00,1.29
5619.00,1.29
5618.00,1.29
5617.00,1.30
5616.00,1.30
5615.00,1.30
5614.00,1.30
5613.00,1.30
5612.00,1.30
5611.00,1.31
5610.00,1.31
5609.00,1.31
5608.00,1.31
5607.00,1.31
5606.00,1.31
5605.00,1.32
5604.00,1.32
5603.00,1.32
5602.00,1.32
5601.00,1.32
5600.00,1.33
5599.00,1.33
5598.00,1.33
5597.00,1.33
5596.00,1.33
5595.00,1.33
5594.00,1.34
5593.00,1.34
5592.00,1.34
5591.00,1.34
5590.00,1.34
5589.00,1.34
5588.00,1.35
5587.00,1.35
5586.00,1.35
5585.00,1.35
5584.00,1.35
5583.00,1.35
5582.00,1.36
5581.00,1.36
5580.00,1.36
5579.00,1.36
5578.00,1.36
5577.00,1.36
5576.00,1.37
5575.00,1.37
5574.00,1.37
5573.00,1.37
5572.00,1.37
5571.00,1.38
5570.00,1.38
5569.00,1.38
5568.00,1.38
5567.00,1.38
5566.00,1.39
5565.00,1.39
5564.00,1.39
5563.00,1.39
5562.00,1.40
5561.00,1.40
5560.00,1.40
5559.00,1.40
5558.00,1.40
5557.00,1.40
5556.00,1.41
5555.00,1.41
5554.00,1.41
5553.00,1.41
5552.00,1.41
5551.00,1.42
5550.00,1.42
5549.00,1.42
5548.00,1.42
5547.00,1.42
5546.00,1.42
5545.00,1.43
5544.00,1.43
5543.00,1.43
5542.00,1.43
5541.00,1.43
5540.00,1.43
5539.00,1.44
5538.00,1.44
5537.00,1.44
5536.00,1.44
5535.00,1.44
5534.00,1.44
5533.00,1.44
5532.00,1.45
5531.00,1.45
5530.00,1.45
5529.00,1.45
5528.00,1.45
5527.00,1.45
5526.00,1.45
5525.00,1.45
5524.00,1.45
5523.00,1.45
5522.00,1.45
5521.00,1.45
5520.00,1.46
5519.00,1.46
5518.00,1.46
5517.00,1.46
5516.00,1.46
5515.00,1.46
5514.00,1.46
5513.00,1.46
5512.00,1.46
5511.00,1.46
5510.00,1.46
5509.00,1.46
5508.00,1.46
5507.00,1.46
5506.00,1.46
5505.00,1.46
5504.00,1.46
5503.00,1.46
5502.00,1.46
5501.00,1.46
5500.00,1.46
5499.00,1.47
5498.00,1.47
5497.00,1.47
5496.00,1.47
5495.00,1.47
5494.00,1.47
5493.00,1.47
5492.00,1.47
5491.00,1.48
5490.00,1.48
5489.00,1.48
5488.00,1.48
5487.00,1.48
5486.00,1.48
5485.00,1.48
5484.00,1.49
5483.00,1.49
5482.00,1.49
5481.00,1.49
5480.00,1.49
5479.00,1.49
5478.00,1.50
5477.00,1.50
5476.00,1.50
5475.00,1.50
5474.00,1.50
5473.00,1.50
5472.00,1.51
5471.00,1.51
5470.00,1.51
5469.00,1.51
5468.00,1.51
5467.00,1.51
5466.00,1.51
5465.00,1.52
5464.00,1.52
5463.00,1.52
5462.00,1.52
5461.00,1.52
5460.00,1.52
5459.00,1.52
5458.00,1.53
5457.00,1.53
5456.00,1.53
5455.00,1.53
5454.00,1.53
5453.00,1.53
5452.00,1.53
5451.00,1.53
5450.00,1.53
5449.00,1.53
5448.00,1.53
5447.00,1.53
5446.00,1.53
5445.00,1.53
5444.00,1.53
5443.00,1.54
5442.00,1.54
5441.00,1.54
5440.00,1.54
5439.00,1.54
5438.00,1.54
5437.00,1.54
5436.00,1.54
5435.00,1.54
5434.00,1.54
5433.00,1.54
5432.00,1.54
5431.00,1.54
5430.00,1.54
5429.00,1.54
5428.00,1.54
5427.00,1.54
5426.00,1.54
5425.00,1.54
5424.00,1.54
5423.00,1.54
5422.00,1.54
5421.00,1.54
5420.00,1.54
5419.00,1.55
5418.00,1.55
5417.00,1.55
5416.00,1.55
5415.00,1.55
5414.00,1.55
5413.00,1.55
5412.00,1.55
5411.00,1.55
5410.00,1.55
5409.00,1.55
5408.00,1.55
5407.00,1.55
5406.00,1.55
5405.00,1.54
5404.00,1.54
5403.00,1.54
5402.00,1.54
5401.00,1.54
5400.00,1.54
5399.00,1.54
5398.00,1.54
5397.00,1.54
5396.00,1.54
5395.00,1.54
5394.00,1.54
5393.00,1.53
5392.00,1.53
5391.00,1.53
5390.00,1.53
5389.00,1.53
5388.00,1.52
5387.00,1.52
5386.00,1.52
5385.00,1.52
5384.00,1.51
5383.00,1.51
5382.00,1.51
5381.00,1.50
5380.00,1.50
5379.00,1.50
5378.00,1.49
5377.00,1.49
5376.00,1.48
5375.00,1.48
5374.00,1.47
5373.00,1.47
5372.00,1.46
5371.00,1.46
5370.00,1.45
5369.00,1.45
5368.00,1.44
5367.00,1.44
5366.00,1.43
5365.00,1.42
5364.00,1.42
5363.00,1.41
5362.00,1.41
5361.00,1.40
5360.00,1.39
5359.00,1.38
5358.00,1.38
5357.00,1.37
5356.00,1.36
5355.00,1.35
5354.00,1.34
5353.00,1.33
5352.00,1.32
5351.00,1.31
5350.00,1.30
5349.00,1.29
5348.00,1.28
5347.00,1.27
5346.00,1.26
5345.00,1.24
5344.00,1.23
5343.00,1.22
5342.00,1.21
5341.00,1.20
5340.00,1.18
5339.00,1.17
5338.00,1.16
5337.00,1.15
5336.00,1.13
5335.00,1.12
5334.00,1.11
5333.00,1.10
5332.00,1.08
5331.00,1.07
5330.00,1.06
5329.00,1.05
5328.00,1.03
5327.00,1.02
5326.00,1.01
5325.00,1.00
5324.00,0.99
5323.00,0.97
5322.00,0.96
5321.00,0.95
5320.00,0.94
5319.00,0.93
5318.00,0.91
5317.00,0.90
5316.00,0.89
5315.00,0.88
5314.00,0.87
5313.00,0.86
5312.00,0.85
5311.00,0.84
5310.00,0.83
5309.00,0.82
5308.00,0.81
5307.00,0.81
5306.00,0.80
5305.00,0.79
5304.00,0.78
5303.00,0.78
5302.00,0.77
5301.00,0.76
5300.00,0.76
5299.00,0.75
5298.00,0.75
5297.00,0.74
5296.00,0.74
5295.00,0.73
5294.00,0.73
5293.00,0.72
5292.00,0.72
5291.00,0.72
5290.00,0.71
5289.00,0.71
5288.00,0.71
5287.00,0.70
5286.00,0.70
5285.00,0.70
5284.00,0.70
5283.00,0.70
5282.00,0.70
5281.00,0.69
5280.00,0.69
5279.00,0.69
5278.00,0.69
5277.00,0.69
5276.00,0.69
5275.00,0.69
5274.00,0.69
5273.00,0.69
5272.00,0.69
5271.00,0.68
5270.00,0.68
5269.00,0.68
5268.00,0.68
5267.00,0.68
5266.00,0.68
5265.00,0.68
5264.00,0.68
5263.00,0.68
5262.00,0.68
5261.00,0.68
5260.00,0.68
5259.00,0.68
5258.00,0.68
5257.00,0.68
5256.00,0.68
5255.00,0.67
5254.00,0.67
5253.00,0.67
5252.00,0.67
5251.00,0.67
5250.00,0.67
5249.00,0.67
5248.00,0.67
5247.00,0.67
5246.00,0.67
5245.00,0.67
5244.00,0.67
5243.00,0.67
5242.00,0.67
5241.00,0.67
5240.00,0.68
5239.00,0.68
5238.00,0.68
5237.00,0.68
5236.00,0.68
5235.00,0.68
5234.00,0.68
5233.00,0.68
5232.00,0.68
5231.00,0.68
5230.00,0.68
5229.00,0.68
5228.00,0.68
5227.00,0.68
5226.00,0.68
5225.00,0.68
5224.00,0.68
5223.00,0.68
5222.00,0.68
5221.00,0.68
5220.00,0.68
5219.00,0.68
5218.00,0.68
5217.00,0.68
5216.00,0.68
5215.00,0.68
5214.00,0.68
5213.00,0.68
5212.00,0.68
5211.00,0.68
5210.00,0.68
5209.00,0.68
5208.00,0.68
5207.00,0.68
5206.00,0.68
5205.00,0.68
5204.00,0.68
5203.00,0.69
5202.00,0.69
5201.00,0.69
5200.00,0.69
5199.00,0.69
5198.00,0.69
5197.00,0.69
5196.00,0.69
5195.00,0.69
5194.00,0.69
5193.00,0.69
5192.00,0.69
5191.00,0.69
5190.00,0.69
5189.00,0.69
5188.00,0.70
5187.00,0.70
5186.00,0.70
5185.00,0.70
5184.00,0.70
5183.00,0.70
5182.00,0.70
5181.00,0.70
5180.00,0.70
5179.00,0.70
5178.00,0.69
5177.00,0.69
5176.00,0.69
5175.00,0.69
5174.00,0.69
5173.00,0.69
5172.00,0.69
5171.00,0.69
5170.00,0.69
5169.00,0.69
5168.00,0.69
5167.00,0.69
5166.00,0.69
5165.00,0.69
5164.00,0.69
5163.00,0.70
5162.00,0.70
5161.00,0.70
5160.00,0.70
5159.00,0.70
5158.00,0.70
5157.00,0.70
5156.00,0.70
5155.00,0.71
5154.00,0.71
5153.00,0.71
5152.00,0.71
5151.00,0.71
5150.00,0.71
5149.00,0.71
5148.00,0.71
5147.00,0.71
5146.00,0.71
5145.00,0.71
5144.00,0.71
5143.00,0.71
5142.00,0.71
5141.00,0.71
5140.00,0.71
5139.00,0.71
5138.00,0.71
5137.00,0.71
5136.00,0.72
5135.00,0.72
5134.00,0.72
5133.00,0.72
5132.00,0.72
5131.00,0.72
5130.00,0.72
5129.00,0.72
5128.00,0.72
5127.00,0.72
5126.00,0.72
5125.00,0.72
5124.00,0.72
5123.00,0.72
5122.00,0.72
5121.00,0.72
5120.00,0.73
5119.00,0.73
5118.00,0.73
5117.00,0.73
5116.00,0.73
5115.00,0.73
5114.00,0.73
5113.00,0.73
5112.00,0.73
5111.00,0.73
5110.00,0.73
5109.00,0.73
5108.00,0.73
5107.00,0.73
5106.00,0.73
5105.00,0.73
5104.00,0.73
5103.00,0.74
5102.00,0.74
5101.00,0.74
5100.00,0.74
5099.00,0.74
5098.00,0.74
5097.00,0.74
5096.00,0.74
5095.00,0.74
5094.00,0.74
5093.00,0.74
5092.00,0.74
5091.00,0.75
5090.00,0.75
5089.00,0.75
5088.00,0.75
5087.00,0.75
5086.00,0.75
5085.00,0.75
5084.00,0.75
5083.00,0.75
5082.00,0.75
5081.00,0.75
5080.00,0.75
5079.00,0.75
5078.00,0.75
5077.00,0.76
5076.00,0.76
5075.00,0.76
5074.00,0.76
5073.00,0.76
5072.00,0.76
5071.00,0.76
5070.00,0.76
5069.00,0.76
5068.00,0.76
5067.00,0.76
5066.00,0.76
5065.00,0.76
5064.00,0.76
5063.00,0.76
5062.00,0.76
5061.00,0.76
5060.00,0.76
5059.00,0.77
5058.00,0.77
5057.00,0.77
5056.00,0.77
5055.00,0.77
5054.00,0.77
5053.00,0.77
5052.00,0.77
5051.00,0.77
5050.00,0.77
5049.00,0.78
5048.00,0.78
5047.00,0.78
5046.00,0.78
5045.00,0.78
5044.00,0.78
5043.00,0.78
5042.00,0.78
5041.00,0.78
5040.00,0.78
5039.00,0.78
5038.00,0.78
5037.00,0.78
5036.00,0.78
5035.00,0.78
5034.00,0.78
5033.00,0.78
5032.00,0.79
5031.00,0.79
5030.00,0.79
5029.00,0.79
5028.00,0.79
5027.00,0.79
5026.00,0.79
5025.00,0.79
5024.00,0.79
5023.00,0.79
5022.00,0.79
5021.00,0.80
5020.00,0.80
5019.00,0.80
5018.00,0.80
5017.00,0.80
5016.00,0.80
5015.00,0.80
5014.00,0.80
5013.00,0.81
5012.00,0.81
5011.00,0.81
5010.00,0.81
5009.00,0.81
5008.00,0.81
5007.00,0.81
5006.00,0.81
5005.00,0.81
5004.00,0.81
5003.00,0.82
5002.00,0.82
5001.00,0.82
5000.00,0.82
4999.00,0.82
4998.00,0.82
4997.00,0.82
4996.00,0.82
4995.00,0.82
4994.00,0.83
4993.00,0.83
4992.00,0.83
4991.00,0.83
4990.00,0.83
4989.00,0.83
4988.00,0.83
4987.00,0.83
4986.00,0.83
4985.00,0.83
4984.00,0.83
4983.00,0.83
4982.00,0.83
4981.00,0.83
4980.00,0.84
4979.00,0.84
4978.00,0.84
4977.00,0.84
4976.00,0.84
4975.00,0.84
4974.00,0.84
4973.00,0.84
4972.00,0.84
4971.00,0.84
4970.00,0.84
4969.00,0.84
4968.00,0.84
4967.00,0.85
4966.00,0.85
4965.00,0.85
4964.00,0.85
4963.00,0.85
4962.00,0.85
4961.00,0.85
4960.00,0.85
4959.00,0.85
4958.00,0.86
4957.00,0.86
4956.00,0.86
4955.00,0.86
4954.00,0.86
4953.00,0.86
4952.00,0.86
4951.00,0.87
4950.00,0.87
4949.00,0.87
4948.00,0.87
4947.00,0.87
4946.00,0.87
4945.00,0.88
4944.00,0.88
4943.00,0.88
4942.00,0.88
4941.00,0.88
4940.00,0.88
4939.00,0.88
4938.00,0.88
4937.00,0.88
4936.00,0.89
4935.00,0.89
4934.00,0.89
4933.00,0.89
4932.00,0.89
4931.00,0.89
4930.00,0.89
4929.00,0.89
4928.00,0.89
4927.00,0.89
4926.00,0.89
4925.00,0.89
4924.00,0.89
4923.00,0.89
4922.00,0.89
4921.00,0.89
4920.00,0.89
4919.00,0.90
4918.00,0.90
4917.00,0.90
4916.00,0.90
4915.00,0.90
4914.00,0.90
4913.00,0.90
4912.00,0.90
4911.00,0.90
4910.00,0.90
4909.00,0.90
4908.00,0.91
4907.00,0.91
4906.00,0.91
4905.00,0.91
4904.00,0.91
4903.00,0.91
4902.00,0.91
4901.00,0.91
4900.00,0.91
4899.00,0.91
4898.00,0.91
4897.00,0.91
4896.00,0.91
4895.00,0.91
4894.00,0.91
4893.00,0.91
4892.00,0.91
4891.00,0.91
4890.00,0.91
4889.00,0.92
4888.00,0.92
4887.00,0.92
4886.00,0.92
4885.00,0.92
4884.00,0.92
4883.00,0.92
4882.00,0.92
4881.00,0.92
4880.00,0.92
4879.00,0.92
4878.00,0.92
4877.00,0.92
4876.00,0.93
4875.00,0.93
4874.00,0.93
4873.00,0.93
4872.00,0.93
4871.00,0.93
4870.00,0.93
4869.00,0.93
4868.00,0.93
4867.00,0.93
4866.00,0.93
4865.00,0.93
4864.00,0.93
4863.00,0.93
4862.00,0.93
4861.00,0.93
4860.00,0.94
4859.00,0.94
4858.00,0.94
4857.00,0.94
4856.00,0.94
4855.00,0.94
4854.00,0.94
4853.00,0.95
4852.00,0.95
4851.00,0.95
4850.00,0.95
4849.00,0.95
4848.00,0.95
4847.00,0.95
4846.00,0.95
4845.00,0.95
4844.00,0.95
4843.00,0.95
4842.00,0.96
4841.00,0.96
4840.00,0.96
4839.00,0.96
4838.00,0.96
4837.00,0.96
4836.00,0.96
4835.00,0.96
4834.00,0.96
4833.00,0.96
4832.00,0.96
4831.00,0.96
4830.00,0.96
4829.00,0.96
4828.00,0.96
4827.00,0.96
4826.00,0.96
4825.00,0.96
4824.00,0.96
4823.00,0.97
4822.00,0.97
4821.00,0.97
4820.00,0.97
4819.00,0.97
4818.00,0.97
4817.00,0.97
4816.00,0.97
4815.00,0.97
4814.00,0.97
4813.00,0.98
4812.00,0.98
4811.00,0.98
4810.00,0.98
4809.00,0.98
4808.00,0.98
4807.00,0.98
4806.00,0.99
4805.00,0.99
4804.00,0.99
4803.00,0.99
4802.00,0.99
4801.00,0.99
4800.00,0.99
4799.00,1.00
4798.00,1.00
4797.00,1.00
4796.00,1.00
4795.00,1.00
4794.00,1.00
4793.00,1.00
4792.00,1.00
4791.00,1.00
4790.00,1.00
4789.00,1.01
4788.00,1.01
4787.00,1.01
4786.00,1.01
4785.00,1.01
4784.00,1.01
4783.00,1.01
4782.00,1.01
4781.00,1.01
4780.00,1.01
4779.00,1.01
4778.00,1.02
4777.00,1.02
4776.00,1.02
4775.00,1.02
4774.00,1.02
4773.00,1.02
4772.00,1.03
4771.00,1.03
4770.00,1.03
4769.00,1.03
4768.00,1.03
4767.00,1.04
4766.00,1.04
4765.00,1.04
4764.00,1.04
4763.00,1.05
4762.00,1.05
4761.00,1.05
4760.00,1.05
4759.00,1.05
4758.00,1.06
4757.00,1.06
4756.00,1.06
4755.00,1.06
4754.00,1.06
4753.00,1.07
4752.00,1.07
4751.00,1.07
4750.00,1.07
4749.00,1.07
4748.00,1.07
4747.00,1.08
4746.00,1.08
4745.00,1.08
4744.00,1.08
4743.00,1.08
4742.00,1.08
4741.00,1.08
4740.00,1.09
4739.00,1.09
4738.00,1.09
4737.00,1.09
4736.00,1.09
4735.00,1.09
4734.00,1.10
4733.00,1.10
4732.00,1.10
4731.00,1.10
4730.00,1.10
4729.00,1.11
4728.00,1.11
4727.00,1.11
4726.00,1.11
4725.00,1.11
4724.00,1.12
4723.00,1.12
4722.00,1.12
4721.00,1.12
4720.00,1.12
4719.00,1.13
4718.00,1.13
4717.00,1.13
4716.00,1.13
4715.00,1.13
4714.00,1.14
4713.00,1.14
4712.00,1.14
4711.00,1.14
4710.00,1.15
4709.00,1.15
4708.00,1.15
4707.00,1.15
4706.00,1.16
4705.00,1.16
4704.00,1.16
4703.00,1.16
4702.00,1.17
4701.00,1.17
4700.00,1.17
4699.00,1.17
4698.00,1.18
4697.00,1.18
4696.00,1.18
4695.00,1.18
4694.00,1.19
4693.00,1.19
4692.00,1.19
4691.00,1.19
4690.00,1.19
4689.00,1.20
4688.00,1.20
4687.00,1.20
4686.00,1.20
4685.00,1.20
4684.00,1.20
4683.00,1.20
4682.00,1.21
4681.00,1.21
4680.00,1.21
4679.00,1.21
4678.00,1.21
4677.00,1.21
4676.00,1.21
4675.00,1.22
4674.00,1.22
4673.00,1.22
4672.00,1.22
4671.00,1.22
4670.00,1.23
4669.00,1.23
4668.00,1.23
4667.00,1.23
4666.00,1.23
4665.00,1.24
4664.00,1.24
4663.00,1.24
4662.00,1.24
4661.00,1.24
4660.00,1.24
4659.00,1.25
4658.00,1.25
4657.00,1.25
4656.00,1.25
4655.00,1.25
4654.00,1.25
4653.00,1.25
4652.00,1.26
4651.00,1.26
4650.00,1.26
4649.00,1.26
4648.00,1.26
4647.00,1.27
4646.00,1.27
4645.00,1.27
4644.00,1.27
4643.00,1.27
4642.00,1.28
4641.00,1.28
4640.00,1.28
4639.00,1.28
4638.00,1.28
4637.00,1.29
4636.00,1.29
4635.00,1.29
4634.00,1.29
4633.00,1.29
4632.00,1.29
4631.00,1.30
4630.00,1.30
4629.00,1.30
4628.00,1.30
4627.00,1.30
4626.00,1.30
4625.00,1.30
4624.00,1.30
4623.00,1.30
4622.00,1.30
4621.00,1.30
4620.00,1.31
4619.00,1.31
4618.00,1.31
4617.00,1.31
4616.00,1.31
4615.00,1.31
4614.00,1.31
4613.00,1.31
4612.00,1.31
4611.00,1.31
4610.00,1.31
4609.00,1.31
4608.00,1.31
4607.00,1.31
4606.00,1.31
4605.00,1.31
4604.00,1.32
4603.00,1.32
4602.00,1.32
4601.00,1.32
4600.00,1.32
4599.00,1.32
4598.00,1.32
4597.00,1.32
4596.00,1.33
4595.00,1.33
4594.00,1.33
4593.00,1.33
4592.00,1.33
4591.00,1.33
4590.00,1.33
4589.00,1.34
4588.00,1.34
4587.00,1.34
4586.00,1.34
4585.00,1.34
4584.00,1.34
4583.00,1.35
4582.00,1.35
4581.00,1.35
4580.00,1.35
4579.00,1.35
4578.00,1.35
4577.00,1.35
4576.00,1.36
4575.00,1.36
4574.00,1.36
4573.00,1.36
4572.00,1.36
4571.00,1.36
4570.00,1.36
4569.00,1.36
4568.00,1.36
4567.00,1.36
4566.00,1.37
4565.00,1.37
4564.00,1.37
4563.00,1.37
4562.00,1.37
4561.00,1.37
4560.00,1.37
4559.00,1.37
4558.00,1.37
4557.00,1.37
4556.00,1.37
4555.00,1.38
4554.00,1.38
4553.00,1.38
4552.00,1.38
4551.00,1.38
4550.00,1.38
4549.00,1.38
4548.00,1.39
4547.00,1.39
4546.00,1.39
4545.00,1.39
4544.00,1.39
4543.00,1.39
4542.00,1.39
4541.00,1.39
4540.00,1.39
4539.00,1.39
4538.00,1.39
4537.00,1.39
4536.00,1.39
4535.00,1.39
4534.00,1.39
4533.00,1.39
4532.00,1.39
4531.00,1.39
4530.00,1.39
4529.00,1.39
4528.00,1.39
4527.00,1.39
4526.00,1.39
4525.00,1.39
4524.00,1.39
4523.00,1.39
4522.00,1.39
4521.00,1.39
4520.00,1.39
4519.00,1.39
4518.00,1.39
4517.00,1.39
4516.00,1.39
4515.00,1.39
4514.00,1.39
4513.00,1.39
4512.00,1.39
4511.00,1.39
4510.00,1.39
4509.00,1.39
4508.00,1.39
4507.00,1.39
4506.00,1.39
4505.00,1.39
4504.00,1.39
4503.00,1.39
4502.00,1.39
4501.00,1.39
4500.00,1.39
4499.00,1.39
4498.00,1.39
4497.00,1.39
4496.00,1.39
4495.00,1.39
4494.00,1.38
4493.00,1.38
4492.00,1.38
4491.00,1.38
4490.00,1.38
4489.00,1.38
4488.00,1.38
4487.00,1.38
4486.00,1.38
4485.00,1.38
4484.00,1.37
4483.00,1.37
4482.00,1.37
4481.00,1.37
4480.00,1.37
4479.00,1.37
4478.00,1.36
4477.00,1.36
4476.00,1.36
4475.00,1.36
4474.00,1.35
4473.00,1.35
4472.00,1.35
4471.00,1.34
4470.00,1.34
4469.00,1.34
4468.00,1.33
4467.00,1.33
4466.00,1.33
4465.00,1.32
4464.00,1.32
4463.00,1.32
4462.00,1.31
4461.00,1.31
4460.00,1.31
4459.00,1.30
4458.00,1.30
4457.00,1.29
4456.00,1.29
4455.00,1.29
4454.00,1.28
4453.00,1.28
4452.00,1.27
4451.00,1.27
4450.00,1.26
4449.00,1.26
4448.00,1.25
4447.00,1.25
4446.00,1.25
4445.00,1.24
4444.00,1.24
4443.00,1.23
4442.00,1.23
4441.00,1.22
4440.00,1.22
4439.00,1.21
4438.00,1.21
4437.00,1.20
4436.00,1.20
4435.00,1.20
4434.00,1.19
4433.00,1.19
4432.00,1.19
4431.00,1.18
4430.00,1.18
4429.00,1.18
4428.00,1.18
4427.00,1.18
4426.00,1.18
4425.00,1.17
4424.00,1.17
4423.00,1.17
4422.00,1.17
4421.00,1.17
4420.00,1.17
4419.00,1.17
4418.00,1.17
4417.00,1.17
4416.00,1.17
4415.00,1.17
4414.00,1.17
4413.00,1.17
4412.00,1.17
4411.00,1.17
4410.00,1.17
4409.00,1.17
4408.00,1.17
4407.00,1.17
4406.00,1.17
4405.00,1.17
4404.00,1.17
4403.00,1.17
4402.00,1.17
4401.00,1.18
4400.00,1.18
4399.00,1.18
4398.00,1.18
4397.00,1.18
4396.00,1.18
4395.00,1.18
4394.00,1.19
4393.00,1.19
4392.00,1.19
4391.00,1.19
4390.00,1.19
4389.00,1.19
4388.00,1.19
4387.00,1.20
4386.00,1.20
4385.00,1.20
4384.00,1.20
4383.00,1.20
4382.00,1.20
4381.00,1.20
4380.00,1.20
4379.00,1.20
4378.00,1.21
4377.00,1.21
4376.00,1.21
4375.00,1.21
4374.00,1.21
4373.00,1.21
4372.00,1.21
4371.00,1.21
4370.00,1.22
4369.00,1.22
4368.00,1.22
4367.00,1.22
4366.00,1.22
4365.00,1.22
4364.00,1.22
4363.00,1.22
4362.00,1.22
4361.00,1.22
4360.00,1.22
4359.00,1.22
4358.00,1.22
4357.00,1.22
4356.00,1.22
4355.00,1.22
4354.00,1.22
4353.00,1.22
4352.00,1.22
4351.00,1.22
4350.00,1.22
4349.00,1.22
4348.00,1.22
4347.00,1.22
4346.00,1.22
4345.00,1.22
4344.00,1.22
4343.00,1.22
4342.00,1.22
4341.00,1.22
4340.00,1.22
4339.00,1.22
4338.00,1.22
4337.00,1.22
4336.00,1.22
4335.00,1.22
4334.00,1.22
4333.00,1.22
4332.00,1.22
4331.00,1.22
4330.00,1.22
4329.00,1.23
4328.00,1.23
4327.00,1.23
4326.00,1.23
4325.00,1.23
4324.00,1.23
4323.00,1.23
4322.00,1.23
4321.00,1.24
4320.00,1.24
4319.00,1.24
4318.00,1.24
4317.00,1.25
4316.00,1.25
4315.00,1.25
4314.00,1.25
4313.00,1.26
4312.00,1.26
4311.00,1.26
4310.00,1.27
4309.00,1.27
4308.00,1.27
4307.00,1.28
4306.00,1.28
4305.00,1.28
4304.00,1.28
4303.00,1.29
4302.00,1.29
4301.00,1.29
4300.00,1.29
4299.00,1.29
4298.00,1.29
4297.00,1.29
4296.00,1.30
4295.00,1.30
4294.00,1.30
4293.00,1.30
4292.00,1.30
4291.00,1.30
4290.00,1.30
4289.00,1.30
4288.00,1.30
4287.00,1.30
4286.00,1.30
4285.00,1.30
4284.00,1.30
4283.00,1.31
4282.00,1.31
4281.00,1.31
4280.00,1.31
4279.00,1.31
4278.00,1.31
4277.00,1.31
4276.00,1.31
4275.00,1.31
4274.00,1.31
4273.00,1.31
4272.00,1.31
4271.00,1.31
4270.00,1.31
4269.00,1.31
4268.00,1.31
4267.00,1.32
4266.00,1.32
4265.00,1.32
4264.00,1.32
4263.00,1.32
4262.00,1.32
4261.00,1.32
4260.00,1.32
4259.00,1.32
4258.00,1.31
4257.00,1.31
4256.00,1.31
4255.00,1.31
4254.00,1.31
4253.00,1.31
4252.00,1.31
4251.00,1.31
4250.00,1.31
4249.00,1.32
4248.00,1.32
4247.00,1.32
4246.00,1.32
4245.00,1.32
4244.00,1.32
4243.00,1.32
4242.00,1.32
4241.00,1.33
4240.00,1.33
4239.00,1.33
4238.00,1.33
4237.00,1.33
4236.00,1.34
4235.00,1.34
4234.00,1.34
4233.00,1.34
4232.00,1.34
4231.00,1.35
4230.00,1.35
4229.00,1.35
4228.00,1.35
4227.00,1.35
4226.00,1.35
4225.00,1.36
4224.00,1.36
4223.00,1.36
4222.00,1.36
4221.00,1.36
4220.00,1.36
4219.00,1.36
4218.00,1.37
4217.00,1.37
4216.00,1.37
4215.00,1.37
4214.00,1.37
4213.00,1.37
4212.00,1.37
4211.00,1.37
4210.00,1.37
4209.00,1.37
4208.00,1.37
4207.00,1.37
4206.00,1.37
4205.00,1.38
4204.00,1.38
4203.00,1.38
4202.00,1.37
4201.00,1.37
4200.00,1.37
4199.00,1.37
4198.00,1.37
4197.00,1.37
4196.00,1.37
4195.00,1.37
4194.00,1.37
4193.00,1.37
4192.00,1.37
4191.00,1.37
4190.00,1.37
4189.00,1.37
4188.00,1.37
4187.00,1.38
4186.00,1.38
4185.00,1.38
4184.00,1.38
4183.00,1.38
4182.00,1.38
4181.00,1.38
4180.00,1.38
4179.00,1.38
4178.00,1.38
4177.00,1.38
4176.00,1.38
4175.00,1.38
4174.00,1.39
4173.00,1.39
4172.00,1.39
4171.00,1.39
4170.00,1.39
4169.00,1.39
4168.00,1.39
4167.00,1.40
4166.00,1.40
4165.00,1.40
4164.00,1.40
4163.00,1.40
4162.00,1.40
4161.00,1.40
4160.00,1.40
4159.00,1.40
4158.00,1.40
4157.00,1.40
4156.00,1.40
4155.00,1.40
4154.00,1.40
4153.00,1.40
4152.00,1.40
4151.00,1.40
4150.00,1.41
4149.00,1.41
4148.00,1.41
4147.00,1.41
4146.00,1.41
4145.00,1.41
4144.00,1.41
4143.00,1.41
4142.00,1.42
4141.00,1.42
4140.00,1.42
4139.00,1.42
4138.00,1.42
4137.00,1.42
4136.00,1.42
4135.00,1.42
4134.00,1.42
4133.00,1.41
4132.00,1.41
4131.00,1.41
4130.00,1.41
4129.00,1.41
4128.00,1.41
4127.00,1.41
4126.00,1.41
4125.00,1.41
4124.00,1.41
4123.00,1.41
4122.00,1.41
4121.00,1.41
4120.00,1.41
4119.00,1.41
4118.00,1.41
4117.00,1.41
4116.00,1.41
4115.00,1.41
4114.00,1.42
4113.00,1.42
4112.00,1.42
4111.00,1.42
4110.00,1.42
4109.00,1.43
4108.00,1.43
4107.00,1.43
4106.00,1.43
4105.00,1.43
4104.00,1.43
4103.00,1.44
4102.00,1.44
4101.00,1.44
4100.00,1.44
4099.00,1.44
4098.00,1.44
4097.00,1.44
4096.00,1.44
4095.00,1.44
4094.00,1.44
4093.00,1.43
4092.00,1.43
4091.00,1.43
4090.00,1.43
4089.00,1.43
4088.00,1.43
4087.00,1.43
4086.00,1.42
4085.00,1.42
4084.00,1.42
4083.00,1.42
4082.00,1.42
4081.00,1.42
4080.00,1.42
4079.00,1.42
4078.00,1.42
4077.00,1.42
4076.00,1.42
4075.00,1.43
4074.00,1.43
4073.00,1.43
4072.00,1.43
4071.00,1.43
4070.00,1.44
4069.00,1.44
4068.00,1.44
4067.00,1.44
4066.00,1.45
4065.00,1.45
4064.00,1.45
4063.00,1.46
4062.00,1.46
4061.00,1.46
4060.00,1.46
4059.00,1.47
4058.00,1.47
4057.00,1.47
4056.00,1.47
4055.00,1.47
4054.00,1.47
4053.00,1.47
4052.00,1.48
4051.00,1.48
4050.00,1.48
4049.00,1.48
4048.00,1.48
4047.00,1.48
4046.00,1.48
4045.00,1.48
4044.00,1.48
4043.00,1.49
4042.00,1.49
4041.00,1.49
4040.00,1.49
4039.00,1.49
4038.00,1.49
4037.00,1.50
4036.00,1.50
4035.00,1.50
4034.00,1.50
4033.00,1.50
4032.00,1.50
4031.00,1.51
4030.00,1.51
4029.00,1.51
4028.00,1.51
4027.00,1.51
4026.00,1.51
4025.00,1.51
4024.00,1.51
4023.00,1.51
4022.00,1.51
4021.00,1.51
4020.00,1.51
4019.00,1.51
4018.00,1.51
4017.00,1.52
4016.00,1.52
4015.00,1.52
4014.00,1.52
4013.00,1.52
4012.00,1.52
4011.00,1.52
4010.00,1.52
4009.00,1.52
4008.00,1.53
4007.00,1.53
4006.00,1.53
4005.00,1.53
4004.00,1.54
4003.00,1.54
4002.00,1.54
4001.00,1.55
4000.00,1.55
