创建为新数据集,样品 098 用户 Administrator 日期 星期六, 七月 21 2018
cm-1,%T
10000.00,1.57
9999.00,1.57
9998.00,1.58
9997.00,1.58
9996.00,1.58
9995.00,1.58
9994.00,1.58
9993.00,1.58
9992.00,1.58
9991.00,1.58
9990.00,1.58
9989.00,1.58
9988.00,1.58
9987.00,1.58
9986.00,1.58
9985.00,1.58
9984.00,1.58
9983.00,1.58
9982.00,1.57
9981.00,1.57
9980.00,1.57
9979.00,1.57
9978.00,1.56
9977.00,1.56
9976.00,1.56
9975.00,1.56
9974.00,1.55
9973.00,1.55
9972.00,1.55
9971.00,1.54
9970.00,1.54
9969.00,1.54
9968.00,1.54
9967.00,1.54
9966.00,1.54
9965.00,1.54
9964.00,1.54
9963.00,1.54
9962.00,1.54
9961.00,1.54
9960.00,1.54
9959.00,1.54
9958.00,1.54
9957.00,1.54
9956.00,1.55
9955.00,1.55
9954.00,1.55
9953.00,1.55
9952.00,1.54
9951.00,1.54
9950.00,1.54
9949.00,1.54
9948.00,1.54
9947.00,1.54
9946.00,1.54
9945.00,1.54
9944.00,1.53
9943.00,1.53
9942.00,1.53
9941.00,1.53
9940.00,1.53
9939.00,1.53
9938.00,1.53
9937.00,1.53
9936.00,1.53
9935.00,1.53
9934.00,1.53
9933.00,1.54
9932.00,1.54
9931.00,1.54
9930.00,1.55
9929.00,1.55
9928.00,1.55
9927.00,1.56
9926.00,1.56
9925.00,1.56
9924.00,1.56
9923.00,1.56
9922.00,1.56
9921.00,1.56
9920.00,1.56
9919.00,1.56
9918.00,1.55
9917.00,1.55
9916.00,1.55
9915.00,1.54
9914.00,1.53
9913.00,1.53
9912.00,1.52
9911.00,1.52
9910.00,1.51
9909.00,1.51
9908.00,1.50
9907.00,1.50
9906.00,1.50
9905.00,1.50
9904.00,1.50
9903.00,1.50
9902.00,1.50
9901.00,1.50
9900.00,1.50
9899.00,1.50
9898.00,1.51
9897.00,1.51
9896.00,1.51
9895.00,1.52
9894.00,1.52
9893.00,1.52
9892.00,1.53
9891.00,1.53
9890.00,1.54
9889.00,1.54
9888.00,1.54
9887.00,1.55
9886.00,1.55
9885.00,1.56
9884.00,1.56
9883.00,1.56
9882.00,1.57
9881.00,1.57
9880.00,1.57
9879.00,1.57
9878.00,1.57
9877.00,1.57
9876.00,1.57
9875.00,1.57
9874.00,1.57
9873.00,1.57
9872.00,1.57
9871.00,1.56
9870.00,1.56
9869.00,1.56
9868.00,1.55
9867.00,1.55
9866.00,1.54
9865.00,1.54
9864.00,1.53
9863.00,1.53
9862.00,1.52
9861.00,1.52
9860.00,1.52
9859.00,1.52
9858.00,1.51
9857.00,1.51
9856.00,1.51
9855.00,1.51
9854.00,1.51
9853.00,1.51
9852.00,1.51
9851.00,1.51
9850.00,1.52
9849.00,1.52
9848.00,1.52
9847.00,1.52
9846.00,1.52
9845.00,1.52
9844.00,1.52
9843.00,1.52
9842.00,1.52
9841.00,1.51
9840.00,1.51
9839.00,1.51
9838.00,1.51
9837.00,1.51
9836.00,1.51
9835.00,1.51
9834.00,1.51
9833.00,1.51
9832.00,1.51
9831.00,1.51
9830.00,1.51
9829.00,1.52
9828.00,1.52
9827.00,1.52
9826.00,1.52
9825.00,1.53
9824.00,1.53
9823.00,1.53
9822.00,1.53
9821.00,1.53
9820.00,1.54
9819.00,1.54
9818.00,1.54
9817.00,1.54
9816.00,1.54
9815.00,1.55
9814.00,1.55
9813.00,1.55
9812.00,1.55
9811.00,1.55
9810.00,1.55
9809.00,1.55
9808.00,1.56
9807.00,1.56
9806.00,1.56
9805.00,1.56
9804.00,1.56
9803.00,1.56
9802.00,1.56
9801.00,1.56
9800.00,1.55
9799.00,1.55
9798.00,1.55
9797.00,1.55
9796.00,1.55
9795.00,1.54
9794.00,1.54
9793.00,1.54
9792.00,1.54
9791.00,1.54
9790.00,1.54
9789.00,1.53
9788.00,1.53
9787.00,1.53
9786.00,1.53
9785.00,1.54
9784.00,1.54
9783.00,1.54
9782.00,1.54
9781.00,1.54
9780.00,1.54
9779.00,1.54
9778.00,1.55
9777.00,1.55
9776.00,1.55
9775.00,1.55
9774.00,1.55
9773.00,1.55
9772.00,1.55
9771.00,1.55
9770.00,1.55
9769.00,1.55
9768.00,1.55
9767.00,1.55
9766.00,1.55
9765.00,1.55
9764.00,1.55
9763.00,1.55
9762.00,1.55
9761.00,1.55
9760.00,1.55
9759.00,1.55
9758.00,1.55
9757.00,1.56
9756.00,1.56
9755.00,1.56
9754.00,1.56
9753.00,1.56
9752.00,1.57
9751.00,1.57
9750.00,1.57
9749.00,1.57
9748.00,1.57
9747.00,1.57
9746.00,1.57
9745.00,1.57
9744.00,1.57
9743.00,1.56
9742.00,1.56
9741.00,1.56
9740.00,1.55
9739.00,1.55
9738.00,1.54
9737.00,1.54
9736.00,1.54
9735.00,1.53
9734.00,1.53
9733.00,1.53
9732.00,1.53
9731.00,1.53
9730.00,1.53
9729.00,1.53
9728.00,1.53
9727.00,1.53
9726.00,1.53
9725.00,1.54
9724.00,1.54
9723.00,1.54
9722.00,1.55
9721.00,1.55
9720.00,1.55
9719.00,1.56
9718.00,1.56
9717.00,1.56
9716.00,1.56
9715.00,1.56
9714.00,1.56
9713.00,1.56
9712.00,1.56
9711.00,1.56
9710.00,1.56
9709.00,1.56
9708.00,1.56
9707.00,1.56
9706.00,1.55
9705.00,1.55
9704.00,1.55
9703.00,1.55
9702.00,1.55
9701.00,1.54
9700.00,1.54
9699.00,1.54
9698.00,1.54
9697.00,1.54
9696.00,1.54
9695.00,1.54
9694.00,1.54
9693.00,1.54
9692.00,1.54
9691.00,1.54
9690.00,1.54
9689.00,1.54
9688.00,1.54
9687.00,1.55
9686.00,1.55
9685.00,1.55
9684.00,1.55
9683.00,1.55
9682.00,1.55
9681.00,1.55
9680.00,1.55
9679.00,1.56
9678.00,1.56
9677.00,1.56
9676.00,1.56
9675.00,1.56
9674.00,1.56
9673.00,1.56
9672.00,1.56
9671.00,1.56
9670.00,1.56
9669.00,1.56
9668.00,1.56
9667.00,1.56
9666.00,1.56
9665.00,1.56
9664.00,1.56
9663.00,1.56
9662.00,1.56
9661.00,1.55
9660.00,1.55
9659.00,1.55
9658.00,1.55
9657.00,1.55
9656.00,1.55
9655.00,1.56
9654.00,1.56
9653.00,1.56
9652.00,1.56
9651.00,1.56
9650.00,1.56
9649.00,1.56
9648.00,1.56
9647.00,1.56
9646.00,1.56
9645.00,1.56
9644.00,1.56
9643.00,1.56
9642.00,1.56
9641.00,1.56
9640.00,1.56
9639.00,1.56
9638.00,1.55
9637.00,1.55
9636.00,1.55
9635.00,1.55
9634.00,1.55
9633.00,1.55
9632.00,1.55
9631.00,1.55
9630.00,1.55
9629.00,1.55
9628.00,1.55
9627.00,1.55
9626.00,1.55
9625.00,1.55
9624.00,1.55
9623.00,1.55
9622.00,1.55
9621.00,1.55
9620.00,1.55
9619.00,1.55
9618.00,1.55
9617.00,1.55
9616.00,1.55
9615.00,1.55
9614.00,1.55
9613.00,1.55
9612.00,1.55
9611.00,1.55
9610.00,1.55
9609.00,1.55
9608.00,1.56
9607.00,1.56
9606.00,1.56
9605.00,1.56
9604.00,1.56
9603.00,1.56
9602.00,1.56
9601.00,1.56
9600.00,1.56
9599.00,1.56
9598.00,1.56
9597.00,1.56
9596.00,1.56
9595.00,1.56
9594.00,1.56
9593.00,1.56
9592.00,1.56
9591.00,1.56
9590.00,1.56
9589.00,1.56
9588.00,1.56
9587.00,1.56
9586.00,1.56
9585.00,1.55
9584.00,1.55
9583.00,1.55
9582.00,1.55
9581.00,1.55
9580.00,1.55
9579.00,1.54
9578.00,1.54
9577.00,1.54
9576.00,1.54
9575.00,1.54
9574.00,1.54
9573.00,1.54
9572.00,1.54
9571.00,1.54
9570.00,1.54
9569.00,1.54
9568.00,1.54
9567.00,1.54
9566.00,1.54
9565.00,1.54
9564.00,1.54
9563.00,1.54
9562.00,1.54
9561.00,1.54
9560.00,1.54
9559.00,1.54
9558.00,1.54
9557.00,1.54
9556.00,1.54
9555.00,1.54
9554.00,1.54
9553.00,1.54
9552.00,1.54
9551.00,1.54
9550.00,1.54
9549.00,1.54
9548.00,1.54
9547.00,1.55
9546.00,1.55
9545.00,1.55
9544.00,1.55
9543.00,1.55
9542.00,1.56
9541.00,1.56
9540.00,1.56
9539.00,1.56
9538.00,1.56
9537.00,1.56
9536.00,1.57
9535.00,1.57
9534.00,1.57
9533.00,1.57
9532.00,1.57
9531.00,1.56
9530.00,1.56
9529.00,1.56
9528.00,1.56
9527.00,1.56
9526.00,1.56
9525.00,1.56
9524.00,1.56
9523.00,1.56
9522.00,1.56
9521.00,1.55
9520.00,1.55
9519.00,1.55
9518.00,1.55
9517.00,1.55
9516.00,1.55
9515.00,1.55
9514.00,1.56
9513.00,1.56
9512.00,1.56
9511.00,1.56
9510.00,1.56
9509.00,1.56
9508.00,1.56
9507.00,1.56
9506.00,1.56
9505.00,1.56
9504.00,1.56
9503.00,1.56
9502.00,1.56
9501.00,1.56
9500.00,1.56
9499.00,1.56
9498.00,1.56
9497.00,1.56
9496.00,1.56
9495.00,1.56
9494.00,1.56
9493.00,1.55
9492.00,1.55
9491.00,1.55
9490.00,1.55
9489.00,1.54
9488.00,1.54
9487.00,1.54
9486.00,1.54
9485.00,1.54
9484.00,1.54
9483.00,1.54
9482.00,1.54
9481.00,1.54
9480.00,1.54
9479.00,1.55
9478.00,1.55
9477.00,1.55
9476.00,1.55
9475.00,1.56
9474.00,1.56
9473.00,1.56
9472.00,1.56
9471.00,1.57
9470.00,1.57
9469.00,1.57
9468.00,1.57
9467.00,1.57
9466.00,1.57
9465.00,1.57
9464.00,1.57
9463.00,1.57
9462.00,1.57
9461.00,1.57
9460.00,1.57
9459.00,1.57
9458.00,1.58
9457.00,1.58
9456.00,1.58
9455.00,1.58
9454.00,1.58
9453.00,1.58
9452.00,1.58
9451.00,1.58
9450.00,1.58
9449.00,1.58
9448.00,1.58
9447.00,1.58
9446.00,1.58
9445.00,1.57
9444.00,1.57
9443.00,1.57
9442.00,1.57
9441.00,1.57
9440.00,1.57
9439.00,1.57
9438.00,1.57
9437.00,1.56
9436.00,1.56
9435.00,1.56
9434.00,1.56
9433.00,1.56
9432.00,1.55
9431.00,1.55
9430.00,1.55
9429.00,1.55
9428.00,1.55
9427.00,1.54
9426.00,1.54
9425.00,1.54
9424.00,1.54
9423.00,1.54
9422.00,1.54
9421.00,1.54
9420.00,1.54
9419.00,1.54
9418.00,1.54
9417.00,1.54
9416.00,1.54
9415.00,1.54
9414.00,1.54
9413.00,1.54
9412.00,1.54
9411.00,1.54
9410.00,1.54
9409.00,1.54
9408.00,1.54
9407.00,1.54
9406.00,1.53
9405.00,1.53
9404.00,1.53
9403.00,1.53
9402.00,1.53
9401.00,1.53
9400.00,1.53
9399.00,1.53
9398.00,1.53
9397.00,1.53
9396.00,1.53
9395.00,1.53
9394.00,1.53
9393.00,1.53
9392.00,1.53
9391.00,1.53
9390.00,1.53
9389.00,1.53
9388.00,1.53
9387.00,1.53
9386.00,1.53
9385.00,1.54
9384.00,1.54
9383.00,1.54
9382.00,1.54
9381.00,1.54
9380.00,1.54
9379.00,1.55
9378.00,1.55
9377.00,1.55
9376.00,1.55
9375.00,1.55
9374.00,1.55
9373.00,1.55
9372.00,1.55
9371.00,1.54
9370.00,1.54
9369.00,1.54
9368.00,1.54
9367.00,1.54
9366.00,1.54
9365.00,1.54
9364.00,1.54
9363.00,1.54
9362.00,1.54
9361.00,1.54
9360.00,1.54
9359.00,1.54
9358.00,1.54
9357.00,1.54
9356.00,1.54
9355.00,1.54
9354.00,1.54
9353.00,1.54
9352.00,1.54
9351.00,1.54
9350.00,1.54
9349.00,1.54
9348.00,1.54
9347.00,1.54
9346.00,1.54
9345.00,1.53
9344.00,1.53
9343.00,1.53
9342.00,1.53
9341.00,1.53
9340.00,1.53
9339.00,1.53
9338.00,1.52
9337.00,1.53
9336.00,1.53
9335.00,1.53
9334.00,1.53
9333.00,1.53
9332.00,1.53
9331.00,1.53
9330.00,1.54
9329.00,1.54
9328.00,1.54
9327.00,1.54
9326.00,1.54
9325.00,1.55
9324.00,1.55
9323.00,1.55
9322.00,1.55
9321.00,1.55
9320.00,1.54
9319.00,1.54
9318.00,1.54
9317.00,1.54
9316.00,1.54
9315.00,1.53
9314.00,1.53
9313.00,1.53
9312.00,1.52
9311.00,1.52
9310.00,1.52
9309.00,1.52
9308.00,1.52
9307.00,1.52
9306.00,1.52
9305.00,1.52
9304.00,1.52
9303.00,1.52
9302.00,1.52
9301.00,1.52
9300.00,1.53
9299.00,1.53
9298.00,1.53
9297.00,1.53
9296.00,1.53
9295.00,1.54
9294.00,1.54
9293.00,1.54
9292.00,1.54
9291.00,1.54
9290.00,1.54
9289.00,1.54
9288.00,1.53
9287.00,1.53
9286.00,1.53
9285.00,1.53
9284.00,1.53
9283.00,1.53
9282.00,1.52
9281.00,1.52
9280.00,1.52
9279.00,1.52
9278.00,1.53
9277.00,1.53
9276.00,1.53
9275.00,1.53
9274.00,1.53
9273.00,1.54
9272.00,1.54
9271.00,1.54
9270.00,1.55
9269.00,1.55
9268.00,1.55
9267.00,1.55
9266.00,1.55
9265.00,1.55
9264.00,1.56
9263.00,1.56
9262.00,1.56
9261.00,1.56
9260.00,1.56
9259.00,1.56
9258.00,1.56
9257.00,1.56
9256.00,1.56
9255.00,1.55
9254.00,1.55
9253.00,1.55
9252.00,1.55
9251.00,1.55
9250.00,1.55
9249.00,1.55
9248.00,1.55
9247.00,1.55
9246.00,1.55
9245.00,1.55
9244.00,1.55
9243.00,1.55
9242.00,1.55
9241.00,1.55
9240.00,1.55
9239.00,1.55
9238.00,1.55
9237.00,1.55
9236.00,1.55
9235.00,1.55
9234.00,1.55
9233.00,1.55
9232.00,1.56
9231.00,1.56
9230.00,1.56
9229.00,1.56
9228.00,1.56
9227.00,1.56
9226.00,1.56
9225.00,1.56
9224.00,1.56
9223.00,1.56
9222.00,1.56
9221.00,1.56
9220.00,1.55
9219.00,1.55
9218.00,1.55
9217.00,1.55
9216.00,1.55
9215.00,1.55
9214.00,1.54
9213.00,1.54
9212.00,1.54
9211.00,1.54
9210.00,1.54
9209.00,1.53
9208.00,1.53
9207.00,1.53
9206.00,1.53
9205.00,1.53
9204.00,1.53
9203.00,1.53
9202.00,1.53
9201.00,1.53
9200.00,1.53
9199.00,1.53
9198.00,1.54
9197.00,1.54
9196.00,1.54
9195.00,1.54
9194.00,1.55
9193.00,1.55
9192.00,1.55
9191.00,1.55
9190.00,1.55
9189.00,1.56
9188.00,1.56
9187.00,1.56
9186.00,1.56
9185.00,1.55
9184.00,1.55
9183.00,1.55
9182.00,1.55
9181.00,1.55
9180.00,1.54
9179.00,1.54
9178.00,1.54
9177.00,1.54
9176.00,1.54
9175.00,1.54
9174.00,1.54
9173.00,1.53
9172.00,1.53
9171.00,1.53
9170.00,1.53
9169.00,1.53
9168.00,1.53
9167.00,1.54
9166.00,1.54
9165.00,1.54
9164.00,1.54
9163.00,1.54
9162.00,1.54
9161.00,1.54
9160.00,1.54
9159.00,1.54
9158.00,1.54
9157.00,1.54
9156.00,1.55
9155.00,1.55
9154.00,1.55
9153.00,1.55
9152.00,1.55
9151.00,1.55
9150.00,1.55
9149.00,1.55
9148.00,1.55
9147.00,1.55
9146.00,1.55
9145.00,1.54
9144.00,1.54
9143.00,1.54
9142.00,1.54
9141.00,1.54
9140.00,1.54
9139.00,1.54
9138.00,1.53
9137.00,1.53
9136.00,1.53
9135.00,1.53
9134.00,1.53
9133.00,1.53
9132.00,1.53
9131.00,1.53
9130.00,1.54
9129.00,1.54
9128.00,1.54
9127.00,1.54
9126.00,1.54
9125.00,1.54
9124.00,1.54
9123.00,1.54
9122.00,1.55
9121.00,1.55
9120.00,1.55
9119.00,1.55
9118.00,1.55
9117.00,1.55
9116.00,1.56
9115.00,1.56
9114.00,1.56
9113.00,1.56
9112.00,1.56
9111.00,1.56
9110.00,1.57
9109.00,1.57
9108.00,1.57
9107.00,1.57
9106.00,1.57
9105.00,1.57
9104.00,1.57
9103.00,1.57
9102.00,1.58
9101.00,1.58
9100.00,1.58
9099.00,1.58
9098.00,1.58
9097.00,1.58
9096.00,1.58
9095.00,1.58
9094.00,1.57
9093.00,1.57
9092.00,1.57
9091.00,1.57
9090.00,1.57
9089.00,1.57
9088.00,1.57
9087.00,1.57
9086.00,1.57
9085.00,1.56
9084.00,1.56
9083.00,1.56
9082.00,1.56
9081.00,1.56
9080.00,1.56
9079.00,1.55
9078.00,1.55
9077.00,1.55
9076.00,1.55
9075.00,1.55
9074.00,1.55
9073.00,1.55
9072.00,1.55
9071.00,1.55
9070.00,1.55
9069.00,1.55
9068.00,1.55
9067.00,1.55
9066.00,1.55
9065.00,1.55
9064.00,1.55
9063.00,1.55
9062.00,1.55
9061.00,1.55
9060.00,1.55
9059.00,1.55
9058.00,1.55
9057.00,1.55
9056.00,1.55
9055.00,1.55
9054.00,1.55
9053.00,1.55
9052.00,1.55
9051.00,1.55
9050.00,1.54
9049.00,1.54
9048.00,1.54
9047.00,1.54
9046.00,1.54
9045.00,1.54
9044.00,1.54
9043.00,1.54
9042.00,1.54
9041.00,1.54
9040.00,1.54
9039.00,1.54
9038.00,1.54
9037.00,1.54
9036.00,1.54
9035.00,1.54
9034.00,1.54
9033.00,1.54
9032.00,1.55
9031.00,1.55
9030.00,1.55
9029.00,1.55
9028.00,1.55
9027.00,1.55
9026.00,1.55
9025.00,1.55
9024.00,1.55
9023.00,1.55
9022.00,1.56
9021.00,1.56
9020.00,1.56
9019.00,1.56
9018.00,1.56
9017.00,1.56
9016.00,1.55
9015.00,1.55
9014.00,1.55
9013.00,1.55
9012.00,1.55
9011.00,1.55
9010.00,1.55
9009.00,1.55
9008.00,1.55
9007.00,1.55
9006.00,1.55
9005.00,1.55
9004.00,1.55
9003.00,1.55
9002.00,1.55
9001.00,1.55
9000.00,1.55
8999.00,1.55
8998.00,1.55
8997.00,1.55
8996.00,1.55
8995.00,1.55
8994.00,1.55
8993.00,1.55
8992.00,1.54
8991.00,1.54
8990.00,1.54
8989.00,1.54
8988.00,1.54
8987.00,1.54
8986.00,1.54
8985.00,1.54
8984.00,1.54
8983.00,1.54
8982.00,1.54
8981.00,1.55
8980.00,1.55
8979.00,1.55
8978.00,1.55
8977.00,1.55
8976.00,1.55
8975.00,1.55
8974.00,1.56
8973.00,1.56
8972.00,1.56
8971.00,1.56
8970.00,1.56
8969.00,1.57
8968.00,1.57
8967.00,1.57
8966.00,1.57
8965.00,1.57
8964.00,1.57
8963.00,1.57
8962.00,1.57
8961.00,1.57
8960.00,1.57
8959.00,1.57
8958.00,1.57
8957.00,1.57
8956.00,1.57
8955.00,1.57
8954.00,1.57
8953.00,1.57
8952.00,1.57
8951.00,1.57
8950.00,1.57
8949.00,1.57
8948.00,1.57
8947.00,1.58
8946.00,1.58
8945.00,1.58
8944.00,1.58
8943.00,1.58
8942.00,1.58
8941.00,1.58
8940.00,1.58
8939.00,1.58
8938.00,1.58
8937.00,1.58
8936.00,1.58
8935.00,1.58
8934.00,1.57
8933.00,1.57
8932.00,1.57
8931.00,1.57
8930.00,1.57
8929.00,1.57
8928.00,1.57
8927.00,1.57
8926.00,1.57
8925.00,1.57
8924.00,1.57
8923.00,1.57
8922.00,1.57
8921.00,1.57
8920.00,1.56
8919.00,1.56
8918.00,1.56
8917.00,1.56
8916.00,1.56
8915.00,1.56
8914.00,1.56
8913.00,1.56
8912.00,1.56
8911.00,1.56
8910.00,1.56
8909.00,1.56
8908.00,1.56
8907.00,1.56
8906.00,1.56
8905.00,1.56
8904.00,1.56
8903.00,1.56
8902.00,1.56
8901.00,1.56
8900.00,1.56
8899.00,1.56
8898.00,1.56
8897.00,1.56
8896.00,1.56
8895.00,1.56
8894.00,1.56
8893.00,1.55
8892.00,1.55
8891.00,1.55
8890.00,1.55
8889.00,1.55
8888.00,1.55
8887.00,1.55
8886.00,1.55
8885.00,1.55
8884.00,1.55
8883.00,1.55
8882.00,1.55
8881.00,1.55
8880.00,1.55
8879.00,1.55
8878.00,1.55
8877.00,1.55
8876.00,1.55
8875.00,1.55
8874.00,1.55
8873.00,1.55
8872.00,1.55
8871.00,1.55
8870.00,1.55
8869.00,1.55
8868.00,1.55
8867.00,1.55
8866.00,1.55
8865.00,1.55
8864.00,1.55
8863.00,1.55
8862.00,1.55
8861.00,1.55
8860.00,1.55
8859.00,1.55
8858.00,1.55
8857.00,1.55
8856.00,1.55
8855.00,1.55
8854.00,1.55
8853.00,1.55
8852.00,1.55
8851.00,1.55
8850.00,1.55
8849.00,1.55
8848.00,1.55
8847.00,1.55
8846.00,1.55
8845.00,1.55
8844.00,1.55
8843.00,1.55
8842.00,1.55
8841.00,1.55
8840.00,1.55
8839.00,1.55
8838.00,1.55
8837.00,1.55
8836.00,1.56
8835.00,1.56
8834.00,1.56
8833.00,1.56
8832.00,1.56
8831.00,1.56
8830.00,1.56
8829.00,1.56
8828.00,1.56
8827.00,1.56
8826.00,1.56
8825.00,1.55
8824.00,1.55
8823.00,1.55
8822.00,1.54
8821.00,1.54
8820.00,1.54
8819.00,1.53
8818.00,1.53
8817.00,1.52
8816.00,1.52
8815.00,1.52
8814.00,1.51
8813.00,1.51
8812.00,1.50
8811.00,1.50
8810.00,1.50
8809.00,1.50
8808.00,1.49
8807.00,1.49
8806.00,1.49
8805.00,1.49
8804.00,1.49
8803.00,1.49
8802.00,1.49
8801.00,1.49
8800.00,1.50
8799.00,1.50
8798.00,1.50
8797.00,1.50
8796.00,1.50
8795.00,1.50
8794.00,1.50
8793.00,1.50
8792.00,1.50
8791.00,1.50
8790.00,1.50
8789.00,1.49
8788.00,1.49
8787.00,1.49
8786.00,1.49
8785.00,1.49
8784.00,1.49
8783.00,1.49
8782.00,1.49
8781.00,1.49
8780.00,1.49
8779.00,1.49
8778.00,1.49
8777.00,1.49
8776.00,1.49
8775.00,1.49
8774.00,1.49
8773.00,1.50
8772.00,1.50
8771.00,1.50
8770.00,1.50
8769.00,1.50
8768.00,1.50
8767.00,1.50
8766.00,1.51
8765.00,1.51
8764.00,1.51
8763.00,1.51
8762.00,1.51
8761.00,1.51
8760.00,1.51
8759.00,1.51
8758.00,1.50
8757.00,1.50
8756.00,1.50
8755.00,1.50
8754.00,1.50
8753.00,1.50
8752.00,1.50
8751.00,1.49
8750.00,1.49
8749.00,1.49
8748.00,1.49
8747.00,1.49
8746.00,1.49
8745.00,1.49
8744.00,1.49
8743.00,1.49
8742.00,1.49
8741.00,1.49
8740.00,1.49
8739.00,1.49
8738.00,1.49
8737.00,1.49
8736.00,1.49
8735.00,1.49
8734.00,1.49
8733.00,1.49
8732.00,1.49
8731.00,1.50
8730.00,1.50
8729.00,1.50
8728.00,1.50
8727.00,1.49
8726.00,1.49
8725.00,1.49
8724.00,1.49
8723.00,1.49
8722.00,1.49
8721.00,1.49
8720.00,1.49
8719.00,1.48
8718.00,1.48
8717.00,1.48
8716.00,1.48
8715.00,1.48
8714.00,1.48
8713.00,1.48
8712.00,1.48
8711.00,1.47
8710.00,1.47
8709.00,1.47
8708.00,1.47
8707.00,1.47
8706.00,1.47
8705.00,1.47
8704.00,1.47
8703.00,1.47
8702.00,1.47
8701.00,1.47
8700.00,1.47
8699.00,1.47
8698.00,1.47
8697.00,1.47
8696.00,1.47
8695.00,1.48
8694.00,1.48
8693.00,1.48
8692.00,1.48
8691.00,1.48
8690.00,1.48
8689.00,1.48
8688.00,1.48
8687.00,1.48
8686.00,1.48
8685.00,1.48
8684.00,1.48
8683.00,1.48
8682.00,1.47
8681.00,1.47
8680.00,1.47
8679.00,1.47
8678.00,1.46
8677.00,1.46
8676.00,1.46
8675.00,1.45
8674.00,1.45
8673.00,1.45
8672.00,1.44
8671.00,1.44
8670.00,1.44
8669.00,1.44
8668.00,1.43
8667.00,1.43
8666.00,1.43
8665.00,1.43
8664.00,1.43
8663.00,1.43
8662.00,1.43
8661.00,1.43
8660.00,1.43
8659.00,1.43
8658.00,1.43
8657.00,1.43
8656.00,1.43
8655.00,1.43
8654.00,1.44
8653.00,1.44
8652.00,1.44
8651.00,1.44
8650.00,1.44
8649.00,1.44
8648.00,1.44
8647.00,1.44
8646.00,1.44
8645.00,1.45
8644.00,1.45
8643.00,1.45
8642.00,1.45
8641.00,1.45
8640.00,1.45
8639.00,1.45
8638.00,1.45
8637.00,1.45
8636.00,1.45
8635.00,1.45
8634.00,1.45
8633.00,1.45
8632.00,1.45
8631.00,1.45
8630.00,1.45
8629.00,1.45
8628.00,1.45
8627.00,1.45
8626.00,1.45
8625.00,1.44
8624.00,1.44
8623.00,1.44
8622.00,1.44
8621.00,1.44
8620.00,1.44
8619.00,1.44
8618.00,1.44
8617.00,1.44
8616.00,1.44
8615.00,1.44
8614.00,1.44
8613.00,1.44
8612.00,1.44
8611.00,1.44
8610.00,1.44
8609.00,1.44
8608.00,1.44
8607.00,1.44
8606.00,1.44
8605.00,1.44
8604.00,1.44
8603.00,1.44
8602.00,1.44
8601.00,1.44
8600.00,1.44
8599.00,1.44
8598.00,1.44
8597.00,1.43
8596.00,1.43
8595.00,1.43
8594.00,1.43
8593.00,1.43
8592.00,1.42
8591.00,1.42
8590.00,1.42
8589.00,1.42
8588.00,1.42
8587.00,1.41
8586.00,1.41
8585.00,1.41
8584.00,1.41
8583.00,1.41
8582.00,1.41
8581.00,1.40
8580.00,1.40
8579.00,1.40
8578.00,1.40
8577.00,1.40
8576.00,1.40
8575.00,1.40
8574.00,1.41
8573.00,1.41
8572.00,1.41
8571.00,1.41
8570.00,1.41
8569.00,1.41
8568.00,1.41
8567.00,1.41
8566.00,1.41
8565.00,1.41
8564.00,1.41
8563.00,1.41
8562.00,1.41
8561.00,1.41
8560.00,1.41
8559.00,1.41
8558.00,1.41
8557.00,1.41
8556.00,1.40
8555.00,1.40
8554.00,1.40
8553.00,1.40
8552.00,1.40
8551.00,1.40
8550.00,1.40
8549.00,1.40
8548.00,1.40
8547.00,1.40
8546.00,1.40
8545.00,1.40
8544.00,1.40
8543.00,1.40
8542.00,1.40
8541.00,1.40
8540.00,1.40
8539.00,1.40
8538.00,1.40
8537.00,1.40
8536.00,1.40
8535.00,1.40
8534.00,1.40
8533.00,1.40
8532.00,1.40
8531.00,1.39
8530.00,1.39
8529.00,1.39
8528.00,1.39
8527.00,1.39
8526.00,1.39
8525.00,1.39
8524.00,1.39
8523.00,1.39
8522.00,1.39
8521.00,1.39
8520.00,1.39
8519.00,1.39
8518.00,1.39
8517.00,1.39
8516.00,1.39
8515.00,1.39
8514.00,1.39
8513.00,1.39
8512.00,1.39
8511.00,1.39
8510.00,1.38
8509.00,1.38
8508.00,1.38
8507.00,1.38
8506.00,1.38
8505.00,1.38
8504.00,1.38
8503.00,1.37
8502.00,1.37
8501.00,1.37
8500.00,1.37
8499.00,1.37
8498.00,1.37
8497.00,1.37
8496.00,1.37
8495.00,1.37
8494.00,1.37
8493.00,1.37
8492.00,1.37
8491.00,1.37
8490.00,1.37
8489.00,1.37
8488.00,1.36
8487.00,1.36
8486.00,1.36
8485.00,1.36
8484.00,1.36
8483.00,1.36
8482.00,1.36
8481.00,1.36
8480.00,1.35
8479.00,1.35
8478.00,1.35
8477.00,1.35
8476.00,1.35
8475.00,1.35
8474.00,1.35
8473.00,1.35
8472.00,1.35
8471.00,1.35
8470.00,1.34
8469.00,1.34
8468.00,1.34
8467.00,1.34
8466.00,1.34
8465.00,1.34
8464.00,1.34
8463.00,1.34
8462.00,1.34
8461.00,1.34
8460.00,1.33
8459.00,1.33
8458.00,1.33
8457.00,1.33
8456.00,1.33
8455.00,1.33
8454.00,1.33
8453.00,1.33
8452.00,1.33
8451.00,1.33
8450.00,1.33
8449.00,1.33
8448.00,1.33
8447.00,1.33
8446.00,1.33
8445.00,1.33
8444.00,1.33
8443.00,1.33
8442.00,1.33
8441.00,1.33
8440.00,1.33
8439.00,1.33
8438.00,1.33
8437.00,1.33
8436.00,1.33
8435.00,1.34
8434.00,1.34
8433.00,1.34
8432.00,1.34
8431.00,1.34
8430.00,1.34
8429.00,1.34
8428.00,1.34
8427.00,1.35
8426.00,1.35
8425.00,1.35
8424.00,1.35
8423.00,1.35
8422.00,1.35
8421.00,1.35
8420.00,1.36
8419.00,1.36
8418.00,1.36
8417.00,1.36
8416.00,1.36
8415.00,1.36
8414.00,1.36
8413.00,1.36
8412.00,1.36
8411.00,1.36
8410.00,1.36
8409.00,1.36
8408.00,1.36
8407.00,1.36
8406.00,1.36
8405.00,1.37
8404.00,1.37
8403.00,1.37
8402.00,1.37
8401.00,1.37
8400.00,1.37
8399.00,1.37
8398.00,1.38
8397.00,1.38
8396.00,1.38
8395.00,1.38
8394.00,1.38
8393.00,1.38
8392.00,1.39
8391.00,1.39
8390.00,1.39
8389.00,1.39
8388.00,1.39
8387.00,1.39
8386.00,1.39
8385.00,1.40
8384.00,1.40
8383.00,1.40
8382.00,1.40
8381.00,1.40
8380.00,1.40
8379.00,1.40
8378.00,1.40
8377.00,1.40
8376.00,1.41
8375.00,1.41
8374.00,1.41
8373.00,1.41
8372.00,1.41
8371.00,1.41
8370.00,1.41
8369.00,1.41
8368.00,1.41
8367.00,1.41
8366.00,1.41
8365.00,1.41
8364.00,1.40
8363.00,1.40
8362.00,1.40
8361.00,1.40
8360.00,1.40
8359.00,1.40
8358.00,1.40
8357.00,1.40
8356.00,1.40
8355.00,1.39
8354.00,1.39
8353.00,1.39
8352.00,1.39
8351.00,1.39
8350.00,1.39
8349.00,1.39
8348.00,1.39
8347.00,1.39
8346.00,1.39
8345.00,1.39
8344.00,1.39
8343.00,1.39
8342.00,1.40
8341.00,1.40
8340.00,1.40
8339.00,1.40
8338.00,1.40
8337.00,1.40
8336.00,1.40
8335.00,1.40
8334.00,1.40
8333.00,1.40
8332.00,1.40
8331.00,1.40
8330.00,1.40
8329.00,1.40
8328.00,1.40
8327.00,1.40
8326.00,1.40
8325.00,1.40
8324.00,1.40
8323.00,1.40
8322.00,1.40
8321.00,1.40
8320.00,1.40
8319.00,1.39
8318.00,1.39
8317.00,1.39
8316.00,1.39
8315.00,1.39
8314.00,1.39
8313.00,1.39
8312.00,1.39
8311.00,1.39
8310.00,1.39
8309.00,1.39
8308.00,1.39
8307.00,1.39
8306.00,1.39
8305.00,1.39
8304.00,1.39
8303.00,1.39
8302.00,1.39
8301.00,1.39
8300.00,1.39
8299.00,1.39
8298.00,1.39
8297.00,1.40
8296.00,1.40
8295.00,1.40
8294.00,1.40
8293.00,1.40
8292.00,1.40
8291.00,1.41
8290.00,1.41
8289.00,1.41
8288.00,1.41
8287.00,1.41
8286.00,1.41
8285.00,1.41
8284.00,1.41
8283.00,1.41
8282.00,1.41
8281.00,1.41
8280.00,1.41
8279.00,1.41
8278.00,1.40
8277.00,1.40
8276.00,1.40
8275.00,1.40
8274.00,1.40
8273.00,1.40
8272.00,1.40
8271.00,1.40
8270.00,1.40
8269.00,1.40
8268.00,1.40
8267.00,1.40
8266.00,1.40
8265.00,1.40
8264.00,1.40
8263.00,1.41
8262.00,1.41
8261.00,1.41
8260.00,1.41
8259.00,1.41
8258.00,1.42
8257.00,1.42
8256.00,1.42
8255.00,1.42
8254.00,1.42
8253.00,1.42
8252.00,1.42
8251.00,1.43
8250.00,1.43
8249.00,1.43
8248.00,1.43
8247.00,1.43
8246.00,1.43
8245.00,1.43
8244.00,1.42
8243.00,1.42
8242.00,1.42
8241.00,1.42
8240.00,1.42
8239.00,1.42
8238.00,1.42
8237.00,1.42
8236.00,1.41
8235.00,1.41
8234.00,1.41
8233.00,1.41
8232.00,1.41
8231.00,1.41
8230.00,1.41
8229.00,1.41
8228.00,1.41
8227.00,1.41
8226.00,1.41
8225.00,1.41
8224.00,1.41
8223.00,1.41
8222.00,1.41
8221.00,1.42
8220.00,1.42
8219.00,1.42
8218.00,1.42
8217.00,1.42
8216.00,1.42
8215.00,1.42
8214.00,1.42
8213.00,1.42
8212.00,1.42
8211.00,1.42
8210.00,1.43
8209.00,1.43
8208.00,1.43
8207.00,1.43
8206.00,1.43
8205.00,1.43
8204.00,1.43
8203.00,1.43
8202.00,1.43
8201.00,1.43
8200.00,1.43
8199.00,1.43
8198.00,1.43
8197.00,1.43
8196.00,1.43
8195.00,1.43
8194.00,1.44
8193.00,1.44
8192.00,1.44
8191.00,1.44
8190.00,1.44
8189.00,1.44
8188.00,1.44
8187.00,1.44
8186.00,1.44
8185.00,1.44
8184.00,1.44
8183.00,1.44
8182.00,1.44
8181.00,1.44
8180.00,1.44
8179.00,1.44
8178.00,1.44
8177.00,1.44
8176.00,1.44
8175.00,1.44
8174.00,1.44
8173.00,1.44
8172.00,1.45
8171.00,1.45
8170.00,1.45
8169.00,1.45
8168.00,1.45
8167.00,1.45
8166.00,1.45
8165.00,1.45
8164.00,1.45
8163.00,1.45
8162.00,1.45
8161.00,1.45
8160.00,1.46
8159.00,1.46
8158.00,1.46
8157.00,1.46
8156.00,1.46
8155.00,1.46
8154.00,1.46
8153.00,1.46
8152.00,1.46
8151.00,1.46
8150.00,1.46
8149.00,1.46
8148.00,1.46
8147.00,1.46
8146.00,1.46
8145.00,1.46
8144.00,1.46
8143.00,1.46
8142.00,1.46
8141.00,1.46
8140.00,1.46
8139.00,1.47
8138.00,1.47
8137.00,1.47
8136.00,1.47
8135.00,1.47
8134.00,1.47
8133.00,1.47
8132.00,1.47
8131.00,1.47
8130.00,1.47
8129.00,1.47
8128.00,1.47
8127.00,1.47
8126.00,1.47
8125.00,1.47
8124.00,1.47
8123.00,1.47
8122.00,1.47
8121.00,1.47
8120.00,1.47
8119.00,1.48
8118.00,1.48
8117.00,1.48
8116.00,1.48
8115.00,1.48
8114.00,1.49
8113.00,1.49
8112.00,1.49
8111.00,1.49
8110.00,1.49
8109.00,1.50
8108.00,1.50
8107.00,1.50
8106.00,1.50
8105.00,1.50
8104.00,1.50
8103.00,1.50
8102.00,1.50
8101.00,1.50
8100.00,1.51
8099.00,1.51
8098.00,1.51
8097.00,1.51
8096.00,1.51
8095.00,1.51
8094.00,1.51
8093.00,1.51
8092.00,1.51
8091.00,1.51
8090.00,1.51
8089.00,1.51
8088.00,1.51
8087.00,1.50
8086.00,1.50
8085.00,1.50
8084.00,1.50
8083.00,1.50
8082.00,1.50
8081.00,1.50
8080.00,1.50
8079.00,1.50
8078.00,1.50
8077.00,1.50
8076.00,1.50
8075.00,1.50
8074.00,1.50
8073.00,1.50
8072.00,1.50
8071.00,1.50
8070.00,1.50
8069.00,1.50
8068.00,1.50
8067.00,1.50
8066.00,1.50
8065.00,1.50
8064.00,1.50
8063.00,1.50
8062.00,1.50
8061.00,1.50
8060.00,1.50
8059.00,1.50
8058.00,1.50
8057.00,1.51
8056.00,1.51
8055.00,1.51
8054.00,1.51
8053.00,1.51
8052.00,1.51
8051.00,1.51
8050.00,1.51
8049.00,1.51
8048.00,1.51
8047.00,1.51
8046.00,1.51
8045.00,1.51
8044.00,1.51
8043.00,1.51
8042.00,1.51
8041.00,1.51
8040.00,1.51
8039.00,1.51
8038.00,1.51
8037.00,1.51
8036.00,1.51
8035.00,1.51
8034.00,1.51
8033.00,1.51
8032.00,1.51
8031.00,1.51
8030.00,1.50
8029.00,1.50
8028.00,1.50
8027.00,1.50
8026.00,1.50
8025.00,1.50
8024.00,1.50
8023.00,1.50
8022.00,1.50
8021.00,1.51
8020.00,1.51
8019.00,1.51
8018.00,1.51
8017.00,1.51
8016.00,1.51
8015.00,1.51
8014.00,1.51
8013.00,1.51
8012.00,1.51
8011.00,1.51
8010.00,1.51
8009.00,1.51
8008.00,1.51
8007.00,1.51
8006.00,1.52
8005.00,1.52
8004.00,1.52
8003.00,1.52
8002.00,1.52
8001.00,1.52
8000.00,1.52
7999.00,1.53
7998.00,1.53
7997.00,1.53
7996.00,1.53
7995.00,1.53
7994.00,1.53
7993.00,1.53
7992.00,1.53
7991.00,1.53
7990.00,1.53
7989.00,1.53
7988.00,1.53
7987.00,1.53
7986.00,1.53
7985.00,1.53
7984.00,1.53
7983.00,1.53
7982.00,1.53
7981.00,1.53
7980.00,1.53
7979.00,1.53
7978.00,1.53
7977.00,1.53
7976.00,1.53
7975.00,1.53
7974.00,1.53
7973.00,1.53
7972.00,1.52
7971.00,1.52
7970.00,1.52
7969.00,1.52
7968.00,1.52
7967.00,1.52
7966.00,1.52
7965.00,1.52
7964.00,1.52
7963.00,1.52
7962.00,1.52
7961.00,1.52
7960.00,1.52
7959.00,1.52
7958.00,1.52
7957.00,1.53
7956.00,1.53
7955.00,1.53
7954.00,1.53
7953.00,1.53
7952.00,1.53
7951.00,1.53
7950.00,1.53
7949.00,1.53
7948.00,1.53
7947.00,1.53
7946.00,1.53
7945.00,1.53
7944.00,1.53
7943.00,1.53
7942.00,1.53
7941.00,1.53
7940.00,1.53
7939.00,1.53
7938.00,1.53
7937.00,1.53
7936.00,1.52
7935.00,1.52
7934.00,1.52
7933.00,1.53
7932.00,1.53
7931.00,1.53
7930.00,1.53
7929.00,1.53
7928.00,1.53
7927.00,1.53
7926.00,1.53
7925.00,1.53
7924.00,1.53
7923.00,1.54
7922.00,1.54
7921.00,1.54
7920.00,1.54
7919.00,1.54
7918.00,1.54
7917.00,1.54
7916.00,1.54
7915.00,1.54
7914.00,1.54
7913.00,1.54
7912.00,1.54
7911.00,1.54
7910.00,1.54
7909.00,1.54
7908.00,1.54
7907.00,1.54
7906.00,1.54
7905.00,1.54
7904.00,1.54
7903.00,1.54
7902.00,1.54
7901.00,1.54
7900.00,1.54
7899.00,1.54
7898.00,1.54
7897.00,1.54
7896.00,1.54
7895.00,1.54
7894.00,1.54
7893.00,1.54
7892.00,1.54
7891.00,1.55
7890.00,1.55
7889.00,1.55
7888.00,1.55
7887.00,1.54
7886.00,1.54
7885.00,1.54
7884.00,1.54
7883.00,1.54
7882.00,1.54
7881.00,1.54
7880.00,1.54
7879.00,1.54
7878.00,1.54
7877.00,1.54
7876.00,1.54
7875.00,1.54
7874.00,1.54
7873.00,1.54
7872.00,1.54
7871.00,1.54
7870.00,1.54
7869.00,1.54
7868.00,1.55
7867.00,1.55
7866.00,1.55
7865.00,1.55
7864.00,1.55
7863.00,1.55
7862.00,1.55
7861.00,1.55
7860.00,1.55
7859.00,1.55
7858.00,1.55
7857.00,1.55
7856.00,1.55
7855.00,1.55
7854.00,1.55
7853.00,1.55
7852.00,1.55
7851.00,1.55
7850.00,1.55
7849.00,1.55
7848.00,1.55
7847.00,1.55
7846.00,1.55
7845.00,1.55
7844.00,1.55
7843.00,1.55
7842.00,1.55
7841.00,1.55
7840.00,1.55
7839.00,1.55
7838.00,1.55
7837.00,1.55
7836.00,1.55
7835.00,1.55
7834.00,1.55
7833.00,1.55
7832.00,1.55
7831.00,1.56
7830.00,1.56
7829.00,1.56
7828.00,1.56
7827.00,1.56
7826.00,1.56
7825.00,1.56
7824.00,1.56
7823.00,1.56
7822.00,1.56
7821.00,1.56
7820.00,1.55
7819.00,1.55
7818.00,1.55
7817.00,1.55
7816.00,1.55
7815.00,1.55
7814.00,1.55
7813.00,1.55
7812.00,1.55
7811.00,1.55
7810.00,1.55
7809.00,1.55
7808.00,1.55
7807.00,1.56
7806.00,1.56
7805.00,1.56
7804.00,1.56
7803.00,1.56
7802.00,1.56
7801.00,1.56
7800.00,1.56
7799.00,1.56
7798.00,1.56
7797.00,1.57
7796.00,1.57
7795.00,1.57
7794.00,1.57
7793.00,1.57
7792.00,1.57
7791.00,1.57
7790.00,1.57
7789.00,1.57
7788.00,1.58
7787.00,1.58
7786.00,1.58
7785.00,1.58
7784.00,1.58
7783.00,1.58
7782.00,1.58
7781.00,1.57
7780.00,1.57
7779.00,1.57
7778.00,1.57
7777.00,1.57
7776.00,1.57
7775.00,1.57
7774.00,1.57
7773.00,1.57
7772.00,1.57
7771.00,1.57
7770.00,1.57
7769.00,1.57
7768.00,1.57
7767.00,1.57
7766.00,1.57
7765.00,1.57
7764.00,1.57
7763.00,1.57
7762.00,1.57
7761.00,1.57
7760.00,1.57
7759.00,1.57
7758.00,1.57
7757.00,1.57
7756.00,1.57
7755.00,1.57
7754.00,1.58
7753.00,1.58
7752.00,1.58
7751.00,1.58
7750.00,1.58
7749.00,1.58
7748.00,1.58
7747.00,1.58
7746.00,1.58
7745.00,1.58
7744.00,1.57
7743.00,1.57
7742.00,1.57
7741.00,1.57
7740.00,1.57
7739.00,1.57
7738.00,1.57
7737.00,1.57
7736.00,1.57
7735.00,1.57
7734.00,1.57
7733.00,1.57
7732.00,1.57
7731.00,1.57
7730.00,1.57
7729.00,1.57
7728.00,1.57
7727.00,1.57
7726.00,1.57
7725.00,1.57
7724.00,1.57
7723.00,1.58
7722.00,1.58
7721.00,1.58
7720.00,1.58
7719.00,1.58
7718.00,1.57
7717.00,1.57
7716.00,1.57
7715.00,1.57
7714.00,1.57
7713.00,1.57
7712.00,1.57
7711.00,1.57
7710.00,1.57
7709.00,1.57
7708.00,1.57
7707.00,1.57
7706.00,1.57
7705.00,1.57
7704.00,1.57
7703.00,1.57
7702.00,1.57
7701.00,1.57
7700.00,1.57
7699.00,1.57
7698.00,1.57
7697.00,1.57
7696.00,1.57
7695.00,1.57
7694.00,1.57
7693.00,1.57
7692.00,1.57
7691.00,1.57
7690.00,1.57
7689.00,1.57
7688.00,1.57
7687.00,1.57
7686.00,1.57
7685.00,1.57
7684.00,1.57
7683.00,1.57
7682.00,1.57
7681.00,1.57
7680.00,1.57
7679.00,1.57
7678.00,1.57
7677.00,1.57
7676.00,1.57
7675.00,1.57
7674.00,1.57
7673.00,1.57
7672.00,1.57
7671.00,1.57
7670.00,1.57
7669.00,1.57
7668.00,1.57
7667.00,1.57
7666.00,1.57
7665.00,1.57
7664.00,1.57
7663.00,1.57
7662.00,1.57
7661.00,1.57
7660.00,1.57
7659.00,1.57
7658.00,1.57
7657.00,1.57
7656.00,1.57
7655.00,1.57
7654.00,1.57
7653.00,1.57
7652.00,1.57
7651.00,1.57
7650.00,1.57
7649.00,1.57
7648.00,1.57
7647.00,1.57
7646.00,1.57
7645.00,1.57
7644.00,1.57
7643.00,1.57
7642.00,1.57
7641.00,1.57
7640.00,1.57
7639.00,1.57
7638.00,1.57
7637.00,1.57
7636.00,1.58
7635.00,1.58
7634.00,1.58
7633.00,1.58
7632.00,1.58
7631.00,1.58
7630.00,1.58
7629.00,1.57
7628.00,1.57
7627.00,1.57
7626.00,1.57
7625.00,1.57
7624.00,1.57
7623.00,1.57
7622.00,1.57
7621.00,1.56
7620.00,1.56
7619.00,1.56
7618.00,1.56
7617.00,1.56
7616.00,1.56
7615.00,1.56
7614.00,1.56
7613.00,1.56
7612.00,1.56
7611.00,1.56
7610.00,1.56
7609.00,1.56
7608.00,1.56
7607.00,1.56
7606.00,1.56
7605.00,1.56
7604.00,1.56
7603.00,1.57
7602.00,1.57
7601.00,1.57
7600.00,1.57
7599.00,1.57
7598.00,1.57
7597.00,1.56
7596.00,1.56
7595.00,1.56
7594.00,1.56
7593.00,1.56
7592.00,1.56
7591.00,1.56
7590.00,1.56
7589.00,1.56
7588.00,1.56
7587.00,1.56
7586.00,1.56
7585.00,1.56
7584.00,1.56
7583.00,1.56
7582.00,1.56
7581.00,1.55
7580.00,1.55
7579.00,1.55
7578.00,1.55
7577.00,1.55
7576.00,1.55
7575.00,1.55
7574.00,1.55
7573.00,1.55
7572.00,1.55
7571.00,1.55
7570.00,1.55
7569.00,1.55
7568.00,1.55
7567.00,1.55
7566.00,1.55
7565.00,1.55
7564.00,1.55
7563.00,1.55
7562.00,1.55
7561.00,1.55
7560.00,1.55
7559.00,1.55
7558.00,1.55
7557.00,1.55
7556.00,1.55
7555.00,1.55
7554.00,1.55
7553.00,1.55
7552.00,1.55
7551.00,1.55
7550.00,1.55
7549.00,1.54
7548.00,1.54
7547.00,1.54
7546.00,1.54
7545.00,1.54
7544.00,1.54
7543.00,1.54
7542.00,1.54
7541.00,1.54
7540.00,1.54
7539.00,1.54
7538.00,1.54
7537.00,1.54
7536.00,1.54
7535.00,1.54
7534.00,1.54
7533.00,1.54
7532.00,1.54
7531.00,1.54
7530.00,1.54
7529.00,1.54
7528.00,1.54
7527.00,1.54
7526.00,1.54
7525.00,1.54
7524.00,1.54
7523.00,1.54
7522.00,1.54
7521.00,1.54
7520.00,1.54
7519.00,1.54
7518.00,1.54
7517.00,1.54
7516.00,1.54
7515.00,1.54
7514.00,1.54
7513.00,1.54
7512.00,1.53
7511.00,1.53
7510.00,1.53
7509.00,1.53
7508.00,1.53
7507.00,1.53
7506.00,1.53
7505.00,1.53
7504.00,1.53
7503.00,1.53
7502.00,1.52
7501.00,1.52
7500.00,1.52
7499.00,1.52
7498.00,1.52
7497.00,1.52
7496.00,1.52
7495.00,1.52
7494.00,1.52
7493.00,1.51
7492.00,1.51
7491.00,1.51
7490.00,1.51
7489.00,1.51
7488.00,1.51
7487.00,1.51
7486.00,1.51
7485.00,1.51
7484.00,1.51
7483.00,1.51
7482.00,1.51
7481.00,1.51
7480.00,1.51
7479.00,1.51
7478.00,1.51
7477.00,1.51
7476.00,1.50
7475.00,1.50
7474.00,1.50
7473.00,1.50
7472.00,1.50
7471.00,1.50
7470.00,1.50
7469.00,1.50
7468.00,1.50
7467.00,1.50
7466.00,1.50
7465.00,1.50
7464.00,1.50
7463.00,1.50
7462.00,1.50
7461.00,1.50
7460.00,1.50
7459.00,1.49
7458.00,1.49
7457.00,1.49
7456.00,1.49
7455.00,1.49
7454.00,1.49
7453.00,1.49
7452.00,1.49
7451.00,1.49
7450.00,1.49
7449.00,1.49
7448.00,1.48
7447.00,1.48
7446.00,1.48
7445.00,1.48
7444.00,1.48
7443.00,1.48
7442.00,1.47
7441.00,1.47
7440.00,1.47
7439.00,1.47
7438.00,1.47
7437.00,1.47
7436.00,1.47
7435.00,1.47
7434.00,1.47
7433.00,1.47
7432.00,1.47
7431.00,1.46
7430.00,1.46
7429.00,1.46
7428.00,1.46
7427.00,1.46
7426.00,1.46
7425.00,1.46
7424.00,1.46
7423.00,1.46
7422.00,1.46
7421.00,1.46
7420.00,1.46
7419.00,1.46
7418.00,1.45
7417.00,1.45
7416.00,1.45
7415.00,1.45
7414.00,1.45
7413.00,1.45
7412.00,1.45
7411.00,1.44
7410.00,1.44
7409.00,1.44
7408.00,1.44
7407.00,1.44
7406.00,1.44
7405.00,1.44
7404.00,1.43
7403.00,1.43
7402.00,1.43
7401.00,1.43
7400.00,1.43
7399.00,1.43
7398.00,1.43
7397.00,1.43
7396.00,1.43
7395.00,1.43
7394.00,1.43
7393.00,1.43
7392.00,1.42
7391.00,1.42
7390.00,1.42
7389.00,1.42
7388.00,1.42
7387.00,1.42
7386.00,1.42
7385.00,1.42
7384.00,1.42
7383.00,1.42
7382.00,1.42
7381.00,1.42
7380.00,1.42
7379.00,1.42
7378.00,1.42
7377.00,1.42
7376.00,1.42
7375.00,1.42
7374.00,1.42
7373.00,1.42
7372.00,1.42
7371.00,1.42
7370.00,1.42
7369.00,1.42
7368.00,1.42
7367.00,1.42
7366.00,1.42
7365.00,1.42
7364.00,1.42
7363.00,1.42
7362.00,1.42
7361.00,1.42
7360.00,1.42
7359.00,1.42
7358.00,1.42
7357.00,1.42
7356.00,1.42
7355.00,1.42
7354.00,1.42
7353.00,1.42
7352.00,1.42
7351.00,1.42
7350.00,1.42
7349.00,1.42
7348.00,1.42
7347.00,1.42
7346.00,1.41
7345.00,1.41
7344.00,1.41
7343.00,1.41
7342.00,1.41
7341.00,1.41
7340.00,1.41
7339.00,1.40
7338.00,1.40
7337.00,1.40
7336.00,1.40
7335.00,1.40
7334.00,1.40
7333.00,1.40
7332.00,1.39
7331.00,1.39
7330.00,1.39
7329.00,1.39
7328.00,1.39
7327.00,1.39
7326.00,1.39
7325.00,1.39
7324.00,1.39
7323.00,1.39
7322.00,1.39
7321.00,1.39
7320.00,1.39
7319.00,1.38
7318.00,1.38
7317.00,1.38
7316.00,1.38
7315.00,1.38
7314.00,1.38
7313.00,1.38
7312.00,1.38
7311.00,1.38
7310.00,1.37
7309.00,1.37
7308.00,1.37
7307.00,1.37
7306.00,1.37
7305.00,1.37
7304.00,1.36
7303.00,1.36
7302.00,1.36
7301.00,1.36
7300.00,1.36
7299.00,1.36
7298.00,1.35
7297.00,1.35
7296.00,1.35
7295.00,1.35
7294.00,1.35
7293.00,1.35
7292.00,1.35
7291.00,1.35
7290.00,1.35
7289.00,1.35
7288.00,1.34
7287.00,1.34
7286.00,1.34
7285.00,1.34
7284.00,1.34
7283.00,1.34
7282.00,1.33
7281.00,1.33
7280.00,1.33
7279.00,1.33
7278.00,1.33
7277.00,1.32
7276.00,1.32
7275.00,1.32
7274.00,1.32
7273.00,1.31
7272.00,1.31
7271.00,1.31
7270.00,1.31
7269.00,1.30
7268.00,1.30
7267.00,1.30
7266.00,1.30
7265.00,1.30
7264.00,1.29
7263.00,1.29
7262.00,1.29
7261.00,1.29
7260.00,1.29
7259.00,1.29
7258.00,1.29
7257.00,1.28
7256.00,1.28
7255.00,1.28
7254.00,1.28
7253.00,1.28
7252.00,1.28
7251.00,1.27
7250.00,1.27
7249.00,1.27
7248.00,1.27
7247.00,1.26
7246.00,1.26
7245.00,1.26
7244.00,1.25
7243.00,1.25
7242.00,1.25
7241.00,1.24
7240.00,1.24
7239.00,1.23
7238.00,1.23
7237.00,1.23
7236.00,1.22
7235.00,1.22
7234.00,1.21
7233.00,1.21
7232.00,1.20
7231.00,1.20
7230.00,1.20
7229.00,1.19
7228.00,1.19
7227.00,1.18
7226.00,1.18
7225.00,1.18
7224.00,1.17
7223.00,1.17
7222.00,1.16
7221.00,1.16
7220.00,1.15
7219.00,1.15
7218.00,1.15
7217.00,1.14
7216.00,1.14
7215.00,1.13
7214.00,1.13
7213.00,1.12
7212.00,1.12
7211.00,1.11
7210.00,1.11
7209.00,1.10
7208.00,1.09
7207.00,1.09
7206.00,1.08
7205.00,1.08
7204.00,1.07
7203.00,1.07
7202.00,1.06
7201.00,1.06
7200.00,1.05
7199.00,1.05
7198.00,1.05
7197.00,1.04
7196.00,1.04
7195.00,1.03
7194.00,1.03
7193.00,1.03
7192.00,1.02
7191.00,1.02
7190.00,1.02
7189.00,1.01
7188.00,1.01
7187.00,1.01
7186.00,1.00
7185.00,1.00
7184.00,1.00
7183.00,0.99
7182.00,0.99
7181.00,0.99
7180.00,0.98
7179.00,0.98
7178.00,0.97
7177.00,0.97
7176.00,0.97
7175.00,0.96
7174.00,0.96
7173.00,0.96
7172.00,0.95
7171.00,0.95
7170.00,0.95
7169.00,0.94
7168.00,0.94
7167.00,0.93
7166.00,0.93
7165.00,0.93
7164.00,0.92
7163.00,0.92
7162.00,0.91
7161.00,0.91
7160.00,0.91
7159.00,0.90
7158.00,0.90
7157.00,0.90
7156.00,0.89
7155.00,0.89
7154.00,0.89
7153.00,0.88
7152.00,0.88
7151.00,0.87
7150.00,0.87
7149.00,0.87
7148.00,0.86
7147.00,0.86
7146.00,0.85
7145.00,0.85
7144.00,0.85
7143.00,0.84
7142.00,0.84
7141.00,0.84
7140.00,0.83
7139.00,0.83
7138.00,0.83
7137.00,0.82
7136.00,0.82
7135.00,0.82
7134.00,0.82
7133.00,0.81
7132.00,0.81
7131.00,0.81
7130.00,0.81
7129.00,0.81
7128.00,0.80
7127.00,0.80
7126.00,0.80
7125.00,0.80
7124.00,0.79
7123.00,0.79
7122.00,0.79
7121.00,0.79
7120.00,0.78
7119.00,0.78
7118.00,0.78
7117.00,0.77
7116.00,0.77
7115.00,0.77
7114.00,0.76
7113.00,0.76
7112.00,0.76
7111.00,0.75
7110.00,0.75
7109.00,0.75
7108.00,0.74
7107.00,0.74
7106.00,0.74
7105.00,0.74
7104.00,0.73
7103.00,0.73
7102.00,0.73
7101.00,0.73
7100.00,0.73
7099.00,0.73
7098.00,0.72
7097.00,0.72
7096.00,0.72
7095.00,0.72
7094.00,0.72
7093.00,0.72
7092.00,0.72
7091.00,0.71
7090.00,0.71
7089.00,0.71
7088.00,0.71
7087.00,0.71
7086.00,0.70
7085.00,0.70
7084.00,0.70
7083.00,0.70
7082.00,0.70
7081.00,0.70
7080.00,0.70
7079.00,0.69
7078.00,0.69
7077.00,0.69
7076.00,0.69
7075.00,0.69
7074.00,0.69
7073.00,0.69
7072.00,0.69
7071.00,0.69
7070.00,0.69
7069.00,0.69
7068.00,0.69
7067.00,0.68
7066.00,0.68
7065.00,0.68
7064.00,0.68
7063.00,0.68
7062.00,0.68
7061.00,0.68
7060.00,0.68
7059.00,0.68
7058.00,0.68
7057.00,0.68
7056.00,0.67
7055.00,0.67
7054.00,0.67
7053.00,0.67
7052.00,0.67
7051.00,0.67
7050.00,0.67
7049.00,0.67
7048.00,0.67
7047.00,0.67
7046.00,0.66
7045.00,0.66
7044.00,0.66
7043.00,0.66
7042.00,0.66
7041.00,0.66
7040.00,0.66
7039.00,0.66
7038.00,0.65
7037.00,0.65
7036.00,0.65
7035.00,0.65
7034.00,0.65
7033.00,0.65
7032.00,0.64
7031.00,0.64
7030.00,0.64
7029.00,0.64
7028.00,0.64
7027.00,0.63
7026.00,0.63
7025.00,0.63
7024.00,0.63
7023.00,0.63
7022.00,0.63
7021.00,0.63
7020.00,0.62
7019.00,0.62
7018.00,0.62
7017.00,0.62
7016.00,0.62
7015.00,0.62
7014.00,0.62
7013.00,0.62
7012.00,0.62
7011.00,0.62
7010.00,0.62
7009.00,0.62
7008.00,0.62
7007.00,0.62
7006.00,0.62
7005.00,0.62
7004.00,0.62
7003.00,0.62
7002.00,0.62
7001.00,0.62
7000.00,0.62
6999.00,0.62
6998.00,0.62
6997.00,0.62
6996.00,0.62
6995.00,0.62
6994.00,0.62
6993.00,0.62
6992.00,0.62
6991.00,0.62
6990.00,0.62
6989.00,0.62
6988.00,0.62
6987.00,0.62
6986.00,0.62
6985.00,0.62
6984.00,0.62
6983.00,0.62
6982.00,0.62
6981.00,0.62
6980.00,0.62
6979.00,0.62
6978.00,0.62
6977.00,0.62
6976.00,0.62
6975.00,0.62
6974.00,0.62
6973.00,0.62
6972.00,0.62
6971.00,0.62
6970.00,0.62
6969.00,0.61
6968.00,0.61
6967.00,0.61
6966.00,0.61
6965.00,0.61
6964.00,0.61
6963.00,0.61
6962.00,0.61
6961.00,0.61
6960.00,0.61
6959.00,0.61
6958.00,0.61
6957.00,0.61
6956.00,0.61
6955.00,0.61
6954.00,0.61
6953.00,0.61
6952.00,0.61
6951.00,0.61
6950.00,0.61
6949.00,0.61
6948.00,0.61
6947.00,0.61
6946.00,0.61
6945.00,0.61
6944.00,0.61
6943.00,0.61
6942.00,0.61
6941.00,0.61
6940.00,0.61
6939.00,0.61
6938.00,0.61
6937.00,0.61
6936.00,0.61
6935.00,0.61
6934.00,0.61
6933.00,0.61
6932.00,0.61
6931.00,0.61
6930.00,0.61
6929.00,0.61
6928.00,0.61
6927.00,0.61
6926.00,0.61
6925.00,0.61
6924.00,0.61
6923.00,0.61
6922.00,0.61
6921.00,0.61
6920.00,0.61
6919.00,0.61
6918.00,0.61
6917.00,0.61
6916.00,0.61
6915.00,0.61
6914.00,0.61
6913.00,0.61
6912.00,0.61
6911.00,0.61
6910.00,0.61
6909.00,0.61
6908.00,0.61
6907.00,0.61
6906.00,0.61
6905.00,0.61
6904.00,0.61
6903.00,0.61
6902.00,0.61
6901.00,0.61
6900.00,0.61
6899.00,0.61
6898.00,0.61
6897.00,0.61
6896.00,0.61
6895.00,0.61
6894.00,0.61
6893.00,0.61
6892.00,0.61
6891.00,0.61
6890.00,0.61
6889.00,0.61
6888.00,0.61
6887.00,0.61
6886.00,0.61
6885.00,0.60
6884.00,0.60
6883.00,0.60
6882.00,0.60
6881.00,0.60
6880.00,0.60
6879.00,0.60
6878.00,0.60
6877.00,0.60
6876.00,0.60
6875.00,0.60
6874.00,0.60
6873.00,0.60
6872.00,0.60
6871.00,0.60
6870.00,0.60
6869.00,0.60
6868.00,0.60
6867.00,0.60
6866.00,0.60
6865.00,0.60
6864.00,0.60
6863.00,0.61
6862.00,0.61
6861.00,0.61
6860.00,0.61
6859.00,0.61
6858.00,0.61
6857.00,0.61
6856.00,0.61
6855.00,0.61
6854.00,0.61
6853.00,0.61
6852.00,0.61
6851.00,0.61
6850.00,0.61
6849.00,0.61
6848.00,0.62
6847.00,0.62
6846.00,0.62
6845.00,0.61
6844.00,0.61
6843.00,0.61
6842.00,0.61
6841.00,0.61
6840.00,0.61
6839.00,0.61
6838.00,0.61
6837.00,0.61
6836.00,0.61
6835.00,0.61
6834.00,0.61
6833.00,0.61
6832.00,0.61
6831.00,0.62
6830.00,0.62
6829.00,0.62
6828.00,0.62
6827.00,0.62
6826.00,0.62
6825.00,0.62
6824.00,0.62
6823.00,0.62
6822.00,0.62
6821.00,0.62
6820.00,0.62
6819.00,0.62
6818.00,0.62
6817.00,0.62
6816.00,0.62
6815.00,0.62
6814.00,0.62
6813.00,0.62
6812.00,0.62
6811.00,0.62
6810.00,0.62
6809.00,0.61
6808.00,0.61
6807.00,0.61
6806.00,0.61
6805.00,0.62
6804.00,0.62
6803.00,0.62
6802.00,0.62
6801.00,0.62
6800.00,0.62
6799.00,0.62
6798.00,0.62
6797.00,0.62
6796.00,0.62
6795.00,0.62
6794.00,0.63
6793.00,0.63
6792.00,0.63
6791.00,0.63
6790.00,0.63
6789.00,0.63
6788.00,0.63
6787.00,0.63
6786.00,0.63
6785.00,0.63
6784.00,0.63
6783.00,0.63
6782.00,0.63
6781.00,0.63
6780.00,0.63
6779.00,0.63
6778.00,0.63
6777.00,0.63
6776.00,0.63
6775.00,0.63
6774.00,0.63
6773.00,0.63
6772.00,0.63
6771.00,0.63
6770.00,0.63
6769.00,0.63
6768.00,0.63
6767.00,0.63
6766.00,0.63
6765.00,0.63
6764.00,0.63
6763.00,0.64
6762.00,0.64
6761.00,0.64
6760.00,0.64
6759.00,0.64
6758.00,0.64
6757.00,0.64
6756.00,0.64
6755.00,0.64
6754.00,0.64
6753.00,0.64
6752.00,0.64
6751.00,0.64
6750.00,0.64
6749.00,0.64
6748.00,0.64
6747.00,0.65
6746.00,0.65
6745.00,0.65
6744.00,0.65
6743.00,0.65
6742.00,0.65
6741.00,0.65
6740.00,0.65
6739.00,0.65
6738.00,0.66
6737.00,0.66
6736.00,0.66
6735.00,0.66
6734.00,0.66
6733.00,0.66
6732.00,0.66
6731.00,0.66
6730.00,0.66
6729.00,0.66
6728.00,0.66
6727.00,0.66
6726.00,0.66
6725.00,0.66
6724.00,0.66
6723.00,0.66
6722.00,0.67
6721.00,0.67
6720.00,0.67
6719.00,0.67
6718.00,0.67
6717.00,0.67
6716.00,0.67
6715.00,0.67
6714.00,0.67
6713.00,0.67
6712.00,0.67
6711.00,0.67
6710.00,0.67
6709.00,0.68
6708.00,0.68
6707.00,0.68
6706.00,0.68
6705.00,0.68
6704.00,0.68
6703.00,0.68
6702.00,0.68
6701.00,0.68
6700.00,0.68
6699.00,0.69
6698.00,0.69
6697.00,0.69
6696.00,0.69
6695.00,0.69
6694.00,0.69
6693.00,0.69
6692.00,0.69
6691.00,0.69
6690.00,0.70
6689.00,0.70
6688.00,0.70
6687.00,0.70
6686.00,0.70
6685.00,0.70
6684.00,0.70
6683.00,0.70
6682.00,0.70
6681.00,0.71
6680.00,0.71
6679.00,0.71
6678.00,0.71
6677.00,0.71
6676.00,0.71
6675.00,0.71
6674.00,0.71
6673.00,0.71
6672.00,0.71
6671.00,0.71
6670.00,0.71
6669.00,0.71
6668.00,0.71
6667.00,0.71
6666.00,0.71
6665.00,0.71
6664.00,0.71
6663.00,0.71
6662.00,0.71
6661.00,0.71
6660.00,0.71
6659.00,0.72
6658.00,0.72
6657.00,0.72
6656.00,0.72
6655.00,0.72
6654.00,0.72
6653.00,0.72
6652.00,0.72
6651.00,0.72
6650.00,0.72
6649.00,0.72
6648.00,0.72
6647.00,0.72
6646.00,0.72
6645.00,0.72
6644.00,0.72
6643.00,0.72
6642.00,0.73
6641.00,0.73
6640.00,0.73
6639.00,0.73
6638.00,0.73
6637.00,0.73
6636.00,0.73
6635.00,0.73
6634.00,0.73
6633.00,0.73
6632.00,0.73
6631.00,0.74
6630.00,0.74
6629.00,0.74
6628.00,0.74
6627.00,0.74
6626.00,0.74
6625.00,0.75
6624.00,0.75
6623.00,0.75
6622.00,0.75
6621.00,0.75
6620.00,0.75
6619.00,0.76
6618.00,0.76
6617.00,0.76
6616.00,0.76
6615.00,0.76
6614.00,0.76
6613.00,0.76
6612.00,0.76
6611.00,0.76
6610.00,0.76
6609.00,0.77
6608.00,0.77
6607.00,0.77
6606.00,0.77
6605.00,0.77
6604.00,0.77
6603.00,0.77
6602.00,0.77
6601.00,0.77
6600.00,0.78
6599.00,0.78
6598.00,0.78
6597.00,0.78
6596.00,0.78
6595.00,0.78
6594.00,0.78
6593.00,0.78
6592.00,0.78
6591.00,0.78
6590.00,0.79
6589.00,0.79
6588.00,0.79
6587.00,0.79
6586.00,0.79
6585.00,0.79
6584.00,0.79
6583.00,0.79
6582.00,0.79
6581.00,0.80
6580.00,0.80
6579.00,0.80
6578.00,0.80
6577.00,0.80
6576.00,0.80
6575.00,0.80
6574.00,0.80
6573.00,0.81
6572.00,0.81
6571.00,0.81
6570.00,0.81
6569.00,0.81
6568.00,0.81
6567.00,0.81
6566.00,0.81
6565.00,0.82
6564.00,0.82
6563.00,0.82
6562.00,0.82
6561.00,0.82
6560.00,0.82
6559.00,0.82
6558.00,0.82
6557.00,0.82
6556.00,0.82
6555.00,0.82
6554.00,0.82
6553.00,0.82
6552.00,0.82
6551.00,0.82
6550.00,0.82
6549.00,0.82
6548.00,0.82
6547.00,0.82
6546.00,0.83
6545.00,0.83
6544.00,0.83
6543.00,0.83
6542.00,0.83
6541.00,0.83
6540.00,0.83
6539.00,0.83
6538.00,0.84
6537.00,0.84
6536.00,0.84
6535.00,0.84
6534.00,0.84
6533.00,0.84
6532.00,0.84
6531.00,0.84
6530.00,0.85
6529.00,0.85
6528.00,0.85
6527.00,0.85
6526.00,0.85
6525.00,0.85
6524.00,0.85
6523.00,0.85
6522.00,0.86
6521.00,0.86
6520.00,0.86
6519.00,0.86
6518.00,0.86
6517.00,0.86
6516.00,0.86
6515.00,0.86
6514.00,0.86
6513.00,0.87
6512.00,0.87
6511.00,0.87
6510.00,0.87
6509.00,0.87
6508.00,0.87
6507.00,0.87
6506.00,0.87
6505.00,0.87
6504.00,0.88
6503.00,0.88
6502.00,0.88
6501.00,0.88
6500.00,0.88
6499.00,0.88
6498.00,0.88
6497.00,0.88
6496.00,0.88
6495.00,0.88
6494.00,0.88
6493.00,0.88
6492.00,0.88
6491.00,0.88
6490.00,0.88
6489.00,0.88
6488.00,0.88
6487.00,0.88
6486.00,0.88
6485.00,0.88
6484.00,0.88
6483.00,0.88
6482.00,0.88
6481.00,0.89
6480.00,0.89
6479.00,0.89
6478.00,0.89
6477.00,0.89
6476.00,0.89
6475.00,0.89
6474.00,0.90
6473.00,0.90
6472.00,0.90
6471.00,0.90
6470.00,0.90
6469.00,0.90
6468.00,0.90
6467.00,0.91
6466.00,0.91
6465.00,0.91
6464.00,0.91
6463.00,0.91
6462.00,0.91
6461.00,0.91
6460.00,0.91
6459.00,0.91
6458.00,0.91
6457.00,0.91
6456.00,0.91
6455.00,0.91
6454.00,0.91
6453.00,0.91
6452.00,0.91
6451.00,0.92
6450.00,0.92
6449.00,0.92
6448.00,0.92
6447.00,0.92
6446.00,0.92
6445.00,0.92
6444.00,0.92
6443.00,0.92
6442.00,0.92
6441.00,0.92
6440.00,0.92
6439.00,0.92
6438.00,0.92
6437.00,0.92
6436.00,0.92
6435.00,0.92
6434.00,0.92
6433.00,0.92
6432.00,0.92
6431.00,0.92
6430.00,0.93
6429.00,0.93
6428.00,0.93
6427.00,0.93
6426.00,0.93
6425.00,0.93
6424.00,0.93
6423.00,0.93
6422.00,0.93
6421.00,0.94
6420.00,0.94
6419.00,0.94
6418.00,0.94
6417.00,0.94
6416.00,0.94
6415.00,0.94
6414.00,0.94
6413.00,0.95
6412.00,0.95
6411.00,0.95
6410.00,0.95
6409.00,0.95
6408.00,0.95
6407.00,0.95
6406.00,0.95
6405.00,0.95
6404.00,0.95
6403.00,0.95
6402.00,0.95
6401.00,0.95
6400.00,0.96
6399.00,0.96
6398.00,0.96
6397.00,0.96
6396.00,0.96
6395.00,0.96
6394.00,0.96
6393.00,0.96
6392.00,0.96
6391.00,0.97
6390.00,0.97
6389.00,0.97
6388.00,0.97
6387.00,0.97
6386.00,0.97
6385.00,0.97
6384.00,0.97
6383.00,0.98
6382.00,0.98
6381.00,0.98
6380.00,0.98
6379.00,0.98
6378.00,0.98
6377.00,0.98
6376.00,0.98
6375.00,0.98
6374.00,0.98
6373.00,0.98
6372.00,0.98
6371.00,0.99
6370.00,0.99
6369.00,0.99
6368.00,0.99
6367.00,0.99
6366.00,0.99
6365.00,0.99
6364.00,0.99
6363.00,0.99
6362.00,0.99
6361.00,0.99
6360.00,0.99
6359.00,1.00
6358.00,1.00
6357.00,1.00
6356.00,1.00
6355.00,1.00
6354.00,1.00
6353.00,1.00
6352.00,1.00
6351.00,1.00
6350.00,1.00
6349.00,1.01
6348.00,1.01
6347.00,1.01
6346.00,1.01
6345.00,1.01
6344.00,1.01
6343.00,1.01
6342.00,1.01
6341.00,1.01
6340.00,1.01
6339.00,1.02
6338.00,1.02
6337.00,1.02
6336.00,1.02
6335.00,1.02
6334.00,1.02
6333.00,1.02
6332.00,1.02
6331.00,1.02
6330.00,1.03
6329.00,1.03
6328.00,1.03
6327.00,1.03
6326.00,1.03
6325.00,1.03
6324.00,1.03
6323.00,1.04
6322.00,1.04
6321.00,1.04
6320.00,1.04
6319.00,1.04
6318.00,1.04
6317.00,1.04
6316.00,1.05
6315.00,1.05
6314.00,1.05
6313.00,1.05
6312.00,1.05
6311.00,1.05
6310.00,1.05
6309.00,1.06
6308.00,1.06
6307.00,1.06
6306.00,1.06
6305.00,1.06
6304.00,1.06
6303.00,1.07
6302.00,1.07
6301.00,1.07
6300.00,1.07
6299.00,1.07
6298.00,1.07
6297.00,1.08
6296.00,1.08
6295.00,1.08
6294.00,1.08
6293.00,1.08
6292.00,1.08
6291.00,1.08
6290.00,1.09
6289.00,1.09
6288.00,1.09
6287.00,1.09
6286.00,1.09
6285.00,1.09
6284.00,1.09
6283.00,1.09
6282.00,1.09
6281.00,1.10
6280.00,1.10
6279.00,1.10
6278.00,1.10
6277.00,1.10
6276.00,1.10
6275.00,1.10
6274.00,1.10
6273.00,1.10
6272.00,1.10
6271.00,1.11
6270.00,1.11
6269.00,1.11
6268.00,1.11
6267.00,1.11
6266.00,1.11
6265.00,1.11
6264.00,1.12
6263.00,1.12
6262.00,1.12
6261.00,1.12
6260.00,1.12
6259.00,1.12
6258.00,1.12
6257.00,1.13
6256.00,1.13
6255.00,1.13
6254.00,1.13
6253.00,1.13
6252.00,1.14
6251.00,1.14
6250.00,1.14
6249.00,1.14
6248.00,1.14
6247.00,1.15
6246.00,1.15
6245.00,1.15
6244.00,1.15
6243.00,1.15
6242.00,1.15
6241.00,1.16
6240.00,1.16
6239.00,1.16
6238.00,1.16
6237.00,1.16
6236.00,1.16
6235.00,1.16
6234.00,1.16
6233.00,1.16
6232.00,1.17
6231.00,1.17
6230.00,1.17
6229.00,1.17
6228.00,1.17
6227.00,1.17
6226.00,1.17
6225.00,1.17
6224.00,1.17
6223.00,1.18
6222.00,1.18
6221.00,1.18
6220.00,1.18
6219.00,1.18
6218.00,1.18
6217.00,1.19
6216.00,1.19
6215.00,1.19
6214.00,1.19
6213.00,1.19
6212.00,1.20
6211.00,1.20
6210.00,1.20
6209.00,1.20
6208.00,1.20
6207.00,1.20
6206.00,1.20
6205.00,1.21
6204.00,1.21
6203.00,1.21
6202.00,1.21
6201.00,1.21
6200.00,1.21
6199.00,1.22
6198.00,1.22
6197.00,1.22
6196.00,1.22
6195.00,1.22
6194.00,1.22
6193.00,1.23
6192.00,1.23
6191.00,1.23
6190.00,1.23
6189.00,1.23
6188.00,1.23
6187.00,1.24
6186.00,1.24
6185.00,1.24
6184.00,1.24
6183.00,1.24
6182.00,1.24
6181.00,1.25
6180.00,1.25
6179.00,1.25
6178.00,1.25
6177.00,1.25
6176.00,1.25
6175.00,1.26
6174.00,1.26
6173.00,1.26
6172.00,1.26
6171.00,1.26
6170.00,1.26
6169.00,1.26
6168.00,1.26
6167.00,1.27
6166.00,1.27
6165.00,1.27
6164.00,1.27
6163.00,1.27
6162.00,1.27
6161.00,1.27
6160.00,1.28
6159.00,1.28
6158.00,1.28
6157.00,1.28
6156.00,1.29
6155.00,1.29
6154.00,1.29
6153.00,1.29
6152.00,1.30
6151.00,1.30
6150.00,1.30
6149.00,1.30
6148.00,1.31
6147.00,1.31
6146.00,1.31
6145.00,1.31
6144.00,1.31
6143.00,1.31
6142.00,1.32
6141.00,1.32
6140.00,1.32
6139.00,1.32
6138.00,1.32
6137.00,1.32
6136.00,1.32
6135.00,1.32
6134.00,1.33
6133.00,1.33
6132.00,1.33
6131.00,1.33
6130.00,1.33
6129.00,1.34
6128.00,1.34
6127.00,1.34
6126.00,1.34
6125.00,1.34
6124.00,1.35
6123.00,1.35
6122.00,1.35
6121.00,1.35
6120.00,1.36
6119.00,1.36
6118.00,1.36
6117.00,1.36
6116.00,1.36
6115.00,1.36
6114.00,1.36
6113.00,1.37
6112.00,1.37
6111.00,1.37
6110.00,1.37
6109.00,1.37
6108.00,1.37
6107.00,1.37
6106.00,1.38
6105.00,1.38
6104.00,1.38
6103.00,1.38
6102.00,1.38
6101.00,1.39
6100.00,1.39
6099.00,1.39
6098.00,1.39
6097.00,1.39
6096.00,1.40
6095.00,1.40
6094.00,1.40
6093.00,1.40
6092.00,1.40
6091.00,1.40
6090.00,1.40
6089.00,1.40
6088.00,1.41
6087.00,1.41
6086.00,1.41
6085.00,1.41
6084.00,1.41
6083.00,1.41
6082.00,1.41
6081.00,1.41
6080.00,1.41
6079.00,1.41
6078.00,1.41
6077.00,1.41
6076.00,1.41
6075.00,1.41
6074.00,1.42
6073.00,1.42
6072.00,1.42
6071.00,1.42
6070.00,1.42
6069.00,1.42
6068.00,1.42
6067.00,1.43
6066.00,1.43
6065.00,1.43
6064.00,1.43
6063.00,1.43
6062.00,1.44
6061.00,1.44
6060.00,1.44
6059.00,1.44
6058.00,1.44
6057.00,1.44
6056.00,1.44
6055.00,1.45
6054.00,1.45
6053.00,1.45
6052.00,1.45
6051.00,1.45
6050.00,1.45
6049.00,1.45
6048.00,1.45
6047.00,1.46
6046.00,1.46
6045.00,1.46
6044.00,1.46
6043.00,1.46
6042.00,1.46
6041.00,1.46
6040.00,1.46
6039.00,1.46
6038.00,1.46
6037.00,1.47
6036.00,1.47
6035.00,1.47
6034.00,1.47
6033.00,1.47
6032.00,1.47
6031.00,1.47
6030.00,1.47
6029.00,1.47
6028.00,1.47
6027.00,1.47
6026.00,1.47
6025.00,1.47
6024.00,1.48
6023.00,1.48
6022.00,1.48
6021.00,1.48
6020.00,1.48
6019.00,1.48
6018.00,1.48
6017.00,1.48
6016.00,1.48
6015.00,1.48
6014.00,1.48
6013.00,1.48
6012.00,1.48
6011.00,1.48
6010.00,1.48
6009.00,1.48
6008.00,1.48
6007.00,1.48
6006.00,1.48
6005.00,1.48
6004.00,1.48
6003.00,1.48
6002.00,1.48
6001.00,1.48
6000.00,1.48
5999.00,1.48
5998.00,1.47
5997.00,1.47
5996.00,1.47
5995.00,1.47
5994.00,1.47
5993.00,1.47
5992.00,1.46
5991.00,1.46
5990.00,1.46
5989.00,1.46
5988.00,1.46
5987.00,1.45
5986.00,1.45
5985.00,1.45
5984.00,1.45
5983.00,1.44
5982.00,1.44
5981.00,1.44
5980.00,1.43
5979.00,1.43
5978.00,1.42
5977.00,1.42
5976.00,1.41
5975.00,1.41
5974.00,1.40
5973.00,1.40
5972.00,1.39
5971.00,1.39
5970.00,1.38
5969.00,1.37
5968.00,1.37
5967.00,1.36
5966.00,1.35
5965.00,1.34
5964.00,1.34
5963.00,1.33
5962.00,1.32
5961.00,1.31
5960.00,1.31
5959.00,1.30
5958.00,1.29
5957.00,1.29
5956.00,1.28
5955.00,1.27
5954.00,1.27
5953.00,1.26
5952.00,1.25
5951.00,1.25
5950.00,1.24
5949.00,1.24
5948.00,1.23
5947.00,1.23
5946.00,1.23
5945.00,1.22
5944.00,1.22
5943.00,1.22
5942.00,1.21
5941.00,1.21
5940.00,1.21
5939.00,1.21
5938.00,1.21
5937.00,1.21
5936.00,1.21
5935.00,1.21
5934.00,1.21
5933.00,1.21
5932.00,1.21
5931.00,1.21
5930.00,1.21
5929.00,1.20
5928.00,1.20
5927.00,1.20
5926.00,1.20
5925.00,1.20
5924.00,1.20
5923.00,1.19
5922.00,1.19
5921.00,1.19
5920.00,1.18
5919.00,1.18
5918.00,1.18
5917.00,1.18
5916.00,1.17
5915.00,1.17
5914.00,1.17
5913.00,1.16
5912.00,1.16
5911.00,1.16
5910.00,1.16
5909.00,1.15
5908.00,1.15
5907.00,1.15
5906.00,1.15
5905.00,1.15
5904.00,1.15
5903.00,1.15
5902.00,1.15
5901.00,1.15
5900.00,1.16
5899.00,1.16
5898.00,1.16
5897.00,1.16
5896.00,1.16
5895.00,1.17
5894.00,1.17
5893.00,1.17
5892.00,1.18
5891.00,1.18
5890.00,1.18
5889.00,1.19
5888.00,1.19
5887.00,1.19
5886.00,1.20
5885.00,1.20
5884.00,1.20
5883.00,1.21
5882.00,1.21
5881.00,1.21
5880.00,1.22
5879.00,1.22
5878.00,1.22
5877.00,1.22
5876.00,1.23
5875.00,1.23
5874.00,1.23
5873.00,1.23
5872.00,1.24
5871.00,1.24
5870.00,1.24
5869.00,1.24
5868.00,1.25
5867.00,1.25
5866.00,1.25
5865.00,1.25
5864.00,1.25
5863.00,1.26
5862.00,1.26
5861.00,1.26
5860.00,1.26
5859.00,1.26
5858.00,1.27
5857.00,1.27
5856.00,1.27
5855.00,1.27
5854.00,1.27
5853.00,1.27
5852.00,1.27
5851.00,1.27
5850.00,1.27
5849.00,1.27
5848.00,1.27
5847.00,1.27
5846.00,1.27
5845.00,1.27
5844.00,1.27
5843.00,1.27
5842.00,1.27
5841.00,1.27
5840.00,1.27
5839.00,1.27
5838.00,1.27
5837.00,1.27
5836.00,1.27
5835.00,1.27
5834.00,1.27
5833.00,1.27
5832.00,1.27
5831.00,1.27
5830.00,1.27
5829.00,1.27
5828.00,1.27
5827.00,1.27
5826.00,1.27
5825.00,1.27
5824.00,1.27
5823.00,1.27
5822.00,1.27
5821.00,1.27
5820.00,1.27
5819.00,1.27
5818.00,1.27
5817.00,1.27
5816.00,1.27
5815.00,1.27
5814.00,1.27
5813.00,1.27
5812.00,1.27
5811.00,1.27
5810.00,1.27
5809.00,1.27
5808.00,1.27
5807.00,1.27
5806.00,1.27
5805.00,1.27
5804.00,1.27
5803.00,1.27
5802.00,1.27
5801.00,1.27
5800.00,1.26
5799.00,1.26
5798.00,1.26
5797.00,1.26
5796.00,1.25
5795.00,1.25
5794.00,1.25
5793.00,1.24
5792.00,1.24
5791.00,1.24
5790.00,1.23
5789.00,1.23
5788.00,1.23
5787.00,1.23
5786.00,1.23
5785.00,1.22
5784.00,1.22
5783.00,1.22
5782.00,1.22
5781.00,1.22
5780.00,1.22
5779.00,1.22
5778.00,1.22
5777.00,1.22
5776.00,1.22
5775.00,1.22
5774.00,1.22
5773.00,1.22
5772.00,1.22
5771.00,1.22
5770.00,1.22
5769.00,1.22
5768.00,1.22
5767.00,1.22
5766.00,1.22
5765.00,1.23
5764.00,1.23
5763.00,1.23
5762.00,1.23
5761.00,1.23
5760.00,1.24
5759.00,1.24
5758.00,1.24
5757.00,1.24
5756.00,1.25
5755.00,1.25
5754.00,1.25
5753.00,1.26
5752.00,1.26
5751.00,1.26
5750.00,1.27
5749.00,1.27
5748.00,1.27
5747.00,1.28
5746.00,1.28
5745.00,1.28
5744.00,1.29
5743.00,1.29
5742.00,1.29
5741.00,1.30
5740.00,1.30
5739.00,1.30
5738.00,1.30
5737.00,1.31
5736.00,1.31
5735.00,1.31
5734.00,1.31
5733.00,1.31
5732.00,1.31
5731.00,1.31
5730.00,1.32
5729.00,1.32
5728.00,1.32
5727.00,1.32
5726.00,1.32
5725.00,1.32
5724.00,1.32
5723.00,1.32
5722.00,1.32
5721.00,1.32
5720.00,1.32
5719.00,1.32
5718.00,1.32
5717.00,1.32
5716.00,1.32
5715.00,1.32
5714.00,1.32
5713.00,1.31
5712.00,1.31
5711.00,1.31
5710.00,1.31
5709.00,1.31
5708.00,1.31
5707.00,1.31
5706.00,1.31
5705.00,1.31
5704.00,1.30
5703.00,1.30
5702.00,1.30
5701.00,1.30
5700.00,1.30
5699.00,1.30
5698.00,1.30
5697.00,1.29
5696.00,1.29
5695.00,1.29
5694.00,1.29
5693.00,1.29
5692.00,1.29
5691.00,1.28
5690.00,1.28
5689.00,1.28
5688.00,1.28
5687.00,1.28
5686.00,1.28
5685.00,1.28
5684.00,1.28
5683.00,1.28
5682.00,1.27
5681.00,1.27
5680.00,1.27
5679.00,1.27
5678.00,1.27
5677.00,1.27
5676.00,1.27
5675.00,1.27
5674.00,1.27
5673.00,1.27
5672.00,1.27
5671.00,1.28
5670.00,1.28
5669.00,1.28
5668.00,1.28
5667.00,1.28
5666.00,1.28
5665.00,1.28
5664.00,1.28
5663.00,1.28
5662.00,1.28
5661.00,1.28
5660.00,1.28
5659.00,1.29
5658.00,1.29
5657.00,1.29
5656.00,1.29
5655.00,1.29
5654.00,1.29
5653.00,1.30
5652.00,1.30
5651.00,1.30
5650.00,1.30
5649.00,1.30
5648.00,1.30
5647.00,1.31
5646.00,1.31
5645.00,1.31
5644.00,1.31
5643.00,1.31
5642.00,1.31
5641.00,1.31
5640.00,1.32
5639.00,1.32
5638.00,1.32
5637.00,1.32
5636.00,1.32
5635.00,1.32
5634.00,1.32
5633.00,1.32
5632.00,1.32
5631.00,1.32
5630.00,1.33
5629.00,1.33
5628.00,1.33
5627.00,1.33
5626.00,1.33
5625.00,1.33
5624.00,1.33
5623.00,1.34
5622.00,1.34
5621.00,1.34
5620.00,1.34
5619.00,1.34
5618.00,1.34
5617.00,1.35
5616.00,1.35
5615.00,1.35
5614.00,1.35
5613.00,1.35
5612.00,1.36
5611.00,1.36
5610.00,1.36
5609.00,1.36
5608.00,1.36
5607.00,1.36
5606.00,1.37
5605.00,1.37
5604.00,1.37
5603.00,1.37
5602.00,1.37
5601.00,1.38
5600.00,1.38
5599.00,1.38
5598.00,1.38
5597.00,1.38
5596.00,1.39
5595.00,1.39
5594.00,1.39
5593.00,1.39
5592.00,1.39
5591.00,1.40
5590.00,1.40
5589.00,1.40
5588.00,1.40
5587.00,1.40
5586.00,1.40
5585.00,1.40
5584.00,1.41
5583.00,1.41
5582.00,1.41
5581.00,1.41
5580.00,1.41
5579.00,1.41
5578.00,1.41
5577.00,1.41
5576.00,1.42
5575.00,1.42
5574.00,1.42
5573.00,1.42
5572.00,1.42
5571.00,1.42
5570.00,1.42
5569.00,1.42
5568.00,1.43
5567.00,1.43
5566.00,1.43
5565.00,1.43
5564.00,1.43
5563.00,1.43
5562.00,1.43
5561.00,1.43
5560.00,1.44
5559.00,1.44
5558.00,1.44
5557.00,1.44
5556.00,1.44
5555.00,1.44
5554.00,1.45
5553.00,1.45
5552.00,1.45
5551.00,1.45
5550.00,1.45
5549.00,1.45
5548.00,1.46
5547.00,1.46
5546.00,1.46
5545.00,1.46
5544.00,1.46
5543.00,1.47
5542.00,1.47
5541.00,1.47
5540.00,1.47
5539.00,1.47
5538.00,1.48
5537.00,1.48
5536.00,1.48
5535.00,1.48
5534.00,1.48
5533.00,1.48
5532.00,1.49
5531.00,1.49
5530.00,1.49
5529.00,1.49
5528.00,1.49
5527.00,1.49
5526.00,1.49
5525.00,1.50
5524.00,1.50
5523.00,1.50
5522.00,1.50
5521.00,1.50
5520.00,1.50
5519.00,1.50
5518.00,1.50
5517.00,1.50
5516.00,1.50
5515.00,1.50
5514.00,1.50
5513.00,1.50
5512.00,1.50
5511.00,1.50
5510.00,1.50
5509.00,1.51
5508.00,1.51
5507.00,1.51
5506.00,1.51
5505.00,1.51
5504.00,1.51
5503.00,1.51
5502.00,1.51
5501.00,1.51
5500.00,1.51
5499.00,1.51
5498.00,1.52
5497.00,1.52
5496.00,1.52
5495.00,1.52
5494.00,1.52
5493.00,1.52
5492.00,1.52
5491.00,1.53
5490.00,1.53
5489.00,1.53
5488.00,1.53
5487.00,1.53
5486.00,1.53
5485.00,1.54
5484.00,1.54
5483.00,1.54
5482.00,1.54
5481.00,1.54
5480.00,1.54
5479.00,1.54
5478.00,1.54
5477.00,1.55
5476.00,1.55
5475.00,1.55
5474.00,1.55
5473.00,1.55
5472.00,1.55
5471.00,1.55
5470.00,1.55
5469.00,1.56
5468.00,1.56
5467.00,1.56
5466.00,1.56
5465.00,1.56
5464.00,1.56
5463.00,1.56
5462.00,1.56
5461.00,1.56
5460.00,1.57
5459.00,1.57
5458.00,1.57
5457.00,1.57
5456.00,1.57
5455.00,1.57
5454.00,1.57
5453.00,1.57
5452.00,1.57
5451.00,1.57
5450.00,1.57
5449.00,1.57
5448.00,1.57
5447.00,1.57
5446.00,1.57
5445.00,1.57
5444.00,1.57
5443.00,1.57
5442.00,1.57
5441.00,1.57
5440.00,1.58
5439.00,1.58
5438.00,1.58
5437.00,1.58
5436.00,1.58
5435.00,1.58
5434.00,1.58
5433.00,1.58
5432.00,1.58
5431.00,1.58
5430.00,1.58
5429.00,1.58
5428.00,1.58
5427.00,1.58
5426.00,1.58
5425.00,1.58
5424.00,1.58
5423.00,1.58
5422.00,1.58
5421.00,1.58
5420.00,1.57
5419.00,1.57
5418.00,1.57
5417.00,1.57
5416.00,1.57
5415.00,1.57
5414.00,1.57
5413.00,1.57
5412.00,1.57
5411.00,1.56
5410.00,1.56
5409.00,1.56
5408.00,1.56
5407.00,1.56
5406.00,1.56
5405.00,1.56
5404.00,1.55
5403.00,1.55
5402.00,1.55
5401.00,1.55
5400.00,1.55
5399.00,1.55
5398.00,1.54
5397.00,1.54
5396.00,1.54
5395.00,1.54
5394.00,1.53
5393.00,1.53
5392.00,1.53
5391.00,1.53
5390.00,1.52
5389.00,1.52
5388.00,1.51
5387.00,1.51
5386.00,1.51
5385.00,1.50
5384.00,1.50
5383.00,1.49
5382.00,1.49
5381.00,1.48
5380.00,1.48
5379.00,1.47
5378.00,1.47
5377.00,1.46
5376.00,1.46
5375.00,1.45
5374.00,1.45
5373.00,1.44
5372.00,1.43
5371.00,1.43
5370.00,1.42
5369.00,1.41
5368.00,1.41
5367.00,1.40
5366.00,1.39
5365.00,1.39
5364.00,1.38
5363.00,1.37
5362.00,1.37
5361.00,1.36
5360.00,1.35
5359.00,1.34
5358.00,1.33
5357.00,1.32
5356.00,1.31
5355.00,1.30
5354.00,1.30
5353.00,1.29
5352.00,1.28
5351.00,1.27
5350.00,1.26
5349.00,1.25
5348.00,1.24
5347.00,1.23
5346.00,1.22
5345.00,1.21
5344.00,1.20
5343.00,1.18
5342.00,1.17
5341.00,1.16
5340.00,1.15
5339.00,1.14
5338.00,1.13
5337.00,1.12
5336.00,1.11
5335.00,1.10
5334.00,1.09
5333.00,1.09
5332.00,1.08
5331.00,1.07
5330.00,1.06
5329.00,1.05
5328.00,1.04
5327.00,1.03
5326.00,1.02
5325.00,1.01
5324.00,1.00
5323.00,1.00
5322.00,0.99
5321.00,0.98
5320.00,0.97
5319.00,0.96
5318.00,0.96
5317.00,0.95
5316.00,0.94
5315.00,0.94
5314.00,0.93
5313.00,0.93
5312.00,0.92
5311.00,0.92
5310.00,0.91
5309.00,0.91
5308.00,0.90
5307.00,0.90
5306.00,0.89
5305.00,0.89
5304.00,0.89
5303.00,0.89
5302.00,0.88
5301.00,0.88
5300.00,0.88
5299.00,0.88
5298.00,0.88
5297.00,0.87
5296.00,0.87
5295.00,0.87
5294.00,0.87
5293.00,0.87
5292.00,0.87
5291.00,0.87
5290.00,0.87
5289.00,0.86
5288.00,0.86
5287.00,0.86
5286.00,0.86
5285.00,0.86
5284.00,0.86
5283.00,0.86
5282.00,0.86
5281.00,0.86
5280.00,0.86
5279.00,0.86
5278.00,0.86
5277.00,0.86
5276.00,0.86
5275.00,0.86
5274.00,0.86
5273.00,0.86
5272.00,0.86
5271.00,0.86
5270.00,0.86
5269.00,0.86
5268.00,0.86
5267.00,0.86
5266.00,0.86
5265.00,0.86
5264.00,0.86
5263.00,0.86
5262.00,0.86
5261.00,0.86
5260.00,0.86
5259.00,0.86
5258.00,0.86
5257.00,0.86
5256.00,0.86
5255.00,0.86
5254.00,0.86
5253.00,0.86
5252.00,0.86
5251.00,0.86
5250.00,0.86
5249.00,0.86
5248.00,0.86
5247.00,0.86
5246.00,0.86
5245.00,0.86
5244.00,0.86
5243.00,0.86
5242.00,0.86
5241.00,0.86
5240.00,0.86
5239.00,0.86
5238.00,0.86
5237.00,0.86
5236.00,0.86
5235.00,0.87
5234.00,0.87
5233.00,0.87
5232.00,0.87
5231.00,0.86
5230.00,0.86
5229.00,0.86
5228.00,0.86
5227.00,0.86
5226.00,0.86
5225.00,0.86
5224.00,0.86
5223.00,0.86
5222.00,0.86
5221.00,0.86
5220.00,0.87
5219.00,0.87
5218.00,0.87
5217.00,0.87
5216.00,0.87
5215.00,0.87
5214.00,0.87
5213.00,0.87
5212.00,0.87
5211.00,0.87
5210.00,0.87
5209.00,0.87
5208.00,0.87
5207.00,0.87
5206.00,0.87
5205.00,0.87
5204.00,0.88
5203.00,0.88
5202.00,0.88
5201.00,0.88
5200.00,0.88
5199.00,0.88
5198.00,0.88
5197.00,0.88
5196.00,0.88
5195.00,0.88
5194.00,0.88
5193.00,0.88
5192.00,0.88
5191.00,0.88
5190.00,0.88
5189.00,0.88
5188.00,0.88
5187.00,0.88
5186.00,0.88
5185.00,0.88
5184.00,0.88
5183.00,0.88
5182.00,0.88
5181.00,0.89
5180.00,0.89
5179.00,0.89
5178.00,0.89
5177.00,0.89
5176.00,0.89
5175.00,0.89
5174.00,0.89
5173.00,0.89
5172.00,0.89
5171.00,0.89
5170.00,0.89
5169.00,0.89
5168.00,0.89
5167.00,0.89
5166.00,0.89
5165.00,0.89
5164.00,0.89
5163.00,0.89
5162.00,0.89
5161.00,0.89
5160.00,0.89
5159.00,0.89
5158.00,0.89
5157.00,0.89
5156.00,0.89
5155.00,0.89
5154.00,0.89
5153.00,0.89
5152.00,0.89
5151.00,0.89
5150.00,0.89
5149.00,0.90
5148.00,0.90
5147.00,0.90
5146.00,0.90
5145.00,0.90
5144.00,0.90
5143.00,0.90
5142.00,0.90
5141.00,0.90
5140.00,0.90
5139.00,0.90
5138.00,0.90
5137.00,0.91
5136.00,0.91
5135.00,0.91
5134.00,0.91
5133.00,0.91
5132.00,0.91
5131.00,0.91
5130.00,0.91
5129.00,0.91
5128.00,0.91
5127.00,0.91
5126.00,0.91
5125.00,0.91
5124.00,0.91
5123.00,0.91
5122.00,0.91
5121.00,0.91
5120.00,0.91
5119.00,0.91
5118.00,0.92
5117.00,0.92
5116.00,0.92
5115.00,0.92
5114.00,0.92
5113.00,0.92
5112.00,0.92
5111.00,0.92
5110.00,0.92
5109.00,0.92
5108.00,0.92
5107.00,0.92
5106.00,0.92
5105.00,0.92
5104.00,0.92
5103.00,0.92
5102.00,0.92
5101.00,0.92
5100.00,0.92
5099.00,0.92
5098.00,0.92
5097.00,0.92
5096.00,0.92
5095.00,0.92
5094.00,0.92
5093.00,0.92
5092.00,0.92
5091.00,0.92
5090.00,0.92
5089.00,0.92
5088.00,0.92
5087.00,0.92
5086.00,0.93
5085.00,0.93
5084.00,0.93
5083.00,0.93
5082.00,0.93
5081.00,0.93
5080.00,0.93
5079.00,0.93
5078.00,0.93
5077.00,0.93
5076.00,0.93
5075.00,0.93
5074.00,0.93
5073.00,0.93
5072.00,0.94
5071.00,0.94
5070.00,0.94
5069.00,0.94
5068.00,0.94
5067.00,0.94
5066.00,0.94
5065.00,0.94
5064.00,0.94
5063.00,0.94
5062.00,0.94
5061.00,0.94
5060.00,0.94
5059.00,0.94
5058.00,0.94
5057.00,0.94
5056.00,0.94
5055.00,0.94
5054.00,0.94
5053.00,0.94
5052.00,0.94
5051.00,0.94
5050.00,0.95
5049.00,0.95
5048.00,0.95
5047.00,0.95
5046.00,0.95
5045.00,0.95
5044.00,0.95
5043.00,0.95
5042.00,0.95
5041.00,0.95
5040.00,0.95
5039.00,0.95
5038.00,0.95
5037.00,0.95
5036.00,0.95
5035.00,0.95
5034.00,0.95
5033.00,0.95
5032.00,0.95
5031.00,0.95
5030.00,0.95
5029.00,0.95
5028.00,0.95
5027.00,0.95
5026.00,0.95
5025.00,0.95
5024.00,0.95
5023.00,0.95
5022.00,0.96
5021.00,0.96
5020.00,0.96
5019.00,0.96
5018.00,0.96
5017.00,0.96
5016.00,0.96
5015.00,0.96
5014.00,0.96
5013.00,0.96
5012.00,0.97
5011.00,0.97
5010.00,0.97
5009.00,0.97
5008.00,0.97
5007.00,0.97
5006.00,0.97
5005.00,0.97
5004.00,0.97
5003.00,0.97
5002.00,0.97
5001.00,0.97
5000.00,0.97
4999.00,0.97
4998.00,0.97
4997.00,0.97
4996.00,0.97
4995.00,0.97
4994.00,0.97
4993.00,0.97
4992.00,0.97
4991.00,0.97
4990.00,0.97
4989.00,0.97
4988.00,0.97
4987.00,0.98
4986.00,0.98
4985.00,0.98
4984.00,0.98
4983.00,0.98
4982.00,0.98
4981.00,0.98
4980.00,0.98
4979.00,0.98
4978.00,0.98
4977.00,0.99
4976.00,0.99
4975.00,0.99
4974.00,0.99
4973.00,0.99
4972.00,0.99
4971.00,0.99
4970.00,0.99
4969.00,0.99
4968.00,0.99
4967.00,0.99
4966.00,0.99
4965.00,1.00
4964.00,1.00
4963.00,1.00
4962.00,1.00
4961.00,1.00
4960.00,1.00
4959.00,1.00
4958.00,1.00
4957.00,1.00
4956.00,1.00
4955.00,1.00
4954.00,1.00
4953.00,1.00
4952.00,1.00
4951.00,1.00
4950.00,1.00
4949.00,1.00
4948.00,1.00
4947.00,1.00
4946.00,1.00
4945.00,1.00
4944.00,1.00
4943.00,1.00
4942.00,1.00
4941.00,1.00
4940.00,1.00
4939.00,1.01
4938.00,1.01
4937.00,1.01
4936.00,1.01
4935.00,1.01
4934.00,1.01
4933.00,1.01
4932.00,1.01
4931.00,1.01
4930.00,1.01
4929.00,1.02
4928.00,1.02
4927.00,1.02
4926.00,1.02
4925.00,1.02
4924.00,1.02
4923.00,1.02
4922.00,1.02
4921.00,1.02
4920.00,1.02
4919.00,1.02
4918.00,1.02
4917.00,1.02
4916.00,1.02
4915.00,1.02
4914.00,1.03
4913.00,1.03
4912.00,1.03
4911.00,1.03
4910.00,1.03
4909.00,1.03
4908.00,1.03
4907.00,1.03
4906.00,1.03
4905.00,1.03
4904.00,1.03
4903.00,1.04
4902.00,1.04
4901.00,1.04
4900.00,1.04
4899.00,1.04
4898.00,1.04
4897.00,1.04
4896.00,1.04
4895.00,1.04
4894.00,1.04
4893.00,1.04
4892.00,1.04
4891.00,1.04
4890.00,1.04
4889.00,1.04
4888.00,1.04
4887.00,1.04
4886.00,1.04
4885.00,1.04
4884.00,1.04
4883.00,1.04
4882.00,1.04
4881.00,1.04
4880.00,1.04
4879.00,1.05
4878.00,1.05
4877.00,1.05
4876.00,1.05
4875.00,1.05
4874.00,1.05
4873.00,1.05
4872.00,1.05
4871.00,1.05
4870.00,1.05
4869.00,1.05
4868.00,1.05
4867.00,1.06
4866.00,1.06
4865.00,1.06
4864.00,1.06
4863.00,1.06
4862.00,1.06
4861.00,1.06
4860.00,1.06
4859.00,1.06
4858.00,1.07
4857.00,1.07
4856.00,1.07
4855.00,1.07
4854.00,1.07
4853.00,1.07
4852.00,1.07
4851.00,1.07
4850.00,1.07
4849.00,1.07
4848.00,1.07
4847.00,1.07
4846.00,1.07
4845.00,1.08
4844.00,1.08
4843.00,1.08
4842.00,1.08
4841.00,1.08
4840.00,1.08
4839.00,1.08
4838.00,1.08
4837.00,1.08
4836.00,1.08
4835.00,1.08
4834.00,1.08
4833.00,1.08
4832.00,1.08
4831.00,1.08
4830.00,1.08
4829.00,1.08
4828.00,1.08
4827.00,1.09
4826.00,1.09
4825.00,1.09
4824.00,1.09
4823.00,1.09
4822.00,1.09
4821.00,1.09
4820.00,1.09
4819.00,1.09
4818.00,1.09
4817.00,1.09
4816.00,1.09
4815.00,1.09
4814.00,1.09
4813.00,1.09
4812.00,1.10
4811.00,1.10
4810.00,1.10
4809.00,1.10
4808.00,1.10
4807.00,1.10
4806.00,1.10
4805.00,1.11
4804.00,1.11
4803.00,1.11
4802.00,1.11
4801.00,1.11
4800.00,1.11
4799.00,1.11
4798.00,1.11
4797.00,1.12
4796.00,1.12
4795.00,1.12
4794.00,1.12
4793.00,1.12
4792.00,1.12
4791.00,1.12
4790.00,1.12
4789.00,1.12
4788.00,1.12
4787.00,1.12
4786.00,1.12
4785.00,1.12
4784.00,1.12
4783.00,1.12
4782.00,1.12
4781.00,1.12
4780.00,1.12
4779.00,1.12
4778.00,1.13
4777.00,1.13
4776.00,1.13
4775.00,1.13
4774.00,1.13
4773.00,1.13
4772.00,1.13
4771.00,1.14
4770.00,1.14
4769.00,1.14
4768.00,1.14
4767.00,1.14
4766.00,1.14
4765.00,1.14
4764.00,1.15
4763.00,1.15
4762.00,1.15
4761.00,1.15
4760.00,1.15
4759.00,1.15
4758.00,1.15
4757.00,1.15
4756.00,1.15
4755.00,1.15
4754.00,1.15
4753.00,1.15
4752.00,1.15
4751.00,1.15
4750.00,1.16
4749.00,1.16
4748.00,1.16
4747.00,1.16
4746.00,1.16
4745.00,1.16
4744.00,1.16
4743.00,1.16
4742.00,1.16
4741.00,1.16
4740.00,1.16
4739.00,1.17
4738.00,1.17
4737.00,1.17
4736.00,1.17
4735.00,1.17
4734.00,1.17
4733.00,1.17
4732.00,1.17
4731.00,1.17
4730.00,1.17
4729.00,1.17
4728.00,1.17
4727.00,1.17
4726.00,1.17
4725.00,1.17
4724.00,1.18
4723.00,1.18
4722.00,1.18
4721.00,1.18
4720.00,1.18
4719.00,1.18
4718.00,1.19
4717.00,1.19
4716.00,1.19
4715.00,1.19
4714.00,1.19
4713.00,1.19
4712.00,1.20
4711.00,1.20
4710.00,1.20
4709.00,1.20
4708.00,1.20
4707.00,1.20
4706.00,1.21
4705.00,1.21
4704.00,1.21
4703.00,1.21
4702.00,1.21
4701.00,1.21
4700.00,1.22
4699.00,1.22
4698.00,1.22
4697.00,1.22
4696.00,1.22
4695.00,1.22
4694.00,1.22
4693.00,1.23
4692.00,1.23
4691.00,1.23
4690.00,1.23
4689.00,1.23
4688.00,1.23
4687.00,1.23
4686.00,1.23
4685.00,1.23
4684.00,1.24
4683.00,1.24
4682.00,1.24
4681.00,1.24
4680.00,1.24
4679.00,1.24
4678.00,1.24
4677.00,1.24
4676.00,1.24
4675.00,1.24
4674.00,1.25
4673.00,1.25
4672.00,1.25
4671.00,1.25
4670.00,1.25
4669.00,1.25
4668.00,1.25
4667.00,1.25
4666.00,1.26
4665.00,1.26
4664.00,1.26
4663.00,1.26
4662.00,1.26
4661.00,1.26
4660.00,1.27
4659.00,1.27
4658.00,1.27
4657.00,1.27
4656.00,1.27
4655.00,1.27
4654.00,1.27
4653.00,1.27
4652.00,1.27
4651.00,1.27
4650.00,1.28
4649.00,1.28
4648.00,1.28
4647.00,1.28
4646.00,1.28
4645.00,1.28
4644.00,1.28
4643.00,1.28
4642.00,1.28
4641.00,1.28
4640.00,1.28
4639.00,1.28
4638.00,1.28
4637.00,1.28
4636.00,1.29
4635.00,1.29
4634.00,1.29
4633.00,1.29
4632.00,1.29
4631.00,1.29
4630.00,1.29
4629.00,1.30
4628.00,1.30
4627.00,1.30
4626.00,1.30
4625.00,1.30
4624.00,1.30
4623.00,1.30
4622.00,1.30
4621.00,1.31
4620.00,1.31
4619.00,1.31
4618.00,1.31
4617.00,1.31
4616.00,1.31
4615.00,1.31
4614.00,1.31
4613.00,1.31
4612.00,1.31
4611.00,1.31
4610.00,1.31
4609.00,1.31
4608.00,1.31
4607.00,1.31
4606.00,1.31
4605.00,1.31
4604.00,1.31
4603.00,1.31
4602.00,1.31
4601.00,1.31
4600.00,1.31
4599.00,1.31
4598.00,1.31
4597.00,1.31
4596.00,1.31
4595.00,1.31
4594.00,1.31
4593.00,1.31
4592.00,1.31
4591.00,1.31
4590.00,1.31
4589.00,1.31
4588.00,1.31
4587.00,1.31
4586.00,1.32
4585.00,1.32
4584.00,1.32
4583.00,1.32
4582.00,1.32
4581.00,1.33
4580.00,1.33
4579.00,1.33
4578.00,1.33
4577.00,1.33
4576.00,1.34
4575.00,1.34
4574.00,1.34
4573.00,1.34
4572.00,1.34
4571.00,1.34
4570.00,1.34
4569.00,1.35
4568.00,1.35
4567.00,1.35
4566.00,1.35
4565.00,1.35
4564.00,1.35
4563.00,1.35
4562.00,1.35
4561.00,1.35
4560.00,1.35
4559.00,1.35
4558.00,1.35
4557.00,1.34
4556.00,1.34
4555.00,1.34
4554.00,1.34
4553.00,1.34
4552.00,1.34
4551.00,1.34
4550.00,1.35
4549.00,1.35
4548.00,1.35
4547.00,1.35
4546.00,1.35
4545.00,1.35
4544.00,1.35
4543.00,1.35
4542.00,1.35
4541.00,1.35
4540.00,1.36
4539.00,1.36
4538.00,1.36
4537.00,1.36
4536.00,1.36
4535.00,1.36
4534.00,1.36
4533.00,1.36
4532.00,1.36
4531.00,1.36
4530.00,1.36
4529.00,1.36
4528.00,1.36
4527.00,1.37
4526.00,1.37
4525.00,1.37
4524.00,1.37
4523.00,1.37
4522.00,1.37
4521.00,1.37
4520.00,1.37
4519.00,1.37
4518.00,1.37
4517.00,1.37
4516.00,1.37
4515.00,1.37
4514.00,1.38
4513.00,1.38
4512.00,1.38
4511.00,1.38
4510.00,1.38
4509.00,1.38
4508.00,1.38
4507.00,1.38
4506.00,1.38
4505.00,1.38
4504.00,1.38
4503.00,1.38
4502.00,1.38
4501.00,1.38
4500.00,1.37
4499.00,1.37
4498.00,1.37
4497.00,1.37
4496.00,1.37
4495.00,1.37
4494.00,1.37
4493.00,1.37
4492.00,1.37
4491.00,1.36
4490.00,1.36
4489.00,1.36
4488.00,1.36
4487.00,1.36
4486.00,1.36
4485.00,1.35
4484.00,1.35
4483.00,1.35
4482.00,1.35
4481.00,1.35
4480.00,1.35
4479.00,1.35
4478.00,1.35
4477.00,1.35
4476.00,1.35
4475.00,1.35
4474.00,1.35
4473.00,1.35
4472.00,1.35
4471.00,1.35
4470.00,1.35
4469.00,1.34
4468.00,1.34
4467.00,1.34
4466.00,1.34
4465.00,1.34
4464.00,1.34
4463.00,1.34
4462.00,1.34
4461.00,1.33
4460.00,1.33
4459.00,1.33
4458.00,1.33
4457.00,1.33
4456.00,1.33
4455.00,1.33
4454.00,1.32
4453.00,1.32
4452.00,1.32
4451.00,1.32
4450.00,1.32
4449.00,1.32
4448.00,1.32
4447.00,1.32
4446.00,1.31
4445.00,1.31
4444.00,1.31
4443.00,1.31
4442.00,1.31
4441.00,1.31
4440.00,1.30
4439.00,1.30
4438.00,1.30
4437.00,1.30
4436.00,1.30
4435.00,1.30
4434.00,1.29
4433.00,1.29
4432.00,1.29
4431.00,1.29
4430.00,1.29
4429.00,1.28
4428.00,1.28
4427.00,1.28
4426.00,1.28
4425.00,1.28
4424.00,1.28
4423.00,1.28
4422.00,1.28
4421.00,1.28
4420.00,1.27
4419.00,1.27
4418.00,1.27
4417.00,1.27
4416.00,1.28
4415.00,1.28
4414.00,1.28
4413.00,1.28
4412.00,1.28
4411.00,1.28
4410.00,1.28
4409.00,1.28
4408.00,1.28
4407.00,1.28
4406.00,1.28
4405.00,1.29
4404.00,1.29
4403.00,1.29
4402.00,1.29
4401.00,1.29
4400.00,1.29
4399.00,1.29
4398.00,1.29
4397.00,1.30
4396.00,1.30
4395.00,1.30
4394.00,1.30
4393.00,1.30
4392.00,1.30
4391.00,1.30
4390.00,1.31
4389.00,1.31
4388.00,1.31
4387.00,1.31
4386.00,1.31
4385.00,1.31
4384.00,1.31
4383.00,1.31
4382.00,1.31
4381.00,1.31
4380.00,1.31
4379.00,1.31
4378.00,1.31
4377.00,1.31
4376.00,1.31
4375.00,1.31
4374.00,1.31
4373.00,1.31
4372.00,1.31
4371.00,1.31
4370.00,1.31
4369.00,1.31
4368.00,1.31
4367.00,1.31
4366.00,1.31
4365.00,1.31
4364.00,1.31
4363.00,1.31
4362.00,1.31
4361.00,1.31
4360.00,1.31
4359.00,1.31
4358.00,1.31
4357.00,1.31
4356.00,1.31
4355.00,1.31
4354.00,1.31
4353.00,1.31
4352.00,1.31
4351.00,1.31
4350.00,1.31
4349.00,1.31
4348.00,1.31
4347.00,1.31
4346.00,1.31
4345.00,1.31
4344.00,1.31
4343.00,1.31
4342.00,1.32
4341.00,1.32
4340.00,1.32
4339.00,1.32
4338.00,1.32
4337.00,1.32
4336.00,1.32
4335.00,1.33
4334.00,1.33
4333.00,1.33
4332.00,1.33
4331.00,1.33
4330.00,1.33
4329.00,1.33
4328.00,1.33
4327.00,1.33
4326.00,1.33
4325.00,1.34
4324.00,1.34
4323.00,1.34
4322.00,1.34
4321.00,1.34
4320.00,1.34
4319.00,1.34
4318.00,1.35
4317.00,1.35
4316.00,1.35
4315.00,1.35
4314.00,1.35
4313.00,1.35
4312.00,1.35
4311.00,1.35
4310.00,1.36
4309.00,1.36
4308.00,1.36
4307.00,1.36
4306.00,1.36
4305.00,1.36
4304.00,1.36
4303.00,1.36
4302.00,1.37
4301.00,1.37
4300.00,1.37
4299.00,1.37
4298.00,1.37
4297.00,1.37
4296.00,1.37
4295.00,1.37
4294.00,1.37
4293.00,1.38
4292.00,1.38
4291.00,1.38
4290.00,1.38
4289.00,1.38
4288.00,1.38
4287.00,1.38
4286.00,1.38
4285.00,1.38
4284.00,1.38
4283.00,1.38
4282.00,1.38
4281.00,1.38
4280.00,1.38
4279.00,1.38
4278.00,1.38
4277.00,1.38
4276.00,1.38
4275.00,1.38
4274.00,1.38
4273.00,1.38
4272.00,1.38
4271.00,1.38
4270.00,1.38
4269.00,1.38
4268.00,1.38
4267.00,1.38
4266.00,1.38
4265.00,1.38
4264.00,1.38
4263.00,1.38
4262.00,1.38
4261.00,1.38
4260.00,1.38
4259.00,1.39
4258.00,1.39
4257.00,1.39
4256.00,1.39
4255.00,1.39
4254.00,1.39
4253.00,1.39
4252.00,1.39
4251.00,1.39
4250.00,1.39
4249.00,1.40
4248.00,1.40
4247.00,1.40
4246.00,1.40
4245.00,1.40
4244.00,1.40
4243.00,1.40
4242.00,1.40
4241.00,1.40
4240.00,1.40
4239.00,1.40
4238.00,1.40
4237.00,1.40
4236.00,1.40
4235.00,1.40
4234.00,1.40
4233.00,1.40
4232.00,1.40
4231.00,1.40
4230.00,1.40
4229.00,1.40
4228.00,1.40
4227.00,1.40
4226.00,1.40
4225.00,1.41
4224.00,1.41
4223.00,1.41
4222.00,1.41
4221.00,1.41
4220.00,1.41
4219.00,1.41
4218.00,1.41
4217.00,1.41
4216.00,1.41
4215.00,1.42
4214.00,1.42
4213.00,1.42
4212.00,1.42
4211.00,1.42
4210.00,1.42
4209.00,1.43
4208.00,1.43
4207.00,1.43
4206.00,1.43
4205.00,1.43
4204.00,1.43
4203.00,1.43
4202.00,1.43
4201.00,1.43
4200.00,1.44
4199.00,1.44
4198.00,1.44
4197.00,1.44
4196.00,1.44
4195.00,1.44
4194.00,1.44
4193.00,1.44
4192.00,1.44
4191.00,1.44
4190.00,1.44
4189.00,1.44
4188.00,1.44
4187.00,1.44
4186.00,1.44
4185.00,1.44
4184.00,1.44
4183.00,1.44
4182.00,1.44
4181.00,1.45
4180.00,1.45
4179.00,1.45
4178.00,1.45
4177.00,1.45
4176.00,1.45
4175.00,1.45
4174.00,1.45
4173.00,1.45
4172.00,1.45
4171.00,1.45
4170.00,1.45
4169.00,1.45
4168.00,1.45
4167.00,1.45
4166.00,1.45
4165.00,1.45
4164.00,1.45
4163.00,1.45
4162.00,1.45
4161.00,1.45
4160.00,1.45
4159.00,1.45
4158.00,1.45
4157.00,1.45
4156.00,1.45
4155.00,1.45
4154.00,1.45
4153.00,1.45
4152.00,1.45
4151.00,1.45
4150.00,1.45
4149.00,1.45
4148.00,1.45
4147.00,1.45
4146.00,1.45
4145.00,1.46
4144.00,1.46
4143.00,1.46
4142.00,1.46
4141.00,1.46
4140.00,1.46
4139.00,1.47
4138.00,1.47
4137.00,1.47
4136.00,1.47
4135.00,1.47
4134.00,1.47
4133.00,1.48
4132.00,1.48
4131.00,1.48
4130.00,1.48
4129.00,1.48
4128.00,1.49
4127.00,1.49
4126.00,1.49
4125.00,1.49
4124.00,1.49
4123.00,1.49
4122.00,1.49
4121.00,1.49
4120.00,1.49
4119.00,1.49
4118.00,1.50
4117.00,1.50
4116.00,1.50
4115.00,1.50
4114.00,1.50
4113.00,1.50
4112.00,1.50
4111.00,1.50
4110.00,1.50
4109.00,1.51
4108.00,1.51
4107.00,1.51
4106.00,1.51
4105.00,1.51
4104.00,1.51
4103.00,1.51
4102.00,1.51
4101.00,1.51
4100.00,1.51
4099.00,1.50
4098.00,1.50
4097.00,1.50
4096.00,1.50
4095.00,1.50
4094.00,1.50
4093.00,1.50
4092.00,1.50
4091.00,1.49
4090.00,1.49
4089.00,1.49
4088.00,1.49
4087.00,1.49
4086.00,1.49
4085.00,1.49
4084.00,1.50
4083.00,1.50
4082.00,1.50
4081.00,1.50
4080.00,1.50
4079.00,1.50
4078.00,1.50
4077.00,1.51
4076.00,1.51
4075.00,1.51
4074.00,1.51
4073.00,1.51
4072.00,1.51
4071.00,1.51
4070.00,1.51
4069.00,1.51
4068.00,1.51
4067.00,1.51
4066.00,1.51
4065.00,1.51
4064.00,1.51
4063.00,1.50
4062.00,1.50
4061.00,1.50
4060.00,1.50
4059.00,1.50
4058.00,1.50
4057.00,1.50
4056.00,1.50
4055.00,1.51
4054.00,1.51
4053.00,1.51
4052.00,1.51
4051.00,1.51
4050.00,1.51
4049.00,1.52
4048.00,1.52
4047.00,1.52
4046.00,1.52
4045.00,1.52
4044.00,1.52
4043.00,1.52
4042.00,1.53
4041.00,1.53
4040.00,1.53
4039.00,1.53
4038.00,1.53
4037.00,1.53
4036.00,1.53
4035.00,1.54
4034.00,1.54
4033.00,1.54
4032.00,1.54
4031.00,1.54
4030.00,1.54
4029.00,1.55
4028.00,1.55
4027.00,1.55
4026.00,1.55
4025.00,1.55
4024.00,1.55
4023.00,1.55
4022.00,1.55
4021.00,1.55
4020.00,1.55
4019.00,1.55
4018.00,1.55
4017.00,1.55
4016.00,1.56
4015.00,1.56
4014.00,1.56
4013.00,1.56
4012.00,1.56
4011.00,1.56
4010.00,1.56
4009.00,1.56
4008.00,1.56
4007.00,1.56
4006.00,1.57
4005.00,1.57
4004.00,1.57
4003.00,1.57
4002.00,1.57
4001.00,1.58
4000.00,1.58
