创建为新数据集,样品 101 用户 Administrator 日期 星期六, 七月 21 2018
cm-1,%T
10000.00,1.56
9999.00,1.56
9998.00,1.55
9997.00,1.55
9996.00,1.55
9995.00,1.55
9994.00,1.55
9993.00,1.55
9992.00,1.55
9991.00,1.54
9990.00,1.54
9989.00,1.54
9988.00,1.54
9987.00,1.53
9986.00,1.53
9985.00,1.53
9984.00,1.53
9983.00,1.53
9982.00,1.53
9981.00,1.53
9980.00,1.53
9979.00,1.53
9978.00,1.53
9977.00,1.53
9976.00,1.53
9975.00,1.54
9974.00,1.54
9973.00,1.54
9972.00,1.55
9971.00,1.55
9970.00,1.55
9969.00,1.55
9968.00,1.56
9967.00,1.56
9966.00,1.56
9965.00,1.56
9964.00,1.56
9963.00,1.56
9962.00,1.55
9961.00,1.55
9960.00,1.55
9959.00,1.55
9958.00,1.55
9957.00,1.55
9956.00,1.55
9955.00,1.55
9954.00,1.55
9953.00,1.55
9952.00,1.55
9951.00,1.55
9950.00,1.55
9949.00,1.55
9948.00,1.55
9947.00,1.55
9946.00,1.55
9945.00,1.55
9944.00,1.55
9943.00,1.55
9942.00,1.55
9941.00,1.55
9940.00,1.55
9939.00,1.55
9938.00,1.55
9937.00,1.55
9936.00,1.54
9935.00,1.54
9934.00,1.54
9933.00,1.54
9932.00,1.53
9931.00,1.53
9930.00,1.53
9929.00,1.53
9928.00,1.52
9927.00,1.52
9926.00,1.52
9925.00,1.52
9924.00,1.52
9923.00,1.52
9922.00,1.52
9921.00,1.52
9920.00,1.52
9919.00,1.52
9918.00,1.52
9917.00,1.53
9916.00,1.53
9915.00,1.53
9914.00,1.53
9913.00,1.53
9912.00,1.53
9911.00,1.54
9910.00,1.54
9909.00,1.54
9908.00,1.54
9907.00,1.54
9906.00,1.54
9905.00,1.55
9904.00,1.55
9903.00,1.55
9902.00,1.55
9901.00,1.55
9900.00,1.55
9899.00,1.55
9898.00,1.55
9897.00,1.55
9896.00,1.55
9895.00,1.55
9894.00,1.54
9893.00,1.54
9892.00,1.54
9891.00,1.54
9890.00,1.53
9889.00,1.53
9888.00,1.53
9887.00,1.53
9886.00,1.52
9885.00,1.52
9884.00,1.52
9883.00,1.52
9882.00,1.52
9881.00,1.52
9880.00,1.52
9879.00,1.52
9878.00,1.52
9877.00,1.52
9876.00,1.52
9875.00,1.53
9874.00,1.53
9873.00,1.53
9872.00,1.53
9871.00,1.53
9870.00,1.53
9869.00,1.52
9868.00,1.52
9867.00,1.52
9866.00,1.52
9865.00,1.52
9864.00,1.52
9863.00,1.52
9862.00,1.52
9861.00,1.52
9860.00,1.52
9859.00,1.52
9858.00,1.53
9857.00,1.53
9856.00,1.53
9855.00,1.53
9854.00,1.53
9853.00,1.53
9852.00,1.53
9851.00,1.54
9850.00,1.54
9849.00,1.54
9848.00,1.54
9847.00,1.54
9846.00,1.54
9845.00,1.54
9844.00,1.54
9843.00,1.54
9842.00,1.54
9841.00,1.54
9840.00,1.54
9839.00,1.54
9838.00,1.54
9837.00,1.54
9836.00,1.54
9835.00,1.53
9834.00,1.53
9833.00,1.53
9832.00,1.53
9831.00,1.53
9830.00,1.53
9829.00,1.53
9828.00,1.53
9827.00,1.53
9826.00,1.53
9825.00,1.53
9824.00,1.53
9823.00,1.53
9822.00,1.53
9821.00,1.52
9820.00,1.52
9819.00,1.52
9818.00,1.52
9817.00,1.52
9816.00,1.52
9815.00,1.52
9814.00,1.52
9813.00,1.51
9812.00,1.51
9811.00,1.51
9810.00,1.51
9809.00,1.51
9808.00,1.52
9807.00,1.52
9806.00,1.52
9805.00,1.52
9804.00,1.52
9803.00,1.52
9802.00,1.52
9801.00,1.52
9800.00,1.52
9799.00,1.52
9798.00,1.52
9797.00,1.52
9796.00,1.52
9795.00,1.52
9794.00,1.52
9793.00,1.52
9792.00,1.52
9791.00,1.52
9790.00,1.52
9789.00,1.52
9788.00,1.52
9787.00,1.52
9786.00,1.52
9785.00,1.52
9784.00,1.52
9783.00,1.52
9782.00,1.52
9781.00,1.51
9780.00,1.51
9779.00,1.51
9778.00,1.51
9777.00,1.51
9776.00,1.51
9775.00,1.50
9774.00,1.50
9773.00,1.50
9772.00,1.50
9771.00,1.50
9770.00,1.50
9769.00,1.50
9768.00,1.50
9767.00,1.50
9766.00,1.50
9765.00,1.50
9764.00,1.50
9763.00,1.50
9762.00,1.50
9761.00,1.51
9760.00,1.51
9759.00,1.51
9758.00,1.51
9757.00,1.52
9756.00,1.52
9755.00,1.52
9754.00,1.52
9753.00,1.52
9752.00,1.52
9751.00,1.52
9750.00,1.52
9749.00,1.52
9748.00,1.52
9747.00,1.52
9746.00,1.52
9745.00,1.52
9744.00,1.52
9743.00,1.51
9742.00,1.51
9741.00,1.51
9740.00,1.51
9739.00,1.51
9738.00,1.50
9737.00,1.50
9736.00,1.50
9735.00,1.50
9734.00,1.50
9733.00,1.50
9732.00,1.50
9731.00,1.50
9730.00,1.50
9729.00,1.50
9728.00,1.50
9727.00,1.50
9726.00,1.50
9725.00,1.50
9724.00,1.50
9723.00,1.50
9722.00,1.50
9721.00,1.50
9720.00,1.50
9719.00,1.50
9718.00,1.50
9717.00,1.50
9716.00,1.50
9715.00,1.51
9714.00,1.51
9713.00,1.51
9712.00,1.51
9711.00,1.51
9710.00,1.51
9709.00,1.51
9708.00,1.52
9707.00,1.52
9706.00,1.52
9705.00,1.52
9704.00,1.53
9703.00,1.53
9702.00,1.53
9701.00,1.54
9700.00,1.54
9699.00,1.54
9698.00,1.55
9697.00,1.55
9696.00,1.55
9695.00,1.55
9694.00,1.55
9693.00,1.55
9692.00,1.55
9691.00,1.56
9690.00,1.55
9689.00,1.55
9688.00,1.55
9687.00,1.55
9686.00,1.55
9685.00,1.55
9684.00,1.55
9683.00,1.54
9682.00,1.54
9681.00,1.54
9680.00,1.54
9679.00,1.53
9678.00,1.53
9677.00,1.53
9676.00,1.53
9675.00,1.53
9674.00,1.52
9673.00,1.52
9672.00,1.52
9671.00,1.52
9670.00,1.52
9669.00,1.52
9668.00,1.52
9667.00,1.52
9666.00,1.52
9665.00,1.52
9664.00,1.52
9663.00,1.52
9662.00,1.52
9661.00,1.52
9660.00,1.52
9659.00,1.53
9658.00,1.53
9657.00,1.53
9656.00,1.53
9655.00,1.54
9654.00,1.54
9653.00,1.54
9652.00,1.54
9651.00,1.55
9650.00,1.55
9649.00,1.55
9648.00,1.55
9647.00,1.55
9646.00,1.55
9645.00,1.55
9644.00,1.55
9643.00,1.55
9642.00,1.55
9641.00,1.55
9640.00,1.55
9639.00,1.55
9638.00,1.54
9637.00,1.54
9636.00,1.54
9635.00,1.54
9634.00,1.54
9633.00,1.54
9632.00,1.54
9631.00,1.54
9630.00,1.54
9629.00,1.54
9628.00,1.54
9627.00,1.54
9626.00,1.54
9625.00,1.53
9624.00,1.53
9623.00,1.53
9622.00,1.53
9621.00,1.53
9620.00,1.53
9619.00,1.53
9618.00,1.52
9617.00,1.52
9616.00,1.52
9615.00,1.52
9614.00,1.52
9613.00,1.51
9612.00,1.51
9611.00,1.51
9610.00,1.51
9609.00,1.51
9608.00,1.51
9607.00,1.51
9606.00,1.51
9605.00,1.51
9604.00,1.51
9603.00,1.51
9602.00,1.51
9601.00,1.51
9600.00,1.51
9599.00,1.51
9598.00,1.51
9597.00,1.51
9596.00,1.50
9595.00,1.50
9594.00,1.50
9593.00,1.50
9592.00,1.50
9591.00,1.50
9590.00,1.50
9589.00,1.50
9588.00,1.49
9587.00,1.49
9586.00,1.49
9585.00,1.49
9584.00,1.49
9583.00,1.49
9582.00,1.49
9581.00,1.49
9580.00,1.49
9579.00,1.49
9578.00,1.49
9577.00,1.49
9576.00,1.49
9575.00,1.49
9574.00,1.49
9573.00,1.49
9572.00,1.49
9571.00,1.49
9570.00,1.50
9569.00,1.50
9568.00,1.50
9567.00,1.50
9566.00,1.50
9565.00,1.50
9564.00,1.50
9563.00,1.50
9562.00,1.51
9561.00,1.51
9560.00,1.51
9559.00,1.51
9558.00,1.51
9557.00,1.51
9556.00,1.51
9555.00,1.51
9554.00,1.51
9553.00,1.51
9552.00,1.51
9551.00,1.51
9550.00,1.51
9549.00,1.51
9548.00,1.52
9547.00,1.52
9546.00,1.52
9545.00,1.52
9544.00,1.52
9543.00,1.53
9542.00,1.53
9541.00,1.53
9540.00,1.53
9539.00,1.53
9538.00,1.53
9537.00,1.54
9536.00,1.54
9535.00,1.54
9534.00,1.54
9533.00,1.54
9532.00,1.54
9531.00,1.54
9530.00,1.54
9529.00,1.54
9528.00,1.54
9527.00,1.54
9526.00,1.54
9525.00,1.54
9524.00,1.54
9523.00,1.54
9522.00,1.54
9521.00,1.54
9520.00,1.54
9519.00,1.54
9518.00,1.54
9517.00,1.54
9516.00,1.54
9515.00,1.53
9514.00,1.53
9513.00,1.53
9512.00,1.53
9511.00,1.53
9510.00,1.53
9509.00,1.52
9508.00,1.52
9507.00,1.52
9506.00,1.52
9505.00,1.51
9504.00,1.51
9503.00,1.51
9502.00,1.51
9501.00,1.51
9500.00,1.51
9499.00,1.51
9498.00,1.51
9497.00,1.51
9496.00,1.51
9495.00,1.51
9494.00,1.52
9493.00,1.52
9492.00,1.52
9491.00,1.53
9490.00,1.53
9489.00,1.54
9488.00,1.54
9487.00,1.54
9486.00,1.55
9485.00,1.55
9484.00,1.55
9483.00,1.55
9482.00,1.55
9481.00,1.55
9480.00,1.56
9479.00,1.56
9478.00,1.56
9477.00,1.56
9476.00,1.55
9475.00,1.55
9474.00,1.55
9473.00,1.55
9472.00,1.55
9471.00,1.55
9470.00,1.55
9469.00,1.54
9468.00,1.54
9467.00,1.54
9466.00,1.54
9465.00,1.54
9464.00,1.53
9463.00,1.53
9462.00,1.53
9461.00,1.53
9460.00,1.53
9459.00,1.53
9458.00,1.53
9457.00,1.53
9456.00,1.53
9455.00,1.53
9454.00,1.53
9453.00,1.53
9452.00,1.53
9451.00,1.53
9450.00,1.53
9449.00,1.53
9448.00,1.53
9447.00,1.54
9446.00,1.54
9445.00,1.54
9444.00,1.54
9443.00,1.54
9442.00,1.54
9441.00,1.54
9440.00,1.54
9439.00,1.54
9438.00,1.54
9437.00,1.54
9436.00,1.54
9435.00,1.54
9434.00,1.54
9433.00,1.54
9432.00,1.55
9431.00,1.55
9430.00,1.55
9429.00,1.55
9428.00,1.55
9427.00,1.55
9426.00,1.55
9425.00,1.55
9424.00,1.55
9423.00,1.55
9422.00,1.55
9421.00,1.55
9420.00,1.55
9419.00,1.55
9418.00,1.55
9417.00,1.54
9416.00,1.54
9415.00,1.54
9414.00,1.54
9413.00,1.54
9412.00,1.53
9411.00,1.53
9410.00,1.53
9409.00,1.53
9408.00,1.53
9407.00,1.53
9406.00,1.53
9405.00,1.53
9404.00,1.53
9403.00,1.53
9402.00,1.54
9401.00,1.54
9400.00,1.54
9399.00,1.54
9398.00,1.54
9397.00,1.54
9396.00,1.54
9395.00,1.54
9394.00,1.54
9393.00,1.54
9392.00,1.54
9391.00,1.54
9390.00,1.54
9389.00,1.54
9388.00,1.54
9387.00,1.54
9386.00,1.54
9385.00,1.54
9384.00,1.54
9383.00,1.54
9382.00,1.54
9381.00,1.54
9380.00,1.54
9379.00,1.54
9378.00,1.54
9377.00,1.54
9376.00,1.54
9375.00,1.54
9374.00,1.54
9373.00,1.53
9372.00,1.53
9371.00,1.53
9370.00,1.53
9369.00,1.53
9368.00,1.53
9367.00,1.53
9366.00,1.52
9365.00,1.52
9364.00,1.52
9363.00,1.52
9362.00,1.51
9361.00,1.51
9360.00,1.51
9359.00,1.51
9358.00,1.51
9357.00,1.51
9356.00,1.51
9355.00,1.51
9354.00,1.51
9353.00,1.51
9352.00,1.51
9351.00,1.51
9350.00,1.51
9349.00,1.51
9348.00,1.51
9347.00,1.51
9346.00,1.51
9345.00,1.51
9344.00,1.51
9343.00,1.51
9342.00,1.51
9341.00,1.51
9340.00,1.51
9339.00,1.51
9338.00,1.51
9337.00,1.52
9336.00,1.52
9335.00,1.52
9334.00,1.52
9333.00,1.52
9332.00,1.52
9331.00,1.52
9330.00,1.52
9329.00,1.53
9328.00,1.53
9327.00,1.53
9326.00,1.53
9325.00,1.54
9324.00,1.54
9323.00,1.54
9322.00,1.54
9321.00,1.54
9320.00,1.54
9319.00,1.54
9318.00,1.54
9317.00,1.54
9316.00,1.54
9315.00,1.54
9314.00,1.54
9313.00,1.54
9312.00,1.54
9311.00,1.54
9310.00,1.53
9309.00,1.53
9308.00,1.53
9307.00,1.53
9306.00,1.53
9305.00,1.52
9304.00,1.52
9303.00,1.52
9302.00,1.52
9301.00,1.51
9300.00,1.51
9299.00,1.51
9298.00,1.51
9297.00,1.50
9296.00,1.50
9295.00,1.50
9294.00,1.50
9293.00,1.49
9292.00,1.49
9291.00,1.49
9290.00,1.49
9289.00,1.49
9288.00,1.49
9287.00,1.49
9286.00,1.49
9285.00,1.49
9284.00,1.49
9283.00,1.49
9282.00,1.50
9281.00,1.50
9280.00,1.50
9279.00,1.50
9278.00,1.51
9277.00,1.51
9276.00,1.52
9275.00,1.52
9274.00,1.52
9273.00,1.53
9272.00,1.53
9271.00,1.54
9270.00,1.54
9269.00,1.54
9268.00,1.55
9267.00,1.55
9266.00,1.55
9265.00,1.55
9264.00,1.55
9263.00,1.55
9262.00,1.55
9261.00,1.55
9260.00,1.55
9259.00,1.55
9258.00,1.55
9257.00,1.54
9256.00,1.54
9255.00,1.54
9254.00,1.54
9253.00,1.54
9252.00,1.54
9251.00,1.54
9250.00,1.53
9249.00,1.53
9248.00,1.53
9247.00,1.53
9246.00,1.54
9245.00,1.54
9244.00,1.54
9243.00,1.54
9242.00,1.54
9241.00,1.54
9240.00,1.54
9239.00,1.55
9238.00,1.55
9237.00,1.55
9236.00,1.55
9235.00,1.55
9234.00,1.55
9233.00,1.55
9232.00,1.55
9231.00,1.55
9230.00,1.55
9229.00,1.55
9228.00,1.55
9227.00,1.55
9226.00,1.55
9225.00,1.54
9224.00,1.54
9223.00,1.54
9222.00,1.54
9221.00,1.53
9220.00,1.53
9219.00,1.53
9218.00,1.53
9217.00,1.52
9216.00,1.52
9215.00,1.52
9214.00,1.52
9213.00,1.52
9212.00,1.52
9211.00,1.52
9210.00,1.52
9209.00,1.52
9208.00,1.52
9207.00,1.52
9206.00,1.53
9205.00,1.53
9204.00,1.53
9203.00,1.53
9202.00,1.53
9201.00,1.54
9200.00,1.54
9199.00,1.54
9198.00,1.54
9197.00,1.54
9196.00,1.54
9195.00,1.54
9194.00,1.54
9193.00,1.55
9192.00,1.55
9191.00,1.55
9190.00,1.54
9189.00,1.54
9188.00,1.54
9187.00,1.54
9186.00,1.54
9185.00,1.54
9184.00,1.54
9183.00,1.54
9182.00,1.54
9181.00,1.54
9180.00,1.54
9179.00,1.54
9178.00,1.53
9177.00,1.53
9176.00,1.53
9175.00,1.53
9174.00,1.53
9173.00,1.53
9172.00,1.53
9171.00,1.53
9170.00,1.53
9169.00,1.53
9168.00,1.53
9167.00,1.53
9166.00,1.54
9165.00,1.54
9164.00,1.54
9163.00,1.54
9162.00,1.54
9161.00,1.54
9160.00,1.54
9159.00,1.55
9158.00,1.55
9157.00,1.55
9156.00,1.55
9155.00,1.55
9154.00,1.55
9153.00,1.55
9152.00,1.55
9151.00,1.56
9150.00,1.56
9149.00,1.56
9148.00,1.56
9147.00,1.56
9146.00,1.56
9145.00,1.56
9144.00,1.56
9143.00,1.55
9142.00,1.55
9141.00,1.55
9140.00,1.55
9139.00,1.55
9138.00,1.55
9137.00,1.55
9136.00,1.55
9135.00,1.55
9134.00,1.55
9133.00,1.55
9132.00,1.55
9131.00,1.55
9130.00,1.55
9129.00,1.55
9128.00,1.55
9127.00,1.55
9126.00,1.55
9125.00,1.55
9124.00,1.55
9123.00,1.55
9122.00,1.55
9121.00,1.55
9120.00,1.55
9119.00,1.55
9118.00,1.55
9117.00,1.55
9116.00,1.55
9115.00,1.55
9114.00,1.55
9113.00,1.55
9112.00,1.55
9111.00,1.55
9110.00,1.54
9109.00,1.54
9108.00,1.54
9107.00,1.54
9106.00,1.54
9105.00,1.54
9104.00,1.54
9103.00,1.54
9102.00,1.54
9101.00,1.54
9100.00,1.54
9099.00,1.54
9098.00,1.54
9097.00,1.54
9096.00,1.55
9095.00,1.55
9094.00,1.55
9093.00,1.55
9092.00,1.55
9091.00,1.55
9090.00,1.55
9089.00,1.55
9088.00,1.55
9087.00,1.55
9086.00,1.54
9085.00,1.54
9084.00,1.54
9083.00,1.54
9082.00,1.54
9081.00,1.54
9080.00,1.54
9079.00,1.53
9078.00,1.53
9077.00,1.53
9076.00,1.53
9075.00,1.53
9074.00,1.53
9073.00,1.54
9072.00,1.54
9071.00,1.54
9070.00,1.54
9069.00,1.54
9068.00,1.55
9067.00,1.55
9066.00,1.55
9065.00,1.55
9064.00,1.55
9063.00,1.55
9062.00,1.55
9061.00,1.55
9060.00,1.55
9059.00,1.55
9058.00,1.55
9057.00,1.55
9056.00,1.55
9055.00,1.55
9054.00,1.55
9053.00,1.55
9052.00,1.55
9051.00,1.55
9050.00,1.55
9049.00,1.55
9048.00,1.55
9047.00,1.55
9046.00,1.55
9045.00,1.55
9044.00,1.55
9043.00,1.55
9042.00,1.55
9041.00,1.55
9040.00,1.55
9039.00,1.55
9038.00,1.55
9037.00,1.55
9036.00,1.55
9035.00,1.55
9034.00,1.55
9033.00,1.55
9032.00,1.55
9031.00,1.55
9030.00,1.55
9029.00,1.55
9028.00,1.55
9027.00,1.55
9026.00,1.55
9025.00,1.54
9024.00,1.54
9023.00,1.54
9022.00,1.54
9021.00,1.54
9020.00,1.54
9019.00,1.54
9018.00,1.54
9017.00,1.54
9016.00,1.54
9015.00,1.54
9014.00,1.54
9013.00,1.54
9012.00,1.54
9011.00,1.54
9010.00,1.54
9009.00,1.54
9008.00,1.54
9007.00,1.54
9006.00,1.54
9005.00,1.54
9004.00,1.54
9003.00,1.54
9002.00,1.54
9001.00,1.54
9000.00,1.54
8999.00,1.54
8998.00,1.54
8997.00,1.54
8996.00,1.54
8995.00,1.54
8994.00,1.54
8993.00,1.54
8992.00,1.54
8991.00,1.55
8990.00,1.55
8989.00,1.55
8988.00,1.55
8987.00,1.55
8986.00,1.55
8985.00,1.55
8984.00,1.55
8983.00,1.55
8982.00,1.55
8981.00,1.56
8980.00,1.56
8979.00,1.56
8978.00,1.56
8977.00,1.56
8976.00,1.56
8975.00,1.56
8974.00,1.56
8973.00,1.56
8972.00,1.55
8971.00,1.55
8970.00,1.55
8969.00,1.55
8968.00,1.55
8967.00,1.55
8966.00,1.55
8965.00,1.55
8964.00,1.55
8963.00,1.55
8962.00,1.54
8961.00,1.54
8960.00,1.54
8959.00,1.54
8958.00,1.54
8957.00,1.54
8956.00,1.54
8955.00,1.54
8954.00,1.54
8953.00,1.54
8952.00,1.54
8951.00,1.54
8950.00,1.54
8949.00,1.54
8948.00,1.54
8947.00,1.54
8946.00,1.54
8945.00,1.54
8944.00,1.54
8943.00,1.53
8942.00,1.53
8941.00,1.53
8940.00,1.53
8939.00,1.53
8938.00,1.53
8937.00,1.53
8936.00,1.53
8935.00,1.53
8934.00,1.53
8933.00,1.53
8932.00,1.53
8931.00,1.53
8930.00,1.53
8929.00,1.53
8928.00,1.52
8927.00,1.52
8926.00,1.52
8925.00,1.52
8924.00,1.52
8923.00,1.52
8922.00,1.52
8921.00,1.52
8920.00,1.52
8919.00,1.52
8918.00,1.52
8917.00,1.52
8916.00,1.52
8915.00,1.52
8914.00,1.53
8913.00,1.53
8912.00,1.53
8911.00,1.53
8910.00,1.53
8909.00,1.53
8908.00,1.53
8907.00,1.53
8906.00,1.53
8905.00,1.53
8904.00,1.53
8903.00,1.53
8902.00,1.53
8901.00,1.54
8900.00,1.54
8899.00,1.54
8898.00,1.54
8897.00,1.54
8896.00,1.54
8895.00,1.55
8894.00,1.55
8893.00,1.55
8892.00,1.55
8891.00,1.55
8890.00,1.55
8889.00,1.55
8888.00,1.55
8887.00,1.55
8886.00,1.55
8885.00,1.55
8884.00,1.55
8883.00,1.55
8882.00,1.55
8881.00,1.55
8880.00,1.54
8879.00,1.54
8878.00,1.54
8877.00,1.54
8876.00,1.54
8875.00,1.54
8874.00,1.54
8873.00,1.54
8872.00,1.54
8871.00,1.54
8870.00,1.54
8869.00,1.54
8868.00,1.54
8867.00,1.54
8866.00,1.54
8865.00,1.54
8864.00,1.54
8863.00,1.54
8862.00,1.54
8861.00,1.54
8860.00,1.54
8859.00,1.54
8858.00,1.54
8857.00,1.54
8856.00,1.54
8855.00,1.54
8854.00,1.54
8853.00,1.54
8852.00,1.53
8851.00,1.53
8850.00,1.53
8849.00,1.53
8848.00,1.53
8847.00,1.53
8846.00,1.53
8845.00,1.53
8844.00,1.53
8843.00,1.53
8842.00,1.53
8841.00,1.53
8840.00,1.53
8839.00,1.53
8838.00,1.53
8837.00,1.53
8836.00,1.53
8835.00,1.53
8834.00,1.53
8833.00,1.53
8832.00,1.53
8831.00,1.53
8830.00,1.53
8829.00,1.53
8828.00,1.53
8827.00,1.53
8826.00,1.53
8825.00,1.53
8824.00,1.53
8823.00,1.53
8822.00,1.53
8821.00,1.53
8820.00,1.53
8819.00,1.53
8818.00,1.53
8817.00,1.53
8816.00,1.53
8815.00,1.53
8814.00,1.53
8813.00,1.53
8812.00,1.53
8811.00,1.53
8810.00,1.53
8809.00,1.54
8808.00,1.54
8807.00,1.54
8806.00,1.54
8805.00,1.54
8804.00,1.54
8803.00,1.54
8802.00,1.54
8801.00,1.54
8800.00,1.54
8799.00,1.53
8798.00,1.53
8797.00,1.53
8796.00,1.53
8795.00,1.52
8794.00,1.52
8793.00,1.52
8792.00,1.52
8791.00,1.51
8790.00,1.51
8789.00,1.51
8788.00,1.51
8787.00,1.50
8786.00,1.50
8785.00,1.50
8784.00,1.50
8783.00,1.50
8782.00,1.50
8781.00,1.50
8780.00,1.50
8779.00,1.50
8778.00,1.50
8777.00,1.50
8776.00,1.50
8775.00,1.50
8774.00,1.50
8773.00,1.50
8772.00,1.50
8771.00,1.50
8770.00,1.50
8769.00,1.49
8768.00,1.49
8767.00,1.49
8766.00,1.49
8765.00,1.49
8764.00,1.49
8763.00,1.49
8762.00,1.49
8761.00,1.49
8760.00,1.49
8759.00,1.49
8758.00,1.49
8757.00,1.49
8756.00,1.49
8755.00,1.49
8754.00,1.49
8753.00,1.49
8752.00,1.49
8751.00,1.49
8750.00,1.49
8749.00,1.48
8748.00,1.48
8747.00,1.48
8746.00,1.48
8745.00,1.48
8744.00,1.48
8743.00,1.48
8742.00,1.48
8741.00,1.48
8740.00,1.48
8739.00,1.48
8738.00,1.48
8737.00,1.48
8736.00,1.48
8735.00,1.48
8734.00,1.48
8733.00,1.49
8732.00,1.49
8731.00,1.49
8730.00,1.49
8729.00,1.49
8728.00,1.49
8727.00,1.49
8726.00,1.49
8725.00,1.49
8724.00,1.48
8723.00,1.48
8722.00,1.48
8721.00,1.48
8720.00,1.48
8719.00,1.48
8718.00,1.48
8717.00,1.48
8716.00,1.48
8715.00,1.48
8714.00,1.48
8713.00,1.48
8712.00,1.48
8711.00,1.48
8710.00,1.48
8709.00,1.48
8708.00,1.48
8707.00,1.48
8706.00,1.48
8705.00,1.48
8704.00,1.48
8703.00,1.48
8702.00,1.47
8701.00,1.47
8700.00,1.47
8699.00,1.47
8698.00,1.47
8697.00,1.47
8696.00,1.46
8695.00,1.46
8694.00,1.46
8693.00,1.46
8692.00,1.46
8691.00,1.46
8690.00,1.46
8689.00,1.45
8688.00,1.45
8687.00,1.45
8686.00,1.46
8685.00,1.46
8684.00,1.46
8683.00,1.46
8682.00,1.46
8681.00,1.46
8680.00,1.46
8679.00,1.47
8678.00,1.47
8677.00,1.47
8676.00,1.47
8675.00,1.47
8674.00,1.48
8673.00,1.48
8672.00,1.48
8671.00,1.48
8670.00,1.48
8669.00,1.48
8668.00,1.48
8667.00,1.48
8666.00,1.49
8665.00,1.48
8664.00,1.48
8663.00,1.48
8662.00,1.48
8661.00,1.48
8660.00,1.48
8659.00,1.48
8658.00,1.48
8657.00,1.48
8656.00,1.47
8655.00,1.47
8654.00,1.47
8653.00,1.47
8652.00,1.47
8651.00,1.46
8650.00,1.46
8649.00,1.46
8648.00,1.46
8647.00,1.46
8646.00,1.46
8645.00,1.46
8644.00,1.45
8643.00,1.45
8642.00,1.45
8641.00,1.45
8640.00,1.45
8639.00,1.45
8638.00,1.45
8637.00,1.45
8636.00,1.45
8635.00,1.44
8634.00,1.44
8633.00,1.44
8632.00,1.44
8631.00,1.44
8630.00,1.44
8629.00,1.43
8628.00,1.43
8627.00,1.43
8626.00,1.43
8625.00,1.43
8624.00,1.42
8623.00,1.42
8622.00,1.42
8621.00,1.42
8620.00,1.42
8619.00,1.42
8618.00,1.41
8617.00,1.41
8616.00,1.41
8615.00,1.41
8614.00,1.42
8613.00,1.42
8612.00,1.42
8611.00,1.42
8610.00,1.42
8609.00,1.42
8608.00,1.42
8607.00,1.43
8606.00,1.43
8605.00,1.43
8604.00,1.43
8603.00,1.43
8602.00,1.43
8601.00,1.43
8600.00,1.43
8599.00,1.43
8598.00,1.43
8597.00,1.43
8596.00,1.43
8595.00,1.43
8594.00,1.43
8593.00,1.43
8592.00,1.43
8591.00,1.43
8590.00,1.43
8589.00,1.42
8588.00,1.42
8587.00,1.42
8586.00,1.42
8585.00,1.42
8584.00,1.42
8583.00,1.41
8582.00,1.41
8581.00,1.41
8580.00,1.41
8579.00,1.41
8578.00,1.41
8577.00,1.41
8576.00,1.41
8575.00,1.41
8574.00,1.41
8573.00,1.41
8572.00,1.41
8571.00,1.41
8570.00,1.41
8569.00,1.41
8568.00,1.41
8567.00,1.41
8566.00,1.41
8565.00,1.41
8564.00,1.41
8563.00,1.41
8562.00,1.41
8561.00,1.41
8560.00,1.41
8559.00,1.41
8558.00,1.41
8557.00,1.41
8556.00,1.41
8555.00,1.41
8554.00,1.41
8553.00,1.41
8552.00,1.41
8551.00,1.41
8550.00,1.41
8549.00,1.41
8548.00,1.40
8547.00,1.40
8546.00,1.40
8545.00,1.40
8544.00,1.40
8543.00,1.40
8542.00,1.40
8541.00,1.39
8540.00,1.39
8539.00,1.39
8538.00,1.39
8537.00,1.39
8536.00,1.39
8535.00,1.39
8534.00,1.38
8533.00,1.38
8532.00,1.38
8531.00,1.38
8530.00,1.38
8529.00,1.38
8528.00,1.38
8527.00,1.38
8526.00,1.38
8525.00,1.38
8524.00,1.38
8523.00,1.38
8522.00,1.38
8521.00,1.38
8520.00,1.38
8519.00,1.38
8518.00,1.38
8517.00,1.38
8516.00,1.38
8515.00,1.38
8514.00,1.37
8513.00,1.37
8512.00,1.37
8511.00,1.37
8510.00,1.37
8509.00,1.37
8508.00,1.37
8507.00,1.37
8506.00,1.37
8505.00,1.37
8504.00,1.37
8503.00,1.37
8502.00,1.37
8501.00,1.37
8500.00,1.37
8499.00,1.37
8498.00,1.37
8497.00,1.37
8496.00,1.36
8495.00,1.36
8494.00,1.36
8493.00,1.36
8492.00,1.36
8491.00,1.36
8490.00,1.36
8489.00,1.36
8488.00,1.36
8487.00,1.36
8486.00,1.36
8485.00,1.36
8484.00,1.35
8483.00,1.35
8482.00,1.35
8481.00,1.35
8480.00,1.35
8479.00,1.35
8478.00,1.35
8477.00,1.35
8476.00,1.35
8475.00,1.35
8474.00,1.35
8473.00,1.35
8472.00,1.35
8471.00,1.35
8470.00,1.35
8469.00,1.35
8468.00,1.35
8467.00,1.35
8466.00,1.34
8465.00,1.34
8464.00,1.34
8463.00,1.34
8462.00,1.34
8461.00,1.34
8460.00,1.34
8459.00,1.33
8458.00,1.33
8457.00,1.33
8456.00,1.33
8455.00,1.33
8454.00,1.33
8453.00,1.33
8452.00,1.33
8451.00,1.33
8450.00,1.33
8449.00,1.33
8448.00,1.33
8447.00,1.33
8446.00,1.33
8445.00,1.33
8444.00,1.33
8443.00,1.33
8442.00,1.33
8441.00,1.33
8440.00,1.33
8439.00,1.33
8438.00,1.33
8437.00,1.33
8436.00,1.33
8435.00,1.33
8434.00,1.33
8433.00,1.33
8432.00,1.33
8431.00,1.33
8430.00,1.33
8429.00,1.33
8428.00,1.33
8427.00,1.33
8426.00,1.33
8425.00,1.33
8424.00,1.33
8423.00,1.33
8422.00,1.33
8421.00,1.33
8420.00,1.33
8419.00,1.33
8418.00,1.33
8417.00,1.33
8416.00,1.34
8415.00,1.34
8414.00,1.34
8413.00,1.34
8412.00,1.34
8411.00,1.34
8410.00,1.34
8409.00,1.35
8408.00,1.35
8407.00,1.35
8406.00,1.35
8405.00,1.35
8404.00,1.35
8403.00,1.35
8402.00,1.36
8401.00,1.36
8400.00,1.36
8399.00,1.36
8398.00,1.36
8397.00,1.36
8396.00,1.36
8395.00,1.36
8394.00,1.36
8393.00,1.36
8392.00,1.37
8391.00,1.37
8390.00,1.37
8389.00,1.37
8388.00,1.37
8387.00,1.37
8386.00,1.37
8385.00,1.37
8384.00,1.37
8383.00,1.37
8382.00,1.37
8381.00,1.37
8380.00,1.37
8379.00,1.37
8378.00,1.37
8377.00,1.37
8376.00,1.37
8375.00,1.37
8374.00,1.37
8373.00,1.38
8372.00,1.38
8371.00,1.38
8370.00,1.38
8369.00,1.38
8368.00,1.38
8367.00,1.38
8366.00,1.38
8365.00,1.38
8364.00,1.38
8363.00,1.38
8362.00,1.38
8361.00,1.38
8360.00,1.38
8359.00,1.38
8358.00,1.38
8357.00,1.38
8356.00,1.38
8355.00,1.38
8354.00,1.38
8353.00,1.38
8352.00,1.39
8351.00,1.39
8350.00,1.39
8349.00,1.39
8348.00,1.39
8347.00,1.39
8346.00,1.39
8345.00,1.40
8344.00,1.40
8343.00,1.40
8342.00,1.40
8341.00,1.40
8340.00,1.40
8339.00,1.40
8338.00,1.40
8337.00,1.40
8336.00,1.40
8335.00,1.40
8334.00,1.40
8333.00,1.39
8332.00,1.39
8331.00,1.39
8330.00,1.39
8329.00,1.39
8328.00,1.39
8327.00,1.39
8326.00,1.39
8325.00,1.38
8324.00,1.38
8323.00,1.38
8322.00,1.38
8321.00,1.38
8320.00,1.39
8319.00,1.39
8318.00,1.39
8317.00,1.39
8316.00,1.39
8315.00,1.39
8314.00,1.39
8313.00,1.39
8312.00,1.40
8311.00,1.40
8310.00,1.40
8309.00,1.40
8308.00,1.40
8307.00,1.40
8306.00,1.40
8305.00,1.40
8304.00,1.40
8303.00,1.41
8302.00,1.41
8301.00,1.41
8300.00,1.41
8299.00,1.41
8298.00,1.41
8297.00,1.41
8296.00,1.41
8295.00,1.41
8294.00,1.41
8293.00,1.41
8292.00,1.41
8291.00,1.41
8290.00,1.41
8289.00,1.41
8288.00,1.41
8287.00,1.41
8286.00,1.41
8285.00,1.41
8284.00,1.40
8283.00,1.40
8282.00,1.40
8281.00,1.40
8280.00,1.40
8279.00,1.40
8278.00,1.40
8277.00,1.40
8276.00,1.40
8275.00,1.40
8274.00,1.40
8273.00,1.40
8272.00,1.40
8271.00,1.40
8270.00,1.40
8269.00,1.40
8268.00,1.40
8267.00,1.40
8266.00,1.41
8265.00,1.41
8264.00,1.41
8263.00,1.41
8262.00,1.41
8261.00,1.41
8260.00,1.41
8259.00,1.41
8258.00,1.41
8257.00,1.41
8256.00,1.41
8255.00,1.41
8254.00,1.41
8253.00,1.41
8252.00,1.41
8251.00,1.41
8250.00,1.41
8249.00,1.40
8248.00,1.40
8247.00,1.40
8246.00,1.40
8245.00,1.40
8244.00,1.40
8243.00,1.40
8242.00,1.40
8241.00,1.40
8240.00,1.40
8239.00,1.40
8238.00,1.40
8237.00,1.40
8236.00,1.40
8235.00,1.40
8234.00,1.40
8233.00,1.40
8232.00,1.40
8231.00,1.40
8230.00,1.40
8229.00,1.40
8228.00,1.40
8227.00,1.40
8226.00,1.40
8225.00,1.40
8224.00,1.40
8223.00,1.41
8222.00,1.41
8221.00,1.41
8220.00,1.41
8219.00,1.41
8218.00,1.42
8217.00,1.42
8216.00,1.42
8215.00,1.42
8214.00,1.42
8213.00,1.42
8212.00,1.43
8211.00,1.43
8210.00,1.43
8209.00,1.43
8208.00,1.43
8207.00,1.43
8206.00,1.43
8205.00,1.43
8204.00,1.43
8203.00,1.43
8202.00,1.43
8201.00,1.44
8200.00,1.44
8199.00,1.44
8198.00,1.44
8197.00,1.44
8196.00,1.44
8195.00,1.44
8194.00,1.44
8193.00,1.44
8192.00,1.44
8191.00,1.44
8190.00,1.44
8189.00,1.44
8188.00,1.44
8187.00,1.44
8186.00,1.44
8185.00,1.44
8184.00,1.44
8183.00,1.45
8182.00,1.45
8181.00,1.45
8180.00,1.45
8179.00,1.45
8178.00,1.45
8177.00,1.45
8176.00,1.45
8175.00,1.45
8174.00,1.45
8173.00,1.46
8172.00,1.46
8171.00,1.46
8170.00,1.46
8169.00,1.46
8168.00,1.45
8167.00,1.45
8166.00,1.45
8165.00,1.45
8164.00,1.45
8163.00,1.45
8162.00,1.45
8161.00,1.45
8160.00,1.45
8159.00,1.45
8158.00,1.45
8157.00,1.45
8156.00,1.45
8155.00,1.45
8154.00,1.45
8153.00,1.45
8152.00,1.45
8151.00,1.45
8150.00,1.45
8149.00,1.45
8148.00,1.45
8147.00,1.45
8146.00,1.45
8145.00,1.46
8144.00,1.46
8143.00,1.46
8142.00,1.46
8141.00,1.46
8140.00,1.46
8139.00,1.46
8138.00,1.47
8137.00,1.47
8136.00,1.47
8135.00,1.47
8134.00,1.47
8133.00,1.47
8132.00,1.47
8131.00,1.47
8130.00,1.47
8129.00,1.47
8128.00,1.47
8127.00,1.47
8126.00,1.47
8125.00,1.47
8124.00,1.47
8123.00,1.48
8122.00,1.48
8121.00,1.48
8120.00,1.48
8119.00,1.48
8118.00,1.48
8117.00,1.48
8116.00,1.48
8115.00,1.48
8114.00,1.48
8113.00,1.48
8112.00,1.48
8111.00,1.47
8110.00,1.47
8109.00,1.47
8108.00,1.47
8107.00,1.47
8106.00,1.47
8105.00,1.47
8104.00,1.47
8103.00,1.47
8102.00,1.47
8101.00,1.47
8100.00,1.47
8099.00,1.47
8098.00,1.47
8097.00,1.47
8096.00,1.47
8095.00,1.47
8094.00,1.47
8093.00,1.47
8092.00,1.47
8091.00,1.47
8090.00,1.47
8089.00,1.48
8088.00,1.48
8087.00,1.48
8086.00,1.48
8085.00,1.48
8084.00,1.48
8083.00,1.49
8082.00,1.49
8081.00,1.49
8080.00,1.49
8079.00,1.49
8078.00,1.49
8077.00,1.50
8076.00,1.50
8075.00,1.50
8074.00,1.50
8073.00,1.50
8072.00,1.50
8071.00,1.50
8070.00,1.50
8069.00,1.50
8068.00,1.50
8067.00,1.50
8066.00,1.50
8065.00,1.50
8064.00,1.49
8063.00,1.49
8062.00,1.49
8061.00,1.49
8060.00,1.49
8059.00,1.48
8058.00,1.48
8057.00,1.48
8056.00,1.48
8055.00,1.48
8054.00,1.47
8053.00,1.47
8052.00,1.47
8051.00,1.47
8050.00,1.47
8049.00,1.47
8048.00,1.48
8047.00,1.48
8046.00,1.48
8045.00,1.48
8044.00,1.48
8043.00,1.49
8042.00,1.49
8041.00,1.49
8040.00,1.49
8039.00,1.49
8038.00,1.49
8037.00,1.50
8036.00,1.50
8035.00,1.50
8034.00,1.50
8033.00,1.50
8032.00,1.50
8031.00,1.50
8030.00,1.50
8029.00,1.50
8028.00,1.50
8027.00,1.50
8026.00,1.50
8025.00,1.50
8024.00,1.50
8023.00,1.50
8022.00,1.50
8021.00,1.50
8020.00,1.50
8019.00,1.50
8018.00,1.50
8017.00,1.50
8016.00,1.50
8015.00,1.50
8014.00,1.50
8013.00,1.50
8012.00,1.50
8011.00,1.51
8010.00,1.51
8009.00,1.51
8008.00,1.51
8007.00,1.51
8006.00,1.51
8005.00,1.51
8004.00,1.51
8003.00,1.51
8002.00,1.51
8001.00,1.51
8000.00,1.51
7999.00,1.51
7998.00,1.51
7997.00,1.51
7996.00,1.51
7995.00,1.51
7994.00,1.51
7993.00,1.51
7992.00,1.51
7991.00,1.51
7990.00,1.51
7989.00,1.51
7988.00,1.51
7987.00,1.51
7986.00,1.50
7985.00,1.50
7984.00,1.50
7983.00,1.50
7982.00,1.50
7981.00,1.50
7980.00,1.50
7979.00,1.50
7978.00,1.50
7977.00,1.50
7976.00,1.50
7975.00,1.50
7974.00,1.50
7973.00,1.50
7972.00,1.51
7971.00,1.51
7970.00,1.51
7969.00,1.51
7968.00,1.51
7967.00,1.51
7966.00,1.51
7965.00,1.51
7964.00,1.51
7963.00,1.52
7962.00,1.52
7961.00,1.52
7960.00,1.52
7959.00,1.52
7958.00,1.52
7957.00,1.52
7956.00,1.52
7955.00,1.52
7954.00,1.52
7953.00,1.52
7952.00,1.52
7951.00,1.52
7950.00,1.52
7949.00,1.52
7948.00,1.52
7947.00,1.52
7946.00,1.52
7945.00,1.52
7944.00,1.52
7943.00,1.52
7942.00,1.52
7941.00,1.52
7940.00,1.52
7939.00,1.52
7938.00,1.52
7937.00,1.52
7936.00,1.52
7935.00,1.52
7934.00,1.52
7933.00,1.52
7932.00,1.52
7931.00,1.52
7930.00,1.52
7929.00,1.52
7928.00,1.52
7927.00,1.52
7926.00,1.52
7925.00,1.52
7924.00,1.52
7923.00,1.52
7922.00,1.52
7921.00,1.52
7920.00,1.52
7919.00,1.52
7918.00,1.52
7917.00,1.52
7916.00,1.52
7915.00,1.52
7914.00,1.52
7913.00,1.52
7912.00,1.52
7911.00,1.52
7910.00,1.52
7909.00,1.52
7908.00,1.51
7907.00,1.51
7906.00,1.51
7905.00,1.52
7904.00,1.52
7903.00,1.52
7902.00,1.52
7901.00,1.52
7900.00,1.52
7899.00,1.52
7898.00,1.52
7897.00,1.52
7896.00,1.53
7895.00,1.53
7894.00,1.53
7893.00,1.53
7892.00,1.53
7891.00,1.53
7890.00,1.54
7889.00,1.54
7888.00,1.54
7887.00,1.54
7886.00,1.54
7885.00,1.54
7884.00,1.54
7883.00,1.54
7882.00,1.54
7881.00,1.54
7880.00,1.54
7879.00,1.54
7878.00,1.54
7877.00,1.54
7876.00,1.54
7875.00,1.54
7874.00,1.53
7873.00,1.53
7872.00,1.53
7871.00,1.53
7870.00,1.53
7869.00,1.53
7868.00,1.53
7867.00,1.53
7866.00,1.52
7865.00,1.52
7864.00,1.52
7863.00,1.52
7862.00,1.52
7861.00,1.52
7860.00,1.52
7859.00,1.52
7858.00,1.52
7857.00,1.52
7856.00,1.52
7855.00,1.52
7854.00,1.52
7853.00,1.52
7852.00,1.52
7851.00,1.52
7850.00,1.52
7849.00,1.53
7848.00,1.53
7847.00,1.53
7846.00,1.53
7845.00,1.53
7844.00,1.53
7843.00,1.53
7842.00,1.53
7841.00,1.53
7840.00,1.53
7839.00,1.53
7838.00,1.53
7837.00,1.53
7836.00,1.54
7835.00,1.54
7834.00,1.54
7833.00,1.54
7832.00,1.54
7831.00,1.54
7830.00,1.54
7829.00,1.54
7828.00,1.55
7827.00,1.55
7826.00,1.55
7825.00,1.55
7824.00,1.55
7823.00,1.55
7822.00,1.55
7821.00,1.54
7820.00,1.54
7819.00,1.54
7818.00,1.54
7817.00,1.54
7816.00,1.54
7815.00,1.54
7814.00,1.54
7813.00,1.54
7812.00,1.54
7811.00,1.54
7810.00,1.54
7809.00,1.54
7808.00,1.54
7807.00,1.54
7806.00,1.54
7805.00,1.54
7804.00,1.54
7803.00,1.54
7802.00,1.54
7801.00,1.54
7800.00,1.54
7799.00,1.54
7798.00,1.54
7797.00,1.54
7796.00,1.54
7795.00,1.54
7794.00,1.54
7793.00,1.54
7792.00,1.54
7791.00,1.54
7790.00,1.55
7789.00,1.55
7788.00,1.55
7787.00,1.55
7786.00,1.55
7785.00,1.55
7784.00,1.55
7783.00,1.55
7782.00,1.55
7781.00,1.55
7780.00,1.55
7779.00,1.55
7778.00,1.55
7777.00,1.55
7776.00,1.55
7775.00,1.55
7774.00,1.55
7773.00,1.55
7772.00,1.55
7771.00,1.55
7770.00,1.55
7769.00,1.55
7768.00,1.55
7767.00,1.55
7766.00,1.55
7765.00,1.55
7764.00,1.55
7763.00,1.55
7762.00,1.55
7761.00,1.55
7760.00,1.55
7759.00,1.55
7758.00,1.55
7757.00,1.55
7756.00,1.55
7755.00,1.55
7754.00,1.55
7753.00,1.55
7752.00,1.55
7751.00,1.55
7750.00,1.55
7749.00,1.55
7748.00,1.55
7747.00,1.55
7746.00,1.55
7745.00,1.55
7744.00,1.55
7743.00,1.55
7742.00,1.55
7741.00,1.55
7740.00,1.55
7739.00,1.55
7738.00,1.55
7737.00,1.55
7736.00,1.55
7735.00,1.55
7734.00,1.55
7733.00,1.55
7732.00,1.55
7731.00,1.55
7730.00,1.55
7729.00,1.55
7728.00,1.55
7727.00,1.55
7726.00,1.55
7725.00,1.55
7724.00,1.55
7723.00,1.55
7722.00,1.55
7721.00,1.55
7720.00,1.55
7719.00,1.54
7718.00,1.54
7717.00,1.54
7716.00,1.54
7715.00,1.54
7714.00,1.54
7713.00,1.54
7712.00,1.54
7711.00,1.54
7710.00,1.54
7709.00,1.54
7708.00,1.54
7707.00,1.55
7706.00,1.55
7705.00,1.55
7704.00,1.55
7703.00,1.55
7702.00,1.55
7701.00,1.55
7700.00,1.55
7699.00,1.55
7698.00,1.55
7697.00,1.55
7696.00,1.55
7695.00,1.55
7694.00,1.55
7693.00,1.56
7692.00,1.56
7691.00,1.56
7690.00,1.56
7689.00,1.56
7688.00,1.56
7687.00,1.56
7686.00,1.56
7685.00,1.56
7684.00,1.56
7683.00,1.55
7682.00,1.55
7681.00,1.55
7680.00,1.55
7679.00,1.55
7678.00,1.55
7677.00,1.55
7676.00,1.55
7675.00,1.55
7674.00,1.55
7673.00,1.55
7672.00,1.55
7671.00,1.54
7670.00,1.54
7669.00,1.54
7668.00,1.54
7667.00,1.54
7666.00,1.54
7665.00,1.54
7664.00,1.54
7663.00,1.54
7662.00,1.54
7661.00,1.54
7660.00,1.54
7659.00,1.54
7658.00,1.54
7657.00,1.54
7656.00,1.54
7655.00,1.54
7654.00,1.54
7653.00,1.54
7652.00,1.54
7651.00,1.54
7650.00,1.54
7649.00,1.54
7648.00,1.54
7647.00,1.54
7646.00,1.54
7645.00,1.55
7644.00,1.55
7643.00,1.55
7642.00,1.55
7641.00,1.55
7640.00,1.55
7639.00,1.55
7638.00,1.55
7637.00,1.55
7636.00,1.55
7635.00,1.55
7634.00,1.55
7633.00,1.55
7632.00,1.55
7631.00,1.55
7630.00,1.55
7629.00,1.55
7628.00,1.55
7627.00,1.55
7626.00,1.55
7625.00,1.55
7624.00,1.55
7623.00,1.56
7622.00,1.56
7621.00,1.56
7620.00,1.56
7619.00,1.56
7618.00,1.56
7617.00,1.56
7616.00,1.56
7615.00,1.56
7614.00,1.56
7613.00,1.56
7612.00,1.56
7611.00,1.56
7610.00,1.56
7609.00,1.56
7608.00,1.56
7607.00,1.56
7606.00,1.56
7605.00,1.56
7604.00,1.56
7603.00,1.56
7602.00,1.56
7601.00,1.56
7600.00,1.56
7599.00,1.55
7598.00,1.55
7597.00,1.55
7596.00,1.55
7595.00,1.55
7594.00,1.55
7593.00,1.55
7592.00,1.55
7591.00,1.55
7590.00,1.54
7589.00,1.54
7588.00,1.54
7587.00,1.54
7586.00,1.54
7585.00,1.54
7584.00,1.54
7583.00,1.54
7582.00,1.54
7581.00,1.54
7580.00,1.53
7579.00,1.53
7578.00,1.53
7577.00,1.53
7576.00,1.53
7575.00,1.53
7574.00,1.53
7573.00,1.53
7572.00,1.53
7571.00,1.53
7570.00,1.53
7569.00,1.53
7568.00,1.53
7567.00,1.53
7566.00,1.53
7565.00,1.53
7564.00,1.53
7563.00,1.53
7562.00,1.53
7561.00,1.53
7560.00,1.53
7559.00,1.53
7558.00,1.53
7557.00,1.53
7556.00,1.53
7555.00,1.53
7554.00,1.53
7553.00,1.53
7552.00,1.53
7551.00,1.53
7550.00,1.53
7549.00,1.53
7548.00,1.54
7547.00,1.54
7546.00,1.54
7545.00,1.54
7544.00,1.54
7543.00,1.54
7542.00,1.54
7541.00,1.54
7540.00,1.54
7539.00,1.54
7538.00,1.54
7537.00,1.53
7536.00,1.53
7535.00,1.53
7534.00,1.53
7533.00,1.53
7532.00,1.53
7531.00,1.53
7530.00,1.53
7529.00,1.53
7528.00,1.53
7527.00,1.53
7526.00,1.53
7525.00,1.53
7524.00,1.53
7523.00,1.53
7522.00,1.52
7521.00,1.52
7520.00,1.52
7519.00,1.52
7518.00,1.52
7517.00,1.52
7516.00,1.52
7515.00,1.52
7514.00,1.52
7513.00,1.52
7512.00,1.52
7511.00,1.52
7510.00,1.51
7509.00,1.51
7508.00,1.51
7507.00,1.51
7506.00,1.51
7505.00,1.51
7504.00,1.51
7503.00,1.50
7502.00,1.50
7501.00,1.50
7500.00,1.50
7499.00,1.50
7498.00,1.50
7497.00,1.50
7496.00,1.50
7495.00,1.50
7494.00,1.50
7493.00,1.50
7492.00,1.49
7491.00,1.49
7490.00,1.49
7489.00,1.49
7488.00,1.49
7487.00,1.49
7486.00,1.49
7485.00,1.49
7484.00,1.49
7483.00,1.49
7482.00,1.49
7481.00,1.49
7480.00,1.48
7479.00,1.48
7478.00,1.48
7477.00,1.48
7476.00,1.48
7475.00,1.48
7474.00,1.48
7473.00,1.48
7472.00,1.48
7471.00,1.47
7470.00,1.47
7469.00,1.47
7468.00,1.47
7467.00,1.47
7466.00,1.47
7465.00,1.47
7464.00,1.47
7463.00,1.47
7462.00,1.47
7461.00,1.47
7460.00,1.47
7459.00,1.47
7458.00,1.47
7457.00,1.47
7456.00,1.47
7455.00,1.46
7454.00,1.46
7453.00,1.46
7452.00,1.46
7451.00,1.46
7450.00,1.46
7449.00,1.46
7448.00,1.46
7447.00,1.46
7446.00,1.46
7445.00,1.45
7444.00,1.45
7443.00,1.45
7442.00,1.45
7441.00,1.45
7440.00,1.45
7439.00,1.45
7438.00,1.45
7437.00,1.45
7436.00,1.45
7435.00,1.44
7434.00,1.44
7433.00,1.44
7432.00,1.44
7431.00,1.44
7430.00,1.44
7429.00,1.44
7428.00,1.44
7427.00,1.44
7426.00,1.44
7425.00,1.43
7424.00,1.43
7423.00,1.43
7422.00,1.43
7421.00,1.43
7420.00,1.43
7419.00,1.43
7418.00,1.43
7417.00,1.43
7416.00,1.43
7415.00,1.43
7414.00,1.43
7413.00,1.43
7412.00,1.43
7411.00,1.43
7410.00,1.43
7409.00,1.43
7408.00,1.43
7407.00,1.43
7406.00,1.43
7405.00,1.42
7404.00,1.42
7403.00,1.42
7402.00,1.42
7401.00,1.42
7400.00,1.41
7399.00,1.41
7398.00,1.41
7397.00,1.41
7396.00,1.41
7395.00,1.40
7394.00,1.40
7393.00,1.40
7392.00,1.40
7391.00,1.40
7390.00,1.40
7389.00,1.40
7388.00,1.40
7387.00,1.40
7386.00,1.40
7385.00,1.40
7384.00,1.40
7383.00,1.40
7382.00,1.40
7381.00,1.39
7380.00,1.39
7379.00,1.39
7378.00,1.39
7377.00,1.39
7376.00,1.39
7375.00,1.39
7374.00,1.39
7373.00,1.39
7372.00,1.39
7371.00,1.39
7370.00,1.39
7369.00,1.39
7368.00,1.39
7367.00,1.39
7366.00,1.39
7365.00,1.39
7364.00,1.39
7363.00,1.39
7362.00,1.39
7361.00,1.39
7360.00,1.39
7359.00,1.38
7358.00,1.38
7357.00,1.38
7356.00,1.38
7355.00,1.38
7354.00,1.38
7353.00,1.38
7352.00,1.38
7351.00,1.38
7350.00,1.38
7349.00,1.37
7348.00,1.37
7347.00,1.37
7346.00,1.37
7345.00,1.37
7344.00,1.37
7343.00,1.37
7342.00,1.37
7341.00,1.37
7340.00,1.37
7339.00,1.37
7338.00,1.36
7337.00,1.36
7336.00,1.36
7335.00,1.36
7334.00,1.36
7333.00,1.36
7332.00,1.36
7331.00,1.36
7330.00,1.36
7329.00,1.36
7328.00,1.36
7327.00,1.36
7326.00,1.36
7325.00,1.36
7324.00,1.36
7323.00,1.36
7322.00,1.36
7321.00,1.36
7320.00,1.36
7319.00,1.36
7318.00,1.36
7317.00,1.36
7316.00,1.36
7315.00,1.36
7314.00,1.36
7313.00,1.36
7312.00,1.35
7311.00,1.35
7310.00,1.35
7309.00,1.35
7308.00,1.35
7307.00,1.34
7306.00,1.34
7305.00,1.34
7304.00,1.34
7303.00,1.33
7302.00,1.33
7301.00,1.33
7300.00,1.33
7299.00,1.32
7298.00,1.32
7297.00,1.32
7296.00,1.32
7295.00,1.32
7294.00,1.32
7293.00,1.32
7292.00,1.31
7291.00,1.31
7290.00,1.31
7289.00,1.31
7288.00,1.31
7287.00,1.31
7286.00,1.31
7285.00,1.31
7284.00,1.31
7283.00,1.31
7282.00,1.31
7281.00,1.31
7280.00,1.31
7279.00,1.30
7278.00,1.30
7277.00,1.30
7276.00,1.30
7275.00,1.30
7274.00,1.30
7273.00,1.30
7272.00,1.29
7271.00,1.29
7270.00,1.29
7269.00,1.29
7268.00,1.29
7267.00,1.29
7266.00,1.29
7265.00,1.28
7264.00,1.28
7263.00,1.28
7262.00,1.28
7261.00,1.28
7260.00,1.28
7259.00,1.28
7258.00,1.27
7257.00,1.27
7256.00,1.27
7255.00,1.27
7254.00,1.26
7253.00,1.26
7252.00,1.26
7251.00,1.25
7250.00,1.25
7249.00,1.25
7248.00,1.24
7247.00,1.24
7246.00,1.24
7245.00,1.23
7244.00,1.23
7243.00,1.23
7242.00,1.22
7241.00,1.22
7240.00,1.22
7239.00,1.22
7238.00,1.21
7237.00,1.21
7236.00,1.21
7235.00,1.20
7234.00,1.20
7233.00,1.19
7232.00,1.19
7231.00,1.19
7230.00,1.18
7229.00,1.18
7228.00,1.18
7227.00,1.17
7226.00,1.17
7225.00,1.16
7224.00,1.16
7223.00,1.16
7222.00,1.15
7221.00,1.15
7220.00,1.14
7219.00,1.14
7218.00,1.14
7217.00,1.13
7216.00,1.13
7215.00,1.12
7214.00,1.12
7213.00,1.12
7212.00,1.11
7211.00,1.11
7210.00,1.10
7209.00,1.10
7208.00,1.10
7207.00,1.09
7206.00,1.09
7205.00,1.08
7204.00,1.08
7203.00,1.08
7202.00,1.07
7201.00,1.07
7200.00,1.07
7199.00,1.06
7198.00,1.06
7197.00,1.05
7196.00,1.05
7195.00,1.05
7194.00,1.04
7193.00,1.04
7192.00,1.03
7191.00,1.03
7190.00,1.02
7189.00,1.02
7188.00,1.02
7187.00,1.01
7186.00,1.01
7185.00,1.00
7184.00,1.00
7183.00,1.00
7182.00,0.99
7181.00,0.99
7180.00,0.99
7179.00,0.98
7178.00,0.98
7177.00,0.97
7176.00,0.97
7175.00,0.97
7174.00,0.96
7173.00,0.96
7172.00,0.96
7171.00,0.95
7170.00,0.95
7169.00,0.95
7168.00,0.94
7167.00,0.94
7166.00,0.94
7165.00,0.93
7164.00,0.93
7163.00,0.93
7162.00,0.92
7161.00,0.92
7160.00,0.92
7159.00,0.92
7158.00,0.91
7157.00,0.91
7156.00,0.91
7155.00,0.91
7154.00,0.90
7153.00,0.90
7152.00,0.90
7151.00,0.89
7150.00,0.89
7149.00,0.89
7148.00,0.88
7147.00,0.88
7146.00,0.88
7145.00,0.87
7144.00,0.87
7143.00,0.87
7142.00,0.87
7141.00,0.86
7140.00,0.86
7139.00,0.86
7138.00,0.85
7137.00,0.85
7136.00,0.85
7135.00,0.85
7134.00,0.85
7133.00,0.84
7132.00,0.84
7131.00,0.84
7130.00,0.84
7129.00,0.84
7128.00,0.84
7127.00,0.83
7126.00,0.83
7125.00,0.83
7124.00,0.83
7123.00,0.83
7122.00,0.83
7121.00,0.82
7120.00,0.82
7119.00,0.82
7118.00,0.82
7117.00,0.81
7116.00,0.81
7115.00,0.81
7114.00,0.81
7113.00,0.81
7112.00,0.80
7111.00,0.80
7110.00,0.80
7109.00,0.80
7108.00,0.80
7107.00,0.79
7106.00,0.79
7105.00,0.79
7104.00,0.79
7103.00,0.79
7102.00,0.79
7101.00,0.79
7100.00,0.79
7099.00,0.78
7098.00,0.78
7097.00,0.78
7096.00,0.78
7095.00,0.78
7094.00,0.78
7093.00,0.78
7092.00,0.78
7091.00,0.78
7090.00,0.77
7089.00,0.77
7088.00,0.77
7087.00,0.77
7086.00,0.77
7085.00,0.77
7084.00,0.77
7083.00,0.77
7082.00,0.76
7081.00,0.76
7080.00,0.76
7079.00,0.76
7078.00,0.76
7077.00,0.76
7076.00,0.76
7075.00,0.75
7074.00,0.75
7073.00,0.75
7072.00,0.75
7071.00,0.75
7070.00,0.75
7069.00,0.75
7068.00,0.75
7067.00,0.75
7066.00,0.75
7065.00,0.75
7064.00,0.75
7063.00,0.75
7062.00,0.75
7061.00,0.74
7060.00,0.74
7059.00,0.74
7058.00,0.74
7057.00,0.74
7056.00,0.74
7055.00,0.74
7054.00,0.74
7053.00,0.74
7052.00,0.74
7051.00,0.74
7050.00,0.74
7049.00,0.74
7048.00,0.74
7047.00,0.74
7046.00,0.74
7045.00,0.74
7044.00,0.74
7043.00,0.74
7042.00,0.74
7041.00,0.74
7040.00,0.74
7039.00,0.74
7038.00,0.74
7037.00,0.74
7036.00,0.74
7035.00,0.74
7034.00,0.74
7033.00,0.74
7032.00,0.74
7031.00,0.74
7030.00,0.73
7029.00,0.73
7028.00,0.73
7027.00,0.73
7026.00,0.73
7025.00,0.73
7024.00,0.73
7023.00,0.73
7022.00,0.73
7021.00,0.73
7020.00,0.72
7019.00,0.72
7018.00,0.72
7017.00,0.72
7016.00,0.72
7015.00,0.72
7014.00,0.72
7013.00,0.72
7012.00,0.72
7011.00,0.72
7010.00,0.72
7009.00,0.72
7008.00,0.72
7007.00,0.72
7006.00,0.72
7005.00,0.72
7004.00,0.72
7003.00,0.72
7002.00,0.72
7001.00,0.72
7000.00,0.72
6999.00,0.72
6998.00,0.72
6997.00,0.72
6996.00,0.72
6995.00,0.72
6994.00,0.72
6993.00,0.72
6992.00,0.72
6991.00,0.72
6990.00,0.72
6989.00,0.72
6988.00,0.72
6987.00,0.72
6986.00,0.72
6985.00,0.72
6984.00,0.72
6983.00,0.72
6982.00,0.72
6981.00,0.72
6980.00,0.72
6979.00,0.72
6978.00,0.72
6977.00,0.72
6976.00,0.72
6975.00,0.72
6974.00,0.72
6973.00,0.72
6972.00,0.72
6971.00,0.72
6970.00,0.72
6969.00,0.72
6968.00,0.72
6967.00,0.72
6966.00,0.72
6965.00,0.72
6964.00,0.72
6963.00,0.72
6962.00,0.72
6961.00,0.72
6960.00,0.72
6959.00,0.72
6958.00,0.72
6957.00,0.72
6956.00,0.72
6955.00,0.72
6954.00,0.72
6953.00,0.72
6952.00,0.72
6951.00,0.72
6950.00,0.72
6949.00,0.72
6948.00,0.72
6947.00,0.72
6946.00,0.72
6945.00,0.72
6944.00,0.71
6943.00,0.71
6942.00,0.71
6941.00,0.71
6940.00,0.71
6939.00,0.71
6938.00,0.71
6937.00,0.71
6936.00,0.71
6935.00,0.71
6934.00,0.71
6933.00,0.71
6932.00,0.71
6931.00,0.71
6930.00,0.71
6929.00,0.71
6928.00,0.71
6927.00,0.71
6926.00,0.71
6925.00,0.71
6924.00,0.71
6923.00,0.71
6922.00,0.71
6921.00,0.71
6920.00,0.71
6919.00,0.71
6918.00,0.72
6917.00,0.72
6916.00,0.72
6915.00,0.72
6914.00,0.72
6913.00,0.72
6912.00,0.72
6911.00,0.72
6910.00,0.72
6909.00,0.72
6908.00,0.72
6907.00,0.72
6906.00,0.72
6905.00,0.72
6904.00,0.72
6903.00,0.72
6902.00,0.72
6901.00,0.72
6900.00,0.72
6899.00,0.72
6898.00,0.72
6897.00,0.72
6896.00,0.72
6895.00,0.72
6894.00,0.71
6893.00,0.71
6892.00,0.71
6891.00,0.71
6890.00,0.71
6889.00,0.71
6888.00,0.71
6887.00,0.71
6886.00,0.71
6885.00,0.71
6884.00,0.71
6883.00,0.71
6882.00,0.71
6881.00,0.71
6880.00,0.71
6879.00,0.71
6878.00,0.71
6877.00,0.71
6876.00,0.71
6875.00,0.71
6874.00,0.71
6873.00,0.71
6872.00,0.71
6871.00,0.71
6870.00,0.71
6869.00,0.71
6868.00,0.71
6867.00,0.71
6866.00,0.71
6865.00,0.71
6864.00,0.71
6863.00,0.71
6862.00,0.71
6861.00,0.71
6860.00,0.71
6859.00,0.71
6858.00,0.71
6857.00,0.71
6856.00,0.71
6855.00,0.71
6854.00,0.71
6853.00,0.71
6852.00,0.71
6851.00,0.71
6850.00,0.72
6849.00,0.72
6848.00,0.72
6847.00,0.72
6846.00,0.72
6845.00,0.72
6844.00,0.72
6843.00,0.72
6842.00,0.72
6841.00,0.72
6840.00,0.72
6839.00,0.72
6838.00,0.72
6837.00,0.72
6836.00,0.72
6835.00,0.72
6834.00,0.72
6833.00,0.72
6832.00,0.72
6831.00,0.72
6830.00,0.72
6829.00,0.72
6828.00,0.72
6827.00,0.72
6826.00,0.72
6825.00,0.72
6824.00,0.72
6823.00,0.72
6822.00,0.72
6821.00,0.72
6820.00,0.72
6819.00,0.72
6818.00,0.72
6817.00,0.72
6816.00,0.72
6815.00,0.72
6814.00,0.72
6813.00,0.72
6812.00,0.72
6811.00,0.72
6810.00,0.72
6809.00,0.72
6808.00,0.72
6807.00,0.72
6806.00,0.72
6805.00,0.72
6804.00,0.72
6803.00,0.72
6802.00,0.72
6801.00,0.72
6800.00,0.72
6799.00,0.72
6798.00,0.72
6797.00,0.72
6796.00,0.72
6795.00,0.72
6794.00,0.72
6793.00,0.72
6792.00,0.72
6791.00,0.72
6790.00,0.72
6789.00,0.72
6788.00,0.72
6787.00,0.72
6786.00,0.72
6785.00,0.72
6784.00,0.73
6783.00,0.73
6782.00,0.73
6781.00,0.73
6780.00,0.73
6779.00,0.73
6778.00,0.73
6777.00,0.73
6776.00,0.74
6775.00,0.74
6774.00,0.74
6773.00,0.74
6772.00,0.74
6771.00,0.74
6770.00,0.75
6769.00,0.75
6768.00,0.75
6767.00,0.75
6766.00,0.75
6765.00,0.75
6764.00,0.75
6763.00,0.75
6762.00,0.75
6761.00,0.75
6760.00,0.75
6759.00,0.75
6758.00,0.75
6757.00,0.75
6756.00,0.75
6755.00,0.76
6754.00,0.76
6753.00,0.76
6752.00,0.76
6751.00,0.76
6750.00,0.76
6749.00,0.76
6748.00,0.76
6747.00,0.76
6746.00,0.76
6745.00,0.76
6744.00,0.76
6743.00,0.76
6742.00,0.76
6741.00,0.76
6740.00,0.76
6739.00,0.76
6738.00,0.76
6737.00,0.76
6736.00,0.76
6735.00,0.76
6734.00,0.76
6733.00,0.76
6732.00,0.76
6731.00,0.76
6730.00,0.77
6729.00,0.77
6728.00,0.77
6727.00,0.77
6726.00,0.77
6725.00,0.77
6724.00,0.77
6723.00,0.77
6722.00,0.78
6721.00,0.78
6720.00,0.78
6719.00,0.78
6718.00,0.78
6717.00,0.78
6716.00,0.78
6715.00,0.78
6714.00,0.78
6713.00,0.78
6712.00,0.78
6711.00,0.78
6710.00,0.78
6709.00,0.78
6708.00,0.77
6707.00,0.77
6706.00,0.77
6705.00,0.77
6704.00,0.77
6703.00,0.77
6702.00,0.77
6701.00,0.77
6700.00,0.77
6699.00,0.77
6698.00,0.77
6697.00,0.77
6696.00,0.77
6695.00,0.78
6694.00,0.78
6693.00,0.78
6692.00,0.78
6691.00,0.78
6690.00,0.78
6689.00,0.78
6688.00,0.78
6687.00,0.79
6686.00,0.79
6685.00,0.79
6684.00,0.79
6683.00,0.79
6682.00,0.79
6681.00,0.79
6680.00,0.79
6679.00,0.80
6678.00,0.80
6677.00,0.80
6676.00,0.80
6675.00,0.80
6674.00,0.80
6673.00,0.80
6672.00,0.80
6671.00,0.80
6670.00,0.80
6669.00,0.80
6668.00,0.80
6667.00,0.80
6666.00,0.80
6665.00,0.80
6664.00,0.80
6663.00,0.80
6662.00,0.80
6661.00,0.80
6660.00,0.81
6659.00,0.81
6658.00,0.81
6657.00,0.81
6656.00,0.81
6655.00,0.81
6654.00,0.81
6653.00,0.81
6652.00,0.81
6651.00,0.81
6650.00,0.81
6649.00,0.81
6648.00,0.81
6647.00,0.81
6646.00,0.81
6645.00,0.81
6644.00,0.81
6643.00,0.82
6642.00,0.82
6641.00,0.82
6640.00,0.82
6639.00,0.82
6638.00,0.82
6637.00,0.82
6636.00,0.82
6635.00,0.82
6634.00,0.82
6633.00,0.82
6632.00,0.82
6631.00,0.82
6630.00,0.82
6629.00,0.83
6628.00,0.83
6627.00,0.83
6626.00,0.83
6625.00,0.83
6624.00,0.83
6623.00,0.83
6622.00,0.83
6621.00,0.83
6620.00,0.83
6619.00,0.83
6618.00,0.83
6617.00,0.83
6616.00,0.83
6615.00,0.83
6614.00,0.83
6613.00,0.83
6612.00,0.83
6611.00,0.83
6610.00,0.83
6609.00,0.83
6608.00,0.83
6607.00,0.84
6606.00,0.84
6605.00,0.84
6604.00,0.84
6603.00,0.84
6602.00,0.84
6601.00,0.84
6600.00,0.85
6599.00,0.85
6598.00,0.85
6597.00,0.85
6596.00,0.85
6595.00,0.85
6594.00,0.85
6593.00,0.85
6592.00,0.85
6591.00,0.86
6590.00,0.86
6589.00,0.86
6588.00,0.86
6587.00,0.86
6586.00,0.86
6585.00,0.86
6584.00,0.86
6583.00,0.87
6582.00,0.87
6581.00,0.87
6580.00,0.87
6579.00,0.87
6578.00,0.87
6577.00,0.88
6576.00,0.88
6575.00,0.88
6574.00,0.88
6573.00,0.88
6572.00,0.88
6571.00,0.88
6570.00,0.88
6569.00,0.88
6568.00,0.88
6567.00,0.88
6566.00,0.88
6565.00,0.88
6564.00,0.88
6563.00,0.89
6562.00,0.89
6561.00,0.89
6560.00,0.89
6559.00,0.89
6558.00,0.89
6557.00,0.89
6556.00,0.89
6555.00,0.89
6554.00,0.89
6553.00,0.89
6552.00,0.89
6551.00,0.90
6550.00,0.90
6549.00,0.90
6548.00,0.90
6547.00,0.90
6546.00,0.90
6545.00,0.90
6544.00,0.90
6543.00,0.91
6542.00,0.91
6541.00,0.91
6540.00,0.91
6539.00,0.91
6538.00,0.91
6537.00,0.91
6536.00,0.91
6535.00,0.91
6534.00,0.91
6533.00,0.91
6532.00,0.91
6531.00,0.91
6530.00,0.91
6529.00,0.91
6528.00,0.92
6527.00,0.92
6526.00,0.92
6525.00,0.92
6524.00,0.92
6523.00,0.92
6522.00,0.92
6521.00,0.92
6520.00,0.92
6519.00,0.92
6518.00,0.92
6517.00,0.92
6516.00,0.93
6515.00,0.93
6514.00,0.93
6513.00,0.93
6512.00,0.93
6511.00,0.93
6510.00,0.93
6509.00,0.93
6508.00,0.93
6507.00,0.93
6506.00,0.93
6505.00,0.94
6504.00,0.94
6503.00,0.94
6502.00,0.94
6501.00,0.94
6500.00,0.94
6499.00,0.94
6498.00,0.94
6497.00,0.94
6496.00,0.94
6495.00,0.94
6494.00,0.94
6493.00,0.95
6492.00,0.95
6491.00,0.95
6490.00,0.95
6489.00,0.95
6488.00,0.95
6487.00,0.95
6486.00,0.95
6485.00,0.95
6484.00,0.95
6483.00,0.95
6482.00,0.95
6481.00,0.95
6480.00,0.95
6479.00,0.95
6478.00,0.95
6477.00,0.95
6476.00,0.95
6475.00,0.95
6474.00,0.95
6473.00,0.95
6472.00,0.96
6471.00,0.96
6470.00,0.96
6469.00,0.96
6468.00,0.96
6467.00,0.96
6466.00,0.96
6465.00,0.96
6464.00,0.96
6463.00,0.96
6462.00,0.96
6461.00,0.96
6460.00,0.96
6459.00,0.96
6458.00,0.96
6457.00,0.96
6456.00,0.96
6455.00,0.96
6454.00,0.96
6453.00,0.97
6452.00,0.97
6451.00,0.97
6450.00,0.97
6449.00,0.97
6448.00,0.97
6447.00,0.97
6446.00,0.97
6445.00,0.97
6444.00,0.97
6443.00,0.98
6442.00,0.98
6441.00,0.98
6440.00,0.98
6439.00,0.98
6438.00,0.98
6437.00,0.98
6436.00,0.98
6435.00,0.98
6434.00,0.98
6433.00,0.99
6432.00,0.99
6431.00,0.99
6430.00,0.99
6429.00,0.99
6428.00,0.99
6427.00,0.99
6426.00,0.99
6425.00,0.99
6424.00,0.99
6423.00,0.99
6422.00,0.99
6421.00,0.99
6420.00,0.99
6419.00,0.99
6418.00,0.99
6417.00,1.00
6416.00,1.00
6415.00,1.00
6414.00,1.00
6413.00,1.00
6412.00,1.00
6411.00,1.00
6410.00,1.00
6409.00,1.00
6408.00,1.00
6407.00,1.00
6406.00,1.00
6405.00,1.00
6404.00,1.00
6403.00,1.00
6402.00,1.00
6401.00,1.00
6400.00,1.00
6399.00,1.00
6398.00,1.01
6397.00,1.01
6396.00,1.01
6395.00,1.01
6394.00,1.01
6393.00,1.01
6392.00,1.01
6391.00,1.01
6390.00,1.02
6389.00,1.02
6388.00,1.02
6387.00,1.02
6386.00,1.02
6385.00,1.02
6384.00,1.02
6383.00,1.02
6382.00,1.02
6381.00,1.02
6380.00,1.03
6379.00,1.03
6378.00,1.03
6377.00,1.03
6376.00,1.03
6375.00,1.03
6374.00,1.03
6373.00,1.03
6372.00,1.03
6371.00,1.03
6370.00,1.04
6369.00,1.04
6368.00,1.04
6367.00,1.04
6366.00,1.04
6365.00,1.04
6364.00,1.04
6363.00,1.04
6362.00,1.04
6361.00,1.04
6360.00,1.04
6359.00,1.05
6358.00,1.05
6357.00,1.05
6356.00,1.05
6355.00,1.05
6354.00,1.05
6353.00,1.05
6352.00,1.05
6351.00,1.05
6350.00,1.05
6349.00,1.05
6348.00,1.05
6347.00,1.05
6346.00,1.05
6345.00,1.05
6344.00,1.05
6343.00,1.05
6342.00,1.06
6341.00,1.06
6340.00,1.06
6339.00,1.06
6338.00,1.06
6337.00,1.06
6336.00,1.06
6335.00,1.06
6334.00,1.07
6333.00,1.07
6332.00,1.07
6331.00,1.07
6330.00,1.07
6329.00,1.07
6328.00,1.07
6327.00,1.08
6326.00,1.08
6325.00,1.08
6324.00,1.08
6323.00,1.08
6322.00,1.08
6321.00,1.08
6320.00,1.09
6319.00,1.09
6318.00,1.09
6317.00,1.09
6316.00,1.09
6315.00,1.09
6314.00,1.09
6313.00,1.09
6312.00,1.09
6311.00,1.09
6310.00,1.10
6309.00,1.10
6308.00,1.10
6307.00,1.10
6306.00,1.10
6305.00,1.10
6304.00,1.10
6303.00,1.10
6302.00,1.11
6301.00,1.11
6300.00,1.11
6299.00,1.11
6298.00,1.11
6297.00,1.12
6296.00,1.12
6295.00,1.12
6294.00,1.12
6293.00,1.12
6292.00,1.12
6291.00,1.13
6290.00,1.13
6289.00,1.13
6288.00,1.13
6287.00,1.13
6286.00,1.13
6285.00,1.13
6284.00,1.13
6283.00,1.13
6282.00,1.14
6281.00,1.14
6280.00,1.14
6279.00,1.14
6278.00,1.14
6277.00,1.14
6276.00,1.14
6275.00,1.14
6274.00,1.14
6273.00,1.14
6272.00,1.14
6271.00,1.14
6270.00,1.15
6269.00,1.15
6268.00,1.15
6267.00,1.15
6266.00,1.15
6265.00,1.15
6264.00,1.15
6263.00,1.15
6262.00,1.15
6261.00,1.15
6260.00,1.16
6259.00,1.16
6258.00,1.16
6257.00,1.16
6256.00,1.16
6255.00,1.16
6254.00,1.16
6253.00,1.16
6252.00,1.17
6251.00,1.17
6250.00,1.17
6249.00,1.17
6248.00,1.17
6247.00,1.17
6246.00,1.17
6245.00,1.18
6244.00,1.18
6243.00,1.18
6242.00,1.18
6241.00,1.18
6240.00,1.18
6239.00,1.18
6238.00,1.18
6237.00,1.19
6236.00,1.19
6235.00,1.19
6234.00,1.19
6233.00,1.19
6232.00,1.19
6231.00,1.19
6230.00,1.19
6229.00,1.19
6228.00,1.20
6227.00,1.20
6226.00,1.20
6225.00,1.20
6224.00,1.20
6223.00,1.20
6222.00,1.20
6221.00,1.21
6220.00,1.21
6219.00,1.21
6218.00,1.21
6217.00,1.21
6216.00,1.21
6215.00,1.21
6214.00,1.21
6213.00,1.22
6212.00,1.22
6211.00,1.22
6210.00,1.22
6209.00,1.22
6208.00,1.22
6207.00,1.22
6206.00,1.22
6205.00,1.22
6204.00,1.22
6203.00,1.22
6202.00,1.23
6201.00,1.23
6200.00,1.23
6199.00,1.23
6198.00,1.23
6197.00,1.23
6196.00,1.24
6195.00,1.24
6194.00,1.24
6193.00,1.24
6192.00,1.24
6191.00,1.24
6190.00,1.25
6189.00,1.25
6188.00,1.25
6187.00,1.25
6186.00,1.25
6185.00,1.26
6184.00,1.26
6183.00,1.26
6182.00,1.26
6181.00,1.26
6180.00,1.26
6179.00,1.26
6178.00,1.27
6177.00,1.27
6176.00,1.27
6175.00,1.27
6174.00,1.27
6173.00,1.27
6172.00,1.27
6171.00,1.27
6170.00,1.27
6169.00,1.28
6168.00,1.28
6167.00,1.28
6166.00,1.28
6165.00,1.28
6164.00,1.28
6163.00,1.28
6162.00,1.28
6161.00,1.29
6160.00,1.29
6159.00,1.29
6158.00,1.29
6157.00,1.29
6156.00,1.29
6155.00,1.30
6154.00,1.30
6153.00,1.30
6152.00,1.30
6151.00,1.31
6150.00,1.31
6149.00,1.31
6148.00,1.31
6147.00,1.32
6146.00,1.32
6145.00,1.32
6144.00,1.32
6143.00,1.33
6142.00,1.33
6141.00,1.33
6140.00,1.33
6139.00,1.33
6138.00,1.33
6137.00,1.34
6136.00,1.34
6135.00,1.34
6134.00,1.34
6133.00,1.34
6132.00,1.34
6131.00,1.34
6130.00,1.34
6129.00,1.34
6128.00,1.34
6127.00,1.35
6126.00,1.35
6125.00,1.35
6124.00,1.35
6123.00,1.35
6122.00,1.35
6121.00,1.35
6120.00,1.35
6119.00,1.35
6118.00,1.36
6117.00,1.36
6116.00,1.36
6115.00,1.36
6114.00,1.36
6113.00,1.36
6112.00,1.36
6111.00,1.36
6110.00,1.37
6109.00,1.37
6108.00,1.37
6107.00,1.37
6106.00,1.37
6105.00,1.37
6104.00,1.38
6103.00,1.38
6102.00,1.38
6101.00,1.38
6100.00,1.38
6099.00,1.38
6098.00,1.38
6097.00,1.39
6096.00,1.39
6095.00,1.39
6094.00,1.39
6093.00,1.39
6092.00,1.39
6091.00,1.39
6090.00,1.40
6089.00,1.40
6088.00,1.40
6087.00,1.40
6086.00,1.40
6085.00,1.40
6084.00,1.40
6083.00,1.40
6082.00,1.40
6081.00,1.40
6080.00,1.41
6079.00,1.41
6078.00,1.41
6077.00,1.41
6076.00,1.41
6075.00,1.41
6074.00,1.41
6073.00,1.41
6072.00,1.42
6071.00,1.42
6070.00,1.42
6069.00,1.42
6068.00,1.42
6067.00,1.42
6066.00,1.42
6065.00,1.42
6064.00,1.43
6063.00,1.43
6062.00,1.43
6061.00,1.43
6060.00,1.43
6059.00,1.43
6058.00,1.44
6057.00,1.44
6056.00,1.44
6055.00,1.44
6054.00,1.44
6053.00,1.45
6052.00,1.45
6051.00,1.45
6050.00,1.45
6049.00,1.45
6048.00,1.45
6047.00,1.45
6046.00,1.45
6045.00,1.45
6044.00,1.45
6043.00,1.45
6042.00,1.45
6041.00,1.45
6040.00,1.45
6039.00,1.45
6038.00,1.45
6037.00,1.45
6036.00,1.46
6035.00,1.46
6034.00,1.46
6033.00,1.46
6032.00,1.46
6031.00,1.46
6030.00,1.46
6029.00,1.46
6028.00,1.46
6027.00,1.46
6026.00,1.46
6025.00,1.46
6024.00,1.46
6023.00,1.47
6022.00,1.47
6021.00,1.47
6020.00,1.47
6019.00,1.47
6018.00,1.47
6017.00,1.47
6016.00,1.47
6015.00,1.47
6014.00,1.47
6013.00,1.47
6012.00,1.47
6011.00,1.47
6010.00,1.47
6009.00,1.47
6008.00,1.47
6007.00,1.47
6006.00,1.47
6005.00,1.47
6004.00,1.47
6003.00,1.47
6002.00,1.47
6001.00,1.47
6000.00,1.47
5999.00,1.46
5998.00,1.46
5997.00,1.46
5996.00,1.46
5995.00,1.46
5994.00,1.46
5993.00,1.46
5992.00,1.46
5991.00,1.45
5990.00,1.45
5989.00,1.45
5988.00,1.45
5987.00,1.45
5986.00,1.44
5985.00,1.44
5984.00,1.44
5983.00,1.43
5982.00,1.43
5981.00,1.43
5980.00,1.43
5979.00,1.42
5978.00,1.42
5977.00,1.42
5976.00,1.41
5975.00,1.41
5974.00,1.40
5973.00,1.40
5972.00,1.39
5971.00,1.39
5970.00,1.38
5969.00,1.38
5968.00,1.37
5967.00,1.37
5966.00,1.36
5965.00,1.36
5964.00,1.35
5963.00,1.34
5962.00,1.34
5961.00,1.33
5960.00,1.32
5959.00,1.32
5958.00,1.31
5957.00,1.31
5956.00,1.30
5955.00,1.29
5954.00,1.29
5953.00,1.28
5952.00,1.28
5951.00,1.27
5950.00,1.27
5949.00,1.27
5948.00,1.26
5947.00,1.26
5946.00,1.26
5945.00,1.26
5944.00,1.25
5943.00,1.25
5942.00,1.25
5941.00,1.25
5940.00,1.25
5939.00,1.25
5938.00,1.25
5937.00,1.25
5936.00,1.25
5935.00,1.25
5934.00,1.25
5933.00,1.25
5932.00,1.25
5931.00,1.25
5930.00,1.25
5929.00,1.25
5928.00,1.25
5927.00,1.25
5926.00,1.25
5925.00,1.24
5924.00,1.24
5923.00,1.24
5922.00,1.24
5921.00,1.24
5920.00,1.23
5919.00,1.23
5918.00,1.23
5917.00,1.23
5916.00,1.22
5915.00,1.22
5914.00,1.22
5913.00,1.22
5912.00,1.21
5911.00,1.21
5910.00,1.21
5909.00,1.21
5908.00,1.20
5907.00,1.20
5906.00,1.20
5905.00,1.20
5904.00,1.20
5903.00,1.20
5902.00,1.20
5901.00,1.20
5900.00,1.20
5899.00,1.20
5898.00,1.20
5897.00,1.20
5896.00,1.20
5895.00,1.21
5894.00,1.21
5893.00,1.21
5892.00,1.21
5891.00,1.22
5890.00,1.22
5889.00,1.22
5888.00,1.22
5887.00,1.23
5886.00,1.23
5885.00,1.23
5884.00,1.24
5883.00,1.24
5882.00,1.24
5881.00,1.25
5880.00,1.25
5879.00,1.25
5878.00,1.26
5877.00,1.26
5876.00,1.26
5875.00,1.26
5874.00,1.27
5873.00,1.27
5872.00,1.27
5871.00,1.27
5870.00,1.28
5869.00,1.28
5868.00,1.28
5867.00,1.28
5866.00,1.29
5865.00,1.29
5864.00,1.29
5863.00,1.29
5862.00,1.29
5861.00,1.29
5860.00,1.29
5859.00,1.30
5858.00,1.30
5857.00,1.30
5856.00,1.30
5855.00,1.30
5854.00,1.30
5853.00,1.30
5852.00,1.30
5851.00,1.30
5850.00,1.30
5849.00,1.30
5848.00,1.30
5847.00,1.30
5846.00,1.30
5845.00,1.30
5844.00,1.30
5843.00,1.30
5842.00,1.30
5841.00,1.30
5840.00,1.30
5839.00,1.30
5838.00,1.30
5837.00,1.30
5836.00,1.30
5835.00,1.30
5834.00,1.30
5833.00,1.30
5832.00,1.30
5831.00,1.30
5830.00,1.30
5829.00,1.30
5828.00,1.30
5827.00,1.30
5826.00,1.31
5825.00,1.31
5824.00,1.31
5823.00,1.31
5822.00,1.31
5821.00,1.31
5820.00,1.31
5819.00,1.31
5818.00,1.31
5817.00,1.31
5816.00,1.31
5815.00,1.31
5814.00,1.31
5813.00,1.31
5812.00,1.31
5811.00,1.31
5810.00,1.31
5809.00,1.31
5808.00,1.31
5807.00,1.31
5806.00,1.31
5805.00,1.30
5804.00,1.30
5803.00,1.30
5802.00,1.30
5801.00,1.30
5800.00,1.29
5799.00,1.29
5798.00,1.29
5797.00,1.29
5796.00,1.28
5795.00,1.28
5794.00,1.28
5793.00,1.28
5792.00,1.28
5791.00,1.28
5790.00,1.27
5789.00,1.27
5788.00,1.27
5787.00,1.27
5786.00,1.27
5785.00,1.27
5784.00,1.27
5783.00,1.27
5782.00,1.26
5781.00,1.26
5780.00,1.26
5779.00,1.26
5778.00,1.26
5777.00,1.26
5776.00,1.26
5775.00,1.26
5774.00,1.26
5773.00,1.26
5772.00,1.26
5771.00,1.26
5770.00,1.26
5769.00,1.26
5768.00,1.26
5767.00,1.26
5766.00,1.27
5765.00,1.27
5764.00,1.27
5763.00,1.27
5762.00,1.27
5761.00,1.28
5760.00,1.28
5759.00,1.28
5758.00,1.28
5757.00,1.29
5756.00,1.29
5755.00,1.29
5754.00,1.29
5753.00,1.30
5752.00,1.30
5751.00,1.30
5750.00,1.31
5749.00,1.31
5748.00,1.31
5747.00,1.31
5746.00,1.32
5745.00,1.32
5744.00,1.32
5743.00,1.32
5742.00,1.32
5741.00,1.33
5740.00,1.33
5739.00,1.33
5738.00,1.33
5737.00,1.33
5736.00,1.33
5735.00,1.33
5734.00,1.34
5733.00,1.34
5732.00,1.34
5731.00,1.34
5730.00,1.34
5729.00,1.34
5728.00,1.34
5727.00,1.34
5726.00,1.34
5725.00,1.34
5724.00,1.34
5723.00,1.34
5722.00,1.34
5721.00,1.34
5720.00,1.34
5719.00,1.34
5718.00,1.34
5717.00,1.34
5716.00,1.34
5715.00,1.34
5714.00,1.34
5713.00,1.34
5712.00,1.34
5711.00,1.34
5710.00,1.34
5709.00,1.34
5708.00,1.34
5707.00,1.34
5706.00,1.34
5705.00,1.33
5704.00,1.33
5703.00,1.33
5702.00,1.33
5701.00,1.33
5700.00,1.33
5699.00,1.33
5698.00,1.33
5697.00,1.32
5696.00,1.32
5695.00,1.32
5694.00,1.32
5693.00,1.32
5692.00,1.32
5691.00,1.31
5690.00,1.31
5689.00,1.31
5688.00,1.31
5687.00,1.31
5686.00,1.31
5685.00,1.31
5684.00,1.31
5683.00,1.31
5682.00,1.31
5681.00,1.30
5680.00,1.30
5679.00,1.30
5678.00,1.30
5677.00,1.30
5676.00,1.30
5675.00,1.30
5674.00,1.30
5673.00,1.30
5672.00,1.30
5671.00,1.30
5670.00,1.30
5669.00,1.30
5668.00,1.30
5667.00,1.30
5666.00,1.31
5665.00,1.31
5664.00,1.31
5663.00,1.31
5662.00,1.31
5661.00,1.31
5660.00,1.32
5659.00,1.32
5658.00,1.32
5657.00,1.32
5656.00,1.32
5655.00,1.32
5654.00,1.33
5653.00,1.33
5652.00,1.33
5651.00,1.33
5650.00,1.33
5649.00,1.33
5648.00,1.33
5647.00,1.34
5646.00,1.34
5645.00,1.34
5644.00,1.34
5643.00,1.34
5642.00,1.34
5641.00,1.34
5640.00,1.34
5639.00,1.34
5638.00,1.34
5637.00,1.35
5636.00,1.35
5635.00,1.35
5634.00,1.35
5633.00,1.35
5632.00,1.35
5631.00,1.35
5630.00,1.36
5629.00,1.36
5628.00,1.36
5627.00,1.36
5626.00,1.36
5625.00,1.36
5624.00,1.37
5623.00,1.37
5622.00,1.37
5621.00,1.37
5620.00,1.37
5619.00,1.37
5618.00,1.37
5617.00,1.37
5616.00,1.37
5615.00,1.37
5614.00,1.38
5613.00,1.38
5612.00,1.38
5611.00,1.38
5610.00,1.38
5609.00,1.38
5608.00,1.38
5607.00,1.38
5606.00,1.39
5605.00,1.39
5604.00,1.39
5603.00,1.39
5602.00,1.39
5601.00,1.39
5600.00,1.39
5599.00,1.40
5598.00,1.40
5597.00,1.40
5596.00,1.40
5595.00,1.40
5594.00,1.40
5593.00,1.40
5592.00,1.41
5591.00,1.41
5590.00,1.41
5589.00,1.41
5588.00,1.41
5587.00,1.41
5586.00,1.42
5585.00,1.42
5584.00,1.42
5583.00,1.42
5582.00,1.42
5581.00,1.42
5580.00,1.43
5579.00,1.43
5578.00,1.43
5577.00,1.43
5576.00,1.43
5575.00,1.43
5574.00,1.43
5573.00,1.43
5572.00,1.43
5571.00,1.44
5570.00,1.44
5569.00,1.44
5568.00,1.44
5567.00,1.44
5566.00,1.44
5565.00,1.44
5564.00,1.44
5563.00,1.44
5562.00,1.45
5561.00,1.45
5560.00,1.45
5559.00,1.45
5558.00,1.45
5557.00,1.45
5556.00,1.45
5555.00,1.46
5554.00,1.46
5553.00,1.46
5552.00,1.46
5551.00,1.46
5550.00,1.47
5549.00,1.47
5548.00,1.47
5547.00,1.47
5546.00,1.47
5545.00,1.47
5544.00,1.47
5543.00,1.48
5542.00,1.48
5541.00,1.48
5540.00,1.48
5539.00,1.48
5538.00,1.48
5537.00,1.48
5536.00,1.49
5535.00,1.49
5534.00,1.49
5533.00,1.49
5532.00,1.49
5531.00,1.49
5530.00,1.49
5529.00,1.49
5528.00,1.49
5527.00,1.49
5526.00,1.49
5525.00,1.49
5524.00,1.49
5523.00,1.49
5522.00,1.49
5521.00,1.49
5520.00,1.49
5519.00,1.49
5518.00,1.49
5517.00,1.49
5516.00,1.49
5515.00,1.50
5514.00,1.50
5513.00,1.50
5512.00,1.50
5511.00,1.50
5510.00,1.50
5509.00,1.50
5508.00,1.50
5507.00,1.50
5506.00,1.50
5505.00,1.50
5504.00,1.51
5503.00,1.51
5502.00,1.51
5501.00,1.51
5500.00,1.51
5499.00,1.51
5498.00,1.51
5497.00,1.51
5496.00,1.51
5495.00,1.51
5494.00,1.51
5493.00,1.51
5492.00,1.52
5491.00,1.52
5490.00,1.52
5489.00,1.52
5488.00,1.52
5487.00,1.52
5486.00,1.52
5485.00,1.52
5484.00,1.52
5483.00,1.52
5482.00,1.53
5481.00,1.53
5480.00,1.53
5479.00,1.53
5478.00,1.53
5477.00,1.53
5476.00,1.53
5475.00,1.53
5474.00,1.54
5473.00,1.54
5472.00,1.54
5471.00,1.54
5470.00,1.54
5469.00,1.54
5468.00,1.54
5467.00,1.54
5466.00,1.54
5465.00,1.55
5464.00,1.55
5463.00,1.55
5462.00,1.55
5461.00,1.55
5460.00,1.55
5459.00,1.55
5458.00,1.55
5457.00,1.55
5456.00,1.55
5455.00,1.55
5454.00,1.55
5453.00,1.55
5452.00,1.55
5451.00,1.55
5450.00,1.55
5449.00,1.55
5448.00,1.55
5447.00,1.55
5446.00,1.56
5445.00,1.56
5444.00,1.56
5443.00,1.56
5442.00,1.56
5441.00,1.56
5440.00,1.56
5439.00,1.56
5438.00,1.56
5437.00,1.56
5436.00,1.56
5435.00,1.56
5434.00,1.56
5433.00,1.56
5432.00,1.56
5431.00,1.56
5430.00,1.56
5429.00,1.56
5428.00,1.56
5427.00,1.56
5426.00,1.56
5425.00,1.56
5424.00,1.56
5423.00,1.56
5422.00,1.56
5421.00,1.56
5420.00,1.56
5419.00,1.55
5418.00,1.55
5417.00,1.55
5416.00,1.55
5415.00,1.55
5414.00,1.55
5413.00,1.55
5412.00,1.54
5411.00,1.54
5410.00,1.54
5409.00,1.54
5408.00,1.54
5407.00,1.54
5406.00,1.54
5405.00,1.53
5404.00,1.53
5403.00,1.53
5402.00,1.53
5401.00,1.53
5400.00,1.53
5399.00,1.53
5398.00,1.53
5397.00,1.52
5396.00,1.52
5395.00,1.52
5394.00,1.52
5393.00,1.52
5392.00,1.51
5391.00,1.51
5390.00,1.51
5389.00,1.51
5388.00,1.50
5387.00,1.50
5386.00,1.50
5385.00,1.49
5384.00,1.49
5383.00,1.49
5382.00,1.48
5381.00,1.48
5380.00,1.47
5379.00,1.47
5378.00,1.47
5377.00,1.46
5376.00,1.46
5375.00,1.45
5374.00,1.45
5373.00,1.44
5372.00,1.44
5371.00,1.43
5370.00,1.43
5369.00,1.42
5368.00,1.41
5367.00,1.41
5366.00,1.40
5365.00,1.40
5364.00,1.39
5363.00,1.39
5362.00,1.38
5361.00,1.37
5360.00,1.37
5359.00,1.36
5358.00,1.35
5357.00,1.35
5356.00,1.34
5355.00,1.33
5354.00,1.32
5353.00,1.32
5352.00,1.31
5351.00,1.30
5350.00,1.29
5349.00,1.28
5348.00,1.27
5347.00,1.26
5346.00,1.26
5345.00,1.25
5344.00,1.24
5343.00,1.23
5342.00,1.22
5341.00,1.21
5340.00,1.21
5339.00,1.20
5338.00,1.19
5337.00,1.18
5336.00,1.18
5335.00,1.17
5334.00,1.16
5333.00,1.16
5332.00,1.15
5331.00,1.14
5330.00,1.14
5329.00,1.13
5328.00,1.13
5327.00,1.12
5326.00,1.12
5325.00,1.11
5324.00,1.11
5323.00,1.10
5322.00,1.10
5321.00,1.09
5320.00,1.09
5319.00,1.08
5318.00,1.08
5317.00,1.07
5316.00,1.07
5315.00,1.07
5314.00,1.06
5313.00,1.06
5312.00,1.05
5311.00,1.05
5310.00,1.05
5309.00,1.04
5308.00,1.04
5307.00,1.04
5306.00,1.03
5305.00,1.03
5304.00,1.03
5303.00,1.03
5302.00,1.02
5301.00,1.02
5300.00,1.02
5299.00,1.02
5298.00,1.02
5297.00,1.02
5296.00,1.01
5295.00,1.01
5294.00,1.01
5293.00,1.01
5292.00,1.01
5291.00,1.01
5290.00,1.01
5289.00,1.01
5288.00,1.01
5287.00,1.01
5286.00,1.01
5285.00,1.01
5284.00,1.01
5283.00,1.01
5282.00,1.01
5281.00,1.01
5280.00,1.01
5279.00,1.01
5278.00,1.01
5277.00,1.01
5276.00,1.01
5275.00,1.01
5274.00,1.01
5273.00,1.01
5272.00,1.01
5271.00,1.01
5270.00,1.01
5269.00,1.01
5268.00,1.01
5267.00,1.01
5266.00,1.01
5265.00,1.01
5264.00,1.01
5263.00,1.01
5262.00,1.01
5261.00,1.01
5260.00,1.01
5259.00,1.01
5258.00,1.00
5257.00,1.00
5256.00,1.00
5255.00,1.00
5254.00,1.00
5253.00,1.00
5252.00,1.01
5251.00,1.01
5250.00,1.01
5249.00,1.01
5248.00,1.01
5247.00,1.01
5246.00,1.01
5245.00,1.01
5244.00,1.01
5243.00,1.01
5242.00,1.01
5241.00,1.01
5240.00,1.01
5239.00,1.01
5238.00,1.01
5237.00,1.01
5236.00,1.01
5235.00,1.01
5234.00,1.01
5233.00,1.01
5232.00,1.01
5231.00,1.01
5230.00,1.01
5229.00,1.01
5228.00,1.01
5227.00,1.01
5226.00,1.01
5225.00,1.01
5224.00,1.01
5223.00,1.01
5222.00,1.01
5221.00,1.01
5220.00,1.01
5219.00,1.02
5218.00,1.02
5217.00,1.02
5216.00,1.02
5215.00,1.02
5214.00,1.02
5213.00,1.02
5212.00,1.02
5211.00,1.02
5210.00,1.02
5209.00,1.02
5208.00,1.02
5207.00,1.02
5206.00,1.02
5205.00,1.03
5204.00,1.03
5203.00,1.03
5202.00,1.03
5201.00,1.03
5200.00,1.03
5199.00,1.03
5198.00,1.03
5197.00,1.03
5196.00,1.03
5195.00,1.03
5194.00,1.03
5193.00,1.03
5192.00,1.04
5191.00,1.04
5190.00,1.04
5189.00,1.04
5188.00,1.04
5187.00,1.04
5186.00,1.04
5185.00,1.04
5184.00,1.04
5183.00,1.04
5182.00,1.04
5181.00,1.04
5180.00,1.04
5179.00,1.04
5178.00,1.04
5177.00,1.04
5176.00,1.04
5175.00,1.04
5174.00,1.04
5173.00,1.04
5172.00,1.04
5171.00,1.04
5170.00,1.04
5169.00,1.04
5168.00,1.04
5167.00,1.04
5166.00,1.04
5165.00,1.04
5164.00,1.04
5163.00,1.04
5162.00,1.04
5161.00,1.04
5160.00,1.04
5159.00,1.04
5158.00,1.04
5157.00,1.04
5156.00,1.04
5155.00,1.04
5154.00,1.04
5153.00,1.04
5152.00,1.04
5151.00,1.04
5150.00,1.04
5149.00,1.04
5148.00,1.04
5147.00,1.04
5146.00,1.04
5145.00,1.05
5144.00,1.05
5143.00,1.05
5142.00,1.05
5141.00,1.05
5140.00,1.05
5139.00,1.05
5138.00,1.05
5137.00,1.05
5136.00,1.05
5135.00,1.05
5134.00,1.05
5133.00,1.05
5132.00,1.05
5131.00,1.05
5130.00,1.06
5129.00,1.06
5128.00,1.06
5127.00,1.06
5126.00,1.06
5125.00,1.06
5124.00,1.06
5123.00,1.06
5122.00,1.06
5121.00,1.06
5120.00,1.06
5119.00,1.06
5118.00,1.06
5117.00,1.06
5116.00,1.06
5115.00,1.06
5114.00,1.06
5113.00,1.06
5112.00,1.06
5111.00,1.06
5110.00,1.06
5109.00,1.06
5108.00,1.07
5107.00,1.07
5106.00,1.07
5105.00,1.07
5104.00,1.07
5103.00,1.07
5102.00,1.07
5101.00,1.07
5100.00,1.07
5099.00,1.07
5098.00,1.07
5097.00,1.07
5096.00,1.07
5095.00,1.07
5094.00,1.07
5093.00,1.07
5092.00,1.07
5091.00,1.07
5090.00,1.08
5089.00,1.08
5088.00,1.08
5087.00,1.08
5086.00,1.08
5085.00,1.08
5084.00,1.08
5083.00,1.08
5082.00,1.08
5081.00,1.08
5080.00,1.08
5079.00,1.08
5078.00,1.08
5077.00,1.08
5076.00,1.08
5075.00,1.08
5074.00,1.08
5073.00,1.08
5072.00,1.08
5071.00,1.08
5070.00,1.08
5069.00,1.08
5068.00,1.08
5067.00,1.08
5066.00,1.08
5065.00,1.08
5064.00,1.08
5063.00,1.08
5062.00,1.08
5061.00,1.08
5060.00,1.08
5059.00,1.08
5058.00,1.08
5057.00,1.08
5056.00,1.08
5055.00,1.08
5054.00,1.08
5053.00,1.08
5052.00,1.08
5051.00,1.08
5050.00,1.08
5049.00,1.08
5048.00,1.08
5047.00,1.08
5046.00,1.08
5045.00,1.09
5044.00,1.09
5043.00,1.09
5042.00,1.09
5041.00,1.09
5040.00,1.09
5039.00,1.09
5038.00,1.09
5037.00,1.09
5036.00,1.09
5035.00,1.09
5034.00,1.09
5033.00,1.10
5032.00,1.10
5031.00,1.10
5030.00,1.10
5029.00,1.10
5028.00,1.10
5027.00,1.10
5026.00,1.10
5025.00,1.10
5024.00,1.10
5023.00,1.11
5022.00,1.11
5021.00,1.11
5020.00,1.11
5019.00,1.11
5018.00,1.11
5017.00,1.11
5016.00,1.11
5015.00,1.11
5014.00,1.11
5013.00,1.11
5012.00,1.11
5011.00,1.11
5010.00,1.11
5009.00,1.11
5008.00,1.11
5007.00,1.11
5006.00,1.11
5005.00,1.11
5004.00,1.11
5003.00,1.11
5002.00,1.11
5001.00,1.11
5000.00,1.11
4999.00,1.11
4998.00,1.11
4997.00,1.11
4996.00,1.11
4995.00,1.11
4994.00,1.11
4993.00,1.11
4992.00,1.11
4991.00,1.11
4990.00,1.11
4989.00,1.11
4988.00,1.11
4987.00,1.11
4986.00,1.12
4985.00,1.12
4984.00,1.12
4983.00,1.12
4982.00,1.12
4981.00,1.12
4980.00,1.12
4979.00,1.12
4978.00,1.12
4977.00,1.12
4976.00,1.13
4975.00,1.13
4974.00,1.13
4973.00,1.13
4972.00,1.13
4971.00,1.13
4970.00,1.13
4969.00,1.13
4968.00,1.13
4967.00,1.13
4966.00,1.13
4965.00,1.13
4964.00,1.13
4963.00,1.13
4962.00,1.13
4961.00,1.13
4960.00,1.13
4959.00,1.13
4958.00,1.13
4957.00,1.13
4956.00,1.13
4955.00,1.13
4954.00,1.13
4953.00,1.13
4952.00,1.13
4951.00,1.13
4950.00,1.13
4949.00,1.13
4948.00,1.13
4947.00,1.13
4946.00,1.13
4945.00,1.13
4944.00,1.13
4943.00,1.13
4942.00,1.14
4941.00,1.14
4940.00,1.14
4939.00,1.14
4938.00,1.14
4937.00,1.14
4936.00,1.14
4935.00,1.14
4934.00,1.14
4933.00,1.14
4932.00,1.14
4931.00,1.15
4930.00,1.15
4929.00,1.15
4928.00,1.15
4927.00,1.15
4926.00,1.15
4925.00,1.15
4924.00,1.15
4923.00,1.15
4922.00,1.15
4921.00,1.15
4920.00,1.15
4919.00,1.15
4918.00,1.15
4917.00,1.15
4916.00,1.15
4915.00,1.15
4914.00,1.15
4913.00,1.15
4912.00,1.15
4911.00,1.15
4910.00,1.15
4909.00,1.15
4908.00,1.15
4907.00,1.15
4906.00,1.15
4905.00,1.15
4904.00,1.15
4903.00,1.15
4902.00,1.16
4901.00,1.16
4900.00,1.16
4899.00,1.16
4898.00,1.16
4897.00,1.16
4896.00,1.16
4895.00,1.16
4894.00,1.16
4893.00,1.16
4892.00,1.17
4891.00,1.17
4890.00,1.17
4889.00,1.17
4888.00,1.17
4887.00,1.17
4886.00,1.17
4885.00,1.17
4884.00,1.17
4883.00,1.17
4882.00,1.17
4881.00,1.17
4880.00,1.17
4879.00,1.17
4878.00,1.17
4877.00,1.17
4876.00,1.17
4875.00,1.17
4874.00,1.17
4873.00,1.17
4872.00,1.17
4871.00,1.17
4870.00,1.17
4869.00,1.17
4868.00,1.17
4867.00,1.17
4866.00,1.18
4865.00,1.18
4864.00,1.18
4863.00,1.18
4862.00,1.18
4861.00,1.18
4860.00,1.18
4859.00,1.18
4858.00,1.18
4857.00,1.18
4856.00,1.18
4855.00,1.18
4854.00,1.18
4853.00,1.18
4852.00,1.18
4851.00,1.18
4850.00,1.19
4849.00,1.19
4848.00,1.19
4847.00,1.19
4846.00,1.19
4845.00,1.19
4844.00,1.19
4843.00,1.19
4842.00,1.19
4841.00,1.19
4840.00,1.19
4839.00,1.19
4838.00,1.19
4837.00,1.19
4836.00,1.19
4835.00,1.19
4834.00,1.20
4833.00,1.20
4832.00,1.20
4831.00,1.20
4830.00,1.20
4829.00,1.20
4828.00,1.20
4827.00,1.20
4826.00,1.20
4825.00,1.20
4824.00,1.20
4823.00,1.20
4822.00,1.20
4821.00,1.20
4820.00,1.21
4819.00,1.21
4818.00,1.21
4817.00,1.21
4816.00,1.21
4815.00,1.21
4814.00,1.21
4813.00,1.21
4812.00,1.21
4811.00,1.21
4810.00,1.21
4809.00,1.21
4808.00,1.21
4807.00,1.21
4806.00,1.21
4805.00,1.21
4804.00,1.21
4803.00,1.21
4802.00,1.21
4801.00,1.21
4800.00,1.21
4799.00,1.21
4798.00,1.21
4797.00,1.22
4796.00,1.22
4795.00,1.22
4794.00,1.22
4793.00,1.22
4792.00,1.22
4791.00,1.22
4790.00,1.22
4789.00,1.22
4788.00,1.23
4787.00,1.23
4786.00,1.23
4785.00,1.23
4784.00,1.23
4783.00,1.23
4782.00,1.23
4781.00,1.23
4780.00,1.23
4779.00,1.23
4778.00,1.23
4777.00,1.23
4776.00,1.23
4775.00,1.23
4774.00,1.23
4773.00,1.23
4772.00,1.23
4771.00,1.23
4770.00,1.23
4769.00,1.23
4768.00,1.23
4767.00,1.23
4766.00,1.23
4765.00,1.23
4764.00,1.23
4763.00,1.23
4762.00,1.23
4761.00,1.23
4760.00,1.23
4759.00,1.23
4758.00,1.24
4757.00,1.24
4756.00,1.24
4755.00,1.24
4754.00,1.24
4753.00,1.24
4752.00,1.24
4751.00,1.24
4750.00,1.24
4749.00,1.24
4748.00,1.25
4747.00,1.25
4746.00,1.25
4745.00,1.25
4744.00,1.25
4743.00,1.25
4742.00,1.25
4741.00,1.26
4740.00,1.26
4739.00,1.26
4738.00,1.26
4737.00,1.26
4736.00,1.26
4735.00,1.26
4734.00,1.26
4733.00,1.26
4732.00,1.27
4731.00,1.27
4730.00,1.27
4729.00,1.27
4728.00,1.27
4727.00,1.27
4726.00,1.27
4725.00,1.27
4724.00,1.27
4723.00,1.27
4722.00,1.27
4721.00,1.27
4720.00,1.27
4719.00,1.27
4718.00,1.27
4717.00,1.28
4716.00,1.28
4715.00,1.28
4714.00,1.28
4713.00,1.28
4712.00,1.28
4711.00,1.28
4710.00,1.28
4709.00,1.28
4708.00,1.28
4707.00,1.28
4706.00,1.29
4705.00,1.29
4704.00,1.29
4703.00,1.29
4702.00,1.29
4701.00,1.29
4700.00,1.30
4699.00,1.30
4698.00,1.30
4697.00,1.30
4696.00,1.30
4695.00,1.30
4694.00,1.30
4693.00,1.30
4692.00,1.30
4691.00,1.30
4690.00,1.30
4689.00,1.30
4688.00,1.30
4687.00,1.30
4686.00,1.30
4685.00,1.30
4684.00,1.31
4683.00,1.31
4682.00,1.31
4681.00,1.31
4680.00,1.31
4679.00,1.31
4678.00,1.31
4677.00,1.31
4676.00,1.31
4675.00,1.31
4674.00,1.31
4673.00,1.31
4672.00,1.31
4671.00,1.31
4670.00,1.31
4669.00,1.32
4668.00,1.32
4667.00,1.32
4666.00,1.32
4665.00,1.32
4664.00,1.31
4663.00,1.31
4662.00,1.31
4661.00,1.31
4660.00,1.31
4659.00,1.31
4658.00,1.31
4657.00,1.31
4656.00,1.31
4655.00,1.32
4654.00,1.32
4653.00,1.32
4652.00,1.32
4651.00,1.32
4650.00,1.32
4649.00,1.32
4648.00,1.32
4647.00,1.33
4646.00,1.33
4645.00,1.33
4644.00,1.33
4643.00,1.33
4642.00,1.33
4641.00,1.34
4640.00,1.34
4639.00,1.34
4638.00,1.34
4637.00,1.34
4636.00,1.34
4635.00,1.34
4634.00,1.35
4633.00,1.35
4632.00,1.35
4631.00,1.35
4630.00,1.35
4629.00,1.35
4628.00,1.35
4627.00,1.35
4626.00,1.35
4625.00,1.35
4624.00,1.35
4623.00,1.35
4622.00,1.35
4621.00,1.35
4620.00,1.35
4619.00,1.35
4618.00,1.36
4617.00,1.36
4616.00,1.35
4615.00,1.35
4614.00,1.35
4613.00,1.35
4612.00,1.35
4611.00,1.35
4610.00,1.35
4609.00,1.35
4608.00,1.35
4607.00,1.35
4606.00,1.35
4605.00,1.35
4604.00,1.35
4603.00,1.35
4602.00,1.35
4601.00,1.35
4600.00,1.35
4599.00,1.35
4598.00,1.35
4597.00,1.35
4596.00,1.35
4595.00,1.35
4594.00,1.35
4593.00,1.35
4592.00,1.35
4591.00,1.35
4590.00,1.36
4589.00,1.36
4588.00,1.36
4587.00,1.36
4586.00,1.36
4585.00,1.36
4584.00,1.36
4583.00,1.36
4582.00,1.36
4581.00,1.36
4580.00,1.36
4579.00,1.36
4578.00,1.36
4577.00,1.36
4576.00,1.36
4575.00,1.37
4574.00,1.37
4573.00,1.37
4572.00,1.37
4571.00,1.37
4570.00,1.37
4569.00,1.37
4568.00,1.37
4567.00,1.37
4566.00,1.37
4565.00,1.37
4564.00,1.37
4563.00,1.37
4562.00,1.37
4561.00,1.37
4560.00,1.37
4559.00,1.37
4558.00,1.37
4557.00,1.37
4556.00,1.37
4555.00,1.37
4554.00,1.38
4553.00,1.38
4552.00,1.38
4551.00,1.38
4550.00,1.38
4549.00,1.38
4548.00,1.38
4547.00,1.38
4546.00,1.38
4545.00,1.38
4544.00,1.39
4543.00,1.39
4542.00,1.39
4541.00,1.39
4540.00,1.39
4539.00,1.39
4538.00,1.39
4537.00,1.39
4536.00,1.39
4535.00,1.39
4534.00,1.39
4533.00,1.39
4532.00,1.39
4531.00,1.39
4530.00,1.39
4529.00,1.39
4528.00,1.39
4527.00,1.39
4526.00,1.38
4525.00,1.38
4524.00,1.38
4523.00,1.38
4522.00,1.38
4521.00,1.38
4520.00,1.38
4519.00,1.38
4518.00,1.38
4517.00,1.38
4516.00,1.38
4515.00,1.38
4514.00,1.39
4513.00,1.39
4512.00,1.39
4511.00,1.39
4510.00,1.39
4509.00,1.39
4508.00,1.39
4507.00,1.39
4506.00,1.39
4505.00,1.39
4504.00,1.39
4503.00,1.39
4502.00,1.39
4501.00,1.39
4500.00,1.39
4499.00,1.39
4498.00,1.39
4497.00,1.39
4496.00,1.40
4495.00,1.40
4494.00,1.40
4493.00,1.40
4492.00,1.40
4491.00,1.39
4490.00,1.39
4489.00,1.39
4488.00,1.39
4487.00,1.39
4486.00,1.39
4485.00,1.39
4484.00,1.39
4483.00,1.39
4482.00,1.39
4481.00,1.39
4480.00,1.39
4479.00,1.38
4478.00,1.38
4477.00,1.38
4476.00,1.38
4475.00,1.38
4474.00,1.38
4473.00,1.38
4472.00,1.38
4471.00,1.38
4470.00,1.38
4469.00,1.38
4468.00,1.38
4467.00,1.38
4466.00,1.37
4465.00,1.37
4464.00,1.37
4463.00,1.37
4462.00,1.37
4461.00,1.37
4460.00,1.37
4459.00,1.37
4458.00,1.37
4457.00,1.37
4456.00,1.37
4455.00,1.37
4454.00,1.37
4453.00,1.36
4452.00,1.36
4451.00,1.36
4450.00,1.36
4449.00,1.36
4448.00,1.36
4447.00,1.35
4446.00,1.35
4445.00,1.35
4444.00,1.35
4443.00,1.35
4442.00,1.35
4441.00,1.35
4440.00,1.34
4439.00,1.34
4438.00,1.34
4437.00,1.34
4436.00,1.34
4435.00,1.34
4434.00,1.34
4433.00,1.34
4432.00,1.34
4431.00,1.34
4430.00,1.34
4429.00,1.34
4428.00,1.34
4427.00,1.34
4426.00,1.34
4425.00,1.34
4424.00,1.34
4423.00,1.34
4422.00,1.34
4421.00,1.34
4420.00,1.34
4419.00,1.34
4418.00,1.34
4417.00,1.35
4416.00,1.35
4415.00,1.35
4414.00,1.35
4413.00,1.35
4412.00,1.35
4411.00,1.35
4410.00,1.35
4409.00,1.35
4408.00,1.35
4407.00,1.36
4406.00,1.36
4405.00,1.36
4404.00,1.36
4403.00,1.36
4402.00,1.36
4401.00,1.36
4400.00,1.36
4399.00,1.36
4398.00,1.36
4397.00,1.36
4396.00,1.36
4395.00,1.36
4394.00,1.36
4393.00,1.36
4392.00,1.36
4391.00,1.36
4390.00,1.36
4389.00,1.36
4388.00,1.36
4387.00,1.36
4386.00,1.36
4385.00,1.36
4384.00,1.36
4383.00,1.36
4382.00,1.36
4381.00,1.36
4380.00,1.36
4379.00,1.36
4378.00,1.36
4377.00,1.36
4376.00,1.36
4375.00,1.36
4374.00,1.36
4373.00,1.36
4372.00,1.36
4371.00,1.36
4370.00,1.36
4369.00,1.37
4368.00,1.37
4367.00,1.37
4366.00,1.37
4365.00,1.37
4364.00,1.37
4363.00,1.37
4362.00,1.37
4361.00,1.37
4360.00,1.37
4359.00,1.37
4358.00,1.37
4357.00,1.37
4356.00,1.37
4355.00,1.38
4354.00,1.38
4353.00,1.38
4352.00,1.38
4351.00,1.38
4350.00,1.38
4349.00,1.38
4348.00,1.38
4347.00,1.38
4346.00,1.38
4345.00,1.38
4344.00,1.37
4343.00,1.37
4342.00,1.37
4341.00,1.37
4340.00,1.37
4339.00,1.37
4338.00,1.37
4337.00,1.37
4336.00,1.38
4335.00,1.38
4334.00,1.38
4333.00,1.38
4332.00,1.38
4331.00,1.38
4330.00,1.38
4329.00,1.38
4328.00,1.38
4327.00,1.38
4326.00,1.39
4325.00,1.39
4324.00,1.39
4323.00,1.39
4322.00,1.39
4321.00,1.39
4320.00,1.39
4319.00,1.39
4318.00,1.39
4317.00,1.39
4316.00,1.39
4315.00,1.39
4314.00,1.40
4313.00,1.40
4312.00,1.40
4311.00,1.40
4310.00,1.40
4309.00,1.40
4308.00,1.40
4307.00,1.40
4306.00,1.40
4305.00,1.41
4304.00,1.41
4303.00,1.41
4302.00,1.41
4301.00,1.41
4300.00,1.41
4299.00,1.41
4298.00,1.41
4297.00,1.41
4296.00,1.41
4295.00,1.41
4294.00,1.41
4293.00,1.41
4292.00,1.42
4291.00,1.42
4290.00,1.42
4289.00,1.42
4288.00,1.42
4287.00,1.42
4286.00,1.42
4285.00,1.42
4284.00,1.42
4283.00,1.42
4282.00,1.42
4281.00,1.42
4280.00,1.42
4279.00,1.42
4278.00,1.42
4277.00,1.42
4276.00,1.42
4275.00,1.42
4274.00,1.42
4273.00,1.42
4272.00,1.42
4271.00,1.42
4270.00,1.42
4269.00,1.42
4268.00,1.42
4267.00,1.42
4266.00,1.42
4265.00,1.42
4264.00,1.42
4263.00,1.42
4262.00,1.42
4261.00,1.42
4260.00,1.42
4259.00,1.42
4258.00,1.42
4257.00,1.42
4256.00,1.42
4255.00,1.42
4254.00,1.42
4253.00,1.42
4252.00,1.42
4251.00,1.42
4250.00,1.43
4249.00,1.43
4248.00,1.43
4247.00,1.43
4246.00,1.43
4245.00,1.43
4244.00,1.43
4243.00,1.43
4242.00,1.44
4241.00,1.44
4240.00,1.44
4239.00,1.44
4238.00,1.44
4237.00,1.44
4236.00,1.44
4235.00,1.44
4234.00,1.44
4233.00,1.44
4232.00,1.44
4231.00,1.44
4230.00,1.44
4229.00,1.44
4228.00,1.44
4227.00,1.44
4226.00,1.44
4225.00,1.44
4224.00,1.45
4223.00,1.45
4222.00,1.45
4221.00,1.45
4220.00,1.45
4219.00,1.45
4218.00,1.45
4217.00,1.45
4216.00,1.45
4215.00,1.45
4214.00,1.45
4213.00,1.45
4212.00,1.45
4211.00,1.45
4210.00,1.45
4209.00,1.45
4208.00,1.45
4207.00,1.45
4206.00,1.45
4205.00,1.45
4204.00,1.45
4203.00,1.45
4202.00,1.45
4201.00,1.45
4200.00,1.45
4199.00,1.45
4198.00,1.45
4197.00,1.45
4196.00,1.45
4195.00,1.45
4194.00,1.45
4193.00,1.45
4192.00,1.45
4191.00,1.45
4190.00,1.45
4189.00,1.45
4188.00,1.45
4187.00,1.45
4186.00,1.46
4185.00,1.46
4184.00,1.46
4183.00,1.46
4182.00,1.46
4181.00,1.46
4180.00,1.46
4179.00,1.47
4178.00,1.47
4177.00,1.47
4176.00,1.47
4175.00,1.47
4174.00,1.47
4173.00,1.48
4172.00,1.48
4171.00,1.48
4170.00,1.48
4169.00,1.48
4168.00,1.48
4167.00,1.48
4166.00,1.48
4165.00,1.48
4164.00,1.48
4163.00,1.48
4162.00,1.48
4161.00,1.48
4160.00,1.48
4159.00,1.48
4158.00,1.48
4157.00,1.48
4156.00,1.48
4155.00,1.48
4154.00,1.48
4153.00,1.48
4152.00,1.48
4151.00,1.48
4150.00,1.48
4149.00,1.48
4148.00,1.48
4147.00,1.49
4146.00,1.49
4145.00,1.49
4144.00,1.49
4143.00,1.49
4142.00,1.49
4141.00,1.49
4140.00,1.49
4139.00,1.49
4138.00,1.49
4137.00,1.49
4136.00,1.48
4135.00,1.48
4134.00,1.48
4133.00,1.48
4132.00,1.48
4131.00,1.48
4130.00,1.48
4129.00,1.48
4128.00,1.48
4127.00,1.49
4126.00,1.49
4125.00,1.49
4124.00,1.49
4123.00,1.49
4122.00,1.49
4121.00,1.49
4120.00,1.49
4119.00,1.50
4118.00,1.50
4117.00,1.50
4116.00,1.50
4115.00,1.50
4114.00,1.50
4113.00,1.50
4112.00,1.50
4111.00,1.51
4110.00,1.51
4109.00,1.51
4108.00,1.51
4107.00,1.51
4106.00,1.51
4105.00,1.51
4104.00,1.51
4103.00,1.51
4102.00,1.51
4101.00,1.51
4100.00,1.51
4099.00,1.51
4098.00,1.51
4097.00,1.51
4096.00,1.51
4095.00,1.51
4094.00,1.51
4093.00,1.51
4092.00,1.51
4091.00,1.51
4090.00,1.51
4089.00,1.51
4088.00,1.51
4087.00,1.51
4086.00,1.51
4085.00,1.51
4084.00,1.51
4083.00,1.51
4082.00,1.51
4081.00,1.50
4080.00,1.50
4079.00,1.50
4078.00,1.50
4077.00,1.50
4076.00,1.50
4075.00,1.50
4074.00,1.50
4073.00,1.50
4072.00,1.50
4071.00,1.50
4070.00,1.50
4069.00,1.50
4068.00,1.50
4067.00,1.50
4066.00,1.50
4065.00,1.51
4064.00,1.51
4063.00,1.51
4062.00,1.51
4061.00,1.52
4060.00,1.52
4059.00,1.52
4058.00,1.52
4057.00,1.53
4056.00,1.53
4055.00,1.53
4054.00,1.53
4053.00,1.53
4052.00,1.53
4051.00,1.53
4050.00,1.53
4049.00,1.53
4048.00,1.53
4047.00,1.53
4046.00,1.53
4045.00,1.53
4044.00,1.52
4043.00,1.52
4042.00,1.52
4041.00,1.52
4040.00,1.52
4039.00,1.52
4038.00,1.52
4037.00,1.52
4036.00,1.52
4035.00,1.52
4034.00,1.52
4033.00,1.52
4032.00,1.52
4031.00,1.52
4030.00,1.52
4029.00,1.52
4028.00,1.53
4027.00,1.53
4026.00,1.53
4025.00,1.53
4024.00,1.53
4023.00,1.54
4022.00,1.54
4021.00,1.54
4020.00,1.54
4019.00,1.54
4018.00,1.55
4017.00,1.55
4016.00,1.55
4015.00,1.55
4014.00,1.55
4013.00,1.55
4012.00,1.56
4011.00,1.56
4010.00,1.56
4009.00,1.56
4008.00,1.56
4007.00,1.56
4006.00,1.56
4005.00,1.56
4004.00,1.56
4003.00,1.56
4002.00,1.55
4001.00,1.55
4000.00,1.55
