创建为新数据集,样品 113 用户 Administrator 日期 星期六, 七月 21 2018
cm-1,%T
10000.00,1.78
9999.00,1.77
9998.00,1.77
9997.00,1.77
9996.00,1.76
9995.00,1.76
9994.00,1.76
9993.00,1.75
9992.00,1.75
9991.00,1.74
9990.00,1.74
9989.00,1.73
9988.00,1.73
9987.00,1.73
9986.00,1.72
9985.00,1.72
9984.00,1.72
9983.00,1.72
9982.00,1.72
9981.00,1.72
9980.00,1.72
9979.00,1.72
9978.00,1.72
9977.00,1.72
9976.00,1.73
9975.00,1.73
9974.00,1.73
9973.00,1.73
9972.00,1.74
9971.00,1.74
9970.00,1.74
9969.00,1.74
9968.00,1.74
9967.00,1.74
9966.00,1.74
9965.00,1.74
9964.00,1.74
9963.00,1.74
9962.00,1.74
9961.00,1.74
9960.00,1.74
9959.00,1.74
9958.00,1.73
9957.00,1.73
9956.00,1.73
9955.00,1.73
9954.00,1.73
9953.00,1.73
9952.00,1.73
9951.00,1.73
9950.00,1.73
9949.00,1.73
9948.00,1.73
9947.00,1.73
9946.00,1.73
9945.00,1.73
9944.00,1.73
9943.00,1.74
9942.00,1.74
9941.00,1.74
9940.00,1.74
9939.00,1.74
9938.00,1.74
9937.00,1.74
9936.00,1.74
9935.00,1.74
9934.00,1.74
9933.00,1.74
9932.00,1.74
9931.00,1.74
9930.00,1.74
9929.00,1.74
9928.00,1.73
9927.00,1.73
9926.00,1.73
9925.00,1.72
9924.00,1.72
9923.00,1.72
9922.00,1.71
9921.00,1.71
9920.00,1.71
9919.00,1.71
9918.00,1.71
9917.00,1.71
9916.00,1.70
9915.00,1.70
9914.00,1.71
9913.00,1.71
9912.00,1.71
9911.00,1.71
9910.00,1.71
9909.00,1.71
9908.00,1.71
9907.00,1.71
9906.00,1.71
9905.00,1.71
9904.00,1.71
9903.00,1.71
9902.00,1.71
9901.00,1.71
9900.00,1.71
9899.00,1.71
9898.00,1.71
9897.00,1.71
9896.00,1.71
9895.00,1.71
9894.00,1.70
9893.00,1.70
9892.00,1.70
9891.00,1.70
9890.00,1.70
9889.00,1.70
9888.00,1.69
9887.00,1.69
9886.00,1.69
9885.00,1.69
9884.00,1.69
9883.00,1.69
9882.00,1.69
9881.00,1.69
9880.00,1.69
9879.00,1.69
9878.00,1.69
9877.00,1.69
9876.00,1.69
9875.00,1.69
9874.00,1.69
9873.00,1.69
9872.00,1.70
9871.00,1.70
9870.00,1.70
9869.00,1.70
9868.00,1.70
9867.00,1.70
9866.00,1.70
9865.00,1.70
9864.00,1.70
9863.00,1.70
9862.00,1.70
9861.00,1.70
9860.00,1.70
9859.00,1.70
9858.00,1.70
9857.00,1.70
9856.00,1.69
9855.00,1.69
9854.00,1.69
9853.00,1.68
9852.00,1.68
9851.00,1.68
9850.00,1.67
9849.00,1.67
9848.00,1.67
9847.00,1.66
9846.00,1.66
9845.00,1.66
9844.00,1.66
9843.00,1.66
9842.00,1.67
9841.00,1.67
9840.00,1.67
9839.00,1.68
9838.00,1.68
9837.00,1.69
9836.00,1.69
9835.00,1.70
9834.00,1.70
9833.00,1.71
9832.00,1.71
9831.00,1.72
9830.00,1.72
9829.00,1.72
9828.00,1.73
9827.00,1.73
9826.00,1.73
9825.00,1.73
9824.00,1.73
9823.00,1.73
9822.00,1.73
9821.00,1.73
9820.00,1.73
9819.00,1.72
9818.00,1.72
9817.00,1.72
9816.00,1.72
9815.00,1.71
9814.00,1.71
9813.00,1.71
9812.00,1.71
9811.00,1.71
9810.00,1.71
9809.00,1.71
9808.00,1.71
9807.00,1.71
9806.00,1.71
9805.00,1.71
9804.00,1.71
9803.00,1.71
9802.00,1.71
9801.00,1.71
9800.00,1.71
9799.00,1.71
9798.00,1.71
9797.00,1.72
9796.00,1.72
9795.00,1.72
9794.00,1.72
9793.00,1.72
9792.00,1.72
9791.00,1.72
9790.00,1.72
9789.00,1.71
9788.00,1.71
9787.00,1.71
9786.00,1.71
9785.00,1.71
9784.00,1.71
9783.00,1.71
9782.00,1.71
9781.00,1.70
9780.00,1.70
9779.00,1.70
9778.00,1.70
9777.00,1.70
9776.00,1.70
9775.00,1.70
9774.00,1.70
9773.00,1.70
9772.00,1.70
9771.00,1.70
9770.00,1.70
9769.00,1.70
9768.00,1.70
9767.00,1.71
9766.00,1.71
9765.00,1.71
9764.00,1.71
9763.00,1.71
9762.00,1.72
9761.00,1.72
9760.00,1.72
9759.00,1.72
9758.00,1.72
9757.00,1.73
9756.00,1.73
9755.00,1.73
9754.00,1.73
9753.00,1.73
9752.00,1.73
9751.00,1.73
9750.00,1.72
9749.00,1.72
9748.00,1.72
9747.00,1.72
9746.00,1.72
9745.00,1.72
9744.00,1.72
9743.00,1.71
9742.00,1.71
9741.00,1.71
9740.00,1.71
9739.00,1.71
9738.00,1.71
9737.00,1.71
9736.00,1.71
9735.00,1.71
9734.00,1.71
9733.00,1.71
9732.00,1.71
9731.00,1.71
9730.00,1.72
9729.00,1.72
9728.00,1.72
9727.00,1.72
9726.00,1.72
9725.00,1.72
9724.00,1.72
9723.00,1.72
9722.00,1.72
9721.00,1.72
9720.00,1.73
9719.00,1.73
9718.00,1.73
9717.00,1.73
9716.00,1.73
9715.00,1.73
9714.00,1.73
9713.00,1.73
9712.00,1.73
9711.00,1.73
9710.00,1.73
9709.00,1.73
9708.00,1.73
9707.00,1.73
9706.00,1.73
9705.00,1.74
9704.00,1.74
9703.00,1.74
9702.00,1.74
9701.00,1.74
9700.00,1.74
9699.00,1.74
9698.00,1.74
9697.00,1.74
9696.00,1.74
9695.00,1.74
9694.00,1.74
9693.00,1.74
9692.00,1.74
9691.00,1.74
9690.00,1.74
9689.00,1.74
9688.00,1.74
9687.00,1.74
9686.00,1.73
9685.00,1.73
9684.00,1.73
9683.00,1.73
9682.00,1.73
9681.00,1.73
9680.00,1.72
9679.00,1.72
9678.00,1.72
9677.00,1.72
9676.00,1.72
9675.00,1.71
9674.00,1.71
9673.00,1.71
9672.00,1.71
9671.00,1.71
9670.00,1.70
9669.00,1.70
9668.00,1.70
9667.00,1.70
9666.00,1.70
9665.00,1.70
9664.00,1.70
9663.00,1.69
9662.00,1.69
9661.00,1.69
9660.00,1.70
9659.00,1.70
9658.00,1.70
9657.00,1.70
9656.00,1.70
9655.00,1.70
9654.00,1.70
9653.00,1.70
9652.00,1.70
9651.00,1.70
9650.00,1.70
9649.00,1.70
9648.00,1.71
9647.00,1.71
9646.00,1.71
9645.00,1.71
9644.00,1.71
9643.00,1.71
9642.00,1.71
9641.00,1.71
9640.00,1.71
9639.00,1.71
9638.00,1.71
9637.00,1.71
9636.00,1.71
9635.00,1.71
9634.00,1.71
9633.00,1.71
9632.00,1.71
9631.00,1.70
9630.00,1.70
9629.00,1.70
9628.00,1.70
9627.00,1.70
9626.00,1.70
9625.00,1.70
9624.00,1.71
9623.00,1.71
9622.00,1.71
9621.00,1.71
9620.00,1.71
9619.00,1.71
9618.00,1.71
9617.00,1.71
9616.00,1.71
9615.00,1.71
9614.00,1.71
9613.00,1.71
9612.00,1.71
9611.00,1.71
9610.00,1.71
9609.00,1.71
9608.00,1.71
9607.00,1.71
9606.00,1.70
9605.00,1.70
9604.00,1.70
9603.00,1.70
9602.00,1.70
9601.00,1.70
9600.00,1.70
9599.00,1.70
9598.00,1.70
9597.00,1.70
9596.00,1.70
9595.00,1.70
9594.00,1.70
9593.00,1.70
9592.00,1.70
9591.00,1.70
9590.00,1.70
9589.00,1.70
9588.00,1.70
9587.00,1.70
9586.00,1.70
9585.00,1.70
9584.00,1.70
9583.00,1.71
9582.00,1.71
9581.00,1.71
9580.00,1.71
9579.00,1.71
9578.00,1.72
9577.00,1.72
9576.00,1.72
9575.00,1.72
9574.00,1.72
9573.00,1.72
9572.00,1.73
9571.00,1.73
9570.00,1.73
9569.00,1.73
9568.00,1.73
9567.00,1.73
9566.00,1.73
9565.00,1.73
9564.00,1.73
9563.00,1.72
9562.00,1.72
9561.00,1.72
9560.00,1.72
9559.00,1.72
9558.00,1.72
9557.00,1.72
9556.00,1.72
9555.00,1.72
9554.00,1.72
9553.00,1.72
9552.00,1.72
9551.00,1.72
9550.00,1.72
9549.00,1.72
9548.00,1.72
9547.00,1.72
9546.00,1.71
9545.00,1.71
9544.00,1.71
9543.00,1.70
9542.00,1.70
9541.00,1.70
9540.00,1.69
9539.00,1.69
9538.00,1.69
9537.00,1.68
9536.00,1.68
9535.00,1.68
9534.00,1.68
9533.00,1.67
9532.00,1.67
9531.00,1.67
9530.00,1.68
9529.00,1.68
9528.00,1.68
9527.00,1.68
9526.00,1.69
9525.00,1.69
9524.00,1.69
9523.00,1.70
9522.00,1.70
9521.00,1.71
9520.00,1.71
9519.00,1.71
9518.00,1.72
9517.00,1.72
9516.00,1.73
9515.00,1.73
9514.00,1.73
9513.00,1.74
9512.00,1.74
9511.00,1.74
9510.00,1.74
9509.00,1.74
9508.00,1.74
9507.00,1.74
9506.00,1.74
9505.00,1.73
9504.00,1.73
9503.00,1.73
9502.00,1.73
9501.00,1.72
9500.00,1.72
9499.00,1.72
9498.00,1.72
9497.00,1.71
9496.00,1.71
9495.00,1.71
9494.00,1.71
9493.00,1.71
9492.00,1.71
9491.00,1.70
9490.00,1.70
9489.00,1.70
9488.00,1.70
9487.00,1.70
9486.00,1.70
9485.00,1.70
9484.00,1.70
9483.00,1.70
9482.00,1.70
9481.00,1.70
9480.00,1.70
9479.00,1.70
9478.00,1.70
9477.00,1.70
9476.00,1.70
9475.00,1.70
9474.00,1.70
9473.00,1.70
9472.00,1.70
9471.00,1.70
9470.00,1.70
9469.00,1.70
9468.00,1.71
9467.00,1.71
9466.00,1.71
9465.00,1.71
9464.00,1.71
9463.00,1.71
9462.00,1.71
9461.00,1.72
9460.00,1.72
9459.00,1.72
9458.00,1.72
9457.00,1.72
9456.00,1.72
9455.00,1.72
9454.00,1.72
9453.00,1.72
9452.00,1.72
9451.00,1.72
9450.00,1.72
9449.00,1.72
9448.00,1.72
9447.00,1.72
9446.00,1.72
9445.00,1.72
9444.00,1.72
9443.00,1.72
9442.00,1.72
9441.00,1.72
9440.00,1.72
9439.00,1.72
9438.00,1.72
9437.00,1.73
9436.00,1.73
9435.00,1.73
9434.00,1.73
9433.00,1.73
9432.00,1.73
9431.00,1.73
9430.00,1.73
9429.00,1.74
9428.00,1.74
9427.00,1.74
9426.00,1.74
9425.00,1.74
9424.00,1.74
9423.00,1.73
9422.00,1.73
9421.00,1.73
9420.00,1.73
9419.00,1.73
9418.00,1.73
9417.00,1.73
9416.00,1.72
9415.00,1.72
9414.00,1.72
9413.00,1.72
9412.00,1.72
9411.00,1.72
9410.00,1.72
9409.00,1.72
9408.00,1.71
9407.00,1.71
9406.00,1.71
9405.00,1.71
9404.00,1.71
9403.00,1.71
9402.00,1.71
9401.00,1.71
9400.00,1.71
9399.00,1.71
9398.00,1.72
9397.00,1.72
9396.00,1.72
9395.00,1.72
9394.00,1.72
9393.00,1.72
9392.00,1.72
9391.00,1.72
9390.00,1.72
9389.00,1.72
9388.00,1.72
9387.00,1.72
9386.00,1.72
9385.00,1.72
9384.00,1.72
9383.00,1.72
9382.00,1.71
9381.00,1.71
9380.00,1.71
9379.00,1.71
9378.00,1.71
9377.00,1.71
9376.00,1.71
9375.00,1.71
9374.00,1.71
9373.00,1.71
9372.00,1.71
9371.00,1.71
9370.00,1.71
9369.00,1.71
9368.00,1.71
9367.00,1.71
9366.00,1.71
9365.00,1.71
9364.00,1.71
9363.00,1.71
9362.00,1.71
9361.00,1.71
9360.00,1.70
9359.00,1.70
9358.00,1.70
9357.00,1.70
9356.00,1.70
9355.00,1.70
9354.00,1.70
9353.00,1.70
9352.00,1.70
9351.00,1.69
9350.00,1.69
9349.00,1.69
9348.00,1.69
9347.00,1.69
9346.00,1.69
9345.00,1.69
9344.00,1.69
9343.00,1.69
9342.00,1.69
9341.00,1.69
9340.00,1.70
9339.00,1.70
9338.00,1.70
9337.00,1.70
9336.00,1.70
9335.00,1.70
9334.00,1.70
9333.00,1.71
9332.00,1.71
9331.00,1.71
9330.00,1.71
9329.00,1.71
9328.00,1.71
9327.00,1.71
9326.00,1.72
9325.00,1.72
9324.00,1.72
9323.00,1.72
9322.00,1.72
9321.00,1.72
9320.00,1.72
9319.00,1.72
9318.00,1.72
9317.00,1.72
9316.00,1.72
9315.00,1.72
9314.00,1.72
9313.00,1.72
9312.00,1.72
9311.00,1.72
9310.00,1.72
9309.00,1.72
9308.00,1.72
9307.00,1.72
9306.00,1.72
9305.00,1.72
9304.00,1.72
9303.00,1.72
9302.00,1.72
9301.00,1.72
9300.00,1.72
9299.00,1.72
9298.00,1.72
9297.00,1.72
9296.00,1.72
9295.00,1.72
9294.00,1.72
9293.00,1.72
9292.00,1.72
9291.00,1.72
9290.00,1.72
9289.00,1.72
9288.00,1.72
9287.00,1.72
9286.00,1.72
9285.00,1.72
9284.00,1.73
9283.00,1.73
9282.00,1.73
9281.00,1.73
9280.00,1.73
9279.00,1.73
9278.00,1.73
9277.00,1.73
9276.00,1.74
9275.00,1.74
9274.00,1.74
9273.00,1.74
9272.00,1.74
9271.00,1.74
9270.00,1.74
9269.00,1.74
9268.00,1.74
9267.00,1.74
9266.00,1.74
9265.00,1.74
9264.00,1.74
9263.00,1.74
9262.00,1.73
9261.00,1.73
9260.00,1.73
9259.00,1.73
9258.00,1.73
9257.00,1.72
9256.00,1.72
9255.00,1.72
9254.00,1.72
9253.00,1.72
9252.00,1.71
9251.00,1.71
9250.00,1.71
9249.00,1.71
9248.00,1.71
9247.00,1.71
9246.00,1.70
9245.00,1.70
9244.00,1.70
9243.00,1.70
9242.00,1.70
9241.00,1.70
9240.00,1.70
9239.00,1.70
9238.00,1.70
9237.00,1.70
9236.00,1.70
9235.00,1.70
9234.00,1.70
9233.00,1.70
9232.00,1.70
9231.00,1.70
9230.00,1.70
9229.00,1.70
9228.00,1.70
9227.00,1.70
9226.00,1.70
9225.00,1.70
9224.00,1.70
9223.00,1.71
9222.00,1.71
9221.00,1.71
9220.00,1.71
9219.00,1.71
9218.00,1.71
9217.00,1.71
9216.00,1.71
9215.00,1.71
9214.00,1.71
9213.00,1.71
9212.00,1.72
9211.00,1.72
9210.00,1.72
9209.00,1.72
9208.00,1.72
9207.00,1.72
9206.00,1.72
9205.00,1.72
9204.00,1.72
9203.00,1.72
9202.00,1.72
9201.00,1.72
9200.00,1.72
9199.00,1.72
9198.00,1.72
9197.00,1.71
9196.00,1.71
9195.00,1.71
9194.00,1.71
9193.00,1.71
9192.00,1.71
9191.00,1.71
9190.00,1.71
9189.00,1.71
9188.00,1.70
9187.00,1.70
9186.00,1.71
9185.00,1.71
9184.00,1.71
9183.00,1.71
9182.00,1.71
9181.00,1.71
9180.00,1.71
9179.00,1.71
9178.00,1.71
9177.00,1.71
9176.00,1.71
9175.00,1.71
9174.00,1.71
9173.00,1.71
9172.00,1.71
9171.00,1.71
9170.00,1.71
9169.00,1.71
9168.00,1.71
9167.00,1.71
9166.00,1.71
9165.00,1.70
9164.00,1.70
9163.00,1.70
9162.00,1.70
9161.00,1.70
9160.00,1.70
9159.00,1.70
9158.00,1.70
9157.00,1.70
9156.00,1.70
9155.00,1.70
9154.00,1.70
9153.00,1.70
9152.00,1.70
9151.00,1.70
9150.00,1.70
9149.00,1.70
9148.00,1.70
9147.00,1.70
9146.00,1.70
9145.00,1.70
9144.00,1.70
9143.00,1.70
9142.00,1.70
9141.00,1.70
9140.00,1.70
9139.00,1.71
9138.00,1.71
9137.00,1.71
9136.00,1.71
9135.00,1.71
9134.00,1.72
9133.00,1.72
9132.00,1.72
9131.00,1.72
9130.00,1.72
9129.00,1.72
9128.00,1.72
9127.00,1.72
9126.00,1.72
9125.00,1.72
9124.00,1.72
9123.00,1.72
9122.00,1.72
9121.00,1.72
9120.00,1.71
9119.00,1.71
9118.00,1.71
9117.00,1.71
9116.00,1.71
9115.00,1.71
9114.00,1.71
9113.00,1.71
9112.00,1.71
9111.00,1.71
9110.00,1.71
9109.00,1.71
9108.00,1.71
9107.00,1.71
9106.00,1.72
9105.00,1.72
9104.00,1.72
9103.00,1.73
9102.00,1.73
9101.00,1.73
9100.00,1.74
9099.00,1.74
9098.00,1.74
9097.00,1.74
9096.00,1.74
9095.00,1.74
9094.00,1.74
9093.00,1.74
9092.00,1.74
9091.00,1.74
9090.00,1.74
9089.00,1.74
9088.00,1.74
9087.00,1.74
9086.00,1.74
9085.00,1.74
9084.00,1.74
9083.00,1.74
9082.00,1.74
9081.00,1.74
9080.00,1.74
9079.00,1.74
9078.00,1.74
9077.00,1.74
9076.00,1.74
9075.00,1.74
9074.00,1.74
9073.00,1.73
9072.00,1.73
9071.00,1.73
9070.00,1.73
9069.00,1.73
9068.00,1.73
9067.00,1.73
9066.00,1.73
9065.00,1.72
9064.00,1.72
9063.00,1.72
9062.00,1.72
9061.00,1.72
9060.00,1.72
9059.00,1.72
9058.00,1.72
9057.00,1.72
9056.00,1.72
9055.00,1.72
9054.00,1.72
9053.00,1.72
9052.00,1.72
9051.00,1.72
9050.00,1.72
9049.00,1.72
9048.00,1.72
9047.00,1.72
9046.00,1.72
9045.00,1.72
9044.00,1.72
9043.00,1.72
9042.00,1.72
9041.00,1.72
9040.00,1.73
9039.00,1.73
9038.00,1.73
9037.00,1.73
9036.00,1.73
9035.00,1.73
9034.00,1.73
9033.00,1.73
9032.00,1.73
9031.00,1.73
9030.00,1.73
9029.00,1.73
9028.00,1.73
9027.00,1.73
9026.00,1.73
9025.00,1.73
9024.00,1.73
9023.00,1.73
9022.00,1.73
9021.00,1.73
9020.00,1.73
9019.00,1.73
9018.00,1.73
9017.00,1.73
9016.00,1.73
9015.00,1.73
9014.00,1.73
9013.00,1.73
9012.00,1.73
9011.00,1.73
9010.00,1.73
9009.00,1.73
9008.00,1.72
9007.00,1.72
9006.00,1.72
9005.00,1.72
9004.00,1.72
9003.00,1.72
9002.00,1.71
9001.00,1.71
9000.00,1.71
8999.00,1.71
8998.00,1.71
8997.00,1.71
8996.00,1.71
8995.00,1.71
8994.00,1.70
8993.00,1.70
8992.00,1.70
8991.00,1.70
8990.00,1.70
8989.00,1.70
8988.00,1.70
8987.00,1.70
8986.00,1.71
8985.00,1.71
8984.00,1.71
8983.00,1.71
8982.00,1.71
8981.00,1.71
8980.00,1.71
8979.00,1.71
8978.00,1.71
8977.00,1.71
8976.00,1.72
8975.00,1.72
8974.00,1.72
8973.00,1.72
8972.00,1.72
8971.00,1.72
8970.00,1.72
8969.00,1.72
8968.00,1.73
8967.00,1.73
8966.00,1.73
8965.00,1.73
8964.00,1.73
8963.00,1.73
8962.00,1.73
8961.00,1.73
8960.00,1.73
8959.00,1.73
8958.00,1.73
8957.00,1.72
8956.00,1.72
8955.00,1.72
8954.00,1.72
8953.00,1.72
8952.00,1.72
8951.00,1.72
8950.00,1.72
8949.00,1.72
8948.00,1.72
8947.00,1.72
8946.00,1.72
8945.00,1.72
8944.00,1.72
8943.00,1.72
8942.00,1.72
8941.00,1.72
8940.00,1.72
8939.00,1.72
8938.00,1.72
8937.00,1.72
8936.00,1.72
8935.00,1.72
8934.00,1.72
8933.00,1.72
8932.00,1.72
8931.00,1.72
8930.00,1.72
8929.00,1.72
8928.00,1.71
8927.00,1.71
8926.00,1.71
8925.00,1.71
8924.00,1.71
8923.00,1.71
8922.00,1.71
8921.00,1.71
8920.00,1.71
8919.00,1.71
8918.00,1.71
8917.00,1.71
8916.00,1.71
8915.00,1.71
8914.00,1.71
8913.00,1.71
8912.00,1.71
8911.00,1.71
8910.00,1.72
8909.00,1.72
8908.00,1.72
8907.00,1.72
8906.00,1.72
8905.00,1.72
8904.00,1.72
8903.00,1.72
8902.00,1.72
8901.00,1.72
8900.00,1.73
8899.00,1.73
8898.00,1.73
8897.00,1.73
8896.00,1.73
8895.00,1.73
8894.00,1.73
8893.00,1.73
8892.00,1.73
8891.00,1.73
8890.00,1.73
8889.00,1.73
8888.00,1.73
8887.00,1.73
8886.00,1.73
8885.00,1.73
8884.00,1.73
8883.00,1.73
8882.00,1.73
8881.00,1.73
8880.00,1.73
8879.00,1.73
8878.00,1.73
8877.00,1.73
8876.00,1.72
8875.00,1.72
8874.00,1.72
8873.00,1.71
8872.00,1.71
8871.00,1.71
8870.00,1.71
8869.00,1.70
8868.00,1.70
8867.00,1.70
8866.00,1.70
8865.00,1.69
8864.00,1.69
8863.00,1.69
8862.00,1.69
8861.00,1.69
8860.00,1.69
8859.00,1.69
8858.00,1.70
8857.00,1.70
8856.00,1.70
8855.00,1.70
8854.00,1.70
8853.00,1.71
8852.00,1.71
8851.00,1.71
8850.00,1.71
8849.00,1.72
8848.00,1.72
8847.00,1.72
8846.00,1.72
8845.00,1.72
8844.00,1.72
8843.00,1.72
8842.00,1.72
8841.00,1.72
8840.00,1.72
8839.00,1.72
8838.00,1.72
8837.00,1.72
8836.00,1.72
8835.00,1.72
8834.00,1.72
8833.00,1.72
8832.00,1.72
8831.00,1.72
8830.00,1.72
8829.00,1.72
8828.00,1.71
8827.00,1.71
8826.00,1.71
8825.00,1.71
8824.00,1.71
8823.00,1.71
8822.00,1.71
8821.00,1.71
8820.00,1.70
8819.00,1.70
8818.00,1.70
8817.00,1.70
8816.00,1.70
8815.00,1.70
8814.00,1.69
8813.00,1.69
8812.00,1.69
8811.00,1.69
8810.00,1.69
8809.00,1.69
8808.00,1.69
8807.00,1.69
8806.00,1.69
8805.00,1.69
8804.00,1.69
8803.00,1.69
8802.00,1.69
8801.00,1.69
8800.00,1.69
8799.00,1.69
8798.00,1.69
8797.00,1.69
8796.00,1.69
8795.00,1.69
8794.00,1.69
8793.00,1.69
8792.00,1.69
8791.00,1.69
8790.00,1.69
8789.00,1.69
8788.00,1.69
8787.00,1.69
8786.00,1.69
8785.00,1.69
8784.00,1.69
8783.00,1.69
8782.00,1.69
8781.00,1.69
8780.00,1.69
8779.00,1.69
8778.00,1.69
8777.00,1.69
8776.00,1.69
8775.00,1.69
8774.00,1.69
8773.00,1.69
8772.00,1.69
8771.00,1.69
8770.00,1.68
8769.00,1.68
8768.00,1.68
8767.00,1.68
8766.00,1.68
8765.00,1.67
8764.00,1.67
8763.00,1.67
8762.00,1.67
8761.00,1.67
8760.00,1.66
8759.00,1.66
8758.00,1.66
8757.00,1.66
8756.00,1.66
8755.00,1.66
8754.00,1.65
8753.00,1.65
8752.00,1.65
8751.00,1.65
8750.00,1.65
8749.00,1.64
8748.00,1.64
8747.00,1.64
8746.00,1.64
8745.00,1.64
8744.00,1.64
8743.00,1.64
8742.00,1.63
8741.00,1.63
8740.00,1.63
8739.00,1.63
8738.00,1.63
8737.00,1.63
8736.00,1.63
8735.00,1.63
8734.00,1.63
8733.00,1.63
8732.00,1.63
8731.00,1.63
8730.00,1.64
8729.00,1.64
8728.00,1.64
8727.00,1.64
8726.00,1.64
8725.00,1.64
8724.00,1.64
8723.00,1.64
8722.00,1.64
8721.00,1.65
8720.00,1.65
8719.00,1.65
8718.00,1.65
8717.00,1.65
8716.00,1.65
8715.00,1.65
8714.00,1.66
8713.00,1.66
8712.00,1.66
8711.00,1.66
8710.00,1.66
8709.00,1.66
8708.00,1.66
8707.00,1.66
8706.00,1.66
8705.00,1.66
8704.00,1.66
8703.00,1.66
8702.00,1.66
8701.00,1.66
8700.00,1.66
8699.00,1.66
8698.00,1.66
8697.00,1.66
8696.00,1.66
8695.00,1.66
8694.00,1.66
8693.00,1.66
8692.00,1.66
8691.00,1.66
8690.00,1.66
8689.00,1.65
8688.00,1.65
8687.00,1.65
8686.00,1.65
8685.00,1.65
8684.00,1.65
8683.00,1.65
8682.00,1.64
8681.00,1.64
8680.00,1.64
8679.00,1.64
8678.00,1.64
8677.00,1.64
8676.00,1.63
8675.00,1.63
8674.00,1.63
8673.00,1.63
8672.00,1.63
8671.00,1.63
8670.00,1.63
8669.00,1.62
8668.00,1.62
8667.00,1.62
8666.00,1.62
8665.00,1.62
8664.00,1.62
8663.00,1.62
8662.00,1.62
8661.00,1.62
8660.00,1.62
8659.00,1.62
8658.00,1.62
8657.00,1.62
8656.00,1.62
8655.00,1.62
8654.00,1.62
8653.00,1.62
8652.00,1.62
8651.00,1.62
8650.00,1.62
8649.00,1.62
8648.00,1.62
8647.00,1.62
8646.00,1.62
8645.00,1.62
8644.00,1.62
8643.00,1.62
8642.00,1.62
8641.00,1.62
8640.00,1.62
8639.00,1.62
8638.00,1.62
8637.00,1.62
8636.00,1.62
8635.00,1.62
8634.00,1.62
8633.00,1.62
8632.00,1.62
8631.00,1.62
8630.00,1.61
8629.00,1.61
8628.00,1.61
8627.00,1.61
8626.00,1.61
8625.00,1.60
8624.00,1.60
8623.00,1.60
8622.00,1.60
8621.00,1.60
8620.00,1.60
8619.00,1.59
8618.00,1.59
8617.00,1.59
8616.00,1.59
8615.00,1.59
8614.00,1.59
8613.00,1.59
8612.00,1.59
8611.00,1.59
8610.00,1.59
8609.00,1.59
8608.00,1.59
8607.00,1.59
8606.00,1.59
8605.00,1.59
8604.00,1.60
8603.00,1.60
8602.00,1.60
8601.00,1.60
8600.00,1.60
8599.00,1.60
8598.00,1.60
8597.00,1.60
8596.00,1.60
8595.00,1.60
8594.00,1.60
8593.00,1.60
8592.00,1.60
8591.00,1.60
8590.00,1.60
8589.00,1.60
8588.00,1.60
8587.00,1.60
8586.00,1.61
8585.00,1.61
8584.00,1.61
8583.00,1.61
8582.00,1.60
8581.00,1.60
8580.00,1.60
8579.00,1.60
8578.00,1.60
8577.00,1.60
8576.00,1.59
8575.00,1.59
8574.00,1.59
8573.00,1.58
8572.00,1.58
8571.00,1.58
8570.00,1.57
8569.00,1.57
8568.00,1.57
8567.00,1.57
8566.00,1.57
8565.00,1.56
8564.00,1.56
8563.00,1.56
8562.00,1.56
8561.00,1.56
8560.00,1.56
8559.00,1.56
8558.00,1.56
8557.00,1.57
8556.00,1.57
8555.00,1.57
8554.00,1.57
8553.00,1.57
8552.00,1.57
8551.00,1.57
8550.00,1.57
8549.00,1.57
8548.00,1.57
8547.00,1.57
8546.00,1.57
8545.00,1.57
8544.00,1.57
8543.00,1.57
8542.00,1.57
8541.00,1.57
8540.00,1.57
8539.00,1.57
8538.00,1.57
8537.00,1.56
8536.00,1.56
8535.00,1.56
8534.00,1.56
8533.00,1.56
8532.00,1.56
8531.00,1.56
8530.00,1.56
8529.00,1.56
8528.00,1.56
8527.00,1.56
8526.00,1.56
8525.00,1.56
8524.00,1.56
8523.00,1.56
8522.00,1.56
8521.00,1.56
8520.00,1.56
8519.00,1.56
8518.00,1.56
8517.00,1.56
8516.00,1.56
8515.00,1.55
8514.00,1.55
8513.00,1.55
8512.00,1.55
8511.00,1.55
8510.00,1.55
8509.00,1.55
8508.00,1.55
8507.00,1.55
8506.00,1.55
8505.00,1.55
8504.00,1.55
8503.00,1.55
8502.00,1.55
8501.00,1.55
8500.00,1.55
8499.00,1.55
8498.00,1.55
8497.00,1.55
8496.00,1.55
8495.00,1.55
8494.00,1.55
8493.00,1.54
8492.00,1.54
8491.00,1.54
8490.00,1.54
8489.00,1.54
8488.00,1.54
8487.00,1.54
8486.00,1.54
8485.00,1.54
8484.00,1.53
8483.00,1.53
8482.00,1.53
8481.00,1.53
8480.00,1.53
8479.00,1.53
8478.00,1.53
8477.00,1.52
8476.00,1.52
8475.00,1.52
8474.00,1.52
8473.00,1.52
8472.00,1.52
8471.00,1.52
8470.00,1.51
8469.00,1.51
8468.00,1.51
8467.00,1.51
8466.00,1.51
8465.00,1.51
8464.00,1.51
8463.00,1.50
8462.00,1.50
8461.00,1.50
8460.00,1.50
8459.00,1.50
8458.00,1.50
8457.00,1.50
8456.00,1.50
8455.00,1.50
8454.00,1.50
8453.00,1.50
8452.00,1.50
8451.00,1.50
8450.00,1.50
8449.00,1.50
8448.00,1.50
8447.00,1.50
8446.00,1.50
8445.00,1.51
8444.00,1.51
8443.00,1.51
8442.00,1.51
8441.00,1.51
8440.00,1.51
8439.00,1.51
8438.00,1.51
8437.00,1.51
8436.00,1.51
8435.00,1.51
8434.00,1.51
8433.00,1.51
8432.00,1.51
8431.00,1.51
8430.00,1.51
8429.00,1.51
8428.00,1.51
8427.00,1.51
8426.00,1.51
8425.00,1.51
8424.00,1.51
8423.00,1.51
8422.00,1.51
8421.00,1.51
8420.00,1.51
8419.00,1.51
8418.00,1.51
8417.00,1.51
8416.00,1.51
8415.00,1.51
8414.00,1.52
8413.00,1.52
8412.00,1.52
8411.00,1.52
8410.00,1.52
8409.00,1.52
8408.00,1.52
8407.00,1.53
8406.00,1.53
8405.00,1.53
8404.00,1.53
8403.00,1.54
8402.00,1.54
8401.00,1.54
8400.00,1.54
8399.00,1.55
8398.00,1.55
8397.00,1.55
8396.00,1.55
8395.00,1.55
8394.00,1.56
8393.00,1.56
8392.00,1.56
8391.00,1.56
8390.00,1.56
8389.00,1.57
8388.00,1.57
8387.00,1.57
8386.00,1.57
8385.00,1.57
8384.00,1.57
8383.00,1.57
8382.00,1.57
8381.00,1.57
8380.00,1.57
8379.00,1.57
8378.00,1.57
8377.00,1.57
8376.00,1.57
8375.00,1.57
8374.00,1.57
8373.00,1.57
8372.00,1.57
8371.00,1.57
8370.00,1.57
8369.00,1.57
8368.00,1.57
8367.00,1.57
8366.00,1.57
8365.00,1.57
8364.00,1.57
8363.00,1.57
8362.00,1.57
8361.00,1.57
8360.00,1.57
8359.00,1.57
8358.00,1.57
8357.00,1.57
8356.00,1.57
8355.00,1.57
8354.00,1.57
8353.00,1.57
8352.00,1.57
8351.00,1.57
8350.00,1.57
8349.00,1.57
8348.00,1.57
8347.00,1.57
8346.00,1.57
8345.00,1.57
8344.00,1.57
8343.00,1.57
8342.00,1.57
8341.00,1.57
8340.00,1.57
8339.00,1.57
8338.00,1.57
8337.00,1.57
8336.00,1.57
8335.00,1.57
8334.00,1.57
8333.00,1.57
8332.00,1.57
8331.00,1.57
8330.00,1.57
8329.00,1.57
8328.00,1.57
8327.00,1.57
8326.00,1.57
8325.00,1.57
8324.00,1.57
8323.00,1.56
8322.00,1.56
8321.00,1.56
8320.00,1.56
8319.00,1.56
8318.00,1.56
8317.00,1.56
8316.00,1.56
8315.00,1.56
8314.00,1.56
8313.00,1.56
8312.00,1.56
8311.00,1.56
8310.00,1.57
8309.00,1.57
8308.00,1.57
8307.00,1.57
8306.00,1.57
8305.00,1.57
8304.00,1.58
8303.00,1.58
8302.00,1.58
8301.00,1.58
8300.00,1.58
8299.00,1.58
8298.00,1.58
8297.00,1.58
8296.00,1.58
8295.00,1.59
8294.00,1.59
8293.00,1.59
8292.00,1.59
8291.00,1.59
8290.00,1.59
8289.00,1.59
8288.00,1.59
8287.00,1.59
8286.00,1.59
8285.00,1.59
8284.00,1.59
8283.00,1.59
8282.00,1.60
8281.00,1.60
8280.00,1.60
8279.00,1.60
8278.00,1.60
8277.00,1.60
8276.00,1.60
8275.00,1.60
8274.00,1.60
8273.00,1.60
8272.00,1.60
8271.00,1.60
8270.00,1.60
8269.00,1.60
8268.00,1.60
8267.00,1.60
8266.00,1.60
8265.00,1.60
8264.00,1.60
8263.00,1.60
8262.00,1.60
8261.00,1.60
8260.00,1.60
8259.00,1.60
8258.00,1.60
8257.00,1.60
8256.00,1.60
8255.00,1.60
8254.00,1.60
8253.00,1.60
8252.00,1.60
8251.00,1.60
8250.00,1.60
8249.00,1.60
8248.00,1.60
8247.00,1.60
8246.00,1.60
8245.00,1.60
8244.00,1.60
8243.00,1.60
8242.00,1.60
8241.00,1.60
8240.00,1.60
8239.00,1.60
8238.00,1.60
8237.00,1.60
8236.00,1.60
8235.00,1.60
8234.00,1.60
8233.00,1.60
8232.00,1.60
8231.00,1.60
8230.00,1.60
8229.00,1.60
8228.00,1.60
8227.00,1.61
8226.00,1.61
8225.00,1.61
8224.00,1.61
8223.00,1.61
8222.00,1.61
8221.00,1.61
8220.00,1.61
8219.00,1.61
8218.00,1.61
8217.00,1.61
8216.00,1.62
8215.00,1.62
8214.00,1.62
8213.00,1.62
8212.00,1.62
8211.00,1.62
8210.00,1.62
8209.00,1.62
8208.00,1.62
8207.00,1.62
8206.00,1.62
8205.00,1.63
8204.00,1.63
8203.00,1.63
8202.00,1.63
8201.00,1.63
8200.00,1.63
8199.00,1.63
8198.00,1.63
8197.00,1.63
8196.00,1.63
8195.00,1.63
8194.00,1.63
8193.00,1.63
8192.00,1.63
8191.00,1.63
8190.00,1.63
8189.00,1.63
8188.00,1.63
8187.00,1.63
8186.00,1.63
8185.00,1.63
8184.00,1.63
8183.00,1.63
8182.00,1.63
8181.00,1.63
8180.00,1.63
8179.00,1.63
8178.00,1.63
8177.00,1.63
8176.00,1.63
8175.00,1.63
8174.00,1.63
8173.00,1.63
8172.00,1.63
8171.00,1.63
8170.00,1.63
8169.00,1.63
8168.00,1.63
8167.00,1.63
8166.00,1.63
8165.00,1.63
8164.00,1.63
8163.00,1.63
8162.00,1.62
8161.00,1.62
8160.00,1.62
8159.00,1.62
8158.00,1.62
8157.00,1.62
8156.00,1.62
8155.00,1.62
8154.00,1.62
8153.00,1.62
8152.00,1.62
8151.00,1.62
8150.00,1.62
8149.00,1.63
8148.00,1.63
8147.00,1.63
8146.00,1.63
8145.00,1.63
8144.00,1.63
8143.00,1.63
8142.00,1.64
8141.00,1.64
8140.00,1.64
8139.00,1.64
8138.00,1.64
8137.00,1.64
8136.00,1.65
8135.00,1.65
8134.00,1.65
8133.00,1.65
8132.00,1.65
8131.00,1.65
8130.00,1.65
8129.00,1.65
8128.00,1.65
8127.00,1.65
8126.00,1.65
8125.00,1.65
8124.00,1.65
8123.00,1.65
8122.00,1.65
8121.00,1.65
8120.00,1.65
8119.00,1.65
8118.00,1.65
8117.00,1.65
8116.00,1.65
8115.00,1.65
8114.00,1.64
8113.00,1.64
8112.00,1.65
8111.00,1.65
8110.00,1.65
8109.00,1.65
8108.00,1.65
8107.00,1.65
8106.00,1.65
8105.00,1.65
8104.00,1.65
8103.00,1.65
8102.00,1.66
8101.00,1.66
8100.00,1.66
8099.00,1.66
8098.00,1.66
8097.00,1.66
8096.00,1.66
8095.00,1.66
8094.00,1.66
8093.00,1.66
8092.00,1.66
8091.00,1.67
8090.00,1.67
8089.00,1.67
8088.00,1.67
8087.00,1.67
8086.00,1.67
8085.00,1.67
8084.00,1.67
8083.00,1.67
8082.00,1.67
8081.00,1.67
8080.00,1.67
8079.00,1.67
8078.00,1.67
8077.00,1.67
8076.00,1.67
8075.00,1.67
8074.00,1.68
8073.00,1.68
8072.00,1.68
8071.00,1.68
8070.00,1.68
8069.00,1.68
8068.00,1.68
8067.00,1.68
8066.00,1.68
8065.00,1.68
8064.00,1.68
8063.00,1.68
8062.00,1.68
8061.00,1.68
8060.00,1.68
8059.00,1.68
8058.00,1.68
8057.00,1.68
8056.00,1.68
8055.00,1.68
8054.00,1.68
8053.00,1.68
8052.00,1.68
8051.00,1.68
8050.00,1.68
8049.00,1.68
8048.00,1.68
8047.00,1.68
8046.00,1.68
8045.00,1.68
8044.00,1.68
8043.00,1.68
8042.00,1.68
8041.00,1.69
8040.00,1.69
8039.00,1.69
8038.00,1.69
8037.00,1.69
8036.00,1.69
8035.00,1.69
8034.00,1.69
8033.00,1.69
8032.00,1.69
8031.00,1.69
8030.00,1.69
8029.00,1.69
8028.00,1.69
8027.00,1.69
8026.00,1.69
8025.00,1.69
8024.00,1.69
8023.00,1.69
8022.00,1.70
8021.00,1.70
8020.00,1.70
8019.00,1.70
8018.00,1.70
8017.00,1.70
8016.00,1.70
8015.00,1.70
8014.00,1.70
8013.00,1.70
8012.00,1.70
8011.00,1.70
8010.00,1.70
8009.00,1.70
8008.00,1.70
8007.00,1.70
8006.00,1.70
8005.00,1.70
8004.00,1.70
8003.00,1.70
8002.00,1.69
8001.00,1.69
8000.00,1.69
7999.00,1.69
7998.00,1.69
7997.00,1.69
7996.00,1.69
7995.00,1.69
7994.00,1.69
7993.00,1.68
7992.00,1.68
7991.00,1.68
7990.00,1.68
7989.00,1.68
7988.00,1.68
7987.00,1.68
7986.00,1.68
7985.00,1.68
7984.00,1.68
7983.00,1.68
7982.00,1.68
7981.00,1.68
7980.00,1.68
7979.00,1.68
7978.00,1.68
7977.00,1.68
7976.00,1.68
7975.00,1.68
7974.00,1.68
7973.00,1.68
7972.00,1.68
7971.00,1.68
7970.00,1.68
7969.00,1.68
7968.00,1.68
7967.00,1.68
7966.00,1.68
7965.00,1.68
7964.00,1.68
7963.00,1.68
7962.00,1.68
7961.00,1.68
7960.00,1.68
7959.00,1.68
7958.00,1.69
7957.00,1.69
7956.00,1.69
7955.00,1.69
7954.00,1.69
7953.00,1.69
7952.00,1.69
7951.00,1.69
7950.00,1.70
7949.00,1.70
7948.00,1.70
7947.00,1.70
7946.00,1.70
7945.00,1.70
7944.00,1.70
7943.00,1.70
7942.00,1.70
7941.00,1.70
7940.00,1.70
7939.00,1.70
7938.00,1.70
7937.00,1.70
7936.00,1.70
7935.00,1.70
7934.00,1.70
7933.00,1.70
7932.00,1.70
7931.00,1.70
7930.00,1.70
7929.00,1.70
7928.00,1.69
7927.00,1.69
7926.00,1.69
7925.00,1.69
7924.00,1.70
7923.00,1.70
7922.00,1.70
7921.00,1.70
7920.00,1.70
7919.00,1.70
7918.00,1.70
7917.00,1.70
7916.00,1.70
7915.00,1.70
7914.00,1.70
7913.00,1.71
7912.00,1.71
7911.00,1.71
7910.00,1.71
7909.00,1.71
7908.00,1.71
7907.00,1.71
7906.00,1.71
7905.00,1.71
7904.00,1.71
7903.00,1.71
7902.00,1.71
7901.00,1.71
7900.00,1.72
7899.00,1.72
7898.00,1.72
7897.00,1.72
7896.00,1.72
7895.00,1.72
7894.00,1.72
7893.00,1.72
7892.00,1.72
7891.00,1.72
7890.00,1.72
7889.00,1.72
7888.00,1.72
7887.00,1.71
7886.00,1.71
7885.00,1.72
7884.00,1.72
7883.00,1.72
7882.00,1.72
7881.00,1.72
7880.00,1.72
7879.00,1.72
7878.00,1.72
7877.00,1.72
7876.00,1.72
7875.00,1.72
7874.00,1.72
7873.00,1.72
7872.00,1.72
7871.00,1.72
7870.00,1.72
7869.00,1.72
7868.00,1.72
7867.00,1.72
7866.00,1.72
7865.00,1.72
7864.00,1.72
7863.00,1.71
7862.00,1.71
7861.00,1.71
7860.00,1.71
7859.00,1.71
7858.00,1.71
7857.00,1.71
7856.00,1.71
7855.00,1.71
7854.00,1.71
7853.00,1.71
7852.00,1.71
7851.00,1.71
7850.00,1.71
7849.00,1.71
7848.00,1.71
7847.00,1.71
7846.00,1.71
7845.00,1.71
7844.00,1.71
7843.00,1.71
7842.00,1.71
7841.00,1.71
7840.00,1.71
7839.00,1.71
7838.00,1.71
7837.00,1.71
7836.00,1.71
7835.00,1.71
7834.00,1.71
7833.00,1.71
7832.00,1.71
7831.00,1.71
7830.00,1.71
7829.00,1.71
7828.00,1.71
7827.00,1.71
7826.00,1.71
7825.00,1.71
7824.00,1.71
7823.00,1.71
7822.00,1.71
7821.00,1.71
7820.00,1.71
7819.00,1.71
7818.00,1.72
7817.00,1.72
7816.00,1.72
7815.00,1.72
7814.00,1.72
7813.00,1.72
7812.00,1.72
7811.00,1.72
7810.00,1.72
7809.00,1.73
7808.00,1.73
7807.00,1.73
7806.00,1.73
7805.00,1.73
7804.00,1.73
7803.00,1.73
7802.00,1.74
7801.00,1.74
7800.00,1.74
7799.00,1.74
7798.00,1.74
7797.00,1.74
7796.00,1.74
7795.00,1.74
7794.00,1.74
7793.00,1.74
7792.00,1.74
7791.00,1.74
7790.00,1.74
7789.00,1.74
7788.00,1.74
7787.00,1.74
7786.00,1.74
7785.00,1.73
7784.00,1.73
7783.00,1.73
7782.00,1.73
7781.00,1.73
7780.00,1.73
7779.00,1.73
7778.00,1.73
7777.00,1.73
7776.00,1.73
7775.00,1.73
7774.00,1.73
7773.00,1.73
7772.00,1.73
7771.00,1.73
7770.00,1.73
7769.00,1.73
7768.00,1.73
7767.00,1.73
7766.00,1.73
7765.00,1.73
7764.00,1.73
7763.00,1.73
7762.00,1.73
7761.00,1.73
7760.00,1.73
7759.00,1.72
7758.00,1.72
7757.00,1.72
7756.00,1.72
7755.00,1.72
7754.00,1.72
7753.00,1.72
7752.00,1.72
7751.00,1.72
7750.00,1.72
7749.00,1.72
7748.00,1.72
7747.00,1.72
7746.00,1.72
7745.00,1.72
7744.00,1.72
7743.00,1.72
7742.00,1.72
7741.00,1.72
7740.00,1.72
7739.00,1.72
7738.00,1.72
7737.00,1.72
7736.00,1.72
7735.00,1.72
7734.00,1.72
7733.00,1.72
7732.00,1.73
7731.00,1.73
7730.00,1.73
7729.00,1.73
7728.00,1.73
7727.00,1.73
7726.00,1.73
7725.00,1.73
7724.00,1.73
7723.00,1.73
7722.00,1.73
7721.00,1.74
7720.00,1.74
7719.00,1.74
7718.00,1.74
7717.00,1.74
7716.00,1.74
7715.00,1.74
7714.00,1.73
7713.00,1.73
7712.00,1.73
7711.00,1.73
7710.00,1.73
7709.00,1.73
7708.00,1.73
7707.00,1.73
7706.00,1.73
7705.00,1.73
7704.00,1.73
7703.00,1.73
7702.00,1.73
7701.00,1.73
7700.00,1.73
7699.00,1.73
7698.00,1.73
7697.00,1.73
7696.00,1.73
7695.00,1.73
7694.00,1.73
7693.00,1.73
7692.00,1.73
7691.00,1.73
7690.00,1.73
7689.00,1.73
7688.00,1.73
7687.00,1.73
7686.00,1.73
7685.00,1.73
7684.00,1.73
7683.00,1.73
7682.00,1.73
7681.00,1.73
7680.00,1.73
7679.00,1.73
7678.00,1.73
7677.00,1.73
7676.00,1.73
7675.00,1.73
7674.00,1.73
7673.00,1.74
7672.00,1.74
7671.00,1.74
7670.00,1.74
7669.00,1.74
7668.00,1.74
7667.00,1.74
7666.00,1.74
7665.00,1.74
7664.00,1.74
7663.00,1.74
7662.00,1.74
7661.00,1.74
7660.00,1.74
7659.00,1.74
7658.00,1.74
7657.00,1.74
7656.00,1.74
7655.00,1.74
7654.00,1.74
7653.00,1.74
7652.00,1.73
7651.00,1.73
7650.00,1.73
7649.00,1.73
7648.00,1.73
7647.00,1.73
7646.00,1.73
7645.00,1.73
7644.00,1.73
7643.00,1.72
7642.00,1.72
7641.00,1.72
7640.00,1.72
7639.00,1.72
7638.00,1.72
7637.00,1.72
7636.00,1.72
7635.00,1.72
7634.00,1.72
7633.00,1.72
7632.00,1.72
7631.00,1.72
7630.00,1.72
7629.00,1.72
7628.00,1.72
7627.00,1.72
7626.00,1.72
7625.00,1.72
7624.00,1.72
7623.00,1.72
7622.00,1.72
7621.00,1.72
7620.00,1.72
7619.00,1.72
7618.00,1.72
7617.00,1.72
7616.00,1.72
7615.00,1.73
7614.00,1.73
7613.00,1.73
7612.00,1.73
7611.00,1.73
7610.00,1.73
7609.00,1.73
7608.00,1.73
7607.00,1.73
7606.00,1.73
7605.00,1.73
7604.00,1.73
7603.00,1.73
7602.00,1.73
7601.00,1.73
7600.00,1.73
7599.00,1.74
7598.00,1.74
7597.00,1.74
7596.00,1.74
7595.00,1.74
7594.00,1.74
7593.00,1.74
7592.00,1.74
7591.00,1.74
7590.00,1.74
7589.00,1.74
7588.00,1.74
7587.00,1.74
7586.00,1.74
7585.00,1.74
7584.00,1.74
7583.00,1.74
7582.00,1.74
7581.00,1.73
7580.00,1.73
7579.00,1.73
7578.00,1.73
7577.00,1.73
7576.00,1.73
7575.00,1.73
7574.00,1.72
7573.00,1.72
7572.00,1.72
7571.00,1.72
7570.00,1.72
7569.00,1.72
7568.00,1.72
7567.00,1.72
7566.00,1.72
7565.00,1.72
7564.00,1.72
7563.00,1.72
7562.00,1.72
7561.00,1.72
7560.00,1.72
7559.00,1.72
7558.00,1.72
7557.00,1.72
7556.00,1.72
7555.00,1.72
7554.00,1.71
7553.00,1.71
7552.00,1.71
7551.00,1.71
7550.00,1.71
7549.00,1.71
7548.00,1.71
7547.00,1.71
7546.00,1.71
7545.00,1.71
7544.00,1.71
7543.00,1.71
7542.00,1.70
7541.00,1.70
7540.00,1.70
7539.00,1.70
7538.00,1.70
7537.00,1.70
7536.00,1.70
7535.00,1.70
7534.00,1.70
7533.00,1.70
7532.00,1.70
7531.00,1.70
7530.00,1.70
7529.00,1.70
7528.00,1.70
7527.00,1.70
7526.00,1.70
7525.00,1.70
7524.00,1.70
7523.00,1.70
7522.00,1.70
7521.00,1.69
7520.00,1.69
7519.00,1.69
7518.00,1.69
7517.00,1.69
7516.00,1.69
7515.00,1.69
7514.00,1.69
7513.00,1.69
7512.00,1.69
7511.00,1.69
7510.00,1.69
7509.00,1.69
7508.00,1.69
7507.00,1.69
7506.00,1.69
7505.00,1.69
7504.00,1.68
7503.00,1.68
7502.00,1.68
7501.00,1.68
7500.00,1.68
7499.00,1.68
7498.00,1.68
7497.00,1.68
7496.00,1.68
7495.00,1.67
7494.00,1.67
7493.00,1.67
7492.00,1.67
7491.00,1.67
7490.00,1.67
7489.00,1.67
7488.00,1.67
7487.00,1.67
7486.00,1.67
7485.00,1.67
7484.00,1.67
7483.00,1.67
7482.00,1.67
7481.00,1.67
7480.00,1.66
7479.00,1.66
7478.00,1.66
7477.00,1.66
7476.00,1.66
7475.00,1.66
7474.00,1.66
7473.00,1.66
7472.00,1.66
7471.00,1.66
7470.00,1.65
7469.00,1.65
7468.00,1.65
7467.00,1.65
7466.00,1.65
7465.00,1.65
7464.00,1.65
7463.00,1.65
7462.00,1.65
7461.00,1.64
7460.00,1.64
7459.00,1.64
7458.00,1.64
7457.00,1.64
7456.00,1.64
7455.00,1.64
7454.00,1.64
7453.00,1.64
7452.00,1.64
7451.00,1.64
7450.00,1.64
7449.00,1.63
7448.00,1.63
7447.00,1.63
7446.00,1.63
7445.00,1.63
7444.00,1.63
7443.00,1.63
7442.00,1.63
7441.00,1.63
7440.00,1.63
7439.00,1.63
7438.00,1.63
7437.00,1.63
7436.00,1.63
7435.00,1.63
7434.00,1.63
7433.00,1.63
7432.00,1.63
7431.00,1.63
7430.00,1.63
7429.00,1.63
7428.00,1.63
7427.00,1.63
7426.00,1.62
7425.00,1.62
7424.00,1.62
7423.00,1.62
7422.00,1.62
7421.00,1.62
7420.00,1.62
7419.00,1.61
7418.00,1.61
7417.00,1.61
7416.00,1.61
7415.00,1.61
7414.00,1.61
7413.00,1.61
7412.00,1.61
7411.00,1.61
7410.00,1.60
7409.00,1.60
7408.00,1.60
7407.00,1.60
7406.00,1.60
7405.00,1.60
7404.00,1.60
7403.00,1.60
7402.00,1.60
7401.00,1.60
7400.00,1.60
7399.00,1.60
7398.00,1.60
7397.00,1.60
7396.00,1.60
7395.00,1.60
7394.00,1.59
7393.00,1.59
7392.00,1.59
7391.00,1.59
7390.00,1.58
7389.00,1.58
7388.00,1.58
7387.00,1.57
7386.00,1.57
7385.00,1.57
7384.00,1.56
7383.00,1.56
7382.00,1.56
7381.00,1.55
7380.00,1.55
7379.00,1.55
7378.00,1.55
7377.00,1.55
7376.00,1.54
7375.00,1.54
7374.00,1.54
7373.00,1.54
7372.00,1.54
7371.00,1.54
7370.00,1.54
7369.00,1.54
7368.00,1.54
7367.00,1.54
7366.00,1.54
7365.00,1.55
7364.00,1.55
7363.00,1.55
7362.00,1.55
7361.00,1.55
7360.00,1.55
7359.00,1.54
7358.00,1.54
7357.00,1.54
7356.00,1.54
7355.00,1.54
7354.00,1.54
7353.00,1.54
7352.00,1.54
7351.00,1.54
7350.00,1.54
7349.00,1.54
7348.00,1.54
7347.00,1.54
7346.00,1.54
7345.00,1.54
7344.00,1.54
7343.00,1.54
7342.00,1.54
7341.00,1.54
7340.00,1.55
7339.00,1.55
7338.00,1.55
7337.00,1.55
7336.00,1.55
7335.00,1.55
7334.00,1.55
7333.00,1.55
7332.00,1.55
7331.00,1.55
7330.00,1.55
7329.00,1.55
7328.00,1.55
7327.00,1.55
7326.00,1.54
7325.00,1.54
7324.00,1.54
7323.00,1.54
7322.00,1.54
7321.00,1.54
7320.00,1.54
7319.00,1.53
7318.00,1.53
7317.00,1.53
7316.00,1.53
7315.00,1.53
7314.00,1.52
7313.00,1.52
7312.00,1.52
7311.00,1.52
7310.00,1.52
7309.00,1.52
7308.00,1.52
7307.00,1.52
7306.00,1.51
7305.00,1.51
7304.00,1.51
7303.00,1.51
7302.00,1.51
7301.00,1.51
7300.00,1.51
7299.00,1.51
7298.00,1.51
7297.00,1.51
7296.00,1.51
7295.00,1.51
7294.00,1.51
7293.00,1.50
7292.00,1.50
7291.00,1.50
7290.00,1.50
7289.00,1.50
7288.00,1.50
7287.00,1.50
7286.00,1.49
7285.00,1.49
7284.00,1.49
7283.00,1.49
7282.00,1.49
7281.00,1.49
7280.00,1.49
7279.00,1.49
7278.00,1.49
7277.00,1.49
7276.00,1.49
7275.00,1.49
7274.00,1.48
7273.00,1.48
7272.00,1.48
7271.00,1.48
7270.00,1.48
7269.00,1.48
7268.00,1.48
7267.00,1.47
7266.00,1.47
7265.00,1.47
7264.00,1.47
7263.00,1.47
7262.00,1.47
7261.00,1.46
7260.00,1.46
7259.00,1.46
7258.00,1.45
7257.00,1.45
7256.00,1.45
7255.00,1.44
7254.00,1.44
7253.00,1.44
7252.00,1.43
7251.00,1.43
7250.00,1.42
7249.00,1.42
7248.00,1.42
7247.00,1.41
7246.00,1.41
7245.00,1.40
7244.00,1.40
7243.00,1.39
7242.00,1.39
7241.00,1.39
7240.00,1.38
7239.00,1.38
7238.00,1.37
7237.00,1.37
7236.00,1.36
7235.00,1.36
7234.00,1.36
7233.00,1.35
7232.00,1.35
7231.00,1.34
7230.00,1.34
7229.00,1.33
7228.00,1.33
7227.00,1.33
7226.00,1.32
7225.00,1.32
7224.00,1.31
7223.00,1.31
7222.00,1.30
7221.00,1.30
7220.00,1.29
7219.00,1.29
7218.00,1.29
7217.00,1.28
7216.00,1.28
7215.00,1.27
7214.00,1.27
7213.00,1.26
7212.00,1.26
7211.00,1.25
7210.00,1.25
7209.00,1.24
7208.00,1.24
7207.00,1.23
7206.00,1.23
7205.00,1.22
7204.00,1.22
7203.00,1.21
7202.00,1.21
7201.00,1.20
7200.00,1.20
7199.00,1.20
7198.00,1.19
7197.00,1.19
7196.00,1.18
7195.00,1.18
7194.00,1.17
7193.00,1.17
7192.00,1.16
7191.00,1.16
7190.00,1.16
7189.00,1.15
7188.00,1.15
7187.00,1.14
7186.00,1.14
7185.00,1.13
7184.00,1.13
7183.00,1.12
7182.00,1.12
7181.00,1.11
7180.00,1.11
7179.00,1.11
7178.00,1.10
7177.00,1.10
7176.00,1.10
7175.00,1.09
7174.00,1.09
7173.00,1.09
7172.00,1.08
7171.00,1.08
7170.00,1.08
7169.00,1.08
7168.00,1.07
7167.00,1.07
7166.00,1.07
7165.00,1.06
7164.00,1.06
7163.00,1.06
7162.00,1.05
7161.00,1.05
7160.00,1.04
7159.00,1.04
7158.00,1.04
7157.00,1.03
7156.00,1.03
7155.00,1.02
7154.00,1.02
7153.00,1.01
7152.00,1.01
7151.00,1.01
7150.00,1.00
7149.00,1.00
7148.00,0.99
7147.00,0.99
7146.00,0.98
7145.00,0.98
7144.00,0.98
7143.00,0.97
7142.00,0.97
7141.00,0.97
7140.00,0.97
7139.00,0.96
7138.00,0.96
7137.00,0.96
7136.00,0.95
7135.00,0.95
7134.00,0.95
7133.00,0.94
7132.00,0.94
7131.00,0.94
7130.00,0.94
7129.00,0.93
7128.00,0.93
7127.00,0.93
7126.00,0.92
7125.00,0.92
7124.00,0.92
7123.00,0.91
7122.00,0.91
7121.00,0.91
7120.00,0.90
7119.00,0.90
7118.00,0.90
7117.00,0.90
7116.00,0.90
7115.00,0.89
7114.00,0.89
7113.00,0.89
7112.00,0.89
7111.00,0.89
7110.00,0.89
7109.00,0.88
7108.00,0.88
7107.00,0.88
7106.00,0.88
7105.00,0.88
7104.00,0.88
7103.00,0.88
7102.00,0.87
7101.00,0.87
7100.00,0.87
7099.00,0.87
7098.00,0.87
7097.00,0.87
7096.00,0.87
7095.00,0.86
7094.00,0.86
7093.00,0.86
7092.00,0.86
7091.00,0.86
7090.00,0.85
7089.00,0.85
7088.00,0.85
7087.00,0.85
7086.00,0.84
7085.00,0.84
7084.00,0.84
7083.00,0.84
7082.00,0.83
7081.00,0.83
7080.00,0.83
7079.00,0.83
7078.00,0.82
7077.00,0.82
7076.00,0.82
7075.00,0.82
7074.00,0.82
7073.00,0.82
7072.00,0.81
7071.00,0.81
7070.00,0.81
7069.00,0.81
7068.00,0.81
7067.00,0.81
7066.00,0.81
7065.00,0.81
7064.00,0.81
7063.00,0.81
7062.00,0.81
7061.00,0.81
7060.00,0.81
7059.00,0.80
7058.00,0.80
7057.00,0.80
7056.00,0.80
7055.00,0.80
7054.00,0.80
7053.00,0.80
7052.00,0.79
7051.00,0.79
7050.00,0.79
7049.00,0.79
7048.00,0.79
7047.00,0.79
7046.00,0.78
7045.00,0.78
7044.00,0.78
7043.00,0.78
7042.00,0.78
7041.00,0.78
7040.00,0.78
7039.00,0.78
7038.00,0.78
7037.00,0.78
7036.00,0.78
7035.00,0.78
7034.00,0.78
7033.00,0.78
7032.00,0.78
7031.00,0.78
7030.00,0.78
7029.00,0.78
7028.00,0.78
7027.00,0.77
7026.00,0.77
7025.00,0.77
7024.00,0.77
7023.00,0.77
7022.00,0.77
7021.00,0.77
7020.00,0.77
7019.00,0.77
7018.00,0.77
7017.00,0.77
7016.00,0.77
7015.00,0.77
7014.00,0.77
7013.00,0.77
7012.00,0.77
7011.00,0.77
7010.00,0.77
7009.00,0.77
7008.00,0.77
7007.00,0.77
7006.00,0.77
7005.00,0.77
7004.00,0.77
7003.00,0.77
7002.00,0.77
7001.00,0.77
7000.00,0.77
6999.00,0.76
6998.00,0.76
6997.00,0.76
6996.00,0.76
6995.00,0.76
6994.00,0.76
6993.00,0.76
6992.00,0.76
6991.00,0.76
6990.00,0.76
6989.00,0.75
6988.00,0.75
6987.00,0.75
6986.00,0.75
6985.00,0.75
6984.00,0.75
6983.00,0.75
6982.00,0.75
6981.00,0.75
6980.00,0.75
6979.00,0.75
6978.00,0.74
6977.00,0.74
6976.00,0.74
6975.00,0.74
6974.00,0.74
6973.00,0.74
6972.00,0.74
6971.00,0.74
6970.00,0.74
6969.00,0.74
6968.00,0.74
6967.00,0.74
6966.00,0.74
6965.00,0.74
6964.00,0.74
6963.00,0.74
6962.00,0.74
6961.00,0.74
6960.00,0.74
6959.00,0.74
6958.00,0.74
6957.00,0.74
6956.00,0.74
6955.00,0.74
6954.00,0.74
6953.00,0.74
6952.00,0.74
6951.00,0.73
6950.00,0.73
6949.00,0.73
6948.00,0.73
6947.00,0.73
6946.00,0.73
6945.00,0.73
6944.00,0.73
6943.00,0.73
6942.00,0.74
6941.00,0.74
6940.00,0.74
6939.00,0.74
6938.00,0.74
6937.00,0.74
6936.00,0.74
6935.00,0.74
6934.00,0.74
6933.00,0.74
6932.00,0.74
6931.00,0.74
6930.00,0.74
6929.00,0.74
6928.00,0.74
6927.00,0.74
6926.00,0.73
6925.00,0.73
6924.00,0.73
6923.00,0.73
6922.00,0.73
6921.00,0.73
6920.00,0.73
6919.00,0.73
6918.00,0.73
6917.00,0.73
6916.00,0.73
6915.00,0.73
6914.00,0.73
6913.00,0.73
6912.00,0.73
6911.00,0.74
6910.00,0.74
6909.00,0.74
6908.00,0.74
6907.00,0.74
6906.00,0.74
6905.00,0.74
6904.00,0.74
6903.00,0.74
6902.00,0.74
6901.00,0.74
6900.00,0.74
6899.00,0.74
6898.00,0.74
6897.00,0.74
6896.00,0.74
6895.00,0.74
6894.00,0.74
6893.00,0.74
6892.00,0.74
6891.00,0.74
6890.00,0.74
6889.00,0.74
6888.00,0.74
6887.00,0.74
6886.00,0.74
6885.00,0.74
6884.00,0.74
6883.00,0.74
6882.00,0.74
6881.00,0.74
6880.00,0.74
6879.00,0.74
6878.00,0.74
6877.00,0.74
6876.00,0.74
6875.00,0.74
6874.00,0.74
6873.00,0.74
6872.00,0.74
6871.00,0.74
6870.00,0.74
6869.00,0.74
6868.00,0.74
6867.00,0.74
6866.00,0.74
6865.00,0.74
6864.00,0.74
6863.00,0.74
6862.00,0.74
6861.00,0.74
6860.00,0.74
6859.00,0.74
6858.00,0.74
6857.00,0.74
6856.00,0.74
6855.00,0.74
6854.00,0.74
6853.00,0.74
6852.00,0.74
6851.00,0.74
6850.00,0.74
6849.00,0.74
6848.00,0.74
6847.00,0.74
6846.00,0.74
6845.00,0.74
6844.00,0.74
6843.00,0.74
6842.00,0.74
6841.00,0.74
6840.00,0.74
6839.00,0.75
6838.00,0.75
6837.00,0.75
6836.00,0.75
6835.00,0.75
6834.00,0.75
6833.00,0.75
6832.00,0.75
6831.00,0.75
6830.00,0.75
6829.00,0.75
6828.00,0.76
6827.00,0.76
6826.00,0.76
6825.00,0.76
6824.00,0.76
6823.00,0.76
6822.00,0.76
6821.00,0.76
6820.00,0.76
6819.00,0.76
6818.00,0.76
6817.00,0.76
6816.00,0.76
6815.00,0.76
6814.00,0.76
6813.00,0.76
6812.00,0.76
6811.00,0.76
6810.00,0.76
6809.00,0.76
6808.00,0.76
6807.00,0.76
6806.00,0.76
6805.00,0.76
6804.00,0.76
6803.00,0.76
6802.00,0.76
6801.00,0.76
6800.00,0.76
6799.00,0.76
6798.00,0.77
6797.00,0.77
6796.00,0.77
6795.00,0.77
6794.00,0.77
6793.00,0.77
6792.00,0.77
6791.00,0.77
6790.00,0.77
6789.00,0.77
6788.00,0.77
6787.00,0.77
6786.00,0.77
6785.00,0.77
6784.00,0.77
6783.00,0.78
6782.00,0.78
6781.00,0.78
6780.00,0.78
6779.00,0.78
6778.00,0.78
6777.00,0.78
6776.00,0.78
6775.00,0.78
6774.00,0.78
6773.00,0.78
6772.00,0.78
6771.00,0.78
6770.00,0.78
6769.00,0.78
6768.00,0.78
6767.00,0.78
6766.00,0.78
6765.00,0.78
6764.00,0.78
6763.00,0.78
6762.00,0.78
6761.00,0.78
6760.00,0.78
6759.00,0.78
6758.00,0.78
6757.00,0.78
6756.00,0.78
6755.00,0.78
6754.00,0.78
6753.00,0.78
6752.00,0.78
6751.00,0.78
6750.00,0.78
6749.00,0.78
6748.00,0.78
6747.00,0.78
6746.00,0.79
6745.00,0.79
6744.00,0.79
6743.00,0.79
6742.00,0.79
6741.00,0.79
6740.00,0.79
6739.00,0.79
6738.00,0.79
6737.00,0.80
6736.00,0.80
6735.00,0.80
6734.00,0.80
6733.00,0.80
6732.00,0.80
6731.00,0.80
6730.00,0.80
6729.00,0.80
6728.00,0.80
6727.00,0.80
6726.00,0.80
6725.00,0.80
6724.00,0.80
6723.00,0.80
6722.00,0.81
6721.00,0.81
6720.00,0.81
6719.00,0.81
6718.00,0.81
6717.00,0.81
6716.00,0.81
6715.00,0.81
6714.00,0.81
6713.00,0.81
6712.00,0.81
6711.00,0.81
6710.00,0.81
6709.00,0.81
6708.00,0.81
6707.00,0.82
6706.00,0.82
6705.00,0.82
6704.00,0.82
6703.00,0.82
6702.00,0.82
6701.00,0.82
6700.00,0.82
6699.00,0.82
6698.00,0.82
6697.00,0.82
6696.00,0.82
6695.00,0.82
6694.00,0.83
6693.00,0.83
6692.00,0.83
6691.00,0.83
6690.00,0.83
6689.00,0.83
6688.00,0.83
6687.00,0.83
6686.00,0.83
6685.00,0.83
6684.00,0.84
6683.00,0.84
6682.00,0.84
6681.00,0.84
6680.00,0.84
6679.00,0.84
6678.00,0.84
6677.00,0.84
6676.00,0.84
6675.00,0.84
6674.00,0.84
6673.00,0.84
6672.00,0.84
6671.00,0.84
6670.00,0.84
6669.00,0.85
6668.00,0.85
6667.00,0.85
6666.00,0.85
6665.00,0.85
6664.00,0.85
6663.00,0.85
6662.00,0.85
6661.00,0.86
6660.00,0.86
6659.00,0.86
6658.00,0.86
6657.00,0.86
6656.00,0.86
6655.00,0.87
6654.00,0.87
6653.00,0.87
6652.00,0.87
6651.00,0.87
6650.00,0.87
6649.00,0.87
6648.00,0.87
6647.00,0.87
6646.00,0.88
6645.00,0.88
6644.00,0.88
6643.00,0.88
6642.00,0.88
6641.00,0.88
6640.00,0.88
6639.00,0.88
6638.00,0.88
6637.00,0.88
6636.00,0.88
6635.00,0.88
6634.00,0.89
6633.00,0.89
6632.00,0.89
6631.00,0.89
6630.00,0.89
6629.00,0.89
6628.00,0.89
6627.00,0.89
6626.00,0.90
6625.00,0.90
6624.00,0.90
6623.00,0.90
6622.00,0.90
6621.00,0.90
6620.00,0.90
6619.00,0.90
6618.00,0.91
6617.00,0.91
6616.00,0.91
6615.00,0.91
6614.00,0.91
6613.00,0.91
6612.00,0.91
6611.00,0.91
6610.00,0.91
6609.00,0.92
6608.00,0.92
6607.00,0.92
6606.00,0.92
6605.00,0.92
6604.00,0.92
6603.00,0.92
6602.00,0.92
6601.00,0.92
6600.00,0.92
6599.00,0.92
6598.00,0.92
6597.00,0.93
6596.00,0.93
6595.00,0.93
6594.00,0.93
6593.00,0.93
6592.00,0.93
6591.00,0.93
6590.00,0.93
6589.00,0.93
6588.00,0.93
6587.00,0.93
6586.00,0.94
6585.00,0.94
6584.00,0.94
6583.00,0.94
6582.00,0.94
6581.00,0.94
6580.00,0.95
6579.00,0.95
6578.00,0.95
6577.00,0.95
6576.00,0.96
6575.00,0.96
6574.00,0.96
6573.00,0.96
6572.00,0.96
6571.00,0.97
6570.00,0.97
6569.00,0.97
6568.00,0.97
6567.00,0.97
6566.00,0.97
6565.00,0.97
6564.00,0.97
6563.00,0.97
6562.00,0.98
6561.00,0.98
6560.00,0.98
6559.00,0.98
6558.00,0.98
6557.00,0.98
6556.00,0.98
6555.00,0.98
6554.00,0.98
6553.00,0.98
6552.00,0.98
6551.00,0.98
6550.00,0.98
6549.00,0.98
6548.00,0.98
6547.00,0.98
6546.00,0.98
6545.00,0.98
6544.00,0.98
6543.00,0.98
6542.00,0.99
6541.00,0.99
6540.00,0.99
6539.00,0.99
6538.00,0.99
6537.00,0.99
6536.00,0.99
6535.00,0.99
6534.00,1.00
6533.00,1.00
6532.00,1.00
6531.00,1.00
6530.00,1.00
6529.00,1.00
6528.00,1.00
6527.00,1.01
6526.00,1.01
6525.00,1.01
6524.00,1.01
6523.00,1.01
6522.00,1.01
6521.00,1.01
6520.00,1.01
6519.00,1.01
6518.00,1.01
6517.00,1.01
6516.00,1.02
6515.00,1.02
6514.00,1.02
6513.00,1.02
6512.00,1.02
6511.00,1.02
6510.00,1.02
6509.00,1.02
6508.00,1.02
6507.00,1.02
6506.00,1.02
6505.00,1.02
6504.00,1.02
6503.00,1.02
6502.00,1.02
6501.00,1.02
6500.00,1.02
6499.00,1.03
6498.00,1.03
6497.00,1.03
6496.00,1.03
6495.00,1.03
6494.00,1.03
6493.00,1.03
6492.00,1.03
6491.00,1.03
6490.00,1.03
6489.00,1.04
6488.00,1.04
6487.00,1.04
6486.00,1.04
6485.00,1.04
6484.00,1.04
6483.00,1.04
6482.00,1.05
6481.00,1.05
6480.00,1.05
6479.00,1.05
6478.00,1.05
6477.00,1.05
6476.00,1.06
6475.00,1.06
6474.00,1.06
6473.00,1.06
6472.00,1.06
6471.00,1.06
6470.00,1.06
6469.00,1.07
6468.00,1.07
6467.00,1.07
6466.00,1.07
6465.00,1.07
6464.00,1.07
6463.00,1.07
6462.00,1.07
6461.00,1.07
6460.00,1.08
6459.00,1.08
6458.00,1.08
6457.00,1.08
6456.00,1.08
6455.00,1.08
6454.00,1.08
6453.00,1.08
6452.00,1.08
6451.00,1.08
6450.00,1.08
6449.00,1.08
6448.00,1.08
6447.00,1.08
6446.00,1.08
6445.00,1.08
6444.00,1.08
6443.00,1.09
6442.00,1.09
6441.00,1.09
6440.00,1.09
6439.00,1.09
6438.00,1.09
6437.00,1.09
6436.00,1.09
6435.00,1.09
6434.00,1.09
6433.00,1.09
6432.00,1.09
6431.00,1.09
6430.00,1.10
6429.00,1.10
6428.00,1.10
6427.00,1.10
6426.00,1.10
6425.00,1.10
6424.00,1.10
6423.00,1.10
6422.00,1.10
6421.00,1.10
6420.00,1.11
6419.00,1.11
6418.00,1.11
6417.00,1.11
6416.00,1.11
6415.00,1.11
6414.00,1.12
6413.00,1.12
6412.00,1.12
6411.00,1.12
6410.00,1.12
6409.00,1.13
6408.00,1.13
6407.00,1.13
6406.00,1.13
6405.00,1.13
6404.00,1.14
6403.00,1.14
6402.00,1.14
6401.00,1.14
6400.00,1.14
6399.00,1.14
6398.00,1.14
6397.00,1.15
6396.00,1.15
6395.00,1.15
6394.00,1.15
6393.00,1.15
6392.00,1.15
6391.00,1.15
6390.00,1.15
6389.00,1.15
6388.00,1.15
6387.00,1.15
6386.00,1.15
6385.00,1.15
6384.00,1.15
6383.00,1.15
6382.00,1.15
6381.00,1.15
6380.00,1.15
6379.00,1.15
6378.00,1.15
6377.00,1.15
6376.00,1.15
6375.00,1.16
6374.00,1.16
6373.00,1.16
6372.00,1.16
6371.00,1.16
6370.00,1.16
6369.00,1.16
6368.00,1.16
6367.00,1.16
6366.00,1.17
6365.00,1.17
6364.00,1.17
6363.00,1.17
6362.00,1.17
6361.00,1.17
6360.00,1.17
6359.00,1.17
6358.00,1.18
6357.00,1.18
6356.00,1.18
6355.00,1.18
6354.00,1.18
6353.00,1.18
6352.00,1.18
6351.00,1.18
6350.00,1.18
6349.00,1.18
6348.00,1.18
6347.00,1.18
6346.00,1.18
6345.00,1.19
6344.00,1.19
6343.00,1.19
6342.00,1.19
6341.00,1.19
6340.00,1.19
6339.00,1.19
6338.00,1.20
6337.00,1.20
6336.00,1.20
6335.00,1.20
6334.00,1.20
6333.00,1.20
6332.00,1.20
6331.00,1.21
6330.00,1.21
6329.00,1.21
6328.00,1.21
6327.00,1.21
6326.00,1.21
6325.00,1.21
6324.00,1.22
6323.00,1.22
6322.00,1.22
6321.00,1.22
6320.00,1.22
6319.00,1.22
6318.00,1.23
6317.00,1.23
6316.00,1.23
6315.00,1.23
6314.00,1.23
6313.00,1.23
6312.00,1.23
6311.00,1.24
6310.00,1.24
6309.00,1.24
6308.00,1.24
6307.00,1.24
6306.00,1.24
6305.00,1.24
6304.00,1.24
6303.00,1.25
6302.00,1.25
6301.00,1.25
6300.00,1.25
6299.00,1.25
6298.00,1.25
6297.00,1.25
6296.00,1.25
6295.00,1.25
6294.00,1.26
6293.00,1.26
6292.00,1.26
6291.00,1.26
6290.00,1.26
6289.00,1.26
6288.00,1.26
6287.00,1.27
6286.00,1.27
6285.00,1.27
6284.00,1.27
6283.00,1.27
6282.00,1.28
6281.00,1.28
6280.00,1.28
6279.00,1.28
6278.00,1.29
6277.00,1.29
6276.00,1.29
6275.00,1.29
6274.00,1.29
6273.00,1.30
6272.00,1.30
6271.00,1.30
6270.00,1.30
6269.00,1.30
6268.00,1.31
6267.00,1.31
6266.00,1.31
6265.00,1.31
6264.00,1.31
6263.00,1.31
6262.00,1.31
6261.00,1.31
6260.00,1.32
6259.00,1.32
6258.00,1.32
6257.00,1.32
6256.00,1.32
6255.00,1.32
6254.00,1.32
6253.00,1.32
6252.00,1.32
6251.00,1.33
6250.00,1.33
6249.00,1.33
6248.00,1.33
6247.00,1.33
6246.00,1.33
6245.00,1.33
6244.00,1.34
6243.00,1.34
6242.00,1.34
6241.00,1.34
6240.00,1.34
6239.00,1.34
6238.00,1.35
6237.00,1.35
6236.00,1.35
6235.00,1.35
6234.00,1.35
6233.00,1.35
6232.00,1.36
6231.00,1.36
6230.00,1.36
6229.00,1.36
6228.00,1.36
6227.00,1.36
6226.00,1.37
6225.00,1.37
6224.00,1.37
6223.00,1.37
6222.00,1.37
6221.00,1.37
6220.00,1.38
6219.00,1.38
6218.00,1.38
6217.00,1.38
6216.00,1.38
6215.00,1.38
6214.00,1.38
6213.00,1.39
6212.00,1.39
6211.00,1.39
6210.00,1.39
6209.00,1.39
6208.00,1.39
6207.00,1.40
6206.00,1.40
6205.00,1.40
6204.00,1.40
6203.00,1.40
6202.00,1.40
6201.00,1.41
6200.00,1.41
6199.00,1.41
6198.00,1.41
6197.00,1.41
6196.00,1.42
6195.00,1.42
6194.00,1.42
6193.00,1.42
6192.00,1.43
6191.00,1.43
6190.00,1.43
6189.00,1.43
6188.00,1.43
6187.00,1.43
6186.00,1.44
6185.00,1.44
6184.00,1.44
6183.00,1.44
6182.00,1.44
6181.00,1.44
6180.00,1.44
6179.00,1.44
6178.00,1.44
6177.00,1.45
6176.00,1.45
6175.00,1.45
6174.00,1.45
6173.00,1.45
6172.00,1.45
6171.00,1.45
6170.00,1.45
6169.00,1.46
6168.00,1.46
6167.00,1.46
6166.00,1.46
6165.00,1.46
6164.00,1.47
6163.00,1.47
6162.00,1.47
6161.00,1.47
6160.00,1.47
6159.00,1.48
6158.00,1.48
6157.00,1.48
6156.00,1.48
6155.00,1.48
6154.00,1.48
6153.00,1.48
6152.00,1.49
6151.00,1.49
6150.00,1.49
6149.00,1.49
6148.00,1.49
6147.00,1.49
6146.00,1.49
6145.00,1.50
6144.00,1.50
6143.00,1.50
6142.00,1.50
6141.00,1.50
6140.00,1.51
6139.00,1.51
6138.00,1.51
6137.00,1.51
6136.00,1.51
6135.00,1.52
6134.00,1.52
6133.00,1.52
6132.00,1.52
6131.00,1.52
6130.00,1.53
6129.00,1.53
6128.00,1.53
6127.00,1.53
6126.00,1.53
6125.00,1.54
6124.00,1.54
6123.00,1.54
6122.00,1.54
6121.00,1.54
6120.00,1.55
6119.00,1.55
6118.00,1.55
6117.00,1.55
6116.00,1.55
6115.00,1.56
6114.00,1.56
6113.00,1.56
6112.00,1.56
6111.00,1.56
6110.00,1.56
6109.00,1.57
6108.00,1.57
6107.00,1.57
6106.00,1.57
6105.00,1.57
6104.00,1.57
6103.00,1.58
6102.00,1.58
6101.00,1.58
6100.00,1.58
6099.00,1.58
6098.00,1.58
6097.00,1.59
6096.00,1.59
6095.00,1.59
6094.00,1.59
6093.00,1.59
6092.00,1.59
6091.00,1.60
6090.00,1.60
6089.00,1.60
6088.00,1.60
6087.00,1.60
6086.00,1.60
6085.00,1.60
6084.00,1.60
6083.00,1.61
6082.00,1.61
6081.00,1.61
6080.00,1.61
6079.00,1.61
6078.00,1.61
6077.00,1.61
6076.00,1.61
6075.00,1.61
6074.00,1.61
6073.00,1.61
6072.00,1.61
6071.00,1.62
6070.00,1.62
6069.00,1.62
6068.00,1.62
6067.00,1.62
6066.00,1.62
6065.00,1.62
6064.00,1.62
6063.00,1.63
6062.00,1.63
6061.00,1.63
6060.00,1.63
6059.00,1.63
6058.00,1.63
6057.00,1.64
6056.00,1.64
6055.00,1.64
6054.00,1.64
6053.00,1.64
6052.00,1.64
6051.00,1.65
6050.00,1.65
6049.00,1.65
6048.00,1.65
6047.00,1.65
6046.00,1.65
6045.00,1.65
6044.00,1.65
6043.00,1.66
6042.00,1.66
6041.00,1.66
6040.00,1.66
6039.00,1.66
6038.00,1.66
6037.00,1.66
6036.00,1.66
6035.00,1.66
6034.00,1.66
6033.00,1.66
6032.00,1.66
6031.00,1.66
6030.00,1.66
6029.00,1.66
6028.00,1.66
6027.00,1.66
6026.00,1.66
6025.00,1.66
6024.00,1.66
6023.00,1.66
6022.00,1.66
6021.00,1.66
6020.00,1.66
6019.00,1.66
6018.00,1.66
6017.00,1.66
6016.00,1.66
6015.00,1.66
6014.00,1.66
6013.00,1.66
6012.00,1.66
6011.00,1.66
6010.00,1.66
6009.00,1.66
6008.00,1.66
6007.00,1.66
6006.00,1.66
6005.00,1.66
6004.00,1.66
6003.00,1.66
6002.00,1.66
6001.00,1.66
6000.00,1.66
5999.00,1.66
5998.00,1.66
5997.00,1.66
5996.00,1.66
5995.00,1.66
5994.00,1.66
5993.00,1.66
5992.00,1.65
5991.00,1.65
5990.00,1.65
5989.00,1.65
5988.00,1.65
5987.00,1.65
5986.00,1.64
5985.00,1.64
5984.00,1.64
5983.00,1.64
5982.00,1.63
5981.00,1.63
5980.00,1.63
5979.00,1.62
5978.00,1.62
5977.00,1.61
5976.00,1.61
5975.00,1.61
5974.00,1.60
5973.00,1.60
5972.00,1.59
5971.00,1.58
5970.00,1.58
5969.00,1.57
5968.00,1.56
5967.00,1.56
5966.00,1.55
5965.00,1.54
5964.00,1.54
5963.00,1.53
5962.00,1.52
5961.00,1.52
5960.00,1.51
5959.00,1.50
5958.00,1.50
5957.00,1.49
5956.00,1.49
5955.00,1.48
5954.00,1.48
5953.00,1.47
5952.00,1.47
5951.00,1.46
5950.00,1.46
5949.00,1.46
5948.00,1.45
5947.00,1.45
5946.00,1.44
5945.00,1.44
5944.00,1.44
5943.00,1.44
5942.00,1.43
5941.00,1.43
5940.00,1.43
5939.00,1.43
5938.00,1.43
5937.00,1.42
5936.00,1.42
5935.00,1.42
5934.00,1.42
5933.00,1.42
5932.00,1.42
5931.00,1.42
5930.00,1.42
5929.00,1.42
5928.00,1.42
5927.00,1.42
5926.00,1.42
5925.00,1.42
5924.00,1.41
5923.00,1.41
5922.00,1.41
5921.00,1.41
5920.00,1.41
5919.00,1.40
5918.00,1.40
5917.00,1.40
5916.00,1.39
5915.00,1.39
5914.00,1.39
5913.00,1.39
5912.00,1.38
5911.00,1.38
5910.00,1.38
5909.00,1.38
5908.00,1.38
5907.00,1.38
5906.00,1.38
5905.00,1.38
5904.00,1.38
5903.00,1.38
5902.00,1.38
5901.00,1.38
5900.00,1.38
5899.00,1.38
5898.00,1.39
5897.00,1.39
5896.00,1.39
5895.00,1.39
5894.00,1.40
5893.00,1.40
5892.00,1.40
5891.00,1.41
5890.00,1.41
5889.00,1.41
5888.00,1.41
5887.00,1.42
5886.00,1.42
5885.00,1.42
5884.00,1.43
5883.00,1.43
5882.00,1.43
5881.00,1.43
5880.00,1.44
5879.00,1.44
5878.00,1.44
5877.00,1.44
5876.00,1.45
5875.00,1.45
5874.00,1.45
5873.00,1.45
5872.00,1.46
5871.00,1.46
5870.00,1.46
5869.00,1.46
5868.00,1.46
5867.00,1.47
5866.00,1.47
5865.00,1.47
5864.00,1.47
5863.00,1.47
5862.00,1.47
5861.00,1.48
5860.00,1.48
5859.00,1.48
5858.00,1.48
5857.00,1.48
5856.00,1.48
5855.00,1.48
5854.00,1.48
5853.00,1.49
5852.00,1.49
5851.00,1.49
5850.00,1.49
5849.00,1.49
5848.00,1.49
5847.00,1.49
5846.00,1.49
5845.00,1.49
5844.00,1.49
5843.00,1.49
5842.00,1.49
5841.00,1.49
5840.00,1.49
5839.00,1.49
5838.00,1.49
5837.00,1.49
5836.00,1.49
5835.00,1.49
5834.00,1.49
5833.00,1.49
5832.00,1.49
5831.00,1.49
5830.00,1.49
5829.00,1.49
5828.00,1.49
5827.00,1.49
5826.00,1.49
5825.00,1.49
5824.00,1.49
5823.00,1.49
5822.00,1.49
5821.00,1.49
5820.00,1.49
5819.00,1.49
5818.00,1.49
5817.00,1.49
5816.00,1.49
5815.00,1.49
5814.00,1.49
5813.00,1.49
5812.00,1.49
5811.00,1.49
5810.00,1.49
5809.00,1.49
5808.00,1.49
5807.00,1.48
5806.00,1.48
5805.00,1.48
5804.00,1.48
5803.00,1.48
5802.00,1.48
5801.00,1.48
5800.00,1.47
5799.00,1.47
5798.00,1.47
5797.00,1.47
5796.00,1.47
5795.00,1.46
5794.00,1.46
5793.00,1.46
5792.00,1.46
5791.00,1.46
5790.00,1.45
5789.00,1.45
5788.00,1.45
5787.00,1.45
5786.00,1.45
5785.00,1.44
5784.00,1.44
5783.00,1.44
5782.00,1.44
5781.00,1.44
5780.00,1.44
5779.00,1.44
5778.00,1.44
5777.00,1.44
5776.00,1.44
5775.00,1.44
5774.00,1.44
5773.00,1.44
5772.00,1.44
5771.00,1.44
5770.00,1.44
5769.00,1.44
5768.00,1.44
5767.00,1.45
5766.00,1.45
5765.00,1.45
5764.00,1.45
5763.00,1.45
5762.00,1.46
5761.00,1.46
5760.00,1.46
5759.00,1.46
5758.00,1.47
5757.00,1.47
5756.00,1.47
5755.00,1.48
5754.00,1.48
5753.00,1.48
5752.00,1.49
5751.00,1.49
5750.00,1.49
5749.00,1.49
5748.00,1.50
5747.00,1.50
5746.00,1.50
5745.00,1.50
5744.00,1.51
5743.00,1.51
5742.00,1.51
5741.00,1.51
5740.00,1.51
5739.00,1.51
5738.00,1.52
5737.00,1.52
5736.00,1.52
5735.00,1.52
5734.00,1.52
5733.00,1.52
5732.00,1.53
5731.00,1.53
5730.00,1.53
5729.00,1.53
5728.00,1.53
5727.00,1.53
5726.00,1.53
5725.00,1.53
5724.00,1.53
5723.00,1.53
5722.00,1.53
5721.00,1.53
5720.00,1.53
5719.00,1.53
5718.00,1.53
5717.00,1.53
5716.00,1.53
5715.00,1.52
5714.00,1.52
5713.00,1.52
5712.00,1.52
5711.00,1.52
5710.00,1.52
5709.00,1.51
5708.00,1.51
5707.00,1.51
5706.00,1.51
5705.00,1.51
5704.00,1.51
5703.00,1.50
5702.00,1.50
5701.00,1.50
5700.00,1.50
5699.00,1.50
5698.00,1.50
5697.00,1.50
5696.00,1.49
5695.00,1.49
5694.00,1.49
5693.00,1.49
5692.00,1.49
5691.00,1.49
5690.00,1.49
5689.00,1.49
5688.00,1.49
5687.00,1.48
5686.00,1.48
5685.00,1.48
5684.00,1.48
5683.00,1.48
5682.00,1.48
5681.00,1.48
5680.00,1.48
5679.00,1.48
5678.00,1.47
5677.00,1.47
5676.00,1.47
5675.00,1.47
5674.00,1.47
5673.00,1.47
5672.00,1.47
5671.00,1.47
5670.00,1.47
5669.00,1.47
5668.00,1.47
5667.00,1.47
5666.00,1.47
5665.00,1.47
5664.00,1.47
5663.00,1.48
5662.00,1.48
5661.00,1.48
5660.00,1.48
5659.00,1.48
5658.00,1.48
5657.00,1.48
5656.00,1.48
5655.00,1.49
5654.00,1.49
5653.00,1.49
5652.00,1.49
5651.00,1.49
5650.00,1.50
5649.00,1.50
5648.00,1.50
5647.00,1.50
5646.00,1.50
5645.00,1.51
5644.00,1.51
5643.00,1.51
5642.00,1.51
5641.00,1.51
5640.00,1.52
5639.00,1.52
5638.00,1.52
5637.00,1.52
5636.00,1.52
5635.00,1.52
5634.00,1.52
5633.00,1.53
5632.00,1.53
5631.00,1.53
5630.00,1.53
5629.00,1.53
5628.00,1.53
5627.00,1.53
5626.00,1.53
5625.00,1.53
5624.00,1.53
5623.00,1.53
5622.00,1.54
5621.00,1.54
5620.00,1.54
5619.00,1.54
5618.00,1.54
5617.00,1.54
5616.00,1.54
5615.00,1.54
5614.00,1.54
5613.00,1.55
5612.00,1.55
5611.00,1.55
5610.00,1.55
5609.00,1.55
5608.00,1.55
5607.00,1.56
5606.00,1.56
5605.00,1.56
5604.00,1.56
5603.00,1.57
5602.00,1.57
5601.00,1.57
5600.00,1.57
5599.00,1.57
5598.00,1.58
5597.00,1.58
5596.00,1.58
5595.00,1.58
5594.00,1.59
5593.00,1.59
5592.00,1.59
5591.00,1.59
5590.00,1.59
5589.00,1.60
5588.00,1.60
5587.00,1.60
5586.00,1.60
5585.00,1.60
5584.00,1.60
5583.00,1.60
5582.00,1.60
5581.00,1.60
5580.00,1.61
5579.00,1.61
5578.00,1.61
5577.00,1.61
5576.00,1.61
5575.00,1.61
5574.00,1.61
5573.00,1.61
5572.00,1.62
5571.00,1.62
5570.00,1.62
5569.00,1.62
5568.00,1.62
5567.00,1.62
5566.00,1.63
5565.00,1.63
5564.00,1.63
5563.00,1.63
5562.00,1.63
5561.00,1.63
5560.00,1.63
5559.00,1.63
5558.00,1.64
5557.00,1.64
5556.00,1.64
5555.00,1.64
5554.00,1.64
5553.00,1.64
5552.00,1.64
5551.00,1.64
5550.00,1.64
5549.00,1.65
5548.00,1.65
5547.00,1.65
5546.00,1.65
5545.00,1.65
5544.00,1.65
5543.00,1.66
5542.00,1.66
5541.00,1.66
5540.00,1.66
5539.00,1.66
5538.00,1.66
5537.00,1.67
5536.00,1.67
5535.00,1.67
5534.00,1.67
5533.00,1.67
5532.00,1.67
5531.00,1.67
5530.00,1.67
5529.00,1.67
5528.00,1.67
5527.00,1.68
5526.00,1.68
5525.00,1.68
5524.00,1.68
5523.00,1.68
5522.00,1.68
5521.00,1.68
5520.00,1.68
5519.00,1.68
5518.00,1.68
5517.00,1.68
5516.00,1.68
5515.00,1.68
5514.00,1.68
5513.00,1.69
5512.00,1.69
5511.00,1.69
5510.00,1.69
5509.00,1.69
5508.00,1.69
5507.00,1.69
5506.00,1.69
5505.00,1.69
5504.00,1.69
5503.00,1.69
5502.00,1.69
5501.00,1.69
5500.00,1.69
5499.00,1.69
5498.00,1.70
5497.00,1.70
5496.00,1.70
5495.00,1.70
5494.00,1.70
5493.00,1.70
5492.00,1.70
5491.00,1.70
5490.00,1.70
5489.00,1.71
5488.00,1.71
5487.00,1.71
5486.00,1.71
5485.00,1.71
5484.00,1.71
5483.00,1.72
5482.00,1.72
5481.00,1.72
5480.00,1.72
5479.00,1.72
5478.00,1.72
5477.00,1.73
5476.00,1.73
5475.00,1.73
5474.00,1.73
5473.00,1.73
5472.00,1.73
5471.00,1.73
5470.00,1.74
5469.00,1.74
5468.00,1.74
5467.00,1.74
5466.00,1.74
5465.00,1.74
5464.00,1.74
5463.00,1.74
5462.00,1.74
5461.00,1.74
5460.00,1.74
5459.00,1.74
5458.00,1.74
5457.00,1.74
5456.00,1.74
5455.00,1.74
5454.00,1.74
5453.00,1.74
5452.00,1.74
5451.00,1.74
5450.00,1.74
5449.00,1.74
5448.00,1.74
5447.00,1.74
5446.00,1.74
5445.00,1.74
5444.00,1.74
5443.00,1.74
5442.00,1.74
5441.00,1.74
5440.00,1.74
5439.00,1.74
5438.00,1.74
5437.00,1.74
5436.00,1.74
5435.00,1.74
5434.00,1.74
5433.00,1.74
5432.00,1.74
5431.00,1.74
5430.00,1.74
5429.00,1.74
5428.00,1.74
5427.00,1.74
5426.00,1.74
5425.00,1.74
5424.00,1.74
5423.00,1.74
5422.00,1.74
5421.00,1.74
5420.00,1.74
5419.00,1.74
5418.00,1.74
5417.00,1.74
5416.00,1.74
5415.00,1.74
5414.00,1.73
5413.00,1.73
5412.00,1.73
5411.00,1.73
5410.00,1.73
5409.00,1.73
5408.00,1.73
5407.00,1.73
5406.00,1.73
5405.00,1.73
5404.00,1.73
5403.00,1.73
5402.00,1.72
5401.00,1.72
5400.00,1.72
5399.00,1.72
5398.00,1.72
5397.00,1.71
5396.00,1.71
5395.00,1.71
5394.00,1.70
5393.00,1.70
5392.00,1.70
5391.00,1.69
5390.00,1.69
5389.00,1.68
5388.00,1.68
5387.00,1.67
5386.00,1.67
5385.00,1.66
5384.00,1.66
5383.00,1.66
5382.00,1.65
5381.00,1.65
5380.00,1.64
5379.00,1.64
5378.00,1.63
5377.00,1.62
5376.00,1.62
5375.00,1.61
5374.00,1.61
5373.00,1.60
5372.00,1.60
5371.00,1.59
5370.00,1.58
5369.00,1.58
5368.00,1.57
5367.00,1.56
5366.00,1.55
5365.00,1.55
5364.00,1.54
5363.00,1.53
5362.00,1.52
5361.00,1.51
5360.00,1.50
5359.00,1.49
5358.00,1.48
5357.00,1.47
5356.00,1.46
5355.00,1.45
5354.00,1.44
5353.00,1.43
5352.00,1.42
5351.00,1.41
5350.00,1.40
5349.00,1.39
5348.00,1.38
5347.00,1.37
5346.00,1.36
5345.00,1.35
5344.00,1.34
5343.00,1.33
5342.00,1.32
5341.00,1.31
5340.00,1.30
5339.00,1.29
5338.00,1.28
5337.00,1.27
5336.00,1.26
5335.00,1.25
5334.00,1.25
5333.00,1.24
5332.00,1.23
5331.00,1.22
5330.00,1.21
5329.00,1.20
5328.00,1.19
5327.00,1.19
5326.00,1.18
5325.00,1.17
5324.00,1.16
5323.00,1.15
5322.00,1.15
5321.00,1.14
5320.00,1.13
5319.00,1.13
5318.00,1.12
5317.00,1.11
5316.00,1.10
5315.00,1.10
5314.00,1.09
5313.00,1.08
5312.00,1.08
5311.00,1.07
5310.00,1.07
5309.00,1.06
5308.00,1.06
5307.00,1.05
5306.00,1.05
5305.00,1.04
5304.00,1.04
5303.00,1.03
5302.00,1.03
5301.00,1.03
5300.00,1.02
5299.00,1.02
5298.00,1.02
5297.00,1.02
5296.00,1.02
5295.00,1.01
5294.00,1.01
5293.00,1.01
5292.00,1.01
5291.00,1.01
5290.00,1.01
5289.00,1.01
5288.00,1.01
5287.00,1.01
5286.00,1.00
5285.00,1.00
5284.00,1.00
5283.00,1.00
5282.00,1.00
5281.00,1.00
5280.00,1.00
5279.00,1.00
5278.00,1.00
5277.00,1.00
5276.00,1.00
5275.00,1.00
5274.00,1.00
5273.00,1.00
5272.00,1.00
5271.00,1.00
5270.00,1.00
5269.00,1.00
5268.00,1.00
5267.00,1.00
5266.00,1.00
5265.00,1.00
5264.00,1.00
5263.00,1.00
5262.00,1.00
5261.00,1.00
5260.00,1.00
5259.00,1.00
5258.00,1.00
5257.00,1.00
5256.00,1.00
5255.00,1.00
5254.00,1.00
5253.00,1.01
5252.00,1.01
5251.00,1.01
5250.00,1.01
5249.00,1.01
5248.00,1.01
5247.00,1.01
5246.00,1.01
5245.00,1.01
5244.00,1.01
5243.00,1.01
5242.00,1.01
5241.00,1.01
5240.00,1.01
5239.00,1.01
5238.00,1.01
5237.00,1.01
5236.00,1.01
5235.00,1.01
5234.00,1.01
5233.00,1.01
5232.00,1.01
5231.00,1.01
5230.00,1.01
5229.00,1.01
5228.00,1.01
5227.00,1.01
5226.00,1.01
5225.00,1.01
5224.00,1.01
5223.00,1.01
5222.00,1.01
5221.00,1.01
5220.00,1.02
5219.00,1.02
5218.00,1.02
5217.00,1.02
5216.00,1.02
5215.00,1.02
5214.00,1.02
5213.00,1.02
5212.00,1.02
5211.00,1.02
5210.00,1.02
5209.00,1.02
5208.00,1.02
5207.00,1.02
5206.00,1.02
5205.00,1.02
5204.00,1.02
5203.00,1.02
5202.00,1.02
5201.00,1.02
5200.00,1.02
5199.00,1.02
5198.00,1.02
5197.00,1.02
5196.00,1.02
5195.00,1.02
5194.00,1.02
5193.00,1.02
5192.00,1.02
5191.00,1.02
5190.00,1.03
5189.00,1.03
5188.00,1.03
5187.00,1.03
5186.00,1.03
5185.00,1.03
5184.00,1.03
5183.00,1.03
5182.00,1.03
5181.00,1.03
5180.00,1.03
5179.00,1.03
5178.00,1.03
5177.00,1.04
5176.00,1.04
5175.00,1.04
5174.00,1.04
5173.00,1.04
5172.00,1.04
5171.00,1.04
5170.00,1.04
5169.00,1.04
5168.00,1.04
5167.00,1.04
5166.00,1.04
5165.00,1.04
5164.00,1.04
5163.00,1.04
5162.00,1.05
5161.00,1.05
5160.00,1.05
5159.00,1.05
5158.00,1.05
5157.00,1.05
5156.00,1.05
5155.00,1.05
5154.00,1.05
5153.00,1.05
5152.00,1.05
5151.00,1.05
5150.00,1.05
5149.00,1.05
5148.00,1.05
5147.00,1.05
5146.00,1.05
5145.00,1.05
5144.00,1.05
5143.00,1.06
5142.00,1.06
5141.00,1.06
5140.00,1.06
5139.00,1.06
5138.00,1.06
5137.00,1.06
5136.00,1.06
5135.00,1.06
5134.00,1.06
5133.00,1.06
5132.00,1.06
5131.00,1.06
5130.00,1.06
5129.00,1.06
5128.00,1.06
5127.00,1.06
5126.00,1.06
5125.00,1.06
5124.00,1.06
5123.00,1.06
5122.00,1.07
5121.00,1.07
5120.00,1.07
5119.00,1.07
5118.00,1.07
5117.00,1.07
5116.00,1.07
5115.00,1.07
5114.00,1.07
5113.00,1.07
5112.00,1.07
5111.00,1.07
5110.00,1.07
5109.00,1.07
5108.00,1.07
5107.00,1.07
5106.00,1.08
5105.00,1.08
5104.00,1.08
5103.00,1.08
5102.00,1.08
5101.00,1.08
5100.00,1.08
5099.00,1.08
5098.00,1.08
5097.00,1.08
5096.00,1.08
5095.00,1.08
5094.00,1.08
5093.00,1.08
5092.00,1.08
5091.00,1.08
5090.00,1.08
5089.00,1.08
5088.00,1.08
5087.00,1.08
5086.00,1.08
5085.00,1.08
5084.00,1.08
5083.00,1.08
5082.00,1.08
5081.00,1.08
5080.00,1.08
5079.00,1.08
5078.00,1.09
5077.00,1.09
5076.00,1.09
5075.00,1.09
5074.00,1.09
5073.00,1.09
5072.00,1.09
5071.00,1.09
5070.00,1.09
5069.00,1.09
5068.00,1.09
5067.00,1.09
5066.00,1.09
5065.00,1.09
5064.00,1.09
5063.00,1.09
5062.00,1.09
5061.00,1.09
5060.00,1.09
5059.00,1.09
5058.00,1.09
5057.00,1.09
5056.00,1.09
5055.00,1.09
5054.00,1.09
5053.00,1.09
5052.00,1.09
5051.00,1.09
5050.00,1.09
5049.00,1.09
5048.00,1.10
5047.00,1.10
5046.00,1.10
5045.00,1.10
5044.00,1.10
5043.00,1.10
5042.00,1.10
5041.00,1.10
5040.00,1.11
5039.00,1.11
5038.00,1.11
5037.00,1.11
5036.00,1.11
5035.00,1.11
5034.00,1.11
5033.00,1.12
5032.00,1.12
5031.00,1.12
5030.00,1.12
5029.00,1.12
5028.00,1.12
5027.00,1.12
5026.00,1.12
5025.00,1.12
5024.00,1.12
5023.00,1.12
5022.00,1.13
5021.00,1.13
5020.00,1.13
5019.00,1.13
5018.00,1.13
5017.00,1.13
5016.00,1.13
5015.00,1.13
5014.00,1.13
5013.00,1.13
5012.00,1.13
5011.00,1.13
5010.00,1.13
5009.00,1.13
5008.00,1.13
5007.00,1.13
5006.00,1.13
5005.00,1.13
5004.00,1.13
5003.00,1.13
5002.00,1.13
5001.00,1.13
5000.00,1.13
4999.00,1.13
4998.00,1.13
4997.00,1.13
4996.00,1.13
4995.00,1.13
4994.00,1.13
4993.00,1.13
4992.00,1.14
4991.00,1.14
4990.00,1.14
4989.00,1.14
4988.00,1.14
4987.00,1.14
4986.00,1.14
4985.00,1.14
4984.00,1.14
4983.00,1.14
4982.00,1.14
4981.00,1.14
4980.00,1.15
4979.00,1.15
4978.00,1.15
4977.00,1.15
4976.00,1.15
4975.00,1.15
4974.00,1.15
4973.00,1.15
4972.00,1.15
4971.00,1.15
4970.00,1.16
4969.00,1.16
4968.00,1.16
4967.00,1.16
4966.00,1.16
4965.00,1.16
4964.00,1.16
4963.00,1.16
4962.00,1.16
4961.00,1.16
4960.00,1.16
4959.00,1.17
4958.00,1.17
4957.00,1.17
4956.00,1.17
4955.00,1.17
4954.00,1.17
4953.00,1.17
4952.00,1.17
4951.00,1.17
4950.00,1.17
4949.00,1.17
4948.00,1.17
4947.00,1.17
4946.00,1.17
4945.00,1.17
4944.00,1.17
4943.00,1.17
4942.00,1.17
4941.00,1.17
4940.00,1.17
4939.00,1.17
4938.00,1.17
4937.00,1.17
4936.00,1.18
4935.00,1.18
4934.00,1.18
4933.00,1.18
4932.00,1.18
4931.00,1.18
4930.00,1.18
4929.00,1.18
4928.00,1.18
4927.00,1.18
4926.00,1.18
4925.00,1.19
4924.00,1.19
4923.00,1.19
4922.00,1.19
4921.00,1.19
4920.00,1.19
4919.00,1.19
4918.00,1.19
4917.00,1.20
4916.00,1.20
4915.00,1.20
4914.00,1.20
4913.00,1.20
4912.00,1.20
4911.00,1.20
4910.00,1.20
4909.00,1.20
4908.00,1.20
4907.00,1.20
4906.00,1.20
4905.00,1.20
4904.00,1.20
4903.00,1.20
4902.00,1.20
4901.00,1.20
4900.00,1.20
4899.00,1.20
4898.00,1.20
4897.00,1.21
4896.00,1.21
4895.00,1.21
4894.00,1.21
4893.00,1.21
4892.00,1.21
4891.00,1.21
4890.00,1.21
4889.00,1.21
4888.00,1.21
4887.00,1.21
4886.00,1.21
4885.00,1.21
4884.00,1.21
4883.00,1.22
4882.00,1.22
4881.00,1.22
4880.00,1.22
4879.00,1.22
4878.00,1.22
4877.00,1.22
4876.00,1.22
4875.00,1.22
4874.00,1.23
4873.00,1.23
4872.00,1.23
4871.00,1.23
4870.00,1.23
4869.00,1.23
4868.00,1.23
4867.00,1.23
4866.00,1.23
4865.00,1.23
4864.00,1.24
4863.00,1.24
4862.00,1.24
4861.00,1.24
4860.00,1.24
4859.00,1.24
4858.00,1.24
4857.00,1.24
4856.00,1.24
4855.00,1.24
4854.00,1.24
4853.00,1.24
4852.00,1.24
4851.00,1.24
4850.00,1.24
4849.00,1.24
4848.00,1.24
4847.00,1.24
4846.00,1.24
4845.00,1.24
4844.00,1.24
4843.00,1.24
4842.00,1.25
4841.00,1.25
4840.00,1.25
4839.00,1.25
4838.00,1.25
4837.00,1.25
4836.00,1.25
4835.00,1.25
4834.00,1.25
4833.00,1.25
4832.00,1.25
4831.00,1.25
4830.00,1.25
4829.00,1.25
4828.00,1.25
4827.00,1.25
4826.00,1.25
4825.00,1.25
4824.00,1.25
4823.00,1.25
4822.00,1.26
4821.00,1.26
4820.00,1.26
4819.00,1.26
4818.00,1.26
4817.00,1.26
4816.00,1.26
4815.00,1.26
4814.00,1.26
4813.00,1.26
4812.00,1.26
4811.00,1.26
4810.00,1.26
4809.00,1.26
4808.00,1.27
4807.00,1.27
4806.00,1.27
4805.00,1.27
4804.00,1.27
4803.00,1.27
4802.00,1.27
4801.00,1.27
4800.00,1.27
4799.00,1.27
4798.00,1.27
4797.00,1.28
4796.00,1.28
4795.00,1.28
4794.00,1.28
4793.00,1.28
4792.00,1.29
4791.00,1.29
4790.00,1.29
4789.00,1.29
4788.00,1.29
4787.00,1.29
4786.00,1.30
4785.00,1.30
4784.00,1.30
4783.00,1.30
4782.00,1.30
4781.00,1.30
4780.00,1.30
4779.00,1.30
4778.00,1.30
4777.00,1.31
4776.00,1.31
4775.00,1.31
4774.00,1.31
4773.00,1.31
4772.00,1.31
4771.00,1.31
4770.00,1.31
4769.00,1.32
4768.00,1.32
4767.00,1.32
4766.00,1.32
4765.00,1.32
4764.00,1.32
4763.00,1.33
4762.00,1.33
4761.00,1.33
4760.00,1.33
4759.00,1.33
4758.00,1.33
4757.00,1.33
4756.00,1.33
4755.00,1.33
4754.00,1.33
4753.00,1.34
4752.00,1.34
4751.00,1.34
4750.00,1.34
4749.00,1.34
4748.00,1.34
4747.00,1.34
4746.00,1.34
4745.00,1.35
4744.00,1.35
4743.00,1.35
4742.00,1.35
4741.00,1.35
4740.00,1.35
4739.00,1.35
4738.00,1.35
4737.00,1.35
4736.00,1.35
4735.00,1.36
4734.00,1.36
4733.00,1.36
4732.00,1.36
4731.00,1.36
4730.00,1.36
4729.00,1.36
4728.00,1.36
4727.00,1.36
4726.00,1.36
4725.00,1.36
4724.00,1.36
4723.00,1.36
4722.00,1.37
4721.00,1.37
4720.00,1.37
4719.00,1.37
4718.00,1.37
4717.00,1.37
4716.00,1.37
4715.00,1.37
4714.00,1.38
4713.00,1.38
4712.00,1.38
4711.00,1.38
4710.00,1.38
4709.00,1.38
4708.00,1.38
4707.00,1.38
4706.00,1.38
4705.00,1.39
4704.00,1.39
4703.00,1.39
4702.00,1.39
4701.00,1.39
4700.00,1.39
4699.00,1.40
4698.00,1.40
4697.00,1.40
4696.00,1.40
4695.00,1.40
4694.00,1.40
4693.00,1.41
4692.00,1.41
4691.00,1.41
4690.00,1.41
4689.00,1.41
4688.00,1.41
4687.00,1.42
4686.00,1.42
4685.00,1.42
4684.00,1.42
4683.00,1.42
4682.00,1.42
4681.00,1.42
4680.00,1.42
4679.00,1.42
4678.00,1.43
4677.00,1.43
4676.00,1.43
4675.00,1.43
4674.00,1.43
4673.00,1.43
4672.00,1.43
4671.00,1.43
4670.00,1.44
4669.00,1.44
4668.00,1.44
4667.00,1.44
4666.00,1.44
4665.00,1.45
4664.00,1.45
4663.00,1.45
4662.00,1.45
4661.00,1.45
4660.00,1.46
4659.00,1.46
4658.00,1.46
4657.00,1.46
4656.00,1.46
4655.00,1.46
4654.00,1.47
4653.00,1.47
4652.00,1.47
4651.00,1.47
4650.00,1.47
4649.00,1.47
4648.00,1.47
4647.00,1.48
4646.00,1.48
4645.00,1.48
4644.00,1.48
4643.00,1.48
4642.00,1.48
4641.00,1.48
4640.00,1.48
4639.00,1.48
4638.00,1.48
4637.00,1.48
4636.00,1.48
4635.00,1.48
4634.00,1.48
4633.00,1.48
4632.00,1.49
4631.00,1.49
4630.00,1.49
4629.00,1.49
4628.00,1.49
4627.00,1.49
4626.00,1.49
4625.00,1.49
4624.00,1.49
4623.00,1.49
4622.00,1.49
4621.00,1.49
4620.00,1.49
4619.00,1.49
4618.00,1.50
4617.00,1.50
4616.00,1.50
4615.00,1.50
4614.00,1.50
4613.00,1.50
4612.00,1.50
4611.00,1.50
4610.00,1.50
4609.00,1.50
4608.00,1.50
4607.00,1.50
4606.00,1.50
4605.00,1.50
4604.00,1.50
4603.00,1.50
4602.00,1.50
4601.00,1.50
4600.00,1.50
4599.00,1.50
4598.00,1.50
4597.00,1.50
4596.00,1.50
4595.00,1.50
4594.00,1.50
4593.00,1.50
4592.00,1.50
4591.00,1.50
4590.00,1.50
4589.00,1.50
4588.00,1.50
4587.00,1.50
4586.00,1.50
4585.00,1.51
4584.00,1.51
4583.00,1.51
4582.00,1.51
4581.00,1.51
4580.00,1.51
4579.00,1.51
4578.00,1.51
4577.00,1.51
4576.00,1.52
4575.00,1.52
4574.00,1.52
4573.00,1.52
4572.00,1.52
4571.00,1.52
4570.00,1.53
4569.00,1.53
4568.00,1.53
4567.00,1.53
4566.00,1.53
4565.00,1.53
4564.00,1.54
4563.00,1.54
4562.00,1.54
4561.00,1.54
4560.00,1.54
4559.00,1.54
4558.00,1.54
4557.00,1.54
4556.00,1.54
4555.00,1.54
4554.00,1.54
4553.00,1.54
4552.00,1.54
4551.00,1.54
4550.00,1.54
4549.00,1.55
4548.00,1.55
4547.00,1.55
4546.00,1.55
4545.00,1.55
4544.00,1.55
4543.00,1.55
4542.00,1.55
4541.00,1.55
4540.00,1.56
4539.00,1.56
4538.00,1.56
4537.00,1.56
4536.00,1.56
4535.00,1.56
4534.00,1.56
4533.00,1.56
4532.00,1.56
4531.00,1.56
4530.00,1.57
4529.00,1.57
4528.00,1.57
4527.00,1.57
4526.00,1.57
4525.00,1.57
4524.00,1.57
4523.00,1.57
4522.00,1.57
4521.00,1.57
4520.00,1.57
4519.00,1.57
4518.00,1.57
4517.00,1.57
4516.00,1.57
4515.00,1.57
4514.00,1.57
4513.00,1.57
4512.00,1.56
4511.00,1.56
4510.00,1.56
4509.00,1.56
4508.00,1.56
4507.00,1.56
4506.00,1.56
4505.00,1.56
4504.00,1.56
4503.00,1.56
4502.00,1.56
4501.00,1.56
4500.00,1.56
4499.00,1.56
4498.00,1.56
4497.00,1.56
4496.00,1.56
4495.00,1.56
4494.00,1.56
4493.00,1.56
4492.00,1.56
4491.00,1.56
4490.00,1.56
4489.00,1.56
4488.00,1.56
4487.00,1.56
4486.00,1.56
4485.00,1.55
4484.00,1.55
4483.00,1.55
4482.00,1.55
4481.00,1.55
4480.00,1.55
4479.00,1.55
4478.00,1.55
4477.00,1.55
4476.00,1.55
4475.00,1.55
4474.00,1.55
4473.00,1.55
4472.00,1.55
4471.00,1.55
4470.00,1.54
4469.00,1.54
4468.00,1.54
4467.00,1.54
4466.00,1.54
4465.00,1.54
4464.00,1.54
4463.00,1.54
4462.00,1.54
4461.00,1.54
4460.00,1.53
4459.00,1.53
4458.00,1.53
4457.00,1.53
4456.00,1.53
4455.00,1.53
4454.00,1.52
4453.00,1.52
4452.00,1.52
4451.00,1.52
4450.00,1.52
4449.00,1.51
4448.00,1.51
4447.00,1.51
4446.00,1.51
4445.00,1.50
4444.00,1.50
4443.00,1.50
4442.00,1.49
4441.00,1.49
4440.00,1.49
4439.00,1.49
4438.00,1.49
4437.00,1.48
4436.00,1.48
4435.00,1.48
4434.00,1.48
4433.00,1.48
4432.00,1.48
4431.00,1.47
4430.00,1.47
4429.00,1.47
4428.00,1.47
4427.00,1.47
4426.00,1.47
4425.00,1.47
4424.00,1.46
4423.00,1.46
4422.00,1.46
4421.00,1.46
4420.00,1.46
4419.00,1.46
4418.00,1.46
4417.00,1.46
4416.00,1.46
4415.00,1.46
4414.00,1.46
4413.00,1.46
4412.00,1.46
4411.00,1.46
4410.00,1.46
4409.00,1.46
4408.00,1.46
4407.00,1.46
4406.00,1.46
4405.00,1.46
4404.00,1.46
4403.00,1.46
4402.00,1.46
4401.00,1.46
4400.00,1.47
4399.00,1.47
4398.00,1.47
4397.00,1.47
4396.00,1.47
4395.00,1.47
4394.00,1.48
4393.00,1.48
4392.00,1.48
4391.00,1.48
4390.00,1.48
4389.00,1.48
4388.00,1.48
4387.00,1.49
4386.00,1.49
4385.00,1.49
4384.00,1.49
4383.00,1.49
4382.00,1.49
4381.00,1.49
4380.00,1.49
4379.00,1.49
4378.00,1.49
4377.00,1.49
4376.00,1.49
4375.00,1.49
4374.00,1.49
4373.00,1.49
4372.00,1.49
4371.00,1.49
4370.00,1.49
4369.00,1.49
4368.00,1.50
4367.00,1.50
4366.00,1.50
4365.00,1.50
4364.00,1.50
4363.00,1.50
4362.00,1.50
4361.00,1.50
4360.00,1.50
4359.00,1.50
4358.00,1.50
4357.00,1.50
4356.00,1.50
4355.00,1.50
4354.00,1.50
4353.00,1.50
4352.00,1.50
4351.00,1.50
4350.00,1.50
4349.00,1.50
4348.00,1.50
4347.00,1.50
4346.00,1.50
4345.00,1.50
4344.00,1.50
4343.00,1.51
4342.00,1.51
4341.00,1.51
4340.00,1.51
4339.00,1.51
4338.00,1.51
4337.00,1.51
4336.00,1.52
4335.00,1.52
4334.00,1.52
4333.00,1.52
4332.00,1.52
4331.00,1.52
4330.00,1.52
4329.00,1.53
4328.00,1.53
4327.00,1.53
4326.00,1.53
4325.00,1.53
4324.00,1.53
4323.00,1.53
4322.00,1.53
4321.00,1.53
4320.00,1.53
4319.00,1.53
4318.00,1.53
4317.00,1.53
4316.00,1.53
4315.00,1.53
4314.00,1.54
4313.00,1.54
4312.00,1.54
4311.00,1.54
4310.00,1.54
4309.00,1.54
4308.00,1.55
4307.00,1.55
4306.00,1.55
4305.00,1.55
4304.00,1.55
4303.00,1.55
4302.00,1.56
4301.00,1.56
4300.00,1.56
4299.00,1.56
4298.00,1.56
4297.00,1.56
4296.00,1.56
4295.00,1.56
4294.00,1.56
4293.00,1.56
4292.00,1.56
4291.00,1.56
4290.00,1.56
4289.00,1.56
4288.00,1.56
4287.00,1.56
4286.00,1.56
4285.00,1.56
4284.00,1.56
4283.00,1.56
4282.00,1.56
4281.00,1.56
4280.00,1.56
4279.00,1.57
4278.00,1.57
4277.00,1.57
4276.00,1.57
4275.00,1.57
4274.00,1.57
4273.00,1.57
4272.00,1.57
4271.00,1.57
4270.00,1.57
4269.00,1.57
4268.00,1.57
4267.00,1.57
4266.00,1.57
4265.00,1.57
4264.00,1.57
4263.00,1.57
4262.00,1.57
4261.00,1.57
4260.00,1.57
4259.00,1.57
4258.00,1.57
4257.00,1.58
4256.00,1.58
4255.00,1.58
4254.00,1.58
4253.00,1.58
4252.00,1.59
4251.00,1.59
4250.00,1.59
4249.00,1.59
4248.00,1.59
4247.00,1.60
4246.00,1.60
4245.00,1.60
4244.00,1.60
4243.00,1.60
4242.00,1.60
4241.00,1.60
4240.00,1.60
4239.00,1.60
4238.00,1.60
4237.00,1.60
4236.00,1.60
4235.00,1.60
4234.00,1.60
4233.00,1.60
4232.00,1.60
4231.00,1.60
4230.00,1.60
4229.00,1.60
4228.00,1.60
4227.00,1.60
4226.00,1.60
4225.00,1.60
4224.00,1.60
4223.00,1.60
4222.00,1.60
4221.00,1.60
4220.00,1.60
4219.00,1.60
4218.00,1.60
4217.00,1.60
4216.00,1.60
4215.00,1.60
4214.00,1.61
4213.00,1.61
4212.00,1.61
4211.00,1.61
4210.00,1.61
4209.00,1.61
4208.00,1.61
4207.00,1.62
4206.00,1.62
4205.00,1.62
4204.00,1.62
4203.00,1.62
4202.00,1.62
4201.00,1.63
4200.00,1.63
4199.00,1.63
4198.00,1.63
4197.00,1.63
4196.00,1.63
4195.00,1.63
4194.00,1.63
4193.00,1.63
4192.00,1.63
4191.00,1.63
4190.00,1.63
4189.00,1.63
4188.00,1.63
4187.00,1.63
4186.00,1.63
4185.00,1.63
4184.00,1.64
4183.00,1.64
4182.00,1.64
4181.00,1.64
4180.00,1.64
4179.00,1.64
4178.00,1.64
4177.00,1.64
4176.00,1.64
4175.00,1.64
4174.00,1.64
4173.00,1.64
4172.00,1.64
4171.00,1.64
4170.00,1.64
4169.00,1.65
4168.00,1.65
4167.00,1.65
4166.00,1.65
4165.00,1.65
4164.00,1.65
4163.00,1.65
4162.00,1.65
4161.00,1.65
4160.00,1.65
4159.00,1.65
4158.00,1.65
4157.00,1.65
4156.00,1.65
4155.00,1.65
4154.00,1.65
4153.00,1.65
4152.00,1.65
4151.00,1.65
4150.00,1.65
4149.00,1.65
4148.00,1.65
4147.00,1.66
4146.00,1.66
4145.00,1.66
4144.00,1.66
4143.00,1.66
4142.00,1.66
4141.00,1.66
4140.00,1.66
4139.00,1.66
4138.00,1.66
4137.00,1.66
4136.00,1.66
4135.00,1.66
4134.00,1.66
4133.00,1.66
4132.00,1.66
4131.00,1.66
4130.00,1.66
4129.00,1.66
4128.00,1.66
4127.00,1.66
4126.00,1.66
4125.00,1.66
4124.00,1.66
4123.00,1.66
4122.00,1.66
4121.00,1.66
4120.00,1.67
4119.00,1.67
4118.00,1.67
4117.00,1.67
4116.00,1.67
4115.00,1.67
4114.00,1.68
4113.00,1.68
4112.00,1.68
4111.00,1.68
4110.00,1.68
4109.00,1.68
4108.00,1.68
4107.00,1.68
4106.00,1.68
4105.00,1.68
4104.00,1.68
4103.00,1.68
4102.00,1.68
4101.00,1.68
4100.00,1.68
4099.00,1.68
4098.00,1.68
4097.00,1.68
4096.00,1.68
4095.00,1.68
4094.00,1.68
4093.00,1.68
4092.00,1.68
4091.00,1.69
4090.00,1.69
4089.00,1.69
4088.00,1.69
4087.00,1.69
4086.00,1.69
4085.00,1.69
4084.00,1.69
4083.00,1.69
4082.00,1.68
4081.00,1.68
4080.00,1.68
4079.00,1.68
4078.00,1.68
4077.00,1.68
4076.00,1.68
4075.00,1.68
4074.00,1.68
4073.00,1.68
4072.00,1.68
4071.00,1.68
4070.00,1.68
4069.00,1.68
4068.00,1.68
4067.00,1.68
4066.00,1.68
4065.00,1.69
4064.00,1.69
4063.00,1.69
4062.00,1.69
4061.00,1.69
4060.00,1.69
4059.00,1.70
4058.00,1.70
4057.00,1.70
4056.00,1.70
4055.00,1.70
4054.00,1.70
4053.00,1.70
4052.00,1.70
4051.00,1.70
4050.00,1.70
4049.00,1.70
4048.00,1.70
4047.00,1.70
4046.00,1.70
4045.00,1.70
4044.00,1.70
4043.00,1.70
4042.00,1.70
4041.00,1.70
4040.00,1.70
4039.00,1.70
4038.00,1.70
4037.00,1.70
4036.00,1.70
4035.00,1.70
4034.00,1.70
4033.00,1.70
4032.00,1.70
4031.00,1.70
4030.00,1.69
4029.00,1.69
4028.00,1.69
4027.00,1.69
4026.00,1.69
4025.00,1.69
4024.00,1.69
4023.00,1.69
4022.00,1.69
4021.00,1.69
4020.00,1.69
4019.00,1.69
4018.00,1.69
4017.00,1.70
4016.00,1.70
4015.00,1.70
4014.00,1.70
4013.00,1.70
4012.00,1.71
4011.00,1.71
4010.00,1.71
4009.00,1.72
4008.00,1.72
4007.00,1.72
4006.00,1.73
4005.00,1.73
4004.00,1.73
4003.00,1.74
4002.00,1.74
4001.00,1.74
4000.00,1.75
