创建为新数据集,样品 116 用户 Administrator 日期 星期六, 七月 21 2018
cm-1,%T
10000.00,1.96
9999.00,1.96
9998.00,1.96
9997.00,1.95
9996.00,1.95
9995.00,1.95
9994.00,1.95
9993.00,1.94
9992.00,1.94
9991.00,1.94
9990.00,1.94
9989.00,1.94
9988.00,1.93
9987.00,1.93
9986.00,1.93
9985.00,1.93
9984.00,1.92
9983.00,1.92
9982.00,1.92
9981.00,1.92
9980.00,1.92
9979.00,1.91
9978.00,1.91
9977.00,1.91
9976.00,1.91
9975.00,1.91
9974.00,1.91
9973.00,1.91
9972.00,1.91
9971.00,1.91
9970.00,1.92
9969.00,1.92
9968.00,1.92
9967.00,1.93
9966.00,1.93
9965.00,1.94
9964.00,1.94
9963.00,1.95
9962.00,1.95
9961.00,1.95
9960.00,1.96
9959.00,1.96
9958.00,1.96
9957.00,1.96
9956.00,1.96
9955.00,1.96
9954.00,1.96
9953.00,1.96
9952.00,1.96
9951.00,1.96
9950.00,1.95
9949.00,1.95
9948.00,1.95
9947.00,1.95
9946.00,1.94
9945.00,1.94
9944.00,1.94
9943.00,1.93
9942.00,1.93
9941.00,1.93
9940.00,1.93
9939.00,1.92
9938.00,1.92
9937.00,1.92
9936.00,1.91
9935.00,1.91
9934.00,1.91
9933.00,1.90
9932.00,1.90
9931.00,1.90
9930.00,1.90
9929.00,1.89
9928.00,1.89
9927.00,1.89
9926.00,1.89
9925.00,1.89
9924.00,1.89
9923.00,1.89
9922.00,1.89
9921.00,1.89
9920.00,1.89
9919.00,1.89
9918.00,1.89
9917.00,1.90
9916.00,1.90
9915.00,1.90
9914.00,1.90
9913.00,1.91
9912.00,1.91
9911.00,1.91
9910.00,1.92
9909.00,1.92
9908.00,1.92
9907.00,1.92
9906.00,1.93
9905.00,1.93
9904.00,1.93
9903.00,1.93
9902.00,1.93
9901.00,1.94
9900.00,1.94
9899.00,1.94
9898.00,1.94
9897.00,1.94
9896.00,1.94
9895.00,1.94
9894.00,1.94
9893.00,1.94
9892.00,1.94
9891.00,1.94
9890.00,1.94
9889.00,1.94
9888.00,1.94
9887.00,1.94
9886.00,1.94
9885.00,1.94
9884.00,1.94
9883.00,1.94
9882.00,1.93
9881.00,1.93
9880.00,1.93
9879.00,1.93
9878.00,1.92
9877.00,1.92
9876.00,1.92
9875.00,1.92
9874.00,1.91
9873.00,1.91
9872.00,1.91
9871.00,1.91
9870.00,1.91
9869.00,1.91
9868.00,1.91
9867.00,1.91
9866.00,1.91
9865.00,1.91
9864.00,1.91
9863.00,1.91
9862.00,1.91
9861.00,1.91
9860.00,1.91
9859.00,1.91
9858.00,1.91
9857.00,1.91
9856.00,1.91
9855.00,1.91
9854.00,1.91
9853.00,1.90
9852.00,1.90
9851.00,1.90
9850.00,1.90
9849.00,1.90
9848.00,1.90
9847.00,1.90
9846.00,1.90
9845.00,1.91
9844.00,1.91
9843.00,1.91
9842.00,1.92
9841.00,1.92
9840.00,1.92
9839.00,1.93
9838.00,1.93
9837.00,1.93
9836.00,1.94
9835.00,1.94
9834.00,1.94
9833.00,1.94
9832.00,1.94
9831.00,1.94
9830.00,1.94
9829.00,1.93
9828.00,1.93
9827.00,1.93
9826.00,1.92
9825.00,1.92
9824.00,1.92
9823.00,1.91
9822.00,1.91
9821.00,1.90
9820.00,1.90
9819.00,1.90
9818.00,1.90
9817.00,1.89
9816.00,1.89
9815.00,1.89
9814.00,1.89
9813.00,1.89
9812.00,1.89
9811.00,1.89
9810.00,1.89
9809.00,1.89
9808.00,1.89
9807.00,1.89
9806.00,1.89
9805.00,1.89
9804.00,1.89
9803.00,1.89
9802.00,1.89
9801.00,1.89
9800.00,1.90
9799.00,1.90
9798.00,1.90
9797.00,1.90
9796.00,1.90
9795.00,1.90
9794.00,1.90
9793.00,1.90
9792.00,1.90
9791.00,1.91
9790.00,1.91
9789.00,1.91
9788.00,1.91
9787.00,1.91
9786.00,1.91
9785.00,1.91
9784.00,1.91
9783.00,1.91
9782.00,1.91
9781.00,1.91
9780.00,1.92
9779.00,1.92
9778.00,1.92
9777.00,1.92
9776.00,1.92
9775.00,1.92
9774.00,1.92
9773.00,1.92
9772.00,1.92
9771.00,1.92
9770.00,1.92
9769.00,1.92
9768.00,1.91
9767.00,1.91
9766.00,1.91
9765.00,1.91
9764.00,1.91
9763.00,1.91
9762.00,1.91
9761.00,1.90
9760.00,1.90
9759.00,1.90
9758.00,1.90
9757.00,1.90
9756.00,1.91
9755.00,1.91
9754.00,1.91
9753.00,1.91
9752.00,1.91
9751.00,1.91
9750.00,1.91
9749.00,1.91
9748.00,1.91
9747.00,1.91
9746.00,1.91
9745.00,1.91
9744.00,1.91
9743.00,1.91
9742.00,1.91
9741.00,1.91
9740.00,1.90
9739.00,1.90
9738.00,1.90
9737.00,1.90
9736.00,1.90
9735.00,1.90
9734.00,1.90
9733.00,1.90
9732.00,1.90
9731.00,1.90
9730.00,1.91
9729.00,1.91
9728.00,1.91
9727.00,1.91
9726.00,1.91
9725.00,1.91
9724.00,1.92
9723.00,1.92
9722.00,1.92
9721.00,1.92
9720.00,1.92
9719.00,1.92
9718.00,1.92
9717.00,1.92
9716.00,1.92
9715.00,1.92
9714.00,1.93
9713.00,1.93
9712.00,1.93
9711.00,1.93
9710.00,1.93
9709.00,1.94
9708.00,1.94
9707.00,1.94
9706.00,1.94
9705.00,1.94
9704.00,1.94
9703.00,1.94
9702.00,1.94
9701.00,1.94
9700.00,1.94
9699.00,1.94
9698.00,1.94
9697.00,1.94
9696.00,1.93
9695.00,1.93
9694.00,1.93
9693.00,1.93
9692.00,1.92
9691.00,1.92
9690.00,1.92
9689.00,1.92
9688.00,1.92
9687.00,1.91
9686.00,1.91
9685.00,1.91
9684.00,1.91
9683.00,1.91
9682.00,1.91
9681.00,1.91
9680.00,1.91
9679.00,1.91
9678.00,1.90
9677.00,1.90
9676.00,1.90
9675.00,1.90
9674.00,1.90
9673.00,1.90
9672.00,1.90
9671.00,1.90
9670.00,1.90
9669.00,1.90
9668.00,1.90
9667.00,1.90
9666.00,1.90
9665.00,1.90
9664.00,1.90
9663.00,1.91
9662.00,1.91
9661.00,1.91
9660.00,1.91
9659.00,1.91
9658.00,1.92
9657.00,1.92
9656.00,1.92
9655.00,1.92
9654.00,1.92
9653.00,1.92
9652.00,1.93
9651.00,1.93
9650.00,1.93
9649.00,1.93
9648.00,1.93
9647.00,1.93
9646.00,1.93
9645.00,1.93
9644.00,1.93
9643.00,1.93
9642.00,1.93
9641.00,1.93
9640.00,1.93
9639.00,1.93
9638.00,1.93
9637.00,1.93
9636.00,1.93
9635.00,1.93
9634.00,1.93
9633.00,1.93
9632.00,1.93
9631.00,1.93
9630.00,1.92
9629.00,1.92
9628.00,1.92
9627.00,1.92
9626.00,1.92
9625.00,1.92
9624.00,1.92
9623.00,1.92
9622.00,1.92
9621.00,1.92
9620.00,1.92
9619.00,1.92
9618.00,1.92
9617.00,1.92
9616.00,1.92
9615.00,1.92
9614.00,1.92
9613.00,1.92
9612.00,1.92
9611.00,1.92
9610.00,1.92
9609.00,1.92
9608.00,1.92
9607.00,1.92
9606.00,1.92
9605.00,1.92
9604.00,1.92
9603.00,1.92
9602.00,1.92
9601.00,1.92
9600.00,1.92
9599.00,1.92
9598.00,1.92
9597.00,1.92
9596.00,1.92
9595.00,1.92
9594.00,1.92
9593.00,1.93
9592.00,1.93
9591.00,1.93
9590.00,1.93
9589.00,1.93
9588.00,1.93
9587.00,1.93
9586.00,1.93
9585.00,1.93
9584.00,1.93
9583.00,1.93
9582.00,1.93
9581.00,1.93
9580.00,1.92
9579.00,1.92
9578.00,1.92
9577.00,1.92
9576.00,1.92
9575.00,1.91
9574.00,1.91
9573.00,1.91
9572.00,1.91
9571.00,1.91
9570.00,1.91
9569.00,1.91
9568.00,1.91
9567.00,1.91
9566.00,1.91
9565.00,1.91
9564.00,1.91
9563.00,1.91
9562.00,1.91
9561.00,1.91
9560.00,1.91
9559.00,1.91
9558.00,1.91
9557.00,1.91
9556.00,1.92
9555.00,1.92
9554.00,1.92
9553.00,1.92
9552.00,1.92
9551.00,1.92
9550.00,1.92
9549.00,1.92
9548.00,1.91
9547.00,1.91
9546.00,1.91
9545.00,1.91
9544.00,1.91
9543.00,1.91
9542.00,1.91
9541.00,1.91
9540.00,1.91
9539.00,1.90
9538.00,1.90
9537.00,1.90
9536.00,1.90
9535.00,1.90
9534.00,1.90
9533.00,1.91
9532.00,1.91
9531.00,1.91
9530.00,1.91
9529.00,1.91
9528.00,1.92
9527.00,1.92
9526.00,1.92
9525.00,1.92
9524.00,1.93
9523.00,1.93
9522.00,1.93
9521.00,1.93
9520.00,1.93
9519.00,1.93
9518.00,1.93
9517.00,1.94
9516.00,1.94
9515.00,1.94
9514.00,1.94
9513.00,1.94
9512.00,1.94
9511.00,1.94
9510.00,1.94
9509.00,1.94
9508.00,1.94
9507.00,1.94
9506.00,1.94
9505.00,1.94
9504.00,1.94
9503.00,1.94
9502.00,1.94
9501.00,1.94
9500.00,1.94
9499.00,1.94
9498.00,1.94
9497.00,1.94
9496.00,1.94
9495.00,1.94
9494.00,1.94
9493.00,1.94
9492.00,1.94
9491.00,1.94
9490.00,1.94
9489.00,1.94
9488.00,1.94
9487.00,1.94
9486.00,1.94
9485.00,1.94
9484.00,1.93
9483.00,1.93
9482.00,1.93
9481.00,1.93
9480.00,1.93
9479.00,1.93
9478.00,1.93
9477.00,1.92
9476.00,1.92
9475.00,1.92
9474.00,1.92
9473.00,1.92
9472.00,1.92
9471.00,1.92
9470.00,1.92
9469.00,1.92
9468.00,1.92
9467.00,1.92
9466.00,1.92
9465.00,1.92
9464.00,1.92
9463.00,1.92
9462.00,1.92
9461.00,1.92
9460.00,1.92
9459.00,1.92
9458.00,1.92
9457.00,1.92
9456.00,1.92
9455.00,1.92
9454.00,1.92
9453.00,1.92
9452.00,1.93
9451.00,1.93
9450.00,1.93
9449.00,1.93
9448.00,1.93
9447.00,1.93
9446.00,1.93
9445.00,1.94
9444.00,1.94
9443.00,1.94
9442.00,1.94
9441.00,1.94
9440.00,1.94
9439.00,1.94
9438.00,1.94
9437.00,1.94
9436.00,1.95
9435.00,1.95
9434.00,1.95
9433.00,1.95
9432.00,1.95
9431.00,1.95
9430.00,1.95
9429.00,1.95
9428.00,1.95
9427.00,1.95
9426.00,1.95
9425.00,1.95
9424.00,1.95
9423.00,1.94
9422.00,1.94
9421.00,1.94
9420.00,1.94
9419.00,1.94
9418.00,1.93
9417.00,1.93
9416.00,1.93
9415.00,1.93
9414.00,1.93
9413.00,1.92
9412.00,1.92
9411.00,1.92
9410.00,1.92
9409.00,1.92
9408.00,1.92
9407.00,1.92
9406.00,1.92
9405.00,1.92
9404.00,1.92
9403.00,1.91
9402.00,1.91
9401.00,1.91
9400.00,1.91
9399.00,1.91
9398.00,1.91
9397.00,1.91
9396.00,1.90
9395.00,1.90
9394.00,1.90
9393.00,1.90
9392.00,1.90
9391.00,1.90
9390.00,1.90
9389.00,1.89
9388.00,1.89
9387.00,1.89
9386.00,1.89
9385.00,1.89
9384.00,1.89
9383.00,1.89
9382.00,1.89
9381.00,1.89
9380.00,1.89
9379.00,1.90
9378.00,1.90
9377.00,1.90
9376.00,1.90
9375.00,1.90
9374.00,1.91
9373.00,1.91
9372.00,1.91
9371.00,1.92
9370.00,1.92
9369.00,1.92
9368.00,1.92
9367.00,1.92
9366.00,1.93
9365.00,1.93
9364.00,1.93
9363.00,1.93
9362.00,1.93
9361.00,1.93
9360.00,1.93
9359.00,1.93
9358.00,1.93
9357.00,1.93
9356.00,1.93
9355.00,1.93
9354.00,1.93
9353.00,1.93
9352.00,1.93
9351.00,1.93
9350.00,1.93
9349.00,1.93
9348.00,1.93
9347.00,1.93
9346.00,1.94
9345.00,1.94
9344.00,1.94
9343.00,1.94
9342.00,1.94
9341.00,1.94
9340.00,1.94
9339.00,1.94
9338.00,1.94
9337.00,1.94
9336.00,1.94
9335.00,1.94
9334.00,1.94
9333.00,1.94
9332.00,1.93
9331.00,1.93
9330.00,1.93
9329.00,1.93
9328.00,1.93
9327.00,1.93
9326.00,1.93
9325.00,1.93
9324.00,1.93
9323.00,1.93
9322.00,1.93
9321.00,1.93
9320.00,1.93
9319.00,1.93
9318.00,1.93
9317.00,1.93
9316.00,1.94
9315.00,1.94
9314.00,1.94
9313.00,1.94
9312.00,1.94
9311.00,1.94
9310.00,1.94
9309.00,1.94
9308.00,1.94
9307.00,1.94
9306.00,1.94
9305.00,1.94
9304.00,1.94
9303.00,1.94
9302.00,1.94
9301.00,1.94
9300.00,1.94
9299.00,1.94
9298.00,1.94
9297.00,1.94
9296.00,1.94
9295.00,1.93
9294.00,1.93
9293.00,1.93
9292.00,1.93
9291.00,1.93
9290.00,1.93
9289.00,1.93
9288.00,1.93
9287.00,1.93
9286.00,1.93
9285.00,1.93
9284.00,1.93
9283.00,1.93
9282.00,1.93
9281.00,1.93
9280.00,1.93
9279.00,1.93
9278.00,1.93
9277.00,1.93
9276.00,1.93
9275.00,1.93
9274.00,1.93
9273.00,1.93
9272.00,1.93
9271.00,1.93
9270.00,1.93
9269.00,1.93
9268.00,1.93
9267.00,1.93
9266.00,1.93
9265.00,1.93
9264.00,1.94
9263.00,1.94
9262.00,1.94
9261.00,1.94
9260.00,1.94
9259.00,1.94
9258.00,1.94
9257.00,1.94
9256.00,1.93
9255.00,1.93
9254.00,1.93
9253.00,1.93
9252.00,1.93
9251.00,1.93
9250.00,1.93
9249.00,1.93
9248.00,1.93
9247.00,1.93
9246.00,1.92
9245.00,1.92
9244.00,1.92
9243.00,1.92
9242.00,1.92
9241.00,1.92
9240.00,1.92
9239.00,1.92
9238.00,1.92
9237.00,1.92
9236.00,1.92
9235.00,1.92
9234.00,1.92
9233.00,1.92
9232.00,1.92
9231.00,1.92
9230.00,1.92
9229.00,1.92
9228.00,1.92
9227.00,1.92
9226.00,1.92
9225.00,1.92
9224.00,1.92
9223.00,1.92
9222.00,1.92
9221.00,1.92
9220.00,1.92
9219.00,1.92
9218.00,1.92
9217.00,1.92
9216.00,1.92
9215.00,1.92
9214.00,1.92
9213.00,1.92
9212.00,1.92
9211.00,1.92
9210.00,1.92
9209.00,1.92
9208.00,1.92
9207.00,1.92
9206.00,1.92
9205.00,1.92
9204.00,1.92
9203.00,1.92
9202.00,1.92
9201.00,1.91
9200.00,1.91
9199.00,1.91
9198.00,1.91
9197.00,1.91
9196.00,1.91
9195.00,1.91
9194.00,1.91
9193.00,1.91
9192.00,1.91
9191.00,1.92
9190.00,1.92
9189.00,1.92
9188.00,1.92
9187.00,1.92
9186.00,1.92
9185.00,1.92
9184.00,1.93
9183.00,1.93
9182.00,1.93
9181.00,1.93
9180.00,1.93
9179.00,1.93
9178.00,1.93
9177.00,1.94
9176.00,1.94
9175.00,1.94
9174.00,1.94
9173.00,1.94
9172.00,1.94
9171.00,1.94
9170.00,1.94
9169.00,1.94
9168.00,1.94
9167.00,1.94
9166.00,1.94
9165.00,1.94
9164.00,1.94
9163.00,1.94
9162.00,1.94
9161.00,1.93
9160.00,1.93
9159.00,1.93
9158.00,1.93
9157.00,1.93
9156.00,1.92
9155.00,1.92
9154.00,1.92
9153.00,1.92
9152.00,1.92
9151.00,1.92
9150.00,1.92
9149.00,1.92
9148.00,1.92
9147.00,1.92
9146.00,1.92
9145.00,1.93
9144.00,1.93
9143.00,1.93
9142.00,1.94
9141.00,1.94
9140.00,1.94
9139.00,1.95
9138.00,1.95
9137.00,1.95
9136.00,1.95
9135.00,1.96
9134.00,1.96
9133.00,1.96
9132.00,1.96
9131.00,1.96
9130.00,1.96
9129.00,1.96
9128.00,1.96
9127.00,1.96
9126.00,1.95
9125.00,1.95
9124.00,1.95
9123.00,1.95
9122.00,1.95
9121.00,1.95
9120.00,1.95
9119.00,1.95
9118.00,1.95
9117.00,1.94
9116.00,1.94
9115.00,1.94
9114.00,1.95
9113.00,1.95
9112.00,1.95
9111.00,1.95
9110.00,1.95
9109.00,1.95
9108.00,1.95
9107.00,1.95
9106.00,1.95
9105.00,1.95
9104.00,1.95
9103.00,1.95
9102.00,1.95
9101.00,1.95
9100.00,1.95
9099.00,1.95
9098.00,1.94
9097.00,1.94
9096.00,1.94
9095.00,1.94
9094.00,1.94
9093.00,1.94
9092.00,1.94
9091.00,1.94
9090.00,1.94
9089.00,1.94
9088.00,1.93
9087.00,1.93
9086.00,1.93
9085.00,1.93
9084.00,1.93
9083.00,1.93
9082.00,1.93
9081.00,1.93
9080.00,1.93
9079.00,1.93
9078.00,1.93
9077.00,1.93
9076.00,1.93
9075.00,1.93
9074.00,1.93
9073.00,1.92
9072.00,1.92
9071.00,1.92
9070.00,1.92
9069.00,1.92
9068.00,1.92
9067.00,1.92
9066.00,1.93
9065.00,1.93
9064.00,1.93
9063.00,1.93
9062.00,1.93
9061.00,1.93
9060.00,1.93
9059.00,1.94
9058.00,1.94
9057.00,1.94
9056.00,1.94
9055.00,1.94
9054.00,1.94
9053.00,1.94
9052.00,1.94
9051.00,1.95
9050.00,1.95
9049.00,1.95
9048.00,1.95
9047.00,1.94
9046.00,1.94
9045.00,1.94
9044.00,1.94
9043.00,1.94
9042.00,1.94
9041.00,1.94
9040.00,1.94
9039.00,1.93
9038.00,1.93
9037.00,1.93
9036.00,1.93
9035.00,1.92
9034.00,1.92
9033.00,1.92
9032.00,1.92
9031.00,1.91
9030.00,1.91
9029.00,1.91
9028.00,1.91
9027.00,1.91
9026.00,1.91
9025.00,1.90
9024.00,1.90
9023.00,1.90
9022.00,1.91
9021.00,1.91
9020.00,1.91
9019.00,1.91
9018.00,1.91
9017.00,1.91
9016.00,1.91
9015.00,1.91
9014.00,1.91
9013.00,1.91
9012.00,1.91
9011.00,1.91
9010.00,1.91
9009.00,1.91
9008.00,1.91
9007.00,1.91
9006.00,1.91
9005.00,1.91
9004.00,1.91
9003.00,1.91
9002.00,1.91
9001.00,1.90
9000.00,1.90
8999.00,1.90
8998.00,1.90
8997.00,1.91
8996.00,1.91
8995.00,1.91
8994.00,1.91
8993.00,1.91
8992.00,1.91
8991.00,1.91
8990.00,1.92
8989.00,1.92
8988.00,1.92
8987.00,1.92
8986.00,1.92
8985.00,1.93
8984.00,1.93
8983.00,1.93
8982.00,1.93
8981.00,1.93
8980.00,1.93
8979.00,1.94
8978.00,1.94
8977.00,1.94
8976.00,1.94
8975.00,1.94
8974.00,1.94
8973.00,1.94
8972.00,1.94
8971.00,1.94
8970.00,1.94
8969.00,1.94
8968.00,1.94
8967.00,1.94
8966.00,1.94
8965.00,1.94
8964.00,1.94
8963.00,1.94
8962.00,1.94
8961.00,1.94
8960.00,1.93
8959.00,1.93
8958.00,1.93
8957.00,1.93
8956.00,1.93
8955.00,1.93
8954.00,1.93
8953.00,1.93
8952.00,1.93
8951.00,1.93
8950.00,1.93
8949.00,1.93
8948.00,1.94
8947.00,1.94
8946.00,1.94
8945.00,1.94
8944.00,1.94
8943.00,1.94
8942.00,1.94
8941.00,1.94
8940.00,1.94
8939.00,1.94
8938.00,1.93
8937.00,1.93
8936.00,1.93
8935.00,1.93
8934.00,1.93
8933.00,1.93
8932.00,1.93
8931.00,1.93
8930.00,1.92
8929.00,1.92
8928.00,1.92
8927.00,1.92
8926.00,1.92
8925.00,1.92
8924.00,1.92
8923.00,1.92
8922.00,1.92
8921.00,1.92
8920.00,1.92
8919.00,1.92
8918.00,1.92
8917.00,1.92
8916.00,1.92
8915.00,1.92
8914.00,1.92
8913.00,1.93
8912.00,1.93
8911.00,1.93
8910.00,1.93
8909.00,1.93
8908.00,1.93
8907.00,1.93
8906.00,1.93
8905.00,1.93
8904.00,1.93
8903.00,1.93
8902.00,1.93
8901.00,1.93
8900.00,1.93
8899.00,1.93
8898.00,1.93
8897.00,1.93
8896.00,1.93
8895.00,1.93
8894.00,1.93
8893.00,1.93
8892.00,1.93
8891.00,1.93
8890.00,1.93
8889.00,1.93
8888.00,1.93
8887.00,1.93
8886.00,1.93
8885.00,1.93
8884.00,1.93
8883.00,1.94
8882.00,1.94
8881.00,1.94
8880.00,1.94
8879.00,1.94
8878.00,1.94
8877.00,1.95
8876.00,1.95
8875.00,1.95
8874.00,1.95
8873.00,1.95
8872.00,1.95
8871.00,1.95
8870.00,1.95
8869.00,1.95
8868.00,1.95
8867.00,1.95
8866.00,1.95
8865.00,1.95
8864.00,1.95
8863.00,1.94
8862.00,1.94
8861.00,1.94
8860.00,1.93
8859.00,1.93
8858.00,1.93
8857.00,1.92
8856.00,1.92
8855.00,1.92
8854.00,1.92
8853.00,1.92
8852.00,1.92
8851.00,1.91
8850.00,1.91
8849.00,1.91
8848.00,1.91
8847.00,1.91
8846.00,1.91
8845.00,1.92
8844.00,1.92
8843.00,1.92
8842.00,1.92
8841.00,1.92
8840.00,1.92
8839.00,1.92
8838.00,1.92
8837.00,1.92
8836.00,1.92
8835.00,1.92
8834.00,1.92
8833.00,1.92
8832.00,1.92
8831.00,1.92
8830.00,1.92
8829.00,1.92
8828.00,1.92
8827.00,1.91
8826.00,1.91
8825.00,1.91
8824.00,1.91
8823.00,1.91
8822.00,1.91
8821.00,1.91
8820.00,1.90
8819.00,1.90
8818.00,1.90
8817.00,1.90
8816.00,1.90
8815.00,1.90
8814.00,1.91
8813.00,1.91
8812.00,1.91
8811.00,1.91
8810.00,1.91
8809.00,1.91
8808.00,1.92
8807.00,1.92
8806.00,1.92
8805.00,1.92
8804.00,1.93
8803.00,1.93
8802.00,1.93
8801.00,1.93
8800.00,1.94
8799.00,1.94
8798.00,1.94
8797.00,1.94
8796.00,1.94
8795.00,1.94
8794.00,1.94
8793.00,1.94
8792.00,1.93
8791.00,1.93
8790.00,1.93
8789.00,1.92
8788.00,1.92
8787.00,1.92
8786.00,1.91
8785.00,1.91
8784.00,1.91
8783.00,1.90
8782.00,1.90
8781.00,1.90
8780.00,1.89
8779.00,1.89
8778.00,1.89
8777.00,1.88
8776.00,1.88
8775.00,1.88
8774.00,1.88
8773.00,1.88
8772.00,1.87
8771.00,1.87
8770.00,1.87
8769.00,1.87
8768.00,1.87
8767.00,1.87
8766.00,1.87
8765.00,1.87
8764.00,1.87
8763.00,1.86
8762.00,1.86
8761.00,1.86
8760.00,1.86
8759.00,1.86
8758.00,1.87
8757.00,1.87
8756.00,1.87
8755.00,1.87
8754.00,1.87
8753.00,1.87
8752.00,1.87
8751.00,1.87
8750.00,1.87
8749.00,1.87
8748.00,1.87
8747.00,1.87
8746.00,1.87
8745.00,1.88
8744.00,1.88
8743.00,1.88
8742.00,1.88
8741.00,1.88
8740.00,1.88
8739.00,1.88
8738.00,1.88
8737.00,1.88
8736.00,1.88
8735.00,1.88
8734.00,1.88
8733.00,1.88
8732.00,1.88
8731.00,1.88
8730.00,1.88
8729.00,1.88
8728.00,1.88
8727.00,1.87
8726.00,1.87
8725.00,1.87
8724.00,1.87
8723.00,1.87
8722.00,1.87
8721.00,1.86
8720.00,1.86
8719.00,1.86
8718.00,1.86
8717.00,1.86
8716.00,1.86
8715.00,1.86
8714.00,1.86
8713.00,1.86
8712.00,1.86
8711.00,1.86
8710.00,1.86
8709.00,1.86
8708.00,1.86
8707.00,1.86
8706.00,1.86
8705.00,1.86
8704.00,1.86
8703.00,1.86
8702.00,1.86
8701.00,1.86
8700.00,1.86
8699.00,1.86
8698.00,1.86
8697.00,1.86
8696.00,1.86
8695.00,1.86
8694.00,1.86
8693.00,1.86
8692.00,1.86
8691.00,1.85
8690.00,1.85
8689.00,1.85
8688.00,1.85
8687.00,1.85
8686.00,1.85
8685.00,1.85
8684.00,1.84
8683.00,1.84
8682.00,1.84
8681.00,1.84
8680.00,1.84
8679.00,1.84
8678.00,1.84
8677.00,1.84
8676.00,1.84
8675.00,1.84
8674.00,1.84
8673.00,1.84
8672.00,1.85
8671.00,1.85
8670.00,1.85
8669.00,1.85
8668.00,1.85
8667.00,1.86
8666.00,1.86
8665.00,1.86
8664.00,1.86
8663.00,1.87
8662.00,1.87
8661.00,1.87
8660.00,1.87
8659.00,1.87
8658.00,1.87
8657.00,1.87
8656.00,1.87
8655.00,1.87
8654.00,1.87
8653.00,1.87
8652.00,1.87
8651.00,1.87
8650.00,1.86
8649.00,1.86
8648.00,1.86
8647.00,1.86
8646.00,1.86
8645.00,1.86
8644.00,1.86
8643.00,1.85
8642.00,1.85
8641.00,1.85
8640.00,1.85
8639.00,1.85
8638.00,1.85
8637.00,1.84
8636.00,1.84
8635.00,1.84
8634.00,1.84
8633.00,1.84
8632.00,1.84
8631.00,1.84
8630.00,1.84
8629.00,1.84
8628.00,1.84
8627.00,1.84
8626.00,1.83
8625.00,1.83
8624.00,1.83
8623.00,1.83
8622.00,1.83
8621.00,1.83
8620.00,1.83
8619.00,1.83
8618.00,1.83
8617.00,1.83
8616.00,1.82
8615.00,1.82
8614.00,1.82
8613.00,1.82
8612.00,1.82
8611.00,1.82
8610.00,1.82
8609.00,1.82
8608.00,1.82
8607.00,1.82
8606.00,1.82
8605.00,1.82
8604.00,1.82
8603.00,1.82
8602.00,1.82
8601.00,1.82
8600.00,1.82
8599.00,1.82
8598.00,1.82
8597.00,1.82
8596.00,1.82
8595.00,1.81
8594.00,1.81
8593.00,1.81
8592.00,1.81
8591.00,1.81
8590.00,1.81
8589.00,1.81
8588.00,1.80
8587.00,1.80
8586.00,1.80
8585.00,1.80
8584.00,1.80
8583.00,1.80
8582.00,1.81
8581.00,1.81
8580.00,1.81
8579.00,1.81
8578.00,1.81
8577.00,1.81
8576.00,1.81
8575.00,1.81
8574.00,1.81
8573.00,1.81
8572.00,1.81
8571.00,1.81
8570.00,1.80
8569.00,1.80
8568.00,1.80
8567.00,1.80
8566.00,1.80
8565.00,1.79
8564.00,1.79
8563.00,1.79
8562.00,1.79
8561.00,1.79
8560.00,1.79
8559.00,1.79
8558.00,1.79
8557.00,1.79
8556.00,1.79
8555.00,1.79
8554.00,1.79
8553.00,1.79
8552.00,1.79
8551.00,1.79
8550.00,1.80
8549.00,1.80
8548.00,1.80
8547.00,1.80
8546.00,1.80
8545.00,1.80
8544.00,1.80
8543.00,1.80
8542.00,1.80
8541.00,1.80
8540.00,1.80
8539.00,1.80
8538.00,1.80
8537.00,1.80
8536.00,1.80
8535.00,1.79
8534.00,1.79
8533.00,1.79
8532.00,1.79
8531.00,1.79
8530.00,1.78
8529.00,1.78
8528.00,1.78
8527.00,1.78
8526.00,1.78
8525.00,1.77
8524.00,1.77
8523.00,1.77
8522.00,1.77
8521.00,1.77
8520.00,1.77
8519.00,1.77
8518.00,1.77
8517.00,1.77
8516.00,1.77
8515.00,1.77
8514.00,1.77
8513.00,1.77
8512.00,1.77
8511.00,1.77
8510.00,1.77
8509.00,1.78
8508.00,1.78
8507.00,1.78
8506.00,1.78
8505.00,1.78
8504.00,1.78
8503.00,1.78
8502.00,1.78
8501.00,1.78
8500.00,1.78
8499.00,1.77
8498.00,1.77
8497.00,1.77
8496.00,1.77
8495.00,1.77
8494.00,1.77
8493.00,1.77
8492.00,1.76
8491.00,1.76
8490.00,1.76
8489.00,1.76
8488.00,1.76
8487.00,1.76
8486.00,1.76
8485.00,1.76
8484.00,1.76
8483.00,1.76
8482.00,1.76
8481.00,1.76
8480.00,1.76
8479.00,1.76
8478.00,1.76
8477.00,1.76
8476.00,1.76
8475.00,1.76
8474.00,1.76
8473.00,1.76
8472.00,1.76
8471.00,1.76
8470.00,1.76
8469.00,1.76
8468.00,1.75
8467.00,1.75
8466.00,1.75
8465.00,1.75
8464.00,1.75
8463.00,1.75
8462.00,1.75
8461.00,1.75
8460.00,1.75
8459.00,1.75
8458.00,1.75
8457.00,1.75
8456.00,1.75
8455.00,1.75
8454.00,1.75
8453.00,1.75
8452.00,1.75
8451.00,1.74
8450.00,1.74
8449.00,1.74
8448.00,1.74
8447.00,1.74
8446.00,1.74
8445.00,1.74
8444.00,1.74
8443.00,1.73
8442.00,1.73
8441.00,1.73
8440.00,1.73
8439.00,1.73
8438.00,1.73
8437.00,1.73
8436.00,1.72
8435.00,1.72
8434.00,1.72
8433.00,1.72
8432.00,1.72
8431.00,1.72
8430.00,1.72
8429.00,1.72
8428.00,1.72
8427.00,1.72
8426.00,1.72
8425.00,1.72
8424.00,1.72
8423.00,1.72
8422.00,1.72
8421.00,1.72
8420.00,1.72
8419.00,1.72
8418.00,1.72
8417.00,1.73
8416.00,1.73
8415.00,1.73
8414.00,1.73
8413.00,1.74
8412.00,1.74
8411.00,1.74
8410.00,1.74
8409.00,1.74
8408.00,1.75
8407.00,1.75
8406.00,1.75
8405.00,1.75
8404.00,1.75
8403.00,1.75
8402.00,1.75
8401.00,1.75
8400.00,1.75
8399.00,1.75
8398.00,1.75
8397.00,1.75
8396.00,1.75
8395.00,1.75
8394.00,1.75
8393.00,1.75
8392.00,1.76
8391.00,1.76
8390.00,1.76
8389.00,1.76
8388.00,1.76
8387.00,1.76
8386.00,1.77
8385.00,1.77
8384.00,1.77
8383.00,1.78
8382.00,1.78
8381.00,1.78
8380.00,1.78
8379.00,1.79
8378.00,1.79
8377.00,1.79
8376.00,1.79
8375.00,1.79
8374.00,1.79
8373.00,1.79
8372.00,1.79
8371.00,1.79
8370.00,1.79
8369.00,1.79
8368.00,1.79
8367.00,1.79
8366.00,1.79
8365.00,1.78
8364.00,1.78
8363.00,1.78
8362.00,1.78
8361.00,1.78
8360.00,1.78
8359.00,1.78
8358.00,1.78
8357.00,1.78
8356.00,1.78
8355.00,1.78
8354.00,1.78
8353.00,1.78
8352.00,1.79
8351.00,1.79
8350.00,1.79
8349.00,1.79
8348.00,1.79
8347.00,1.80
8346.00,1.80
8345.00,1.80
8344.00,1.80
8343.00,1.80
8342.00,1.80
8341.00,1.80
8340.00,1.80
8339.00,1.80
8338.00,1.80
8337.00,1.80
8336.00,1.80
8335.00,1.80
8334.00,1.80
8333.00,1.80
8332.00,1.80
8331.00,1.80
8330.00,1.80
8329.00,1.80
8328.00,1.80
8327.00,1.80
8326.00,1.80
8325.00,1.80
8324.00,1.80
8323.00,1.79
8322.00,1.79
8321.00,1.79
8320.00,1.79
8319.00,1.79
8318.00,1.79
8317.00,1.79
8316.00,1.79
8315.00,1.79
8314.00,1.79
8313.00,1.79
8312.00,1.79
8311.00,1.79
8310.00,1.79
8309.00,1.79
8308.00,1.78
8307.00,1.78
8306.00,1.78
8305.00,1.78
8304.00,1.78
8303.00,1.78
8302.00,1.78
8301.00,1.78
8300.00,1.79
8299.00,1.79
8298.00,1.79
8297.00,1.79
8296.00,1.79
8295.00,1.79
8294.00,1.79
8293.00,1.79
8292.00,1.79
8291.00,1.79
8290.00,1.79
8289.00,1.79
8288.00,1.79
8287.00,1.79
8286.00,1.79
8285.00,1.79
8284.00,1.79
8283.00,1.79
8282.00,1.79
8281.00,1.79
8280.00,1.79
8279.00,1.79
8278.00,1.79
8277.00,1.79
8276.00,1.79
8275.00,1.79
8274.00,1.79
8273.00,1.79
8272.00,1.80
8271.00,1.80
8270.00,1.80
8269.00,1.80
8268.00,1.80
8267.00,1.80
8266.00,1.80
8265.00,1.81
8264.00,1.81
8263.00,1.81
8262.00,1.81
8261.00,1.81
8260.00,1.81
8259.00,1.81
8258.00,1.81
8257.00,1.81
8256.00,1.80
8255.00,1.80
8254.00,1.80
8253.00,1.80
8252.00,1.80
8251.00,1.80
8250.00,1.80
8249.00,1.80
8248.00,1.80
8247.00,1.80
8246.00,1.80
8245.00,1.80
8244.00,1.80
8243.00,1.80
8242.00,1.81
8241.00,1.81
8240.00,1.81
8239.00,1.81
8238.00,1.81
8237.00,1.82
8236.00,1.82
8235.00,1.82
8234.00,1.82
8233.00,1.82
8232.00,1.82
8231.00,1.83
8230.00,1.83
8229.00,1.83
8228.00,1.83
8227.00,1.83
8226.00,1.83
8225.00,1.83
8224.00,1.83
8223.00,1.83
8222.00,1.84
8221.00,1.84
8220.00,1.84
8219.00,1.84
8218.00,1.84
8217.00,1.84
8216.00,1.84
8215.00,1.84
8214.00,1.84
8213.00,1.84
8212.00,1.84
8211.00,1.84
8210.00,1.85
8209.00,1.85
8208.00,1.85
8207.00,1.84
8206.00,1.84
8205.00,1.84
8204.00,1.84
8203.00,1.84
8202.00,1.84
8201.00,1.84
8200.00,1.84
8199.00,1.84
8198.00,1.84
8197.00,1.84
8196.00,1.84
8195.00,1.84
8194.00,1.84
8193.00,1.84
8192.00,1.84
8191.00,1.84
8190.00,1.84
8189.00,1.85
8188.00,1.85
8187.00,1.85
8186.00,1.85
8185.00,1.85
8184.00,1.85
8183.00,1.85
8182.00,1.85
8181.00,1.85
8180.00,1.85
8179.00,1.85
8178.00,1.85
8177.00,1.85
8176.00,1.85
8175.00,1.85
8174.00,1.85
8173.00,1.85
8172.00,1.85
8171.00,1.85
8170.00,1.85
8169.00,1.84
8168.00,1.84
8167.00,1.84
8166.00,1.84
8165.00,1.84
8164.00,1.84
8163.00,1.84
8162.00,1.84
8161.00,1.84
8160.00,1.84
8159.00,1.84
8158.00,1.84
8157.00,1.84
8156.00,1.84
8155.00,1.84
8154.00,1.84
8153.00,1.84
8152.00,1.85
8151.00,1.85
8150.00,1.85
8149.00,1.85
8148.00,1.85
8147.00,1.85
8146.00,1.85
8145.00,1.85
8144.00,1.85
8143.00,1.85
8142.00,1.85
8141.00,1.85
8140.00,1.86
8139.00,1.86
8138.00,1.86
8137.00,1.86
8136.00,1.86
8135.00,1.86
8134.00,1.86
8133.00,1.86
8132.00,1.86
8131.00,1.87
8130.00,1.87
8129.00,1.87
8128.00,1.87
8127.00,1.87
8126.00,1.87
8125.00,1.87
8124.00,1.87
8123.00,1.87
8122.00,1.87
8121.00,1.87
8120.00,1.87
8119.00,1.87
8118.00,1.87
8117.00,1.87
8116.00,1.87
8115.00,1.87
8114.00,1.87
8113.00,1.87
8112.00,1.88
8111.00,1.88
8110.00,1.88
8109.00,1.88
8108.00,1.88
8107.00,1.88
8106.00,1.88
8105.00,1.88
8104.00,1.88
8103.00,1.88
8102.00,1.88
8101.00,1.88
8100.00,1.87
8099.00,1.87
8098.00,1.87
8097.00,1.87
8096.00,1.87
8095.00,1.87
8094.00,1.87
8093.00,1.87
8092.00,1.87
8091.00,1.87
8090.00,1.87
8089.00,1.87
8088.00,1.87
8087.00,1.87
8086.00,1.87
8085.00,1.87
8084.00,1.87
8083.00,1.87
8082.00,1.87
8081.00,1.87
8080.00,1.87
8079.00,1.87
8078.00,1.87
8077.00,1.88
8076.00,1.88
8075.00,1.88
8074.00,1.88
8073.00,1.88
8072.00,1.88
8071.00,1.88
8070.00,1.88
8069.00,1.88
8068.00,1.88
8067.00,1.88
8066.00,1.88
8065.00,1.89
8064.00,1.89
8063.00,1.89
8062.00,1.89
8061.00,1.89
8060.00,1.89
8059.00,1.89
8058.00,1.89
8057.00,1.89
8056.00,1.89
8055.00,1.89
8054.00,1.90
8053.00,1.90
8052.00,1.90
8051.00,1.90
8050.00,1.90
8049.00,1.90
8048.00,1.91
8047.00,1.91
8046.00,1.91
8045.00,1.91
8044.00,1.91
8043.00,1.91
8042.00,1.91
8041.00,1.91
8040.00,1.90
8039.00,1.90
8038.00,1.90
8037.00,1.90
8036.00,1.90
8035.00,1.90
8034.00,1.90
8033.00,1.89
8032.00,1.89
8031.00,1.89
8030.00,1.89
8029.00,1.89
8028.00,1.89
8027.00,1.89
8026.00,1.89
8025.00,1.89
8024.00,1.89
8023.00,1.89
8022.00,1.89
8021.00,1.89
8020.00,1.89
8019.00,1.89
8018.00,1.90
8017.00,1.90
8016.00,1.90
8015.00,1.90
8014.00,1.90
8013.00,1.90
8012.00,1.90
8011.00,1.90
8010.00,1.90
8009.00,1.90
8008.00,1.90
8007.00,1.90
8006.00,1.90
8005.00,1.90
8004.00,1.90
8003.00,1.90
8002.00,1.90
8001.00,1.90
8000.00,1.90
7999.00,1.90
7998.00,1.90
7997.00,1.90
7996.00,1.90
7995.00,1.90
7994.00,1.90
7993.00,1.90
7992.00,1.90
7991.00,1.90
7990.00,1.91
7989.00,1.91
7988.00,1.91
7987.00,1.91
7986.00,1.91
7985.00,1.91
7984.00,1.91
7983.00,1.92
7982.00,1.92
7981.00,1.92
7980.00,1.92
7979.00,1.92
7978.00,1.92
7977.00,1.92
7976.00,1.92
7975.00,1.92
7974.00,1.92
7973.00,1.92
7972.00,1.92
7971.00,1.92
7970.00,1.92
7969.00,1.92
7968.00,1.92
7967.00,1.92
7966.00,1.92
7965.00,1.92
7964.00,1.92
7963.00,1.92
7962.00,1.92
7961.00,1.91
7960.00,1.91
7959.00,1.91
7958.00,1.91
7957.00,1.91
7956.00,1.91
7955.00,1.91
7954.00,1.91
7953.00,1.91
7952.00,1.91
7951.00,1.91
7950.00,1.91
7949.00,1.91
7948.00,1.91
7947.00,1.91
7946.00,1.91
7945.00,1.91
7944.00,1.91
7943.00,1.91
7942.00,1.91
7941.00,1.91
7940.00,1.91
7939.00,1.91
7938.00,1.91
7937.00,1.91
7936.00,1.91
7935.00,1.91
7934.00,1.91
7933.00,1.91
7932.00,1.91
7931.00,1.91
7930.00,1.92
7929.00,1.92
7928.00,1.92
7927.00,1.92
7926.00,1.92
7925.00,1.92
7924.00,1.92
7923.00,1.92
7922.00,1.92
7921.00,1.92
7920.00,1.92
7919.00,1.92
7918.00,1.92
7917.00,1.92
7916.00,1.92
7915.00,1.92
7914.00,1.92
7913.00,1.92
7912.00,1.92
7911.00,1.92
7910.00,1.92
7909.00,1.92
7908.00,1.92
7907.00,1.92
7906.00,1.92
7905.00,1.92
7904.00,1.92
7903.00,1.92
7902.00,1.92
7901.00,1.93
7900.00,1.93
7899.00,1.93
7898.00,1.93
7897.00,1.93
7896.00,1.93
7895.00,1.93
7894.00,1.93
7893.00,1.93
7892.00,1.93
7891.00,1.93
7890.00,1.92
7889.00,1.92
7888.00,1.92
7887.00,1.92
7886.00,1.92
7885.00,1.92
7884.00,1.92
7883.00,1.92
7882.00,1.92
7881.00,1.92
7880.00,1.92
7879.00,1.92
7878.00,1.92
7877.00,1.92
7876.00,1.92
7875.00,1.92
7874.00,1.92
7873.00,1.92
7872.00,1.92
7871.00,1.92
7870.00,1.93
7869.00,1.93
7868.00,1.93
7867.00,1.93
7866.00,1.93
7865.00,1.93
7864.00,1.93
7863.00,1.93
7862.00,1.93
7861.00,1.93
7860.00,1.93
7859.00,1.93
7858.00,1.93
7857.00,1.93
7856.00,1.93
7855.00,1.93
7854.00,1.93
7853.00,1.94
7852.00,1.94
7851.00,1.94
7850.00,1.94
7849.00,1.94
7848.00,1.94
7847.00,1.94
7846.00,1.94
7845.00,1.95
7844.00,1.95
7843.00,1.95
7842.00,1.95
7841.00,1.95
7840.00,1.95
7839.00,1.95
7838.00,1.95
7837.00,1.95
7836.00,1.95
7835.00,1.95
7834.00,1.95
7833.00,1.95
7832.00,1.95
7831.00,1.95
7830.00,1.95
7829.00,1.95
7828.00,1.95
7827.00,1.95
7826.00,1.95
7825.00,1.95
7824.00,1.95
7823.00,1.95
7822.00,1.94
7821.00,1.94
7820.00,1.94
7819.00,1.94
7818.00,1.94
7817.00,1.94
7816.00,1.94
7815.00,1.94
7814.00,1.94
7813.00,1.94
7812.00,1.94
7811.00,1.94
7810.00,1.94
7809.00,1.94
7808.00,1.94
7807.00,1.94
7806.00,1.94
7805.00,1.94
7804.00,1.94
7803.00,1.94
7802.00,1.95
7801.00,1.95
7800.00,1.95
7799.00,1.95
7798.00,1.95
7797.00,1.95
7796.00,1.95
7795.00,1.95
7794.00,1.96
7793.00,1.96
7792.00,1.96
7791.00,1.96
7790.00,1.96
7789.00,1.96
7788.00,1.96
7787.00,1.96
7786.00,1.96
7785.00,1.96
7784.00,1.96
7783.00,1.96
7782.00,1.96
7781.00,1.96
7780.00,1.96
7779.00,1.96
7778.00,1.96
7777.00,1.96
7776.00,1.96
7775.00,1.96
7774.00,1.96
7773.00,1.96
7772.00,1.95
7771.00,1.95
7770.00,1.95
7769.00,1.95
7768.00,1.95
7767.00,1.95
7766.00,1.95
7765.00,1.95
7764.00,1.95
7763.00,1.95
7762.00,1.94
7761.00,1.94
7760.00,1.94
7759.00,1.94
7758.00,1.94
7757.00,1.94
7756.00,1.94
7755.00,1.94
7754.00,1.94
7753.00,1.94
7752.00,1.94
7751.00,1.94
7750.00,1.94
7749.00,1.94
7748.00,1.94
7747.00,1.95
7746.00,1.95
7745.00,1.95
7744.00,1.95
7743.00,1.95
7742.00,1.95
7741.00,1.95
7740.00,1.95
7739.00,1.95
7738.00,1.95
7737.00,1.95
7736.00,1.95
7735.00,1.95
7734.00,1.95
7733.00,1.95
7732.00,1.95
7731.00,1.95
7730.00,1.95
7729.00,1.95
7728.00,1.95
7727.00,1.95
7726.00,1.94
7725.00,1.94
7724.00,1.94
7723.00,1.94
7722.00,1.94
7721.00,1.94
7720.00,1.94
7719.00,1.94
7718.00,1.94
7717.00,1.95
7716.00,1.95
7715.00,1.95
7714.00,1.95
7713.00,1.95
7712.00,1.95
7711.00,1.95
7710.00,1.95
7709.00,1.95
7708.00,1.96
7707.00,1.96
7706.00,1.96
7705.00,1.96
7704.00,1.96
7703.00,1.96
7702.00,1.96
7701.00,1.96
7700.00,1.96
7699.00,1.96
7698.00,1.96
7697.00,1.96
7696.00,1.96
7695.00,1.96
7694.00,1.96
7693.00,1.96
7692.00,1.96
7691.00,1.96
7690.00,1.96
7689.00,1.96
7688.00,1.96
7687.00,1.96
7686.00,1.96
7685.00,1.96
7684.00,1.96
7683.00,1.96
7682.00,1.95
7681.00,1.95
7680.00,1.95
7679.00,1.95
7678.00,1.95
7677.00,1.95
7676.00,1.95
7675.00,1.95
7674.00,1.95
7673.00,1.95
7672.00,1.95
7671.00,1.95
7670.00,1.95
7669.00,1.95
7668.00,1.95
7667.00,1.95
7666.00,1.95
7665.00,1.95
7664.00,1.95
7663.00,1.95
7662.00,1.95
7661.00,1.95
7660.00,1.95
7659.00,1.95
7658.00,1.95
7657.00,1.95
7656.00,1.96
7655.00,1.96
7654.00,1.96
7653.00,1.96
7652.00,1.96
7651.00,1.96
7650.00,1.96
7649.00,1.96
7648.00,1.96
7647.00,1.96
7646.00,1.96
7645.00,1.96
7644.00,1.96
7643.00,1.96
7642.00,1.96
7641.00,1.96
7640.00,1.96
7639.00,1.96
7638.00,1.96
7637.00,1.96
7636.00,1.96
7635.00,1.96
7634.00,1.96
7633.00,1.96
7632.00,1.96
7631.00,1.96
7630.00,1.96
7629.00,1.95
7628.00,1.95
7627.00,1.95
7626.00,1.95
7625.00,1.95
7624.00,1.95
7623.00,1.95
7622.00,1.95
7621.00,1.95
7620.00,1.95
7619.00,1.95
7618.00,1.95
7617.00,1.95
7616.00,1.95
7615.00,1.95
7614.00,1.95
7613.00,1.95
7612.00,1.95
7611.00,1.95
7610.00,1.95
7609.00,1.95
7608.00,1.95
7607.00,1.95
7606.00,1.95
7605.00,1.95
7604.00,1.95
7603.00,1.95
7602.00,1.95
7601.00,1.95
7600.00,1.95
7599.00,1.95
7598.00,1.95
7597.00,1.95
7596.00,1.96
7595.00,1.96
7594.00,1.96
7593.00,1.96
7592.00,1.96
7591.00,1.96
7590.00,1.96
7589.00,1.96
7588.00,1.96
7587.00,1.96
7586.00,1.96
7585.00,1.96
7584.00,1.96
7583.00,1.96
7582.00,1.96
7581.00,1.96
7580.00,1.96
7579.00,1.96
7578.00,1.96
7577.00,1.96
7576.00,1.96
7575.00,1.96
7574.00,1.95
7573.00,1.95
7572.00,1.95
7571.00,1.95
7570.00,1.95
7569.00,1.95
7568.00,1.95
7567.00,1.95
7566.00,1.95
7565.00,1.94
7564.00,1.94
7563.00,1.94
7562.00,1.94
7561.00,1.94
7560.00,1.94
7559.00,1.94
7558.00,1.94
7557.00,1.94
7556.00,1.94
7555.00,1.94
7554.00,1.94
7553.00,1.94
7552.00,1.94
7551.00,1.94
7550.00,1.93
7549.00,1.93
7548.00,1.93
7547.00,1.93
7546.00,1.93
7545.00,1.93
7544.00,1.93
7543.00,1.93
7542.00,1.93
7541.00,1.93
7540.00,1.93
7539.00,1.93
7538.00,1.93
7537.00,1.93
7536.00,1.93
7535.00,1.93
7534.00,1.93
7533.00,1.93
7532.00,1.93
7531.00,1.93
7530.00,1.94
7529.00,1.94
7528.00,1.94
7527.00,1.94
7526.00,1.94
7525.00,1.94
7524.00,1.94
7523.00,1.94
7522.00,1.94
7521.00,1.94
7520.00,1.94
7519.00,1.94
7518.00,1.94
7517.00,1.94
7516.00,1.94
7515.00,1.94
7514.00,1.93
7513.00,1.93
7512.00,1.93
7511.00,1.93
7510.00,1.93
7509.00,1.93
7508.00,1.92
7507.00,1.92
7506.00,1.92
7505.00,1.92
7504.00,1.92
7503.00,1.92
7502.00,1.92
7501.00,1.92
7500.00,1.92
7499.00,1.92
7498.00,1.92
7497.00,1.91
7496.00,1.91
7495.00,1.91
7494.00,1.91
7493.00,1.91
7492.00,1.91
7491.00,1.91
7490.00,1.91
7489.00,1.91
7488.00,1.91
7487.00,1.91
7486.00,1.91
7485.00,1.91
7484.00,1.91
7483.00,1.90
7482.00,1.90
7481.00,1.90
7480.00,1.90
7479.00,1.90
7478.00,1.90
7477.00,1.90
7476.00,1.90
7475.00,1.90
7474.00,1.90
7473.00,1.90
7472.00,1.90
7471.00,1.90
7470.00,1.90
7469.00,1.90
7468.00,1.90
7467.00,1.90
7466.00,1.89
7465.00,1.89
7464.00,1.89
7463.00,1.89
7462.00,1.89
7461.00,1.89
7460.00,1.89
7459.00,1.89
7458.00,1.89
7457.00,1.89
7456.00,1.89
7455.00,1.89
7454.00,1.89
7453.00,1.89
7452.00,1.88
7451.00,1.88
7450.00,1.88
7449.00,1.88
7448.00,1.88
7447.00,1.88
7446.00,1.88
7445.00,1.88
7444.00,1.88
7443.00,1.88
7442.00,1.88
7441.00,1.88
7440.00,1.88
7439.00,1.88
7438.00,1.88
7437.00,1.88
7436.00,1.88
7435.00,1.87
7434.00,1.87
7433.00,1.87
7432.00,1.87
7431.00,1.87
7430.00,1.87
7429.00,1.87
7428.00,1.87
7427.00,1.87
7426.00,1.87
7425.00,1.87
7424.00,1.87
7423.00,1.87
7422.00,1.87
7421.00,1.87
7420.00,1.86
7419.00,1.86
7418.00,1.86
7417.00,1.86
7416.00,1.86
7415.00,1.86
7414.00,1.86
7413.00,1.85
7412.00,1.85
7411.00,1.85
7410.00,1.85
7409.00,1.85
7408.00,1.84
7407.00,1.84
7406.00,1.84
7405.00,1.84
7404.00,1.84
7403.00,1.83
7402.00,1.83
7401.00,1.83
7400.00,1.83
7399.00,1.83
7398.00,1.83
7397.00,1.82
7396.00,1.82
7395.00,1.82
7394.00,1.82
7393.00,1.82
7392.00,1.82
7391.00,1.82
7390.00,1.81
7389.00,1.81
7388.00,1.81
7387.00,1.81
7386.00,1.81
7385.00,1.81
7384.00,1.81
7383.00,1.81
7382.00,1.81
7381.00,1.81
7380.00,1.80
7379.00,1.80
7378.00,1.80
7377.00,1.80
7376.00,1.80
7375.00,1.80
7374.00,1.80
7373.00,1.80
7372.00,1.80
7371.00,1.80
7370.00,1.80
7369.00,1.80
7368.00,1.80
7367.00,1.80
7366.00,1.80
7365.00,1.80
7364.00,1.80
7363.00,1.80
7362.00,1.80
7361.00,1.80
7360.00,1.80
7359.00,1.81
7358.00,1.81
7357.00,1.81
7356.00,1.81
7355.00,1.81
7354.00,1.81
7353.00,1.81
7352.00,1.80
7351.00,1.80
7350.00,1.80
7349.00,1.80
7348.00,1.80
7347.00,1.80
7346.00,1.80
7345.00,1.79
7344.00,1.79
7343.00,1.79
7342.00,1.79
7341.00,1.79
7340.00,1.79
7339.00,1.78
7338.00,1.78
7337.00,1.78
7336.00,1.78
7335.00,1.78
7334.00,1.78
7333.00,1.78
7332.00,1.78
7331.00,1.78
7330.00,1.78
7329.00,1.78
7328.00,1.78
7327.00,1.78
7326.00,1.78
7325.00,1.78
7324.00,1.78
7323.00,1.78
7322.00,1.78
7321.00,1.78
7320.00,1.78
7319.00,1.78
7318.00,1.78
7317.00,1.78
7316.00,1.78
7315.00,1.78
7314.00,1.77
7313.00,1.77
7312.00,1.77
7311.00,1.77
7310.00,1.77
7309.00,1.77
7308.00,1.76
7307.00,1.76
7306.00,1.76
7305.00,1.76
7304.00,1.76
7303.00,1.75
7302.00,1.75
7301.00,1.75
7300.00,1.75
7299.00,1.74
7298.00,1.74
7297.00,1.74
7296.00,1.74
7295.00,1.74
7294.00,1.74
7293.00,1.74
7292.00,1.74
7291.00,1.74
7290.00,1.74
7289.00,1.74
7288.00,1.73
7287.00,1.73
7286.00,1.73
7285.00,1.73
7284.00,1.73
7283.00,1.73
7282.00,1.73
7281.00,1.73
7280.00,1.73
7279.00,1.73
7278.00,1.73
7277.00,1.73
7276.00,1.73
7275.00,1.73
7274.00,1.73
7273.00,1.72
7272.00,1.72
7271.00,1.72
7270.00,1.72
7269.00,1.72
7268.00,1.72
7267.00,1.72
7266.00,1.72
7265.00,1.71
7264.00,1.71
7263.00,1.71
7262.00,1.71
7261.00,1.71
7260.00,1.70
7259.00,1.70
7258.00,1.70
7257.00,1.69
7256.00,1.69
7255.00,1.69
7254.00,1.68
7253.00,1.68
7252.00,1.68
7251.00,1.67
7250.00,1.67
7249.00,1.66
7248.00,1.66
7247.00,1.66
7246.00,1.65
7245.00,1.65
7244.00,1.64
7243.00,1.64
7242.00,1.64
7241.00,1.63
7240.00,1.63
7239.00,1.62
7238.00,1.62
7237.00,1.62
7236.00,1.61
7235.00,1.61
7234.00,1.61
7233.00,1.60
7232.00,1.60
7231.00,1.60
7230.00,1.59
7229.00,1.59
7228.00,1.58
7227.00,1.58
7226.00,1.58
7225.00,1.57
7224.00,1.57
7223.00,1.56
7222.00,1.56
7221.00,1.56
7220.00,1.55
7219.00,1.55
7218.00,1.54
7217.00,1.54
7216.00,1.53
7215.00,1.53
7214.00,1.53
7213.00,1.52
7212.00,1.52
7211.00,1.51
7210.00,1.51
7209.00,1.50
7208.00,1.50
7207.00,1.50
7206.00,1.49
7205.00,1.49
7204.00,1.48
7203.00,1.48
7202.00,1.48
7201.00,1.47
7200.00,1.47
7199.00,1.46
7198.00,1.46
7197.00,1.46
7196.00,1.45
7195.00,1.45
7194.00,1.44
7193.00,1.44
7192.00,1.44
7191.00,1.43
7190.00,1.43
7189.00,1.42
7188.00,1.42
7187.00,1.41
7186.00,1.41
7185.00,1.40
7184.00,1.40
7183.00,1.40
7182.00,1.39
7181.00,1.39
7180.00,1.39
7179.00,1.38
7178.00,1.38
7177.00,1.38
7176.00,1.37
7175.00,1.37
7174.00,1.37
7173.00,1.37
7172.00,1.36
7171.00,1.36
7170.00,1.36
7169.00,1.35
7168.00,1.35
7167.00,1.34
7166.00,1.34
7165.00,1.34
7164.00,1.33
7163.00,1.33
7162.00,1.33
7161.00,1.32
7160.00,1.32
7159.00,1.32
7158.00,1.31
7157.00,1.31
7156.00,1.31
7155.00,1.30
7154.00,1.30
7153.00,1.30
7152.00,1.29
7151.00,1.29
7150.00,1.29
7149.00,1.28
7148.00,1.28
7147.00,1.28
7146.00,1.27
7145.00,1.27
7144.00,1.27
7143.00,1.26
7142.00,1.26
7141.00,1.26
7140.00,1.25
7139.00,1.25
7138.00,1.25
7137.00,1.24
7136.00,1.24
7135.00,1.24
7134.00,1.23
7133.00,1.23
7132.00,1.23
7131.00,1.22
7130.00,1.22
7129.00,1.21
7128.00,1.21
7127.00,1.21
7126.00,1.20
7125.00,1.20
7124.00,1.19
7123.00,1.19
7122.00,1.19
7121.00,1.18
7120.00,1.18
7119.00,1.18
7118.00,1.17
7117.00,1.17
7116.00,1.17
7115.00,1.16
7114.00,1.16
7113.00,1.16
7112.00,1.16
7111.00,1.16
7110.00,1.15
7109.00,1.15
7108.00,1.15
7107.00,1.15
7106.00,1.14
7105.00,1.14
7104.00,1.14
7103.00,1.14
7102.00,1.14
7101.00,1.13
7100.00,1.13
7099.00,1.13
7098.00,1.13
7097.00,1.12
7096.00,1.12
7095.00,1.12
7094.00,1.11
7093.00,1.11
7092.00,1.11
7091.00,1.10
7090.00,1.10
7089.00,1.10
7088.00,1.09
7087.00,1.09
7086.00,1.09
7085.00,1.08
7084.00,1.08
7083.00,1.08
7082.00,1.08
7081.00,1.07
7080.00,1.07
7079.00,1.07
7078.00,1.07
7077.00,1.07
7076.00,1.06
7075.00,1.06
7074.00,1.06
7073.00,1.06
7072.00,1.06
7071.00,1.06
7070.00,1.06
7069.00,1.05
7068.00,1.05
7067.00,1.05
7066.00,1.05
7065.00,1.05
7064.00,1.05
7063.00,1.04
7062.00,1.04
7061.00,1.04
7060.00,1.04
7059.00,1.04
7058.00,1.04
7057.00,1.03
7056.00,1.03
7055.00,1.03
7054.00,1.03
7053.00,1.03
7052.00,1.03
7051.00,1.03
7050.00,1.03
7049.00,1.03
7048.00,1.03
7047.00,1.03
7046.00,1.03
7045.00,1.02
7044.00,1.02
7043.00,1.02
7042.00,1.02
7041.00,1.02
7040.00,1.02
7039.00,1.02
7038.00,1.01
7037.00,1.01
7036.00,1.01
7035.00,1.01
7034.00,1.01
7033.00,1.01
7032.00,1.01
7031.00,1.01
7030.00,1.00
7029.00,1.00
7028.00,1.00
7027.00,1.00
7026.00,1.00
7025.00,1.00
7024.00,1.00
7023.00,1.00
7022.00,1.00
7021.00,1.00
7020.00,0.99
7019.00,0.99
7018.00,0.99
7017.00,0.99
7016.00,0.99
7015.00,0.99
7014.00,0.99
7013.00,0.99
7012.00,0.99
7011.00,0.98
7010.00,0.98
7009.00,0.98
7008.00,0.98
7007.00,0.98
7006.00,0.98
7005.00,0.98
7004.00,0.98
7003.00,0.98
7002.00,0.98
7001.00,0.98
7000.00,0.98
6999.00,0.98
6998.00,0.98
6997.00,0.98
6996.00,0.97
6995.00,0.97
6994.00,0.97
6993.00,0.97
6992.00,0.97
6991.00,0.97
6990.00,0.96
6989.00,0.96
6988.00,0.96
6987.00,0.96
6986.00,0.96
6985.00,0.96
6984.00,0.96
6983.00,0.96
6982.00,0.95
6981.00,0.95
6980.00,0.95
6979.00,0.95
6978.00,0.95
6977.00,0.95
6976.00,0.95
6975.00,0.95
6974.00,0.95
6973.00,0.95
6972.00,0.95
6971.00,0.95
6970.00,0.95
6969.00,0.95
6968.00,0.95
6967.00,0.95
6966.00,0.95
6965.00,0.95
6964.00,0.95
6963.00,0.95
6962.00,0.95
6961.00,0.95
6960.00,0.95
6959.00,0.95
6958.00,0.95
6957.00,0.95
6956.00,0.95
6955.00,0.95
6954.00,0.95
6953.00,0.95
6952.00,0.95
6951.00,0.95
6950.00,0.95
6949.00,0.95
6948.00,0.95
6947.00,0.95
6946.00,0.95
6945.00,0.95
6944.00,0.95
6943.00,0.95
6942.00,0.94
6941.00,0.94
6940.00,0.94
6939.00,0.94
6938.00,0.94
6937.00,0.94
6936.00,0.94
6935.00,0.94
6934.00,0.94
6933.00,0.94
6932.00,0.94
6931.00,0.94
6930.00,0.94
6929.00,0.94
6928.00,0.94
6927.00,0.94
6926.00,0.94
6925.00,0.94
6924.00,0.94
6923.00,0.94
6922.00,0.94
6921.00,0.94
6920.00,0.94
6919.00,0.93
6918.00,0.93
6917.00,0.93
6916.00,0.93
6915.00,0.93
6914.00,0.93
6913.00,0.93
6912.00,0.93
6911.00,0.93
6910.00,0.93
6909.00,0.93
6908.00,0.93
6907.00,0.93
6906.00,0.93
6905.00,0.93
6904.00,0.93
6903.00,0.93
6902.00,0.93
6901.00,0.93
6900.00,0.93
6899.00,0.93
6898.00,0.93
6897.00,0.93
6896.00,0.93
6895.00,0.93
6894.00,0.93
6893.00,0.93
6892.00,0.93
6891.00,0.93
6890.00,0.93
6889.00,0.93
6888.00,0.93
6887.00,0.93
6886.00,0.93
6885.00,0.93
6884.00,0.93
6883.00,0.93
6882.00,0.93
6881.00,0.93
6880.00,0.93
6879.00,0.93
6878.00,0.93
6877.00,0.93
6876.00,0.93
6875.00,0.93
6874.00,0.93
6873.00,0.93
6872.00,0.93
6871.00,0.93
6870.00,0.93
6869.00,0.93
6868.00,0.93
6867.00,0.94
6866.00,0.94
6865.00,0.94
6864.00,0.94
6863.00,0.94
6862.00,0.94
6861.00,0.94
6860.00,0.94
6859.00,0.94
6858.00,0.94
6857.00,0.94
6856.00,0.94
6855.00,0.94
6854.00,0.94
6853.00,0.94
6852.00,0.94
6851.00,0.94
6850.00,0.94
6849.00,0.94
6848.00,0.94
6847.00,0.94
6846.00,0.94
6845.00,0.94
6844.00,0.94
6843.00,0.94
6842.00,0.94
6841.00,0.94
6840.00,0.94
6839.00,0.94
6838.00,0.94
6837.00,0.94
6836.00,0.94
6835.00,0.94
6834.00,0.94
6833.00,0.94
6832.00,0.95
6831.00,0.95
6830.00,0.95
6829.00,0.95
6828.00,0.94
6827.00,0.94
6826.00,0.94
6825.00,0.94
6824.00,0.94
6823.00,0.94
6822.00,0.94
6821.00,0.94
6820.00,0.94
6819.00,0.94
6818.00,0.94
6817.00,0.94
6816.00,0.94
6815.00,0.94
6814.00,0.94
6813.00,0.94
6812.00,0.95
6811.00,0.95
6810.00,0.95
6809.00,0.95
6808.00,0.95
6807.00,0.95
6806.00,0.95
6805.00,0.96
6804.00,0.96
6803.00,0.96
6802.00,0.96
6801.00,0.96
6800.00,0.96
6799.00,0.96
6798.00,0.96
6797.00,0.96
6796.00,0.97
6795.00,0.97
6794.00,0.97
6793.00,0.97
6792.00,0.97
6791.00,0.97
6790.00,0.97
6789.00,0.97
6788.00,0.97
6787.00,0.97
6786.00,0.97
6785.00,0.97
6784.00,0.97
6783.00,0.97
6782.00,0.97
6781.00,0.97
6780.00,0.97
6779.00,0.97
6778.00,0.97
6777.00,0.97
6776.00,0.98
6775.00,0.98
6774.00,0.98
6773.00,0.98
6772.00,0.98
6771.00,0.98
6770.00,0.98
6769.00,0.98
6768.00,0.98
6767.00,0.98
6766.00,0.98
6765.00,0.98
6764.00,0.98
6763.00,0.98
6762.00,0.98
6761.00,0.98
6760.00,0.98
6759.00,0.98
6758.00,0.98
6757.00,0.98
6756.00,0.98
6755.00,0.98
6754.00,0.98
6753.00,0.98
6752.00,0.98
6751.00,0.98
6750.00,0.98
6749.00,0.98
6748.00,0.99
6747.00,0.99
6746.00,0.99
6745.00,0.99
6744.00,0.99
6743.00,0.99
6742.00,1.00
6741.00,1.00
6740.00,1.00
6739.00,1.00
6738.00,1.00
6737.00,1.00
6736.00,1.01
6735.00,1.01
6734.00,1.01
6733.00,1.01
6732.00,1.01
6731.00,1.01
6730.00,1.01
6729.00,1.01
6728.00,1.02
6727.00,1.02
6726.00,1.02
6725.00,1.02
6724.00,1.02
6723.00,1.02
6722.00,1.02
6721.00,1.02
6720.00,1.02
6719.00,1.02
6718.00,1.02
6717.00,1.02
6716.00,1.03
6715.00,1.03
6714.00,1.03
6713.00,1.03
6712.00,1.03
6711.00,1.03
6710.00,1.03
6709.00,1.03
6708.00,1.04
6707.00,1.04
6706.00,1.04
6705.00,1.04
6704.00,1.04
6703.00,1.04
6702.00,1.04
6701.00,1.04
6700.00,1.04
6699.00,1.04
6698.00,1.04
6697.00,1.04
6696.00,1.04
6695.00,1.04
6694.00,1.04
6693.00,1.04
6692.00,1.04
6691.00,1.04
6690.00,1.04
6689.00,1.04
6688.00,1.04
6687.00,1.04
6686.00,1.05
6685.00,1.05
6684.00,1.05
6683.00,1.05
6682.00,1.05
6681.00,1.05
6680.00,1.06
6679.00,1.06
6678.00,1.06
6677.00,1.06
6676.00,1.06
6675.00,1.07
6674.00,1.07
6673.00,1.07
6672.00,1.07
6671.00,1.07
6670.00,1.07
6669.00,1.08
6668.00,1.08
6667.00,1.08
6666.00,1.08
6665.00,1.08
6664.00,1.08
6663.00,1.08
6662.00,1.08
6661.00,1.08
6660.00,1.08
6659.00,1.08
6658.00,1.08
6657.00,1.08
6656.00,1.09
6655.00,1.09
6654.00,1.09
6653.00,1.09
6652.00,1.09
6651.00,1.09
6650.00,1.09
6649.00,1.09
6648.00,1.09
6647.00,1.09
6646.00,1.09
6645.00,1.09
6644.00,1.10
6643.00,1.10
6642.00,1.10
6641.00,1.10
6640.00,1.10
6639.00,1.10
6638.00,1.10
6637.00,1.10
6636.00,1.11
6635.00,1.11
6634.00,1.11
6633.00,1.11
6632.00,1.11
6631.00,1.11
6630.00,1.12
6629.00,1.12
6628.00,1.12
6627.00,1.12
6626.00,1.12
6625.00,1.12
6624.00,1.12
6623.00,1.12
6622.00,1.13
6621.00,1.13
6620.00,1.13
6619.00,1.13
6618.00,1.13
6617.00,1.13
6616.00,1.13
6615.00,1.13
6614.00,1.14
6613.00,1.14
6612.00,1.14
6611.00,1.14
6610.00,1.14
6609.00,1.14
6608.00,1.14
6607.00,1.14
6606.00,1.15
6605.00,1.15
6604.00,1.15
6603.00,1.15
6602.00,1.15
6601.00,1.15
6600.00,1.15
6599.00,1.16
6598.00,1.16
6597.00,1.16
6596.00,1.16
6595.00,1.16
6594.00,1.16
6593.00,1.16
6592.00,1.17
6591.00,1.17
6590.00,1.17
6589.00,1.17
6588.00,1.17
6587.00,1.17
6586.00,1.17
6585.00,1.17
6584.00,1.18
6583.00,1.18
6582.00,1.18
6581.00,1.18
6580.00,1.18
6579.00,1.18
6578.00,1.18
6577.00,1.19
6576.00,1.19
6575.00,1.19
6574.00,1.19
6573.00,1.19
6572.00,1.19
6571.00,1.19
6570.00,1.19
6569.00,1.20
6568.00,1.20
6567.00,1.20
6566.00,1.20
6565.00,1.20
6564.00,1.20
6563.00,1.20
6562.00,1.20
6561.00,1.20
6560.00,1.20
6559.00,1.20
6558.00,1.20
6557.00,1.20
6556.00,1.20
6555.00,1.20
6554.00,1.20
6553.00,1.20
6552.00,1.21
6551.00,1.21
6550.00,1.21
6549.00,1.21
6548.00,1.21
6547.00,1.21
6546.00,1.21
6545.00,1.21
6544.00,1.22
6543.00,1.22
6542.00,1.22
6541.00,1.22
6540.00,1.22
6539.00,1.22
6538.00,1.23
6537.00,1.23
6536.00,1.23
6535.00,1.23
6534.00,1.23
6533.00,1.23
6532.00,1.23
6531.00,1.23
6530.00,1.23
6529.00,1.23
6528.00,1.23
6527.00,1.24
6526.00,1.24
6525.00,1.24
6524.00,1.24
6523.00,1.24
6522.00,1.24
6521.00,1.24
6520.00,1.24
6519.00,1.24
6518.00,1.25
6517.00,1.25
6516.00,1.25
6515.00,1.25
6514.00,1.25
6513.00,1.25
6512.00,1.26
6511.00,1.26
6510.00,1.26
6509.00,1.26
6508.00,1.26
6507.00,1.26
6506.00,1.26
6505.00,1.26
6504.00,1.27
6503.00,1.27
6502.00,1.27
6501.00,1.27
6500.00,1.27
6499.00,1.27
6498.00,1.27
6497.00,1.27
6496.00,1.28
6495.00,1.28
6494.00,1.28
6493.00,1.28
6492.00,1.28
6491.00,1.28
6490.00,1.28
6489.00,1.28
6488.00,1.28
6487.00,1.29
6486.00,1.29
6485.00,1.29
6484.00,1.29
6483.00,1.29
6482.00,1.29
6481.00,1.29
6480.00,1.29
6479.00,1.29
6478.00,1.29
6477.00,1.29
6476.00,1.29
6475.00,1.29
6474.00,1.30
6473.00,1.30
6472.00,1.30
6471.00,1.30
6470.00,1.30
6469.00,1.30
6468.00,1.30
6467.00,1.30
6466.00,1.30
6465.00,1.30
6464.00,1.30
6463.00,1.31
6462.00,1.31
6461.00,1.31
6460.00,1.31
6459.00,1.31
6458.00,1.31
6457.00,1.31
6456.00,1.31
6455.00,1.31
6454.00,1.31
6453.00,1.31
6452.00,1.31
6451.00,1.32
6450.00,1.32
6449.00,1.32
6448.00,1.32
6447.00,1.32
6446.00,1.32
6445.00,1.32
6444.00,1.32
6443.00,1.32
6442.00,1.32
6441.00,1.32
6440.00,1.32
6439.00,1.32
6438.00,1.32
6437.00,1.32
6436.00,1.32
6435.00,1.33
6434.00,1.33
6433.00,1.33
6432.00,1.33
6431.00,1.33
6430.00,1.33
6429.00,1.33
6428.00,1.33
6427.00,1.33
6426.00,1.33
6425.00,1.33
6424.00,1.33
6423.00,1.33
6422.00,1.33
6421.00,1.33
6420.00,1.33
6419.00,1.33
6418.00,1.33
6417.00,1.33
6416.00,1.33
6415.00,1.33
6414.00,1.33
6413.00,1.34
6412.00,1.34
6411.00,1.34
6410.00,1.34
6409.00,1.34
6408.00,1.34
6407.00,1.34
6406.00,1.34
6405.00,1.34
6404.00,1.34
6403.00,1.34
6402.00,1.34
6401.00,1.34
6400.00,1.34
6399.00,1.34
6398.00,1.34
6397.00,1.35
6396.00,1.35
6395.00,1.35
6394.00,1.35
6393.00,1.35
6392.00,1.35
6391.00,1.35
6390.00,1.36
6389.00,1.36
6388.00,1.36
6387.00,1.36
6386.00,1.36
6385.00,1.36
6384.00,1.37
6383.00,1.37
6382.00,1.37
6381.00,1.37
6380.00,1.37
6379.00,1.37
6378.00,1.37
6377.00,1.37
6376.00,1.38
6375.00,1.38
6374.00,1.38
6373.00,1.38
6372.00,1.38
6371.00,1.38
6370.00,1.38
6369.00,1.38
6368.00,1.38
6367.00,1.38
6366.00,1.39
6365.00,1.39
6364.00,1.39
6363.00,1.39
6362.00,1.39
6361.00,1.39
6360.00,1.39
6359.00,1.39
6358.00,1.39
6357.00,1.39
6356.00,1.39
6355.00,1.40
6354.00,1.40
6353.00,1.40
6352.00,1.40
6351.00,1.40
6350.00,1.40
6349.00,1.40
6348.00,1.40
6347.00,1.40
6346.00,1.40
6345.00,1.40
6344.00,1.40
6343.00,1.41
6342.00,1.41
6341.00,1.41
6340.00,1.41
6339.00,1.41
6338.00,1.41
6337.00,1.41
6336.00,1.41
6335.00,1.41
6334.00,1.41
6333.00,1.41
6332.00,1.41
6331.00,1.41
6330.00,1.41
6329.00,1.41
6328.00,1.41
6327.00,1.42
6326.00,1.42
6325.00,1.42
6324.00,1.42
6323.00,1.42
6322.00,1.42
6321.00,1.42
6320.00,1.43
6319.00,1.43
6318.00,1.43
6317.00,1.43
6316.00,1.43
6315.00,1.43
6314.00,1.43
6313.00,1.44
6312.00,1.44
6311.00,1.44
6310.00,1.44
6309.00,1.44
6308.00,1.44
6307.00,1.44
6306.00,1.45
6305.00,1.45
6304.00,1.45
6303.00,1.45
6302.00,1.45
6301.00,1.45
6300.00,1.46
6299.00,1.46
6298.00,1.46
6297.00,1.46
6296.00,1.46
6295.00,1.47
6294.00,1.47
6293.00,1.47
6292.00,1.47
6291.00,1.47
6290.00,1.47
6289.00,1.47
6288.00,1.48
6287.00,1.48
6286.00,1.48
6285.00,1.48
6284.00,1.48
6283.00,1.48
6282.00,1.48
6281.00,1.48
6280.00,1.48
6279.00,1.49
6278.00,1.49
6277.00,1.49
6276.00,1.49
6275.00,1.49
6274.00,1.49
6273.00,1.49
6272.00,1.49
6271.00,1.50
6270.00,1.50
6269.00,1.50
6268.00,1.50
6267.00,1.50
6266.00,1.51
6265.00,1.51
6264.00,1.51
6263.00,1.51
6262.00,1.51
6261.00,1.51
6260.00,1.52
6259.00,1.52
6258.00,1.52
6257.00,1.52
6256.00,1.52
6255.00,1.52
6254.00,1.53
6253.00,1.53
6252.00,1.53
6251.00,1.53
6250.00,1.53
6249.00,1.53
6248.00,1.53
6247.00,1.54
6246.00,1.54
6245.00,1.54
6244.00,1.54
6243.00,1.54
6242.00,1.54
6241.00,1.54
6240.00,1.54
6239.00,1.54
6238.00,1.55
6237.00,1.55
6236.00,1.55
6235.00,1.55
6234.00,1.55
6233.00,1.55
6232.00,1.56
6231.00,1.56
6230.00,1.56
6229.00,1.56
6228.00,1.56
6227.00,1.56
6226.00,1.56
6225.00,1.57
6224.00,1.57
6223.00,1.57
6222.00,1.57
6221.00,1.57
6220.00,1.57
6219.00,1.57
6218.00,1.58
6217.00,1.58
6216.00,1.58
6215.00,1.58
6214.00,1.58
6213.00,1.59
6212.00,1.59
6211.00,1.59
6210.00,1.59
6209.00,1.59
6208.00,1.60
6207.00,1.60
6206.00,1.60
6205.00,1.60
6204.00,1.60
6203.00,1.61
6202.00,1.61
6201.00,1.61
6200.00,1.61
6199.00,1.61
6198.00,1.61
6197.00,1.61
6196.00,1.61
6195.00,1.61
6194.00,1.62
6193.00,1.62
6192.00,1.62
6191.00,1.62
6190.00,1.62
6189.00,1.62
6188.00,1.62
6187.00,1.62
6186.00,1.63
6185.00,1.63
6184.00,1.63
6183.00,1.63
6182.00,1.63
6181.00,1.64
6180.00,1.64
6179.00,1.64
6178.00,1.64
6177.00,1.65
6176.00,1.65
6175.00,1.65
6174.00,1.65
6173.00,1.65
6172.00,1.66
6171.00,1.66
6170.00,1.66
6169.00,1.66
6168.00,1.66
6167.00,1.66
6166.00,1.67
6165.00,1.67
6164.00,1.67
6163.00,1.67
6162.00,1.67
6161.00,1.67
6160.00,1.67
6159.00,1.67
6158.00,1.68
6157.00,1.68
6156.00,1.68
6155.00,1.68
6154.00,1.68
6153.00,1.69
6152.00,1.69
6151.00,1.69
6150.00,1.69
6149.00,1.70
6148.00,1.70
6147.00,1.70
6146.00,1.70
6145.00,1.70
6144.00,1.70
6143.00,1.71
6142.00,1.71
6141.00,1.71
6140.00,1.71
6139.00,1.71
6138.00,1.71
6137.00,1.71
6136.00,1.71
6135.00,1.72
6134.00,1.72
6133.00,1.72
6132.00,1.72
6131.00,1.72
6130.00,1.72
6129.00,1.72
6128.00,1.72
6127.00,1.73
6126.00,1.73
6125.00,1.73
6124.00,1.73
6123.00,1.73
6122.00,1.74
6121.00,1.74
6120.00,1.74
6119.00,1.74
6118.00,1.75
6117.00,1.75
6116.00,1.75
6115.00,1.75
6114.00,1.75
6113.00,1.76
6112.00,1.76
6111.00,1.76
6110.00,1.76
6109.00,1.76
6108.00,1.76
6107.00,1.77
6106.00,1.77
6105.00,1.77
6104.00,1.77
6103.00,1.77
6102.00,1.77
6101.00,1.78
6100.00,1.78
6099.00,1.78
6098.00,1.78
6097.00,1.78
6096.00,1.79
6095.00,1.79
6094.00,1.79
6093.00,1.79
6092.00,1.79
6091.00,1.79
6090.00,1.80
6089.00,1.80
6088.00,1.80
6087.00,1.80
6086.00,1.80
6085.00,1.80
6084.00,1.80
6083.00,1.80
6082.00,1.81
6081.00,1.81
6080.00,1.81
6079.00,1.81
6078.00,1.81
6077.00,1.81
6076.00,1.81
6075.00,1.82
6074.00,1.82
6073.00,1.82
6072.00,1.82
6071.00,1.82
6070.00,1.82
6069.00,1.83
6068.00,1.83
6067.00,1.83
6066.00,1.83
6065.00,1.83
6064.00,1.84
6063.00,1.84
6062.00,1.84
6061.00,1.84
6060.00,1.84
6059.00,1.84
6058.00,1.85
6057.00,1.85
6056.00,1.85
6055.00,1.85
6054.00,1.85
6053.00,1.85
6052.00,1.85
6051.00,1.85
6050.00,1.85
6049.00,1.85
6048.00,1.85
6047.00,1.85
6046.00,1.85
6045.00,1.85
6044.00,1.86
6043.00,1.86
6042.00,1.86
6041.00,1.86
6040.00,1.86
6039.00,1.86
6038.00,1.86
6037.00,1.86
6036.00,1.86
6035.00,1.86
6034.00,1.86
6033.00,1.86
6032.00,1.86
6031.00,1.86
6030.00,1.86
6029.00,1.87
6028.00,1.87
6027.00,1.87
6026.00,1.87
6025.00,1.87
6024.00,1.87
6023.00,1.87
6022.00,1.87
6021.00,1.87
6020.00,1.87
6019.00,1.87
6018.00,1.87
6017.00,1.87
6016.00,1.87
6015.00,1.88
6014.00,1.88
6013.00,1.88
6012.00,1.88
6011.00,1.88
6010.00,1.88
6009.00,1.88
6008.00,1.88
6007.00,1.88
6006.00,1.88
6005.00,1.88
6004.00,1.88
6003.00,1.87
6002.00,1.87
6001.00,1.87
6000.00,1.87
5999.00,1.87
5998.00,1.87
5997.00,1.87
5996.00,1.87
5995.00,1.87
5994.00,1.87
5993.00,1.87
5992.00,1.87
5991.00,1.86
5990.00,1.86
5989.00,1.86
5988.00,1.86
5987.00,1.85
5986.00,1.85
5985.00,1.84
5984.00,1.84
5983.00,1.84
5982.00,1.83
5981.00,1.83
5980.00,1.82
5979.00,1.82
5978.00,1.81
5977.00,1.81
5976.00,1.80
5975.00,1.80
5974.00,1.79
5973.00,1.79
5972.00,1.78
5971.00,1.78
5970.00,1.77
5969.00,1.76
5968.00,1.76
5967.00,1.75
5966.00,1.74
5965.00,1.74
5964.00,1.73
5963.00,1.72
5962.00,1.71
5961.00,1.70
5960.00,1.70
5959.00,1.69
5958.00,1.68
5957.00,1.67
5956.00,1.66
5955.00,1.66
5954.00,1.65
5953.00,1.64
5952.00,1.63
5951.00,1.63
5950.00,1.62
5949.00,1.62
5948.00,1.61
5947.00,1.61
5946.00,1.60
5945.00,1.60
5944.00,1.59
5943.00,1.59
5942.00,1.58
5941.00,1.58
5940.00,1.58
5939.00,1.58
5938.00,1.57
5937.00,1.57
5936.00,1.57
5935.00,1.57
5934.00,1.56
5933.00,1.56
5932.00,1.56
5931.00,1.56
5930.00,1.56
5929.00,1.55
5928.00,1.55
5927.00,1.55
5926.00,1.55
5925.00,1.55
5924.00,1.54
5923.00,1.54
5922.00,1.54
5921.00,1.54
5920.00,1.53
5919.00,1.53
5918.00,1.53
5917.00,1.53
5916.00,1.52
5915.00,1.52
5914.00,1.52
5913.00,1.51
5912.00,1.51
5911.00,1.51
5910.00,1.51
5909.00,1.50
5908.00,1.50
5907.00,1.50
5906.00,1.50
5905.00,1.50
5904.00,1.50
5903.00,1.49
5902.00,1.49
5901.00,1.49
5900.00,1.49
5899.00,1.49
5898.00,1.49
5897.00,1.49
5896.00,1.50
5895.00,1.50
5894.00,1.50
5893.00,1.50
5892.00,1.50
5891.00,1.51
5890.00,1.51
5889.00,1.51
5888.00,1.52
5887.00,1.52
5886.00,1.52
5885.00,1.53
5884.00,1.53
5883.00,1.54
5882.00,1.54
5881.00,1.54
5880.00,1.55
5879.00,1.55
5878.00,1.55
5877.00,1.56
5876.00,1.56
5875.00,1.57
5874.00,1.57
5873.00,1.57
5872.00,1.58
5871.00,1.58
5870.00,1.58
5869.00,1.59
5868.00,1.59
5867.00,1.59
5866.00,1.60
5865.00,1.60
5864.00,1.60
5863.00,1.60
5862.00,1.61
5861.00,1.61
5860.00,1.61
5859.00,1.61
5858.00,1.61
5857.00,1.62
5856.00,1.62
5855.00,1.62
5854.00,1.62
5853.00,1.62
5852.00,1.62
5851.00,1.62
5850.00,1.62
5849.00,1.62
5848.00,1.62
5847.00,1.62
5846.00,1.62
5845.00,1.62
5844.00,1.62
5843.00,1.62
5842.00,1.62
5841.00,1.62
5840.00,1.62
5839.00,1.62
5838.00,1.62
5837.00,1.62
5836.00,1.62
5835.00,1.62
5834.00,1.62
5833.00,1.62
5832.00,1.62
5831.00,1.62
5830.00,1.62
5829.00,1.62
5828.00,1.62
5827.00,1.62
5826.00,1.62
5825.00,1.62
5824.00,1.62
5823.00,1.62
5822.00,1.62
5821.00,1.62
5820.00,1.62
5819.00,1.62
5818.00,1.62
5817.00,1.62
5816.00,1.62
5815.00,1.62
5814.00,1.62
5813.00,1.62
5812.00,1.62
5811.00,1.62
5810.00,1.62
5809.00,1.62
5808.00,1.62
5807.00,1.62
5806.00,1.62
5805.00,1.62
5804.00,1.62
5803.00,1.62
5802.00,1.62
5801.00,1.62
5800.00,1.62
5799.00,1.62
5798.00,1.61
5797.00,1.61
5796.00,1.61
5795.00,1.61
5794.00,1.60
5793.00,1.60
5792.00,1.60
5791.00,1.60
5790.00,1.59
5789.00,1.59
5788.00,1.59
5787.00,1.58
5786.00,1.58
5785.00,1.58
5784.00,1.57
5783.00,1.57
5782.00,1.57
5781.00,1.57
5780.00,1.57
5779.00,1.56
5778.00,1.56
5777.00,1.56
5776.00,1.56
5775.00,1.56
5774.00,1.56
5773.00,1.56
5772.00,1.56
5771.00,1.56
5770.00,1.56
5769.00,1.56
5768.00,1.56
5767.00,1.56
5766.00,1.57
5765.00,1.57
5764.00,1.57
5763.00,1.57
5762.00,1.58
5761.00,1.58
5760.00,1.58
5759.00,1.59
5758.00,1.59
5757.00,1.59
5756.00,1.60
5755.00,1.60
5754.00,1.61
5753.00,1.61
5752.00,1.61
5751.00,1.62
5750.00,1.62
5749.00,1.63
5748.00,1.63
5747.00,1.63
5746.00,1.64
5745.00,1.64
5744.00,1.64
5743.00,1.65
5742.00,1.65
5741.00,1.65
5740.00,1.66
5739.00,1.66
5738.00,1.66
5737.00,1.66
5736.00,1.66
5735.00,1.67
5734.00,1.67
5733.00,1.67
5732.00,1.67
5731.00,1.67
5730.00,1.67
5729.00,1.67
5728.00,1.67
5727.00,1.68
5726.00,1.68
5725.00,1.68
5724.00,1.68
5723.00,1.68
5722.00,1.68
5721.00,1.68
5720.00,1.68
5719.00,1.68
5718.00,1.68
5717.00,1.68
5716.00,1.68
5715.00,1.68
5714.00,1.68
5713.00,1.68
5712.00,1.68
5711.00,1.68
5710.00,1.68
5709.00,1.68
5708.00,1.68
5707.00,1.68
5706.00,1.68
5705.00,1.68
5704.00,1.68
5703.00,1.68
5702.00,1.67
5701.00,1.67
5700.00,1.67
5699.00,1.67
5698.00,1.67
5697.00,1.67
5696.00,1.67
5695.00,1.67
5694.00,1.66
5693.00,1.66
5692.00,1.66
5691.00,1.66
5690.00,1.66
5689.00,1.65
5688.00,1.65
5687.00,1.65
5686.00,1.65
5685.00,1.65
5684.00,1.64
5683.00,1.64
5682.00,1.64
5681.00,1.64
5680.00,1.64
5679.00,1.64
5678.00,1.64
5677.00,1.64
5676.00,1.64
5675.00,1.63
5674.00,1.63
5673.00,1.64
5672.00,1.64
5671.00,1.64
5670.00,1.64
5669.00,1.64
5668.00,1.64
5667.00,1.64
5666.00,1.64
5665.00,1.64
5664.00,1.65
5663.00,1.65
5662.00,1.65
5661.00,1.65
5660.00,1.65
5659.00,1.65
5658.00,1.66
5657.00,1.66
5656.00,1.66
5655.00,1.66
5654.00,1.66
5653.00,1.67
5652.00,1.67
5651.00,1.67
5650.00,1.67
5649.00,1.67
5648.00,1.68
5647.00,1.68
5646.00,1.68
5645.00,1.68
5644.00,1.68
5643.00,1.69
5642.00,1.69
5641.00,1.69
5640.00,1.69
5639.00,1.69
5638.00,1.70
5637.00,1.70
5636.00,1.70
5635.00,1.70
5634.00,1.70
5633.00,1.70
5632.00,1.71
5631.00,1.71
5630.00,1.71
5629.00,1.71
5628.00,1.71
5627.00,1.72
5626.00,1.72
5625.00,1.72
5624.00,1.72
5623.00,1.72
5622.00,1.73
5621.00,1.73
5620.00,1.73
5619.00,1.73
5618.00,1.73
5617.00,1.74
5616.00,1.74
5615.00,1.74
5614.00,1.74
5613.00,1.74
5612.00,1.74
5611.00,1.74
5610.00,1.75
5609.00,1.75
5608.00,1.75
5607.00,1.75
5606.00,1.75
5605.00,1.75
5604.00,1.76
5603.00,1.76
5602.00,1.76
5601.00,1.76
5600.00,1.76
5599.00,1.76
5598.00,1.77
5597.00,1.77
5596.00,1.77
5595.00,1.77
5594.00,1.77
5593.00,1.78
5592.00,1.78
5591.00,1.78
5590.00,1.78
5589.00,1.79
5588.00,1.79
5587.00,1.79
5586.00,1.79
5585.00,1.79
5584.00,1.80
5583.00,1.80
5582.00,1.80
5581.00,1.80
5580.00,1.80
5579.00,1.81
5578.00,1.81
5577.00,1.81
5576.00,1.81
5575.00,1.81
5574.00,1.82
5573.00,1.82
5572.00,1.82
5571.00,1.82
5570.00,1.82
5569.00,1.83
5568.00,1.83
5567.00,1.83
5566.00,1.83
5565.00,1.83
5564.00,1.83
5563.00,1.84
5562.00,1.84
5561.00,1.84
5560.00,1.84
5559.00,1.84
5558.00,1.84
5557.00,1.85
5556.00,1.85
5555.00,1.85
5554.00,1.85
5553.00,1.85
5552.00,1.85
5551.00,1.85
5550.00,1.85
5549.00,1.86
5548.00,1.86
5547.00,1.86
5546.00,1.86
5545.00,1.86
5544.00,1.86
5543.00,1.87
5542.00,1.87
5541.00,1.87
5540.00,1.87
5539.00,1.87
5538.00,1.87
5537.00,1.87
5536.00,1.87
5535.00,1.88
5534.00,1.88
5533.00,1.88
5532.00,1.88
5531.00,1.88
5530.00,1.88
5529.00,1.88
5528.00,1.88
5527.00,1.88
5526.00,1.89
5525.00,1.89
5524.00,1.89
5523.00,1.89
5522.00,1.89
5521.00,1.89
5520.00,1.89
5519.00,1.89
5518.00,1.89
5517.00,1.89
5516.00,1.89
5515.00,1.89
5514.00,1.89
5513.00,1.89
5512.00,1.90
5511.00,1.90
5510.00,1.90
5509.00,1.90
5508.00,1.90
5507.00,1.90
5506.00,1.90
5505.00,1.90
5504.00,1.90
5503.00,1.90
5502.00,1.90
5501.00,1.90
5500.00,1.90
5499.00,1.90
5498.00,1.90
5497.00,1.90
5496.00,1.90
5495.00,1.90
5494.00,1.90
5493.00,1.90
5492.00,1.91
5491.00,1.91
5490.00,1.91
5489.00,1.91
5488.00,1.91
5487.00,1.92
5486.00,1.92
5485.00,1.92
5484.00,1.92
5483.00,1.92
5482.00,1.93
5481.00,1.93
5480.00,1.93
5479.00,1.93
5478.00,1.93
5477.00,1.93
5476.00,1.93
5475.00,1.93
5474.00,1.93
5473.00,1.94
5472.00,1.94
5471.00,1.94
5470.00,1.94
5469.00,1.94
5468.00,1.94
5467.00,1.94
5466.00,1.94
5465.00,1.94
5464.00,1.94
5463.00,1.95
5462.00,1.95
5461.00,1.95
5460.00,1.95
5459.00,1.95
5458.00,1.95
5457.00,1.95
5456.00,1.95
5455.00,1.95
5454.00,1.96
5453.00,1.96
5452.00,1.96
5451.00,1.96
5450.00,1.96
5449.00,1.96
5448.00,1.96
5447.00,1.96
5446.00,1.96
5445.00,1.96
5444.00,1.96
5443.00,1.96
5442.00,1.96
5441.00,1.96
5440.00,1.96
5439.00,1.96
5438.00,1.96
5437.00,1.96
5436.00,1.96
5435.00,1.96
5434.00,1.96
5433.00,1.96
5432.00,1.96
5431.00,1.96
5430.00,1.96
5429.00,1.96
5428.00,1.96
5427.00,1.96
5426.00,1.96
5425.00,1.96
5424.00,1.96
5423.00,1.96
5422.00,1.96
5421.00,1.96
5420.00,1.96
5419.00,1.96
5418.00,1.96
5417.00,1.96
5416.00,1.96
5415.00,1.96
5414.00,1.96
5413.00,1.96
5412.00,1.96
5411.00,1.96
5410.00,1.96
5409.00,1.96
5408.00,1.96
5407.00,1.96
5406.00,1.96
5405.00,1.96
5404.00,1.96
5403.00,1.96
5402.00,1.96
5401.00,1.96
5400.00,1.96
5399.00,1.96
5398.00,1.96
5397.00,1.95
5396.00,1.95
5395.00,1.95
5394.00,1.95
5393.00,1.94
5392.00,1.94
5391.00,1.94
5390.00,1.94
5389.00,1.93
5388.00,1.93
5387.00,1.93
5386.00,1.93
5385.00,1.92
5384.00,1.92
5383.00,1.92
5382.00,1.91
5381.00,1.91
5380.00,1.91
5379.00,1.90
5378.00,1.90
5377.00,1.90
5376.00,1.89
5375.00,1.89
5374.00,1.88
5373.00,1.88
5372.00,1.87
5371.00,1.87
5370.00,1.86
5369.00,1.86
5368.00,1.85
5367.00,1.84
5366.00,1.84
5365.00,1.83
5364.00,1.82
5363.00,1.81
5362.00,1.80
5361.00,1.80
5360.00,1.79
5359.00,1.78
5358.00,1.77
5357.00,1.76
5356.00,1.75
5355.00,1.74
5354.00,1.73
5353.00,1.72
5352.00,1.71
5351.00,1.69
5350.00,1.68
5349.00,1.67
5348.00,1.66
5347.00,1.65
5346.00,1.64
5345.00,1.63
5344.00,1.61
5343.00,1.60
5342.00,1.59
5341.00,1.58
5340.00,1.57
5339.00,1.55
5338.00,1.54
5337.00,1.53
5336.00,1.52
5335.00,1.50
5334.00,1.49
5333.00,1.48
5332.00,1.47
5331.00,1.45
5330.00,1.44
5329.00,1.43
5328.00,1.42
5327.00,1.41
5326.00,1.39
5325.00,1.38
5324.00,1.37
5323.00,1.36
5322.00,1.35
5321.00,1.34
5320.00,1.32
5319.00,1.31
5318.00,1.30
5317.00,1.29
5316.00,1.28
5315.00,1.27
5314.00,1.26
5313.00,1.25
5312.00,1.24
5311.00,1.23
5310.00,1.22
5309.00,1.21
5308.00,1.20
5307.00,1.19
5306.00,1.18
5305.00,1.18
5304.00,1.17
5303.00,1.16
5302.00,1.16
5301.00,1.15
5300.00,1.14
5299.00,1.14
5298.00,1.13
5297.00,1.13
5296.00,1.13
5295.00,1.12
5294.00,1.12
5293.00,1.11
5292.00,1.11
5291.00,1.11
5290.00,1.10
5289.00,1.10
5288.00,1.10
5287.00,1.10
5286.00,1.09
5285.00,1.09
5284.00,1.09
5283.00,1.09
5282.00,1.08
5281.00,1.08
5280.00,1.08
5279.00,1.08
5278.00,1.08
5277.00,1.08
5276.00,1.08
5275.00,1.07
5274.00,1.07
5273.00,1.07
5272.00,1.07
5271.00,1.07
5270.00,1.07
5269.00,1.07
5268.00,1.07
5267.00,1.07
5266.00,1.06
5265.00,1.06
5264.00,1.06
5263.00,1.06
5262.00,1.06
5261.00,1.06
5260.00,1.06
5259.00,1.06
5258.00,1.06
5257.00,1.06
5256.00,1.06
5255.00,1.06
5254.00,1.06
5253.00,1.06
5252.00,1.06
5251.00,1.06
5250.00,1.06
5249.00,1.06
5248.00,1.06
5247.00,1.06
5246.00,1.06
5245.00,1.06
5244.00,1.06
5243.00,1.06
5242.00,1.06
5241.00,1.06
5240.00,1.06
5239.00,1.06
5238.00,1.06
5237.00,1.06
5236.00,1.06
5235.00,1.06
5234.00,1.06
5233.00,1.06
5232.00,1.07
5231.00,1.07
5230.00,1.07
5229.00,1.07
5228.00,1.07
5227.00,1.07
5226.00,1.07
5225.00,1.07
5224.00,1.07
5223.00,1.07
5222.00,1.07
5221.00,1.07
5220.00,1.07
5219.00,1.07
5218.00,1.07
5217.00,1.07
5216.00,1.07
5215.00,1.07
5214.00,1.07
5213.00,1.07
5212.00,1.07
5211.00,1.07
5210.00,1.07
5209.00,1.07
5208.00,1.07
5207.00,1.07
5206.00,1.07
5205.00,1.08
5204.00,1.08
5203.00,1.08
5202.00,1.08
5201.00,1.08
5200.00,1.08
5199.00,1.08
5198.00,1.08
5197.00,1.08
5196.00,1.08
5195.00,1.08
5194.00,1.09
5193.00,1.09
5192.00,1.09
5191.00,1.09
5190.00,1.09
5189.00,1.09
5188.00,1.09
5187.00,1.09
5186.00,1.09
5185.00,1.09
5184.00,1.09
5183.00,1.09
5182.00,1.09
5181.00,1.09
5180.00,1.09
5179.00,1.09
5178.00,1.09
5177.00,1.09
5176.00,1.09
5175.00,1.09
5174.00,1.10
5173.00,1.10
5172.00,1.10
5171.00,1.10
5170.00,1.10
5169.00,1.10
5168.00,1.10
5167.00,1.10
5166.00,1.10
5165.00,1.10
5164.00,1.10
5163.00,1.10
5162.00,1.11
5161.00,1.11
5160.00,1.11
5159.00,1.11
5158.00,1.11
5157.00,1.11
5156.00,1.11
5155.00,1.11
5154.00,1.11
5153.00,1.12
5152.00,1.12
5151.00,1.12
5150.00,1.12
5149.00,1.12
5148.00,1.12
5147.00,1.12
5146.00,1.12
5145.00,1.12
5144.00,1.12
5143.00,1.12
5142.00,1.12
5141.00,1.12
5140.00,1.12
5139.00,1.12
5138.00,1.12
5137.00,1.12
5136.00,1.12
5135.00,1.12
5134.00,1.12
5133.00,1.12
5132.00,1.12
5131.00,1.12
5130.00,1.12
5129.00,1.12
5128.00,1.12
5127.00,1.12
5126.00,1.12
5125.00,1.12
5124.00,1.13
5123.00,1.13
5122.00,1.13
5121.00,1.13
5120.00,1.13
5119.00,1.13
5118.00,1.13
5117.00,1.13
5116.00,1.13
5115.00,1.14
5114.00,1.14
5113.00,1.14
5112.00,1.14
5111.00,1.14
5110.00,1.14
5109.00,1.14
5108.00,1.14
5107.00,1.14
5106.00,1.14
5105.00,1.14
5104.00,1.14
5103.00,1.14
5102.00,1.14
5101.00,1.15
5100.00,1.15
5099.00,1.15
5098.00,1.15
5097.00,1.15
5096.00,1.15
5095.00,1.15
5094.00,1.15
5093.00,1.15
5092.00,1.15
5091.00,1.15
5090.00,1.15
5089.00,1.15
5088.00,1.16
5087.00,1.16
5086.00,1.16
5085.00,1.16
5084.00,1.16
5083.00,1.16
5082.00,1.16
5081.00,1.16
5080.00,1.16
5079.00,1.16
5078.00,1.16
5077.00,1.16
5076.00,1.16
5075.00,1.16
5074.00,1.16
5073.00,1.16
5072.00,1.16
5071.00,1.16
5070.00,1.17
5069.00,1.17
5068.00,1.17
5067.00,1.17
5066.00,1.17
5065.00,1.17
5064.00,1.17
5063.00,1.18
5062.00,1.18
5061.00,1.18
5060.00,1.18
5059.00,1.18
5058.00,1.18
5057.00,1.18
5056.00,1.19
5055.00,1.19
5054.00,1.19
5053.00,1.19
5052.00,1.19
5051.00,1.19
5050.00,1.19
5049.00,1.19
5048.00,1.19
5047.00,1.19
5046.00,1.19
5045.00,1.19
5044.00,1.19
5043.00,1.20
5042.00,1.20
5041.00,1.20
5040.00,1.20
5039.00,1.20
5038.00,1.20
5037.00,1.20
5036.00,1.20
5035.00,1.20
5034.00,1.20
5033.00,1.20
5032.00,1.20
5031.00,1.20
5030.00,1.20
5029.00,1.20
5028.00,1.21
5027.00,1.21
5026.00,1.21
5025.00,1.21
5024.00,1.21
5023.00,1.21
5022.00,1.21
5021.00,1.21
5020.00,1.21
5019.00,1.22
5018.00,1.22
5017.00,1.22
5016.00,1.22
5015.00,1.22
5014.00,1.22
5013.00,1.22
5012.00,1.22
5011.00,1.23
5010.00,1.23
5009.00,1.23
5008.00,1.23
5007.00,1.23
5006.00,1.23
5005.00,1.23
5004.00,1.23
5003.00,1.23
5002.00,1.23
5001.00,1.23
5000.00,1.24
4999.00,1.24
4998.00,1.24
4997.00,1.24
4996.00,1.24
4995.00,1.24
4994.00,1.24
4993.00,1.24
4992.00,1.24
4991.00,1.24
4990.00,1.24
4989.00,1.24
4988.00,1.25
4987.00,1.25
4986.00,1.25
4985.00,1.25
4984.00,1.25
4983.00,1.25
4982.00,1.25
4981.00,1.25
4980.00,1.25
4979.00,1.25
4978.00,1.25
4977.00,1.26
4976.00,1.26
4975.00,1.26
4974.00,1.26
4973.00,1.26
4972.00,1.26
4971.00,1.27
4970.00,1.27
4969.00,1.27
4968.00,1.27
4967.00,1.27
4966.00,1.27
4965.00,1.28
4964.00,1.28
4963.00,1.28
4962.00,1.28
4961.00,1.28
4960.00,1.28
4959.00,1.28
4958.00,1.29
4957.00,1.29
4956.00,1.29
4955.00,1.29
4954.00,1.29
4953.00,1.29
4952.00,1.29
4951.00,1.29
4950.00,1.29
4949.00,1.29
4948.00,1.29
4947.00,1.29
4946.00,1.29
4945.00,1.29
4944.00,1.29
4943.00,1.29
4942.00,1.29
4941.00,1.29
4940.00,1.29
4939.00,1.29
4938.00,1.29
4937.00,1.30
4936.00,1.30
4935.00,1.30
4934.00,1.30
4933.00,1.30
4932.00,1.30
4931.00,1.30
4930.00,1.30
4929.00,1.30
4928.00,1.31
4927.00,1.31
4926.00,1.31
4925.00,1.31
4924.00,1.31
4923.00,1.31
4922.00,1.31
4921.00,1.31
4920.00,1.32
4919.00,1.32
4918.00,1.32
4917.00,1.32
4916.00,1.32
4915.00,1.32
4914.00,1.33
4913.00,1.33
4912.00,1.33
4911.00,1.33
4910.00,1.33
4909.00,1.34
4908.00,1.34
4907.00,1.34
4906.00,1.34
4905.00,1.34
4904.00,1.34
4903.00,1.34
4902.00,1.34
4901.00,1.34
4900.00,1.35
4899.00,1.35
4898.00,1.35
4897.00,1.35
4896.00,1.35
4895.00,1.35
4894.00,1.35
4893.00,1.35
4892.00,1.35
4891.00,1.35
4890.00,1.35
4889.00,1.35
4888.00,1.35
4887.00,1.35
4886.00,1.35
4885.00,1.35
4884.00,1.36
4883.00,1.36
4882.00,1.36
4881.00,1.36
4880.00,1.36
4879.00,1.36
4878.00,1.36
4877.00,1.36
4876.00,1.36
4875.00,1.36
4874.00,1.36
4873.00,1.36
4872.00,1.36
4871.00,1.36
4870.00,1.36
4869.00,1.36
4868.00,1.36
4867.00,1.36
4866.00,1.36
4865.00,1.36
4864.00,1.36
4863.00,1.36
4862.00,1.36
4861.00,1.37
4860.00,1.37
4859.00,1.37
4858.00,1.37
4857.00,1.37
4856.00,1.37
4855.00,1.37
4854.00,1.37
4853.00,1.37
4852.00,1.37
4851.00,1.38
4850.00,1.38
4849.00,1.38
4848.00,1.38
4847.00,1.38
4846.00,1.39
4845.00,1.39
4844.00,1.39
4843.00,1.39
4842.00,1.39
4841.00,1.39
4840.00,1.40
4839.00,1.40
4838.00,1.40
4837.00,1.40
4836.00,1.40
4835.00,1.40
4834.00,1.40
4833.00,1.40
4832.00,1.41
4831.00,1.41
4830.00,1.41
4829.00,1.41
4828.00,1.41
4827.00,1.41
4826.00,1.41
4825.00,1.41
4824.00,1.41
4823.00,1.41
4822.00,1.41
4821.00,1.41
4820.00,1.42
4819.00,1.42
4818.00,1.42
4817.00,1.42
4816.00,1.42
4815.00,1.42
4814.00,1.42
4813.00,1.42
4812.00,1.43
4811.00,1.43
4810.00,1.43
4809.00,1.43
4808.00,1.43
4807.00,1.43
4806.00,1.43
4805.00,1.43
4804.00,1.43
4803.00,1.44
4802.00,1.44
4801.00,1.44
4800.00,1.44
4799.00,1.44
4798.00,1.44
4797.00,1.44
4796.00,1.44
4795.00,1.45
4794.00,1.45
4793.00,1.45
4792.00,1.45
4791.00,1.45
4790.00,1.46
4789.00,1.46
4788.00,1.46
4787.00,1.46
4786.00,1.46
4785.00,1.46
4784.00,1.47
4783.00,1.47
4782.00,1.47
4781.00,1.47
4780.00,1.47
4779.00,1.48
4778.00,1.48
4777.00,1.48
4776.00,1.48
4775.00,1.48
4774.00,1.49
4773.00,1.49
4772.00,1.49
4771.00,1.49
4770.00,1.50
4769.00,1.50
4768.00,1.50
4767.00,1.50
4766.00,1.50
4765.00,1.50
4764.00,1.51
4763.00,1.51
4762.00,1.51
4761.00,1.51
4760.00,1.51
4759.00,1.51
4758.00,1.51
4757.00,1.51
4756.00,1.51
4755.00,1.51
4754.00,1.51
4753.00,1.51
4752.00,1.51
4751.00,1.51
4750.00,1.52
4749.00,1.52
4748.00,1.52
4747.00,1.52
4746.00,1.52
4745.00,1.53
4744.00,1.53
4743.00,1.53
4742.00,1.53
4741.00,1.54
4740.00,1.54
4739.00,1.54
4738.00,1.54
4737.00,1.55
4736.00,1.55
4735.00,1.55
4734.00,1.55
4733.00,1.56
4732.00,1.56
4731.00,1.56
4730.00,1.56
4729.00,1.57
4728.00,1.57
4727.00,1.57
4726.00,1.57
4725.00,1.58
4724.00,1.58
4723.00,1.58
4722.00,1.58
4721.00,1.59
4720.00,1.59
4719.00,1.59
4718.00,1.59
4717.00,1.59
4716.00,1.60
4715.00,1.60
4714.00,1.60
4713.00,1.60
4712.00,1.60
4711.00,1.60
4710.00,1.60
4709.00,1.61
4708.00,1.61
4707.00,1.61
4706.00,1.61
4705.00,1.61
4704.00,1.61
4703.00,1.61
4702.00,1.61
4701.00,1.61
4700.00,1.62
4699.00,1.62
4698.00,1.62
4697.00,1.62
4696.00,1.62
4695.00,1.62
4694.00,1.62
4693.00,1.62
4692.00,1.63
4691.00,1.63
4690.00,1.63
4689.00,1.63
4688.00,1.63
4687.00,1.63
4686.00,1.63
4685.00,1.64
4684.00,1.64
4683.00,1.64
4682.00,1.64
4681.00,1.64
4680.00,1.64
4679.00,1.65
4678.00,1.65
4677.00,1.65
4676.00,1.65
4675.00,1.65
4674.00,1.66
4673.00,1.66
4672.00,1.66
4671.00,1.66
4670.00,1.66
4669.00,1.66
4668.00,1.67
4667.00,1.67
4666.00,1.67
4665.00,1.67
4664.00,1.68
4663.00,1.68
4662.00,1.68
4661.00,1.68
4660.00,1.69
4659.00,1.69
4658.00,1.69
4657.00,1.69
4656.00,1.70
4655.00,1.70
4654.00,1.70
4653.00,1.71
4652.00,1.71
4651.00,1.71
4650.00,1.71
4649.00,1.71
4648.00,1.72
4647.00,1.72
4646.00,1.72
4645.00,1.72
4644.00,1.72
4643.00,1.72
4642.00,1.72
4641.00,1.73
4640.00,1.73
4639.00,1.73
4638.00,1.73
4637.00,1.73
4636.00,1.73
4635.00,1.73
4634.00,1.73
4633.00,1.73
4632.00,1.73
4631.00,1.74
4630.00,1.74
4629.00,1.74
4628.00,1.74
4627.00,1.74
4626.00,1.74
4625.00,1.74
4624.00,1.74
4623.00,1.74
4622.00,1.74
4621.00,1.74
4620.00,1.74
4619.00,1.75
4618.00,1.75
4617.00,1.75
4616.00,1.75
4615.00,1.75
4614.00,1.75
4613.00,1.75
4612.00,1.75
4611.00,1.75
4610.00,1.75
4609.00,1.75
4608.00,1.75
4607.00,1.75
4606.00,1.76
4605.00,1.76
4604.00,1.76
4603.00,1.76
4602.00,1.76
4601.00,1.76
4600.00,1.76
4599.00,1.77
4598.00,1.77
4597.00,1.77
4596.00,1.77
4595.00,1.77
4594.00,1.77
4593.00,1.77
4592.00,1.77
4591.00,1.77
4590.00,1.77
4589.00,1.77
4588.00,1.78
4587.00,1.78
4586.00,1.78
4585.00,1.78
4584.00,1.78
4583.00,1.78
4582.00,1.78
4581.00,1.79
4580.00,1.79
4579.00,1.79
4578.00,1.79
4577.00,1.79
4576.00,1.80
4575.00,1.80
4574.00,1.80
4573.00,1.80
4572.00,1.80
4571.00,1.80
4570.00,1.80
4569.00,1.81
4568.00,1.81
4567.00,1.81
4566.00,1.81
4565.00,1.81
4564.00,1.81
4563.00,1.81
4562.00,1.81
4561.00,1.81
4560.00,1.81
4559.00,1.82
4558.00,1.82
4557.00,1.82
4556.00,1.82
4555.00,1.82
4554.00,1.82
4553.00,1.82
4552.00,1.82
4551.00,1.82
4550.00,1.82
4549.00,1.82
4548.00,1.82
4547.00,1.83
4546.00,1.83
4545.00,1.83
4544.00,1.83
4543.00,1.83
4542.00,1.83
4541.00,1.83
4540.00,1.83
4539.00,1.83
4538.00,1.83
4537.00,1.83
4536.00,1.83
4535.00,1.83
4534.00,1.84
4533.00,1.84
4532.00,1.84
4531.00,1.84
4530.00,1.84
4529.00,1.84
4528.00,1.84
4527.00,1.84
4526.00,1.84
4525.00,1.85
4524.00,1.85
4523.00,1.85
4522.00,1.85
4521.00,1.85
4520.00,1.85
4519.00,1.85
4518.00,1.85
4517.00,1.85
4516.00,1.85
4515.00,1.85
4514.00,1.85
4513.00,1.85
4512.00,1.85
4511.00,1.85
4510.00,1.85
4509.00,1.85
4508.00,1.85
4507.00,1.85
4506.00,1.85
4505.00,1.84
4504.00,1.84
4503.00,1.84
4502.00,1.84
4501.00,1.84
4500.00,1.84
4499.00,1.83
4498.00,1.83
4497.00,1.83
4496.00,1.83
4495.00,1.83
4494.00,1.83
4493.00,1.83
4492.00,1.83
4491.00,1.83
4490.00,1.83
4489.00,1.83
4488.00,1.83
4487.00,1.82
4486.00,1.82
4485.00,1.82
4484.00,1.82
4483.00,1.82
4482.00,1.82
4481.00,1.82
4480.00,1.82
4479.00,1.81
4478.00,1.81
4477.00,1.81
4476.00,1.81
4475.00,1.81
4474.00,1.80
4473.00,1.80
4472.00,1.80
4471.00,1.80
4470.00,1.79
4469.00,1.79
4468.00,1.79
4467.00,1.78
4466.00,1.78
4465.00,1.78
4464.00,1.78
4463.00,1.77
4462.00,1.77
4461.00,1.77
4460.00,1.76
4459.00,1.76
4458.00,1.76
4457.00,1.76
4456.00,1.75
4455.00,1.75
4454.00,1.75
4453.00,1.74
4452.00,1.74
4451.00,1.74
4450.00,1.73
4449.00,1.73
4448.00,1.73
4447.00,1.72
4446.00,1.72
4445.00,1.72
4444.00,1.71
4443.00,1.71
4442.00,1.70
4441.00,1.70
4440.00,1.69
4439.00,1.69
4438.00,1.68
4437.00,1.68
4436.00,1.68
4435.00,1.67
4434.00,1.67
4433.00,1.66
4432.00,1.66
4431.00,1.65
4430.00,1.65
4429.00,1.65
4428.00,1.64
4427.00,1.64
4426.00,1.64
4425.00,1.63
4424.00,1.63
4423.00,1.63
4422.00,1.63
4421.00,1.63
4420.00,1.63
4419.00,1.63
4418.00,1.62
4417.00,1.62
4416.00,1.62
4415.00,1.62
4414.00,1.62
4413.00,1.62
4412.00,1.63
4411.00,1.63
4410.00,1.63
4409.00,1.63
4408.00,1.63
4407.00,1.63
4406.00,1.63
4405.00,1.63
4404.00,1.63
4403.00,1.63
4402.00,1.64
4401.00,1.64
4400.00,1.64
4399.00,1.64
4398.00,1.64
4397.00,1.64
4396.00,1.64
4395.00,1.65
4394.00,1.65
4393.00,1.65
4392.00,1.65
4391.00,1.65
4390.00,1.65
4389.00,1.65
4388.00,1.66
4387.00,1.66
4386.00,1.66
4385.00,1.66
4384.00,1.66
4383.00,1.66
4382.00,1.66
4381.00,1.66
4380.00,1.66
4379.00,1.67
4378.00,1.67
4377.00,1.67
4376.00,1.67
4375.00,1.67
4374.00,1.67
4373.00,1.67
4372.00,1.67
4371.00,1.67
4370.00,1.67
4369.00,1.67
4368.00,1.67
4367.00,1.67
4366.00,1.67
4365.00,1.67
4364.00,1.67
4363.00,1.67
4362.00,1.67
4361.00,1.67
4360.00,1.67
4359.00,1.67
4358.00,1.67
4357.00,1.68
4356.00,1.68
4355.00,1.68
4354.00,1.68
4353.00,1.68
4352.00,1.68
4351.00,1.68
4350.00,1.68
4349.00,1.68
4348.00,1.68
4347.00,1.68
4346.00,1.68
4345.00,1.68
4344.00,1.68
4343.00,1.68
4342.00,1.68
4341.00,1.68
4340.00,1.68
4339.00,1.68
4338.00,1.68
4337.00,1.68
4336.00,1.68
4335.00,1.68
4334.00,1.68
4333.00,1.69
4332.00,1.69
4331.00,1.69
4330.00,1.69
4329.00,1.69
4328.00,1.69
4327.00,1.69
4326.00,1.69
4325.00,1.69
4324.00,1.69
4323.00,1.69
4322.00,1.69
4321.00,1.70
4320.00,1.70
4319.00,1.70
4318.00,1.70
4317.00,1.70
4316.00,1.71
4315.00,1.71
4314.00,1.71
4313.00,1.71
4312.00,1.72
4311.00,1.72
4310.00,1.72
4309.00,1.73
4308.00,1.73
4307.00,1.73
4306.00,1.74
4305.00,1.74
4304.00,1.74
4303.00,1.75
4302.00,1.75
4301.00,1.75
4300.00,1.76
4299.00,1.76
4298.00,1.76
4297.00,1.76
4296.00,1.77
4295.00,1.77
4294.00,1.77
4293.00,1.77
4292.00,1.77
4291.00,1.77
4290.00,1.77
4289.00,1.77
4288.00,1.77
4287.00,1.77
4286.00,1.77
4285.00,1.77
4284.00,1.77
4283.00,1.77
4282.00,1.77
4281.00,1.77
4280.00,1.77
4279.00,1.77
4278.00,1.77
4277.00,1.77
4276.00,1.77
4275.00,1.77
4274.00,1.77
4273.00,1.77
4272.00,1.77
4271.00,1.77
4270.00,1.77
4269.00,1.77
4268.00,1.77
4267.00,1.77
4266.00,1.77
4265.00,1.77
4264.00,1.77
4263.00,1.77
4262.00,1.77
4261.00,1.77
4260.00,1.77
4259.00,1.77
4258.00,1.77
4257.00,1.77
4256.00,1.78
4255.00,1.78
4254.00,1.78
4253.00,1.78
4252.00,1.78
4251.00,1.79
4250.00,1.79
4249.00,1.79
4248.00,1.79
4247.00,1.80
4246.00,1.80
4245.00,1.80
4244.00,1.81
4243.00,1.81
4242.00,1.81
4241.00,1.82
4240.00,1.82
4239.00,1.82
4238.00,1.82
4237.00,1.83
4236.00,1.83
4235.00,1.83
4234.00,1.83
4233.00,1.83
4232.00,1.83
4231.00,1.83
4230.00,1.83
4229.00,1.83
4228.00,1.83
4227.00,1.83
4226.00,1.83
4225.00,1.83
4224.00,1.83
4223.00,1.83
4222.00,1.83
4221.00,1.83
4220.00,1.83
4219.00,1.83
4218.00,1.83
4217.00,1.83
4216.00,1.83
4215.00,1.83
4214.00,1.83
4213.00,1.83
4212.00,1.83
4211.00,1.83
4210.00,1.83
4209.00,1.83
4208.00,1.83
4207.00,1.83
4206.00,1.83
4205.00,1.84
4204.00,1.84
4203.00,1.84
4202.00,1.84
4201.00,1.84
4200.00,1.84
4199.00,1.84
4198.00,1.84
4197.00,1.84
4196.00,1.85
4195.00,1.85
4194.00,1.85
4193.00,1.85
4192.00,1.85
4191.00,1.85
4190.00,1.85
4189.00,1.85
4188.00,1.85
4187.00,1.85
4186.00,1.85
4185.00,1.85
4184.00,1.85
4183.00,1.85
4182.00,1.85
4181.00,1.85
4180.00,1.85
4179.00,1.85
4178.00,1.85
4177.00,1.86
4176.00,1.86
4175.00,1.86
4174.00,1.86
4173.00,1.86
4172.00,1.86
4171.00,1.86
4170.00,1.86
4169.00,1.86
4168.00,1.86
4167.00,1.86
4166.00,1.86
4165.00,1.86
4164.00,1.86
4163.00,1.86
4162.00,1.86
4161.00,1.86
4160.00,1.86
4159.00,1.86
4158.00,1.86
4157.00,1.86
4156.00,1.86
4155.00,1.86
4154.00,1.86
4153.00,1.86
4152.00,1.86
4151.00,1.86
4150.00,1.86
4149.00,1.86
4148.00,1.86
4147.00,1.86
4146.00,1.86
4145.00,1.86
4144.00,1.86
4143.00,1.86
4142.00,1.86
4141.00,1.86
4140.00,1.86
4139.00,1.87
4138.00,1.87
4137.00,1.87
4136.00,1.87
4135.00,1.87
4134.00,1.87
4133.00,1.87
4132.00,1.87
4131.00,1.87
4130.00,1.88
4129.00,1.88
4128.00,1.88
4127.00,1.88
4126.00,1.88
4125.00,1.88
4124.00,1.88
4123.00,1.88
4122.00,1.88
4121.00,1.88
4120.00,1.88
4119.00,1.88
4118.00,1.88
4117.00,1.88
4116.00,1.88
4115.00,1.88
4114.00,1.88
4113.00,1.88
4112.00,1.88
4111.00,1.88
4110.00,1.88
4109.00,1.88
4108.00,1.88
4107.00,1.88
4106.00,1.88
4105.00,1.88
4104.00,1.89
4103.00,1.89
4102.00,1.89
4101.00,1.89
4100.00,1.90
4099.00,1.90
4098.00,1.90
4097.00,1.90
4096.00,1.91
4095.00,1.91
4094.00,1.91
4093.00,1.91
4092.00,1.92
4091.00,1.92
4090.00,1.92
4089.00,1.92
4088.00,1.92
4087.00,1.92
4086.00,1.92
4085.00,1.92
4084.00,1.92
4083.00,1.92
4082.00,1.92
4081.00,1.92
4080.00,1.92
4079.00,1.92
4078.00,1.92
4077.00,1.92
4076.00,1.92
4075.00,1.92
4074.00,1.91
4073.00,1.91
4072.00,1.91
4071.00,1.91
4070.00,1.91
4069.00,1.91
4068.00,1.91
4067.00,1.91
4066.00,1.91
4065.00,1.91
4064.00,1.91
4063.00,1.91
4062.00,1.91
4061.00,1.91
4060.00,1.91
4059.00,1.91
4058.00,1.91
4057.00,1.91
4056.00,1.91
4055.00,1.91
4054.00,1.91
4053.00,1.91
4052.00,1.91
4051.00,1.91
4050.00,1.92
4049.00,1.92
4048.00,1.92
4047.00,1.92
4046.00,1.92
4045.00,1.93
4044.00,1.93
4043.00,1.93
4042.00,1.93
4041.00,1.93
4040.00,1.93
4039.00,1.94
4038.00,1.94
4037.00,1.94
4036.00,1.94
4035.00,1.94
4034.00,1.94
4033.00,1.94
4032.00,1.94
4031.00,1.94
4030.00,1.94
4029.00,1.94
4028.00,1.93
4027.00,1.93
4026.00,1.93
4025.00,1.94
4024.00,1.94
4023.00,1.94
4022.00,1.94
4021.00,1.94
4020.00,1.94
4019.00,1.94
4018.00,1.95
4017.00,1.95
4016.00,1.95
4015.00,1.95
4014.00,1.95
4013.00,1.95
4012.00,1.96
4011.00,1.96
4010.00,1.96
4009.00,1.96
4008.00,1.96
4007.00,1.96
4006.00,1.96
4005.00,1.96
4004.00,1.96
4003.00,1.96
4002.00,1.96
4001.00,1.96
4000.00,1.96
