创建为新数据集,样品 119 用户 Administrator 日期 星期六, 七月 21 2018
cm-1,%T
10000.00,1.90
9999.00,1.90
9998.00,1.90
9997.00,1.90
9996.00,1.90
9995.00,1.90
9994.00,1.89
9993.00,1.89
9992.00,1.89
9991.00,1.89
9990.00,1.89
9989.00,1.89
9988.00,1.88
9987.00,1.88
9986.00,1.88
9985.00,1.88
9984.00,1.87
9983.00,1.87
9982.00,1.87
9981.00,1.86
9980.00,1.86
9979.00,1.86
9978.00,1.86
9977.00,1.85
9976.00,1.85
9975.00,1.85
9974.00,1.85
9973.00,1.85
9972.00,1.85
9971.00,1.85
9970.00,1.86
9969.00,1.86
9968.00,1.86
9967.00,1.86
9966.00,1.87
9965.00,1.87
9964.00,1.87
9963.00,1.87
9962.00,1.88
9961.00,1.88
9960.00,1.88
9959.00,1.88
9958.00,1.88
9957.00,1.88
9956.00,1.89
9955.00,1.89
9954.00,1.89
9953.00,1.89
9952.00,1.88
9951.00,1.88
9950.00,1.88
9949.00,1.88
9948.00,1.88
9947.00,1.87
9946.00,1.87
9945.00,1.87
9944.00,1.87
9943.00,1.87
9942.00,1.87
9941.00,1.87
9940.00,1.87
9939.00,1.87
9938.00,1.87
9937.00,1.87
9936.00,1.87
9935.00,1.87
9934.00,1.87
9933.00,1.87
9932.00,1.87
9931.00,1.87
9930.00,1.88
9929.00,1.88
9928.00,1.88
9927.00,1.88
9926.00,1.87
9925.00,1.87
9924.00,1.87
9923.00,1.87
9922.00,1.87
9921.00,1.87
9920.00,1.86
9919.00,1.86
9918.00,1.86
9917.00,1.86
9916.00,1.86
9915.00,1.86
9914.00,1.86
9913.00,1.86
9912.00,1.86
9911.00,1.86
9910.00,1.87
9909.00,1.87
9908.00,1.87
9907.00,1.87
9906.00,1.87
9905.00,1.88
9904.00,1.88
9903.00,1.88
9902.00,1.88
9901.00,1.89
9900.00,1.89
9899.00,1.89
9898.00,1.89
9897.00,1.89
9896.00,1.90
9895.00,1.90
9894.00,1.90
9893.00,1.90
9892.00,1.90
9891.00,1.90
9890.00,1.89
9889.00,1.89
9888.00,1.89
9887.00,1.89
9886.00,1.88
9885.00,1.88
9884.00,1.88
9883.00,1.87
9882.00,1.87
9881.00,1.86
9880.00,1.86
9879.00,1.85
9878.00,1.85
9877.00,1.84
9876.00,1.84
9875.00,1.83
9874.00,1.83
9873.00,1.83
9872.00,1.82
9871.00,1.82
9870.00,1.82
9869.00,1.82
9868.00,1.82
9867.00,1.82
9866.00,1.82
9865.00,1.82
9864.00,1.82
9863.00,1.82
9862.00,1.83
9861.00,1.83
9860.00,1.84
9859.00,1.84
9858.00,1.84
9857.00,1.85
9856.00,1.85
9855.00,1.85
9854.00,1.85
9853.00,1.86
9852.00,1.86
9851.00,1.86
9850.00,1.86
9849.00,1.86
9848.00,1.86
9847.00,1.85
9846.00,1.85
9845.00,1.85
9844.00,1.85
9843.00,1.84
9842.00,1.84
9841.00,1.84
9840.00,1.84
9839.00,1.84
9838.00,1.83
9837.00,1.83
9836.00,1.83
9835.00,1.83
9834.00,1.84
9833.00,1.84
9832.00,1.84
9831.00,1.84
9830.00,1.84
9829.00,1.85
9828.00,1.85
9827.00,1.85
9826.00,1.85
9825.00,1.85
9824.00,1.86
9823.00,1.86
9822.00,1.86
9821.00,1.86
9820.00,1.86
9819.00,1.85
9818.00,1.85
9817.00,1.85
9816.00,1.85
9815.00,1.85
9814.00,1.85
9813.00,1.84
9812.00,1.84
9811.00,1.84
9810.00,1.84
9809.00,1.84
9808.00,1.84
9807.00,1.84
9806.00,1.84
9805.00,1.84
9804.00,1.84
9803.00,1.84
9802.00,1.84
9801.00,1.84
9800.00,1.83
9799.00,1.83
9798.00,1.83
9797.00,1.83
9796.00,1.83
9795.00,1.83
9794.00,1.83
9793.00,1.83
9792.00,1.83
9791.00,1.83
9790.00,1.83
9789.00,1.83
9788.00,1.83
9787.00,1.83
9786.00,1.83
9785.00,1.83
9784.00,1.83
9783.00,1.83
9782.00,1.83
9781.00,1.83
9780.00,1.82
9779.00,1.82
9778.00,1.82
9777.00,1.82
9776.00,1.82
9775.00,1.82
9774.00,1.82
9773.00,1.82
9772.00,1.82
9771.00,1.82
9770.00,1.82
9769.00,1.82
9768.00,1.82
9767.00,1.82
9766.00,1.82
9765.00,1.82
9764.00,1.83
9763.00,1.83
9762.00,1.83
9761.00,1.83
9760.00,1.83
9759.00,1.83
9758.00,1.83
9757.00,1.83
9756.00,1.83
9755.00,1.83
9754.00,1.83
9753.00,1.83
9752.00,1.83
9751.00,1.83
9750.00,1.83
9749.00,1.84
9748.00,1.84
9747.00,1.84
9746.00,1.84
9745.00,1.84
9744.00,1.84
9743.00,1.84
9742.00,1.84
9741.00,1.84
9740.00,1.85
9739.00,1.85
9738.00,1.85
9737.00,1.85
9736.00,1.85
9735.00,1.85
9734.00,1.85
9733.00,1.85
9732.00,1.85
9731.00,1.85
9730.00,1.85
9729.00,1.85
9728.00,1.85
9727.00,1.84
9726.00,1.84
9725.00,1.84
9724.00,1.84
9723.00,1.83
9722.00,1.83
9721.00,1.83
9720.00,1.83
9719.00,1.83
9718.00,1.82
9717.00,1.82
9716.00,1.82
9715.00,1.82
9714.00,1.82
9713.00,1.82
9712.00,1.83
9711.00,1.83
9710.00,1.83
9709.00,1.84
9708.00,1.84
9707.00,1.84
9706.00,1.85
9705.00,1.85
9704.00,1.85
9703.00,1.86
9702.00,1.86
9701.00,1.86
9700.00,1.86
9699.00,1.87
9698.00,1.87
9697.00,1.87
9696.00,1.87
9695.00,1.87
9694.00,1.87
9693.00,1.87
9692.00,1.86
9691.00,1.86
9690.00,1.86
9689.00,1.86
9688.00,1.86
9687.00,1.86
9686.00,1.86
9685.00,1.86
9684.00,1.86
9683.00,1.86
9682.00,1.86
9681.00,1.86
9680.00,1.86
9679.00,1.86
9678.00,1.86
9677.00,1.86
9676.00,1.86
9675.00,1.86
9674.00,1.86
9673.00,1.85
9672.00,1.85
9671.00,1.85
9670.00,1.85
9669.00,1.85
9668.00,1.85
9667.00,1.85
9666.00,1.85
9665.00,1.85
9664.00,1.85
9663.00,1.85
9662.00,1.85
9661.00,1.85
9660.00,1.86
9659.00,1.86
9658.00,1.86
9657.00,1.86
9656.00,1.86
9655.00,1.86
9654.00,1.86
9653.00,1.86
9652.00,1.86
9651.00,1.86
9650.00,1.86
9649.00,1.86
9648.00,1.86
9647.00,1.86
9646.00,1.86
9645.00,1.87
9644.00,1.87
9643.00,1.87
9642.00,1.87
9641.00,1.87
9640.00,1.87
9639.00,1.87
9638.00,1.87
9637.00,1.87
9636.00,1.87
9635.00,1.87
9634.00,1.87
9633.00,1.87
9632.00,1.87
9631.00,1.87
9630.00,1.87
9629.00,1.87
9628.00,1.87
9627.00,1.87
9626.00,1.87
9625.00,1.87
9624.00,1.87
9623.00,1.87
9622.00,1.87
9621.00,1.87
9620.00,1.87
9619.00,1.87
9618.00,1.87
9617.00,1.87
9616.00,1.87
9615.00,1.87
9614.00,1.87
9613.00,1.87
9612.00,1.87
9611.00,1.87
9610.00,1.87
9609.00,1.87
9608.00,1.87
9607.00,1.87
9606.00,1.86
9605.00,1.86
9604.00,1.86
9603.00,1.86
9602.00,1.86
9601.00,1.86
9600.00,1.86
9599.00,1.86
9598.00,1.86
9597.00,1.86
9596.00,1.86
9595.00,1.86
9594.00,1.86
9593.00,1.86
9592.00,1.85
9591.00,1.85
9590.00,1.85
9589.00,1.85
9588.00,1.85
9587.00,1.84
9586.00,1.84
9585.00,1.84
9584.00,1.83
9583.00,1.83
9582.00,1.83
9581.00,1.82
9580.00,1.82
9579.00,1.82
9578.00,1.82
9577.00,1.82
9576.00,1.82
9575.00,1.82
9574.00,1.82
9573.00,1.82
9572.00,1.82
9571.00,1.83
9570.00,1.83
9569.00,1.84
9568.00,1.84
9567.00,1.84
9566.00,1.85
9565.00,1.85
9564.00,1.86
9563.00,1.86
9562.00,1.87
9561.00,1.87
9560.00,1.88
9559.00,1.88
9558.00,1.88
9557.00,1.88
9556.00,1.89
9555.00,1.89
9554.00,1.89
9553.00,1.89
9552.00,1.89
9551.00,1.89
9550.00,1.89
9549.00,1.89
9548.00,1.89
9547.00,1.88
9546.00,1.88
9545.00,1.88
9544.00,1.88
9543.00,1.87
9542.00,1.87
9541.00,1.87
9540.00,1.87
9539.00,1.87
9538.00,1.86
9537.00,1.86
9536.00,1.86
9535.00,1.86
9534.00,1.86
9533.00,1.86
9532.00,1.86
9531.00,1.86
9530.00,1.86
9529.00,1.87
9528.00,1.87
9527.00,1.87
9526.00,1.87
9525.00,1.87
9524.00,1.87
9523.00,1.87
9522.00,1.87
9521.00,1.88
9520.00,1.88
9519.00,1.88
9518.00,1.88
9517.00,1.88
9516.00,1.88
9515.00,1.88
9514.00,1.88
9513.00,1.89
9512.00,1.89
9511.00,1.89
9510.00,1.89
9509.00,1.89
9508.00,1.89
9507.00,1.89
9506.00,1.89
9505.00,1.89
9504.00,1.89
9503.00,1.89
9502.00,1.89
9501.00,1.89
9500.00,1.89
9499.00,1.89
9498.00,1.88
9497.00,1.88
9496.00,1.88
9495.00,1.87
9494.00,1.87
9493.00,1.87
9492.00,1.86
9491.00,1.86
9490.00,1.86
9489.00,1.85
9488.00,1.85
9487.00,1.85
9486.00,1.85
9485.00,1.85
9484.00,1.85
9483.00,1.85
9482.00,1.85
9481.00,1.85
9480.00,1.85
9479.00,1.85
9478.00,1.85
9477.00,1.85
9476.00,1.86
9475.00,1.86
9474.00,1.86
9473.00,1.87
9472.00,1.87
9471.00,1.87
9470.00,1.88
9469.00,1.88
9468.00,1.88
9467.00,1.88
9466.00,1.89
9465.00,1.89
9464.00,1.89
9463.00,1.89
9462.00,1.89
9461.00,1.89
9460.00,1.90
9459.00,1.90
9458.00,1.90
9457.00,1.90
9456.00,1.90
9455.00,1.89
9454.00,1.89
9453.00,1.89
9452.00,1.89
9451.00,1.89
9450.00,1.89
9449.00,1.89
9448.00,1.89
9447.00,1.89
9446.00,1.88
9445.00,1.88
9444.00,1.88
9443.00,1.88
9442.00,1.88
9441.00,1.88
9440.00,1.88
9439.00,1.87
9438.00,1.87
9437.00,1.87
9436.00,1.87
9435.00,1.87
9434.00,1.86
9433.00,1.86
9432.00,1.86
9431.00,1.86
9430.00,1.86
9429.00,1.86
9428.00,1.85
9427.00,1.85
9426.00,1.85
9425.00,1.85
9424.00,1.85
9423.00,1.85
9422.00,1.85
9421.00,1.86
9420.00,1.86
9419.00,1.86
9418.00,1.86
9417.00,1.86
9416.00,1.86
9415.00,1.87
9414.00,1.87
9413.00,1.87
9412.00,1.87
9411.00,1.87
9410.00,1.87
9409.00,1.88
9408.00,1.88
9407.00,1.88
9406.00,1.88
9405.00,1.87
9404.00,1.87
9403.00,1.87
9402.00,1.87
9401.00,1.87
9400.00,1.87
9399.00,1.87
9398.00,1.87
9397.00,1.87
9396.00,1.87
9395.00,1.86
9394.00,1.86
9393.00,1.86
9392.00,1.86
9391.00,1.86
9390.00,1.86
9389.00,1.86
9388.00,1.86
9387.00,1.86
9386.00,1.86
9385.00,1.86
9384.00,1.85
9383.00,1.85
9382.00,1.85
9381.00,1.85
9380.00,1.85
9379.00,1.85
9378.00,1.84
9377.00,1.84
9376.00,1.84
9375.00,1.84
9374.00,1.84
9373.00,1.84
9372.00,1.84
9371.00,1.84
9370.00,1.84
9369.00,1.84
9368.00,1.84
9367.00,1.84
9366.00,1.84
9365.00,1.84
9364.00,1.84
9363.00,1.85
9362.00,1.85
9361.00,1.85
9360.00,1.85
9359.00,1.86
9358.00,1.86
9357.00,1.86
9356.00,1.87
9355.00,1.87
9354.00,1.87
9353.00,1.87
9352.00,1.88
9351.00,1.88
9350.00,1.88
9349.00,1.88
9348.00,1.88
9347.00,1.88
9346.00,1.88
9345.00,1.88
9344.00,1.88
9343.00,1.88
9342.00,1.87
9341.00,1.87
9340.00,1.87
9339.00,1.87
9338.00,1.87
9337.00,1.87
9336.00,1.87
9335.00,1.87
9334.00,1.86
9333.00,1.86
9332.00,1.86
9331.00,1.86
9330.00,1.86
9329.00,1.86
9328.00,1.86
9327.00,1.86
9326.00,1.86
9325.00,1.86
9324.00,1.86
9323.00,1.86
9322.00,1.86
9321.00,1.86
9320.00,1.86
9319.00,1.86
9318.00,1.86
9317.00,1.86
9316.00,1.87
9315.00,1.87
9314.00,1.87
9313.00,1.87
9312.00,1.87
9311.00,1.87
9310.00,1.87
9309.00,1.87
9308.00,1.87
9307.00,1.87
9306.00,1.87
9305.00,1.87
9304.00,1.87
9303.00,1.87
9302.00,1.87
9301.00,1.87
9300.00,1.87
9299.00,1.87
9298.00,1.87
9297.00,1.87
9296.00,1.87
9295.00,1.87
9294.00,1.88
9293.00,1.88
9292.00,1.88
9291.00,1.88
9290.00,1.88
9289.00,1.88
9288.00,1.88
9287.00,1.88
9286.00,1.88
9285.00,1.88
9284.00,1.88
9283.00,1.88
9282.00,1.88
9281.00,1.88
9280.00,1.87
9279.00,1.87
9278.00,1.87
9277.00,1.87
9276.00,1.87
9275.00,1.87
9274.00,1.87
9273.00,1.86
9272.00,1.86
9271.00,1.86
9270.00,1.86
9269.00,1.85
9268.00,1.85
9267.00,1.85
9266.00,1.85
9265.00,1.85
9264.00,1.84
9263.00,1.84
9262.00,1.84
9261.00,1.84
9260.00,1.84
9259.00,1.84
9258.00,1.84
9257.00,1.84
9256.00,1.84
9255.00,1.84
9254.00,1.84
9253.00,1.84
9252.00,1.84
9251.00,1.84
9250.00,1.85
9249.00,1.85
9248.00,1.85
9247.00,1.85
9246.00,1.86
9245.00,1.86
9244.00,1.86
9243.00,1.86
9242.00,1.86
9241.00,1.87
9240.00,1.87
9239.00,1.87
9238.00,1.87
9237.00,1.87
9236.00,1.88
9235.00,1.88
9234.00,1.88
9233.00,1.88
9232.00,1.88
9231.00,1.88
9230.00,1.88
9229.00,1.88
9228.00,1.88
9227.00,1.88
9226.00,1.88
9225.00,1.88
9224.00,1.88
9223.00,1.87
9222.00,1.87
9221.00,1.87
9220.00,1.87
9219.00,1.87
9218.00,1.88
9217.00,1.88
9216.00,1.88
9215.00,1.88
9214.00,1.88
9213.00,1.88
9212.00,1.88
9211.00,1.88
9210.00,1.88
9209.00,1.88
9208.00,1.88
9207.00,1.88
9206.00,1.88
9205.00,1.88
9204.00,1.88
9203.00,1.88
9202.00,1.88
9201.00,1.88
9200.00,1.88
9199.00,1.88
9198.00,1.88
9197.00,1.88
9196.00,1.88
9195.00,1.88
9194.00,1.88
9193.00,1.88
9192.00,1.88
9191.00,1.88
9190.00,1.88
9189.00,1.88
9188.00,1.89
9187.00,1.89
9186.00,1.89
9185.00,1.89
9184.00,1.89
9183.00,1.89
9182.00,1.89
9181.00,1.89
9180.00,1.89
9179.00,1.90
9178.00,1.90
9177.00,1.90
9176.00,1.90
9175.00,1.90
9174.00,1.90
9173.00,1.90
9172.00,1.89
9171.00,1.89
9170.00,1.89
9169.00,1.89
9168.00,1.89
9167.00,1.89
9166.00,1.88
9165.00,1.88
9164.00,1.88
9163.00,1.88
9162.00,1.87
9161.00,1.87
9160.00,1.87
9159.00,1.86
9158.00,1.86
9157.00,1.86
9156.00,1.85
9155.00,1.85
9154.00,1.85
9153.00,1.84
9152.00,1.84
9151.00,1.84
9150.00,1.84
9149.00,1.84
9148.00,1.84
9147.00,1.84
9146.00,1.84
9145.00,1.84
9144.00,1.84
9143.00,1.85
9142.00,1.85
9141.00,1.85
9140.00,1.85
9139.00,1.85
9138.00,1.85
9137.00,1.85
9136.00,1.85
9135.00,1.85
9134.00,1.86
9133.00,1.86
9132.00,1.86
9131.00,1.86
9130.00,1.86
9129.00,1.86
9128.00,1.85
9127.00,1.85
9126.00,1.85
9125.00,1.85
9124.00,1.85
9123.00,1.85
9122.00,1.85
9121.00,1.86
9120.00,1.86
9119.00,1.86
9118.00,1.86
9117.00,1.86
9116.00,1.86
9115.00,1.86
9114.00,1.86
9113.00,1.87
9112.00,1.87
9111.00,1.87
9110.00,1.87
9109.00,1.88
9108.00,1.88
9107.00,1.88
9106.00,1.88
9105.00,1.89
9104.00,1.89
9103.00,1.89
9102.00,1.89
9101.00,1.89
9100.00,1.89
9099.00,1.89
9098.00,1.89
9097.00,1.89
9096.00,1.89
9095.00,1.89
9094.00,1.89
9093.00,1.89
9092.00,1.88
9091.00,1.88
9090.00,1.88
9089.00,1.88
9088.00,1.88
9087.00,1.87
9086.00,1.87
9085.00,1.87
9084.00,1.87
9083.00,1.87
9082.00,1.87
9081.00,1.87
9080.00,1.88
9079.00,1.88
9078.00,1.88
9077.00,1.88
9076.00,1.88
9075.00,1.89
9074.00,1.89
9073.00,1.89
9072.00,1.89
9071.00,1.89
9070.00,1.89
9069.00,1.89
9068.00,1.89
9067.00,1.89
9066.00,1.89
9065.00,1.89
9064.00,1.89
9063.00,1.89
9062.00,1.89
9061.00,1.89
9060.00,1.88
9059.00,1.88
9058.00,1.88
9057.00,1.88
9056.00,1.88
9055.00,1.88
9054.00,1.88
9053.00,1.87
9052.00,1.87
9051.00,1.87
9050.00,1.87
9049.00,1.87
9048.00,1.87
9047.00,1.87
9046.00,1.87
9045.00,1.87
9044.00,1.87
9043.00,1.87
9042.00,1.87
9041.00,1.87
9040.00,1.87
9039.00,1.87
9038.00,1.87
9037.00,1.87
9036.00,1.87
9035.00,1.87
9034.00,1.87
9033.00,1.87
9032.00,1.87
9031.00,1.87
9030.00,1.86
9029.00,1.86
9028.00,1.86
9027.00,1.87
9026.00,1.87
9025.00,1.87
9024.00,1.87
9023.00,1.87
9022.00,1.87
9021.00,1.87
9020.00,1.87
9019.00,1.87
9018.00,1.87
9017.00,1.88
9016.00,1.88
9015.00,1.88
9014.00,1.88
9013.00,1.88
9012.00,1.88
9011.00,1.88
9010.00,1.88
9009.00,1.88
9008.00,1.87
9007.00,1.87
9006.00,1.87
9005.00,1.87
9004.00,1.87
9003.00,1.87
9002.00,1.86
9001.00,1.86
9000.00,1.86
8999.00,1.86
8998.00,1.86
8997.00,1.86
8996.00,1.86
8995.00,1.86
8994.00,1.86
8993.00,1.86
8992.00,1.86
8991.00,1.86
8990.00,1.87
8989.00,1.87
8988.00,1.87
8987.00,1.87
8986.00,1.87
8985.00,1.87
8984.00,1.87
8983.00,1.87
8982.00,1.88
8981.00,1.88
8980.00,1.88
8979.00,1.88
8978.00,1.88
8977.00,1.88
8976.00,1.88
8975.00,1.88
8974.00,1.88
8973.00,1.88
8972.00,1.88
8971.00,1.88
8970.00,1.88
8969.00,1.88
8968.00,1.88
8967.00,1.88
8966.00,1.88
8965.00,1.88
8964.00,1.88
8963.00,1.88
8962.00,1.88
8961.00,1.88
8960.00,1.88
8959.00,1.88
8958.00,1.88
8957.00,1.88
8956.00,1.88
8955.00,1.88
8954.00,1.88
8953.00,1.88
8952.00,1.88
8951.00,1.88
8950.00,1.88
8949.00,1.88
8948.00,1.88
8947.00,1.88
8946.00,1.89
8945.00,1.89
8944.00,1.89
8943.00,1.89
8942.00,1.89
8941.00,1.89
8940.00,1.89
8939.00,1.89
8938.00,1.90
8937.00,1.90
8936.00,1.90
8935.00,1.90
8934.00,1.90
8933.00,1.89
8932.00,1.89
8931.00,1.89
8930.00,1.89
8929.00,1.89
8928.00,1.89
8927.00,1.89
8926.00,1.88
8925.00,1.88
8924.00,1.88
8923.00,1.88
8922.00,1.88
8921.00,1.87
8920.00,1.87
8919.00,1.87
8918.00,1.87
8917.00,1.87
8916.00,1.86
8915.00,1.86
8914.00,1.86
8913.00,1.86
8912.00,1.86
8911.00,1.86
8910.00,1.86
8909.00,1.86
8908.00,1.86
8907.00,1.86
8906.00,1.86
8905.00,1.86
8904.00,1.86
8903.00,1.86
8902.00,1.86
8901.00,1.86
8900.00,1.87
8899.00,1.87
8898.00,1.87
8897.00,1.87
8896.00,1.87
8895.00,1.88
8894.00,1.88
8893.00,1.88
8892.00,1.88
8891.00,1.88
8890.00,1.88
8889.00,1.88
8888.00,1.88
8887.00,1.88
8886.00,1.88
8885.00,1.88
8884.00,1.88
8883.00,1.87
8882.00,1.87
8881.00,1.87
8880.00,1.87
8879.00,1.87
8878.00,1.87
8877.00,1.86
8876.00,1.86
8875.00,1.86
8874.00,1.86
8873.00,1.86
8872.00,1.86
8871.00,1.86
8870.00,1.86
8869.00,1.86
8868.00,1.86
8867.00,1.86
8866.00,1.86
8865.00,1.86
8864.00,1.86
8863.00,1.86
8862.00,1.86
8861.00,1.86
8860.00,1.86
8859.00,1.86
8858.00,1.87
8857.00,1.87
8856.00,1.87
8855.00,1.87
8854.00,1.87
8853.00,1.87
8852.00,1.87
8851.00,1.86
8850.00,1.86
8849.00,1.86
8848.00,1.86
8847.00,1.86
8846.00,1.86
8845.00,1.86
8844.00,1.86
8843.00,1.86
8842.00,1.86
8841.00,1.86
8840.00,1.86
8839.00,1.86
8838.00,1.86
8837.00,1.86
8836.00,1.86
8835.00,1.86
8834.00,1.86
8833.00,1.86
8832.00,1.86
8831.00,1.86
8830.00,1.85
8829.00,1.85
8828.00,1.85
8827.00,1.85
8826.00,1.85
8825.00,1.85
8824.00,1.85
8823.00,1.85
8822.00,1.85
8821.00,1.85
8820.00,1.85
8819.00,1.85
8818.00,1.84
8817.00,1.84
8816.00,1.84
8815.00,1.84
8814.00,1.84
8813.00,1.84
8812.00,1.84
8811.00,1.84
8810.00,1.84
8809.00,1.84
8808.00,1.84
8807.00,1.84
8806.00,1.84
8805.00,1.83
8804.00,1.83
8803.00,1.83
8802.00,1.83
8801.00,1.83
8800.00,1.83
8799.00,1.83
8798.00,1.83
8797.00,1.83
8796.00,1.83
8795.00,1.83
8794.00,1.83
8793.00,1.83
8792.00,1.83
8791.00,1.83
8790.00,1.83
8789.00,1.83
8788.00,1.83
8787.00,1.83
8786.00,1.83
8785.00,1.83
8784.00,1.83
8783.00,1.83
8782.00,1.83
8781.00,1.83
8780.00,1.82
8779.00,1.82
8778.00,1.82
8777.00,1.82
8776.00,1.81
8775.00,1.81
8774.00,1.81
8773.00,1.81
8772.00,1.81
8771.00,1.80
8770.00,1.80
8769.00,1.80
8768.00,1.80
8767.00,1.80
8766.00,1.80
8765.00,1.80
8764.00,1.80
8763.00,1.80
8762.00,1.80
8761.00,1.81
8760.00,1.81
8759.00,1.81
8758.00,1.81
8757.00,1.81
8756.00,1.81
8755.00,1.81
8754.00,1.81
8753.00,1.81
8752.00,1.80
8751.00,1.80
8750.00,1.80
8749.00,1.80
8748.00,1.79
8747.00,1.79
8746.00,1.79
8745.00,1.79
8744.00,1.78
8743.00,1.78
8742.00,1.78
8741.00,1.78
8740.00,1.78
8739.00,1.78
8738.00,1.78
8737.00,1.78
8736.00,1.78
8735.00,1.78
8734.00,1.78
8733.00,1.78
8732.00,1.78
8731.00,1.78
8730.00,1.78
8729.00,1.79
8728.00,1.79
8727.00,1.79
8726.00,1.79
8725.00,1.79
8724.00,1.79
8723.00,1.79
8722.00,1.79
8721.00,1.79
8720.00,1.79
8719.00,1.79
8718.00,1.79
8717.00,1.79
8716.00,1.79
8715.00,1.79
8714.00,1.79
8713.00,1.78
8712.00,1.78
8711.00,1.78
8710.00,1.78
8709.00,1.78
8708.00,1.78
8707.00,1.78
8706.00,1.78
8705.00,1.78
8704.00,1.78
8703.00,1.78
8702.00,1.77
8701.00,1.77
8700.00,1.77
8699.00,1.77
8698.00,1.77
8697.00,1.77
8696.00,1.77
8695.00,1.77
8694.00,1.77
8693.00,1.77
8692.00,1.77
8691.00,1.77
8690.00,1.76
8689.00,1.76
8688.00,1.76
8687.00,1.76
8686.00,1.76
8685.00,1.76
8684.00,1.76
8683.00,1.76
8682.00,1.76
8681.00,1.76
8680.00,1.76
8679.00,1.77
8678.00,1.77
8677.00,1.77
8676.00,1.77
8675.00,1.77
8674.00,1.77
8673.00,1.77
8672.00,1.77
8671.00,1.77
8670.00,1.77
8669.00,1.77
8668.00,1.77
8667.00,1.78
8666.00,1.78
8665.00,1.78
8664.00,1.78
8663.00,1.78
8662.00,1.78
8661.00,1.78
8660.00,1.78
8659.00,1.78
8658.00,1.78
8657.00,1.78
8656.00,1.78
8655.00,1.78
8654.00,1.78
8653.00,1.78
8652.00,1.78
8651.00,1.78
8650.00,1.78
8649.00,1.78
8648.00,1.78
8647.00,1.78
8646.00,1.78
8645.00,1.78
8644.00,1.77
8643.00,1.77
8642.00,1.77
8641.00,1.77
8640.00,1.77
8639.00,1.77
8638.00,1.77
8637.00,1.77
8636.00,1.76
8635.00,1.76
8634.00,1.76
8633.00,1.76
8632.00,1.76
8631.00,1.76
8630.00,1.75
8629.00,1.75
8628.00,1.75
8627.00,1.75
8626.00,1.75
8625.00,1.75
8624.00,1.74
8623.00,1.74
8622.00,1.74
8621.00,1.74
8620.00,1.74
8619.00,1.74
8618.00,1.74
8617.00,1.73
8616.00,1.73
8615.00,1.73
8614.00,1.73
8613.00,1.73
8612.00,1.72
8611.00,1.72
8610.00,1.72
8609.00,1.72
8608.00,1.72
8607.00,1.72
8606.00,1.72
8605.00,1.72
8604.00,1.72
8603.00,1.72
8602.00,1.72
8601.00,1.72
8600.00,1.72
8599.00,1.72
8598.00,1.72
8597.00,1.72
8596.00,1.73
8595.00,1.73
8594.00,1.73
8593.00,1.73
8592.00,1.73
8591.00,1.73
8590.00,1.73
8589.00,1.73
8588.00,1.73
8587.00,1.73
8586.00,1.73
8585.00,1.72
8584.00,1.72
8583.00,1.72
8582.00,1.72
8581.00,1.72
8580.00,1.72
8579.00,1.72
8578.00,1.72
8577.00,1.71
8576.00,1.71
8575.00,1.71
8574.00,1.71
8573.00,1.71
8572.00,1.71
8571.00,1.71
8570.00,1.70
8569.00,1.70
8568.00,1.70
8567.00,1.70
8566.00,1.70
8565.00,1.70
8564.00,1.70
8563.00,1.70
8562.00,1.70
8561.00,1.70
8560.00,1.70
8559.00,1.70
8558.00,1.69
8557.00,1.69
8556.00,1.69
8555.00,1.69
8554.00,1.69
8553.00,1.69
8552.00,1.69
8551.00,1.69
8550.00,1.69
8549.00,1.69
8548.00,1.69
8547.00,1.69
8546.00,1.69
8545.00,1.69
8544.00,1.69
8543.00,1.69
8542.00,1.69
8541.00,1.69
8540.00,1.69
8539.00,1.69
8538.00,1.69
8537.00,1.69
8536.00,1.69
8535.00,1.69
8534.00,1.69
8533.00,1.69
8532.00,1.69
8531.00,1.69
8530.00,1.68
8529.00,1.68
8528.00,1.68
8527.00,1.68
8526.00,1.68
8525.00,1.68
8524.00,1.68
8523.00,1.68
8522.00,1.68
8521.00,1.68
8520.00,1.68
8519.00,1.68
8518.00,1.68
8517.00,1.68
8516.00,1.68
8515.00,1.69
8514.00,1.69
8513.00,1.69
8512.00,1.69
8511.00,1.69
8510.00,1.69
8509.00,1.69
8508.00,1.69
8507.00,1.69
8506.00,1.69
8505.00,1.69
8504.00,1.69
8503.00,1.69
8502.00,1.69
8501.00,1.69
8500.00,1.69
8499.00,1.69
8498.00,1.69
8497.00,1.68
8496.00,1.68
8495.00,1.68
8494.00,1.68
8493.00,1.67
8492.00,1.67
8491.00,1.67
8490.00,1.67
8489.00,1.67
8488.00,1.66
8487.00,1.66
8486.00,1.66
8485.00,1.66
8484.00,1.66
8483.00,1.66
8482.00,1.66
8481.00,1.66
8480.00,1.66
8479.00,1.66
8478.00,1.66
8477.00,1.66
8476.00,1.66
8475.00,1.66
8474.00,1.66
8473.00,1.66
8472.00,1.66
8471.00,1.66
8470.00,1.66
8469.00,1.66
8468.00,1.66
8467.00,1.66
8466.00,1.65
8465.00,1.65
8464.00,1.65
8463.00,1.65
8462.00,1.65
8461.00,1.64
8460.00,1.64
8459.00,1.64
8458.00,1.64
8457.00,1.64
8456.00,1.63
8455.00,1.63
8454.00,1.63
8453.00,1.63
8452.00,1.63
8451.00,1.63
8450.00,1.63
8449.00,1.63
8448.00,1.63
8447.00,1.63
8446.00,1.63
8445.00,1.63
8444.00,1.63
8443.00,1.63
8442.00,1.63
8441.00,1.63
8440.00,1.63
8439.00,1.63
8438.00,1.63
8437.00,1.63
8436.00,1.64
8435.00,1.64
8434.00,1.64
8433.00,1.64
8432.00,1.64
8431.00,1.64
8430.00,1.64
8429.00,1.64
8428.00,1.64
8427.00,1.64
8426.00,1.64
8425.00,1.64
8424.00,1.64
8423.00,1.64
8422.00,1.64
8421.00,1.64
8420.00,1.64
8419.00,1.64
8418.00,1.64
8417.00,1.64
8416.00,1.64
8415.00,1.64
8414.00,1.65
8413.00,1.65
8412.00,1.65
8411.00,1.65
8410.00,1.65
8409.00,1.65
8408.00,1.65
8407.00,1.65
8406.00,1.65
8405.00,1.65
8404.00,1.65
8403.00,1.65
8402.00,1.65
8401.00,1.65
8400.00,1.65
8399.00,1.65
8398.00,1.65
8397.00,1.65
8396.00,1.65
8395.00,1.64
8394.00,1.64
8393.00,1.64
8392.00,1.64
8391.00,1.64
8390.00,1.64
8389.00,1.64
8388.00,1.65
8387.00,1.65
8386.00,1.65
8385.00,1.65
8384.00,1.65
8383.00,1.65
8382.00,1.66
8381.00,1.66
8380.00,1.66
8379.00,1.66
8378.00,1.66
8377.00,1.67
8376.00,1.67
8375.00,1.67
8374.00,1.67
8373.00,1.67
8372.00,1.67
8371.00,1.67
8370.00,1.68
8369.00,1.68
8368.00,1.68
8367.00,1.68
8366.00,1.68
8365.00,1.68
8364.00,1.68
8363.00,1.67
8362.00,1.67
8361.00,1.67
8360.00,1.67
8359.00,1.67
8358.00,1.67
8357.00,1.67
8356.00,1.67
8355.00,1.67
8354.00,1.67
8353.00,1.67
8352.00,1.67
8351.00,1.67
8350.00,1.67
8349.00,1.67
8348.00,1.67
8347.00,1.67
8346.00,1.67
8345.00,1.67
8344.00,1.67
8343.00,1.67
8342.00,1.67
8341.00,1.67
8340.00,1.68
8339.00,1.68
8338.00,1.68
8337.00,1.68
8336.00,1.68
8335.00,1.68
8334.00,1.69
8333.00,1.69
8332.00,1.69
8331.00,1.69
8330.00,1.69
8329.00,1.69
8328.00,1.69
8327.00,1.70
8326.00,1.70
8325.00,1.70
8324.00,1.70
8323.00,1.70
8322.00,1.70
8321.00,1.70
8320.00,1.70
8319.00,1.70
8318.00,1.70
8317.00,1.70
8316.00,1.70
8315.00,1.70
8314.00,1.71
8313.00,1.71
8312.00,1.71
8311.00,1.71
8310.00,1.71
8309.00,1.71
8308.00,1.71
8307.00,1.71
8306.00,1.71
8305.00,1.71
8304.00,1.71
8303.00,1.71
8302.00,1.71
8301.00,1.71
8300.00,1.71
8299.00,1.70
8298.00,1.70
8297.00,1.70
8296.00,1.70
8295.00,1.70
8294.00,1.70
8293.00,1.70
8292.00,1.70
8291.00,1.70
8290.00,1.70
8289.00,1.70
8288.00,1.70
8287.00,1.70
8286.00,1.71
8285.00,1.71
8284.00,1.71
8283.00,1.71
8282.00,1.71
8281.00,1.71
8280.00,1.72
8279.00,1.72
8278.00,1.72
8277.00,1.72
8276.00,1.72
8275.00,1.72
8274.00,1.73
8273.00,1.73
8272.00,1.73
8271.00,1.73
8270.00,1.73
8269.00,1.73
8268.00,1.73
8267.00,1.73
8266.00,1.73
8265.00,1.73
8264.00,1.73
8263.00,1.73
8262.00,1.73
8261.00,1.73
8260.00,1.73
8259.00,1.73
8258.00,1.73
8257.00,1.73
8256.00,1.73
8255.00,1.73
8254.00,1.73
8253.00,1.73
8252.00,1.73
8251.00,1.73
8250.00,1.72
8249.00,1.72
8248.00,1.72
8247.00,1.72
8246.00,1.72
8245.00,1.72
8244.00,1.72
8243.00,1.72
8242.00,1.72
8241.00,1.72
8240.00,1.72
8239.00,1.73
8238.00,1.73
8237.00,1.73
8236.00,1.73
8235.00,1.73
8234.00,1.73
8233.00,1.73
8232.00,1.73
8231.00,1.73
8230.00,1.73
8229.00,1.74
8228.00,1.74
8227.00,1.74
8226.00,1.74
8225.00,1.74
8224.00,1.74
8223.00,1.74
8222.00,1.74
8221.00,1.74
8220.00,1.74
8219.00,1.74
8218.00,1.74
8217.00,1.74
8216.00,1.74
8215.00,1.74
8214.00,1.74
8213.00,1.74
8212.00,1.74
8211.00,1.74
8210.00,1.74
8209.00,1.74
8208.00,1.74
8207.00,1.74
8206.00,1.74
8205.00,1.74
8204.00,1.75
8203.00,1.75
8202.00,1.75
8201.00,1.75
8200.00,1.75
8199.00,1.75
8198.00,1.75
8197.00,1.75
8196.00,1.75
8195.00,1.75
8194.00,1.75
8193.00,1.75
8192.00,1.75
8191.00,1.75
8190.00,1.75
8189.00,1.75
8188.00,1.75
8187.00,1.75
8186.00,1.75
8185.00,1.75
8184.00,1.75
8183.00,1.75
8182.00,1.75
8181.00,1.75
8180.00,1.75
8179.00,1.75
8178.00,1.75
8177.00,1.75
8176.00,1.76
8175.00,1.76
8174.00,1.76
8173.00,1.76
8172.00,1.76
8171.00,1.76
8170.00,1.77
8169.00,1.77
8168.00,1.77
8167.00,1.77
8166.00,1.77
8165.00,1.78
8164.00,1.78
8163.00,1.78
8162.00,1.78
8161.00,1.78
8160.00,1.79
8159.00,1.79
8158.00,1.79
8157.00,1.79
8156.00,1.79
8155.00,1.79
8154.00,1.80
8153.00,1.80
8152.00,1.80
8151.00,1.80
8150.00,1.80
8149.00,1.80
8148.00,1.80
8147.00,1.80
8146.00,1.80
8145.00,1.80
8144.00,1.80
8143.00,1.80
8142.00,1.80
8141.00,1.80
8140.00,1.80
8139.00,1.80
8138.00,1.80
8137.00,1.80
8136.00,1.80
8135.00,1.80
8134.00,1.80
8133.00,1.80
8132.00,1.80
8131.00,1.80
8130.00,1.80
8129.00,1.80
8128.00,1.80
8127.00,1.80
8126.00,1.80
8125.00,1.80
8124.00,1.80
8123.00,1.80
8122.00,1.79
8121.00,1.79
8120.00,1.79
8119.00,1.79
8118.00,1.79
8117.00,1.79
8116.00,1.79
8115.00,1.79
8114.00,1.79
8113.00,1.79
8112.00,1.79
8111.00,1.79
8110.00,1.79
8109.00,1.79
8108.00,1.79
8107.00,1.79
8106.00,1.79
8105.00,1.79
8104.00,1.79
8103.00,1.80
8102.00,1.80
8101.00,1.80
8100.00,1.80
8099.00,1.80
8098.00,1.80
8097.00,1.80
8096.00,1.80
8095.00,1.80
8094.00,1.80
8093.00,1.81
8092.00,1.81
8091.00,1.81
8090.00,1.81
8089.00,1.81
8088.00,1.81
8087.00,1.81
8086.00,1.81
8085.00,1.81
8084.00,1.81
8083.00,1.81
8082.00,1.81
8081.00,1.81
8080.00,1.81
8079.00,1.81
8078.00,1.81
8077.00,1.81
8076.00,1.81
8075.00,1.81
8074.00,1.81
8073.00,1.81
8072.00,1.81
8071.00,1.81
8070.00,1.81
8069.00,1.81
8068.00,1.81
8067.00,1.81
8066.00,1.81
8065.00,1.81
8064.00,1.81
8063.00,1.81
8062.00,1.81
8061.00,1.81
8060.00,1.81
8059.00,1.81
8058.00,1.81
8057.00,1.81
8056.00,1.81
8055.00,1.81
8054.00,1.81
8053.00,1.81
8052.00,1.81
8051.00,1.81
8050.00,1.81
8049.00,1.81
8048.00,1.81
8047.00,1.81
8046.00,1.81
8045.00,1.81
8044.00,1.81
8043.00,1.81
8042.00,1.81
8041.00,1.82
8040.00,1.82
8039.00,1.82
8038.00,1.82
8037.00,1.82
8036.00,1.82
8035.00,1.82
8034.00,1.83
8033.00,1.83
8032.00,1.83
8031.00,1.83
8030.00,1.83
8029.00,1.83
8028.00,1.84
8027.00,1.84
8026.00,1.84
8025.00,1.84
8024.00,1.84
8023.00,1.84
8022.00,1.84
8021.00,1.84
8020.00,1.84
8019.00,1.84
8018.00,1.84
8017.00,1.84
8016.00,1.84
8015.00,1.84
8014.00,1.84
8013.00,1.84
8012.00,1.84
8011.00,1.84
8010.00,1.83
8009.00,1.83
8008.00,1.83
8007.00,1.83
8006.00,1.83
8005.00,1.83
8004.00,1.83
8003.00,1.83
8002.00,1.83
8001.00,1.83
8000.00,1.83
7999.00,1.83
7998.00,1.83
7997.00,1.83
7996.00,1.83
7995.00,1.83
7994.00,1.83
7993.00,1.83
7992.00,1.83
7991.00,1.83
7990.00,1.83
7989.00,1.83
7988.00,1.83
7987.00,1.83
7986.00,1.83
7985.00,1.84
7984.00,1.84
7983.00,1.84
7982.00,1.84
7981.00,1.84
7980.00,1.84
7979.00,1.84
7978.00,1.84
7977.00,1.84
7976.00,1.84
7975.00,1.84
7974.00,1.84
7973.00,1.84
7972.00,1.84
7971.00,1.84
7970.00,1.84
7969.00,1.85
7968.00,1.85
7967.00,1.85
7966.00,1.85
7965.00,1.85
7964.00,1.85
7963.00,1.85
7962.00,1.85
7961.00,1.85
7960.00,1.85
7959.00,1.85
7958.00,1.85
7957.00,1.85
7956.00,1.85
7955.00,1.85
7954.00,1.85
7953.00,1.85
7952.00,1.85
7951.00,1.85
7950.00,1.86
7949.00,1.86
7948.00,1.86
7947.00,1.86
7946.00,1.86
7945.00,1.86
7944.00,1.86
7943.00,1.86
7942.00,1.86
7941.00,1.86
7940.00,1.86
7939.00,1.86
7938.00,1.86
7937.00,1.85
7936.00,1.85
7935.00,1.85
7934.00,1.85
7933.00,1.85
7932.00,1.85
7931.00,1.85
7930.00,1.85
7929.00,1.85
7928.00,1.86
7927.00,1.86
7926.00,1.86
7925.00,1.86
7924.00,1.86
7923.00,1.86
7922.00,1.86
7921.00,1.86
7920.00,1.86
7919.00,1.86
7918.00,1.87
7917.00,1.87
7916.00,1.87
7915.00,1.87
7914.00,1.87
7913.00,1.87
7912.00,1.87
7911.00,1.87
7910.00,1.87
7909.00,1.87
7908.00,1.87
7907.00,1.86
7906.00,1.86
7905.00,1.86
7904.00,1.86
7903.00,1.86
7902.00,1.86
7901.00,1.86
7900.00,1.86
7899.00,1.86
7898.00,1.86
7897.00,1.86
7896.00,1.86
7895.00,1.86
7894.00,1.86
7893.00,1.86
7892.00,1.86
7891.00,1.86
7890.00,1.86
7889.00,1.86
7888.00,1.87
7887.00,1.87
7886.00,1.87
7885.00,1.87
7884.00,1.87
7883.00,1.87
7882.00,1.87
7881.00,1.87
7880.00,1.87
7879.00,1.87
7878.00,1.87
7877.00,1.87
7876.00,1.87
7875.00,1.87
7874.00,1.87
7873.00,1.87
7872.00,1.87
7871.00,1.87
7870.00,1.87
7869.00,1.87
7868.00,1.87
7867.00,1.87
7866.00,1.87
7865.00,1.87
7864.00,1.87
7863.00,1.87
7862.00,1.87
7861.00,1.87
7860.00,1.87
7859.00,1.87
7858.00,1.87
7857.00,1.87
7856.00,1.87
7855.00,1.87
7854.00,1.87
7853.00,1.87
7852.00,1.87
7851.00,1.87
7850.00,1.87
7849.00,1.87
7848.00,1.87
7847.00,1.87
7846.00,1.88
7845.00,1.88
7844.00,1.88
7843.00,1.88
7842.00,1.88
7841.00,1.88
7840.00,1.88
7839.00,1.88
7838.00,1.89
7837.00,1.89
7836.00,1.89
7835.00,1.89
7834.00,1.89
7833.00,1.89
7832.00,1.88
7831.00,1.88
7830.00,1.88
7829.00,1.88
7828.00,1.88
7827.00,1.88
7826.00,1.88
7825.00,1.87
7824.00,1.87
7823.00,1.87
7822.00,1.87
7821.00,1.87
7820.00,1.87
7819.00,1.87
7818.00,1.87
7817.00,1.87
7816.00,1.87
7815.00,1.87
7814.00,1.87
7813.00,1.87
7812.00,1.87
7811.00,1.87
7810.00,1.87
7809.00,1.87
7808.00,1.87
7807.00,1.87
7806.00,1.87
7805.00,1.87
7804.00,1.87
7803.00,1.87
7802.00,1.87
7801.00,1.87
7800.00,1.87
7799.00,1.87
7798.00,1.87
7797.00,1.87
7796.00,1.87
7795.00,1.87
7794.00,1.87
7793.00,1.87
7792.00,1.87
7791.00,1.87
7790.00,1.87
7789.00,1.87
7788.00,1.87
7787.00,1.87
7786.00,1.87
7785.00,1.87
7784.00,1.87
7783.00,1.87
7782.00,1.88
7781.00,1.88
7780.00,1.88
7779.00,1.88
7778.00,1.88
7777.00,1.88
7776.00,1.88
7775.00,1.88
7774.00,1.88
7773.00,1.88
7772.00,1.88
7771.00,1.88
7770.00,1.88
7769.00,1.88
7768.00,1.88
7767.00,1.88
7766.00,1.88
7765.00,1.88
7764.00,1.88
7763.00,1.89
7762.00,1.89
7761.00,1.89
7760.00,1.89
7759.00,1.89
7758.00,1.89
7757.00,1.89
7756.00,1.89
7755.00,1.89
7754.00,1.89
7753.00,1.89
7752.00,1.89
7751.00,1.89
7750.00,1.89
7749.00,1.89
7748.00,1.89
7747.00,1.89
7746.00,1.89
7745.00,1.89
7744.00,1.89
7743.00,1.89
7742.00,1.89
7741.00,1.89
7740.00,1.89
7739.00,1.89
7738.00,1.89
7737.00,1.89
7736.00,1.89
7735.00,1.89
7734.00,1.89
7733.00,1.89
7732.00,1.89
7731.00,1.89
7730.00,1.89
7729.00,1.89
7728.00,1.89
7727.00,1.89
7726.00,1.89
7725.00,1.89
7724.00,1.89
7723.00,1.89
7722.00,1.89
7721.00,1.89
7720.00,1.89
7719.00,1.89
7718.00,1.89
7717.00,1.89
7716.00,1.89
7715.00,1.89
7714.00,1.89
7713.00,1.89
7712.00,1.89
7711.00,1.89
7710.00,1.90
7709.00,1.90
7708.00,1.90
7707.00,1.90
7706.00,1.90
7705.00,1.90
7704.00,1.90
7703.00,1.90
7702.00,1.89
7701.00,1.89
7700.00,1.89
7699.00,1.89
7698.00,1.89
7697.00,1.89
7696.00,1.89
7695.00,1.89
7694.00,1.89
7693.00,1.89
7692.00,1.89
7691.00,1.89
7690.00,1.89
7689.00,1.89
7688.00,1.89
7687.00,1.89
7686.00,1.89
7685.00,1.89
7684.00,1.89
7683.00,1.89
7682.00,1.89
7681.00,1.89
7680.00,1.89
7679.00,1.89
7678.00,1.89
7677.00,1.89
7676.00,1.90
7675.00,1.90
7674.00,1.90
7673.00,1.90
7672.00,1.90
7671.00,1.90
7670.00,1.90
7669.00,1.90
7668.00,1.89
7667.00,1.89
7666.00,1.89
7665.00,1.89
7664.00,1.89
7663.00,1.89
7662.00,1.89
7661.00,1.89
7660.00,1.89
7659.00,1.88
7658.00,1.88
7657.00,1.88
7656.00,1.88
7655.00,1.88
7654.00,1.88
7653.00,1.88
7652.00,1.88
7651.00,1.88
7650.00,1.88
7649.00,1.88
7648.00,1.88
7647.00,1.88
7646.00,1.88
7645.00,1.88
7644.00,1.88
7643.00,1.88
7642.00,1.88
7641.00,1.89
7640.00,1.89
7639.00,1.89
7638.00,1.89
7637.00,1.89
7636.00,1.89
7635.00,1.89
7634.00,1.89
7633.00,1.89
7632.00,1.90
7631.00,1.90
7630.00,1.90
7629.00,1.90
7628.00,1.90
7627.00,1.90
7626.00,1.90
7625.00,1.90
7624.00,1.90
7623.00,1.90
7622.00,1.89
7621.00,1.89
7620.00,1.89
7619.00,1.89
7618.00,1.89
7617.00,1.89
7616.00,1.89
7615.00,1.89
7614.00,1.89
7613.00,1.89
7612.00,1.89
7611.00,1.89
7610.00,1.89
7609.00,1.89
7608.00,1.89
7607.00,1.89
7606.00,1.89
7605.00,1.89
7604.00,1.88
7603.00,1.88
7602.00,1.88
7601.00,1.88
7600.00,1.88
7599.00,1.88
7598.00,1.88
7597.00,1.88
7596.00,1.88
7595.00,1.88
7594.00,1.88
7593.00,1.88
7592.00,1.88
7591.00,1.88
7590.00,1.87
7589.00,1.87
7588.00,1.87
7587.00,1.87
7586.00,1.87
7585.00,1.87
7584.00,1.87
7583.00,1.87
7582.00,1.87
7581.00,1.87
7580.00,1.87
7579.00,1.87
7578.00,1.87
7577.00,1.87
7576.00,1.87
7575.00,1.87
7574.00,1.87
7573.00,1.87
7572.00,1.87
7571.00,1.87
7570.00,1.87
7569.00,1.87
7568.00,1.87
7567.00,1.87
7566.00,1.87
7565.00,1.87
7564.00,1.87
7563.00,1.87
7562.00,1.87
7561.00,1.87
7560.00,1.87
7559.00,1.87
7558.00,1.87
7557.00,1.87
7556.00,1.87
7555.00,1.87
7554.00,1.87
7553.00,1.87
7552.00,1.87
7551.00,1.87
7550.00,1.87
7549.00,1.87
7548.00,1.86
7547.00,1.86
7546.00,1.86
7545.00,1.86
7544.00,1.86
7543.00,1.86
7542.00,1.86
7541.00,1.86
7540.00,1.86
7539.00,1.86
7538.00,1.86
7537.00,1.86
7536.00,1.86
7535.00,1.86
7534.00,1.86
7533.00,1.86
7532.00,1.85
7531.00,1.85
7530.00,1.85
7529.00,1.85
7528.00,1.85
7527.00,1.85
7526.00,1.85
7525.00,1.85
7524.00,1.85
7523.00,1.85
7522.00,1.85
7521.00,1.85
7520.00,1.85
7519.00,1.85
7518.00,1.85
7517.00,1.84
7516.00,1.84
7515.00,1.84
7514.00,1.84
7513.00,1.84
7512.00,1.84
7511.00,1.84
7510.00,1.84
7509.00,1.84
7508.00,1.84
7507.00,1.84
7506.00,1.84
7505.00,1.83
7504.00,1.83
7503.00,1.83
7502.00,1.83
7501.00,1.83
7500.00,1.83
7499.00,1.83
7498.00,1.82
7497.00,1.82
7496.00,1.82
7495.00,1.82
7494.00,1.82
7493.00,1.82
7492.00,1.82
7491.00,1.82
7490.00,1.82
7489.00,1.82
7488.00,1.82
7487.00,1.82
7486.00,1.82
7485.00,1.82
7484.00,1.82
7483.00,1.82
7482.00,1.82
7481.00,1.82
7480.00,1.82
7479.00,1.82
7478.00,1.82
7477.00,1.82
7476.00,1.82
7475.00,1.82
7474.00,1.82
7473.00,1.82
7472.00,1.81
7471.00,1.81
7470.00,1.81
7469.00,1.81
7468.00,1.81
7467.00,1.81
7466.00,1.81
7465.00,1.80
7464.00,1.80
7463.00,1.80
7462.00,1.80
7461.00,1.80
7460.00,1.80
7459.00,1.80
7458.00,1.80
7457.00,1.79
7456.00,1.79
7455.00,1.79
7454.00,1.79
7453.00,1.79
7452.00,1.79
7451.00,1.79
7450.00,1.79
7449.00,1.79
7448.00,1.78
7447.00,1.78
7446.00,1.78
7445.00,1.78
7444.00,1.78
7443.00,1.78
7442.00,1.78
7441.00,1.78
7440.00,1.78
7439.00,1.78
7438.00,1.77
7437.00,1.77
7436.00,1.77
7435.00,1.77
7434.00,1.77
7433.00,1.77
7432.00,1.77
7431.00,1.77
7430.00,1.77
7429.00,1.77
7428.00,1.77
7427.00,1.77
7426.00,1.77
7425.00,1.76
7424.00,1.76
7423.00,1.76
7422.00,1.76
7421.00,1.76
7420.00,1.76
7419.00,1.76
7418.00,1.76
7417.00,1.76
7416.00,1.76
7415.00,1.76
7414.00,1.76
7413.00,1.75
7412.00,1.75
7411.00,1.75
7410.00,1.75
7409.00,1.75
7408.00,1.75
7407.00,1.74
7406.00,1.74
7405.00,1.74
7404.00,1.74
7403.00,1.74
7402.00,1.74
7401.00,1.73
7400.00,1.73
7399.00,1.73
7398.00,1.73
7397.00,1.73
7396.00,1.73
7395.00,1.73
7394.00,1.72
7393.00,1.72
7392.00,1.72
7391.00,1.72
7390.00,1.72
7389.00,1.72
7388.00,1.71
7387.00,1.71
7386.00,1.71
7385.00,1.71
7384.00,1.71
7383.00,1.71
7382.00,1.71
7381.00,1.70
7380.00,1.70
7379.00,1.70
7378.00,1.70
7377.00,1.70
7376.00,1.70
7375.00,1.70
7374.00,1.70
7373.00,1.70
7372.00,1.70
7371.00,1.69
7370.00,1.69
7369.00,1.69
7368.00,1.69
7367.00,1.69
7366.00,1.69
7365.00,1.69
7364.00,1.69
7363.00,1.69
7362.00,1.69
7361.00,1.69
7360.00,1.69
7359.00,1.69
7358.00,1.69
7357.00,1.69
7356.00,1.69
7355.00,1.69
7354.00,1.69
7353.00,1.69
7352.00,1.69
7351.00,1.69
7350.00,1.69
7349.00,1.69
7348.00,1.69
7347.00,1.69
7346.00,1.68
7345.00,1.68
7344.00,1.68
7343.00,1.68
7342.00,1.68
7341.00,1.68
7340.00,1.68
7339.00,1.67
7338.00,1.67
7337.00,1.67
7336.00,1.67
7335.00,1.67
7334.00,1.67
7333.00,1.67
7332.00,1.67
7331.00,1.67
7330.00,1.67
7329.00,1.67
7328.00,1.67
7327.00,1.67
7326.00,1.67
7325.00,1.67
7324.00,1.67
7323.00,1.67
7322.00,1.67
7321.00,1.67
7320.00,1.67
7319.00,1.67
7318.00,1.67
7317.00,1.67
7316.00,1.67
7315.00,1.67
7314.00,1.66
7313.00,1.66
7312.00,1.66
7311.00,1.66
7310.00,1.66
7309.00,1.66
7308.00,1.66
7307.00,1.66
7306.00,1.66
7305.00,1.66
7304.00,1.65
7303.00,1.65
7302.00,1.65
7301.00,1.65
7300.00,1.65
7299.00,1.64
7298.00,1.64
7297.00,1.64
7296.00,1.64
7295.00,1.63
7294.00,1.63
7293.00,1.63
7292.00,1.62
7291.00,1.62
7290.00,1.62
7289.00,1.62
7288.00,1.61
7287.00,1.61
7286.00,1.61
7285.00,1.61
7284.00,1.61
7283.00,1.61
7282.00,1.60
7281.00,1.60
7280.00,1.60
7279.00,1.60
7278.00,1.60
7277.00,1.60
7276.00,1.60
7275.00,1.59
7274.00,1.59
7273.00,1.59
7272.00,1.59
7271.00,1.59
7270.00,1.59
7269.00,1.59
7268.00,1.58
7267.00,1.58
7266.00,1.58
7265.00,1.58
7264.00,1.58
7263.00,1.57
7262.00,1.57
7261.00,1.57
7260.00,1.56
7259.00,1.56
7258.00,1.56
7257.00,1.56
7256.00,1.55
7255.00,1.55
7254.00,1.55
7253.00,1.54
7252.00,1.54
7251.00,1.54
7250.00,1.53
7249.00,1.53
7248.00,1.53
7247.00,1.52
7246.00,1.52
7245.00,1.52
7244.00,1.51
7243.00,1.51
7242.00,1.51
7241.00,1.50
7240.00,1.50
7239.00,1.50
7238.00,1.49
7237.00,1.49
7236.00,1.48
7235.00,1.48
7234.00,1.48
7233.00,1.47
7232.00,1.47
7231.00,1.46
7230.00,1.46
7229.00,1.45
7228.00,1.45
7227.00,1.44
7226.00,1.43
7225.00,1.43
7224.00,1.42
7223.00,1.42
7222.00,1.41
7221.00,1.41
7220.00,1.40
7219.00,1.39
7218.00,1.39
7217.00,1.38
7216.00,1.37
7215.00,1.37
7214.00,1.36
7213.00,1.35
7212.00,1.35
7211.00,1.34
7210.00,1.34
7209.00,1.33
7208.00,1.33
7207.00,1.32
7206.00,1.31
7205.00,1.31
7204.00,1.30
7203.00,1.30
7202.00,1.29
7201.00,1.29
7200.00,1.28
7199.00,1.28
7198.00,1.27
7197.00,1.27
7196.00,1.26
7195.00,1.26
7194.00,1.25
7193.00,1.25
7192.00,1.24
7191.00,1.24
7190.00,1.23
7189.00,1.23
7188.00,1.22
7187.00,1.21
7186.00,1.21
7185.00,1.20
7184.00,1.20
7183.00,1.19
7182.00,1.19
7181.00,1.18
7180.00,1.18
7179.00,1.17
7178.00,1.17
7177.00,1.16
7176.00,1.15
7175.00,1.15
7174.00,1.14
7173.00,1.14
7172.00,1.13
7171.00,1.13
7170.00,1.12
7169.00,1.11
7168.00,1.11
7167.00,1.10
7166.00,1.10
7165.00,1.09
7164.00,1.08
7163.00,1.08
7162.00,1.07
7161.00,1.07
7160.00,1.07
7159.00,1.06
7158.00,1.06
7157.00,1.05
7156.00,1.05
7155.00,1.05
7154.00,1.04
7153.00,1.04
7152.00,1.04
7151.00,1.03
7150.00,1.03
7149.00,1.03
7148.00,1.02
7147.00,1.02
7146.00,1.02
7145.00,1.01
7144.00,1.01
7143.00,1.01
7142.00,1.00
7141.00,1.00
7140.00,1.00
7139.00,0.99
7138.00,0.99
7137.00,0.99
7136.00,0.99
7135.00,0.98
7134.00,0.98
7133.00,0.98
7132.00,0.98
7131.00,0.97
7130.00,0.97
7129.00,0.97
7128.00,0.97
7127.00,0.96
7126.00,0.96
7125.00,0.96
7124.00,0.95
7123.00,0.95
7122.00,0.95
7121.00,0.94
7120.00,0.94
7119.00,0.94
7118.00,0.93
7117.00,0.93
7116.00,0.93
7115.00,0.92
7114.00,0.92
7113.00,0.91
7112.00,0.91
7111.00,0.91
7110.00,0.91
7109.00,0.90
7108.00,0.90
7107.00,0.90
7106.00,0.89
7105.00,0.89
7104.00,0.89
7103.00,0.89
7102.00,0.88
7101.00,0.88
7100.00,0.88
7099.00,0.88
7098.00,0.87
7097.00,0.87
7096.00,0.87
7095.00,0.87
7094.00,0.87
7093.00,0.86
7092.00,0.86
7091.00,0.86
7090.00,0.86
7089.00,0.86
7088.00,0.85
7087.00,0.85
7086.00,0.85
7085.00,0.85
7084.00,0.85
7083.00,0.85
7082.00,0.85
7081.00,0.85
7080.00,0.85
7079.00,0.85
7078.00,0.84
7077.00,0.84
7076.00,0.84
7075.00,0.84
7074.00,0.84
7073.00,0.84
7072.00,0.84
7071.00,0.83
7070.00,0.83
7069.00,0.83
7068.00,0.83
7067.00,0.82
7066.00,0.82
7065.00,0.82
7064.00,0.82
7063.00,0.82
7062.00,0.81
7061.00,0.81
7060.00,0.81
7059.00,0.81
7058.00,0.81
7057.00,0.81
7056.00,0.81
7055.00,0.81
7054.00,0.80
7053.00,0.80
7052.00,0.80
7051.00,0.80
7050.00,0.80
7049.00,0.80
7048.00,0.80
7047.00,0.80
7046.00,0.80
7045.00,0.80
7044.00,0.80
7043.00,0.80
7042.00,0.80
7041.00,0.80
7040.00,0.80
7039.00,0.80
7038.00,0.80
7037.00,0.80
7036.00,0.80
7035.00,0.80
7034.00,0.80
7033.00,0.80
7032.00,0.79
7031.00,0.79
7030.00,0.79
7029.00,0.79
7028.00,0.79
7027.00,0.79
7026.00,0.79
7025.00,0.79
7024.00,0.79
7023.00,0.79
7022.00,0.79
7021.00,0.79
7020.00,0.78
7019.00,0.78
7018.00,0.78
7017.00,0.78
7016.00,0.78
7015.00,0.78
7014.00,0.78
7013.00,0.78
7012.00,0.78
7011.00,0.78
7010.00,0.77
7009.00,0.77
7008.00,0.77
7007.00,0.77
7006.00,0.77
7005.00,0.77
7004.00,0.77
7003.00,0.77
7002.00,0.77
7001.00,0.77
7000.00,0.77
6999.00,0.77
6998.00,0.77
6997.00,0.77
6996.00,0.77
6995.00,0.77
6994.00,0.77
6993.00,0.77
6992.00,0.77
6991.00,0.77
6990.00,0.77
6989.00,0.77
6988.00,0.77
6987.00,0.77
6986.00,0.77
6985.00,0.77
6984.00,0.77
6983.00,0.77
6982.00,0.77
6981.00,0.77
6980.00,0.77
6979.00,0.76
6978.00,0.76
6977.00,0.76
6976.00,0.76
6975.00,0.76
6974.00,0.76
6973.00,0.76
6972.00,0.76
6971.00,0.76
6970.00,0.76
6969.00,0.76
6968.00,0.76
6967.00,0.76
6966.00,0.76
6965.00,0.76
6964.00,0.76
6963.00,0.76
6962.00,0.76
6961.00,0.76
6960.00,0.76
6959.00,0.76
6958.00,0.75
6957.00,0.75
6956.00,0.75
6955.00,0.75
6954.00,0.75
6953.00,0.75
6952.00,0.75
6951.00,0.75
6950.00,0.75
6949.00,0.75
6948.00,0.75
6947.00,0.75
6946.00,0.75
6945.00,0.75
6944.00,0.75
6943.00,0.75
6942.00,0.75
6941.00,0.75
6940.00,0.75
6939.00,0.75
6938.00,0.74
6937.00,0.74
6936.00,0.74
6935.00,0.74
6934.00,0.74
6933.00,0.74
6932.00,0.74
6931.00,0.74
6930.00,0.74
6929.00,0.74
6928.00,0.74
6927.00,0.74
6926.00,0.74
6925.00,0.75
6924.00,0.75
6923.00,0.75
6922.00,0.75
6921.00,0.75
6920.00,0.75
6919.00,0.75
6918.00,0.76
6917.00,0.76
6916.00,0.76
6915.00,0.76
6914.00,0.76
6913.00,0.76
6912.00,0.76
6911.00,0.76
6910.00,0.76
6909.00,0.77
6908.00,0.77
6907.00,0.77
6906.00,0.77
6905.00,0.77
6904.00,0.77
6903.00,0.77
6902.00,0.77
6901.00,0.77
6900.00,0.77
6899.00,0.77
6898.00,0.76
6897.00,0.76
6896.00,0.76
6895.00,0.76
6894.00,0.76
6893.00,0.76
6892.00,0.76
6891.00,0.76
6890.00,0.76
6889.00,0.76
6888.00,0.76
6887.00,0.76
6886.00,0.76
6885.00,0.76
6884.00,0.76
6883.00,0.76
6882.00,0.76
6881.00,0.76
6880.00,0.76
6879.00,0.76
6878.00,0.76
6877.00,0.76
6876.00,0.76
6875.00,0.76
6874.00,0.76
6873.00,0.76
6872.00,0.76
6871.00,0.77
6870.00,0.77
6869.00,0.77
6868.00,0.77
6867.00,0.77
6866.00,0.77
6865.00,0.77
6864.00,0.77
6863.00,0.77
6862.00,0.77
6861.00,0.77
6860.00,0.77
6859.00,0.77
6858.00,0.77
6857.00,0.77
6856.00,0.77
6855.00,0.77
6854.00,0.77
6853.00,0.77
6852.00,0.77
6851.00,0.77
6850.00,0.77
6849.00,0.77
6848.00,0.77
6847.00,0.77
6846.00,0.77
6845.00,0.77
6844.00,0.77
6843.00,0.76
6842.00,0.76
6841.00,0.76
6840.00,0.76
6839.00,0.76
6838.00,0.76
6837.00,0.77
6836.00,0.77
6835.00,0.77
6834.00,0.77
6833.00,0.77
6832.00,0.77
6831.00,0.77
6830.00,0.77
6829.00,0.77
6828.00,0.77
6827.00,0.78
6826.00,0.78
6825.00,0.78
6824.00,0.78
6823.00,0.78
6822.00,0.78
6821.00,0.78
6820.00,0.78
6819.00,0.78
6818.00,0.78
6817.00,0.78
6816.00,0.78
6815.00,0.78
6814.00,0.78
6813.00,0.78
6812.00,0.78
6811.00,0.78
6810.00,0.78
6809.00,0.78
6808.00,0.78
6807.00,0.78
6806.00,0.79
6805.00,0.79
6804.00,0.79
6803.00,0.79
6802.00,0.79
6801.00,0.79
6800.00,0.79
6799.00,0.79
6798.00,0.79
6797.00,0.79
6796.00,0.79
6795.00,0.79
6794.00,0.79
6793.00,0.79
6792.00,0.79
6791.00,0.79
6790.00,0.79
6789.00,0.79
6788.00,0.79
6787.00,0.79
6786.00,0.79
6785.00,0.79
6784.00,0.79
6783.00,0.79
6782.00,0.79
6781.00,0.79
6780.00,0.79
6779.00,0.79
6778.00,0.79
6777.00,0.79
6776.00,0.79
6775.00,0.79
6774.00,0.79
6773.00,0.80
6772.00,0.80
6771.00,0.80
6770.00,0.80
6769.00,0.80
6768.00,0.80
6767.00,0.80
6766.00,0.80
6765.00,0.80
6764.00,0.80
6763.00,0.80
6762.00,0.80
6761.00,0.80
6760.00,0.80
6759.00,0.80
6758.00,0.80
6757.00,0.80
6756.00,0.81
6755.00,0.81
6754.00,0.81
6753.00,0.81
6752.00,0.81
6751.00,0.81
6750.00,0.81
6749.00,0.81
6748.00,0.81
6747.00,0.81
6746.00,0.81
6745.00,0.81
6744.00,0.81
6743.00,0.81
6742.00,0.82
6741.00,0.82
6740.00,0.82
6739.00,0.82
6738.00,0.82
6737.00,0.82
6736.00,0.82
6735.00,0.82
6734.00,0.82
6733.00,0.82
6732.00,0.82
6731.00,0.82
6730.00,0.82
6729.00,0.82
6728.00,0.82
6727.00,0.83
6726.00,0.83
6725.00,0.83
6724.00,0.83
6723.00,0.83
6722.00,0.83
6721.00,0.83
6720.00,0.83
6719.00,0.83
6718.00,0.83
6717.00,0.83
6716.00,0.83
6715.00,0.83
6714.00,0.83
6713.00,0.83
6712.00,0.83
6711.00,0.83
6710.00,0.84
6709.00,0.84
6708.00,0.84
6707.00,0.84
6706.00,0.84
6705.00,0.84
6704.00,0.84
6703.00,0.85
6702.00,0.85
6701.00,0.85
6700.00,0.85
6699.00,0.85
6698.00,0.85
6697.00,0.85
6696.00,0.85
6695.00,0.85
6694.00,0.85
6693.00,0.85
6692.00,0.86
6691.00,0.86
6690.00,0.86
6689.00,0.86
6688.00,0.86
6687.00,0.86
6686.00,0.86
6685.00,0.86
6684.00,0.86
6683.00,0.86
6682.00,0.86
6681.00,0.87
6680.00,0.87
6679.00,0.87
6678.00,0.87
6677.00,0.87
6676.00,0.87
6675.00,0.87
6674.00,0.87
6673.00,0.87
6672.00,0.87
6671.00,0.87
6670.00,0.87
6669.00,0.87
6668.00,0.87
6667.00,0.87
6666.00,0.88
6665.00,0.88
6664.00,0.88
6663.00,0.88
6662.00,0.88
6661.00,0.88
6660.00,0.88
6659.00,0.88
6658.00,0.88
6657.00,0.89
6656.00,0.89
6655.00,0.89
6654.00,0.89
6653.00,0.89
6652.00,0.89
6651.00,0.89
6650.00,0.89
6649.00,0.89
6648.00,0.90
6647.00,0.90
6646.00,0.90
6645.00,0.90
6644.00,0.90
6643.00,0.90
6642.00,0.90
6641.00,0.90
6640.00,0.90
6639.00,0.90
6638.00,0.90
6637.00,0.91
6636.00,0.91
6635.00,0.91
6634.00,0.91
6633.00,0.91
6632.00,0.91
6631.00,0.91
6630.00,0.91
6629.00,0.91
6628.00,0.91
6627.00,0.91
6626.00,0.92
6625.00,0.92
6624.00,0.92
6623.00,0.92
6622.00,0.92
6621.00,0.92
6620.00,0.92
6619.00,0.92
6618.00,0.92
6617.00,0.92
6616.00,0.93
6615.00,0.93
6614.00,0.93
6613.00,0.93
6612.00,0.93
6611.00,0.94
6610.00,0.94
6609.00,0.94
6608.00,0.94
6607.00,0.94
6606.00,0.95
6605.00,0.95
6604.00,0.95
6603.00,0.95
6602.00,0.95
6601.00,0.95
6600.00,0.96
6599.00,0.96
6598.00,0.96
6597.00,0.96
6596.00,0.96
6595.00,0.96
6594.00,0.96
6593.00,0.96
6592.00,0.96
6591.00,0.96
6590.00,0.96
6589.00,0.96
6588.00,0.96
6587.00,0.96
6586.00,0.96
6585.00,0.96
6584.00,0.97
6583.00,0.97
6582.00,0.97
6581.00,0.97
6580.00,0.97
6579.00,0.97
6578.00,0.97
6577.00,0.98
6576.00,0.98
6575.00,0.98
6574.00,0.98
6573.00,0.98
6572.00,0.98
6571.00,0.99
6570.00,0.99
6569.00,0.99
6568.00,0.99
6567.00,0.99
6566.00,0.99
6565.00,1.00
6564.00,1.00
6563.00,1.00
6562.00,1.00
6561.00,1.00
6560.00,1.00
6559.00,1.00
6558.00,1.00
6557.00,1.01
6556.00,1.01
6555.00,1.01
6554.00,1.01
6553.00,1.01
6552.00,1.01
6551.00,1.01
6550.00,1.01
6549.00,1.01
6548.00,1.01
6547.00,1.02
6546.00,1.02
6545.00,1.02
6544.00,1.02
6543.00,1.02
6542.00,1.02
6541.00,1.02
6540.00,1.02
6539.00,1.02
6538.00,1.02
6537.00,1.03
6536.00,1.03
6535.00,1.03
6534.00,1.03
6533.00,1.03
6532.00,1.03
6531.00,1.03
6530.00,1.03
6529.00,1.03
6528.00,1.04
6527.00,1.04
6526.00,1.04
6525.00,1.04
6524.00,1.04
6523.00,1.05
6522.00,1.05
6521.00,1.05
6520.00,1.05
6519.00,1.05
6518.00,1.05
6517.00,1.05
6516.00,1.06
6515.00,1.06
6514.00,1.06
6513.00,1.06
6512.00,1.06
6511.00,1.06
6510.00,1.06
6509.00,1.06
6508.00,1.06
6507.00,1.06
6506.00,1.06
6505.00,1.06
6504.00,1.06
6503.00,1.06
6502.00,1.06
6501.00,1.07
6500.00,1.07
6499.00,1.07
6498.00,1.07
6497.00,1.07
6496.00,1.07
6495.00,1.08
6494.00,1.08
6493.00,1.08
6492.00,1.08
6491.00,1.08
6490.00,1.08
6489.00,1.09
6488.00,1.09
6487.00,1.09
6486.00,1.09
6485.00,1.09
6484.00,1.09
6483.00,1.09
6482.00,1.09
6481.00,1.10
6480.00,1.10
6479.00,1.10
6478.00,1.10
6477.00,1.10
6476.00,1.10
6475.00,1.10
6474.00,1.10
6473.00,1.10
6472.00,1.11
6471.00,1.11
6470.00,1.11
6469.00,1.11
6468.00,1.11
6467.00,1.11
6466.00,1.11
6465.00,1.11
6464.00,1.11
6463.00,1.11
6462.00,1.12
6461.00,1.12
6460.00,1.12
6459.00,1.12
6458.00,1.12
6457.00,1.12
6456.00,1.12
6455.00,1.12
6454.00,1.12
6453.00,1.12
6452.00,1.12
6451.00,1.12
6450.00,1.12
6449.00,1.12
6448.00,1.12
6447.00,1.13
6446.00,1.13
6445.00,1.13
6444.00,1.13
6443.00,1.13
6442.00,1.13
6441.00,1.14
6440.00,1.14
6439.00,1.14
6438.00,1.14
6437.00,1.14
6436.00,1.14
6435.00,1.15
6434.00,1.15
6433.00,1.15
6432.00,1.15
6431.00,1.15
6430.00,1.15
6429.00,1.16
6428.00,1.16
6427.00,1.16
6426.00,1.16
6425.00,1.16
6424.00,1.16
6423.00,1.16
6422.00,1.16
6421.00,1.16
6420.00,1.16
6419.00,1.16
6418.00,1.16
6417.00,1.16
6416.00,1.16
6415.00,1.16
6414.00,1.16
6413.00,1.16
6412.00,1.16
6411.00,1.16
6410.00,1.16
6409.00,1.16
6408.00,1.17
6407.00,1.17
6406.00,1.17
6405.00,1.17
6404.00,1.17
6403.00,1.17
6402.00,1.17
6401.00,1.17
6400.00,1.17
6399.00,1.17
6398.00,1.18
6397.00,1.18
6396.00,1.18
6395.00,1.18
6394.00,1.18
6393.00,1.19
6392.00,1.19
6391.00,1.19
6390.00,1.19
6389.00,1.20
6388.00,1.20
6387.00,1.20
6386.00,1.20
6385.00,1.21
6384.00,1.21
6383.00,1.21
6382.00,1.21
6381.00,1.21
6380.00,1.22
6379.00,1.22
6378.00,1.22
6377.00,1.22
6376.00,1.22
6375.00,1.22
6374.00,1.23
6373.00,1.23
6372.00,1.23
6371.00,1.23
6370.00,1.23
6369.00,1.23
6368.00,1.23
6367.00,1.23
6366.00,1.23
6365.00,1.23
6364.00,1.23
6363.00,1.23
6362.00,1.23
6361.00,1.24
6360.00,1.24
6359.00,1.24
6358.00,1.24
6357.00,1.24
6356.00,1.24
6355.00,1.24
6354.00,1.24
6353.00,1.25
6352.00,1.25
6351.00,1.25
6350.00,1.25
6349.00,1.25
6348.00,1.25
6347.00,1.25
6346.00,1.25
6345.00,1.26
6344.00,1.26
6343.00,1.26
6342.00,1.26
6341.00,1.26
6340.00,1.26
6339.00,1.27
6338.00,1.27
6337.00,1.27
6336.00,1.27
6335.00,1.27
6334.00,1.27
6333.00,1.28
6332.00,1.28
6331.00,1.28
6330.00,1.28
6329.00,1.28
6328.00,1.28
6327.00,1.29
6326.00,1.29
6325.00,1.29
6324.00,1.29
6323.00,1.29
6322.00,1.29
6321.00,1.30
6320.00,1.30
6319.00,1.30
6318.00,1.30
6317.00,1.30
6316.00,1.30
6315.00,1.31
6314.00,1.31
6313.00,1.31
6312.00,1.31
6311.00,1.31
6310.00,1.31
6309.00,1.31
6308.00,1.31
6307.00,1.32
6306.00,1.32
6305.00,1.32
6304.00,1.32
6303.00,1.32
6302.00,1.32
6301.00,1.32
6300.00,1.33
6299.00,1.33
6298.00,1.33
6297.00,1.33
6296.00,1.33
6295.00,1.34
6294.00,1.34
6293.00,1.34
6292.00,1.34
6291.00,1.34
6290.00,1.35
6289.00,1.35
6288.00,1.35
6287.00,1.35
6286.00,1.35
6285.00,1.36
6284.00,1.36
6283.00,1.36
6282.00,1.36
6281.00,1.36
6280.00,1.36
6279.00,1.37
6278.00,1.37
6277.00,1.37
6276.00,1.37
6275.00,1.37
6274.00,1.37
6273.00,1.37
6272.00,1.37
6271.00,1.37
6270.00,1.37
6269.00,1.38
6268.00,1.38
6267.00,1.38
6266.00,1.38
6265.00,1.38
6264.00,1.38
6263.00,1.38
6262.00,1.38
6261.00,1.38
6260.00,1.39
6259.00,1.39
6258.00,1.39
6257.00,1.39
6256.00,1.39
6255.00,1.40
6254.00,1.40
6253.00,1.40
6252.00,1.40
6251.00,1.41
6250.00,1.41
6249.00,1.41
6248.00,1.41
6247.00,1.42
6246.00,1.42
6245.00,1.42
6244.00,1.42
6243.00,1.42
6242.00,1.43
6241.00,1.43
6240.00,1.43
6239.00,1.43
6238.00,1.43
6237.00,1.44
6236.00,1.44
6235.00,1.44
6234.00,1.44
6233.00,1.44
6232.00,1.44
6231.00,1.45
6230.00,1.45
6229.00,1.45
6228.00,1.45
6227.00,1.45
6226.00,1.45
6225.00,1.45
6224.00,1.46
6223.00,1.46
6222.00,1.46
6221.00,1.46
6220.00,1.46
6219.00,1.46
6218.00,1.46
6217.00,1.46
6216.00,1.46
6215.00,1.47
6214.00,1.47
6213.00,1.47
6212.00,1.47
6211.00,1.47
6210.00,1.47
6209.00,1.47
6208.00,1.47
6207.00,1.48
6206.00,1.48
6205.00,1.48
6204.00,1.48
6203.00,1.48
6202.00,1.49
6201.00,1.49
6200.00,1.49
6199.00,1.49
6198.00,1.50
6197.00,1.50
6196.00,1.50
6195.00,1.50
6194.00,1.51
6193.00,1.51
6192.00,1.51
6191.00,1.52
6190.00,1.52
6189.00,1.52
6188.00,1.52
6187.00,1.53
6186.00,1.53
6185.00,1.53
6184.00,1.53
6183.00,1.54
6182.00,1.54
6181.00,1.54
6180.00,1.54
6179.00,1.54
6178.00,1.55
6177.00,1.55
6176.00,1.55
6175.00,1.55
6174.00,1.56
6173.00,1.56
6172.00,1.56
6171.00,1.56
6170.00,1.56
6169.00,1.57
6168.00,1.57
6167.00,1.57
6166.00,1.57
6165.00,1.57
6164.00,1.58
6163.00,1.58
6162.00,1.58
6161.00,1.58
6160.00,1.58
6159.00,1.58
6158.00,1.58
6157.00,1.58
6156.00,1.59
6155.00,1.59
6154.00,1.59
6153.00,1.59
6152.00,1.59
6151.00,1.59
6150.00,1.59
6149.00,1.60
6148.00,1.60
6147.00,1.60
6146.00,1.60
6145.00,1.60
6144.00,1.61
6143.00,1.61
6142.00,1.61
6141.00,1.62
6140.00,1.62
6139.00,1.62
6138.00,1.62
6137.00,1.63
6136.00,1.63
6135.00,1.63
6134.00,1.63
6133.00,1.64
6132.00,1.64
6131.00,1.64
6130.00,1.64
6129.00,1.64
6128.00,1.65
6127.00,1.65
6126.00,1.65
6125.00,1.65
6124.00,1.65
6123.00,1.65
6122.00,1.66
6121.00,1.66
6120.00,1.66
6119.00,1.66
6118.00,1.66
6117.00,1.67
6116.00,1.67
6115.00,1.67
6114.00,1.67
6113.00,1.68
6112.00,1.68
6111.00,1.68
6110.00,1.68
6109.00,1.69
6108.00,1.69
6107.00,1.69
6106.00,1.69
6105.00,1.69
6104.00,1.70
6103.00,1.70
6102.00,1.70
6101.00,1.70
6100.00,1.70
6099.00,1.71
6098.00,1.71
6097.00,1.71
6096.00,1.71
6095.00,1.71
6094.00,1.71
6093.00,1.71
6092.00,1.72
6091.00,1.72
6090.00,1.72
6089.00,1.72
6088.00,1.72
6087.00,1.72
6086.00,1.72
6085.00,1.73
6084.00,1.73
6083.00,1.73
6082.00,1.73
6081.00,1.73
6080.00,1.73
6079.00,1.73
6078.00,1.74
6077.00,1.74
6076.00,1.74
6075.00,1.74
6074.00,1.74
6073.00,1.74
6072.00,1.74
6071.00,1.75
6070.00,1.75
6069.00,1.75
6068.00,1.75
6067.00,1.75
6066.00,1.75
6065.00,1.76
6064.00,1.76
6063.00,1.76
6062.00,1.76
6061.00,1.76
6060.00,1.76
6059.00,1.77
6058.00,1.77
6057.00,1.77
6056.00,1.77
6055.00,1.77
6054.00,1.78
6053.00,1.78
6052.00,1.78
6051.00,1.78
6050.00,1.78
6049.00,1.78
6048.00,1.78
6047.00,1.78
6046.00,1.79
6045.00,1.79
6044.00,1.79
6043.00,1.79
6042.00,1.79
6041.00,1.79
6040.00,1.79
6039.00,1.79
6038.00,1.79
6037.00,1.79
6036.00,1.79
6035.00,1.79
6034.00,1.79
6033.00,1.80
6032.00,1.80
6031.00,1.80
6030.00,1.80
6029.00,1.80
6028.00,1.80
6027.00,1.80
6026.00,1.80
6025.00,1.80
6024.00,1.80
6023.00,1.81
6022.00,1.81
6021.00,1.81
6020.00,1.81
6019.00,1.81
6018.00,1.81
6017.00,1.81
6016.00,1.81
6015.00,1.81
6014.00,1.81
6013.00,1.81
6012.00,1.81
6011.00,1.81
6010.00,1.81
6009.00,1.81
6008.00,1.81
6007.00,1.81
6006.00,1.81
6005.00,1.81
6004.00,1.81
6003.00,1.81
6002.00,1.81
6001.00,1.81
6000.00,1.80
5999.00,1.80
5998.00,1.80
5997.00,1.80
5996.00,1.80
5995.00,1.80
5994.00,1.80
5993.00,1.80
5992.00,1.80
5991.00,1.79
5990.00,1.79
5989.00,1.79
5988.00,1.79
5987.00,1.78
5986.00,1.78
5985.00,1.77
5984.00,1.77
5983.00,1.77
5982.00,1.76
5981.00,1.76
5980.00,1.75
5979.00,1.75
5978.00,1.74
5977.00,1.74
5976.00,1.73
5975.00,1.73
5974.00,1.72
5973.00,1.71
5972.00,1.71
5971.00,1.70
5970.00,1.70
5969.00,1.69
5968.00,1.68
5967.00,1.68
5966.00,1.67
5965.00,1.66
5964.00,1.66
5963.00,1.65
5962.00,1.64
5961.00,1.64
5960.00,1.63
5959.00,1.62
5958.00,1.61
5957.00,1.61
5956.00,1.60
5955.00,1.59
5954.00,1.59
5953.00,1.58
5952.00,1.58
5951.00,1.57
5950.00,1.57
5949.00,1.56
5948.00,1.56
5947.00,1.55
5946.00,1.55
5945.00,1.55
5944.00,1.54
5943.00,1.54
5942.00,1.54
5941.00,1.54
5940.00,1.53
5939.00,1.53
5938.00,1.53
5937.00,1.53
5936.00,1.53
5935.00,1.53
5934.00,1.53
5933.00,1.53
5932.00,1.53
5931.00,1.53
5930.00,1.53
5929.00,1.52
5928.00,1.52
5927.00,1.52
5926.00,1.52
5925.00,1.52
5924.00,1.51
5923.00,1.51
5922.00,1.51
5921.00,1.50
5920.00,1.50
5919.00,1.50
5918.00,1.50
5917.00,1.49
5916.00,1.49
5915.00,1.49
5914.00,1.48
5913.00,1.48
5912.00,1.48
5911.00,1.48
5910.00,1.47
5909.00,1.47
5908.00,1.47
5907.00,1.47
5906.00,1.47
5905.00,1.47
5904.00,1.47
5903.00,1.47
5902.00,1.47
5901.00,1.47
5900.00,1.47
5899.00,1.47
5898.00,1.47
5897.00,1.47
5896.00,1.48
5895.00,1.48
5894.00,1.48
5893.00,1.49
5892.00,1.49
5891.00,1.49
5890.00,1.49
5889.00,1.50
5888.00,1.50
5887.00,1.51
5886.00,1.51
5885.00,1.51
5884.00,1.52
5883.00,1.52
5882.00,1.52
5881.00,1.53
5880.00,1.53
5879.00,1.53
5878.00,1.54
5877.00,1.54
5876.00,1.54
5875.00,1.55
5874.00,1.55
5873.00,1.55
5872.00,1.55
5871.00,1.56
5870.00,1.56
5869.00,1.56
5868.00,1.56
5867.00,1.57
5866.00,1.57
5865.00,1.57
5864.00,1.57
5863.00,1.57
5862.00,1.58
5861.00,1.58
5860.00,1.58
5859.00,1.58
5858.00,1.59
5857.00,1.59
5856.00,1.59
5855.00,1.59
5854.00,1.60
5853.00,1.60
5852.00,1.60
5851.00,1.60
5850.00,1.60
5849.00,1.60
5848.00,1.60
5847.00,1.61
5846.00,1.61
5845.00,1.61
5844.00,1.61
5843.00,1.61
5842.00,1.60
5841.00,1.60
5840.00,1.60
5839.00,1.60
5838.00,1.60
5837.00,1.60
5836.00,1.60
5835.00,1.60
5834.00,1.60
5833.00,1.60
5832.00,1.60
5831.00,1.60
5830.00,1.60
5829.00,1.60
5828.00,1.60
5827.00,1.60
5826.00,1.60
5825.00,1.60
5824.00,1.60
5823.00,1.60
5822.00,1.61
5821.00,1.61
5820.00,1.61
5819.00,1.61
5818.00,1.61
5817.00,1.61
5816.00,1.61
5815.00,1.61
5814.00,1.61
5813.00,1.61
5812.00,1.61
5811.00,1.61
5810.00,1.61
5809.00,1.60
5808.00,1.60
5807.00,1.60
5806.00,1.60
5805.00,1.60
5804.00,1.60
5803.00,1.59
5802.00,1.59
5801.00,1.59
5800.00,1.59
5799.00,1.59
5798.00,1.58
5797.00,1.58
5796.00,1.58
5795.00,1.57
5794.00,1.57
5793.00,1.57
5792.00,1.57
5791.00,1.56
5790.00,1.56
5789.00,1.56
5788.00,1.55
5787.00,1.55
5786.00,1.55
5785.00,1.55
5784.00,1.54
5783.00,1.54
5782.00,1.54
5781.00,1.54
5780.00,1.54
5779.00,1.53
5778.00,1.53
5777.00,1.53
5776.00,1.53
5775.00,1.53
5774.00,1.53
5773.00,1.53
5772.00,1.53
5771.00,1.53
5770.00,1.54
5769.00,1.54
5768.00,1.54
5767.00,1.54
5766.00,1.54
5765.00,1.55
5764.00,1.55
5763.00,1.55
5762.00,1.56
5761.00,1.56
5760.00,1.56
5759.00,1.57
5758.00,1.57
5757.00,1.57
5756.00,1.58
5755.00,1.58
5754.00,1.58
5753.00,1.59
5752.00,1.59
5751.00,1.59
5750.00,1.60
5749.00,1.60
5748.00,1.60
5747.00,1.60
5746.00,1.61
5745.00,1.61
5744.00,1.61
5743.00,1.61
5742.00,1.62
5741.00,1.62
5740.00,1.62
5739.00,1.62
5738.00,1.63
5737.00,1.63
5736.00,1.63
5735.00,1.63
5734.00,1.63
5733.00,1.64
5732.00,1.64
5731.00,1.64
5730.00,1.64
5729.00,1.64
5728.00,1.64
5727.00,1.65
5726.00,1.65
5725.00,1.65
5724.00,1.65
5723.00,1.65
5722.00,1.65
5721.00,1.65
5720.00,1.65
5719.00,1.65
5718.00,1.65
5717.00,1.65
5716.00,1.65
5715.00,1.65
5714.00,1.65
5713.00,1.65
5712.00,1.65
5711.00,1.65
5710.00,1.64
5709.00,1.64
5708.00,1.64
5707.00,1.64
5706.00,1.64
5705.00,1.63
5704.00,1.63
5703.00,1.63
5702.00,1.63
5701.00,1.63
5700.00,1.62
5699.00,1.62
5698.00,1.62
5697.00,1.62
5696.00,1.62
5695.00,1.61
5694.00,1.61
5693.00,1.61
5692.00,1.61
5691.00,1.60
5690.00,1.60
5689.00,1.60
5688.00,1.60
5687.00,1.60
5686.00,1.59
5685.00,1.59
5684.00,1.59
5683.00,1.59
5682.00,1.59
5681.00,1.58
5680.00,1.58
5679.00,1.58
5678.00,1.58
5677.00,1.58
5676.00,1.58
5675.00,1.58
5674.00,1.58
5673.00,1.58
5672.00,1.58
5671.00,1.58
5670.00,1.58
5669.00,1.58
5668.00,1.58
5667.00,1.58
5666.00,1.58
5665.00,1.58
5664.00,1.58
5663.00,1.58
5662.00,1.58
5661.00,1.58
5660.00,1.59
5659.00,1.59
5658.00,1.59
5657.00,1.59
5656.00,1.59
5655.00,1.59
5654.00,1.60
5653.00,1.60
5652.00,1.60
5651.00,1.60
5650.00,1.60
5649.00,1.61
5648.00,1.61
5647.00,1.61
5646.00,1.61
5645.00,1.61
5644.00,1.62
5643.00,1.62
5642.00,1.62
5641.00,1.62
5640.00,1.62
5639.00,1.62
5638.00,1.63
5637.00,1.63
5636.00,1.63
5635.00,1.63
5634.00,1.63
5633.00,1.63
5632.00,1.63
5631.00,1.63
5630.00,1.64
5629.00,1.64
5628.00,1.64
5627.00,1.64
5626.00,1.64
5625.00,1.64
5624.00,1.64
5623.00,1.64
5622.00,1.65
5621.00,1.65
5620.00,1.65
5619.00,1.65
5618.00,1.65
5617.00,1.65
5616.00,1.66
5615.00,1.66
5614.00,1.66
5613.00,1.66
5612.00,1.66
5611.00,1.67
5610.00,1.67
5609.00,1.67
5608.00,1.67
5607.00,1.68
5606.00,1.68
5605.00,1.68
5604.00,1.68
5603.00,1.68
5602.00,1.69
5601.00,1.69
5600.00,1.69
5599.00,1.69
5598.00,1.70
5597.00,1.70
5596.00,1.70
5595.00,1.70
5594.00,1.71
5593.00,1.71
5592.00,1.71
5591.00,1.71
5590.00,1.72
5589.00,1.72
5588.00,1.72
5587.00,1.72
5586.00,1.72
5585.00,1.73
5584.00,1.73
5583.00,1.73
5582.00,1.73
5581.00,1.73
5580.00,1.73
5579.00,1.74
5578.00,1.74
5577.00,1.74
5576.00,1.74
5575.00,1.74
5574.00,1.75
5573.00,1.75
5572.00,1.75
5571.00,1.75
5570.00,1.75
5569.00,1.76
5568.00,1.76
5567.00,1.76
5566.00,1.76
5565.00,1.76
5564.00,1.77
5563.00,1.77
5562.00,1.77
5561.00,1.77
5560.00,1.77
5559.00,1.78
5558.00,1.78
5557.00,1.78
5556.00,1.78
5555.00,1.78
5554.00,1.78
5553.00,1.78
5552.00,1.79
5551.00,1.79
5550.00,1.79
5549.00,1.79
5548.00,1.79
5547.00,1.79
5546.00,1.79
5545.00,1.79
5544.00,1.80
5543.00,1.80
5542.00,1.80
5541.00,1.80
5540.00,1.80
5539.00,1.80
5538.00,1.81
5537.00,1.81
5536.00,1.81
5535.00,1.81
5534.00,1.81
5533.00,1.81
5532.00,1.82
5531.00,1.82
5530.00,1.82
5529.00,1.82
5528.00,1.82
5527.00,1.82
5526.00,1.82
5525.00,1.82
5524.00,1.83
5523.00,1.83
5522.00,1.83
5521.00,1.83
5520.00,1.83
5519.00,1.83
5518.00,1.83
5517.00,1.83
5516.00,1.83
5515.00,1.83
5514.00,1.83
5513.00,1.83
5512.00,1.83
5511.00,1.83
5510.00,1.83
5509.00,1.83
5508.00,1.83
5507.00,1.83
5506.00,1.83
5505.00,1.83
5504.00,1.84
5503.00,1.84
5502.00,1.84
5501.00,1.84
5500.00,1.84
5499.00,1.84
5498.00,1.84
5497.00,1.84
5496.00,1.84
5495.00,1.84
5494.00,1.85
5493.00,1.85
5492.00,1.85
5491.00,1.85
5490.00,1.85
5489.00,1.85
5488.00,1.86
5487.00,1.86
5486.00,1.86
5485.00,1.86
5484.00,1.86
5483.00,1.86
5482.00,1.87
5481.00,1.87
5480.00,1.87
5479.00,1.87
5478.00,1.87
5477.00,1.87
5476.00,1.87
5475.00,1.88
5474.00,1.88
5473.00,1.88
5472.00,1.88
5471.00,1.88
5470.00,1.88
5469.00,1.88
5468.00,1.88
5467.00,1.89
5466.00,1.89
5465.00,1.89
5464.00,1.89
5463.00,1.89
5462.00,1.89
5461.00,1.89
5460.00,1.89
5459.00,1.89
5458.00,1.89
5457.00,1.90
5456.00,1.90
5455.00,1.90
5454.00,1.90
5453.00,1.90
5452.00,1.90
5451.00,1.90
5450.00,1.90
5449.00,1.90
5448.00,1.90
5447.00,1.90
5446.00,1.90
5445.00,1.90
5444.00,1.90
5443.00,1.89
5442.00,1.89
5441.00,1.89
5440.00,1.89
5439.00,1.89
5438.00,1.89
5437.00,1.89
5436.00,1.89
5435.00,1.89
5434.00,1.89
5433.00,1.89
5432.00,1.89
5431.00,1.89
5430.00,1.89
5429.00,1.90
5428.00,1.90
5427.00,1.90
5426.00,1.90
5425.00,1.90
5424.00,1.90
5423.00,1.90
5422.00,1.90
5421.00,1.90
5420.00,1.90
5419.00,1.90
5418.00,1.89
5417.00,1.89
5416.00,1.89
5415.00,1.89
5414.00,1.89
5413.00,1.89
5412.00,1.89
5411.00,1.89
5410.00,1.88
5409.00,1.88
5408.00,1.88
5407.00,1.88
5406.00,1.88
5405.00,1.88
5404.00,1.87
5403.00,1.87
5402.00,1.87
5401.00,1.87
5400.00,1.87
5399.00,1.86
5398.00,1.86
5397.00,1.86
5396.00,1.85
5395.00,1.85
5394.00,1.85
5393.00,1.84
5392.00,1.84
5391.00,1.84
5390.00,1.83
5389.00,1.83
5388.00,1.82
5387.00,1.82
5386.00,1.81
5385.00,1.81
5384.00,1.80
5383.00,1.80
5382.00,1.79
5381.00,1.79
5380.00,1.78
5379.00,1.78
5378.00,1.77
5377.00,1.76
5376.00,1.76
5375.00,1.75
5374.00,1.74
5373.00,1.73
5372.00,1.73
5371.00,1.72
5370.00,1.71
5369.00,1.70
5368.00,1.69
5367.00,1.68
5366.00,1.67
5365.00,1.66
5364.00,1.66
5363.00,1.65
5362.00,1.64
5361.00,1.63
5360.00,1.62
5359.00,1.61
5358.00,1.60
5357.00,1.59
5356.00,1.58
5355.00,1.57
5354.00,1.55
5353.00,1.54
5352.00,1.53
5351.00,1.52
5350.00,1.51
5349.00,1.50
5348.00,1.49
5347.00,1.48
5346.00,1.47
5345.00,1.45
5344.00,1.44
5343.00,1.43
5342.00,1.42
5341.00,1.41
5340.00,1.40
5339.00,1.39
5338.00,1.38
5337.00,1.37
5336.00,1.36
5335.00,1.34
5334.00,1.33
5333.00,1.32
5332.00,1.31
5331.00,1.31
5330.00,1.30
5329.00,1.29
5328.00,1.28
5327.00,1.27
5326.00,1.26
5325.00,1.25
5324.00,1.24
5323.00,1.23
5322.00,1.22
5321.00,1.22
5320.00,1.21
5319.00,1.20
5318.00,1.19
5317.00,1.19
5316.00,1.18
5315.00,1.17
5314.00,1.17
5313.00,1.16
5312.00,1.16
5311.00,1.15
5310.00,1.15
5309.00,1.14
5308.00,1.14
5307.00,1.13
5306.00,1.13
5305.00,1.12
5304.00,1.12
5303.00,1.12
5302.00,1.11
5301.00,1.11
5300.00,1.11
5299.00,1.10
5298.00,1.10
5297.00,1.10
5296.00,1.10
5295.00,1.10
5294.00,1.09
5293.00,1.09
5292.00,1.09
5291.00,1.09
5290.00,1.09
5289.00,1.09
5288.00,1.09
5287.00,1.09
5286.00,1.09
5285.00,1.09
5284.00,1.09
5283.00,1.09
5282.00,1.09
5281.00,1.09
5280.00,1.09
5279.00,1.09
5278.00,1.09
5277.00,1.09
5276.00,1.09
5275.00,1.09
5274.00,1.09
5273.00,1.09
5272.00,1.09
5271.00,1.09
5270.00,1.09
5269.00,1.09
5268.00,1.09
5267.00,1.09
5266.00,1.09
5265.00,1.09
5264.00,1.09
5263.00,1.09
5262.00,1.09
5261.00,1.09
5260.00,1.09
5259.00,1.09
5258.00,1.09
5257.00,1.09
5256.00,1.09
5255.00,1.09
5254.00,1.09
5253.00,1.09
5252.00,1.09
5251.00,1.09
5250.00,1.09
5249.00,1.09
5248.00,1.09
5247.00,1.09
5246.00,1.09
5245.00,1.10
5244.00,1.10
5243.00,1.10
5242.00,1.10
5241.00,1.10
5240.00,1.10
5239.00,1.10
5238.00,1.10
5237.00,1.10
5236.00,1.10
5235.00,1.10
5234.00,1.10
5233.00,1.10
5232.00,1.10
5231.00,1.10
5230.00,1.10
5229.00,1.10
5228.00,1.10
5227.00,1.10
5226.00,1.10
5225.00,1.10
5224.00,1.10
5223.00,1.10
5222.00,1.10
5221.00,1.10
5220.00,1.10
5219.00,1.10
5218.00,1.10
5217.00,1.10
5216.00,1.10
5215.00,1.10
5214.00,1.10
5213.00,1.10
5212.00,1.10
5211.00,1.10
5210.00,1.10
5209.00,1.10
5208.00,1.10
5207.00,1.10
5206.00,1.10
5205.00,1.10
5204.00,1.10
5203.00,1.10
5202.00,1.10
5201.00,1.11
5200.00,1.11
5199.00,1.11
5198.00,1.11
5197.00,1.11
5196.00,1.11
5195.00,1.11
5194.00,1.11
5193.00,1.11
5192.00,1.11
5191.00,1.11
5190.00,1.12
5189.00,1.12
5188.00,1.12
5187.00,1.12
5186.00,1.12
5185.00,1.12
5184.00,1.12
5183.00,1.12
5182.00,1.12
5181.00,1.12
5180.00,1.12
5179.00,1.12
5178.00,1.12
5177.00,1.12
5176.00,1.12
5175.00,1.12
5174.00,1.13
5173.00,1.13
5172.00,1.13
5171.00,1.13
5170.00,1.13
5169.00,1.13
5168.00,1.13
5167.00,1.13
5166.00,1.13
5165.00,1.13
5164.00,1.13
5163.00,1.13
5162.00,1.13
5161.00,1.13
5160.00,1.13
5159.00,1.13
5158.00,1.13
5157.00,1.13
5156.00,1.13
5155.00,1.13
5154.00,1.13
5153.00,1.13
5152.00,1.13
5151.00,1.13
5150.00,1.13
5149.00,1.13
5148.00,1.14
5147.00,1.14
5146.00,1.14
5145.00,1.14
5144.00,1.14
5143.00,1.14
5142.00,1.14
5141.00,1.14
5140.00,1.14
5139.00,1.15
5138.00,1.15
5137.00,1.15
5136.00,1.15
5135.00,1.15
5134.00,1.15
5133.00,1.15
5132.00,1.15
5131.00,1.15
5130.00,1.15
5129.00,1.15
5128.00,1.15
5127.00,1.15
5126.00,1.15
5125.00,1.15
5124.00,1.15
5123.00,1.15
5122.00,1.15
5121.00,1.15
5120.00,1.15
5119.00,1.15
5118.00,1.15
5117.00,1.15
5116.00,1.15
5115.00,1.15
5114.00,1.16
5113.00,1.16
5112.00,1.16
5111.00,1.16
5110.00,1.16
5109.00,1.16
5108.00,1.16
5107.00,1.16
5106.00,1.16
5105.00,1.16
5104.00,1.16
5103.00,1.16
5102.00,1.16
5101.00,1.16
5100.00,1.16
5099.00,1.16
5098.00,1.16
5097.00,1.16
5096.00,1.16
5095.00,1.16
5094.00,1.16
5093.00,1.16
5092.00,1.16
5091.00,1.16
5090.00,1.16
5089.00,1.16
5088.00,1.16
5087.00,1.16
5086.00,1.16
5085.00,1.17
5084.00,1.17
5083.00,1.17
5082.00,1.17
5081.00,1.17
5080.00,1.17
5079.00,1.17
5078.00,1.17
5077.00,1.17
5076.00,1.18
5075.00,1.18
5074.00,1.18
5073.00,1.18
5072.00,1.18
5071.00,1.18
5070.00,1.18
5069.00,1.18
5068.00,1.18
5067.00,1.18
5066.00,1.18
5065.00,1.18
5064.00,1.18
5063.00,1.18
5062.00,1.18
5061.00,1.18
5060.00,1.18
5059.00,1.18
5058.00,1.18
5057.00,1.18
5056.00,1.18
5055.00,1.18
5054.00,1.18
5053.00,1.18
5052.00,1.18
5051.00,1.18
5050.00,1.18
5049.00,1.18
5048.00,1.19
5047.00,1.19
5046.00,1.19
5045.00,1.19
5044.00,1.19
5043.00,1.19
5042.00,1.19
5041.00,1.19
5040.00,1.19
5039.00,1.19
5038.00,1.19
5037.00,1.19
5036.00,1.19
5035.00,1.20
5034.00,1.20
5033.00,1.20
5032.00,1.20
5031.00,1.20
5030.00,1.20
5029.00,1.20
5028.00,1.20
5027.00,1.20
5026.00,1.20
5025.00,1.20
5024.00,1.20
5023.00,1.20
5022.00,1.20
5021.00,1.20
5020.00,1.20
5019.00,1.20
5018.00,1.20
5017.00,1.20
5016.00,1.21
5015.00,1.21
5014.00,1.21
5013.00,1.21
5012.00,1.21
5011.00,1.21
5010.00,1.21
5009.00,1.21
5008.00,1.21
5007.00,1.21
5006.00,1.22
5005.00,1.22
5004.00,1.22
5003.00,1.22
5002.00,1.22
5001.00,1.22
5000.00,1.22
4999.00,1.22
4998.00,1.22
4997.00,1.22
4996.00,1.22
4995.00,1.22
4994.00,1.22
4993.00,1.22
4992.00,1.22
4991.00,1.23
4990.00,1.23
4989.00,1.23
4988.00,1.23
4987.00,1.23
4986.00,1.23
4985.00,1.23
4984.00,1.23
4983.00,1.23
4982.00,1.23
4981.00,1.23
4980.00,1.23
4979.00,1.23
4978.00,1.24
4977.00,1.24
4976.00,1.24
4975.00,1.24
4974.00,1.24
4973.00,1.24
4972.00,1.24
4971.00,1.24
4970.00,1.24
4969.00,1.24
4968.00,1.24
4967.00,1.24
4966.00,1.24
4965.00,1.24
4964.00,1.24
4963.00,1.24
4962.00,1.24
4961.00,1.24
4960.00,1.24
4959.00,1.25
4958.00,1.25
4957.00,1.25
4956.00,1.25
4955.00,1.25
4954.00,1.25
4953.00,1.25
4952.00,1.25
4951.00,1.25
4950.00,1.25
4949.00,1.25
4948.00,1.25
4947.00,1.25
4946.00,1.25
4945.00,1.26
4944.00,1.26
4943.00,1.26
4942.00,1.26
4941.00,1.26
4940.00,1.26
4939.00,1.26
4938.00,1.26
4937.00,1.26
4936.00,1.26
4935.00,1.26
4934.00,1.26
4933.00,1.26
4932.00,1.26
4931.00,1.26
4930.00,1.27
4929.00,1.27
4928.00,1.27
4927.00,1.27
4926.00,1.27
4925.00,1.27
4924.00,1.27
4923.00,1.27
4922.00,1.27
4921.00,1.27
4920.00,1.27
4919.00,1.27
4918.00,1.27
4917.00,1.28
4916.00,1.28
4915.00,1.28
4914.00,1.28
4913.00,1.28
4912.00,1.28
4911.00,1.28
4910.00,1.28
4909.00,1.28
4908.00,1.28
4907.00,1.28
4906.00,1.28
4905.00,1.29
4904.00,1.29
4903.00,1.29
4902.00,1.29
4901.00,1.29
4900.00,1.29
4899.00,1.29
4898.00,1.29
4897.00,1.29
4896.00,1.29
4895.00,1.29
4894.00,1.29
4893.00,1.29
4892.00,1.29
4891.00,1.29
4890.00,1.29
4889.00,1.29
4888.00,1.29
4887.00,1.29
4886.00,1.29
4885.00,1.29
4884.00,1.29
4883.00,1.30
4882.00,1.30
4881.00,1.30
4880.00,1.30
4879.00,1.30
4878.00,1.30
4877.00,1.30
4876.00,1.30
4875.00,1.30
4874.00,1.31
4873.00,1.31
4872.00,1.31
4871.00,1.31
4870.00,1.31
4869.00,1.31
4868.00,1.31
4867.00,1.31
4866.00,1.31
4865.00,1.31
4864.00,1.31
4863.00,1.31
4862.00,1.31
4861.00,1.31
4860.00,1.31
4859.00,1.31
4858.00,1.31
4857.00,1.31
4856.00,1.31
4855.00,1.32
4854.00,1.32
4853.00,1.32
4852.00,1.32
4851.00,1.32
4850.00,1.32
4849.00,1.32
4848.00,1.32
4847.00,1.32
4846.00,1.32
4845.00,1.32
4844.00,1.32
4843.00,1.32
4842.00,1.32
4841.00,1.32
4840.00,1.32
4839.00,1.33
4838.00,1.33
4837.00,1.33
4836.00,1.33
4835.00,1.33
4834.00,1.33
4833.00,1.33
4832.00,1.33
4831.00,1.34
4830.00,1.34
4829.00,1.34
4828.00,1.34
4827.00,1.34
4826.00,1.34
4825.00,1.34
4824.00,1.34
4823.00,1.35
4822.00,1.35
4821.00,1.35
4820.00,1.35
4819.00,1.35
4818.00,1.35
4817.00,1.35
4816.00,1.35
4815.00,1.35
4814.00,1.35
4813.00,1.36
4812.00,1.36
4811.00,1.36
4810.00,1.36
4809.00,1.36
4808.00,1.36
4807.00,1.36
4806.00,1.37
4805.00,1.37
4804.00,1.37
4803.00,1.37
4802.00,1.37
4801.00,1.37
4800.00,1.37
4799.00,1.37
4798.00,1.37
4797.00,1.38
4796.00,1.38
4795.00,1.38
4794.00,1.38
4793.00,1.38
4792.00,1.38
4791.00,1.38
4790.00,1.38
4789.00,1.38
4788.00,1.38
4787.00,1.38
4786.00,1.39
4785.00,1.39
4784.00,1.39
4783.00,1.39
4782.00,1.39
4781.00,1.39
4780.00,1.39
4779.00,1.39
4778.00,1.39
4777.00,1.39
4776.00,1.39
4775.00,1.39
4774.00,1.39
4773.00,1.39
4772.00,1.40
4771.00,1.40
4770.00,1.40
4769.00,1.40
4768.00,1.40
4767.00,1.40
4766.00,1.40
4765.00,1.41
4764.00,1.41
4763.00,1.41
4762.00,1.41
4761.00,1.41
4760.00,1.41
4759.00,1.41
4758.00,1.41
4757.00,1.41
4756.00,1.41
4755.00,1.41
4754.00,1.41
4753.00,1.41
4752.00,1.41
4751.00,1.41
4750.00,1.41
4749.00,1.41
4748.00,1.41
4747.00,1.41
4746.00,1.42
4745.00,1.42
4744.00,1.42
4743.00,1.42
4742.00,1.42
4741.00,1.42
4740.00,1.42
4739.00,1.43
4738.00,1.43
4737.00,1.43
4736.00,1.43
4735.00,1.43
4734.00,1.43
4733.00,1.44
4732.00,1.44
4731.00,1.44
4730.00,1.44
4729.00,1.44
4728.00,1.44
4727.00,1.44
4726.00,1.45
4725.00,1.45
4724.00,1.45
4723.00,1.45
4722.00,1.45
4721.00,1.46
4720.00,1.46
4719.00,1.46
4718.00,1.46
4717.00,1.46
4716.00,1.47
4715.00,1.47
4714.00,1.47
4713.00,1.47
4712.00,1.47
4711.00,1.48
4710.00,1.48
4709.00,1.48
4708.00,1.48
4707.00,1.48
4706.00,1.48
4705.00,1.48
4704.00,1.48
4703.00,1.48
4702.00,1.48
4701.00,1.49
4700.00,1.49
4699.00,1.49
4698.00,1.49
4697.00,1.49
4696.00,1.49
4695.00,1.49
4694.00,1.50
4693.00,1.50
4692.00,1.50
4691.00,1.50
4690.00,1.50
4689.00,1.50
4688.00,1.51
4687.00,1.51
4686.00,1.51
4685.00,1.51
4684.00,1.51
4683.00,1.51
4682.00,1.52
4681.00,1.52
4680.00,1.52
4679.00,1.52
4678.00,1.52
4677.00,1.52
4676.00,1.53
4675.00,1.53
4674.00,1.53
4673.00,1.53
4672.00,1.53
4671.00,1.54
4670.00,1.54
4669.00,1.54
4668.00,1.54
4667.00,1.54
4666.00,1.54
4665.00,1.54
4664.00,1.54
4663.00,1.54
4662.00,1.54
4661.00,1.54
4660.00,1.54
4659.00,1.54
4658.00,1.54
4657.00,1.54
4656.00,1.54
4655.00,1.54
4654.00,1.54
4653.00,1.55
4652.00,1.55
4651.00,1.55
4650.00,1.55
4649.00,1.55
4648.00,1.55
4647.00,1.55
4646.00,1.55
4645.00,1.55
4644.00,1.56
4643.00,1.56
4642.00,1.56
4641.00,1.56
4640.00,1.56
4639.00,1.56
4638.00,1.56
4637.00,1.56
4636.00,1.56
4635.00,1.57
4634.00,1.57
4633.00,1.57
4632.00,1.57
4631.00,1.57
4630.00,1.57
4629.00,1.57
4628.00,1.57
4627.00,1.57
4626.00,1.58
4625.00,1.58
4624.00,1.58
4623.00,1.58
4622.00,1.58
4621.00,1.58
4620.00,1.58
4619.00,1.59
4618.00,1.59
4617.00,1.59
4616.00,1.59
4615.00,1.59
4614.00,1.59
4613.00,1.59
4612.00,1.59
4611.00,1.60
4610.00,1.60
4609.00,1.60
4608.00,1.60
4607.00,1.60
4606.00,1.60
4605.00,1.60
4604.00,1.60
4603.00,1.60
4602.00,1.60
4601.00,1.60
4600.00,1.60
4599.00,1.60
4598.00,1.61
4597.00,1.61
4596.00,1.61
4595.00,1.61
4594.00,1.61
4593.00,1.61
4592.00,1.61
4591.00,1.61
4590.00,1.61
4589.00,1.61
4588.00,1.61
4587.00,1.61
4586.00,1.61
4585.00,1.61
4584.00,1.61
4583.00,1.61
4582.00,1.62
4581.00,1.62
4580.00,1.62
4579.00,1.62
4578.00,1.62
4577.00,1.62
4576.00,1.62
4575.00,1.62
4574.00,1.62
4573.00,1.62
4572.00,1.62
4571.00,1.62
4570.00,1.63
4569.00,1.63
4568.00,1.63
4567.00,1.63
4566.00,1.63
4565.00,1.63
4564.00,1.63
4563.00,1.63
4562.00,1.63
4561.00,1.63
4560.00,1.63
4559.00,1.64
4558.00,1.64
4557.00,1.64
4556.00,1.64
4555.00,1.64
4554.00,1.64
4553.00,1.64
4552.00,1.64
4551.00,1.64
4550.00,1.65
4549.00,1.65
4548.00,1.65
4547.00,1.65
4546.00,1.65
4545.00,1.65
4544.00,1.65
4543.00,1.65
4542.00,1.65
4541.00,1.65
4540.00,1.65
4539.00,1.65
4538.00,1.65
4537.00,1.65
4536.00,1.65
4535.00,1.65
4534.00,1.65
4533.00,1.65
4532.00,1.65
4531.00,1.66
4530.00,1.66
4529.00,1.66
4528.00,1.66
4527.00,1.66
4526.00,1.66
4525.00,1.66
4524.00,1.66
4523.00,1.66
4522.00,1.66
4521.00,1.66
4520.00,1.66
4519.00,1.66
4518.00,1.66
4517.00,1.66
4516.00,1.66
4515.00,1.66
4514.00,1.65
4513.00,1.65
4512.00,1.65
4511.00,1.65
4510.00,1.65
4509.00,1.65
4508.00,1.65
4507.00,1.65
4506.00,1.65
4505.00,1.65
4504.00,1.66
4503.00,1.66
4502.00,1.66
4501.00,1.66
4500.00,1.66
4499.00,1.66
4498.00,1.66
4497.00,1.66
4496.00,1.66
4495.00,1.66
4494.00,1.67
4493.00,1.67
4492.00,1.67
4491.00,1.67
4490.00,1.66
4489.00,1.66
4488.00,1.66
4487.00,1.66
4486.00,1.66
4485.00,1.66
4484.00,1.65
4483.00,1.65
4482.00,1.65
4481.00,1.65
4480.00,1.64
4479.00,1.64
4478.00,1.64
4477.00,1.64
4476.00,1.63
4475.00,1.63
4474.00,1.63
4473.00,1.63
4472.00,1.63
4471.00,1.63
4470.00,1.63
4469.00,1.63
4468.00,1.63
4467.00,1.63
4466.00,1.63
4465.00,1.63
4464.00,1.63
4463.00,1.63
4462.00,1.63
4461.00,1.63
4460.00,1.63
4459.00,1.63
4458.00,1.62
4457.00,1.62
4456.00,1.62
4455.00,1.62
4454.00,1.62
4453.00,1.62
4452.00,1.62
4451.00,1.62
4450.00,1.61
4449.00,1.61
4448.00,1.61
4447.00,1.61
4446.00,1.60
4445.00,1.60
4444.00,1.60
4443.00,1.59
4442.00,1.59
4441.00,1.59
4440.00,1.59
4439.00,1.58
4438.00,1.58
4437.00,1.58
4436.00,1.57
4435.00,1.57
4434.00,1.57
4433.00,1.57
4432.00,1.56
4431.00,1.56
4430.00,1.56
4429.00,1.56
4428.00,1.56
4427.00,1.56
4426.00,1.56
4425.00,1.56
4424.00,1.55
4423.00,1.55
4422.00,1.55
4421.00,1.55
4420.00,1.55
4419.00,1.55
4418.00,1.55
4417.00,1.55
4416.00,1.55
4415.00,1.55
4414.00,1.55
4413.00,1.56
4412.00,1.56
4411.00,1.56
4410.00,1.56
4409.00,1.56
4408.00,1.56
4407.00,1.56
4406.00,1.57
4405.00,1.57
4404.00,1.57
4403.00,1.57
4402.00,1.57
4401.00,1.57
4400.00,1.58
4399.00,1.58
4398.00,1.58
4397.00,1.58
4396.00,1.58
4395.00,1.58
4394.00,1.58
4393.00,1.58
4392.00,1.58
4391.00,1.58
4390.00,1.58
4389.00,1.58
4388.00,1.58
4387.00,1.58
4386.00,1.58
4385.00,1.58
4384.00,1.58
4383.00,1.58
4382.00,1.58
4381.00,1.58
4380.00,1.58
4379.00,1.58
4378.00,1.58
4377.00,1.59
4376.00,1.59
4375.00,1.59
4374.00,1.59
4373.00,1.59
4372.00,1.59
4371.00,1.59
4370.00,1.59
4369.00,1.60
4368.00,1.60
4367.00,1.60
4366.00,1.60
4365.00,1.60
4364.00,1.60
4363.00,1.60
4362.00,1.60
4361.00,1.61
4360.00,1.61
4359.00,1.61
4358.00,1.61
4357.00,1.61
4356.00,1.61
4355.00,1.61
4354.00,1.60
4353.00,1.60
4352.00,1.60
4351.00,1.60
4350.00,1.60
4349.00,1.60
4348.00,1.60
4347.00,1.60
4346.00,1.60
4345.00,1.59
4344.00,1.59
4343.00,1.59
4342.00,1.59
4341.00,1.59
4340.00,1.59
4339.00,1.59
4338.00,1.59
4337.00,1.59
4336.00,1.59
4335.00,1.59
4334.00,1.59
4333.00,1.59
4332.00,1.59
4331.00,1.59
4330.00,1.59
4329.00,1.60
4328.00,1.60
4327.00,1.60
4326.00,1.60
4325.00,1.60
4324.00,1.61
4323.00,1.61
4322.00,1.61
4321.00,1.61
4320.00,1.61
4319.00,1.61
4318.00,1.61
4317.00,1.62
4316.00,1.62
4315.00,1.62
4314.00,1.62
4313.00,1.62
4312.00,1.62
4311.00,1.63
4310.00,1.63
4309.00,1.63
4308.00,1.63
4307.00,1.63
4306.00,1.64
4305.00,1.64
4304.00,1.64
4303.00,1.64
4302.00,1.64
4301.00,1.65
4300.00,1.65
4299.00,1.65
4298.00,1.65
4297.00,1.65
4296.00,1.65
4295.00,1.65
4294.00,1.66
4293.00,1.66
4292.00,1.66
4291.00,1.66
4290.00,1.66
4289.00,1.66
4288.00,1.66
4287.00,1.66
4286.00,1.66
4285.00,1.66
4284.00,1.66
4283.00,1.66
4282.00,1.66
4281.00,1.66
4280.00,1.66
4279.00,1.66
4278.00,1.66
4277.00,1.66
4276.00,1.66
4275.00,1.66
4274.00,1.66
4273.00,1.66
4272.00,1.66
4271.00,1.67
4270.00,1.67
4269.00,1.67
4268.00,1.67
4267.00,1.67
4266.00,1.67
4265.00,1.67
4264.00,1.67
4263.00,1.67
4262.00,1.67
4261.00,1.67
4260.00,1.68
4259.00,1.68
4258.00,1.68
4257.00,1.68
4256.00,1.68
4255.00,1.68
4254.00,1.69
4253.00,1.69
4252.00,1.69
4251.00,1.69
4250.00,1.69
4249.00,1.69
4248.00,1.69
4247.00,1.69
4246.00,1.70
4245.00,1.70
4244.00,1.70
4243.00,1.70
4242.00,1.70
4241.00,1.70
4240.00,1.70
4239.00,1.70
4238.00,1.70
4237.00,1.69
4236.00,1.69
4235.00,1.69
4234.00,1.69
4233.00,1.69
4232.00,1.69
4231.00,1.69
4230.00,1.69
4229.00,1.69
4228.00,1.69
4227.00,1.69
4226.00,1.69
4225.00,1.69
4224.00,1.70
4223.00,1.70
4222.00,1.70
4221.00,1.70
4220.00,1.70
4219.00,1.70
4218.00,1.70
4217.00,1.70
4216.00,1.70
4215.00,1.70
4214.00,1.70
4213.00,1.70
4212.00,1.70
4211.00,1.70
4210.00,1.71
4209.00,1.71
4208.00,1.71
4207.00,1.71
4206.00,1.71
4205.00,1.71
4204.00,1.71
4203.00,1.71
4202.00,1.71
4201.00,1.71
4200.00,1.71
4199.00,1.71
4198.00,1.72
4197.00,1.72
4196.00,1.72
4195.00,1.72
4194.00,1.72
4193.00,1.73
4192.00,1.73
4191.00,1.73
4190.00,1.73
4189.00,1.73
4188.00,1.73
4187.00,1.74
4186.00,1.74
4185.00,1.74
4184.00,1.74
4183.00,1.74
4182.00,1.74
4181.00,1.74
4180.00,1.73
4179.00,1.73
4178.00,1.73
4177.00,1.73
4176.00,1.73
4175.00,1.73
4174.00,1.73
4173.00,1.73
4172.00,1.73
4171.00,1.73
4170.00,1.73
4169.00,1.73
4168.00,1.73
4167.00,1.73
4166.00,1.73
4165.00,1.73
4164.00,1.73
4163.00,1.73
4162.00,1.73
4161.00,1.73
4160.00,1.73
4159.00,1.73
4158.00,1.73
4157.00,1.74
4156.00,1.74
4155.00,1.74
4154.00,1.74
4153.00,1.74
4152.00,1.74
4151.00,1.74
4150.00,1.74
4149.00,1.74
4148.00,1.74
4147.00,1.74
4146.00,1.74
4145.00,1.74
4144.00,1.74
4143.00,1.74
4142.00,1.74
4141.00,1.74
4140.00,1.74
4139.00,1.74
4138.00,1.74
4137.00,1.74
4136.00,1.74
4135.00,1.75
4134.00,1.75
4133.00,1.75
4132.00,1.75
4131.00,1.75
4130.00,1.75
4129.00,1.75
4128.00,1.75
4127.00,1.75
4126.00,1.75
4125.00,1.75
4124.00,1.75
4123.00,1.75
4122.00,1.75
4121.00,1.75
4120.00,1.76
4119.00,1.76
4118.00,1.76
4117.00,1.76
4116.00,1.76
4115.00,1.76
4114.00,1.76
4113.00,1.77
4112.00,1.77
4111.00,1.77
4110.00,1.77
4109.00,1.77
4108.00,1.77
4107.00,1.77
4106.00,1.78
4105.00,1.78
4104.00,1.78
4103.00,1.78
4102.00,1.78
4101.00,1.78
4100.00,1.78
4099.00,1.78
4098.00,1.78
4097.00,1.78
4096.00,1.78
4095.00,1.78
4094.00,1.78
4093.00,1.78
4092.00,1.78
4091.00,1.77
4090.00,1.77
4089.00,1.77
4088.00,1.77
4087.00,1.78
4086.00,1.78
4085.00,1.78
4084.00,1.78
4083.00,1.78
4082.00,1.78
4081.00,1.78
4080.00,1.78
4079.00,1.78
4078.00,1.78
4077.00,1.78
4076.00,1.78
4075.00,1.78
4074.00,1.78
4073.00,1.78
4072.00,1.78
4071.00,1.78
4070.00,1.78
4069.00,1.78
4068.00,1.78
4067.00,1.78
4066.00,1.78
4065.00,1.78
4064.00,1.78
4063.00,1.78
4062.00,1.78
4061.00,1.78
4060.00,1.78
4059.00,1.78
4058.00,1.78
4057.00,1.78
4056.00,1.78
4055.00,1.78
4054.00,1.78
4053.00,1.78
4052.00,1.78
4051.00,1.78
4050.00,1.78
4049.00,1.78
4048.00,1.78
4047.00,1.78
4046.00,1.78
4045.00,1.78
4044.00,1.78
4043.00,1.78
4042.00,1.78
4041.00,1.79
4040.00,1.79
4039.00,1.79
4038.00,1.79
4037.00,1.79
4036.00,1.80
4035.00,1.80
4034.00,1.80
4033.00,1.81
4032.00,1.81
4031.00,1.81
4030.00,1.81
4029.00,1.82
4028.00,1.82
4027.00,1.82
4026.00,1.82
4025.00,1.82
4024.00,1.82
4023.00,1.83
4022.00,1.83
4021.00,1.83
4020.00,1.83
4019.00,1.83
4018.00,1.83
4017.00,1.84
4016.00,1.84
4015.00,1.84
4014.00,1.85
4013.00,1.85
4012.00,1.85
4011.00,1.86
4010.00,1.86
4009.00,1.87
4008.00,1.87
4007.00,1.87
4006.00,1.88
4005.00,1.88
4004.00,1.89
4003.00,1.89
4002.00,1.89
4001.00,1.90
4000.00,1.90
