创建为新数据集,样品 146 用户 Administrator 日期 星期六, 七月 21 2018
cm-1,%T
10000.00,1.21
9999.00,1.21
9998.00,1.21
9997.00,1.21
9996.00,1.21
9995.00,1.22
9994.00,1.22
9993.00,1.22
9992.00,1.22
9991.00,1.23
9990.00,1.23
9989.00,1.23
9988.00,1.23
9987.00,1.24
9986.00,1.24
9985.00,1.24
9984.00,1.24
9983.00,1.24
9982.00,1.24
9981.00,1.25
9980.00,1.25
9979.00,1.25
9978.00,1.24
9977.00,1.24
9976.00,1.24
9975.00,1.24
9974.00,1.24
9973.00,1.24
9972.00,1.24
9971.00,1.23
9970.00,1.23
9969.00,1.23
9968.00,1.23
9967.00,1.23
9966.00,1.23
9965.00,1.23
9964.00,1.23
9963.00,1.23
9962.00,1.23
9961.00,1.23
9960.00,1.23
9959.00,1.23
9958.00,1.23
9957.00,1.23
9956.00,1.24
9955.00,1.24
9954.00,1.24
9953.00,1.24
9952.00,1.24
9951.00,1.24
9950.00,1.24
9949.00,1.24
9948.00,1.24
9947.00,1.24
9946.00,1.24
9945.00,1.24
9944.00,1.24
9943.00,1.24
9942.00,1.24
9941.00,1.23
9940.00,1.23
9939.00,1.23
9938.00,1.23
9937.00,1.23
9936.00,1.22
9935.00,1.22
9934.00,1.22
9933.00,1.22
9932.00,1.22
9931.00,1.22
9930.00,1.22
9929.00,1.21
9928.00,1.21
9927.00,1.21
9926.00,1.21
9925.00,1.21
9924.00,1.21
9923.00,1.21
9922.00,1.21
9921.00,1.21
9920.00,1.21
9919.00,1.21
9918.00,1.21
9917.00,1.21
9916.00,1.21
9915.00,1.20
9914.00,1.20
9913.00,1.20
9912.00,1.20
9911.00,1.20
9910.00,1.20
9909.00,1.20
9908.00,1.20
9907.00,1.20
9906.00,1.20
9905.00,1.20
9904.00,1.20
9903.00,1.20
9902.00,1.20
9901.00,1.20
9900.00,1.21
9899.00,1.21
9898.00,1.21
9897.00,1.21
9896.00,1.21
9895.00,1.21
9894.00,1.22
9893.00,1.22
9892.00,1.22
9891.00,1.22
9890.00,1.22
9889.00,1.22
9888.00,1.22
9887.00,1.22
9886.00,1.22
9885.00,1.22
9884.00,1.22
9883.00,1.22
9882.00,1.22
9881.00,1.21
9880.00,1.21
9879.00,1.21
9878.00,1.21
9877.00,1.21
9876.00,1.21
9875.00,1.21
9874.00,1.21
9873.00,1.21
9872.00,1.21
9871.00,1.21
9870.00,1.21
9869.00,1.21
9868.00,1.21
9867.00,1.21
9866.00,1.21
9865.00,1.21
9864.00,1.21
9863.00,1.21
9862.00,1.21
9861.00,1.21
9860.00,1.21
9859.00,1.21
9858.00,1.21
9857.00,1.21
9856.00,1.21
9855.00,1.21
9854.00,1.21
9853.00,1.21
9852.00,1.21
9851.00,1.21
9850.00,1.21
9849.00,1.21
9848.00,1.21
9847.00,1.22
9846.00,1.22
9845.00,1.22
9844.00,1.22
9843.00,1.22
9842.00,1.22
9841.00,1.22
9840.00,1.22
9839.00,1.22
9838.00,1.22
9837.00,1.22
9836.00,1.22
9835.00,1.22
9834.00,1.22
9833.00,1.22
9832.00,1.21
9831.00,1.21
9830.00,1.21
9829.00,1.21
9828.00,1.21
9827.00,1.21
9826.00,1.21
9825.00,1.21
9824.00,1.21
9823.00,1.21
9822.00,1.21
9821.00,1.21
9820.00,1.22
9819.00,1.22
9818.00,1.22
9817.00,1.22
9816.00,1.22
9815.00,1.22
9814.00,1.22
9813.00,1.22
9812.00,1.22
9811.00,1.22
9810.00,1.22
9809.00,1.22
9808.00,1.22
9807.00,1.22
9806.00,1.22
9805.00,1.22
9804.00,1.22
9803.00,1.22
9802.00,1.23
9801.00,1.23
9800.00,1.23
9799.00,1.23
9798.00,1.23
9797.00,1.23
9796.00,1.24
9795.00,1.24
9794.00,1.24
9793.00,1.24
9792.00,1.24
9791.00,1.24
9790.00,1.24
9789.00,1.24
9788.00,1.24
9787.00,1.24
9786.00,1.24
9785.00,1.24
9784.00,1.24
9783.00,1.23
9782.00,1.23
9781.00,1.23
9780.00,1.22
9779.00,1.22
9778.00,1.22
9777.00,1.21
9776.00,1.21
9775.00,1.21
9774.00,1.21
9773.00,1.20
9772.00,1.20
9771.00,1.20
9770.00,1.20
9769.00,1.20
9768.00,1.20
9767.00,1.20
9766.00,1.20
9765.00,1.20
9764.00,1.21
9763.00,1.21
9762.00,1.21
9761.00,1.21
9760.00,1.21
9759.00,1.21
9758.00,1.21
9757.00,1.21
9756.00,1.21
9755.00,1.21
9754.00,1.21
9753.00,1.21
9752.00,1.21
9751.00,1.21
9750.00,1.21
9749.00,1.21
9748.00,1.21
9747.00,1.20
9746.00,1.20
9745.00,1.20
9744.00,1.20
9743.00,1.20
9742.00,1.20
9741.00,1.20
9740.00,1.20
9739.00,1.20
9738.00,1.20
9737.00,1.20
9736.00,1.20
9735.00,1.21
9734.00,1.21
9733.00,1.21
9732.00,1.21
9731.00,1.22
9730.00,1.22
9729.00,1.22
9728.00,1.22
9727.00,1.22
9726.00,1.22
9725.00,1.22
9724.00,1.22
9723.00,1.22
9722.00,1.22
9721.00,1.22
9720.00,1.22
9719.00,1.22
9718.00,1.22
9717.00,1.21
9716.00,1.21
9715.00,1.21
9714.00,1.21
9713.00,1.21
9712.00,1.21
9711.00,1.21
9710.00,1.21
9709.00,1.21
9708.00,1.21
9707.00,1.21
9706.00,1.21
9705.00,1.21
9704.00,1.22
9703.00,1.22
9702.00,1.22
9701.00,1.22
9700.00,1.22
9699.00,1.22
9698.00,1.22
9697.00,1.22
9696.00,1.22
9695.00,1.22
9694.00,1.22
9693.00,1.22
9692.00,1.22
9691.00,1.22
9690.00,1.22
9689.00,1.22
9688.00,1.21
9687.00,1.21
9686.00,1.21
9685.00,1.21
9684.00,1.21
9683.00,1.21
9682.00,1.21
9681.00,1.21
9680.00,1.20
9679.00,1.20
9678.00,1.20
9677.00,1.20
9676.00,1.20
9675.00,1.20
9674.00,1.20
9673.00,1.20
9672.00,1.20
9671.00,1.21
9670.00,1.21
9669.00,1.21
9668.00,1.21
9667.00,1.21
9666.00,1.21
9665.00,1.21
9664.00,1.21
9663.00,1.21
9662.00,1.21
9661.00,1.21
9660.00,1.21
9659.00,1.21
9658.00,1.21
9657.00,1.21
9656.00,1.21
9655.00,1.21
9654.00,1.21
9653.00,1.21
9652.00,1.21
9651.00,1.21
9650.00,1.21
9649.00,1.21
9648.00,1.21
9647.00,1.21
9646.00,1.21
9645.00,1.21
9644.00,1.21
9643.00,1.21
9642.00,1.21
9641.00,1.21
9640.00,1.21
9639.00,1.21
9638.00,1.21
9637.00,1.21
9636.00,1.21
9635.00,1.21
9634.00,1.21
9633.00,1.21
9632.00,1.21
9631.00,1.21
9630.00,1.20
9629.00,1.20
9628.00,1.20
9627.00,1.20
9626.00,1.20
9625.00,1.19
9624.00,1.19
9623.00,1.19
9622.00,1.19
9621.00,1.19
9620.00,1.19
9619.00,1.19
9618.00,1.19
9617.00,1.19
9616.00,1.19
9615.00,1.19
9614.00,1.19
9613.00,1.20
9612.00,1.20
9611.00,1.20
9610.00,1.20
9609.00,1.20
9608.00,1.21
9607.00,1.21
9606.00,1.21
9605.00,1.21
9604.00,1.21
9603.00,1.22
9602.00,1.22
9601.00,1.22
9600.00,1.22
9599.00,1.22
9598.00,1.22
9597.00,1.22
9596.00,1.22
9595.00,1.22
9594.00,1.22
9593.00,1.22
9592.00,1.22
9591.00,1.22
9590.00,1.21
9589.00,1.21
9588.00,1.21
9587.00,1.21
9586.00,1.20
9585.00,1.20
9584.00,1.20
9583.00,1.20
9582.00,1.19
9581.00,1.19
9580.00,1.19
9579.00,1.19
9578.00,1.19
9577.00,1.19
9576.00,1.19
9575.00,1.19
9574.00,1.19
9573.00,1.19
9572.00,1.19
9571.00,1.20
9570.00,1.20
9569.00,1.20
9568.00,1.20
9567.00,1.20
9566.00,1.20
9565.00,1.21
9564.00,1.21
9563.00,1.21
9562.00,1.21
9561.00,1.21
9560.00,1.21
9559.00,1.21
9558.00,1.21
9557.00,1.22
9556.00,1.22
9555.00,1.22
9554.00,1.22
9553.00,1.22
9552.00,1.22
9551.00,1.22
9550.00,1.22
9549.00,1.22
9548.00,1.22
9547.00,1.22
9546.00,1.21
9545.00,1.21
9544.00,1.21
9543.00,1.21
9542.00,1.21
9541.00,1.20
9540.00,1.20
9539.00,1.20
9538.00,1.20
9537.00,1.20
9536.00,1.19
9535.00,1.19
9534.00,1.19
9533.00,1.19
9532.00,1.19
9531.00,1.19
9530.00,1.19
9529.00,1.19
9528.00,1.19
9527.00,1.18
9526.00,1.18
9525.00,1.18
9524.00,1.18
9523.00,1.18
9522.00,1.18
9521.00,1.18
9520.00,1.18
9519.00,1.19
9518.00,1.19
9517.00,1.19
9516.00,1.19
9515.00,1.19
9514.00,1.19
9513.00,1.19
9512.00,1.19
9511.00,1.19
9510.00,1.20
9509.00,1.20
9508.00,1.20
9507.00,1.20
9506.00,1.20
9505.00,1.20
9504.00,1.20
9503.00,1.20
9502.00,1.20
9501.00,1.20
9500.00,1.21
9499.00,1.21
9498.00,1.21
9497.00,1.21
9496.00,1.21
9495.00,1.21
9494.00,1.21
9493.00,1.21
9492.00,1.21
9491.00,1.21
9490.00,1.21
9489.00,1.21
9488.00,1.21
9487.00,1.21
9486.00,1.21
9485.00,1.21
9484.00,1.21
9483.00,1.21
9482.00,1.21
9481.00,1.21
9480.00,1.21
9479.00,1.21
9478.00,1.21
9477.00,1.21
9476.00,1.21
9475.00,1.21
9474.00,1.21
9473.00,1.21
9472.00,1.21
9471.00,1.20
9470.00,1.20
9469.00,1.20
9468.00,1.20
9467.00,1.20
9466.00,1.20
9465.00,1.20
9464.00,1.20
9463.00,1.20
9462.00,1.19
9461.00,1.19
9460.00,1.19
9459.00,1.19
9458.00,1.19
9457.00,1.19
9456.00,1.19
9455.00,1.18
9454.00,1.18
9453.00,1.18
9452.00,1.18
9451.00,1.18
9450.00,1.18
9449.00,1.18
9448.00,1.18
9447.00,1.18
9446.00,1.18
9445.00,1.18
9444.00,1.19
9443.00,1.19
9442.00,1.19
9441.00,1.19
9440.00,1.19
9439.00,1.20
9438.00,1.20
9437.00,1.20
9436.00,1.20
9435.00,1.21
9434.00,1.21
9433.00,1.21
9432.00,1.21
9431.00,1.22
9430.00,1.22
9429.00,1.22
9428.00,1.22
9427.00,1.22
9426.00,1.22
9425.00,1.22
9424.00,1.22
9423.00,1.22
9422.00,1.22
9421.00,1.22
9420.00,1.22
9419.00,1.22
9418.00,1.22
9417.00,1.22
9416.00,1.22
9415.00,1.22
9414.00,1.22
9413.00,1.22
9412.00,1.22
9411.00,1.22
9410.00,1.22
9409.00,1.22
9408.00,1.23
9407.00,1.23
9406.00,1.23
9405.00,1.23
9404.00,1.24
9403.00,1.24
9402.00,1.24
9401.00,1.24
9400.00,1.24
9399.00,1.24
9398.00,1.24
9397.00,1.24
9396.00,1.24
9395.00,1.24
9394.00,1.24
9393.00,1.24
9392.00,1.24
9391.00,1.24
9390.00,1.23
9389.00,1.23
9388.00,1.23
9387.00,1.23
9386.00,1.22
9385.00,1.22
9384.00,1.22
9383.00,1.22
9382.00,1.21
9381.00,1.21
9380.00,1.21
9379.00,1.20
9378.00,1.20
9377.00,1.20
9376.00,1.20
9375.00,1.20
9374.00,1.20
9373.00,1.20
9372.00,1.20
9371.00,1.20
9370.00,1.20
9369.00,1.20
9368.00,1.20
9367.00,1.21
9366.00,1.21
9365.00,1.21
9364.00,1.21
9363.00,1.22
9362.00,1.22
9361.00,1.22
9360.00,1.22
9359.00,1.23
9358.00,1.23
9357.00,1.23
9356.00,1.23
9355.00,1.23
9354.00,1.23
9353.00,1.23
9352.00,1.23
9351.00,1.24
9350.00,1.24
9349.00,1.24
9348.00,1.24
9347.00,1.24
9346.00,1.24
9345.00,1.24
9344.00,1.24
9343.00,1.24
9342.00,1.24
9341.00,1.23
9340.00,1.23
9339.00,1.23
9338.00,1.23
9337.00,1.23
9336.00,1.23
9335.00,1.23
9334.00,1.23
9333.00,1.23
9332.00,1.23
9331.00,1.22
9330.00,1.22
9329.00,1.22
9328.00,1.22
9327.00,1.22
9326.00,1.22
9325.00,1.22
9324.00,1.22
9323.00,1.22
9322.00,1.22
9321.00,1.22
9320.00,1.22
9319.00,1.22
9318.00,1.22
9317.00,1.22
9316.00,1.22
9315.00,1.22
9314.00,1.22
9313.00,1.22
9312.00,1.22
9311.00,1.22
9310.00,1.22
9309.00,1.22
9308.00,1.22
9307.00,1.22
9306.00,1.22
9305.00,1.22
9304.00,1.22
9303.00,1.22
9302.00,1.22
9301.00,1.22
9300.00,1.22
9299.00,1.22
9298.00,1.22
9297.00,1.22
9296.00,1.22
9295.00,1.22
9294.00,1.22
9293.00,1.22
9292.00,1.22
9291.00,1.22
9290.00,1.22
9289.00,1.22
9288.00,1.22
9287.00,1.22
9286.00,1.22
9285.00,1.22
9284.00,1.22
9283.00,1.22
9282.00,1.22
9281.00,1.22
9280.00,1.22
9279.00,1.22
9278.00,1.22
9277.00,1.22
9276.00,1.22
9275.00,1.21
9274.00,1.21
9273.00,1.21
9272.00,1.21
9271.00,1.21
9270.00,1.21
9269.00,1.21
9268.00,1.21
9267.00,1.21
9266.00,1.21
9265.00,1.21
9264.00,1.21
9263.00,1.21
9262.00,1.21
9261.00,1.21
9260.00,1.20
9259.00,1.20
9258.00,1.20
9257.00,1.20
9256.00,1.20
9255.00,1.20
9254.00,1.20
9253.00,1.20
9252.00,1.20
9251.00,1.21
9250.00,1.21
9249.00,1.21
9248.00,1.21
9247.00,1.21
9246.00,1.21
9245.00,1.21
9244.00,1.21
9243.00,1.21
9242.00,1.21
9241.00,1.21
9240.00,1.21
9239.00,1.21
9238.00,1.21
9237.00,1.21
9236.00,1.21
9235.00,1.21
9234.00,1.20
9233.00,1.20
9232.00,1.20
9231.00,1.20
9230.00,1.20
9229.00,1.20
9228.00,1.20
9227.00,1.20
9226.00,1.20
9225.00,1.20
9224.00,1.20
9223.00,1.20
9222.00,1.20
9221.00,1.20
9220.00,1.21
9219.00,1.21
9218.00,1.21
9217.00,1.22
9216.00,1.22
9215.00,1.22
9214.00,1.23
9213.00,1.23
9212.00,1.23
9211.00,1.24
9210.00,1.24
9209.00,1.24
9208.00,1.24
9207.00,1.24
9206.00,1.24
9205.00,1.24
9204.00,1.24
9203.00,1.24
9202.00,1.24
9201.00,1.24
9200.00,1.24
9199.00,1.24
9198.00,1.24
9197.00,1.24
9196.00,1.24
9195.00,1.23
9194.00,1.23
9193.00,1.23
9192.00,1.23
9191.00,1.22
9190.00,1.22
9189.00,1.22
9188.00,1.22
9187.00,1.22
9186.00,1.22
9185.00,1.21
9184.00,1.21
9183.00,1.21
9182.00,1.21
9181.00,1.21
9180.00,1.21
9179.00,1.21
9178.00,1.21
9177.00,1.21
9176.00,1.20
9175.00,1.20
9174.00,1.20
9173.00,1.20
9172.00,1.20
9171.00,1.20
9170.00,1.20
9169.00,1.20
9168.00,1.20
9167.00,1.20
9166.00,1.20
9165.00,1.20
9164.00,1.20
9163.00,1.20
9162.00,1.20
9161.00,1.20
9160.00,1.20
9159.00,1.20
9158.00,1.20
9157.00,1.20
9156.00,1.20
9155.00,1.20
9154.00,1.20
9153.00,1.20
9152.00,1.20
9151.00,1.20
9150.00,1.20
9149.00,1.20
9148.00,1.20
9147.00,1.19
9146.00,1.19
9145.00,1.19
9144.00,1.19
9143.00,1.19
9142.00,1.19
9141.00,1.19
9140.00,1.19
9139.00,1.18
9138.00,1.18
9137.00,1.18
9136.00,1.18
9135.00,1.18
9134.00,1.18
9133.00,1.18
9132.00,1.18
9131.00,1.18
9130.00,1.19
9129.00,1.19
9128.00,1.19
9127.00,1.19
9126.00,1.19
9125.00,1.19
9124.00,1.19
9123.00,1.19
9122.00,1.19
9121.00,1.20
9120.00,1.20
9119.00,1.20
9118.00,1.20
9117.00,1.20
9116.00,1.20
9115.00,1.20
9114.00,1.20
9113.00,1.21
9112.00,1.21
9111.00,1.21
9110.00,1.21
9109.00,1.21
9108.00,1.21
9107.00,1.21
9106.00,1.21
9105.00,1.21
9104.00,1.21
9103.00,1.21
9102.00,1.21
9101.00,1.21
9100.00,1.21
9099.00,1.21
9098.00,1.21
9097.00,1.21
9096.00,1.21
9095.00,1.21
9094.00,1.21
9093.00,1.21
9092.00,1.21
9091.00,1.21
9090.00,1.21
9089.00,1.21
9088.00,1.21
9087.00,1.21
9086.00,1.21
9085.00,1.21
9084.00,1.21
9083.00,1.21
9082.00,1.21
9081.00,1.21
9080.00,1.21
9079.00,1.21
9078.00,1.21
9077.00,1.21
9076.00,1.21
9075.00,1.21
9074.00,1.20
9073.00,1.20
9072.00,1.20
9071.00,1.20
9070.00,1.20
9069.00,1.20
9068.00,1.19
9067.00,1.19
9066.00,1.19
9065.00,1.19
9064.00,1.19
9063.00,1.19
9062.00,1.19
9061.00,1.19
9060.00,1.19
9059.00,1.19
9058.00,1.19
9057.00,1.19
9056.00,1.20
9055.00,1.20
9054.00,1.20
9053.00,1.20
9052.00,1.20
9051.00,1.20
9050.00,1.20
9049.00,1.20
9048.00,1.21
9047.00,1.21
9046.00,1.21
9045.00,1.21
9044.00,1.21
9043.00,1.21
9042.00,1.21
9041.00,1.21
9040.00,1.21
9039.00,1.22
9038.00,1.22
9037.00,1.22
9036.00,1.22
9035.00,1.22
9034.00,1.22
9033.00,1.22
9032.00,1.22
9031.00,1.22
9030.00,1.22
9029.00,1.22
9028.00,1.22
9027.00,1.22
9026.00,1.22
9025.00,1.22
9024.00,1.22
9023.00,1.22
9022.00,1.22
9021.00,1.21
9020.00,1.21
9019.00,1.21
9018.00,1.21
9017.00,1.21
9016.00,1.21
9015.00,1.21
9014.00,1.21
9013.00,1.21
9012.00,1.21
9011.00,1.21
9010.00,1.21
9009.00,1.21
9008.00,1.22
9007.00,1.22
9006.00,1.22
9005.00,1.22
9004.00,1.22
9003.00,1.22
9002.00,1.22
9001.00,1.22
9000.00,1.22
8999.00,1.22
8998.00,1.21
8997.00,1.21
8996.00,1.21
8995.00,1.21
8994.00,1.21
8993.00,1.21
8992.00,1.21
8991.00,1.21
8990.00,1.21
8989.00,1.21
8988.00,1.21
8987.00,1.21
8986.00,1.21
8985.00,1.21
8984.00,1.21
8983.00,1.21
8982.00,1.21
8981.00,1.21
8980.00,1.21
8979.00,1.21
8978.00,1.21
8977.00,1.21
8976.00,1.21
8975.00,1.21
8974.00,1.21
8973.00,1.21
8972.00,1.21
8971.00,1.21
8970.00,1.21
8969.00,1.22
8968.00,1.22
8967.00,1.22
8966.00,1.22
8965.00,1.22
8964.00,1.22
8963.00,1.22
8962.00,1.23
8961.00,1.23
8960.00,1.23
8959.00,1.23
8958.00,1.23
8957.00,1.23
8956.00,1.23
8955.00,1.23
8954.00,1.23
8953.00,1.23
8952.00,1.22
8951.00,1.22
8950.00,1.22
8949.00,1.22
8948.00,1.22
8947.00,1.22
8946.00,1.22
8945.00,1.22
8944.00,1.22
8943.00,1.22
8942.00,1.22
8941.00,1.22
8940.00,1.22
8939.00,1.22
8938.00,1.22
8937.00,1.22
8936.00,1.22
8935.00,1.22
8934.00,1.22
8933.00,1.22
8932.00,1.22
8931.00,1.22
8930.00,1.22
8929.00,1.22
8928.00,1.22
8927.00,1.22
8926.00,1.22
8925.00,1.22
8924.00,1.22
8923.00,1.22
8922.00,1.22
8921.00,1.22
8920.00,1.22
8919.00,1.22
8918.00,1.22
8917.00,1.22
8916.00,1.22
8915.00,1.22
8914.00,1.22
8913.00,1.22
8912.00,1.22
8911.00,1.22
8910.00,1.22
8909.00,1.22
8908.00,1.22
8907.00,1.22
8906.00,1.22
8905.00,1.22
8904.00,1.22
8903.00,1.22
8902.00,1.22
8901.00,1.22
8900.00,1.22
8899.00,1.22
8898.00,1.22
8897.00,1.22
8896.00,1.22
8895.00,1.22
8894.00,1.22
8893.00,1.22
8892.00,1.22
8891.00,1.22
8890.00,1.22
8889.00,1.22
8888.00,1.22
8887.00,1.22
8886.00,1.22
8885.00,1.22
8884.00,1.22
8883.00,1.22
8882.00,1.22
8881.00,1.22
8880.00,1.22
8879.00,1.22
8878.00,1.22
8877.00,1.22
8876.00,1.22
8875.00,1.22
8874.00,1.22
8873.00,1.22
8872.00,1.22
8871.00,1.22
8870.00,1.23
8869.00,1.23
8868.00,1.23
8867.00,1.23
8866.00,1.23
8865.00,1.23
8864.00,1.23
8863.00,1.24
8862.00,1.24
8861.00,1.24
8860.00,1.24
8859.00,1.24
8858.00,1.24
8857.00,1.24
8856.00,1.23
8855.00,1.23
8854.00,1.23
8853.00,1.23
8852.00,1.23
8851.00,1.23
8850.00,1.23
8849.00,1.23
8848.00,1.22
8847.00,1.22
8846.00,1.22
8845.00,1.22
8844.00,1.22
8843.00,1.22
8842.00,1.22
8841.00,1.22
8840.00,1.22
8839.00,1.22
8838.00,1.22
8837.00,1.22
8836.00,1.22
8835.00,1.22
8834.00,1.22
8833.00,1.22
8832.00,1.22
8831.00,1.22
8830.00,1.22
8829.00,1.22
8828.00,1.22
8827.00,1.22
8826.00,1.22
8825.00,1.21
8824.00,1.21
8823.00,1.21
8822.00,1.21
8821.00,1.21
8820.00,1.21
8819.00,1.21
8818.00,1.21
8817.00,1.21
8816.00,1.21
8815.00,1.21
8814.00,1.21
8813.00,1.21
8812.00,1.21
8811.00,1.21
8810.00,1.21
8809.00,1.21
8808.00,1.21
8807.00,1.21
8806.00,1.21
8805.00,1.21
8804.00,1.21
8803.00,1.21
8802.00,1.21
8801.00,1.21
8800.00,1.21
8799.00,1.21
8798.00,1.21
8797.00,1.21
8796.00,1.21
8795.00,1.21
8794.00,1.21
8793.00,1.21
8792.00,1.21
8791.00,1.21
8790.00,1.21
8789.00,1.21
8788.00,1.20
8787.00,1.20
8786.00,1.20
8785.00,1.20
8784.00,1.20
8783.00,1.20
8782.00,1.20
8781.00,1.20
8780.00,1.20
8779.00,1.20
8778.00,1.20
8777.00,1.20
8776.00,1.20
8775.00,1.20
8774.00,1.20
8773.00,1.20
8772.00,1.20
8771.00,1.20
8770.00,1.20
8769.00,1.20
8768.00,1.20
8767.00,1.20
8766.00,1.20
8765.00,1.20
8764.00,1.20
8763.00,1.19
8762.00,1.19
8761.00,1.19
8760.00,1.19
8759.00,1.19
8758.00,1.19
8757.00,1.19
8756.00,1.18
8755.00,1.18
8754.00,1.18
8753.00,1.18
8752.00,1.18
8751.00,1.18
8750.00,1.17
8749.00,1.17
8748.00,1.17
8747.00,1.17
8746.00,1.17
8745.00,1.17
8744.00,1.17
8743.00,1.17
8742.00,1.17
8741.00,1.17
8740.00,1.17
8739.00,1.17
8738.00,1.17
8737.00,1.17
8736.00,1.17
8735.00,1.17
8734.00,1.17
8733.00,1.17
8732.00,1.17
8731.00,1.17
8730.00,1.17
8729.00,1.18
8728.00,1.18
8727.00,1.18
8726.00,1.18
8725.00,1.18
8724.00,1.18
8723.00,1.18
8722.00,1.18
8721.00,1.17
8720.00,1.17
8719.00,1.17
8718.00,1.17
8717.00,1.17
8716.00,1.17
8715.00,1.17
8714.00,1.17
8713.00,1.17
8712.00,1.16
8711.00,1.16
8710.00,1.16
8709.00,1.16
8708.00,1.16
8707.00,1.16
8706.00,1.16
8705.00,1.16
8704.00,1.16
8703.00,1.16
8702.00,1.16
8701.00,1.16
8700.00,1.16
8699.00,1.17
8698.00,1.17
8697.00,1.17
8696.00,1.17
8695.00,1.17
8694.00,1.17
8693.00,1.17
8692.00,1.17
8691.00,1.17
8690.00,1.17
8689.00,1.17
8688.00,1.17
8687.00,1.17
8686.00,1.17
8685.00,1.17
8684.00,1.17
8683.00,1.17
8682.00,1.17
8681.00,1.17
8680.00,1.17
8679.00,1.17
8678.00,1.17
8677.00,1.17
8676.00,1.17
8675.00,1.17
8674.00,1.17
8673.00,1.17
8672.00,1.17
8671.00,1.17
8670.00,1.17
8669.00,1.17
8668.00,1.17
8667.00,1.17
8666.00,1.17
8665.00,1.17
8664.00,1.17
8663.00,1.17
8662.00,1.17
8661.00,1.17
8660.00,1.17
8659.00,1.17
8658.00,1.17
8657.00,1.17
8656.00,1.17
8655.00,1.17
8654.00,1.17
8653.00,1.17
8652.00,1.17
8651.00,1.17
8650.00,1.17
8649.00,1.17
8648.00,1.17
8647.00,1.16
8646.00,1.16
8645.00,1.16
8644.00,1.16
8643.00,1.16
8642.00,1.16
8641.00,1.16
8640.00,1.16
8639.00,1.16
8638.00,1.16
8637.00,1.16
8636.00,1.16
8635.00,1.16
8634.00,1.16
8633.00,1.16
8632.00,1.16
8631.00,1.16
8630.00,1.16
8629.00,1.16
8628.00,1.16
8627.00,1.16
8626.00,1.16
8625.00,1.16
8624.00,1.16
8623.00,1.16
8622.00,1.16
8621.00,1.16
8620.00,1.16
8619.00,1.16
8618.00,1.16
8617.00,1.16
8616.00,1.16
8615.00,1.16
8614.00,1.16
8613.00,1.15
8612.00,1.15
8611.00,1.15
8610.00,1.15
8609.00,1.15
8608.00,1.15
8607.00,1.15
8606.00,1.15
8605.00,1.15
8604.00,1.15
8603.00,1.15
8602.00,1.15
8601.00,1.15
8600.00,1.15
8599.00,1.14
8598.00,1.14
8597.00,1.14
8596.00,1.14
8595.00,1.14
8594.00,1.14
8593.00,1.14
8592.00,1.14
8591.00,1.14
8590.00,1.14
8589.00,1.14
8588.00,1.14
8587.00,1.14
8586.00,1.14
8585.00,1.14
8584.00,1.14
8583.00,1.14
8582.00,1.14
8581.00,1.14
8580.00,1.14
8579.00,1.14
8578.00,1.14
8577.00,1.14
8576.00,1.14
8575.00,1.13
8574.00,1.13
8573.00,1.13
8572.00,1.13
8571.00,1.13
8570.00,1.13
8569.00,1.13
8568.00,1.13
8567.00,1.13
8566.00,1.13
8565.00,1.13
8564.00,1.13
8563.00,1.13
8562.00,1.13
8561.00,1.13
8560.00,1.13
8559.00,1.13
8558.00,1.13
8557.00,1.13
8556.00,1.13
8555.00,1.13
8554.00,1.13
8553.00,1.13
8552.00,1.13
8551.00,1.13
8550.00,1.13
8549.00,1.13
8548.00,1.12
8547.00,1.12
8546.00,1.12
8545.00,1.12
8544.00,1.12
8543.00,1.12
8542.00,1.12
8541.00,1.12
8540.00,1.12
8539.00,1.12
8538.00,1.12
8537.00,1.12
8536.00,1.12
8535.00,1.12
8534.00,1.12
8533.00,1.12
8532.00,1.12
8531.00,1.12
8530.00,1.12
8529.00,1.12
8528.00,1.12
8527.00,1.12
8526.00,1.12
8525.00,1.12
8524.00,1.12
8523.00,1.12
8522.00,1.12
8521.00,1.12
8520.00,1.12
8519.00,1.12
8518.00,1.12
8517.00,1.12
8516.00,1.12
8515.00,1.12
8514.00,1.12
8513.00,1.12
8512.00,1.12
8511.00,1.12
8510.00,1.12
8509.00,1.12
8508.00,1.12
8507.00,1.12
8506.00,1.12
8505.00,1.12
8504.00,1.12
8503.00,1.12
8502.00,1.12
8501.00,1.12
8500.00,1.12
8499.00,1.12
8498.00,1.12
8497.00,1.12
8496.00,1.12
8495.00,1.12
8494.00,1.11
8493.00,1.11
8492.00,1.11
8491.00,1.11
8490.00,1.10
8489.00,1.10
8488.00,1.10
8487.00,1.10
8486.00,1.10
8485.00,1.10
8484.00,1.09
8483.00,1.09
8482.00,1.09
8481.00,1.09
8480.00,1.09
8479.00,1.09
8478.00,1.09
8477.00,1.09
8476.00,1.09
8475.00,1.09
8474.00,1.09
8473.00,1.09
8472.00,1.09
8471.00,1.09
8470.00,1.09
8469.00,1.09
8468.00,1.09
8467.00,1.09
8466.00,1.09
8465.00,1.09
8464.00,1.09
8463.00,1.09
8462.00,1.09
8461.00,1.09
8460.00,1.09
8459.00,1.09
8458.00,1.09
8457.00,1.09
8456.00,1.09
8455.00,1.08
8454.00,1.08
8453.00,1.08
8452.00,1.08
8451.00,1.08
8450.00,1.08
8449.00,1.07
8448.00,1.07
8447.00,1.07
8446.00,1.07
8445.00,1.07
8444.00,1.07
8443.00,1.07
8442.00,1.07
8441.00,1.07
8440.00,1.07
8439.00,1.07
8438.00,1.07
8437.00,1.07
8436.00,1.07
8435.00,1.07
8434.00,1.07
8433.00,1.07
8432.00,1.07
8431.00,1.07
8430.00,1.07
8429.00,1.07
8428.00,1.08
8427.00,1.08
8426.00,1.08
8425.00,1.08
8424.00,1.08
8423.00,1.08
8422.00,1.08
8421.00,1.08
8420.00,1.08
8419.00,1.08
8418.00,1.08
8417.00,1.08
8416.00,1.08
8415.00,1.08
8414.00,1.08
8413.00,1.08
8412.00,1.08
8411.00,1.08
8410.00,1.08
8409.00,1.08
8408.00,1.08
8407.00,1.08
8406.00,1.08
8405.00,1.08
8404.00,1.08
8403.00,1.08
8402.00,1.08
8401.00,1.08
8400.00,1.08
8399.00,1.08
8398.00,1.08
8397.00,1.08
8396.00,1.08
8395.00,1.08
8394.00,1.08
8393.00,1.08
8392.00,1.08
8391.00,1.08
8390.00,1.08
8389.00,1.08
8388.00,1.08
8387.00,1.08
8386.00,1.08
8385.00,1.08
8384.00,1.08
8383.00,1.08
8382.00,1.08
8381.00,1.08
8380.00,1.08
8379.00,1.08
8378.00,1.08
8377.00,1.08
8376.00,1.08
8375.00,1.09
8374.00,1.09
8373.00,1.09
8372.00,1.09
8371.00,1.09
8370.00,1.09
8369.00,1.10
8368.00,1.10
8367.00,1.10
8366.00,1.10
8365.00,1.10
8364.00,1.10
8363.00,1.11
8362.00,1.11
8361.00,1.11
8360.00,1.11
8359.00,1.11
8358.00,1.11
8357.00,1.11
8356.00,1.11
8355.00,1.11
8354.00,1.11
8353.00,1.11
8352.00,1.11
8351.00,1.11
8350.00,1.11
8349.00,1.11
8348.00,1.11
8347.00,1.11
8346.00,1.11
8345.00,1.11
8344.00,1.11
8343.00,1.11
8342.00,1.11
8341.00,1.11
8340.00,1.11
8339.00,1.11
8338.00,1.11
8337.00,1.11
8336.00,1.11
8335.00,1.11
8334.00,1.11
8333.00,1.11
8332.00,1.11
8331.00,1.11
8330.00,1.11
8329.00,1.11
8328.00,1.11
8327.00,1.11
8326.00,1.11
8325.00,1.11
8324.00,1.11
8323.00,1.11
8322.00,1.11
8321.00,1.11
8320.00,1.11
8319.00,1.11
8318.00,1.11
8317.00,1.11
8316.00,1.11
8315.00,1.11
8314.00,1.10
8313.00,1.10
8312.00,1.10
8311.00,1.10
8310.00,1.10
8309.00,1.10
8308.00,1.10
8307.00,1.10
8306.00,1.10
8305.00,1.10
8304.00,1.10
8303.00,1.10
8302.00,1.11
8301.00,1.11
8300.00,1.11
8299.00,1.11
8298.00,1.11
8297.00,1.11
8296.00,1.11
8295.00,1.11
8294.00,1.12
8293.00,1.12
8292.00,1.12
8291.00,1.12
8290.00,1.12
8289.00,1.12
8288.00,1.12
8287.00,1.12
8286.00,1.12
8285.00,1.12
8284.00,1.12
8283.00,1.12
8282.00,1.12
8281.00,1.12
8280.00,1.12
8279.00,1.12
8278.00,1.12
8277.00,1.12
8276.00,1.12
8275.00,1.13
8274.00,1.13
8273.00,1.13
8272.00,1.13
8271.00,1.13
8270.00,1.13
8269.00,1.13
8268.00,1.13
8267.00,1.13
8266.00,1.13
8265.00,1.13
8264.00,1.13
8263.00,1.13
8262.00,1.13
8261.00,1.13
8260.00,1.13
8259.00,1.13
8258.00,1.13
8257.00,1.13
8256.00,1.13
8255.00,1.13
8254.00,1.13
8253.00,1.13
8252.00,1.13
8251.00,1.13
8250.00,1.13
8249.00,1.13
8248.00,1.13
8247.00,1.13
8246.00,1.12
8245.00,1.12
8244.00,1.12
8243.00,1.12
8242.00,1.13
8241.00,1.13
8240.00,1.13
8239.00,1.13
8238.00,1.13
8237.00,1.13
8236.00,1.13
8235.00,1.13
8234.00,1.13
8233.00,1.13
8232.00,1.13
8231.00,1.14
8230.00,1.14
8229.00,1.14
8228.00,1.14
8227.00,1.14
8226.00,1.14
8225.00,1.15
8224.00,1.15
8223.00,1.15
8222.00,1.15
8221.00,1.15
8220.00,1.15
8219.00,1.15
8218.00,1.15
8217.00,1.15
8216.00,1.15
8215.00,1.15
8214.00,1.15
8213.00,1.15
8212.00,1.15
8211.00,1.15
8210.00,1.15
8209.00,1.15
8208.00,1.15
8207.00,1.15
8206.00,1.15
8205.00,1.15
8204.00,1.15
8203.00,1.15
8202.00,1.15
8201.00,1.15
8200.00,1.15
8199.00,1.15
8198.00,1.15
8197.00,1.15
8196.00,1.15
8195.00,1.15
8194.00,1.16
8193.00,1.16
8192.00,1.16
8191.00,1.16
8190.00,1.16
8189.00,1.16
8188.00,1.16
8187.00,1.16
8186.00,1.16
8185.00,1.16
8184.00,1.16
8183.00,1.16
8182.00,1.16
8181.00,1.16
8180.00,1.16
8179.00,1.16
8178.00,1.16
8177.00,1.16
8176.00,1.16
8175.00,1.16
8174.00,1.17
8173.00,1.17
8172.00,1.17
8171.00,1.17
8170.00,1.17
8169.00,1.17
8168.00,1.17
8167.00,1.17
8166.00,1.18
8165.00,1.18
8164.00,1.18
8163.00,1.18
8162.00,1.18
8161.00,1.18
8160.00,1.18
8159.00,1.18
8158.00,1.18
8157.00,1.18
8156.00,1.18
8155.00,1.18
8154.00,1.17
8153.00,1.17
8152.00,1.17
8151.00,1.17
8150.00,1.17
8149.00,1.17
8148.00,1.17
8147.00,1.17
8146.00,1.17
8145.00,1.17
8144.00,1.16
8143.00,1.16
8142.00,1.16
8141.00,1.16
8140.00,1.16
8139.00,1.16
8138.00,1.16
8137.00,1.16
8136.00,1.16
8135.00,1.16
8134.00,1.16
8133.00,1.16
8132.00,1.16
8131.00,1.16
8130.00,1.16
8129.00,1.16
8128.00,1.17
8127.00,1.17
8126.00,1.17
8125.00,1.17
8124.00,1.17
8123.00,1.17
8122.00,1.17
8121.00,1.17
8120.00,1.17
8119.00,1.17
8118.00,1.17
8117.00,1.17
8116.00,1.17
8115.00,1.17
8114.00,1.17
8113.00,1.17
8112.00,1.18
8111.00,1.18
8110.00,1.18
8109.00,1.18
8108.00,1.18
8107.00,1.18
8106.00,1.18
8105.00,1.18
8104.00,1.18
8103.00,1.18
8102.00,1.18
8101.00,1.18
8100.00,1.18
8099.00,1.18
8098.00,1.18
8097.00,1.18
8096.00,1.18
8095.00,1.19
8094.00,1.19
8093.00,1.19
8092.00,1.19
8091.00,1.19
8090.00,1.19
8089.00,1.19
8088.00,1.19
8087.00,1.19
8086.00,1.19
8085.00,1.19
8084.00,1.19
8083.00,1.19
8082.00,1.19
8081.00,1.19
8080.00,1.19
8079.00,1.19
8078.00,1.19
8077.00,1.19
8076.00,1.19
8075.00,1.19
8074.00,1.19
8073.00,1.19
8072.00,1.19
8071.00,1.19
8070.00,1.19
8069.00,1.19
8068.00,1.19
8067.00,1.19
8066.00,1.19
8065.00,1.19
8064.00,1.19
8063.00,1.19
8062.00,1.19
8061.00,1.19
8060.00,1.19
8059.00,1.19
8058.00,1.19
8057.00,1.20
8056.00,1.20
8055.00,1.20
8054.00,1.20
8053.00,1.20
8052.00,1.20
8051.00,1.20
8050.00,1.20
8049.00,1.20
8048.00,1.20
8047.00,1.20
8046.00,1.20
8045.00,1.20
8044.00,1.20
8043.00,1.21
8042.00,1.21
8041.00,1.21
8040.00,1.21
8039.00,1.21
8038.00,1.21
8037.00,1.21
8036.00,1.21
8035.00,1.21
8034.00,1.21
8033.00,1.21
8032.00,1.21
8031.00,1.21
8030.00,1.21
8029.00,1.21
8028.00,1.21
8027.00,1.21
8026.00,1.21
8025.00,1.21
8024.00,1.21
8023.00,1.21
8022.00,1.21
8021.00,1.21
8020.00,1.21
8019.00,1.21
8018.00,1.21
8017.00,1.21
8016.00,1.21
8015.00,1.21
8014.00,1.21
8013.00,1.21
8012.00,1.21
8011.00,1.21
8010.00,1.21
8009.00,1.21
8008.00,1.21
8007.00,1.21
8006.00,1.21
8005.00,1.21
8004.00,1.21
8003.00,1.21
8002.00,1.20
8001.00,1.20
8000.00,1.20
7999.00,1.20
7998.00,1.20
7997.00,1.20
7996.00,1.20
7995.00,1.20
7994.00,1.20
7993.00,1.20
7992.00,1.20
7991.00,1.20
7990.00,1.20
7989.00,1.20
7988.00,1.20
7987.00,1.20
7986.00,1.20
7985.00,1.20
7984.00,1.20
7983.00,1.20
7982.00,1.20
7981.00,1.20
7980.00,1.20
7979.00,1.20
7978.00,1.20
7977.00,1.21
7976.00,1.21
7975.00,1.21
7974.00,1.21
7973.00,1.21
7972.00,1.21
7971.00,1.21
7970.00,1.21
7969.00,1.21
7968.00,1.21
7967.00,1.21
7966.00,1.21
7965.00,1.21
7964.00,1.21
7963.00,1.21
7962.00,1.21
7961.00,1.21
7960.00,1.21
7959.00,1.21
7958.00,1.21
7957.00,1.21
7956.00,1.22
7955.00,1.22
7954.00,1.22
7953.00,1.22
7952.00,1.22
7951.00,1.22
7950.00,1.22
7949.00,1.22
7948.00,1.22
7947.00,1.22
7946.00,1.22
7945.00,1.22
7944.00,1.22
7943.00,1.22
7942.00,1.22
7941.00,1.22
7940.00,1.22
7939.00,1.22
7938.00,1.22
7937.00,1.22
7936.00,1.22
7935.00,1.22
7934.00,1.22
7933.00,1.22
7932.00,1.22
7931.00,1.22
7930.00,1.22
7929.00,1.22
7928.00,1.22
7927.00,1.22
7926.00,1.22
7925.00,1.22
7924.00,1.22
7923.00,1.22
7922.00,1.22
7921.00,1.22
7920.00,1.22
7919.00,1.21
7918.00,1.21
7917.00,1.21
7916.00,1.21
7915.00,1.21
7914.00,1.21
7913.00,1.21
7912.00,1.21
7911.00,1.21
7910.00,1.21
7909.00,1.21
7908.00,1.21
7907.00,1.21
7906.00,1.21
7905.00,1.21
7904.00,1.21
7903.00,1.21
7902.00,1.21
7901.00,1.21
7900.00,1.21
7899.00,1.21
7898.00,1.21
7897.00,1.22
7896.00,1.22
7895.00,1.22
7894.00,1.22
7893.00,1.22
7892.00,1.22
7891.00,1.22
7890.00,1.22
7889.00,1.22
7888.00,1.22
7887.00,1.22
7886.00,1.22
7885.00,1.22
7884.00,1.22
7883.00,1.22
7882.00,1.22
7881.00,1.22
7880.00,1.22
7879.00,1.22
7878.00,1.22
7877.00,1.23
7876.00,1.23
7875.00,1.23
7874.00,1.23
7873.00,1.23
7872.00,1.23
7871.00,1.23
7870.00,1.23
7869.00,1.23
7868.00,1.23
7867.00,1.23
7866.00,1.23
7865.00,1.23
7864.00,1.24
7863.00,1.24
7862.00,1.24
7861.00,1.24
7860.00,1.24
7859.00,1.24
7858.00,1.24
7857.00,1.24
7856.00,1.24
7855.00,1.24
7854.00,1.24
7853.00,1.24
7852.00,1.24
7851.00,1.24
7850.00,1.24
7849.00,1.24
7848.00,1.24
7847.00,1.24
7846.00,1.24
7845.00,1.24
7844.00,1.24
7843.00,1.24
7842.00,1.24
7841.00,1.24
7840.00,1.23
7839.00,1.23
7838.00,1.23
7837.00,1.23
7836.00,1.23
7835.00,1.23
7834.00,1.23
7833.00,1.23
7832.00,1.23
7831.00,1.23
7830.00,1.23
7829.00,1.23
7828.00,1.23
7827.00,1.23
7826.00,1.24
7825.00,1.24
7824.00,1.24
7823.00,1.24
7822.00,1.24
7821.00,1.24
7820.00,1.24
7819.00,1.24
7818.00,1.24
7817.00,1.24
7816.00,1.24
7815.00,1.24
7814.00,1.24
7813.00,1.24
7812.00,1.24
7811.00,1.24
7810.00,1.24
7809.00,1.24
7808.00,1.24
7807.00,1.24
7806.00,1.24
7805.00,1.24
7804.00,1.24
7803.00,1.24
7802.00,1.24
7801.00,1.24
7800.00,1.24
7799.00,1.24
7798.00,1.24
7797.00,1.24
7796.00,1.24
7795.00,1.24
7794.00,1.24
7793.00,1.24
7792.00,1.24
7791.00,1.24
7790.00,1.24
7789.00,1.24
7788.00,1.24
7787.00,1.24
7786.00,1.24
7785.00,1.24
7784.00,1.24
7783.00,1.24
7782.00,1.24
7781.00,1.24
7780.00,1.24
7779.00,1.24
7778.00,1.24
7777.00,1.24
7776.00,1.24
7775.00,1.24
7774.00,1.24
7773.00,1.24
7772.00,1.24
7771.00,1.24
7770.00,1.24
7769.00,1.24
7768.00,1.24
7767.00,1.25
7766.00,1.25
7765.00,1.25
7764.00,1.25
7763.00,1.25
7762.00,1.25
7761.00,1.25
7760.00,1.24
7759.00,1.24
7758.00,1.24
7757.00,1.24
7756.00,1.24
7755.00,1.24
7754.00,1.24
7753.00,1.24
7752.00,1.24
7751.00,1.24
7750.00,1.24
7749.00,1.24
7748.00,1.24
7747.00,1.24
7746.00,1.24
7745.00,1.24
7744.00,1.24
7743.00,1.24
7742.00,1.24
7741.00,1.24
7740.00,1.24
7739.00,1.24
7738.00,1.24
7737.00,1.25
7736.00,1.25
7735.00,1.25
7734.00,1.25
7733.00,1.25
7732.00,1.25
7731.00,1.24
7730.00,1.24
7729.00,1.24
7728.00,1.24
7727.00,1.24
7726.00,1.24
7725.00,1.24
7724.00,1.24
7723.00,1.24
7722.00,1.24
7721.00,1.24
7720.00,1.24
7719.00,1.24
7718.00,1.24
7717.00,1.24
7716.00,1.24
7715.00,1.24
7714.00,1.24
7713.00,1.24
7712.00,1.24
7711.00,1.24
7710.00,1.24
7709.00,1.24
7708.00,1.24
7707.00,1.24
7706.00,1.24
7705.00,1.24
7704.00,1.24
7703.00,1.24
7702.00,1.25
7701.00,1.25
7700.00,1.25
7699.00,1.25
7698.00,1.25
7697.00,1.25
7696.00,1.25
7695.00,1.25
7694.00,1.25
7693.00,1.25
7692.00,1.25
7691.00,1.25
7690.00,1.25
7689.00,1.25
7688.00,1.24
7687.00,1.24
7686.00,1.24
7685.00,1.24
7684.00,1.24
7683.00,1.24
7682.00,1.24
7681.00,1.24
7680.00,1.24
7679.00,1.24
7678.00,1.24
7677.00,1.24
7676.00,1.24
7675.00,1.24
7674.00,1.24
7673.00,1.24
7672.00,1.24
7671.00,1.24
7670.00,1.24
7669.00,1.24
7668.00,1.24
7667.00,1.24
7666.00,1.24
7665.00,1.24
7664.00,1.24
7663.00,1.24
7662.00,1.24
7661.00,1.24
7660.00,1.24
7659.00,1.24
7658.00,1.24
7657.00,1.24
7656.00,1.24
7655.00,1.24
7654.00,1.24
7653.00,1.24
7652.00,1.24
7651.00,1.24
7650.00,1.24
7649.00,1.24
7648.00,1.24
7647.00,1.24
7646.00,1.24
7645.00,1.24
7644.00,1.24
7643.00,1.24
7642.00,1.24
7641.00,1.24
7640.00,1.24
7639.00,1.24
7638.00,1.24
7637.00,1.24
7636.00,1.24
7635.00,1.24
7634.00,1.24
7633.00,1.24
7632.00,1.24
7631.00,1.24
7630.00,1.24
7629.00,1.24
7628.00,1.24
7627.00,1.24
7626.00,1.24
7625.00,1.24
7624.00,1.24
7623.00,1.24
7622.00,1.24
7621.00,1.24
7620.00,1.24
7619.00,1.24
7618.00,1.24
7617.00,1.24
7616.00,1.24
7615.00,1.24
7614.00,1.24
7613.00,1.24
7612.00,1.24
7611.00,1.24
7610.00,1.24
7609.00,1.24
7608.00,1.25
7607.00,1.25
7606.00,1.25
7605.00,1.25
7604.00,1.25
7603.00,1.25
7602.00,1.25
7601.00,1.25
7600.00,1.24
7599.00,1.24
7598.00,1.24
7597.00,1.24
7596.00,1.24
7595.00,1.24
7594.00,1.24
7593.00,1.24
7592.00,1.24
7591.00,1.24
7590.00,1.24
7589.00,1.23
7588.00,1.23
7587.00,1.23
7586.00,1.23
7585.00,1.23
7584.00,1.23
7583.00,1.23
7582.00,1.23
7581.00,1.23
7580.00,1.23
7579.00,1.23
7578.00,1.24
7577.00,1.24
7576.00,1.24
7575.00,1.24
7574.00,1.24
7573.00,1.24
7572.00,1.24
7571.00,1.24
7570.00,1.24
7569.00,1.24
7568.00,1.24
7567.00,1.24
7566.00,1.24
7565.00,1.24
7564.00,1.24
7563.00,1.24
7562.00,1.24
7561.00,1.24
7560.00,1.24
7559.00,1.24
7558.00,1.24
7557.00,1.24
7556.00,1.24
7555.00,1.23
7554.00,1.23
7553.00,1.23
7552.00,1.23
7551.00,1.23
7550.00,1.23
7549.00,1.23
7548.00,1.23
7547.00,1.23
7546.00,1.23
7545.00,1.23
7544.00,1.23
7543.00,1.23
7542.00,1.23
7541.00,1.23
7540.00,1.23
7539.00,1.23
7538.00,1.23
7537.00,1.23
7536.00,1.23
7535.00,1.23
7534.00,1.23
7533.00,1.23
7532.00,1.23
7531.00,1.23
7530.00,1.23
7529.00,1.23
7528.00,1.23
7527.00,1.23
7526.00,1.23
7525.00,1.23
7524.00,1.23
7523.00,1.23
7522.00,1.23
7521.00,1.23
7520.00,1.23
7519.00,1.23
7518.00,1.23
7517.00,1.23
7516.00,1.23
7515.00,1.22
7514.00,1.22
7513.00,1.22
7512.00,1.22
7511.00,1.22
7510.00,1.22
7509.00,1.22
7508.00,1.22
7507.00,1.22
7506.00,1.22
7505.00,1.22
7504.00,1.22
7503.00,1.22
7502.00,1.22
7501.00,1.22
7500.00,1.22
7499.00,1.22
7498.00,1.22
7497.00,1.22
7496.00,1.22
7495.00,1.22
7494.00,1.22
7493.00,1.22
7492.00,1.22
7491.00,1.22
7490.00,1.21
7489.00,1.21
7488.00,1.21
7487.00,1.21
7486.00,1.21
7485.00,1.21
7484.00,1.21
7483.00,1.21
7482.00,1.20
7481.00,1.20
7480.00,1.20
7479.00,1.20
7478.00,1.20
7477.00,1.20
7476.00,1.20
7475.00,1.20
7474.00,1.20
7473.00,1.20
7472.00,1.20
7471.00,1.20
7470.00,1.20
7469.00,1.20
7468.00,1.20
7467.00,1.21
7466.00,1.21
7465.00,1.21
7464.00,1.21
7463.00,1.21
7462.00,1.21
7461.00,1.21
7460.00,1.21
7459.00,1.21
7458.00,1.21
7457.00,1.21
7456.00,1.21
7455.00,1.21
7454.00,1.21
7453.00,1.21
7452.00,1.21
7451.00,1.21
7450.00,1.21
7449.00,1.21
7448.00,1.20
7447.00,1.20
7446.00,1.20
7445.00,1.20
7444.00,1.20
7443.00,1.20
7442.00,1.20
7441.00,1.20
7440.00,1.20
7439.00,1.20
7438.00,1.20
7437.00,1.19
7436.00,1.19
7435.00,1.19
7434.00,1.19
7433.00,1.19
7432.00,1.19
7431.00,1.19
7430.00,1.19
7429.00,1.19
7428.00,1.19
7427.00,1.19
7426.00,1.19
7425.00,1.19
7424.00,1.19
7423.00,1.19
7422.00,1.19
7421.00,1.19
7420.00,1.19
7419.00,1.19
7418.00,1.19
7417.00,1.18
7416.00,1.18
7415.00,1.18
7414.00,1.18
7413.00,1.18
7412.00,1.18
7411.00,1.18
7410.00,1.18
7409.00,1.18
7408.00,1.18
7407.00,1.17
7406.00,1.17
7405.00,1.17
7404.00,1.17
7403.00,1.17
7402.00,1.17
7401.00,1.17
7400.00,1.17
7399.00,1.17
7398.00,1.17
7397.00,1.17
7396.00,1.16
7395.00,1.16
7394.00,1.16
7393.00,1.16
7392.00,1.16
7391.00,1.16
7390.00,1.16
7389.00,1.16
7388.00,1.16
7387.00,1.16
7386.00,1.15
7385.00,1.15
7384.00,1.15
7383.00,1.15
7382.00,1.15
7381.00,1.15
7380.00,1.15
7379.00,1.15
7378.00,1.14
7377.00,1.14
7376.00,1.14
7375.00,1.14
7374.00,1.14
7373.00,1.14
7372.00,1.14
7371.00,1.14
7370.00,1.14
7369.00,1.14
7368.00,1.14
7367.00,1.14
7366.00,1.14
7365.00,1.14
7364.00,1.14
7363.00,1.14
7362.00,1.14
7361.00,1.14
7360.00,1.14
7359.00,1.14
7358.00,1.14
7357.00,1.14
7356.00,1.14
7355.00,1.14
7354.00,1.14
7353.00,1.13
7352.00,1.13
7351.00,1.13
7350.00,1.13
7349.00,1.13
7348.00,1.13
7347.00,1.13
7346.00,1.13
7345.00,1.13
7344.00,1.13
7343.00,1.13
7342.00,1.13
7341.00,1.12
7340.00,1.12
7339.00,1.12
7338.00,1.12
7337.00,1.12
7336.00,1.12
7335.00,1.12
7334.00,1.12
7333.00,1.12
7332.00,1.12
7331.00,1.12
7330.00,1.12
7329.00,1.12
7328.00,1.12
7327.00,1.12
7326.00,1.12
7325.00,1.12
7324.00,1.12
7323.00,1.12
7322.00,1.12
7321.00,1.12
7320.00,1.12
7319.00,1.12
7318.00,1.12
7317.00,1.12
7316.00,1.12
7315.00,1.12
7314.00,1.12
7313.00,1.11
7312.00,1.11
7311.00,1.11
7310.00,1.11
7309.00,1.11
7308.00,1.11
7307.00,1.11
7306.00,1.11
7305.00,1.11
7304.00,1.10
7303.00,1.10
7302.00,1.10
7301.00,1.10
7300.00,1.10
7299.00,1.10
7298.00,1.10
7297.00,1.10
7296.00,1.10
7295.00,1.10
7294.00,1.10
7293.00,1.10
7292.00,1.09
7291.00,1.09
7290.00,1.09
7289.00,1.09
7288.00,1.09
7287.00,1.09
7286.00,1.09
7285.00,1.09
7284.00,1.09
7283.00,1.09
7282.00,1.09
7281.00,1.09
7280.00,1.09
7279.00,1.08
7278.00,1.08
7277.00,1.08
7276.00,1.08
7275.00,1.08
7274.00,1.08
7273.00,1.08
7272.00,1.08
7271.00,1.07
7270.00,1.07
7269.00,1.07
7268.00,1.07
7267.00,1.07
7266.00,1.07
7265.00,1.07
7264.00,1.07
7263.00,1.07
7262.00,1.07
7261.00,1.06
7260.00,1.06
7259.00,1.06
7258.00,1.06
7257.00,1.06
7256.00,1.06
7255.00,1.06
7254.00,1.05
7253.00,1.05
7252.00,1.05
7251.00,1.05
7250.00,1.05
7249.00,1.04
7248.00,1.04
7247.00,1.04
7246.00,1.04
7245.00,1.03
7244.00,1.03
7243.00,1.03
7242.00,1.02
7241.00,1.02
7240.00,1.02
7239.00,1.01
7238.00,1.01
7237.00,1.01
7236.00,1.00
7235.00,1.00
7234.00,1.00
7233.00,0.99
7232.00,0.99
7231.00,0.99
7230.00,0.98
7229.00,0.98
7228.00,0.98
7227.00,0.98
7226.00,0.97
7225.00,0.97
7224.00,0.97
7223.00,0.96
7222.00,0.96
7221.00,0.96
7220.00,0.96
7219.00,0.96
7218.00,0.95
7217.00,0.95
7216.00,0.95
7215.00,0.95
7214.00,0.94
7213.00,0.94
7212.00,0.94
7211.00,0.94
7210.00,0.93
7209.00,0.93
7208.00,0.93
7207.00,0.92
7206.00,0.92
7205.00,0.92
7204.00,0.91
7203.00,0.91
7202.00,0.91
7201.00,0.90
7200.00,0.90
7199.00,0.90
7198.00,0.89
7197.00,0.89
7196.00,0.89
7195.00,0.88
7194.00,0.88
7193.00,0.88
7192.00,0.87
7191.00,0.87
7190.00,0.87
7189.00,0.86
7188.00,0.86
7187.00,0.86
7186.00,0.85
7185.00,0.85
7184.00,0.85
7183.00,0.85
7182.00,0.84
7181.00,0.84
7180.00,0.84
7179.00,0.83
7178.00,0.83
7177.00,0.83
7176.00,0.82
7175.00,0.82
7174.00,0.82
7173.00,0.81
7172.00,0.81
7171.00,0.81
7170.00,0.81
7169.00,0.80
7168.00,0.80
7167.00,0.80
7166.00,0.80
7165.00,0.79
7164.00,0.79
7163.00,0.79
7162.00,0.79
7161.00,0.79
7160.00,0.78
7159.00,0.78
7158.00,0.78
7157.00,0.78
7156.00,0.78
7155.00,0.77
7154.00,0.77
7153.00,0.77
7152.00,0.77
7151.00,0.76
7150.00,0.76
7149.00,0.76
7148.00,0.76
7147.00,0.75
7146.00,0.75
7145.00,0.75
7144.00,0.75
7143.00,0.74
7142.00,0.74
7141.00,0.74
7140.00,0.74
7139.00,0.73
7138.00,0.73
7137.00,0.73
7136.00,0.73
7135.00,0.72
7134.00,0.72
7133.00,0.72
7132.00,0.72
7131.00,0.71
7130.00,0.71
7129.00,0.71
7128.00,0.71
7127.00,0.70
7126.00,0.70
7125.00,0.70
7124.00,0.70
7123.00,0.69
7122.00,0.69
7121.00,0.69
7120.00,0.68
7119.00,0.68
7118.00,0.68
7117.00,0.68
7116.00,0.67
7115.00,0.67
7114.00,0.67
7113.00,0.66
7112.00,0.66
7111.00,0.66
7110.00,0.66
7109.00,0.65
7108.00,0.65
7107.00,0.65
7106.00,0.65
7105.00,0.65
7104.00,0.64
7103.00,0.64
7102.00,0.64
7101.00,0.64
7100.00,0.63
7099.00,0.63
7098.00,0.63
7097.00,0.63
7096.00,0.63
7095.00,0.62
7094.00,0.62
7093.00,0.62
7092.00,0.62
7091.00,0.62
7090.00,0.62
7089.00,0.62
7088.00,0.62
7087.00,0.61
7086.00,0.61
7085.00,0.61
7084.00,0.61
7083.00,0.61
7082.00,0.61
7081.00,0.61
7080.00,0.61
7079.00,0.61
7078.00,0.61
7077.00,0.61
7076.00,0.60
7075.00,0.60
7074.00,0.60
7073.00,0.60
7072.00,0.60
7071.00,0.60
7070.00,0.59
7069.00,0.59
7068.00,0.59
7067.00,0.59
7066.00,0.59
7065.00,0.59
7064.00,0.59
7063.00,0.58
7062.00,0.58
7061.00,0.58
7060.00,0.58
7059.00,0.58
7058.00,0.58
7057.00,0.58
7056.00,0.58
7055.00,0.58
7054.00,0.58
7053.00,0.58
7052.00,0.58
7051.00,0.58
7050.00,0.58
7049.00,0.58
7048.00,0.58
7047.00,0.57
7046.00,0.57
7045.00,0.57
7044.00,0.57
7043.00,0.57
7042.00,0.57
7041.00,0.57
7040.00,0.57
7039.00,0.57
7038.00,0.57
7037.00,0.56
7036.00,0.56
7035.00,0.56
7034.00,0.56
7033.00,0.56
7032.00,0.56
7031.00,0.56
7030.00,0.56
7029.00,0.56
7028.00,0.56
7027.00,0.56
7026.00,0.56
7025.00,0.55
7024.00,0.55
7023.00,0.55
7022.00,0.55
7021.00,0.55
7020.00,0.55
7019.00,0.55
7018.00,0.55
7017.00,0.55
7016.00,0.54
7015.00,0.54
7014.00,0.54
7013.00,0.54
7012.00,0.54
7011.00,0.54
7010.00,0.54
7009.00,0.54
7008.00,0.54
7007.00,0.54
7006.00,0.54
7005.00,0.54
7004.00,0.54
7003.00,0.54
7002.00,0.54
7001.00,0.54
7000.00,0.54
6999.00,0.54
6998.00,0.54
6997.00,0.54
6996.00,0.54
6995.00,0.54
6994.00,0.54
6993.00,0.54
6992.00,0.54
6991.00,0.54
6990.00,0.53
6989.00,0.53
6988.00,0.53
6987.00,0.53
6986.00,0.53
6985.00,0.53
6984.00,0.53
6983.00,0.53
6982.00,0.53
6981.00,0.53
6980.00,0.53
6979.00,0.53
6978.00,0.53
6977.00,0.53
6976.00,0.53
6975.00,0.53
6974.00,0.53
6973.00,0.53
6972.00,0.53
6971.00,0.53
6970.00,0.53
6969.00,0.52
6968.00,0.52
6967.00,0.52
6966.00,0.52
6965.00,0.52
6964.00,0.52
6963.00,0.52
6962.00,0.52
6961.00,0.52
6960.00,0.52
6959.00,0.52
6958.00,0.52
6957.00,0.52
6956.00,0.52
6955.00,0.52
6954.00,0.52
6953.00,0.51
6952.00,0.51
6951.00,0.51
6950.00,0.51
6949.00,0.51
6948.00,0.51
6947.00,0.51
6946.00,0.51
6945.00,0.51
6944.00,0.51
6943.00,0.51
6942.00,0.51
6941.00,0.51
6940.00,0.51
6939.00,0.51
6938.00,0.51
6937.00,0.51
6936.00,0.51
6935.00,0.51
6934.00,0.51
6933.00,0.51
6932.00,0.51
6931.00,0.51
6930.00,0.51
6929.00,0.51
6928.00,0.51
6927.00,0.50
6926.00,0.50
6925.00,0.50
6924.00,0.50
6923.00,0.50
6922.00,0.50
6921.00,0.50
6920.00,0.50
6919.00,0.50
6918.00,0.50
6917.00,0.50
6916.00,0.50
6915.00,0.50
6914.00,0.50
6913.00,0.50
6912.00,0.50
6911.00,0.50
6910.00,0.50
6909.00,0.50
6908.00,0.50
6907.00,0.50
6906.00,0.50
6905.00,0.50
6904.00,0.50
6903.00,0.50
6902.00,0.50
6901.00,0.50
6900.00,0.50
6899.00,0.51
6898.00,0.51
6897.00,0.51
6896.00,0.51
6895.00,0.51
6894.00,0.51
6893.00,0.51
6892.00,0.51
6891.00,0.51
6890.00,0.51
6889.00,0.51
6888.00,0.51
6887.00,0.51
6886.00,0.51
6885.00,0.51
6884.00,0.51
6883.00,0.51
6882.00,0.51
6881.00,0.51
6880.00,0.51
6879.00,0.51
6878.00,0.51
6877.00,0.51
6876.00,0.51
6875.00,0.51
6874.00,0.51
6873.00,0.51
6872.00,0.51
6871.00,0.51
6870.00,0.50
6869.00,0.50
6868.00,0.50
6867.00,0.50
6866.00,0.50
6865.00,0.50
6864.00,0.50
6863.00,0.50
6862.00,0.50
6861.00,0.50
6860.00,0.50
6859.00,0.50
6858.00,0.50
6857.00,0.50
6856.00,0.50
6855.00,0.50
6854.00,0.50
6853.00,0.50
6852.00,0.50
6851.00,0.51
6850.00,0.51
6849.00,0.51
6848.00,0.51
6847.00,0.51
6846.00,0.51
6845.00,0.51
6844.00,0.51
6843.00,0.51
6842.00,0.51
6841.00,0.51
6840.00,0.51
6839.00,0.51
6838.00,0.51
6837.00,0.51
6836.00,0.51
6835.00,0.51
6834.00,0.51
6833.00,0.51
6832.00,0.51
6831.00,0.51
6830.00,0.51
6829.00,0.51
6828.00,0.50
6827.00,0.50
6826.00,0.51
6825.00,0.51
6824.00,0.51
6823.00,0.51
6822.00,0.51
6821.00,0.51
6820.00,0.51
6819.00,0.51
6818.00,0.51
6817.00,0.51
6816.00,0.51
6815.00,0.51
6814.00,0.51
6813.00,0.51
6812.00,0.51
6811.00,0.51
6810.00,0.51
6809.00,0.51
6808.00,0.51
6807.00,0.51
6806.00,0.51
6805.00,0.51
6804.00,0.51
6803.00,0.51
6802.00,0.51
6801.00,0.51
6800.00,0.51
6799.00,0.51
6798.00,0.51
6797.00,0.52
6796.00,0.52
6795.00,0.52
6794.00,0.52
6793.00,0.52
6792.00,0.52
6791.00,0.52
6790.00,0.52
6789.00,0.52
6788.00,0.52
6787.00,0.52
6786.00,0.52
6785.00,0.52
6784.00,0.52
6783.00,0.52
6782.00,0.52
6781.00,0.52
6780.00,0.52
6779.00,0.52
6778.00,0.52
6777.00,0.52
6776.00,0.52
6775.00,0.52
6774.00,0.52
6773.00,0.52
6772.00,0.52
6771.00,0.52
6770.00,0.52
6769.00,0.52
6768.00,0.52
6767.00,0.53
6766.00,0.53
6765.00,0.53
6764.00,0.53
6763.00,0.53
6762.00,0.53
6761.00,0.53
6760.00,0.53
6759.00,0.53
6758.00,0.53
6757.00,0.53
6756.00,0.53
6755.00,0.53
6754.00,0.54
6753.00,0.54
6752.00,0.54
6751.00,0.54
6750.00,0.54
6749.00,0.54
6748.00,0.54
6747.00,0.54
6746.00,0.54
6745.00,0.55
6744.00,0.55
6743.00,0.55
6742.00,0.55
6741.00,0.55
6740.00,0.55
6739.00,0.55
6738.00,0.55
6737.00,0.55
6736.00,0.55
6735.00,0.55
6734.00,0.55
6733.00,0.55
6732.00,0.55
6731.00,0.55
6730.00,0.55
6729.00,0.55
6728.00,0.55
6727.00,0.55
6726.00,0.55
6725.00,0.55
6724.00,0.55
6723.00,0.55
6722.00,0.55
6721.00,0.55
6720.00,0.55
6719.00,0.55
6718.00,0.55
6717.00,0.55
6716.00,0.56
6715.00,0.56
6714.00,0.56
6713.00,0.56
6712.00,0.56
6711.00,0.56
6710.00,0.56
6709.00,0.56
6708.00,0.56
6707.00,0.56
6706.00,0.56
6705.00,0.56
6704.00,0.56
6703.00,0.57
6702.00,0.57
6701.00,0.57
6700.00,0.57
6699.00,0.57
6698.00,0.57
6697.00,0.57
6696.00,0.57
6695.00,0.58
6694.00,0.58
6693.00,0.58
6692.00,0.58
6691.00,0.58
6690.00,0.58
6689.00,0.58
6688.00,0.58
6687.00,0.58
6686.00,0.58
6685.00,0.58
6684.00,0.58
6683.00,0.58
6682.00,0.58
6681.00,0.58
6680.00,0.58
6679.00,0.59
6678.00,0.59
6677.00,0.59
6676.00,0.59
6675.00,0.59
6674.00,0.59
6673.00,0.59
6672.00,0.59
6671.00,0.59
6670.00,0.59
6669.00,0.59
6668.00,0.59
6667.00,0.59
6666.00,0.60
6665.00,0.60
6664.00,0.60
6663.00,0.60
6662.00,0.60
6661.00,0.60
6660.00,0.60
6659.00,0.60
6658.00,0.60
6657.00,0.60
6656.00,0.60
6655.00,0.60
6654.00,0.61
6653.00,0.61
6652.00,0.61
6651.00,0.61
6650.00,0.61
6649.00,0.61
6648.00,0.61
6647.00,0.61
6646.00,0.61
6645.00,0.61
6644.00,0.61
6643.00,0.61
6642.00,0.61
6641.00,0.61
6640.00,0.62
6639.00,0.62
6638.00,0.62
6637.00,0.62
6636.00,0.62
6635.00,0.62
6634.00,0.62
6633.00,0.62
6632.00,0.63
6631.00,0.63
6630.00,0.63
6629.00,0.63
6628.00,0.63
6627.00,0.63
6626.00,0.63
6625.00,0.63
6624.00,0.63
6623.00,0.64
6622.00,0.64
6621.00,0.64
6620.00,0.64
6619.00,0.64
6618.00,0.64
6617.00,0.64
6616.00,0.64
6615.00,0.64
6614.00,0.64
6613.00,0.64
6612.00,0.64
6611.00,0.65
6610.00,0.65
6609.00,0.65
6608.00,0.65
6607.00,0.65
6606.00,0.65
6605.00,0.65
6604.00,0.65
6603.00,0.65
6602.00,0.65
6601.00,0.65
6600.00,0.66
6599.00,0.66
6598.00,0.66
6597.00,0.66
6596.00,0.66
6595.00,0.66
6594.00,0.66
6593.00,0.66
6592.00,0.66
6591.00,0.66
6590.00,0.66
6589.00,0.66
6588.00,0.66
6587.00,0.66
6586.00,0.66
6585.00,0.66
6584.00,0.67
6583.00,0.67
6582.00,0.67
6581.00,0.67
6580.00,0.67
6579.00,0.67
6578.00,0.67
6577.00,0.67
6576.00,0.68
6575.00,0.68
6574.00,0.68
6573.00,0.68
6572.00,0.68
6571.00,0.68
6570.00,0.68
6569.00,0.68
6568.00,0.68
6567.00,0.69
6566.00,0.69
6565.00,0.69
6564.00,0.69
6563.00,0.69
6562.00,0.69
6561.00,0.69
6560.00,0.69
6559.00,0.69
6558.00,0.69
6557.00,0.69
6556.00,0.69
6555.00,0.69
6554.00,0.70
6553.00,0.70
6552.00,0.70
6551.00,0.70
6550.00,0.70
6549.00,0.70
6548.00,0.70
6547.00,0.70
6546.00,0.70
6545.00,0.70
6544.00,0.70
6543.00,0.70
6542.00,0.70
6541.00,0.71
6540.00,0.71
6539.00,0.71
6538.00,0.71
6537.00,0.71
6536.00,0.71
6535.00,0.71
6534.00,0.71
6533.00,0.71
6532.00,0.71
6531.00,0.71
6530.00,0.71
6529.00,0.71
6528.00,0.71
6527.00,0.72
6526.00,0.72
6525.00,0.72
6524.00,0.72
6523.00,0.72
6522.00,0.72
6521.00,0.72
6520.00,0.72
6519.00,0.72
6518.00,0.72
6517.00,0.72
6516.00,0.73
6515.00,0.73
6514.00,0.73
6513.00,0.73
6512.00,0.73
6511.00,0.73
6510.00,0.73
6509.00,0.73
6508.00,0.73
6507.00,0.73
6506.00,0.73
6505.00,0.73
6504.00,0.73
6503.00,0.73
6502.00,0.73
6501.00,0.73
6500.00,0.73
6499.00,0.73
6498.00,0.73
6497.00,0.73
6496.00,0.73
6495.00,0.73
6494.00,0.73
6493.00,0.73
6492.00,0.73
6491.00,0.73
6490.00,0.73
6489.00,0.73
6488.00,0.73
6487.00,0.73
6486.00,0.73
6485.00,0.73
6484.00,0.74
6483.00,0.74
6482.00,0.74
6481.00,0.74
6480.00,0.74
6479.00,0.74
6478.00,0.74
6477.00,0.74
6476.00,0.74
6475.00,0.74
6474.00,0.74
6473.00,0.74
6472.00,0.75
6471.00,0.75
6470.00,0.75
6469.00,0.75
6468.00,0.75
6467.00,0.75
6466.00,0.75
6465.00,0.75
6464.00,0.75
6463.00,0.76
6462.00,0.76
6461.00,0.76
6460.00,0.76
6459.00,0.76
6458.00,0.76
6457.00,0.76
6456.00,0.76
6455.00,0.76
6454.00,0.76
6453.00,0.76
6452.00,0.76
6451.00,0.76
6450.00,0.76
6449.00,0.76
6448.00,0.76
6447.00,0.76
6446.00,0.76
6445.00,0.76
6444.00,0.76
6443.00,0.76
6442.00,0.76
6441.00,0.76
6440.00,0.76
6439.00,0.76
6438.00,0.77
6437.00,0.77
6436.00,0.77
6435.00,0.77
6434.00,0.77
6433.00,0.77
6432.00,0.77
6431.00,0.77
6430.00,0.77
6429.00,0.77
6428.00,0.77
6427.00,0.77
6426.00,0.77
6425.00,0.77
6424.00,0.78
6423.00,0.78
6422.00,0.78
6421.00,0.78
6420.00,0.78
6419.00,0.78
6418.00,0.78
6417.00,0.78
6416.00,0.78
6415.00,0.78
6414.00,0.78
6413.00,0.78
6412.00,0.78
6411.00,0.78
6410.00,0.78
6409.00,0.78
6408.00,0.78
6407.00,0.78
6406.00,0.78
6405.00,0.78
6404.00,0.78
6403.00,0.79
6402.00,0.79
6401.00,0.79
6400.00,0.79
6399.00,0.79
6398.00,0.79
6397.00,0.79
6396.00,0.80
6395.00,0.80
6394.00,0.80
6393.00,0.80
6392.00,0.80
6391.00,0.80
6390.00,0.80
6389.00,0.80
6388.00,0.80
6387.00,0.80
6386.00,0.80
6385.00,0.80
6384.00,0.80
6383.00,0.80
6382.00,0.80
6381.00,0.80
6380.00,0.81
6379.00,0.81
6378.00,0.81
6377.00,0.81
6376.00,0.81
6375.00,0.81
6374.00,0.81
6373.00,0.81
6372.00,0.81
6371.00,0.81
6370.00,0.81
6369.00,0.81
6368.00,0.81
6367.00,0.81
6366.00,0.81
6365.00,0.81
6364.00,0.81
6363.00,0.81
6362.00,0.82
6361.00,0.82
6360.00,0.82
6359.00,0.82
6358.00,0.82
6357.00,0.82
6356.00,0.82
6355.00,0.82
6354.00,0.82
6353.00,0.82
6352.00,0.82
6351.00,0.82
6350.00,0.82
6349.00,0.82
6348.00,0.82
6347.00,0.83
6346.00,0.83
6345.00,0.83
6344.00,0.83
6343.00,0.83
6342.00,0.83
6341.00,0.83
6340.00,0.83
6339.00,0.83
6338.00,0.83
6337.00,0.84
6336.00,0.84
6335.00,0.84
6334.00,0.84
6333.00,0.84
6332.00,0.84
6331.00,0.84
6330.00,0.84
6329.00,0.84
6328.00,0.84
6327.00,0.84
6326.00,0.85
6325.00,0.85
6324.00,0.85
6323.00,0.85
6322.00,0.85
6321.00,0.85
6320.00,0.85
6319.00,0.85
6318.00,0.85
6317.00,0.86
6316.00,0.86
6315.00,0.86
6314.00,0.86
6313.00,0.86
6312.00,0.86
6311.00,0.86
6310.00,0.86
6309.00,0.86
6308.00,0.86
6307.00,0.86
6306.00,0.86
6305.00,0.86
6304.00,0.86
6303.00,0.86
6302.00,0.86
6301.00,0.87
6300.00,0.87
6299.00,0.87
6298.00,0.87
6297.00,0.87
6296.00,0.87
6295.00,0.87
6294.00,0.87
6293.00,0.87
6292.00,0.87
6291.00,0.87
6290.00,0.88
6289.00,0.88
6288.00,0.88
6287.00,0.88
6286.00,0.88
6285.00,0.88
6284.00,0.88
6283.00,0.88
6282.00,0.88
6281.00,0.88
6280.00,0.88
6279.00,0.88
6278.00,0.89
6277.00,0.89
6276.00,0.89
6275.00,0.89
6274.00,0.89
6273.00,0.89
6272.00,0.89
6271.00,0.89
6270.00,0.89
6269.00,0.90
6268.00,0.90
6267.00,0.90
6266.00,0.90
6265.00,0.90
6264.00,0.90
6263.00,0.90
6262.00,0.91
6261.00,0.91
6260.00,0.91
6259.00,0.91
6258.00,0.91
6257.00,0.91
6256.00,0.91
6255.00,0.92
6254.00,0.92
6253.00,0.92
6252.00,0.92
6251.00,0.92
6250.00,0.92
6249.00,0.92
6248.00,0.93
6247.00,0.93
6246.00,0.93
6245.00,0.93
6244.00,0.93
6243.00,0.93
6242.00,0.93
6241.00,0.93
6240.00,0.93
6239.00,0.93
6238.00,0.93
6237.00,0.93
6236.00,0.93
6235.00,0.94
6234.00,0.94
6233.00,0.94
6232.00,0.94
6231.00,0.94
6230.00,0.94
6229.00,0.94
6228.00,0.94
6227.00,0.94
6226.00,0.94
6225.00,0.95
6224.00,0.95
6223.00,0.95
6222.00,0.95
6221.00,0.95
6220.00,0.95
6219.00,0.95
6218.00,0.95
6217.00,0.95
6216.00,0.96
6215.00,0.96
6214.00,0.96
6213.00,0.96
6212.00,0.96
6211.00,0.96
6210.00,0.96
6209.00,0.96
6208.00,0.96
6207.00,0.97
6206.00,0.97
6205.00,0.97
6204.00,0.97
6203.00,0.97
6202.00,0.97
6201.00,0.97
6200.00,0.98
6199.00,0.98
6198.00,0.98
6197.00,0.98
6196.00,0.98
6195.00,0.98
6194.00,0.98
6193.00,0.99
6192.00,0.99
6191.00,0.99
6190.00,0.99
6189.00,0.99
6188.00,0.99
6187.00,0.99
6186.00,0.99
6185.00,1.00
6184.00,1.00
6183.00,1.00
6182.00,1.00
6181.00,1.00
6180.00,1.00
6179.00,1.00
6178.00,1.00
6177.00,1.01
6176.00,1.01
6175.00,1.01
6174.00,1.01
6173.00,1.01
6172.00,1.01
6171.00,1.01
6170.00,1.02
6169.00,1.02
6168.00,1.02
6167.00,1.02
6166.00,1.02
6165.00,1.02
6164.00,1.02
6163.00,1.02
6162.00,1.02
6161.00,1.03
6160.00,1.03
6159.00,1.03
6158.00,1.03
6157.00,1.03
6156.00,1.03
6155.00,1.03
6154.00,1.03
6153.00,1.03
6152.00,1.03
6151.00,1.04
6150.00,1.04
6149.00,1.04
6148.00,1.04
6147.00,1.04
6146.00,1.04
6145.00,1.04
6144.00,1.04
6143.00,1.04
6142.00,1.04
6141.00,1.05
6140.00,1.05
6139.00,1.05
6138.00,1.05
6137.00,1.05
6136.00,1.05
6135.00,1.05
6134.00,1.05
6133.00,1.06
6132.00,1.06
6131.00,1.06
6130.00,1.06
6129.00,1.06
6128.00,1.06
6127.00,1.07
6126.00,1.07
6125.00,1.07
6124.00,1.07
6123.00,1.07
6122.00,1.07
6121.00,1.08
6120.00,1.08
6119.00,1.08
6118.00,1.08
6117.00,1.08
6116.00,1.08
6115.00,1.08
6114.00,1.08
6113.00,1.08
6112.00,1.08
6111.00,1.08
6110.00,1.09
6109.00,1.09
6108.00,1.09
6107.00,1.09
6106.00,1.09
6105.00,1.09
6104.00,1.09
6103.00,1.09
6102.00,1.10
6101.00,1.10
6100.00,1.10
6099.00,1.10
6098.00,1.10
6097.00,1.11
6096.00,1.11
6095.00,1.11
6094.00,1.11
6093.00,1.11
6092.00,1.12
6091.00,1.12
6090.00,1.12
6089.00,1.12
6088.00,1.12
6087.00,1.12
6086.00,1.13
6085.00,1.13
6084.00,1.13
6083.00,1.13
6082.00,1.13
6081.00,1.13
6080.00,1.13
6079.00,1.13
6078.00,1.13
6077.00,1.13
6076.00,1.13
6075.00,1.14
6074.00,1.14
6073.00,1.14
6072.00,1.14
6071.00,1.14
6070.00,1.14
6069.00,1.14
6068.00,1.14
6067.00,1.14
6066.00,1.14
6065.00,1.14
6064.00,1.14
6063.00,1.14
6062.00,1.14
6061.00,1.15
6060.00,1.15
6059.00,1.15
6058.00,1.15
6057.00,1.15
6056.00,1.15
6055.00,1.15
6054.00,1.15
6053.00,1.16
6052.00,1.16
6051.00,1.16
6050.00,1.16
6049.00,1.16
6048.00,1.16
6047.00,1.16
6046.00,1.16
6045.00,1.16
6044.00,1.16
6043.00,1.16
6042.00,1.17
6041.00,1.17
6040.00,1.17
6039.00,1.17
6038.00,1.17
6037.00,1.17
6036.00,1.17
6035.00,1.17
6034.00,1.17
6033.00,1.17
6032.00,1.17
6031.00,1.17
6030.00,1.17
6029.00,1.17
6028.00,1.17
6027.00,1.17
6026.00,1.17
6025.00,1.17
6024.00,1.17
6023.00,1.17
6022.00,1.17
6021.00,1.17
6020.00,1.17
6019.00,1.17
6018.00,1.17
6017.00,1.17
6016.00,1.17
6015.00,1.17
6014.00,1.17
6013.00,1.17
6012.00,1.17
6011.00,1.17
6010.00,1.17
6009.00,1.17
6008.00,1.17
6007.00,1.17
6006.00,1.17
6005.00,1.17
6004.00,1.17
6003.00,1.17
6002.00,1.17
6001.00,1.17
6000.00,1.17
5999.00,1.17
5998.00,1.17
5997.00,1.17
5996.00,1.17
5995.00,1.17
5994.00,1.16
5993.00,1.16
5992.00,1.16
5991.00,1.16
5990.00,1.16
5989.00,1.15
5988.00,1.15
5987.00,1.15
5986.00,1.15
5985.00,1.14
5984.00,1.14
5983.00,1.14
5982.00,1.14
5981.00,1.13
5980.00,1.13
5979.00,1.13
5978.00,1.12
5977.00,1.12
5976.00,1.11
5975.00,1.11
5974.00,1.11
5973.00,1.10
5972.00,1.10
5971.00,1.09
5970.00,1.09
5969.00,1.08
5968.00,1.08
5967.00,1.07
5966.00,1.07
5965.00,1.06
5964.00,1.05
5963.00,1.05
5962.00,1.04
5961.00,1.04
5960.00,1.03
5959.00,1.02
5958.00,1.02
5957.00,1.01
5956.00,1.00
5955.00,1.00
5954.00,0.99
5953.00,0.99
5952.00,0.98
5951.00,0.98
5950.00,0.97
5949.00,0.97
5948.00,0.96
5947.00,0.96
5946.00,0.95
5945.00,0.95
5944.00,0.95
5943.00,0.95
5942.00,0.94
5941.00,0.94
5940.00,0.94
5939.00,0.94
5938.00,0.94
5937.00,0.94
5936.00,0.93
5935.00,0.93
5934.00,0.93
5933.00,0.93
5932.00,0.93
5931.00,0.93
5930.00,0.93
5929.00,0.93
5928.00,0.93
5927.00,0.93
5926.00,0.92
5925.00,0.92
5924.00,0.92
5923.00,0.92
5922.00,0.92
5921.00,0.91
5920.00,0.91
5919.00,0.91
5918.00,0.91
5917.00,0.90
5916.00,0.90
5915.00,0.90
5914.00,0.90
5913.00,0.90
5912.00,0.89
5911.00,0.89
5910.00,0.89
5909.00,0.89
5908.00,0.89
5907.00,0.88
5906.00,0.88
5905.00,0.88
5904.00,0.88
5903.00,0.88
5902.00,0.88
5901.00,0.88
5900.00,0.88
5899.00,0.88
5898.00,0.88
5897.00,0.88
5896.00,0.88
5895.00,0.89
5894.00,0.89
5893.00,0.89
5892.00,0.89
5891.00,0.89
5890.00,0.89
5889.00,0.90
5888.00,0.90
5887.00,0.90
5886.00,0.90
5885.00,0.91
5884.00,0.91
5883.00,0.91
5882.00,0.91
5881.00,0.92
5880.00,0.92
5879.00,0.92
5878.00,0.92
5877.00,0.93
5876.00,0.93
5875.00,0.93
5874.00,0.93
5873.00,0.94
5872.00,0.94
5871.00,0.94
5870.00,0.94
5869.00,0.95
5868.00,0.95
5867.00,0.95
5866.00,0.95
5865.00,0.95
5864.00,0.96
5863.00,0.96
5862.00,0.96
5861.00,0.96
5860.00,0.96
5859.00,0.96
5858.00,0.96
5857.00,0.96
5856.00,0.97
5855.00,0.97
5854.00,0.97
5853.00,0.97
5852.00,0.97
5851.00,0.97
5850.00,0.97
5849.00,0.97
5848.00,0.97
5847.00,0.97
5846.00,0.97
5845.00,0.97
5844.00,0.97
5843.00,0.97
5842.00,0.97
5841.00,0.97
5840.00,0.97
5839.00,0.97
5838.00,0.97
5837.00,0.97
5836.00,0.97
5835.00,0.97
5834.00,0.97
5833.00,0.97
5832.00,0.97
5831.00,0.97
5830.00,0.97
5829.00,0.97
5828.00,0.97
5827.00,0.97
5826.00,0.97
5825.00,0.97
5824.00,0.97
5823.00,0.97
5822.00,0.97
5821.00,0.97
5820.00,0.97
5819.00,0.97
5818.00,0.97
5817.00,0.97
5816.00,0.97
5815.00,0.97
5814.00,0.97
5813.00,0.97
5812.00,0.97
5811.00,0.97
5810.00,0.97
5809.00,0.97
5808.00,0.97
5807.00,0.97
5806.00,0.97
5805.00,0.97
5804.00,0.97
5803.00,0.96
5802.00,0.96
5801.00,0.96
5800.00,0.96
5799.00,0.96
5798.00,0.96
5797.00,0.96
5796.00,0.95
5795.00,0.95
5794.00,0.95
5793.00,0.95
5792.00,0.95
5791.00,0.94
5790.00,0.94
5789.00,0.94
5788.00,0.94
5787.00,0.94
5786.00,0.93
5785.00,0.93
5784.00,0.93
5783.00,0.93
5782.00,0.93
5781.00,0.93
5780.00,0.93
5779.00,0.92
5778.00,0.92
5777.00,0.92
5776.00,0.92
5775.00,0.92
5774.00,0.92
5773.00,0.92
5772.00,0.92
5771.00,0.92
5770.00,0.92
5769.00,0.92
5768.00,0.92
5767.00,0.93
5766.00,0.93
5765.00,0.93
5764.00,0.93
5763.00,0.93
5762.00,0.93
5761.00,0.94
5760.00,0.94
5759.00,0.94
5758.00,0.94
5757.00,0.95
5756.00,0.95
5755.00,0.95
5754.00,0.95
5753.00,0.96
5752.00,0.96
5751.00,0.96
5750.00,0.97
5749.00,0.97
5748.00,0.97
5747.00,0.98
5746.00,0.98
5745.00,0.98
5744.00,0.99
5743.00,0.99
5742.00,0.99
5741.00,1.00
5740.00,1.00
5739.00,1.00
5738.00,1.00
5737.00,1.01
5736.00,1.01
5735.00,1.01
5734.00,1.01
5733.00,1.02
5732.00,1.02
5731.00,1.02
5730.00,1.02
5729.00,1.02
5728.00,1.02
5727.00,1.02
5726.00,1.02
5725.00,1.02
5724.00,1.02
5723.00,1.02
5722.00,1.03
5721.00,1.03
5720.00,1.03
5719.00,1.03
5718.00,1.03
5717.00,1.03
5716.00,1.03
5715.00,1.02
5714.00,1.02
5713.00,1.02
5712.00,1.02
5711.00,1.02
5710.00,1.02
5709.00,1.02
5708.00,1.02
5707.00,1.02
5706.00,1.02
5705.00,1.02
5704.00,1.02
5703.00,1.02
5702.00,1.01
5701.00,1.01
5700.00,1.01
5699.00,1.01
5698.00,1.01
5697.00,1.01
5696.00,1.01
5695.00,1.01
5694.00,1.00
5693.00,1.00
5692.00,1.00
5691.00,1.00
5690.00,1.00
5689.00,1.00
5688.00,1.00
5687.00,1.00
5686.00,0.99
5685.00,0.99
5684.00,0.99
5683.00,0.99
5682.00,0.99
5681.00,0.99
5680.00,0.99
5679.00,0.99
5678.00,0.99
5677.00,0.99
5676.00,0.99
5675.00,0.98
5674.00,0.98
5673.00,0.98
5672.00,0.98
5671.00,0.98
5670.00,0.98
5669.00,0.98
5668.00,0.98
5667.00,0.99
5666.00,0.99
5665.00,0.99
5664.00,0.99
5663.00,0.99
5662.00,0.99
5661.00,0.99
5660.00,0.99
5659.00,0.99
5658.00,0.99
5657.00,1.00
5656.00,1.00
5655.00,1.00
5654.00,1.00
5653.00,1.00
5652.00,1.00
5651.00,1.00
5650.00,1.00
5649.00,1.01
5648.00,1.01
5647.00,1.01
5646.00,1.01
5645.00,1.01
5644.00,1.02
5643.00,1.02
5642.00,1.02
5641.00,1.02
5640.00,1.02
5639.00,1.03
5638.00,1.03
5637.00,1.03
5636.00,1.03
5635.00,1.03
5634.00,1.04
5633.00,1.04
5632.00,1.04
5631.00,1.04
5630.00,1.04
5629.00,1.04
5628.00,1.05
5627.00,1.05
5626.00,1.05
5625.00,1.05
5624.00,1.05
5623.00,1.05
5622.00,1.05
5621.00,1.05
5620.00,1.06
5619.00,1.06
5618.00,1.06
5617.00,1.06
5616.00,1.06
5615.00,1.06
5614.00,1.06
5613.00,1.07
5612.00,1.07
5611.00,1.07
5610.00,1.07
5609.00,1.07
5608.00,1.07
5607.00,1.07
5606.00,1.08
5605.00,1.08
5604.00,1.08
5603.00,1.08
5602.00,1.08
5601.00,1.08
5600.00,1.08
5599.00,1.08
5598.00,1.09
5597.00,1.09
5596.00,1.09
5595.00,1.09
5594.00,1.09
5593.00,1.09
5592.00,1.10
5591.00,1.10
5590.00,1.10
5589.00,1.10
5588.00,1.10
5587.00,1.10
5586.00,1.11
5585.00,1.11
5584.00,1.11
5583.00,1.11
5582.00,1.11
5581.00,1.11
5580.00,1.11
5579.00,1.11
5578.00,1.12
5577.00,1.12
5576.00,1.12
5575.00,1.12
5574.00,1.12
5573.00,1.12
5572.00,1.12
5571.00,1.13
5570.00,1.13
5569.00,1.13
5568.00,1.13
5567.00,1.13
5566.00,1.13
5565.00,1.13
5564.00,1.14
5563.00,1.14
5562.00,1.14
5561.00,1.14
5560.00,1.14
5559.00,1.14
5558.00,1.14
5557.00,1.14
5556.00,1.14
5555.00,1.15
5554.00,1.15
5553.00,1.15
5552.00,1.15
5551.00,1.15
5550.00,1.15
5549.00,1.15
5548.00,1.15
5547.00,1.16
5546.00,1.16
5545.00,1.16
5544.00,1.16
5543.00,1.16
5542.00,1.16
5541.00,1.16
5540.00,1.16
5539.00,1.16
5538.00,1.17
5537.00,1.17
5536.00,1.17
5535.00,1.17
5534.00,1.17
5533.00,1.17
5532.00,1.17
5531.00,1.17
5530.00,1.17
5529.00,1.17
5528.00,1.17
5527.00,1.18
5526.00,1.18
5525.00,1.18
5524.00,1.18
5523.00,1.18
5522.00,1.18
5521.00,1.18
5520.00,1.18
5519.00,1.18
5518.00,1.18
5517.00,1.18
5516.00,1.18
5515.00,1.18
5514.00,1.18
5513.00,1.18
5512.00,1.18
5511.00,1.18
5510.00,1.18
5509.00,1.18
5508.00,1.18
5507.00,1.18
5506.00,1.18
5505.00,1.18
5504.00,1.19
5503.00,1.19
5502.00,1.19
5501.00,1.19
5500.00,1.19
5499.00,1.19
5498.00,1.19
5497.00,1.19
5496.00,1.19
5495.00,1.19
5494.00,1.19
5493.00,1.20
5492.00,1.20
5491.00,1.20
5490.00,1.20
5489.00,1.20
5488.00,1.20
5487.00,1.20
5486.00,1.20
5485.00,1.20
5484.00,1.21
5483.00,1.21
5482.00,1.21
5481.00,1.21
5480.00,1.21
5479.00,1.21
5478.00,1.21
5477.00,1.21
5476.00,1.21
5475.00,1.21
5474.00,1.21
5473.00,1.22
5472.00,1.22
5471.00,1.22
5470.00,1.22
5469.00,1.22
5468.00,1.22
5467.00,1.22
5466.00,1.22
5465.00,1.22
5464.00,1.22
5463.00,1.22
5462.00,1.22
5461.00,1.23
5460.00,1.23
5459.00,1.23
5458.00,1.23
5457.00,1.23
5456.00,1.23
5455.00,1.23
5454.00,1.23
5453.00,1.23
5452.00,1.23
5451.00,1.23
5450.00,1.24
5449.00,1.24
5448.00,1.24
5447.00,1.24
5446.00,1.24
5445.00,1.24
5444.00,1.24
5443.00,1.24
5442.00,1.24
5441.00,1.24
5440.00,1.24
5439.00,1.24
5438.00,1.24
5437.00,1.24
5436.00,1.24
5435.00,1.24
5434.00,1.24
5433.00,1.24
5432.00,1.24
5431.00,1.24
5430.00,1.25
5429.00,1.25
5428.00,1.25
5427.00,1.25
5426.00,1.25
5425.00,1.25
5424.00,1.25
5423.00,1.25
5422.00,1.25
5421.00,1.25
5420.00,1.25
5419.00,1.24
5418.00,1.24
5417.00,1.24
5416.00,1.24
5415.00,1.24
5414.00,1.24
5413.00,1.24
5412.00,1.24
5411.00,1.24
5410.00,1.24
5409.00,1.24
5408.00,1.24
5407.00,1.24
5406.00,1.24
5405.00,1.24
5404.00,1.24
5403.00,1.24
5402.00,1.24
5401.00,1.24
5400.00,1.24
5399.00,1.24
5398.00,1.24
5397.00,1.24
5396.00,1.24
5395.00,1.24
5394.00,1.23
5393.00,1.23
5392.00,1.23
5391.00,1.23
5390.00,1.23
5389.00,1.23
5388.00,1.22
5387.00,1.22
5386.00,1.22
5385.00,1.22
5384.00,1.21
5383.00,1.21
5382.00,1.21
5381.00,1.21
5380.00,1.20
5379.00,1.20
5378.00,1.20
5377.00,1.19
5376.00,1.19
5375.00,1.19
5374.00,1.18
5373.00,1.18
5372.00,1.18
5371.00,1.17
5370.00,1.17
5369.00,1.16
5368.00,1.16
5367.00,1.15
5366.00,1.15
5365.00,1.14
5364.00,1.14
5363.00,1.13
5362.00,1.13
5361.00,1.12
5360.00,1.12
5359.00,1.11
5358.00,1.10
5357.00,1.10
5356.00,1.09
5355.00,1.08
5354.00,1.07
5353.00,1.07
5352.00,1.06
5351.00,1.05
5350.00,1.04
5349.00,1.03
5348.00,1.03
5347.00,1.02
5346.00,1.01
5345.00,1.00
5344.00,0.99
5343.00,0.98
5342.00,0.97
5341.00,0.97
5340.00,0.96
5339.00,0.95
5338.00,0.94
5337.00,0.93
5336.00,0.92
5335.00,0.91
5334.00,0.90
5333.00,0.89
5332.00,0.88
5331.00,0.87
5330.00,0.86
5329.00,0.85
5328.00,0.84
5327.00,0.83
5326.00,0.83
5325.00,0.82
5324.00,0.81
5323.00,0.80
5322.00,0.79
5321.00,0.78
5320.00,0.77
5319.00,0.76
5318.00,0.75
5317.00,0.75
5316.00,0.74
5315.00,0.73
5314.00,0.72
5313.00,0.72
5312.00,0.71
5311.00,0.70
5310.00,0.69
5309.00,0.69
5308.00,0.68
5307.00,0.68
5306.00,0.67
5305.00,0.66
5304.00,0.66
5303.00,0.65
5302.00,0.65
5301.00,0.65
5300.00,0.64
5299.00,0.64
5298.00,0.63
5297.00,0.63
5296.00,0.62
5295.00,0.62
5294.00,0.62
5293.00,0.61
5292.00,0.61
5291.00,0.61
5290.00,0.61
5289.00,0.60
5288.00,0.60
5287.00,0.60
5286.00,0.60
5285.00,0.60
5284.00,0.60
5283.00,0.60
5282.00,0.59
5281.00,0.59
5280.00,0.59
5279.00,0.59
5278.00,0.59
5277.00,0.59
5276.00,0.59
5275.00,0.59
5274.00,0.59
5273.00,0.59
5272.00,0.59
5271.00,0.59
5270.00,0.59
5269.00,0.59
5268.00,0.59
5267.00,0.59
5266.00,0.59
5265.00,0.58
5264.00,0.58
5263.00,0.58
5262.00,0.58
5261.00,0.58
5260.00,0.58
5259.00,0.58
5258.00,0.58
5257.00,0.58
5256.00,0.58
5255.00,0.58
5254.00,0.58
5253.00,0.58
5252.00,0.58
5251.00,0.58
5250.00,0.58
5249.00,0.58
5248.00,0.58
5247.00,0.58
5246.00,0.59
5245.00,0.59
5244.00,0.59
5243.00,0.59
5242.00,0.59
5241.00,0.59
5240.00,0.59
5239.00,0.59
5238.00,0.59
5237.00,0.59
5236.00,0.59
5235.00,0.59
5234.00,0.59
5233.00,0.59
5232.00,0.59
5231.00,0.59
5230.00,0.59
5229.00,0.59
5228.00,0.59
5227.00,0.59
5226.00,0.59
5225.00,0.59
5224.00,0.59
5223.00,0.58
5222.00,0.58
5221.00,0.58
5220.00,0.58
5219.00,0.58
5218.00,0.58
5217.00,0.58
5216.00,0.58
5215.00,0.58
5214.00,0.58
5213.00,0.58
5212.00,0.58
5211.00,0.58
5210.00,0.58
5209.00,0.58
5208.00,0.58
5207.00,0.58
5206.00,0.58
5205.00,0.58
5204.00,0.58
5203.00,0.59
5202.00,0.59
5201.00,0.59
5200.00,0.59
5199.00,0.59
5198.00,0.59
5197.00,0.59
5196.00,0.59
5195.00,0.59
5194.00,0.59
5193.00,0.59
5192.00,0.59
5191.00,0.59
5190.00,0.59
5189.00,0.59
5188.00,0.60
5187.00,0.60
5186.00,0.60
5185.00,0.60
5184.00,0.60
5183.00,0.60
5182.00,0.60
5181.00,0.60
5180.00,0.60
5179.00,0.60
5178.00,0.60
5177.00,0.60
5176.00,0.60
5175.00,0.60
5174.00,0.60
5173.00,0.60
5172.00,0.60
5171.00,0.60
5170.00,0.60
5169.00,0.60
5168.00,0.60
5167.00,0.60
5166.00,0.60
5165.00,0.60
5164.00,0.60
5163.00,0.60
5162.00,0.60
5161.00,0.60
5160.00,0.60
5159.00,0.60
5158.00,0.60
5157.00,0.60
5156.00,0.60
5155.00,0.60
5154.00,0.60
5153.00,0.60
5152.00,0.60
5151.00,0.60
5150.00,0.61
5149.00,0.61
5148.00,0.61
5147.00,0.61
5146.00,0.61
5145.00,0.61
5144.00,0.61
5143.00,0.61
5142.00,0.61
5141.00,0.61
5140.00,0.61
5139.00,0.61
5138.00,0.62
5137.00,0.62
5136.00,0.62
5135.00,0.62
5134.00,0.62
5133.00,0.62
5132.00,0.62
5131.00,0.62
5130.00,0.62
5129.00,0.62
5128.00,0.62
5127.00,0.62
5126.00,0.62
5125.00,0.62
5124.00,0.62
5123.00,0.62
5122.00,0.62
5121.00,0.62
5120.00,0.62
5119.00,0.62
5118.00,0.62
5117.00,0.62
5116.00,0.62
5115.00,0.62
5114.00,0.62
5113.00,0.62
5112.00,0.62
5111.00,0.62
5110.00,0.62
5109.00,0.62
5108.00,0.62
5107.00,0.62
5106.00,0.62
5105.00,0.62
5104.00,0.62
5103.00,0.63
5102.00,0.63
5101.00,0.63
5100.00,0.63
5099.00,0.63
5098.00,0.63
5097.00,0.63
5096.00,0.63
5095.00,0.63
5094.00,0.63
5093.00,0.63
5092.00,0.63
5091.00,0.63
5090.00,0.64
5089.00,0.64
5088.00,0.64
5087.00,0.64
5086.00,0.64
5085.00,0.64
5084.00,0.64
5083.00,0.64
5082.00,0.64
5081.00,0.64
5080.00,0.64
5079.00,0.64
5078.00,0.64
5077.00,0.64
5076.00,0.64
5075.00,0.65
5074.00,0.65
5073.00,0.65
5072.00,0.65
5071.00,0.65
5070.00,0.65
5069.00,0.65
5068.00,0.65
5067.00,0.65
5066.00,0.65
5065.00,0.65
5064.00,0.65
5063.00,0.65
5062.00,0.65
5061.00,0.65
5060.00,0.65
5059.00,0.65
5058.00,0.65
5057.00,0.65
5056.00,0.65
5055.00,0.66
5054.00,0.66
5053.00,0.66
5052.00,0.66
5051.00,0.66
5050.00,0.66
5049.00,0.66
5048.00,0.66
5047.00,0.66
5046.00,0.66
5045.00,0.66
5044.00,0.66
5043.00,0.66
5042.00,0.66
5041.00,0.66
5040.00,0.66
5039.00,0.66
5038.00,0.66
5037.00,0.66
5036.00,0.67
5035.00,0.67
5034.00,0.67
5033.00,0.67
5032.00,0.67
5031.00,0.67
5030.00,0.67
5029.00,0.67
5028.00,0.67
5027.00,0.67
5026.00,0.67
5025.00,0.67
5024.00,0.67
5023.00,0.67
5022.00,0.67
5021.00,0.67
5020.00,0.67
5019.00,0.68
5018.00,0.68
5017.00,0.68
5016.00,0.68
5015.00,0.68
5014.00,0.68
5013.00,0.68
5012.00,0.68
5011.00,0.68
5010.00,0.68
5009.00,0.69
5008.00,0.69
5007.00,0.69
5006.00,0.69
5005.00,0.69
5004.00,0.69
5003.00,0.69
5002.00,0.69
5001.00,0.69
5000.00,0.69
4999.00,0.69
4998.00,0.69
4997.00,0.69
4996.00,0.69
4995.00,0.69
4994.00,0.70
4993.00,0.70
4992.00,0.70
4991.00,0.70
4990.00,0.70
4989.00,0.70
4988.00,0.70
4987.00,0.70
4986.00,0.70
4985.00,0.70
4984.00,0.70
4983.00,0.70
4982.00,0.70
4981.00,0.70
4980.00,0.71
4979.00,0.71
4978.00,0.71
4977.00,0.71
4976.00,0.71
4975.00,0.71
4974.00,0.71
4973.00,0.71
4972.00,0.71
4971.00,0.72
4970.00,0.72
4969.00,0.72
4968.00,0.72
4967.00,0.72
4966.00,0.72
4965.00,0.72
4964.00,0.72
4963.00,0.72
4962.00,0.72
4961.00,0.72
4960.00,0.72
4959.00,0.72
4958.00,0.72
4957.00,0.73
4956.00,0.73
4955.00,0.73
4954.00,0.73
4953.00,0.73
4952.00,0.73
4951.00,0.73
4950.00,0.73
4949.00,0.73
4948.00,0.73
4947.00,0.73
4946.00,0.73
4945.00,0.73
4944.00,0.74
4943.00,0.74
4942.00,0.74
4941.00,0.74
4940.00,0.74
4939.00,0.74
4938.00,0.74
4937.00,0.74
4936.00,0.74
4935.00,0.74
4934.00,0.74
4933.00,0.74
4932.00,0.74
4931.00,0.74
4930.00,0.74
4929.00,0.74
4928.00,0.75
4927.00,0.75
4926.00,0.75
4925.00,0.75
4924.00,0.75
4923.00,0.75
4922.00,0.75
4921.00,0.75
4920.00,0.75
4919.00,0.75
4918.00,0.75
4917.00,0.75
4916.00,0.75
4915.00,0.75
4914.00,0.75
4913.00,0.76
4912.00,0.76
4911.00,0.76
4910.00,0.76
4909.00,0.76
4908.00,0.76
4907.00,0.76
4906.00,0.76
4905.00,0.76
4904.00,0.77
4903.00,0.77
4902.00,0.77
4901.00,0.77
4900.00,0.77
4899.00,0.77
4898.00,0.77
4897.00,0.77
4896.00,0.77
4895.00,0.77
4894.00,0.77
4893.00,0.77
4892.00,0.77
4891.00,0.77
4890.00,0.77
4889.00,0.77
4888.00,0.77
4887.00,0.77
4886.00,0.77
4885.00,0.77
4884.00,0.77
4883.00,0.78
4882.00,0.78
4881.00,0.78
4880.00,0.78
4879.00,0.78
4878.00,0.78
4877.00,0.78
4876.00,0.78
4875.00,0.78
4874.00,0.78
4873.00,0.78
4872.00,0.78
4871.00,0.78
4870.00,0.78
4869.00,0.78
4868.00,0.78
4867.00,0.78
4866.00,0.78
4865.00,0.78
4864.00,0.78
4863.00,0.78
4862.00,0.78
4861.00,0.78
4860.00,0.78
4859.00,0.78
4858.00,0.78
4857.00,0.78
4856.00,0.78
4855.00,0.79
4854.00,0.79
4853.00,0.79
4852.00,0.79
4851.00,0.79
4850.00,0.79
4849.00,0.79
4848.00,0.79
4847.00,0.80
4846.00,0.80
4845.00,0.80
4844.00,0.80
4843.00,0.80
4842.00,0.80
4841.00,0.80
4840.00,0.81
4839.00,0.81
4838.00,0.81
4837.00,0.81
4836.00,0.81
4835.00,0.81
4834.00,0.81
4833.00,0.81
4832.00,0.81
4831.00,0.81
4830.00,0.81
4829.00,0.81
4828.00,0.81
4827.00,0.81
4826.00,0.81
4825.00,0.82
4824.00,0.82
4823.00,0.82
4822.00,0.82
4821.00,0.82
4820.00,0.82
4819.00,0.82
4818.00,0.82
4817.00,0.82
4816.00,0.82
4815.00,0.82
4814.00,0.82
4813.00,0.82
4812.00,0.82
4811.00,0.82
4810.00,0.82
4809.00,0.83
4808.00,0.83
4807.00,0.83
4806.00,0.83
4805.00,0.83
4804.00,0.83
4803.00,0.83
4802.00,0.83
4801.00,0.84
4800.00,0.84
4799.00,0.84
4798.00,0.84
4797.00,0.84
4796.00,0.84
4795.00,0.84
4794.00,0.84
4793.00,0.84
4792.00,0.84
4791.00,0.84
4790.00,0.85
4789.00,0.85
4788.00,0.85
4787.00,0.85
4786.00,0.85
4785.00,0.85
4784.00,0.85
4783.00,0.85
4782.00,0.85
4781.00,0.85
4780.00,0.85
4779.00,0.85
4778.00,0.85
4777.00,0.86
4776.00,0.86
4775.00,0.86
4774.00,0.86
4773.00,0.86
4772.00,0.86
4771.00,0.86
4770.00,0.86
4769.00,0.86
4768.00,0.86
4767.00,0.86
4766.00,0.87
4765.00,0.87
4764.00,0.87
4763.00,0.87
4762.00,0.87
4761.00,0.87
4760.00,0.87
4759.00,0.87
4758.00,0.88
4757.00,0.88
4756.00,0.88
4755.00,0.88
4754.00,0.88
4753.00,0.88
4752.00,0.88
4751.00,0.88
4750.00,0.89
4749.00,0.89
4748.00,0.89
4747.00,0.89
4746.00,0.89
4745.00,0.89
4744.00,0.89
4743.00,0.89
4742.00,0.90
4741.00,0.90
4740.00,0.90
4739.00,0.90
4738.00,0.90
4737.00,0.90
4736.00,0.90
4735.00,0.90
4734.00,0.90
4733.00,0.91
4732.00,0.91
4731.00,0.91
4730.00,0.91
4729.00,0.91
4728.00,0.91
4727.00,0.91
4726.00,0.92
4725.00,0.92
4724.00,0.92
4723.00,0.92
4722.00,0.92
4721.00,0.93
4720.00,0.93
4719.00,0.93
4718.00,0.93
4717.00,0.93
4716.00,0.94
4715.00,0.94
4714.00,0.94
4713.00,0.94
4712.00,0.94
4711.00,0.94
4710.00,0.94
4709.00,0.94
4708.00,0.95
4707.00,0.95
4706.00,0.95
4705.00,0.95
4704.00,0.95
4703.00,0.95
4702.00,0.95
4701.00,0.95
4700.00,0.95
4699.00,0.96
4698.00,0.96
4697.00,0.96
4696.00,0.96
4695.00,0.96
4694.00,0.96
4693.00,0.97
4692.00,0.97
4691.00,0.97
4690.00,0.97
4689.00,0.97
4688.00,0.97
4687.00,0.98
4686.00,0.98
4685.00,0.98
4684.00,0.98
4683.00,0.98
4682.00,0.98
4681.00,0.98
4680.00,0.99
4679.00,0.99
4678.00,0.99
4677.00,0.99
4676.00,0.99
4675.00,0.99
4674.00,0.99
4673.00,0.99
4672.00,1.00
4671.00,1.00
4670.00,1.00
4669.00,1.00
4668.00,1.00
4667.00,1.00
4666.00,1.00
4665.00,1.00
4664.00,1.01
4663.00,1.01
4662.00,1.01
4661.00,1.01
4660.00,1.01
4659.00,1.01
4658.00,1.01
4657.00,1.01
4656.00,1.01
4655.00,1.01
4654.00,1.01
4653.00,1.01
4652.00,1.01
4651.00,1.01
4650.00,1.02
4649.00,1.02
4648.00,1.02
4647.00,1.02
4646.00,1.02
4645.00,1.02
4644.00,1.02
4643.00,1.02
4642.00,1.02
4641.00,1.03
4640.00,1.03
4639.00,1.03
4638.00,1.03
4637.00,1.03
4636.00,1.03
4635.00,1.04
4634.00,1.04
4633.00,1.04
4632.00,1.04
4631.00,1.04
4630.00,1.05
4629.00,1.05
4628.00,1.05
4627.00,1.05
4626.00,1.05
4625.00,1.05
4624.00,1.05
4623.00,1.06
4622.00,1.06
4621.00,1.06
4620.00,1.06
4619.00,1.06
4618.00,1.06
4617.00,1.06
4616.00,1.06
4615.00,1.06
4614.00,1.06
4613.00,1.06
4612.00,1.06
4611.00,1.06
4610.00,1.06
4609.00,1.06
4608.00,1.06
4607.00,1.06
4606.00,1.06
4605.00,1.06
4604.00,1.06
4603.00,1.06
4602.00,1.06
4601.00,1.06
4600.00,1.06
4599.00,1.06
4598.00,1.06
4597.00,1.06
4596.00,1.06
4595.00,1.07
4594.00,1.07
4593.00,1.07
4592.00,1.07
4591.00,1.07
4590.00,1.07
4589.00,1.07
4588.00,1.07
4587.00,1.07
4586.00,1.08
4585.00,1.08
4584.00,1.08
4583.00,1.08
4582.00,1.08
4581.00,1.08
4580.00,1.08
4579.00,1.08
4578.00,1.08
4577.00,1.08
4576.00,1.08
4575.00,1.08
4574.00,1.08
4573.00,1.08
4572.00,1.08
4571.00,1.08
4570.00,1.08
4569.00,1.09
4568.00,1.09
4567.00,1.09
4566.00,1.09
4565.00,1.09
4564.00,1.09
4563.00,1.09
4562.00,1.09
4561.00,1.09
4560.00,1.09
4559.00,1.09
4558.00,1.09
4557.00,1.09
4556.00,1.09
4555.00,1.10
4554.00,1.10
4553.00,1.10
4552.00,1.10
4551.00,1.10
4550.00,1.10
4549.00,1.10
4548.00,1.10
4547.00,1.10
4546.00,1.11
4545.00,1.11
4544.00,1.11
4543.00,1.11
4542.00,1.11
4541.00,1.11
4540.00,1.11
4539.00,1.11
4538.00,1.11
4537.00,1.12
4536.00,1.12
4535.00,1.12
4534.00,1.12
4533.00,1.12
4532.00,1.12
4531.00,1.12
4530.00,1.12
4529.00,1.12
4528.00,1.12
4527.00,1.12
4526.00,1.12
4525.00,1.12
4524.00,1.13
4523.00,1.13
4522.00,1.13
4521.00,1.13
4520.00,1.13
4519.00,1.13
4518.00,1.13
4517.00,1.13
4516.00,1.13
4515.00,1.13
4514.00,1.13
4513.00,1.13
4512.00,1.13
4511.00,1.13
4510.00,1.13
4509.00,1.13
4508.00,1.13
4507.00,1.13
4506.00,1.13
4505.00,1.12
4504.00,1.12
4503.00,1.12
4502.00,1.12
4501.00,1.12
4500.00,1.12
4499.00,1.12
4498.00,1.12
4497.00,1.12
4496.00,1.12
4495.00,1.12
4494.00,1.12
4493.00,1.12
4492.00,1.12
4491.00,1.12
4490.00,1.12
4489.00,1.12
4488.00,1.12
4487.00,1.12
4486.00,1.11
4485.00,1.11
4484.00,1.11
4483.00,1.11
4482.00,1.11
4481.00,1.11
4480.00,1.11
4479.00,1.11
4478.00,1.11
4477.00,1.11
4476.00,1.11
4475.00,1.10
4474.00,1.10
4473.00,1.10
4472.00,1.10
4471.00,1.09
4470.00,1.09
4469.00,1.09
4468.00,1.09
4467.00,1.08
4466.00,1.08
4465.00,1.08
4464.00,1.07
4463.00,1.07
4462.00,1.07
4461.00,1.06
4460.00,1.06
4459.00,1.06
4458.00,1.06
4457.00,1.05
4456.00,1.05
4455.00,1.05
4454.00,1.05
4453.00,1.04
4452.00,1.04
4451.00,1.04
4450.00,1.04
4449.00,1.03
4448.00,1.03
4447.00,1.03
4446.00,1.03
4445.00,1.02
4444.00,1.02
4443.00,1.02
4442.00,1.01
4441.00,1.01
4440.00,1.01
4439.00,1.00
4438.00,1.00
4437.00,1.00
4436.00,0.99
4435.00,0.99
4434.00,0.99
4433.00,0.98
4432.00,0.98
4431.00,0.98
4430.00,0.98
4429.00,0.97
4428.00,0.97
4427.00,0.97
4426.00,0.97
4425.00,0.97
4424.00,0.97
4423.00,0.97
4422.00,0.97
4421.00,0.96
4420.00,0.96
4419.00,0.96
4418.00,0.96
4417.00,0.96
4416.00,0.96
4415.00,0.97
4414.00,0.97
4413.00,0.97
4412.00,0.97
4411.00,0.97
4410.00,0.97
4409.00,0.97
4408.00,0.97
4407.00,0.97
4406.00,0.97
4405.00,0.97
4404.00,0.97
4403.00,0.97
4402.00,0.97
4401.00,0.97
4400.00,0.97
4399.00,0.97
4398.00,0.97
4397.00,0.97
4396.00,0.97
4395.00,0.97
4394.00,0.97
4393.00,0.97
4392.00,0.97
4391.00,0.97
4390.00,0.97
4389.00,0.98
4388.00,0.98
4387.00,0.98
4386.00,0.98
4385.00,0.98
4384.00,0.98
4383.00,0.99
4382.00,0.99
4381.00,0.99
4380.00,0.99
4379.00,0.99
4378.00,0.99
4377.00,0.99
4376.00,0.99
4375.00,0.99
4374.00,1.00
4373.00,1.00
4372.00,1.00
4371.00,1.00
4370.00,1.00
4369.00,1.00
4368.00,1.00
4367.00,1.00
4366.00,1.00
4365.00,1.00
4364.00,1.00
4363.00,1.00
4362.00,1.00
4361.00,1.00
4360.00,1.00
4359.00,1.00
4358.00,1.00
4357.00,1.00
4356.00,1.00
4355.00,1.00
4354.00,1.00
4353.00,1.00
4352.00,1.00
4351.00,1.00
4350.00,1.00
4349.00,1.00
4348.00,1.00
4347.00,1.00
4346.00,1.00
4345.00,1.00
4344.00,1.00
4343.00,1.00
4342.00,1.00
4341.00,1.00
4340.00,1.00
4339.00,1.00
4338.00,1.00
4337.00,1.00
4336.00,1.00
4335.00,1.00
4334.00,1.00
4333.00,1.00
4332.00,1.01
4331.00,1.01
4330.00,1.01
4329.00,1.01
4328.00,1.01
4327.00,1.01
4326.00,1.01
4325.00,1.01
4324.00,1.02
4323.00,1.02
4322.00,1.02
4321.00,1.02
4320.00,1.02
4319.00,1.02
4318.00,1.03
4317.00,1.03
4316.00,1.03
4315.00,1.03
4314.00,1.03
4313.00,1.03
4312.00,1.04
4311.00,1.04
4310.00,1.04
4309.00,1.04
4308.00,1.04
4307.00,1.04
4306.00,1.04
4305.00,1.04
4304.00,1.04
4303.00,1.05
4302.00,1.05
4301.00,1.05
4300.00,1.05
4299.00,1.05
4298.00,1.05
4297.00,1.05
4296.00,1.05
4295.00,1.05
4294.00,1.06
4293.00,1.06
4292.00,1.06
4291.00,1.06
4290.00,1.06
4289.00,1.06
4288.00,1.07
4287.00,1.07
4286.00,1.07
4285.00,1.07
4284.00,1.07
4283.00,1.07
4282.00,1.07
4281.00,1.07
4280.00,1.07
4279.00,1.07
4278.00,1.07
4277.00,1.07
4276.00,1.07
4275.00,1.07
4274.00,1.07
4273.00,1.07
4272.00,1.07
4271.00,1.07
4270.00,1.07
4269.00,1.07
4268.00,1.07
4267.00,1.07
4266.00,1.07
4265.00,1.07
4264.00,1.07
4263.00,1.07
4262.00,1.07
4261.00,1.07
4260.00,1.07
4259.00,1.07
4258.00,1.07
4257.00,1.07
4256.00,1.07
4255.00,1.07
4254.00,1.07
4253.00,1.07
4252.00,1.07
4251.00,1.07
4250.00,1.08
4249.00,1.08
4248.00,1.08
4247.00,1.08
4246.00,1.08
4245.00,1.08
4244.00,1.09
4243.00,1.09
4242.00,1.09
4241.00,1.09
4240.00,1.09
4239.00,1.09
4238.00,1.09
4237.00,1.09
4236.00,1.09
4235.00,1.09
4234.00,1.09
4233.00,1.09
4232.00,1.09
4231.00,1.09
4230.00,1.09
4229.00,1.09
4228.00,1.09
4227.00,1.09
4226.00,1.09
4225.00,1.09
4224.00,1.09
4223.00,1.09
4222.00,1.10
4221.00,1.10
4220.00,1.10
4219.00,1.10
4218.00,1.10
4217.00,1.10
4216.00,1.10
4215.00,1.11
4214.00,1.11
4213.00,1.11
4212.00,1.11
4211.00,1.11
4210.00,1.12
4209.00,1.12
4208.00,1.12
4207.00,1.12
4206.00,1.12
4205.00,1.12
4204.00,1.12
4203.00,1.12
4202.00,1.12
4201.00,1.12
4200.00,1.12
4199.00,1.12
4198.00,1.12
4197.00,1.12
4196.00,1.12
4195.00,1.12
4194.00,1.12
4193.00,1.12
4192.00,1.12
4191.00,1.12
4190.00,1.12
4189.00,1.12
4188.00,1.12
4187.00,1.12
4186.00,1.12
4185.00,1.12
4184.00,1.12
4183.00,1.12
4182.00,1.13
4181.00,1.13
4180.00,1.13
4179.00,1.13
4178.00,1.13
4177.00,1.13
4176.00,1.13
4175.00,1.13
4174.00,1.13
4173.00,1.13
4172.00,1.13
4171.00,1.13
4170.00,1.14
4169.00,1.14
4168.00,1.14
4167.00,1.14
4166.00,1.14
4165.00,1.14
4164.00,1.14
4163.00,1.14
4162.00,1.14
4161.00,1.14
4160.00,1.14
4159.00,1.14
4158.00,1.14
4157.00,1.14
4156.00,1.14
4155.00,1.14
4154.00,1.14
4153.00,1.14
4152.00,1.14
4151.00,1.14
4150.00,1.14
4149.00,1.14
4148.00,1.14
4147.00,1.15
4146.00,1.15
4145.00,1.15
4144.00,1.15
4143.00,1.15
4142.00,1.15
4141.00,1.15
4140.00,1.15
4139.00,1.14
4138.00,1.14
4137.00,1.14
4136.00,1.14
4135.00,1.14
4134.00,1.14
4133.00,1.14
4132.00,1.14
4131.00,1.14
4130.00,1.15
4129.00,1.15
4128.00,1.15
4127.00,1.15
4126.00,1.15
4125.00,1.15
4124.00,1.15
4123.00,1.15
4122.00,1.15
4121.00,1.15
4120.00,1.16
4119.00,1.16
4118.00,1.16
4117.00,1.16
4116.00,1.16
4115.00,1.16
4114.00,1.16
4113.00,1.16
4112.00,1.16
4111.00,1.16
4110.00,1.16
4109.00,1.16
4108.00,1.16
4107.00,1.16
4106.00,1.16
4105.00,1.16
4104.00,1.17
4103.00,1.17
4102.00,1.17
4101.00,1.17
4100.00,1.17
4099.00,1.17
4098.00,1.18
4097.00,1.18
4096.00,1.18
4095.00,1.18
4094.00,1.18
4093.00,1.18
4092.00,1.18
4091.00,1.18
4090.00,1.18
4089.00,1.18
4088.00,1.18
4087.00,1.18
4086.00,1.18
4085.00,1.18
4084.00,1.18
4083.00,1.18
4082.00,1.17
4081.00,1.17
4080.00,1.17
4079.00,1.17
4078.00,1.17
4077.00,1.17
4076.00,1.17
4075.00,1.17
4074.00,1.17
4073.00,1.17
4072.00,1.17
4071.00,1.17
4070.00,1.17
4069.00,1.17
4068.00,1.18
4067.00,1.18
4066.00,1.18
4065.00,1.18
4064.00,1.18
4063.00,1.19
4062.00,1.19
4061.00,1.19
4060.00,1.19
4059.00,1.19
4058.00,1.19
4057.00,1.19
4056.00,1.19
4055.00,1.20
4054.00,1.20
4053.00,1.20
4052.00,1.20
4051.00,1.20
4050.00,1.20
4049.00,1.20
4048.00,1.20
4047.00,1.20
4046.00,1.20
4045.00,1.20
4044.00,1.20
4043.00,1.20
4042.00,1.20
4041.00,1.20
4040.00,1.20
4039.00,1.20
4038.00,1.20
4037.00,1.20
4036.00,1.20
4035.00,1.20
4034.00,1.20
4033.00,1.20
4032.00,1.21
4031.00,1.21
4030.00,1.21
4029.00,1.21
4028.00,1.21
4027.00,1.21
4026.00,1.22
4025.00,1.22
4024.00,1.22
4023.00,1.22
4022.00,1.23
4021.00,1.23
4020.00,1.23
4019.00,1.23
4018.00,1.23
4017.00,1.23
4016.00,1.24
4015.00,1.24
4014.00,1.24
4013.00,1.24
4012.00,1.24
4011.00,1.24
4010.00,1.24
4009.00,1.24
4008.00,1.24
4007.00,1.24
4006.00,1.24
4005.00,1.24
4004.00,1.24
4003.00,1.24
4002.00,1.24
4001.00,1.25
4000.00,1.25
