创建为新数据集,样品 165 用户 Administrator 日期 星期六, 七月 21 2018
cm-1,%T
10000.00,1.53
9999.00,1.53
9998.00,1.53
9997.00,1.53
9996.00,1.53
9995.00,1.53
9994.00,1.53
9993.00,1.53
9992.00,1.53
9991.00,1.53
9990.00,1.53
9989.00,1.52
9988.00,1.52
9987.00,1.52
9986.00,1.52
9985.00,1.52
9984.00,1.51
9983.00,1.51
9982.00,1.51
9981.00,1.51
9980.00,1.52
9979.00,1.52
9978.00,1.52
9977.00,1.52
9976.00,1.52
9975.00,1.53
9974.00,1.53
9973.00,1.53
9972.00,1.53
9971.00,1.53
9970.00,1.54
9969.00,1.54
9968.00,1.54
9967.00,1.54
9966.00,1.54
9965.00,1.54
9964.00,1.53
9963.00,1.53
9962.00,1.53
9961.00,1.53
9960.00,1.53
9959.00,1.53
9958.00,1.52
9957.00,1.52
9956.00,1.52
9955.00,1.52
9954.00,1.52
9953.00,1.52
9952.00,1.51
9951.00,1.51
9950.00,1.51
9949.00,1.51
9948.00,1.51
9947.00,1.51
9946.00,1.51
9945.00,1.51
9944.00,1.51
9943.00,1.51
9942.00,1.51
9941.00,1.51
9940.00,1.52
9939.00,1.52
9938.00,1.52
9937.00,1.52
9936.00,1.52
9935.00,1.52
9934.00,1.52
9933.00,1.52
9932.00,1.52
9931.00,1.52
9930.00,1.52
9929.00,1.52
9928.00,1.52
9927.00,1.51
9926.00,1.51
9925.00,1.51
9924.00,1.51
9923.00,1.51
9922.00,1.51
9921.00,1.50
9920.00,1.50
9919.00,1.50
9918.00,1.50
9917.00,1.50
9916.00,1.49
9915.00,1.49
9914.00,1.49
9913.00,1.49
9912.00,1.49
9911.00,1.49
9910.00,1.49
9909.00,1.49
9908.00,1.49
9907.00,1.49
9906.00,1.49
9905.00,1.49
9904.00,1.49
9903.00,1.49
9902.00,1.49
9901.00,1.50
9900.00,1.50
9899.00,1.50
9898.00,1.50
9897.00,1.51
9896.00,1.51
9895.00,1.51
9894.00,1.51
9893.00,1.52
9892.00,1.52
9891.00,1.52
9890.00,1.52
9889.00,1.52
9888.00,1.52
9887.00,1.52
9886.00,1.52
9885.00,1.52
9884.00,1.52
9883.00,1.52
9882.00,1.51
9881.00,1.51
9880.00,1.51
9879.00,1.51
9878.00,1.51
9877.00,1.50
9876.00,1.50
9875.00,1.50
9874.00,1.50
9873.00,1.50
9872.00,1.50
9871.00,1.50
9870.00,1.50
9869.00,1.50
9868.00,1.50
9867.00,1.50
9866.00,1.50
9865.00,1.50
9864.00,1.50
9863.00,1.50
9862.00,1.50
9861.00,1.50
9860.00,1.50
9859.00,1.50
9858.00,1.50
9857.00,1.50
9856.00,1.50
9855.00,1.50
9854.00,1.50
9853.00,1.49
9852.00,1.49
9851.00,1.49
9850.00,1.49
9849.00,1.49
9848.00,1.49
9847.00,1.49
9846.00,1.49
9845.00,1.49
9844.00,1.49
9843.00,1.49
9842.00,1.49
9841.00,1.49
9840.00,1.50
9839.00,1.50
9838.00,1.50
9837.00,1.50
9836.00,1.51
9835.00,1.51
9834.00,1.51
9833.00,1.51
9832.00,1.52
9831.00,1.52
9830.00,1.52
9829.00,1.52
9828.00,1.52
9827.00,1.52
9826.00,1.52
9825.00,1.52
9824.00,1.52
9823.00,1.52
9822.00,1.52
9821.00,1.52
9820.00,1.52
9819.00,1.51
9818.00,1.51
9817.00,1.51
9816.00,1.51
9815.00,1.51
9814.00,1.50
9813.00,1.50
9812.00,1.50
9811.00,1.50
9810.00,1.50
9809.00,1.49
9808.00,1.49
9807.00,1.49
9806.00,1.49
9805.00,1.49
9804.00,1.49
9803.00,1.48
9802.00,1.48
9801.00,1.48
9800.00,1.48
9799.00,1.48
9798.00,1.47
9797.00,1.47
9796.00,1.47
9795.00,1.47
9794.00,1.47
9793.00,1.47
9792.00,1.46
9791.00,1.46
9790.00,1.46
9789.00,1.46
9788.00,1.46
9787.00,1.46
9786.00,1.47
9785.00,1.47
9784.00,1.47
9783.00,1.47
9782.00,1.48
9781.00,1.48
9780.00,1.49
9779.00,1.49
9778.00,1.49
9777.00,1.50
9776.00,1.50
9775.00,1.50
9774.00,1.51
9773.00,1.51
9772.00,1.51
9771.00,1.51
9770.00,1.51
9769.00,1.51
9768.00,1.51
9767.00,1.51
9766.00,1.51
9765.00,1.51
9764.00,1.51
9763.00,1.51
9762.00,1.51
9761.00,1.51
9760.00,1.51
9759.00,1.51
9758.00,1.51
9757.00,1.51
9756.00,1.51
9755.00,1.50
9754.00,1.50
9753.00,1.50
9752.00,1.50
9751.00,1.50
9750.00,1.50
9749.00,1.50
9748.00,1.50
9747.00,1.50
9746.00,1.50
9745.00,1.50
9744.00,1.50
9743.00,1.50
9742.00,1.50
9741.00,1.50
9740.00,1.50
9739.00,1.50
9738.00,1.50
9737.00,1.50
9736.00,1.50
9735.00,1.50
9734.00,1.50
9733.00,1.50
9732.00,1.50
9731.00,1.51
9730.00,1.51
9729.00,1.51
9728.00,1.51
9727.00,1.51
9726.00,1.51
9725.00,1.51
9724.00,1.51
9723.00,1.52
9722.00,1.52
9721.00,1.52
9720.00,1.52
9719.00,1.52
9718.00,1.52
9717.00,1.52
9716.00,1.52
9715.00,1.52
9714.00,1.51
9713.00,1.51
9712.00,1.51
9711.00,1.51
9710.00,1.51
9709.00,1.51
9708.00,1.51
9707.00,1.51
9706.00,1.51
9705.00,1.51
9704.00,1.51
9703.00,1.50
9702.00,1.50
9701.00,1.50
9700.00,1.50
9699.00,1.50
9698.00,1.50
9697.00,1.50
9696.00,1.50
9695.00,1.50
9694.00,1.50
9693.00,1.50
9692.00,1.50
9691.00,1.50
9690.00,1.50
9689.00,1.50
9688.00,1.50
9687.00,1.50
9686.00,1.50
9685.00,1.50
9684.00,1.50
9683.00,1.50
9682.00,1.50
9681.00,1.50
9680.00,1.50
9679.00,1.50
9678.00,1.50
9677.00,1.50
9676.00,1.50
9675.00,1.50
9674.00,1.50
9673.00,1.50
9672.00,1.50
9671.00,1.50
9670.00,1.50
9669.00,1.50
9668.00,1.50
9667.00,1.50
9666.00,1.50
9665.00,1.50
9664.00,1.50
9663.00,1.50
9662.00,1.50
9661.00,1.50
9660.00,1.50
9659.00,1.51
9658.00,1.51
9657.00,1.51
9656.00,1.51
9655.00,1.52
9654.00,1.52
9653.00,1.52
9652.00,1.52
9651.00,1.53
9650.00,1.53
9649.00,1.53
9648.00,1.53
9647.00,1.53
9646.00,1.53
9645.00,1.53
9644.00,1.53
9643.00,1.53
9642.00,1.53
9641.00,1.54
9640.00,1.54
9639.00,1.54
9638.00,1.54
9637.00,1.54
9636.00,1.54
9635.00,1.54
9634.00,1.53
9633.00,1.53
9632.00,1.53
9631.00,1.53
9630.00,1.53
9629.00,1.53
9628.00,1.52
9627.00,1.52
9626.00,1.52
9625.00,1.52
9624.00,1.51
9623.00,1.51
9622.00,1.51
9621.00,1.50
9620.00,1.50
9619.00,1.50
9618.00,1.50
9617.00,1.50
9616.00,1.49
9615.00,1.49
9614.00,1.49
9613.00,1.49
9612.00,1.49
9611.00,1.49
9610.00,1.50
9609.00,1.50
9608.00,1.50
9607.00,1.50
9606.00,1.49
9605.00,1.49
9604.00,1.49
9603.00,1.49
9602.00,1.49
9601.00,1.49
9600.00,1.49
9599.00,1.49
9598.00,1.49
9597.00,1.49
9596.00,1.49
9595.00,1.49
9594.00,1.49
9593.00,1.49
9592.00,1.49
9591.00,1.49
9590.00,1.49
9589.00,1.49
9588.00,1.49
9587.00,1.49
9586.00,1.49
9585.00,1.49
9584.00,1.49
9583.00,1.50
9582.00,1.49
9581.00,1.49
9580.00,1.49
9579.00,1.49
9578.00,1.49
9577.00,1.49
9576.00,1.49
9575.00,1.49
9574.00,1.49
9573.00,1.49
9572.00,1.49
9571.00,1.49
9570.00,1.49
9569.00,1.49
9568.00,1.49
9567.00,1.49
9566.00,1.49
9565.00,1.49
9564.00,1.50
9563.00,1.50
9562.00,1.50
9561.00,1.50
9560.00,1.50
9559.00,1.51
9558.00,1.51
9557.00,1.51
9556.00,1.51
9555.00,1.51
9554.00,1.51
9553.00,1.52
9552.00,1.52
9551.00,1.52
9550.00,1.52
9549.00,1.52
9548.00,1.52
9547.00,1.52
9546.00,1.52
9545.00,1.51
9544.00,1.51
9543.00,1.51
9542.00,1.51
9541.00,1.51
9540.00,1.51
9539.00,1.51
9538.00,1.51
9537.00,1.51
9536.00,1.51
9535.00,1.50
9534.00,1.50
9533.00,1.50
9532.00,1.50
9531.00,1.50
9530.00,1.50
9529.00,1.50
9528.00,1.50
9527.00,1.50
9526.00,1.49
9525.00,1.49
9524.00,1.49
9523.00,1.49
9522.00,1.49
9521.00,1.49
9520.00,1.49
9519.00,1.49
9518.00,1.49
9517.00,1.49
9516.00,1.49
9515.00,1.49
9514.00,1.49
9513.00,1.49
9512.00,1.49
9511.00,1.50
9510.00,1.50
9509.00,1.50
9508.00,1.50
9507.00,1.50
9506.00,1.50
9505.00,1.50
9504.00,1.51
9503.00,1.51
9502.00,1.51
9501.00,1.51
9500.00,1.51
9499.00,1.51
9498.00,1.51
9497.00,1.51
9496.00,1.51
9495.00,1.51
9494.00,1.52
9493.00,1.52
9492.00,1.52
9491.00,1.52
9490.00,1.52
9489.00,1.52
9488.00,1.52
9487.00,1.52
9486.00,1.52
9485.00,1.52
9484.00,1.52
9483.00,1.52
9482.00,1.52
9481.00,1.52
9480.00,1.52
9479.00,1.52
9478.00,1.52
9477.00,1.52
9476.00,1.52
9475.00,1.51
9474.00,1.51
9473.00,1.51
9472.00,1.51
9471.00,1.51
9470.00,1.50
9469.00,1.50
9468.00,1.50
9467.00,1.50
9466.00,1.50
9465.00,1.50
9464.00,1.50
9463.00,1.50
9462.00,1.50
9461.00,1.50
9460.00,1.50
9459.00,1.50
9458.00,1.50
9457.00,1.50
9456.00,1.50
9455.00,1.50
9454.00,1.50
9453.00,1.50
9452.00,1.50
9451.00,1.50
9450.00,1.50
9449.00,1.50
9448.00,1.50
9447.00,1.50
9446.00,1.50
9445.00,1.50
9444.00,1.50
9443.00,1.50
9442.00,1.50
9441.00,1.50
9440.00,1.50
9439.00,1.50
9438.00,1.50
9437.00,1.50
9436.00,1.49
9435.00,1.49
9434.00,1.49
9433.00,1.49
9432.00,1.48
9431.00,1.48
9430.00,1.48
9429.00,1.48
9428.00,1.48
9427.00,1.48
9426.00,1.48
9425.00,1.48
9424.00,1.48
9423.00,1.48
9422.00,1.48
9421.00,1.48
9420.00,1.49
9419.00,1.49
9418.00,1.49
9417.00,1.49
9416.00,1.49
9415.00,1.49
9414.00,1.49
9413.00,1.49
9412.00,1.50
9411.00,1.50
9410.00,1.50
9409.00,1.50
9408.00,1.50
9407.00,1.50
9406.00,1.50
9405.00,1.50
9404.00,1.50
9403.00,1.51
9402.00,1.51
9401.00,1.51
9400.00,1.51
9399.00,1.51
9398.00,1.51
9397.00,1.51
9396.00,1.51
9395.00,1.51
9394.00,1.51
9393.00,1.51
9392.00,1.51
9391.00,1.51
9390.00,1.51
9389.00,1.51
9388.00,1.51
9387.00,1.51
9386.00,1.51
9385.00,1.51
9384.00,1.51
9383.00,1.51
9382.00,1.51
9381.00,1.51
9380.00,1.51
9379.00,1.51
9378.00,1.51
9377.00,1.51
9376.00,1.51
9375.00,1.51
9374.00,1.51
9373.00,1.51
9372.00,1.51
9371.00,1.51
9370.00,1.50
9369.00,1.50
9368.00,1.50
9367.00,1.50
9366.00,1.50
9365.00,1.50
9364.00,1.50
9363.00,1.50
9362.00,1.50
9361.00,1.50
9360.00,1.50
9359.00,1.50
9358.00,1.50
9357.00,1.50
9356.00,1.50
9355.00,1.50
9354.00,1.50
9353.00,1.50
9352.00,1.51
9351.00,1.51
9350.00,1.51
9349.00,1.51
9348.00,1.51
9347.00,1.51
9346.00,1.51
9345.00,1.51
9344.00,1.51
9343.00,1.51
9342.00,1.51
9341.00,1.51
9340.00,1.51
9339.00,1.51
9338.00,1.51
9337.00,1.51
9336.00,1.51
9335.00,1.50
9334.00,1.50
9333.00,1.50
9332.00,1.50
9331.00,1.50
9330.00,1.50
9329.00,1.50
9328.00,1.50
9327.00,1.50
9326.00,1.50
9325.00,1.50
9324.00,1.50
9323.00,1.50
9322.00,1.50
9321.00,1.50
9320.00,1.50
9319.00,1.50
9318.00,1.50
9317.00,1.50
9316.00,1.50
9315.00,1.50
9314.00,1.50
9313.00,1.51
9312.00,1.51
9311.00,1.51
9310.00,1.51
9309.00,1.51
9308.00,1.51
9307.00,1.51
9306.00,1.51
9305.00,1.52
9304.00,1.52
9303.00,1.52
9302.00,1.52
9301.00,1.52
9300.00,1.52
9299.00,1.52
9298.00,1.52
9297.00,1.52
9296.00,1.52
9295.00,1.52
9294.00,1.52
9293.00,1.51
9292.00,1.51
9291.00,1.51
9290.00,1.51
9289.00,1.51
9288.00,1.51
9287.00,1.51
9286.00,1.51
9285.00,1.51
9284.00,1.51
9283.00,1.51
9282.00,1.51
9281.00,1.51
9280.00,1.51
9279.00,1.51
9278.00,1.51
9277.00,1.51
9276.00,1.51
9275.00,1.52
9274.00,1.52
9273.00,1.52
9272.00,1.52
9271.00,1.52
9270.00,1.52
9269.00,1.52
9268.00,1.52
9267.00,1.52
9266.00,1.52
9265.00,1.52
9264.00,1.52
9263.00,1.52
9262.00,1.52
9261.00,1.52
9260.00,1.52
9259.00,1.52
9258.00,1.52
9257.00,1.52
9256.00,1.52
9255.00,1.52
9254.00,1.52
9253.00,1.51
9252.00,1.51
9251.00,1.52
9250.00,1.52
9249.00,1.52
9248.00,1.52
9247.00,1.52
9246.00,1.52
9245.00,1.52
9244.00,1.52
9243.00,1.52
9242.00,1.52
9241.00,1.53
9240.00,1.53
9239.00,1.53
9238.00,1.53
9237.00,1.53
9236.00,1.53
9235.00,1.53
9234.00,1.53
9233.00,1.53
9232.00,1.53
9231.00,1.53
9230.00,1.52
9229.00,1.52
9228.00,1.52
9227.00,1.52
9226.00,1.51
9225.00,1.51
9224.00,1.51
9223.00,1.51
9222.00,1.50
9221.00,1.50
9220.00,1.50
9219.00,1.50
9218.00,1.50
9217.00,1.50
9216.00,1.50
9215.00,1.50
9214.00,1.49
9213.00,1.49
9212.00,1.49
9211.00,1.49
9210.00,1.49
9209.00,1.49
9208.00,1.49
9207.00,1.49
9206.00,1.49
9205.00,1.49
9204.00,1.49
9203.00,1.49
9202.00,1.49
9201.00,1.49
9200.00,1.49
9199.00,1.49
9198.00,1.49
9197.00,1.50
9196.00,1.50
9195.00,1.50
9194.00,1.50
9193.00,1.50
9192.00,1.51
9191.00,1.51
9190.00,1.51
9189.00,1.52
9188.00,1.52
9187.00,1.52
9186.00,1.52
9185.00,1.53
9184.00,1.53
9183.00,1.53
9182.00,1.53
9181.00,1.53
9180.00,1.53
9179.00,1.53
9178.00,1.53
9177.00,1.53
9176.00,1.53
9175.00,1.53
9174.00,1.53
9173.00,1.52
9172.00,1.52
9171.00,1.52
9170.00,1.52
9169.00,1.52
9168.00,1.51
9167.00,1.51
9166.00,1.51
9165.00,1.51
9164.00,1.51
9163.00,1.50
9162.00,1.50
9161.00,1.50
9160.00,1.50
9159.00,1.50
9158.00,1.50
9157.00,1.50
9156.00,1.50
9155.00,1.50
9154.00,1.50
9153.00,1.50
9152.00,1.51
9151.00,1.51
9150.00,1.51
9149.00,1.51
9148.00,1.51
9147.00,1.51
9146.00,1.51
9145.00,1.51
9144.00,1.51
9143.00,1.51
9142.00,1.51
9141.00,1.51
9140.00,1.51
9139.00,1.51
9138.00,1.51
9137.00,1.51
9136.00,1.51
9135.00,1.51
9134.00,1.51
9133.00,1.51
9132.00,1.51
9131.00,1.51
9130.00,1.51
9129.00,1.51
9128.00,1.51
9127.00,1.51
9126.00,1.51
9125.00,1.51
9124.00,1.51
9123.00,1.51
9122.00,1.51
9121.00,1.51
9120.00,1.51
9119.00,1.51
9118.00,1.51
9117.00,1.51
9116.00,1.51
9115.00,1.51
9114.00,1.51
9113.00,1.51
9112.00,1.51
9111.00,1.51
9110.00,1.51
9109.00,1.51
9108.00,1.51
9107.00,1.52
9106.00,1.52
9105.00,1.52
9104.00,1.52
9103.00,1.52
9102.00,1.52
9101.00,1.52
9100.00,1.52
9099.00,1.52
9098.00,1.52
9097.00,1.52
9096.00,1.52
9095.00,1.52
9094.00,1.52
9093.00,1.51
9092.00,1.51
9091.00,1.51
9090.00,1.51
9089.00,1.51
9088.00,1.51
9087.00,1.51
9086.00,1.51
9085.00,1.51
9084.00,1.51
9083.00,1.50
9082.00,1.50
9081.00,1.50
9080.00,1.50
9079.00,1.50
9078.00,1.50
9077.00,1.50
9076.00,1.51
9075.00,1.51
9074.00,1.51
9073.00,1.51
9072.00,1.51
9071.00,1.51
9070.00,1.51
9069.00,1.52
9068.00,1.52
9067.00,1.52
9066.00,1.52
9065.00,1.52
9064.00,1.52
9063.00,1.52
9062.00,1.52
9061.00,1.52
9060.00,1.53
9059.00,1.53
9058.00,1.53
9057.00,1.53
9056.00,1.53
9055.00,1.53
9054.00,1.53
9053.00,1.53
9052.00,1.53
9051.00,1.53
9050.00,1.53
9049.00,1.53
9048.00,1.52
9047.00,1.52
9046.00,1.52
9045.00,1.52
9044.00,1.52
9043.00,1.52
9042.00,1.52
9041.00,1.52
9040.00,1.52
9039.00,1.52
9038.00,1.52
9037.00,1.52
9036.00,1.53
9035.00,1.53
9034.00,1.53
9033.00,1.53
9032.00,1.53
9031.00,1.53
9030.00,1.53
9029.00,1.53
9028.00,1.53
9027.00,1.53
9026.00,1.53
9025.00,1.53
9024.00,1.53
9023.00,1.53
9022.00,1.53
9021.00,1.53
9020.00,1.53
9019.00,1.52
9018.00,1.52
9017.00,1.52
9016.00,1.52
9015.00,1.51
9014.00,1.51
9013.00,1.51
9012.00,1.51
9011.00,1.50
9010.00,1.50
9009.00,1.50
9008.00,1.50
9007.00,1.50
9006.00,1.50
9005.00,1.49
9004.00,1.49
9003.00,1.49
9002.00,1.49
9001.00,1.49
9000.00,1.49
8999.00,1.49
8998.00,1.49
8997.00,1.49
8996.00,1.49
8995.00,1.49
8994.00,1.49
8993.00,1.50
8992.00,1.50
8991.00,1.50
8990.00,1.50
8989.00,1.50
8988.00,1.50
8987.00,1.51
8986.00,1.51
8985.00,1.51
8984.00,1.51
8983.00,1.51
8982.00,1.51
8981.00,1.52
8980.00,1.52
8979.00,1.52
8978.00,1.52
8977.00,1.52
8976.00,1.52
8975.00,1.52
8974.00,1.52
8973.00,1.52
8972.00,1.52
8971.00,1.52
8970.00,1.52
8969.00,1.52
8968.00,1.52
8967.00,1.52
8966.00,1.52
8965.00,1.52
8964.00,1.52
8963.00,1.51
8962.00,1.51
8961.00,1.51
8960.00,1.51
8959.00,1.51
8958.00,1.51
8957.00,1.51
8956.00,1.51
8955.00,1.51
8954.00,1.51
8953.00,1.51
8952.00,1.51
8951.00,1.51
8950.00,1.52
8949.00,1.52
8948.00,1.52
8947.00,1.52
8946.00,1.52
8945.00,1.52
8944.00,1.52
8943.00,1.53
8942.00,1.53
8941.00,1.53
8940.00,1.53
8939.00,1.53
8938.00,1.53
8937.00,1.53
8936.00,1.53
8935.00,1.53
8934.00,1.53
8933.00,1.53
8932.00,1.53
8931.00,1.53
8930.00,1.53
8929.00,1.53
8928.00,1.53
8927.00,1.53
8926.00,1.53
8925.00,1.53
8924.00,1.53
8923.00,1.53
8922.00,1.53
8921.00,1.52
8920.00,1.52
8919.00,1.52
8918.00,1.52
8917.00,1.52
8916.00,1.52
8915.00,1.52
8914.00,1.52
8913.00,1.52
8912.00,1.52
8911.00,1.52
8910.00,1.52
8909.00,1.52
8908.00,1.52
8907.00,1.52
8906.00,1.53
8905.00,1.52
8904.00,1.52
8903.00,1.52
8902.00,1.52
8901.00,1.52
8900.00,1.52
8899.00,1.52
8898.00,1.52
8897.00,1.52
8896.00,1.52
8895.00,1.52
8894.00,1.51
8893.00,1.51
8892.00,1.51
8891.00,1.51
8890.00,1.51
8889.00,1.51
8888.00,1.51
8887.00,1.51
8886.00,1.51
8885.00,1.51
8884.00,1.51
8883.00,1.51
8882.00,1.51
8881.00,1.51
8880.00,1.51
8879.00,1.51
8878.00,1.51
8877.00,1.51
8876.00,1.51
8875.00,1.51
8874.00,1.51
8873.00,1.51
8872.00,1.51
8871.00,1.51
8870.00,1.51
8869.00,1.51
8868.00,1.51
8867.00,1.51
8866.00,1.51
8865.00,1.51
8864.00,1.51
8863.00,1.50
8862.00,1.50
8861.00,1.50
8860.00,1.50
8859.00,1.50
8858.00,1.50
8857.00,1.50
8856.00,1.50
8855.00,1.50
8854.00,1.51
8853.00,1.51
8852.00,1.51
8851.00,1.51
8850.00,1.51
8849.00,1.51
8848.00,1.51
8847.00,1.51
8846.00,1.51
8845.00,1.52
8844.00,1.52
8843.00,1.52
8842.00,1.51
8841.00,1.51
8840.00,1.51
8839.00,1.51
8838.00,1.51
8837.00,1.51
8836.00,1.51
8835.00,1.50
8834.00,1.50
8833.00,1.50
8832.00,1.50
8831.00,1.49
8830.00,1.49
8829.00,1.49
8828.00,1.49
8827.00,1.49
8826.00,1.49
8825.00,1.49
8824.00,1.49
8823.00,1.49
8822.00,1.49
8821.00,1.49
8820.00,1.50
8819.00,1.50
8818.00,1.50
8817.00,1.50
8816.00,1.50
8815.00,1.50
8814.00,1.50
8813.00,1.50
8812.00,1.50
8811.00,1.49
8810.00,1.49
8809.00,1.49
8808.00,1.49
8807.00,1.49
8806.00,1.49
8805.00,1.49
8804.00,1.49
8803.00,1.48
8802.00,1.48
8801.00,1.48
8800.00,1.48
8799.00,1.48
8798.00,1.48
8797.00,1.48
8796.00,1.48
8795.00,1.48
8794.00,1.48
8793.00,1.47
8792.00,1.47
8791.00,1.47
8790.00,1.47
8789.00,1.47
8788.00,1.47
8787.00,1.47
8786.00,1.47
8785.00,1.46
8784.00,1.46
8783.00,1.46
8782.00,1.46
8781.00,1.46
8780.00,1.46
8779.00,1.46
8778.00,1.46
8777.00,1.46
8776.00,1.46
8775.00,1.45
8774.00,1.45
8773.00,1.45
8772.00,1.45
8771.00,1.45
8770.00,1.45
8769.00,1.45
8768.00,1.45
8767.00,1.45
8766.00,1.45
8765.00,1.45
8764.00,1.45
8763.00,1.45
8762.00,1.45
8761.00,1.45
8760.00,1.45
8759.00,1.45
8758.00,1.45
8757.00,1.45
8756.00,1.45
8755.00,1.45
8754.00,1.45
8753.00,1.45
8752.00,1.45
8751.00,1.45
8750.00,1.45
8749.00,1.45
8748.00,1.45
8747.00,1.45
8746.00,1.45
8745.00,1.45
8744.00,1.45
8743.00,1.45
8742.00,1.45
8741.00,1.45
8740.00,1.44
8739.00,1.44
8738.00,1.44
8737.00,1.44
8736.00,1.44
8735.00,1.44
8734.00,1.44
8733.00,1.44
8732.00,1.45
8731.00,1.45
8730.00,1.45
8729.00,1.45
8728.00,1.45
8727.00,1.45
8726.00,1.45
8725.00,1.45
8724.00,1.45
8723.00,1.45
8722.00,1.45
8721.00,1.45
8720.00,1.45
8719.00,1.45
8718.00,1.45
8717.00,1.45
8716.00,1.45
8715.00,1.45
8714.00,1.45
8713.00,1.45
8712.00,1.45
8711.00,1.45
8710.00,1.44
8709.00,1.44
8708.00,1.44
8707.00,1.44
8706.00,1.44
8705.00,1.44
8704.00,1.44
8703.00,1.44
8702.00,1.44
8701.00,1.44
8700.00,1.44
8699.00,1.44
8698.00,1.44
8697.00,1.44
8696.00,1.43
8695.00,1.43
8694.00,1.43
8693.00,1.43
8692.00,1.43
8691.00,1.43
8690.00,1.43
8689.00,1.43
8688.00,1.43
8687.00,1.43
8686.00,1.43
8685.00,1.42
8684.00,1.42
8683.00,1.42
8682.00,1.42
8681.00,1.42
8680.00,1.42
8679.00,1.43
8678.00,1.43
8677.00,1.43
8676.00,1.43
8675.00,1.43
8674.00,1.43
8673.00,1.43
8672.00,1.43
8671.00,1.43
8670.00,1.43
8669.00,1.43
8668.00,1.43
8667.00,1.43
8666.00,1.44
8665.00,1.44
8664.00,1.44
8663.00,1.44
8662.00,1.44
8661.00,1.44
8660.00,1.44
8659.00,1.44
8658.00,1.44
8657.00,1.44
8656.00,1.43
8655.00,1.43
8654.00,1.43
8653.00,1.43
8652.00,1.43
8651.00,1.43
8650.00,1.43
8649.00,1.43
8648.00,1.43
8647.00,1.43
8646.00,1.43
8645.00,1.43
8644.00,1.43
8643.00,1.43
8642.00,1.43
8641.00,1.43
8640.00,1.43
8639.00,1.43
8638.00,1.44
8637.00,1.44
8636.00,1.44
8635.00,1.44
8634.00,1.44
8633.00,1.44
8632.00,1.44
8631.00,1.44
8630.00,1.44
8629.00,1.44
8628.00,1.44
8627.00,1.44
8626.00,1.44
8625.00,1.44
8624.00,1.44
8623.00,1.44
8622.00,1.44
8621.00,1.44
8620.00,1.44
8619.00,1.44
8618.00,1.43
8617.00,1.43
8616.00,1.43
8615.00,1.43
8614.00,1.43
8613.00,1.43
8612.00,1.42
8611.00,1.42
8610.00,1.42
8609.00,1.42
8608.00,1.41
8607.00,1.41
8606.00,1.41
8605.00,1.41
8604.00,1.41
8603.00,1.41
8602.00,1.40
8601.00,1.40
8600.00,1.40
8599.00,1.40
8598.00,1.40
8597.00,1.40
8596.00,1.40
8595.00,1.40
8594.00,1.40
8593.00,1.40
8592.00,1.40
8591.00,1.40
8590.00,1.40
8589.00,1.40
8588.00,1.40
8587.00,1.40
8586.00,1.40
8585.00,1.40
8584.00,1.40
8583.00,1.40
8582.00,1.40
8581.00,1.40
8580.00,1.40
8579.00,1.40
8578.00,1.40
8577.00,1.40
8576.00,1.40
8575.00,1.40
8574.00,1.40
8573.00,1.40
8572.00,1.40
8571.00,1.40
8570.00,1.40
8569.00,1.40
8568.00,1.40
8567.00,1.40
8566.00,1.40
8565.00,1.40
8564.00,1.41
8563.00,1.41
8562.00,1.41
8561.00,1.41
8560.00,1.41
8559.00,1.41
8558.00,1.41
8557.00,1.41
8556.00,1.41
8555.00,1.41
8554.00,1.40
8553.00,1.40
8552.00,1.40
8551.00,1.40
8550.00,1.40
8549.00,1.40
8548.00,1.40
8547.00,1.40
8546.00,1.39
8545.00,1.39
8544.00,1.39
8543.00,1.39
8542.00,1.39
8541.00,1.39
8540.00,1.39
8539.00,1.39
8538.00,1.39
8537.00,1.39
8536.00,1.39
8535.00,1.39
8534.00,1.39
8533.00,1.39
8532.00,1.39
8531.00,1.39
8530.00,1.39
8529.00,1.39
8528.00,1.39
8527.00,1.38
8526.00,1.38
8525.00,1.38
8524.00,1.38
8523.00,1.38
8522.00,1.38
8521.00,1.38
8520.00,1.38
8519.00,1.38
8518.00,1.38
8517.00,1.38
8516.00,1.37
8515.00,1.37
8514.00,1.37
8513.00,1.37
8512.00,1.37
8511.00,1.37
8510.00,1.37
8509.00,1.37
8508.00,1.37
8507.00,1.37
8506.00,1.37
8505.00,1.36
8504.00,1.36
8503.00,1.36
8502.00,1.36
8501.00,1.36
8500.00,1.36
8499.00,1.36
8498.00,1.36
8497.00,1.36
8496.00,1.36
8495.00,1.36
8494.00,1.36
8493.00,1.36
8492.00,1.36
8491.00,1.36
8490.00,1.36
8489.00,1.36
8488.00,1.36
8487.00,1.36
8486.00,1.36
8485.00,1.36
8484.00,1.36
8483.00,1.36
8482.00,1.36
8481.00,1.35
8480.00,1.35
8479.00,1.35
8478.00,1.35
8477.00,1.35
8476.00,1.35
8475.00,1.35
8474.00,1.35
8473.00,1.35
8472.00,1.35
8471.00,1.35
8470.00,1.34
8469.00,1.34
8468.00,1.34
8467.00,1.34
8466.00,1.34
8465.00,1.34
8464.00,1.34
8463.00,1.34
8462.00,1.34
8461.00,1.34
8460.00,1.34
8459.00,1.34
8458.00,1.34
8457.00,1.34
8456.00,1.34
8455.00,1.34
8454.00,1.34
8453.00,1.33
8452.00,1.33
8451.00,1.33
8450.00,1.33
8449.00,1.33
8448.00,1.33
8447.00,1.33
8446.00,1.33
8445.00,1.33
8444.00,1.32
8443.00,1.32
8442.00,1.32
8441.00,1.32
8440.00,1.32
8439.00,1.32
8438.00,1.32
8437.00,1.32
8436.00,1.32
8435.00,1.32
8434.00,1.32
8433.00,1.32
8432.00,1.32
8431.00,1.32
8430.00,1.32
8429.00,1.32
8428.00,1.32
8427.00,1.32
8426.00,1.32
8425.00,1.32
8424.00,1.32
8423.00,1.32
8422.00,1.32
8421.00,1.32
8420.00,1.32
8419.00,1.32
8418.00,1.32
8417.00,1.32
8416.00,1.32
8415.00,1.32
8414.00,1.32
8413.00,1.32
8412.00,1.32
8411.00,1.33
8410.00,1.33
8409.00,1.33
8408.00,1.33
8407.00,1.33
8406.00,1.33
8405.00,1.34
8404.00,1.34
8403.00,1.34
8402.00,1.34
8401.00,1.34
8400.00,1.34
8399.00,1.34
8398.00,1.35
8397.00,1.35
8396.00,1.35
8395.00,1.35
8394.00,1.35
8393.00,1.35
8392.00,1.35
8391.00,1.35
8390.00,1.35
8389.00,1.36
8388.00,1.36
8387.00,1.36
8386.00,1.36
8385.00,1.36
8384.00,1.36
8383.00,1.36
8382.00,1.36
8381.00,1.36
8380.00,1.37
8379.00,1.37
8378.00,1.37
8377.00,1.37
8376.00,1.36
8375.00,1.36
8374.00,1.36
8373.00,1.36
8372.00,1.36
8371.00,1.36
8370.00,1.36
8369.00,1.36
8368.00,1.36
8367.00,1.36
8366.00,1.36
8365.00,1.36
8364.00,1.36
8363.00,1.37
8362.00,1.37
8361.00,1.37
8360.00,1.37
8359.00,1.37
8358.00,1.37
8357.00,1.37
8356.00,1.37
8355.00,1.37
8354.00,1.37
8353.00,1.37
8352.00,1.37
8351.00,1.37
8350.00,1.37
8349.00,1.37
8348.00,1.37
8347.00,1.37
8346.00,1.37
8345.00,1.37
8344.00,1.37
8343.00,1.37
8342.00,1.36
8341.00,1.36
8340.00,1.36
8339.00,1.36
8338.00,1.36
8337.00,1.36
8336.00,1.36
8335.00,1.36
8334.00,1.36
8333.00,1.36
8332.00,1.36
8331.00,1.36
8330.00,1.36
8329.00,1.36
8328.00,1.36
8327.00,1.36
8326.00,1.37
8325.00,1.37
8324.00,1.37
8323.00,1.37
8322.00,1.37
8321.00,1.37
8320.00,1.38
8319.00,1.38
8318.00,1.38
8317.00,1.38
8316.00,1.38
8315.00,1.38
8314.00,1.38
8313.00,1.38
8312.00,1.38
8311.00,1.38
8310.00,1.38
8309.00,1.37
8308.00,1.37
8307.00,1.37
8306.00,1.37
8305.00,1.37
8304.00,1.37
8303.00,1.36
8302.00,1.36
8301.00,1.36
8300.00,1.36
8299.00,1.36
8298.00,1.36
8297.00,1.36
8296.00,1.37
8295.00,1.37
8294.00,1.37
8293.00,1.37
8292.00,1.37
8291.00,1.37
8290.00,1.38
8289.00,1.38
8288.00,1.38
8287.00,1.38
8286.00,1.38
8285.00,1.38
8284.00,1.38
8283.00,1.39
8282.00,1.39
8281.00,1.39
8280.00,1.39
8279.00,1.39
8278.00,1.39
8277.00,1.39
8276.00,1.39
8275.00,1.38
8274.00,1.38
8273.00,1.38
8272.00,1.38
8271.00,1.38
8270.00,1.38
8269.00,1.38
8268.00,1.38
8267.00,1.38
8266.00,1.38
8265.00,1.38
8264.00,1.38
8263.00,1.38
8262.00,1.38
8261.00,1.38
8260.00,1.38
8259.00,1.38
8258.00,1.38
8257.00,1.38
8256.00,1.38
8255.00,1.38
8254.00,1.38
8253.00,1.38
8252.00,1.38
8251.00,1.38
8250.00,1.38
8249.00,1.38
8248.00,1.38
8247.00,1.38
8246.00,1.38
8245.00,1.38
8244.00,1.38
8243.00,1.39
8242.00,1.39
8241.00,1.39
8240.00,1.39
8239.00,1.39
8238.00,1.39
8237.00,1.40
8236.00,1.40
8235.00,1.40
8234.00,1.40
8233.00,1.40
8232.00,1.40
8231.00,1.40
8230.00,1.41
8229.00,1.41
8228.00,1.41
8227.00,1.41
8226.00,1.41
8225.00,1.41
8224.00,1.41
8223.00,1.41
8222.00,1.41
8221.00,1.41
8220.00,1.41
8219.00,1.41
8218.00,1.41
8217.00,1.41
8216.00,1.41
8215.00,1.41
8214.00,1.41
8213.00,1.41
8212.00,1.41
8211.00,1.41
8210.00,1.41
8209.00,1.41
8208.00,1.41
8207.00,1.42
8206.00,1.42
8205.00,1.42
8204.00,1.42
8203.00,1.42
8202.00,1.42
8201.00,1.42
8200.00,1.43
8199.00,1.43
8198.00,1.43
8197.00,1.43
8196.00,1.43
8195.00,1.43
8194.00,1.43
8193.00,1.43
8192.00,1.43
8191.00,1.43
8190.00,1.43
8189.00,1.43
8188.00,1.43
8187.00,1.43
8186.00,1.44
8185.00,1.44
8184.00,1.44
8183.00,1.44
8182.00,1.44
8181.00,1.44
8180.00,1.44
8179.00,1.44
8178.00,1.44
8177.00,1.44
8176.00,1.44
8175.00,1.44
8174.00,1.44
8173.00,1.44
8172.00,1.44
8171.00,1.44
8170.00,1.43
8169.00,1.43
8168.00,1.43
8167.00,1.43
8166.00,1.43
8165.00,1.43
8164.00,1.43
8163.00,1.43
8162.00,1.43
8161.00,1.43
8160.00,1.43
8159.00,1.43
8158.00,1.43
8157.00,1.43
8156.00,1.43
8155.00,1.43
8154.00,1.43
8153.00,1.43
8152.00,1.44
8151.00,1.44
8150.00,1.44
8149.00,1.44
8148.00,1.44
8147.00,1.44
8146.00,1.44
8145.00,1.44
8144.00,1.45
8143.00,1.45
8142.00,1.45
8141.00,1.45
8140.00,1.45
8139.00,1.45
8138.00,1.45
8137.00,1.45
8136.00,1.45
8135.00,1.45
8134.00,1.45
8133.00,1.45
8132.00,1.44
8131.00,1.44
8130.00,1.44
8129.00,1.44
8128.00,1.44
8127.00,1.44
8126.00,1.44
8125.00,1.44
8124.00,1.44
8123.00,1.44
8122.00,1.44
8121.00,1.44
8120.00,1.44
8119.00,1.44
8118.00,1.44
8117.00,1.44
8116.00,1.44
8115.00,1.44
8114.00,1.44
8113.00,1.44
8112.00,1.44
8111.00,1.44
8110.00,1.45
8109.00,1.45
8108.00,1.45
8107.00,1.45
8106.00,1.45
8105.00,1.45
8104.00,1.45
8103.00,1.45
8102.00,1.45
8101.00,1.45
8100.00,1.45
8099.00,1.45
8098.00,1.45
8097.00,1.45
8096.00,1.45
8095.00,1.46
8094.00,1.46
8093.00,1.46
8092.00,1.46
8091.00,1.46
8090.00,1.46
8089.00,1.47
8088.00,1.47
8087.00,1.47
8086.00,1.47
8085.00,1.47
8084.00,1.47
8083.00,1.47
8082.00,1.47
8081.00,1.47
8080.00,1.47
8079.00,1.47
8078.00,1.47
8077.00,1.47
8076.00,1.47
8075.00,1.47
8074.00,1.47
8073.00,1.47
8072.00,1.47
8071.00,1.47
8070.00,1.46
8069.00,1.46
8068.00,1.46
8067.00,1.46
8066.00,1.46
8065.00,1.46
8064.00,1.46
8063.00,1.46
8062.00,1.46
8061.00,1.46
8060.00,1.46
8059.00,1.46
8058.00,1.46
8057.00,1.46
8056.00,1.46
8055.00,1.47
8054.00,1.47
8053.00,1.47
8052.00,1.47
8051.00,1.47
8050.00,1.47
8049.00,1.47
8048.00,1.48
8047.00,1.48
8046.00,1.48
8045.00,1.48
8044.00,1.48
8043.00,1.48
8042.00,1.48
8041.00,1.48
8040.00,1.48
8039.00,1.48
8038.00,1.48
8037.00,1.48
8036.00,1.48
8035.00,1.48
8034.00,1.48
8033.00,1.48
8032.00,1.48
8031.00,1.48
8030.00,1.48
8029.00,1.48
8028.00,1.48
8027.00,1.48
8026.00,1.48
8025.00,1.48
8024.00,1.48
8023.00,1.48
8022.00,1.48
8021.00,1.48
8020.00,1.48
8019.00,1.48
8018.00,1.48
8017.00,1.48
8016.00,1.48
8015.00,1.48
8014.00,1.48
8013.00,1.48
8012.00,1.48
8011.00,1.48
8010.00,1.48
8009.00,1.48
8008.00,1.49
8007.00,1.49
8006.00,1.49
8005.00,1.49
8004.00,1.49
8003.00,1.49
8002.00,1.49
8001.00,1.49
8000.00,1.49
7999.00,1.49
7998.00,1.50
7997.00,1.50
7996.00,1.50
7995.00,1.50
7994.00,1.50
7993.00,1.50
7992.00,1.50
7991.00,1.50
7990.00,1.50
7989.00,1.49
7988.00,1.49
7987.00,1.49
7986.00,1.49
7985.00,1.49
7984.00,1.49
7983.00,1.49
7982.00,1.49
7981.00,1.49
7980.00,1.49
7979.00,1.49
7978.00,1.49
7977.00,1.49
7976.00,1.49
7975.00,1.49
7974.00,1.49
7973.00,1.49
7972.00,1.49
7971.00,1.49
7970.00,1.49
7969.00,1.49
7968.00,1.49
7967.00,1.49
7966.00,1.49
7965.00,1.49
7964.00,1.49
7963.00,1.49
7962.00,1.49
7961.00,1.49
7960.00,1.49
7959.00,1.49
7958.00,1.49
7957.00,1.49
7956.00,1.49
7955.00,1.49
7954.00,1.49
7953.00,1.49
7952.00,1.49
7951.00,1.49
7950.00,1.49
7949.00,1.49
7948.00,1.49
7947.00,1.49
7946.00,1.49
7945.00,1.49
7944.00,1.49
7943.00,1.49
7942.00,1.49
7941.00,1.49
7940.00,1.49
7939.00,1.49
7938.00,1.49
7937.00,1.49
7936.00,1.49
7935.00,1.50
7934.00,1.50
7933.00,1.50
7932.00,1.50
7931.00,1.50
7930.00,1.50
7929.00,1.50
7928.00,1.49
7927.00,1.49
7926.00,1.49
7925.00,1.49
7924.00,1.49
7923.00,1.49
7922.00,1.49
7921.00,1.49
7920.00,1.49
7919.00,1.49
7918.00,1.49
7917.00,1.48
7916.00,1.48
7915.00,1.48
7914.00,1.48
7913.00,1.48
7912.00,1.48
7911.00,1.48
7910.00,1.48
7909.00,1.48
7908.00,1.48
7907.00,1.48
7906.00,1.48
7905.00,1.48
7904.00,1.48
7903.00,1.48
7902.00,1.48
7901.00,1.48
7900.00,1.49
7899.00,1.49
7898.00,1.49
7897.00,1.49
7896.00,1.49
7895.00,1.50
7894.00,1.50
7893.00,1.50
7892.00,1.50
7891.00,1.50
7890.00,1.50
7889.00,1.50
7888.00,1.50
7887.00,1.50
7886.00,1.50
7885.00,1.51
7884.00,1.51
7883.00,1.51
7882.00,1.51
7881.00,1.51
7880.00,1.51
7879.00,1.51
7878.00,1.51
7877.00,1.51
7876.00,1.51
7875.00,1.51
7874.00,1.51
7873.00,1.51
7872.00,1.51
7871.00,1.51
7870.00,1.51
7869.00,1.51
7868.00,1.52
7867.00,1.52
7866.00,1.52
7865.00,1.52
7864.00,1.52
7863.00,1.52
7862.00,1.52
7861.00,1.52
7860.00,1.52
7859.00,1.52
7858.00,1.52
7857.00,1.52
7856.00,1.52
7855.00,1.52
7854.00,1.52
7853.00,1.52
7852.00,1.52
7851.00,1.52
7850.00,1.52
7849.00,1.52
7848.00,1.52
7847.00,1.52
7846.00,1.52
7845.00,1.52
7844.00,1.52
7843.00,1.52
7842.00,1.52
7841.00,1.52
7840.00,1.52
7839.00,1.52
7838.00,1.52
7837.00,1.52
7836.00,1.52
7835.00,1.52
7834.00,1.52
7833.00,1.52
7832.00,1.52
7831.00,1.52
7830.00,1.52
7829.00,1.52
7828.00,1.52
7827.00,1.52
7826.00,1.52
7825.00,1.53
7824.00,1.53
7823.00,1.53
7822.00,1.53
7821.00,1.53
7820.00,1.53
7819.00,1.53
7818.00,1.53
7817.00,1.53
7816.00,1.53
7815.00,1.53
7814.00,1.53
7813.00,1.53
7812.00,1.53
7811.00,1.52
7810.00,1.52
7809.00,1.52
7808.00,1.52
7807.00,1.52
7806.00,1.52
7805.00,1.52
7804.00,1.52
7803.00,1.52
7802.00,1.52
7801.00,1.52
7800.00,1.52
7799.00,1.52
7798.00,1.52
7797.00,1.52
7796.00,1.52
7795.00,1.52
7794.00,1.52
7793.00,1.52
7792.00,1.52
7791.00,1.52
7790.00,1.52
7789.00,1.52
7788.00,1.52
7787.00,1.52
7786.00,1.52
7785.00,1.52
7784.00,1.52
7783.00,1.52
7782.00,1.52
7781.00,1.52
7780.00,1.52
7779.00,1.52
7778.00,1.52
7777.00,1.52
7776.00,1.52
7775.00,1.52
7774.00,1.52
7773.00,1.52
7772.00,1.52
7771.00,1.53
7770.00,1.53
7769.00,1.53
7768.00,1.53
7767.00,1.53
7766.00,1.53
7765.00,1.53
7764.00,1.53
7763.00,1.53
7762.00,1.53
7761.00,1.54
7760.00,1.54
7759.00,1.54
7758.00,1.54
7757.00,1.54
7756.00,1.54
7755.00,1.54
7754.00,1.54
7753.00,1.54
7752.00,1.54
7751.00,1.54
7750.00,1.54
7749.00,1.54
7748.00,1.54
7747.00,1.54
7746.00,1.54
7745.00,1.54
7744.00,1.54
7743.00,1.54
7742.00,1.53
7741.00,1.53
7740.00,1.53
7739.00,1.53
7738.00,1.53
7737.00,1.53
7736.00,1.53
7735.00,1.53
7734.00,1.53
7733.00,1.53
7732.00,1.53
7731.00,1.53
7730.00,1.53
7729.00,1.53
7728.00,1.53
7727.00,1.53
7726.00,1.53
7725.00,1.53
7724.00,1.53
7723.00,1.53
7722.00,1.54
7721.00,1.54
7720.00,1.54
7719.00,1.54
7718.00,1.54
7717.00,1.54
7716.00,1.53
7715.00,1.53
7714.00,1.53
7713.00,1.53
7712.00,1.53
7711.00,1.53
7710.00,1.53
7709.00,1.53
7708.00,1.53
7707.00,1.53
7706.00,1.53
7705.00,1.53
7704.00,1.52
7703.00,1.52
7702.00,1.52
7701.00,1.52
7700.00,1.52
7699.00,1.52
7698.00,1.52
7697.00,1.53
7696.00,1.53
7695.00,1.53
7694.00,1.53
7693.00,1.53
7692.00,1.53
7691.00,1.53
7690.00,1.53
7689.00,1.53
7688.00,1.53
7687.00,1.53
7686.00,1.54
7685.00,1.54
7684.00,1.54
7683.00,1.54
7682.00,1.54
7681.00,1.54
7680.00,1.53
7679.00,1.53
7678.00,1.53
7677.00,1.53
7676.00,1.53
7675.00,1.53
7674.00,1.53
7673.00,1.53
7672.00,1.53
7671.00,1.53
7670.00,1.53
7669.00,1.53
7668.00,1.53
7667.00,1.53
7666.00,1.53
7665.00,1.53
7664.00,1.53
7663.00,1.53
7662.00,1.53
7661.00,1.52
7660.00,1.52
7659.00,1.52
7658.00,1.52
7657.00,1.52
7656.00,1.52
7655.00,1.52
7654.00,1.52
7653.00,1.52
7652.00,1.52
7651.00,1.52
7650.00,1.52
7649.00,1.52
7648.00,1.52
7647.00,1.52
7646.00,1.52
7645.00,1.53
7644.00,1.53
7643.00,1.53
7642.00,1.53
7641.00,1.53
7640.00,1.53
7639.00,1.53
7638.00,1.53
7637.00,1.53
7636.00,1.53
7635.00,1.53
7634.00,1.53
7633.00,1.53
7632.00,1.53
7631.00,1.53
7630.00,1.53
7629.00,1.53
7628.00,1.53
7627.00,1.53
7626.00,1.53
7625.00,1.54
7624.00,1.54
7623.00,1.54
7622.00,1.54
7621.00,1.54
7620.00,1.54
7619.00,1.54
7618.00,1.53
7617.00,1.53
7616.00,1.53
7615.00,1.53
7614.00,1.53
7613.00,1.53
7612.00,1.53
7611.00,1.53
7610.00,1.53
7609.00,1.53
7608.00,1.53
7607.00,1.52
7606.00,1.52
7605.00,1.52
7604.00,1.52
7603.00,1.52
7602.00,1.52
7601.00,1.52
7600.00,1.52
7599.00,1.52
7598.00,1.52
7597.00,1.52
7596.00,1.52
7595.00,1.52
7594.00,1.52
7593.00,1.52
7592.00,1.52
7591.00,1.52
7590.00,1.52
7589.00,1.52
7588.00,1.52
7587.00,1.52
7586.00,1.52
7585.00,1.52
7584.00,1.52
7583.00,1.52
7582.00,1.52
7581.00,1.52
7580.00,1.52
7579.00,1.52
7578.00,1.52
7577.00,1.52
7576.00,1.52
7575.00,1.52
7574.00,1.52
7573.00,1.53
7572.00,1.53
7571.00,1.53
7570.00,1.53
7569.00,1.53
7568.00,1.53
7567.00,1.53
7566.00,1.53
7565.00,1.53
7564.00,1.53
7563.00,1.53
7562.00,1.53
7561.00,1.53
7560.00,1.53
7559.00,1.53
7558.00,1.53
7557.00,1.53
7556.00,1.53
7555.00,1.53
7554.00,1.53
7553.00,1.53
7552.00,1.53
7551.00,1.53
7550.00,1.52
7549.00,1.52
7548.00,1.52
7547.00,1.52
7546.00,1.52
7545.00,1.52
7544.00,1.52
7543.00,1.51
7542.00,1.51
7541.00,1.51
7540.00,1.51
7539.00,1.51
7538.00,1.51
7537.00,1.51
7536.00,1.51
7535.00,1.51
7534.00,1.51
7533.00,1.51
7532.00,1.51
7531.00,1.51
7530.00,1.51
7529.00,1.51
7528.00,1.51
7527.00,1.51
7526.00,1.51
7525.00,1.51
7524.00,1.51
7523.00,1.51
7522.00,1.51
7521.00,1.51
7520.00,1.51
7519.00,1.51
7518.00,1.50
7517.00,1.50
7516.00,1.50
7515.00,1.50
7514.00,1.50
7513.00,1.50
7512.00,1.50
7511.00,1.50
7510.00,1.50
7509.00,1.50
7508.00,1.50
7507.00,1.49
7506.00,1.49
7505.00,1.49
7504.00,1.49
7503.00,1.49
7502.00,1.49
7501.00,1.49
7500.00,1.49
7499.00,1.49
7498.00,1.49
7497.00,1.49
7496.00,1.49
7495.00,1.49
7494.00,1.50
7493.00,1.50
7492.00,1.50
7491.00,1.50
7490.00,1.50
7489.00,1.50
7488.00,1.50
7487.00,1.50
7486.00,1.50
7485.00,1.49
7484.00,1.49
7483.00,1.49
7482.00,1.49
7481.00,1.49
7480.00,1.49
7479.00,1.49
7478.00,1.49
7477.00,1.49
7476.00,1.48
7475.00,1.48
7474.00,1.48
7473.00,1.48
7472.00,1.48
7471.00,1.48
7470.00,1.48
7469.00,1.47
7468.00,1.47
7467.00,1.47
7466.00,1.47
7465.00,1.47
7464.00,1.47
7463.00,1.47
7462.00,1.47
7461.00,1.47
7460.00,1.47
7459.00,1.47
7458.00,1.46
7457.00,1.46
7456.00,1.46
7455.00,1.46
7454.00,1.46
7453.00,1.46
7452.00,1.46
7451.00,1.46
7450.00,1.46
7449.00,1.46
7448.00,1.46
7447.00,1.46
7446.00,1.46
7445.00,1.46
7444.00,1.46
7443.00,1.46
7442.00,1.46
7441.00,1.46
7440.00,1.46
7439.00,1.46
7438.00,1.46
7437.00,1.46
7436.00,1.45
7435.00,1.45
7434.00,1.45
7433.00,1.45
7432.00,1.45
7431.00,1.45
7430.00,1.45
7429.00,1.45
7428.00,1.45
7427.00,1.45
7426.00,1.45
7425.00,1.45
7424.00,1.45
7423.00,1.45
7422.00,1.45
7421.00,1.45
7420.00,1.45
7419.00,1.45
7418.00,1.45
7417.00,1.44
7416.00,1.44
7415.00,1.44
7414.00,1.44
7413.00,1.44
7412.00,1.44
7411.00,1.44
7410.00,1.44
7409.00,1.44
7408.00,1.44
7407.00,1.44
7406.00,1.43
7405.00,1.43
7404.00,1.43
7403.00,1.43
7402.00,1.43
7401.00,1.43
7400.00,1.43
7399.00,1.42
7398.00,1.42
7397.00,1.42
7396.00,1.42
7395.00,1.42
7394.00,1.42
7393.00,1.42
7392.00,1.42
7391.00,1.41
7390.00,1.41
7389.00,1.41
7388.00,1.41
7387.00,1.41
7386.00,1.41
7385.00,1.41
7384.00,1.41
7383.00,1.41
7382.00,1.40
7381.00,1.40
7380.00,1.40
7379.00,1.40
7378.00,1.40
7377.00,1.40
7376.00,1.40
7375.00,1.40
7374.00,1.40
7373.00,1.40
7372.00,1.40
7371.00,1.40
7370.00,1.40
7369.00,1.40
7368.00,1.40
7367.00,1.40
7366.00,1.40
7365.00,1.40
7364.00,1.40
7363.00,1.40
7362.00,1.39
7361.00,1.39
7360.00,1.39
7359.00,1.39
7358.00,1.39
7357.00,1.39
7356.00,1.39
7355.00,1.39
7354.00,1.38
7353.00,1.38
7352.00,1.38
7351.00,1.38
7350.00,1.38
7349.00,1.38
7348.00,1.38
7347.00,1.38
7346.00,1.38
7345.00,1.38
7344.00,1.38
7343.00,1.38
7342.00,1.38
7341.00,1.38
7340.00,1.38
7339.00,1.38
7338.00,1.38
7337.00,1.38
7336.00,1.38
7335.00,1.38
7334.00,1.38
7333.00,1.38
7332.00,1.38
7331.00,1.38
7330.00,1.38
7329.00,1.38
7328.00,1.38
7327.00,1.38
7326.00,1.38
7325.00,1.38
7324.00,1.38
7323.00,1.37
7322.00,1.37
7321.00,1.37
7320.00,1.37
7319.00,1.37
7318.00,1.37
7317.00,1.36
7316.00,1.36
7315.00,1.36
7314.00,1.36
7313.00,1.36
7312.00,1.36
7311.00,1.36
7310.00,1.36
7309.00,1.36
7308.00,1.36
7307.00,1.36
7306.00,1.35
7305.00,1.35
7304.00,1.35
7303.00,1.35
7302.00,1.35
7301.00,1.35
7300.00,1.35
7299.00,1.35
7298.00,1.34
7297.00,1.34
7296.00,1.34
7295.00,1.34
7294.00,1.34
7293.00,1.34
7292.00,1.34
7291.00,1.34
7290.00,1.33
7289.00,1.33
7288.00,1.33
7287.00,1.33
7286.00,1.33
7285.00,1.33
7284.00,1.33
7283.00,1.33
7282.00,1.33
7281.00,1.33
7280.00,1.33
7279.00,1.33
7278.00,1.32
7277.00,1.32
7276.00,1.32
7275.00,1.32
7274.00,1.32
7273.00,1.32
7272.00,1.32
7271.00,1.32
7270.00,1.32
7269.00,1.31
7268.00,1.31
7267.00,1.31
7266.00,1.31
7265.00,1.31
7264.00,1.31
7263.00,1.31
7262.00,1.31
7261.00,1.31
7260.00,1.31
7259.00,1.30
7258.00,1.30
7257.00,1.30
7256.00,1.30
7255.00,1.30
7254.00,1.30
7253.00,1.30
7252.00,1.29
7251.00,1.29
7250.00,1.29
7249.00,1.29
7248.00,1.28
7247.00,1.28
7246.00,1.28
7245.00,1.28
7244.00,1.27
7243.00,1.27
7242.00,1.27
7241.00,1.27
7240.00,1.26
7239.00,1.26
7238.00,1.26
7237.00,1.25
7236.00,1.25
7235.00,1.25
7234.00,1.24
7233.00,1.24
7232.00,1.23
7231.00,1.23
7230.00,1.22
7229.00,1.22
7228.00,1.22
7227.00,1.21
7226.00,1.21
7225.00,1.20
7224.00,1.20
7223.00,1.19
7222.00,1.19
7221.00,1.19
7220.00,1.18
7219.00,1.18
7218.00,1.17
7217.00,1.17
7216.00,1.17
7215.00,1.16
7214.00,1.16
7213.00,1.16
7212.00,1.15
7211.00,1.15
7210.00,1.15
7209.00,1.14
7208.00,1.14
7207.00,1.14
7206.00,1.13
7205.00,1.13
7204.00,1.13
7203.00,1.12
7202.00,1.12
7201.00,1.11
7200.00,1.11
7199.00,1.11
7198.00,1.10
7197.00,1.10
7196.00,1.10
7195.00,1.09
7194.00,1.09
7193.00,1.09
7192.00,1.08
7191.00,1.08
7190.00,1.08
7189.00,1.07
7188.00,1.07
7187.00,1.07
7186.00,1.06
7185.00,1.06
7184.00,1.06
7183.00,1.05
7182.00,1.05
7181.00,1.05
7180.00,1.04
7179.00,1.04
7178.00,1.04
7177.00,1.03
7176.00,1.03
7175.00,1.03
7174.00,1.02
7173.00,1.02
7172.00,1.02
7171.00,1.01
7170.00,1.01
7169.00,1.01
7168.00,1.00
7167.00,1.00
7166.00,0.99
7165.00,0.99
7164.00,0.99
7163.00,0.98
7162.00,0.98
7161.00,0.98
7160.00,0.98
7159.00,0.97
7158.00,0.97
7157.00,0.97
7156.00,0.97
7155.00,0.96
7154.00,0.96
7153.00,0.96
7152.00,0.96
7151.00,0.96
7150.00,0.95
7149.00,0.95
7148.00,0.95
7147.00,0.95
7146.00,0.94
7145.00,0.94
7144.00,0.94
7143.00,0.94
7142.00,0.93
7141.00,0.93
7140.00,0.93
7139.00,0.92
7138.00,0.92
7137.00,0.92
7136.00,0.92
7135.00,0.91
7134.00,0.91
7133.00,0.91
7132.00,0.91
7131.00,0.90
7130.00,0.90
7129.00,0.90
7128.00,0.90
7127.00,0.90
7126.00,0.89
7125.00,0.89
7124.00,0.89
7123.00,0.89
7122.00,0.89
7121.00,0.88
7120.00,0.88
7119.00,0.88
7118.00,0.88
7117.00,0.87
7116.00,0.87
7115.00,0.87
7114.00,0.87
7113.00,0.87
7112.00,0.86
7111.00,0.86
7110.00,0.86
7109.00,0.86
7108.00,0.85
7107.00,0.85
7106.00,0.85
7105.00,0.85
7104.00,0.85
7103.00,0.84
7102.00,0.84
7101.00,0.84
7100.00,0.84
7099.00,0.83
7098.00,0.83
7097.00,0.83
7096.00,0.83
7095.00,0.83
7094.00,0.82
7093.00,0.82
7092.00,0.82
7091.00,0.82
7090.00,0.82
7089.00,0.81
7088.00,0.81
7087.00,0.81
7086.00,0.81
7085.00,0.81
7084.00,0.80
7083.00,0.80
7082.00,0.80
7081.00,0.80
7080.00,0.80
7079.00,0.80
7078.00,0.79
7077.00,0.79
7076.00,0.79
7075.00,0.79
7074.00,0.79
7073.00,0.79
7072.00,0.79
7071.00,0.78
7070.00,0.78
7069.00,0.78
7068.00,0.78
7067.00,0.78
7066.00,0.78
7065.00,0.78
7064.00,0.78
7063.00,0.78
7062.00,0.77
7061.00,0.77
7060.00,0.77
7059.00,0.77
7058.00,0.77
7057.00,0.77
7056.00,0.77
7055.00,0.77
7054.00,0.76
7053.00,0.76
7052.00,0.76
7051.00,0.76
7050.00,0.76
7049.00,0.76
7048.00,0.76
7047.00,0.76
7046.00,0.76
7045.00,0.75
7044.00,0.75
7043.00,0.75
7042.00,0.75
7041.00,0.75
7040.00,0.75
7039.00,0.75
7038.00,0.75
7037.00,0.75
7036.00,0.75
7035.00,0.75
7034.00,0.75
7033.00,0.75
7032.00,0.75
7031.00,0.74
7030.00,0.74
7029.00,0.74
7028.00,0.74
7027.00,0.74
7026.00,0.74
7025.00,0.74
7024.00,0.73
7023.00,0.73
7022.00,0.73
7021.00,0.73
7020.00,0.73
7019.00,0.73
7018.00,0.73
7017.00,0.72
7016.00,0.72
7015.00,0.72
7014.00,0.72
7013.00,0.72
7012.00,0.72
7011.00,0.72
7010.00,0.72
7009.00,0.72
7008.00,0.72
7007.00,0.72
7006.00,0.72
7005.00,0.72
7004.00,0.72
7003.00,0.72
7002.00,0.72
7001.00,0.72
7000.00,0.72
6999.00,0.72
6998.00,0.72
6997.00,0.72
6996.00,0.72
6995.00,0.72
6994.00,0.72
6993.00,0.72
6992.00,0.72
6991.00,0.72
6990.00,0.72
6989.00,0.72
6988.00,0.72
6987.00,0.72
6986.00,0.72
6985.00,0.72
6984.00,0.72
6983.00,0.72
6982.00,0.72
6981.00,0.72
6980.00,0.72
6979.00,0.72
6978.00,0.72
6977.00,0.72
6976.00,0.72
6975.00,0.72
6974.00,0.72
6973.00,0.72
6972.00,0.72
6971.00,0.72
6970.00,0.72
6969.00,0.72
6968.00,0.72
6967.00,0.71
6966.00,0.71
6965.00,0.71
6964.00,0.71
6963.00,0.71
6962.00,0.71
6961.00,0.71
6960.00,0.71
6959.00,0.71
6958.00,0.71
6957.00,0.71
6956.00,0.71
6955.00,0.70
6954.00,0.70
6953.00,0.70
6952.00,0.70
6951.00,0.70
6950.00,0.70
6949.00,0.70
6948.00,0.70
6947.00,0.70
6946.00,0.70
6945.00,0.71
6944.00,0.71
6943.00,0.71
6942.00,0.71
6941.00,0.71
6940.00,0.71
6939.00,0.71
6938.00,0.71
6937.00,0.71
6936.00,0.71
6935.00,0.71
6934.00,0.71
6933.00,0.70
6932.00,0.70
6931.00,0.70
6930.00,0.70
6929.00,0.70
6928.00,0.70
6927.00,0.70
6926.00,0.70
6925.00,0.70
6924.00,0.70
6923.00,0.70
6922.00,0.70
6921.00,0.70
6920.00,0.70
6919.00,0.70
6918.00,0.70
6917.00,0.70
6916.00,0.70
6915.00,0.70
6914.00,0.70
6913.00,0.70
6912.00,0.70
6911.00,0.70
6910.00,0.70
6909.00,0.70
6908.00,0.70
6907.00,0.70
6906.00,0.70
6905.00,0.70
6904.00,0.70
6903.00,0.70
6902.00,0.70
6901.00,0.70
6900.00,0.70
6899.00,0.70
6898.00,0.70
6897.00,0.70
6896.00,0.70
6895.00,0.70
6894.00,0.70
6893.00,0.70
6892.00,0.70
6891.00,0.70
6890.00,0.70
6889.00,0.69
6888.00,0.69
6887.00,0.69
6886.00,0.69
6885.00,0.69
6884.00,0.69
6883.00,0.69
6882.00,0.69
6881.00,0.69
6880.00,0.69
6879.00,0.69
6878.00,0.69
6877.00,0.69
6876.00,0.69
6875.00,0.69
6874.00,0.69
6873.00,0.69
6872.00,0.69
6871.00,0.69
6870.00,0.69
6869.00,0.69
6868.00,0.69
6867.00,0.69
6866.00,0.69
6865.00,0.69
6864.00,0.69
6863.00,0.69
6862.00,0.69
6861.00,0.69
6860.00,0.69
6859.00,0.69
6858.00,0.69
6857.00,0.69
6856.00,0.70
6855.00,0.70
6854.00,0.70
6853.00,0.70
6852.00,0.70
6851.00,0.70
6850.00,0.70
6849.00,0.70
6848.00,0.70
6847.00,0.70
6846.00,0.70
6845.00,0.70
6844.00,0.70
6843.00,0.70
6842.00,0.70
6841.00,0.70
6840.00,0.70
6839.00,0.70
6838.00,0.70
6837.00,0.70
6836.00,0.70
6835.00,0.70
6834.00,0.70
6833.00,0.70
6832.00,0.70
6831.00,0.70
6830.00,0.70
6829.00,0.70
6828.00,0.70
6827.00,0.70
6826.00,0.70
6825.00,0.70
6824.00,0.71
6823.00,0.71
6822.00,0.71
6821.00,0.71
6820.00,0.71
6819.00,0.71
6818.00,0.71
6817.00,0.71
6816.00,0.71
6815.00,0.71
6814.00,0.71
6813.00,0.71
6812.00,0.71
6811.00,0.71
6810.00,0.71
6809.00,0.71
6808.00,0.71
6807.00,0.71
6806.00,0.71
6805.00,0.71
6804.00,0.71
6803.00,0.71
6802.00,0.71
6801.00,0.71
6800.00,0.71
6799.00,0.71
6798.00,0.72
6797.00,0.72
6796.00,0.72
6795.00,0.72
6794.00,0.72
6793.00,0.72
6792.00,0.72
6791.00,0.72
6790.00,0.72
6789.00,0.72
6788.00,0.72
6787.00,0.72
6786.00,0.72
6785.00,0.72
6784.00,0.72
6783.00,0.72
6782.00,0.72
6781.00,0.72
6780.00,0.72
6779.00,0.72
6778.00,0.72
6777.00,0.73
6776.00,0.73
6775.00,0.73
6774.00,0.73
6773.00,0.73
6772.00,0.73
6771.00,0.73
6770.00,0.73
6769.00,0.73
6768.00,0.73
6767.00,0.73
6766.00,0.73
6765.00,0.73
6764.00,0.73
6763.00,0.73
6762.00,0.73
6761.00,0.73
6760.00,0.73
6759.00,0.73
6758.00,0.73
6757.00,0.73
6756.00,0.73
6755.00,0.73
6754.00,0.73
6753.00,0.73
6752.00,0.73
6751.00,0.74
6750.00,0.74
6749.00,0.74
6748.00,0.74
6747.00,0.74
6746.00,0.74
6745.00,0.74
6744.00,0.74
6743.00,0.74
6742.00,0.74
6741.00,0.74
6740.00,0.74
6739.00,0.74
6738.00,0.74
6737.00,0.74
6736.00,0.75
6735.00,0.75
6734.00,0.75
6733.00,0.75
6732.00,0.75
6731.00,0.75
6730.00,0.75
6729.00,0.75
6728.00,0.75
6727.00,0.75
6726.00,0.75
6725.00,0.75
6724.00,0.75
6723.00,0.76
6722.00,0.76
6721.00,0.76
6720.00,0.76
6719.00,0.76
6718.00,0.76
6717.00,0.76
6716.00,0.76
6715.00,0.76
6714.00,0.76
6713.00,0.77
6712.00,0.77
6711.00,0.77
6710.00,0.77
6709.00,0.77
6708.00,0.77
6707.00,0.77
6706.00,0.77
6705.00,0.77
6704.00,0.77
6703.00,0.78
6702.00,0.78
6701.00,0.78
6700.00,0.78
6699.00,0.78
6698.00,0.78
6697.00,0.78
6696.00,0.78
6695.00,0.78
6694.00,0.78
6693.00,0.78
6692.00,0.79
6691.00,0.79
6690.00,0.79
6689.00,0.79
6688.00,0.79
6687.00,0.79
6686.00,0.79
6685.00,0.79
6684.00,0.79
6683.00,0.79
6682.00,0.79
6681.00,0.79
6680.00,0.79
6679.00,0.79
6678.00,0.79
6677.00,0.79
6676.00,0.79
6675.00,0.79
6674.00,0.79
6673.00,0.79
6672.00,0.79
6671.00,0.79
6670.00,0.80
6669.00,0.80
6668.00,0.80
6667.00,0.80
6666.00,0.80
6665.00,0.80
6664.00,0.80
6663.00,0.80
6662.00,0.80
6661.00,0.80
6660.00,0.80
6659.00,0.81
6658.00,0.81
6657.00,0.81
6656.00,0.81
6655.00,0.81
6654.00,0.81
6653.00,0.81
6652.00,0.81
6651.00,0.82
6650.00,0.82
6649.00,0.82
6648.00,0.82
6647.00,0.82
6646.00,0.82
6645.00,0.82
6644.00,0.82
6643.00,0.82
6642.00,0.83
6641.00,0.83
6640.00,0.83
6639.00,0.83
6638.00,0.83
6637.00,0.83
6636.00,0.83
6635.00,0.83
6634.00,0.83
6633.00,0.83
6632.00,0.84
6631.00,0.84
6630.00,0.84
6629.00,0.84
6628.00,0.84
6627.00,0.84
6626.00,0.84
6625.00,0.84
6624.00,0.84
6623.00,0.84
6622.00,0.84
6621.00,0.85
6620.00,0.85
6619.00,0.85
6618.00,0.85
6617.00,0.85
6616.00,0.85
6615.00,0.85
6614.00,0.85
6613.00,0.85
6612.00,0.85
6611.00,0.85
6610.00,0.85
6609.00,0.85
6608.00,0.86
6607.00,0.86
6606.00,0.86
6605.00,0.86
6604.00,0.86
6603.00,0.86
6602.00,0.86
6601.00,0.86
6600.00,0.87
6599.00,0.87
6598.00,0.87
6597.00,0.87
6596.00,0.87
6595.00,0.87
6594.00,0.87
6593.00,0.87
6592.00,0.87
6591.00,0.87
6590.00,0.88
6589.00,0.88
6588.00,0.88
6587.00,0.88
6586.00,0.88
6585.00,0.88
6584.00,0.88
6583.00,0.88
6582.00,0.88
6581.00,0.88
6580.00,0.89
6579.00,0.89
6578.00,0.89
6577.00,0.89
6576.00,0.89
6575.00,0.89
6574.00,0.89
6573.00,0.89
6572.00,0.89
6571.00,0.89
6570.00,0.89
6569.00,0.89
6568.00,0.89
6567.00,0.89
6566.00,0.89
6565.00,0.89
6564.00,0.90
6563.00,0.90
6562.00,0.90
6561.00,0.90
6560.00,0.90
6559.00,0.90
6558.00,0.90
6557.00,0.90
6556.00,0.90
6555.00,0.90
6554.00,0.90
6553.00,0.90
6552.00,0.91
6551.00,0.91
6550.00,0.91
6549.00,0.91
6548.00,0.91
6547.00,0.91
6546.00,0.91
6545.00,0.91
6544.00,0.91
6543.00,0.91
6542.00,0.91
6541.00,0.91
6540.00,0.91
6539.00,0.92
6538.00,0.92
6537.00,0.92
6536.00,0.92
6535.00,0.92
6534.00,0.92
6533.00,0.92
6532.00,0.92
6531.00,0.92
6530.00,0.93
6529.00,0.93
6528.00,0.93
6527.00,0.93
6526.00,0.93
6525.00,0.93
6524.00,0.93
6523.00,0.93
6522.00,0.93
6521.00,0.93
6520.00,0.93
6519.00,0.93
6518.00,0.93
6517.00,0.94
6516.00,0.94
6515.00,0.94
6514.00,0.94
6513.00,0.94
6512.00,0.94
6511.00,0.94
6510.00,0.94
6509.00,0.94
6508.00,0.94
6507.00,0.94
6506.00,0.95
6505.00,0.95
6504.00,0.95
6503.00,0.95
6502.00,0.95
6501.00,0.95
6500.00,0.95
6499.00,0.95
6498.00,0.95
6497.00,0.95
6496.00,0.95
6495.00,0.95
6494.00,0.95
6493.00,0.95
6492.00,0.95
6491.00,0.96
6490.00,0.96
6489.00,0.96
6488.00,0.96
6487.00,0.96
6486.00,0.96
6485.00,0.96
6484.00,0.96
6483.00,0.96
6482.00,0.96
6481.00,0.97
6480.00,0.97
6479.00,0.97
6478.00,0.97
6477.00,0.97
6476.00,0.97
6475.00,0.97
6474.00,0.97
6473.00,0.97
6472.00,0.98
6471.00,0.98
6470.00,0.98
6469.00,0.98
6468.00,0.98
6467.00,0.98
6466.00,0.98
6465.00,0.98
6464.00,0.98
6463.00,0.98
6462.00,0.98
6461.00,0.98
6460.00,0.98
6459.00,0.98
6458.00,0.98
6457.00,0.98
6456.00,0.98
6455.00,0.98
6454.00,0.98
6453.00,0.98
6452.00,0.98
6451.00,0.98
6450.00,0.99
6449.00,0.99
6448.00,0.99
6447.00,0.99
6446.00,0.99
6445.00,0.99
6444.00,0.99
6443.00,0.99
6442.00,0.99
6441.00,0.99
6440.00,0.99
6439.00,0.99
6438.00,0.99
6437.00,0.99
6436.00,1.00
6435.00,1.00
6434.00,1.00
6433.00,1.00
6432.00,1.00
6431.00,1.00
6430.00,1.00
6429.00,1.00
6428.00,1.00
6427.00,1.00
6426.00,1.00
6425.00,1.00
6424.00,1.00
6423.00,1.00
6422.00,1.00
6421.00,1.00
6420.00,1.00
6419.00,1.00
6418.00,1.00
6417.00,1.00
6416.00,1.00
6415.00,1.00
6414.00,1.00
6413.00,1.00
6412.00,1.01
6411.00,1.01
6410.00,1.01
6409.00,1.01
6408.00,1.01
6407.00,1.01
6406.00,1.01
6405.00,1.01
6404.00,1.01
6403.00,1.01
6402.00,1.02
6401.00,1.02
6400.00,1.02
6399.00,1.02
6398.00,1.02
6397.00,1.02
6396.00,1.02
6395.00,1.02
6394.00,1.02
6393.00,1.03
6392.00,1.03
6391.00,1.03
6390.00,1.03
6389.00,1.03
6388.00,1.03
6387.00,1.03
6386.00,1.03
6385.00,1.03
6384.00,1.03
6383.00,1.03
6382.00,1.03
6381.00,1.03
6380.00,1.03
6379.00,1.03
6378.00,1.03
6377.00,1.03
6376.00,1.04
6375.00,1.04
6374.00,1.04
6373.00,1.04
6372.00,1.04
6371.00,1.04
6370.00,1.04
6369.00,1.04
6368.00,1.04
6367.00,1.04
6366.00,1.04
6365.00,1.04
6364.00,1.04
6363.00,1.05
6362.00,1.05
6361.00,1.05
6360.00,1.05
6359.00,1.05
6358.00,1.05
6357.00,1.05
6356.00,1.05
6355.00,1.05
6354.00,1.05
6353.00,1.06
6352.00,1.06
6351.00,1.06
6350.00,1.06
6349.00,1.06
6348.00,1.06
6347.00,1.06
6346.00,1.06
6345.00,1.06
6344.00,1.06
6343.00,1.06
6342.00,1.07
6341.00,1.07
6340.00,1.07
6339.00,1.07
6338.00,1.07
6337.00,1.07
6336.00,1.07
6335.00,1.07
6334.00,1.07
6333.00,1.07
6332.00,1.07
6331.00,1.08
6330.00,1.08
6329.00,1.08
6328.00,1.08
6327.00,1.08
6326.00,1.08
6325.00,1.08
6324.00,1.08
6323.00,1.08
6322.00,1.08
6321.00,1.09
6320.00,1.09
6319.00,1.09
6318.00,1.09
6317.00,1.09
6316.00,1.09
6315.00,1.09
6314.00,1.09
6313.00,1.09
6312.00,1.09
6311.00,1.09
6310.00,1.10
6309.00,1.10
6308.00,1.10
6307.00,1.10
6306.00,1.10
6305.00,1.10
6304.00,1.10
6303.00,1.10
6302.00,1.10
6301.00,1.10
6300.00,1.10
6299.00,1.10
6298.00,1.11
6297.00,1.11
6296.00,1.11
6295.00,1.11
6294.00,1.11
6293.00,1.11
6292.00,1.11
6291.00,1.11
6290.00,1.12
6289.00,1.12
6288.00,1.12
6287.00,1.12
6286.00,1.12
6285.00,1.12
6284.00,1.12
6283.00,1.12
6282.00,1.12
6281.00,1.13
6280.00,1.13
6279.00,1.13
6278.00,1.13
6277.00,1.13
6276.00,1.13
6275.00,1.13
6274.00,1.13
6273.00,1.13
6272.00,1.13
6271.00,1.13
6270.00,1.13
6269.00,1.14
6268.00,1.14
6267.00,1.14
6266.00,1.14
6265.00,1.14
6264.00,1.14
6263.00,1.14
6262.00,1.15
6261.00,1.15
6260.00,1.15
6259.00,1.15
6258.00,1.15
6257.00,1.15
6256.00,1.15
6255.00,1.16
6254.00,1.16
6253.00,1.16
6252.00,1.16
6251.00,1.16
6250.00,1.16
6249.00,1.16
6248.00,1.16
6247.00,1.16
6246.00,1.17
6245.00,1.17
6244.00,1.17
6243.00,1.17
6242.00,1.17
6241.00,1.17
6240.00,1.17
6239.00,1.17
6238.00,1.17
6237.00,1.18
6236.00,1.18
6235.00,1.18
6234.00,1.18
6233.00,1.18
6232.00,1.18
6231.00,1.18
6230.00,1.18
6229.00,1.19
6228.00,1.19
6227.00,1.19
6226.00,1.19
6225.00,1.19
6224.00,1.19
6223.00,1.19
6222.00,1.20
6221.00,1.20
6220.00,1.20
6219.00,1.20
6218.00,1.20
6217.00,1.20
6216.00,1.20
6215.00,1.20
6214.00,1.21
6213.00,1.21
6212.00,1.21
6211.00,1.21
6210.00,1.21
6209.00,1.21
6208.00,1.21
6207.00,1.21
6206.00,1.22
6205.00,1.22
6204.00,1.22
6203.00,1.22
6202.00,1.22
6201.00,1.22
6200.00,1.23
6199.00,1.23
6198.00,1.23
6197.00,1.23
6196.00,1.23
6195.00,1.23
6194.00,1.23
6193.00,1.23
6192.00,1.24
6191.00,1.24
6190.00,1.24
6189.00,1.24
6188.00,1.24
6187.00,1.24
6186.00,1.24
6185.00,1.24
6184.00,1.24
6183.00,1.25
6182.00,1.25
6181.00,1.25
6180.00,1.25
6179.00,1.25
6178.00,1.25
6177.00,1.25
6176.00,1.26
6175.00,1.26
6174.00,1.26
6173.00,1.26
6172.00,1.27
6171.00,1.27
6170.00,1.27
6169.00,1.27
6168.00,1.28
6167.00,1.28
6166.00,1.28
6165.00,1.28
6164.00,1.29
6163.00,1.29
6162.00,1.29
6161.00,1.29
6160.00,1.29
6159.00,1.29
6158.00,1.30
6157.00,1.30
6156.00,1.30
6155.00,1.30
6154.00,1.30
6153.00,1.30
6152.00,1.30
6151.00,1.30
6150.00,1.30
6149.00,1.30
6148.00,1.30
6147.00,1.31
6146.00,1.31
6145.00,1.31
6144.00,1.31
6143.00,1.31
6142.00,1.31
6141.00,1.31
6140.00,1.31
6139.00,1.31
6138.00,1.31
6137.00,1.32
6136.00,1.32
6135.00,1.32
6134.00,1.32
6133.00,1.32
6132.00,1.32
6131.00,1.32
6130.00,1.33
6129.00,1.33
6128.00,1.33
6127.00,1.33
6126.00,1.33
6125.00,1.33
6124.00,1.34
6123.00,1.34
6122.00,1.34
6121.00,1.34
6120.00,1.34
6119.00,1.34
6118.00,1.35
6117.00,1.35
6116.00,1.35
6115.00,1.35
6114.00,1.35
6113.00,1.35
6112.00,1.35
6111.00,1.35
6110.00,1.36
6109.00,1.36
6108.00,1.36
6107.00,1.36
6106.00,1.36
6105.00,1.36
6104.00,1.36
6103.00,1.37
6102.00,1.37
6101.00,1.37
6100.00,1.37
6099.00,1.37
6098.00,1.37
6097.00,1.37
6096.00,1.37
6095.00,1.38
6094.00,1.38
6093.00,1.38
6092.00,1.38
6091.00,1.38
6090.00,1.38
6089.00,1.38
6088.00,1.38
6087.00,1.39
6086.00,1.39
6085.00,1.39
6084.00,1.39
6083.00,1.39
6082.00,1.39
6081.00,1.39
6080.00,1.39
6079.00,1.40
6078.00,1.40
6077.00,1.40
6076.00,1.40
6075.00,1.40
6074.00,1.40
6073.00,1.40
6072.00,1.41
6071.00,1.41
6070.00,1.41
6069.00,1.41
6068.00,1.41
6067.00,1.41
6066.00,1.42
6065.00,1.42
6064.00,1.42
6063.00,1.42
6062.00,1.42
6061.00,1.42
6060.00,1.42
6059.00,1.42
6058.00,1.43
6057.00,1.43
6056.00,1.43
6055.00,1.43
6054.00,1.43
6053.00,1.43
6052.00,1.43
6051.00,1.43
6050.00,1.43
6049.00,1.43
6048.00,1.43
6047.00,1.43
6046.00,1.44
6045.00,1.44
6044.00,1.44
6043.00,1.44
6042.00,1.44
6041.00,1.44
6040.00,1.44
6039.00,1.44
6038.00,1.44
6037.00,1.44
6036.00,1.44
6035.00,1.44
6034.00,1.44
6033.00,1.44
6032.00,1.45
6031.00,1.45
6030.00,1.45
6029.00,1.45
6028.00,1.45
6027.00,1.45
6026.00,1.45
6025.00,1.45
6024.00,1.45
6023.00,1.45
6022.00,1.45
6021.00,1.45
6020.00,1.45
6019.00,1.45
6018.00,1.45
6017.00,1.45
6016.00,1.45
6015.00,1.45
6014.00,1.45
6013.00,1.45
6012.00,1.45
6011.00,1.45
6010.00,1.45
6009.00,1.45
6008.00,1.45
6007.00,1.45
6006.00,1.45
6005.00,1.45
6004.00,1.45
6003.00,1.45
6002.00,1.45
6001.00,1.45
6000.00,1.45
5999.00,1.45
5998.00,1.45
5997.00,1.44
5996.00,1.44
5995.00,1.44
5994.00,1.44
5993.00,1.44
5992.00,1.43
5991.00,1.43
5990.00,1.43
5989.00,1.43
5988.00,1.42
5987.00,1.42
5986.00,1.42
5985.00,1.42
5984.00,1.41
5983.00,1.41
5982.00,1.41
5981.00,1.40
5980.00,1.40
5979.00,1.40
5978.00,1.39
5977.00,1.39
5976.00,1.38
5975.00,1.38
5974.00,1.38
5973.00,1.37
5972.00,1.37
5971.00,1.36
5970.00,1.35
5969.00,1.35
5968.00,1.34
5967.00,1.34
5966.00,1.33
5965.00,1.32
5964.00,1.32
5963.00,1.31
5962.00,1.30
5961.00,1.29
5960.00,1.29
5959.00,1.28
5958.00,1.27
5957.00,1.26
5956.00,1.26
5955.00,1.25
5954.00,1.24
5953.00,1.24
5952.00,1.23
5951.00,1.22
5950.00,1.22
5949.00,1.21
5948.00,1.21
5947.00,1.20
5946.00,1.20
5945.00,1.20
5944.00,1.19
5943.00,1.19
5942.00,1.19
5941.00,1.18
5940.00,1.18
5939.00,1.18
5938.00,1.18
5937.00,1.18
5936.00,1.18
5935.00,1.17
5934.00,1.17
5933.00,1.17
5932.00,1.17
5931.00,1.17
5930.00,1.17
5929.00,1.17
5928.00,1.17
5927.00,1.17
5926.00,1.17
5925.00,1.16
5924.00,1.16
5923.00,1.16
5922.00,1.16
5921.00,1.16
5920.00,1.16
5919.00,1.15
5918.00,1.15
5917.00,1.15
5916.00,1.15
5915.00,1.14
5914.00,1.14
5913.00,1.14
5912.00,1.14
5911.00,1.14
5910.00,1.13
5909.00,1.13
5908.00,1.13
5907.00,1.13
5906.00,1.13
5905.00,1.12
5904.00,1.12
5903.00,1.12
5902.00,1.12
5901.00,1.12
5900.00,1.12
5899.00,1.12
5898.00,1.13
5897.00,1.13
5896.00,1.13
5895.00,1.13
5894.00,1.13
5893.00,1.13
5892.00,1.14
5891.00,1.14
5890.00,1.14
5889.00,1.14
5888.00,1.15
5887.00,1.15
5886.00,1.15
5885.00,1.16
5884.00,1.16
5883.00,1.16
5882.00,1.16
5881.00,1.17
5880.00,1.17
5879.00,1.17
5878.00,1.18
5877.00,1.18
5876.00,1.18
5875.00,1.18
5874.00,1.19
5873.00,1.19
5872.00,1.19
5871.00,1.19
5870.00,1.19
5869.00,1.20
5868.00,1.20
5867.00,1.20
5866.00,1.20
5865.00,1.20
5864.00,1.20
5863.00,1.21
5862.00,1.21
5861.00,1.21
5860.00,1.21
5859.00,1.21
5858.00,1.21
5857.00,1.21
5856.00,1.21
5855.00,1.22
5854.00,1.22
5853.00,1.22
5852.00,1.22
5851.00,1.22
5850.00,1.22
5849.00,1.22
5848.00,1.22
5847.00,1.22
5846.00,1.22
5845.00,1.22
5844.00,1.22
5843.00,1.22
5842.00,1.22
5841.00,1.22
5840.00,1.22
5839.00,1.22
5838.00,1.22
5837.00,1.22
5836.00,1.22
5835.00,1.22
5834.00,1.22
5833.00,1.22
5832.00,1.22
5831.00,1.22
5830.00,1.22
5829.00,1.22
5828.00,1.22
5827.00,1.22
5826.00,1.22
5825.00,1.22
5824.00,1.22
5823.00,1.22
5822.00,1.22
5821.00,1.22
5820.00,1.22
5819.00,1.22
5818.00,1.22
5817.00,1.22
5816.00,1.22
5815.00,1.22
5814.00,1.22
5813.00,1.22
5812.00,1.22
5811.00,1.22
5810.00,1.22
5809.00,1.22
5808.00,1.22
5807.00,1.22
5806.00,1.22
5805.00,1.22
5804.00,1.22
5803.00,1.22
5802.00,1.22
5801.00,1.22
5800.00,1.21
5799.00,1.21
5798.00,1.21
5797.00,1.21
5796.00,1.21
5795.00,1.21
5794.00,1.21
5793.00,1.20
5792.00,1.20
5791.00,1.20
5790.00,1.20
5789.00,1.20
5788.00,1.19
5787.00,1.19
5786.00,1.19
5785.00,1.19
5784.00,1.19
5783.00,1.18
5782.00,1.18
5781.00,1.18
5780.00,1.18
5779.00,1.18
5778.00,1.18
5777.00,1.17
5776.00,1.17
5775.00,1.17
5774.00,1.17
5773.00,1.17
5772.00,1.17
5771.00,1.17
5770.00,1.17
5769.00,1.17
5768.00,1.17
5767.00,1.17
5766.00,1.18
5765.00,1.18
5764.00,1.18
5763.00,1.18
5762.00,1.18
5761.00,1.19
5760.00,1.19
5759.00,1.19
5758.00,1.19
5757.00,1.20
5756.00,1.20
5755.00,1.20
5754.00,1.21
5753.00,1.21
5752.00,1.21
5751.00,1.22
5750.00,1.22
5749.00,1.23
5748.00,1.23
5747.00,1.23
5746.00,1.24
5745.00,1.24
5744.00,1.24
5743.00,1.25
5742.00,1.25
5741.00,1.25
5740.00,1.26
5739.00,1.26
5738.00,1.26
5737.00,1.26
5736.00,1.26
5735.00,1.27
5734.00,1.27
5733.00,1.27
5732.00,1.27
5731.00,1.27
5730.00,1.27
5729.00,1.28
5728.00,1.28
5727.00,1.28
5726.00,1.28
5725.00,1.28
5724.00,1.28
5723.00,1.28
5722.00,1.28
5721.00,1.28
5720.00,1.28
5719.00,1.28
5718.00,1.28
5717.00,1.28
5716.00,1.28
5715.00,1.28
5714.00,1.28
5713.00,1.28
5712.00,1.28
5711.00,1.28
5710.00,1.28
5709.00,1.28
5708.00,1.28
5707.00,1.28
5706.00,1.28
5705.00,1.28
5704.00,1.28
5703.00,1.28
5702.00,1.28
5701.00,1.28
5700.00,1.28
5699.00,1.27
5698.00,1.27
5697.00,1.27
5696.00,1.27
5695.00,1.27
5694.00,1.27
5693.00,1.27
5692.00,1.26
5691.00,1.26
5690.00,1.26
5689.00,1.26
5688.00,1.26
5687.00,1.25
5686.00,1.25
5685.00,1.25
5684.00,1.25
5683.00,1.25
5682.00,1.25
5681.00,1.24
5680.00,1.24
5679.00,1.24
5678.00,1.24
5677.00,1.24
5676.00,1.24
5675.00,1.24
5674.00,1.24
5673.00,1.24
5672.00,1.24
5671.00,1.24
5670.00,1.24
5669.00,1.24
5668.00,1.24
5667.00,1.24
5666.00,1.25
5665.00,1.25
5664.00,1.25
5663.00,1.25
5662.00,1.25
5661.00,1.25
5660.00,1.25
5659.00,1.25
5658.00,1.26
5657.00,1.26
5656.00,1.26
5655.00,1.26
5654.00,1.26
5653.00,1.27
5652.00,1.27
5651.00,1.27
5650.00,1.27
5649.00,1.27
5648.00,1.28
5647.00,1.28
5646.00,1.28
5645.00,1.28
5644.00,1.28
5643.00,1.29
5642.00,1.29
5641.00,1.29
5640.00,1.29
5639.00,1.29
5638.00,1.30
5637.00,1.30
5636.00,1.30
5635.00,1.30
5634.00,1.30
5633.00,1.31
5632.00,1.31
5631.00,1.31
5630.00,1.31
5629.00,1.31
5628.00,1.31
5627.00,1.32
5626.00,1.32
5625.00,1.32
5624.00,1.32
5623.00,1.32
5622.00,1.32
5621.00,1.33
5620.00,1.33
5619.00,1.33
5618.00,1.33
5617.00,1.33
5616.00,1.33
5615.00,1.34
5614.00,1.34
5613.00,1.34
5612.00,1.34
5611.00,1.34
5610.00,1.34
5609.00,1.35
5608.00,1.35
5607.00,1.35
5606.00,1.35
5605.00,1.35
5604.00,1.36
5603.00,1.36
5602.00,1.36
5601.00,1.36
5600.00,1.36
5599.00,1.36
5598.00,1.37
5597.00,1.37
5596.00,1.37
5595.00,1.37
5594.00,1.37
5593.00,1.38
5592.00,1.38
5591.00,1.38
5590.00,1.38
5589.00,1.38
5588.00,1.38
5587.00,1.39
5586.00,1.39
5585.00,1.39
5584.00,1.39
5583.00,1.39
5582.00,1.39
5581.00,1.40
5580.00,1.40
5579.00,1.40
5578.00,1.40
5577.00,1.40
5576.00,1.40
5575.00,1.40
5574.00,1.40
5573.00,1.40
5572.00,1.41
5571.00,1.41
5570.00,1.41
5569.00,1.41
5568.00,1.41
5567.00,1.41
5566.00,1.41
5565.00,1.41
5564.00,1.42
5563.00,1.42
5562.00,1.42
5561.00,1.42
5560.00,1.42
5559.00,1.42
5558.00,1.42
5557.00,1.42
5556.00,1.43
5555.00,1.43
5554.00,1.43
5553.00,1.43
5552.00,1.43
5551.00,1.43
5550.00,1.43
5549.00,1.44
5548.00,1.44
5547.00,1.44
5546.00,1.44
5545.00,1.44
5544.00,1.44
5543.00,1.44
5542.00,1.45
5541.00,1.45
5540.00,1.45
5539.00,1.45
5538.00,1.45
5537.00,1.45
5536.00,1.45
5535.00,1.45
5534.00,1.46
5533.00,1.46
5532.00,1.46
5531.00,1.46
5530.00,1.46
5529.00,1.46
5528.00,1.46
5527.00,1.46
5526.00,1.46
5525.00,1.46
5524.00,1.46
5523.00,1.47
5522.00,1.47
5521.00,1.47
5520.00,1.47
5519.00,1.47
5518.00,1.47
5517.00,1.47
5516.00,1.47
5515.00,1.47
5514.00,1.47
5513.00,1.47
5512.00,1.47
5511.00,1.47
5510.00,1.47
5509.00,1.47
5508.00,1.47
5507.00,1.47
5506.00,1.47
5505.00,1.47
5504.00,1.47
5503.00,1.48
5502.00,1.48
5501.00,1.48
5500.00,1.48
5499.00,1.48
5498.00,1.48
5497.00,1.48
5496.00,1.48
5495.00,1.48
5494.00,1.48
5493.00,1.48
5492.00,1.48
5491.00,1.48
5490.00,1.49
5489.00,1.49
5488.00,1.49
5487.00,1.49
5486.00,1.49
5485.00,1.49
5484.00,1.49
5483.00,1.50
5482.00,1.50
5481.00,1.50
5480.00,1.50
5479.00,1.50
5478.00,1.50
5477.00,1.50
5476.00,1.50
5475.00,1.51
5474.00,1.51
5473.00,1.51
5472.00,1.51
5471.00,1.51
5470.00,1.51
5469.00,1.51
5468.00,1.51
5467.00,1.51
5466.00,1.51
5465.00,1.51
5464.00,1.51
5463.00,1.52
5462.00,1.52
5461.00,1.52
5460.00,1.52
5459.00,1.52
5458.00,1.52
5457.00,1.52
5456.00,1.52
5455.00,1.53
5454.00,1.53
5453.00,1.53
5452.00,1.53
5451.00,1.53
5450.00,1.53
5449.00,1.53
5448.00,1.53
5447.00,1.53
5446.00,1.53
5445.00,1.53
5444.00,1.53
5443.00,1.53
5442.00,1.53
5441.00,1.53
5440.00,1.53
5439.00,1.53
5438.00,1.53
5437.00,1.53
5436.00,1.53
5435.00,1.53
5434.00,1.53
5433.00,1.53
5432.00,1.53
5431.00,1.53
5430.00,1.54
5429.00,1.54
5428.00,1.54
5427.00,1.54
5426.00,1.54
5425.00,1.54
5424.00,1.54
5423.00,1.54
5422.00,1.54
5421.00,1.54
5420.00,1.54
5419.00,1.54
5418.00,1.54
5417.00,1.54
5416.00,1.54
5415.00,1.53
5414.00,1.53
5413.00,1.53
5412.00,1.53
5411.00,1.53
5410.00,1.53
5409.00,1.53
5408.00,1.53
5407.00,1.53
5406.00,1.53
5405.00,1.53
5404.00,1.53
5403.00,1.53
5402.00,1.53
5401.00,1.53
5400.00,1.53
5399.00,1.53
5398.00,1.53
5397.00,1.53
5396.00,1.53
5395.00,1.53
5394.00,1.52
5393.00,1.52
5392.00,1.52
5391.00,1.52
5390.00,1.52
5389.00,1.52
5388.00,1.51
5387.00,1.51
5386.00,1.51
5385.00,1.51
5384.00,1.50
5383.00,1.50
5382.00,1.50
5381.00,1.49
5380.00,1.49
5379.00,1.49
5378.00,1.48
5377.00,1.48
5376.00,1.48
5375.00,1.47
5374.00,1.47
5373.00,1.46
5372.00,1.46
5371.00,1.45
5370.00,1.45
5369.00,1.44
5368.00,1.44
5367.00,1.43
5366.00,1.43
5365.00,1.42
5364.00,1.42
5363.00,1.41
5362.00,1.40
5361.00,1.40
5360.00,1.39
5359.00,1.38
5358.00,1.37
5357.00,1.37
5356.00,1.36
5355.00,1.35
5354.00,1.34
5353.00,1.33
5352.00,1.32
5351.00,1.32
5350.00,1.31
5349.00,1.30
5348.00,1.29
5347.00,1.28
5346.00,1.27
5345.00,1.26
5344.00,1.25
5343.00,1.24
5342.00,1.23
5341.00,1.22
5340.00,1.21
5339.00,1.20
5338.00,1.20
5337.00,1.19
5336.00,1.18
5335.00,1.17
5334.00,1.16
5333.00,1.15
5332.00,1.14
5331.00,1.13
5330.00,1.12
5329.00,1.11
5328.00,1.10
5327.00,1.09
5326.00,1.08
5325.00,1.07
5324.00,1.07
5323.00,1.06
5322.00,1.05
5321.00,1.04
5320.00,1.03
5319.00,1.02
5318.00,1.01
5317.00,1.01
5316.00,1.00
5315.00,0.99
5314.00,0.98
5313.00,0.97
5312.00,0.96
5311.00,0.96
5310.00,0.95
5309.00,0.94
5308.00,0.94
5307.00,0.93
5306.00,0.92
5305.00,0.92
5304.00,0.91
5303.00,0.91
5302.00,0.90
5301.00,0.90
5300.00,0.89
5299.00,0.89
5298.00,0.89
5297.00,0.88
5296.00,0.88
5295.00,0.88
5294.00,0.87
5293.00,0.87
5292.00,0.87
5291.00,0.87
5290.00,0.87
5289.00,0.86
5288.00,0.86
5287.00,0.86
5286.00,0.86
5285.00,0.86
5284.00,0.86
5283.00,0.86
5282.00,0.86
5281.00,0.85
5280.00,0.85
5279.00,0.85
5278.00,0.85
5277.00,0.85
5276.00,0.85
5275.00,0.85
5274.00,0.85
5273.00,0.85
5272.00,0.85
5271.00,0.85
5270.00,0.85
5269.00,0.85
5268.00,0.84
5267.00,0.84
5266.00,0.84
5265.00,0.84
5264.00,0.84
5263.00,0.84
5262.00,0.84
5261.00,0.84
5260.00,0.84
5259.00,0.84
5258.00,0.84
5257.00,0.84
5256.00,0.84
5255.00,0.84
5254.00,0.84
5253.00,0.84
5252.00,0.84
5251.00,0.84
5250.00,0.84
5249.00,0.84
5248.00,0.84
5247.00,0.84
5246.00,0.84
5245.00,0.84
5244.00,0.84
5243.00,0.84
5242.00,0.84
5241.00,0.84
5240.00,0.84
5239.00,0.84
5238.00,0.85
5237.00,0.85
5236.00,0.85
5235.00,0.85
5234.00,0.85
5233.00,0.85
5232.00,0.85
5231.00,0.85
5230.00,0.85
5229.00,0.85
5228.00,0.85
5227.00,0.85
5226.00,0.85
5225.00,0.85
5224.00,0.85
5223.00,0.85
5222.00,0.85
5221.00,0.85
5220.00,0.85
5219.00,0.85
5218.00,0.85
5217.00,0.85
5216.00,0.85
5215.00,0.85
5214.00,0.85
5213.00,0.85
5212.00,0.85
5211.00,0.85
5210.00,0.85
5209.00,0.85
5208.00,0.85
5207.00,0.85
5206.00,0.85
5205.00,0.86
5204.00,0.86
5203.00,0.86
5202.00,0.86
5201.00,0.86
5200.00,0.86
5199.00,0.86
5198.00,0.86
5197.00,0.86
5196.00,0.86
5195.00,0.86
5194.00,0.86
5193.00,0.86
5192.00,0.86
5191.00,0.86
5190.00,0.86
5189.00,0.86
5188.00,0.86
5187.00,0.86
5186.00,0.86
5185.00,0.86
5184.00,0.86
5183.00,0.86
5182.00,0.86
5181.00,0.86
5180.00,0.86
5179.00,0.86
5178.00,0.86
5177.00,0.87
5176.00,0.87
5175.00,0.87
5174.00,0.87
5173.00,0.87
5172.00,0.87
5171.00,0.87
5170.00,0.87
5169.00,0.87
5168.00,0.87
5167.00,0.87
5166.00,0.87
5165.00,0.87
5164.00,0.87
5163.00,0.87
5162.00,0.87
5161.00,0.87
5160.00,0.87
5159.00,0.87
5158.00,0.87
5157.00,0.87
5156.00,0.87
5155.00,0.87
5154.00,0.88
5153.00,0.88
5152.00,0.88
5151.00,0.88
5150.00,0.88
5149.00,0.88
5148.00,0.88
5147.00,0.88
5146.00,0.88
5145.00,0.88
5144.00,0.88
5143.00,0.88
5142.00,0.88
5141.00,0.88
5140.00,0.88
5139.00,0.88
5138.00,0.88
5137.00,0.88
5136.00,0.88
5135.00,0.88
5134.00,0.89
5133.00,0.89
5132.00,0.89
5131.00,0.89
5130.00,0.89
5129.00,0.89
5128.00,0.89
5127.00,0.89
5126.00,0.89
5125.00,0.89
5124.00,0.89
5123.00,0.89
5122.00,0.89
5121.00,0.90
5120.00,0.90
5119.00,0.90
5118.00,0.90
5117.00,0.90
5116.00,0.90
5115.00,0.90
5114.00,0.90
5113.00,0.90
5112.00,0.90
5111.00,0.90
5110.00,0.90
5109.00,0.90
5108.00,0.90
5107.00,0.90
5106.00,0.90
5105.00,0.90
5104.00,0.90
5103.00,0.90
5102.00,0.90
5101.00,0.91
5100.00,0.91
5099.00,0.91
5098.00,0.91
5097.00,0.91
5096.00,0.91
5095.00,0.91
5094.00,0.91
5093.00,0.91
5092.00,0.91
5091.00,0.91
5090.00,0.91
5089.00,0.91
5088.00,0.91
5087.00,0.91
5086.00,0.91
5085.00,0.91
5084.00,0.91
5083.00,0.91
5082.00,0.91
5081.00,0.91
5080.00,0.91
5079.00,0.91
5078.00,0.91
5077.00,0.91
5076.00,0.92
5075.00,0.92
5074.00,0.92
5073.00,0.92
5072.00,0.92
5071.00,0.92
5070.00,0.92
5069.00,0.92
5068.00,0.92
5067.00,0.92
5066.00,0.92
5065.00,0.92
5064.00,0.92
5063.00,0.92
5062.00,0.93
5061.00,0.93
5060.00,0.93
5059.00,0.93
5058.00,0.93
5057.00,0.93
5056.00,0.93
5055.00,0.93
5054.00,0.93
5053.00,0.93
5052.00,0.94
5051.00,0.94
5050.00,0.94
5049.00,0.94
5048.00,0.94
5047.00,0.94
5046.00,0.94
5045.00,0.94
5044.00,0.94
5043.00,0.94
5042.00,0.94
5041.00,0.94
5040.00,0.94
5039.00,0.94
5038.00,0.94
5037.00,0.94
5036.00,0.94
5035.00,0.94
5034.00,0.94
5033.00,0.95
5032.00,0.95
5031.00,0.95
5030.00,0.95
5029.00,0.95
5028.00,0.95
5027.00,0.95
5026.00,0.95
5025.00,0.95
5024.00,0.95
5023.00,0.95
5022.00,0.95
5021.00,0.95
5020.00,0.95
5019.00,0.95
5018.00,0.96
5017.00,0.96
5016.00,0.96
5015.00,0.96
5014.00,0.96
5013.00,0.96
5012.00,0.96
5011.00,0.96
5010.00,0.96
5009.00,0.96
5008.00,0.96
5007.00,0.96
5006.00,0.96
5005.00,0.96
5004.00,0.97
5003.00,0.97
5002.00,0.97
5001.00,0.97
5000.00,0.97
4999.00,0.97
4998.00,0.97
4997.00,0.97
4996.00,0.97
4995.00,0.97
4994.00,0.98
4993.00,0.98
4992.00,0.98
4991.00,0.98
4990.00,0.98
4989.00,0.98
4988.00,0.98
4987.00,0.98
4986.00,0.98
4985.00,0.98
4984.00,0.98
4983.00,0.99
4982.00,0.99
4981.00,0.99
4980.00,0.99
4979.00,0.99
4978.00,0.99
4977.00,0.99
4976.00,0.99
4975.00,0.99
4974.00,0.99
4973.00,0.99
4972.00,0.99
4971.00,1.00
4970.00,1.00
4969.00,1.00
4968.00,1.00
4967.00,1.00
4966.00,1.00
4965.00,1.00
4964.00,1.00
4963.00,1.00
4962.00,1.00
4961.00,1.00
4960.00,1.00
4959.00,1.00
4958.00,1.00
4957.00,1.00
4956.00,1.01
4955.00,1.01
4954.00,1.01
4953.00,1.01
4952.00,1.01
4951.00,1.01
4950.00,1.01
4949.00,1.01
4948.00,1.01
4947.00,1.01
4946.00,1.01
4945.00,1.02
4944.00,1.02
4943.00,1.02
4942.00,1.02
4941.00,1.02
4940.00,1.02
4939.00,1.02
4938.00,1.02
4937.00,1.02
4936.00,1.02
4935.00,1.02
4934.00,1.02
4933.00,1.03
4932.00,1.03
4931.00,1.03
4930.00,1.03
4929.00,1.03
4928.00,1.03
4927.00,1.03
4926.00,1.03
4925.00,1.03
4924.00,1.03
4923.00,1.03
4922.00,1.03
4921.00,1.04
4920.00,1.04
4919.00,1.04
4918.00,1.04
4917.00,1.04
4916.00,1.04
4915.00,1.04
4914.00,1.04
4913.00,1.04
4912.00,1.04
4911.00,1.04
4910.00,1.05
4909.00,1.05
4908.00,1.05
4907.00,1.05
4906.00,1.04
4905.00,1.04
4904.00,1.04
4903.00,1.04
4902.00,1.04
4901.00,1.04
4900.00,1.04
4899.00,1.04
4898.00,1.04
4897.00,1.04
4896.00,1.04
4895.00,1.04
4894.00,1.04
4893.00,1.04
4892.00,1.04
4891.00,1.05
4890.00,1.05
4889.00,1.05
4888.00,1.05
4887.00,1.05
4886.00,1.05
4885.00,1.05
4884.00,1.05
4883.00,1.05
4882.00,1.05
4881.00,1.06
4880.00,1.06
4879.00,1.06
4878.00,1.06
4877.00,1.06
4876.00,1.06
4875.00,1.06
4874.00,1.06
4873.00,1.06
4872.00,1.06
4871.00,1.06
4870.00,1.06
4869.00,1.06
4868.00,1.06
4867.00,1.06
4866.00,1.06
4865.00,1.06
4864.00,1.06
4863.00,1.06
4862.00,1.06
4861.00,1.07
4860.00,1.07
4859.00,1.07
4858.00,1.07
4857.00,1.07
4856.00,1.07
4855.00,1.07
4854.00,1.07
4853.00,1.07
4852.00,1.07
4851.00,1.07
4850.00,1.07
4849.00,1.07
4848.00,1.08
4847.00,1.08
4846.00,1.08
4845.00,1.08
4844.00,1.08
4843.00,1.08
4842.00,1.08
4841.00,1.08
4840.00,1.08
4839.00,1.08
4838.00,1.08
4837.00,1.08
4836.00,1.09
4835.00,1.09
4834.00,1.09
4833.00,1.09
4832.00,1.09
4831.00,1.09
4830.00,1.09
4829.00,1.09
4828.00,1.09
4827.00,1.09
4826.00,1.09
4825.00,1.09
4824.00,1.09
4823.00,1.09
4822.00,1.10
4821.00,1.10
4820.00,1.10
4819.00,1.10
4818.00,1.10
4817.00,1.10
4816.00,1.10
4815.00,1.10
4814.00,1.10
4813.00,1.10
4812.00,1.10
4811.00,1.11
4810.00,1.11
4809.00,1.11
4808.00,1.11
4807.00,1.11
4806.00,1.11
4805.00,1.11
4804.00,1.11
4803.00,1.11
4802.00,1.11
4801.00,1.11
4800.00,1.11
4799.00,1.11
4798.00,1.11
4797.00,1.11
4796.00,1.11
4795.00,1.11
4794.00,1.11
4793.00,1.11
4792.00,1.11
4791.00,1.11
4790.00,1.11
4789.00,1.11
4788.00,1.12
4787.00,1.12
4786.00,1.12
4785.00,1.12
4784.00,1.12
4783.00,1.12
4782.00,1.12
4781.00,1.12
4780.00,1.12
4779.00,1.13
4778.00,1.13
4777.00,1.13
4776.00,1.13
4775.00,1.13
4774.00,1.13
4773.00,1.13
4772.00,1.13
4771.00,1.14
4770.00,1.14
4769.00,1.14
4768.00,1.14
4767.00,1.14
4766.00,1.14
4765.00,1.15
4764.00,1.15
4763.00,1.15
4762.00,1.15
4761.00,1.15
4760.00,1.15
4759.00,1.16
4758.00,1.16
4757.00,1.16
4756.00,1.16
4755.00,1.16
4754.00,1.16
4753.00,1.17
4752.00,1.17
4751.00,1.17
4750.00,1.17
4749.00,1.17
4748.00,1.17
4747.00,1.17
4746.00,1.17
4745.00,1.18
4744.00,1.18
4743.00,1.18
4742.00,1.18
4741.00,1.18
4740.00,1.18
4739.00,1.18
4738.00,1.18
4737.00,1.18
4736.00,1.19
4735.00,1.19
4734.00,1.19
4733.00,1.19
4732.00,1.19
4731.00,1.20
4730.00,1.20
4729.00,1.20
4728.00,1.20
4727.00,1.20
4726.00,1.21
4725.00,1.21
4724.00,1.21
4723.00,1.21
4722.00,1.21
4721.00,1.21
4720.00,1.21
4719.00,1.22
4718.00,1.22
4717.00,1.22
4716.00,1.22
4715.00,1.22
4714.00,1.22
4713.00,1.22
4712.00,1.22
4711.00,1.23
4710.00,1.23
4709.00,1.23
4708.00,1.23
4707.00,1.23
4706.00,1.23
4705.00,1.23
4704.00,1.23
4703.00,1.24
4702.00,1.24
4701.00,1.24
4700.00,1.24
4699.00,1.24
4698.00,1.24
4697.00,1.24
4696.00,1.24
4695.00,1.24
4694.00,1.24
4693.00,1.24
4692.00,1.25
4691.00,1.25
4690.00,1.25
4689.00,1.25
4688.00,1.25
4687.00,1.25
4686.00,1.25
4685.00,1.26
4684.00,1.26
4683.00,1.26
4682.00,1.26
4681.00,1.26
4680.00,1.26
4679.00,1.27
4678.00,1.27
4677.00,1.27
4676.00,1.27
4675.00,1.27
4674.00,1.27
4673.00,1.27
4672.00,1.27
4671.00,1.27
4670.00,1.27
4669.00,1.27
4668.00,1.27
4667.00,1.27
4666.00,1.28
4665.00,1.28
4664.00,1.28
4663.00,1.28
4662.00,1.28
4661.00,1.28
4660.00,1.28
4659.00,1.28
4658.00,1.28
4657.00,1.29
4656.00,1.29
4655.00,1.29
4654.00,1.29
4653.00,1.29
4652.00,1.29
4651.00,1.30
4650.00,1.30
4649.00,1.30
4648.00,1.30
4647.00,1.30
4646.00,1.30
4645.00,1.30
4644.00,1.30
4643.00,1.30
4642.00,1.31
4641.00,1.31
4640.00,1.31
4639.00,1.31
4638.00,1.31
4637.00,1.31
4636.00,1.31
4635.00,1.31
4634.00,1.31
4633.00,1.31
4632.00,1.31
4631.00,1.31
4630.00,1.32
4629.00,1.32
4628.00,1.32
4627.00,1.32
4626.00,1.32
4625.00,1.32
4624.00,1.32
4623.00,1.33
4622.00,1.33
4621.00,1.33
4620.00,1.33
4619.00,1.33
4618.00,1.33
4617.00,1.33
4616.00,1.34
4615.00,1.34
4614.00,1.34
4613.00,1.34
4612.00,1.34
4611.00,1.34
4610.00,1.34
4609.00,1.34
4608.00,1.34
4607.00,1.34
4606.00,1.34
4605.00,1.34
4604.00,1.34
4603.00,1.34
4602.00,1.34
4601.00,1.34
4600.00,1.34
4599.00,1.34
4598.00,1.34
4597.00,1.34
4596.00,1.34
4595.00,1.34
4594.00,1.34
4593.00,1.34
4592.00,1.34
4591.00,1.34
4590.00,1.34
4589.00,1.34
4588.00,1.35
4587.00,1.35
4586.00,1.35
4585.00,1.35
4584.00,1.35
4583.00,1.35
4582.00,1.36
4581.00,1.36
4580.00,1.36
4579.00,1.36
4578.00,1.36
4577.00,1.36
4576.00,1.37
4575.00,1.37
4574.00,1.37
4573.00,1.37
4572.00,1.37
4571.00,1.37
4570.00,1.37
4569.00,1.37
4568.00,1.37
4567.00,1.37
4566.00,1.37
4565.00,1.37
4564.00,1.37
4563.00,1.38
4562.00,1.38
4561.00,1.38
4560.00,1.38
4559.00,1.38
4558.00,1.38
4557.00,1.38
4556.00,1.38
4555.00,1.38
4554.00,1.38
4553.00,1.38
4552.00,1.38
4551.00,1.39
4550.00,1.39
4549.00,1.39
4548.00,1.39
4547.00,1.39
4546.00,1.39
4545.00,1.39
4544.00,1.39
4543.00,1.39
4542.00,1.39
4541.00,1.39
4540.00,1.39
4539.00,1.40
4538.00,1.40
4537.00,1.40
4536.00,1.40
4535.00,1.39
4534.00,1.39
4533.00,1.39
4532.00,1.39
4531.00,1.39
4530.00,1.39
4529.00,1.39
4528.00,1.39
4527.00,1.39
4526.00,1.39
4525.00,1.39
4524.00,1.39
4523.00,1.39
4522.00,1.39
4521.00,1.39
4520.00,1.39
4519.00,1.39
4518.00,1.39
4517.00,1.39
4516.00,1.39
4515.00,1.39
4514.00,1.39
4513.00,1.39
4512.00,1.39
4511.00,1.39
4510.00,1.39
4509.00,1.39
4508.00,1.39
4507.00,1.39
4506.00,1.39
4505.00,1.39
4504.00,1.39
4503.00,1.39
4502.00,1.39
4501.00,1.39
4500.00,1.39
4499.00,1.39
4498.00,1.39
4497.00,1.39
4496.00,1.39
4495.00,1.39
4494.00,1.39
4493.00,1.39
4492.00,1.39
4491.00,1.39
4490.00,1.39
4489.00,1.39
4488.00,1.39
4487.00,1.39
4486.00,1.39
4485.00,1.39
4484.00,1.39
4483.00,1.39
4482.00,1.39
4481.00,1.39
4480.00,1.38
4479.00,1.38
4478.00,1.38
4477.00,1.38
4476.00,1.38
4475.00,1.38
4474.00,1.38
4473.00,1.38
4472.00,1.37
4471.00,1.37
4470.00,1.37
4469.00,1.37
4468.00,1.37
4467.00,1.36
4466.00,1.36
4465.00,1.36
4464.00,1.36
4463.00,1.36
4462.00,1.35
4461.00,1.35
4460.00,1.35
4459.00,1.35
4458.00,1.35
4457.00,1.34
4456.00,1.34
4455.00,1.34
4454.00,1.34
4453.00,1.34
4452.00,1.33
4451.00,1.33
4450.00,1.33
4449.00,1.32
4448.00,1.32
4447.00,1.32
4446.00,1.32
4445.00,1.31
4444.00,1.31
4443.00,1.31
4442.00,1.30
4441.00,1.30
4440.00,1.29
4439.00,1.29
4438.00,1.29
4437.00,1.28
4436.00,1.28
4435.00,1.28
4434.00,1.28
4433.00,1.27
4432.00,1.27
4431.00,1.27
4430.00,1.27
4429.00,1.27
4428.00,1.26
4427.00,1.26
4426.00,1.26
4425.00,1.26
4424.00,1.26
4423.00,1.26
4422.00,1.26
4421.00,1.27
4420.00,1.27
4419.00,1.27
4418.00,1.27
4417.00,1.27
4416.00,1.27
4415.00,1.27
4414.00,1.27
4413.00,1.27
4412.00,1.27
4411.00,1.27
4410.00,1.27
4409.00,1.27
4408.00,1.27
4407.00,1.27
4406.00,1.27
4405.00,1.27
4404.00,1.27
4403.00,1.27
4402.00,1.27
4401.00,1.27
4400.00,1.27
4399.00,1.27
4398.00,1.27
4397.00,1.28
4396.00,1.28
4395.00,1.28
4394.00,1.28
4393.00,1.28
4392.00,1.28
4391.00,1.28
4390.00,1.28
4389.00,1.28
4388.00,1.28
4387.00,1.28
4386.00,1.28
4385.00,1.28
4384.00,1.29
4383.00,1.29
4382.00,1.29
4381.00,1.29
4380.00,1.29
4379.00,1.29
4378.00,1.29
4377.00,1.29
4376.00,1.29
4375.00,1.29
4374.00,1.29
4373.00,1.29
4372.00,1.29
4371.00,1.29
4370.00,1.30
4369.00,1.30
4368.00,1.30
4367.00,1.30
4366.00,1.30
4365.00,1.30
4364.00,1.30
4363.00,1.30
4362.00,1.30
4361.00,1.30
4360.00,1.30
4359.00,1.30
4358.00,1.30
4357.00,1.30
4356.00,1.30
4355.00,1.30
4354.00,1.30
4353.00,1.30
4352.00,1.30
4351.00,1.30
4350.00,1.30
4349.00,1.30
4348.00,1.30
4347.00,1.30
4346.00,1.30
4345.00,1.30
4344.00,1.31
4343.00,1.31
4342.00,1.31
4341.00,1.31
4340.00,1.31
4339.00,1.31
4338.00,1.31
4337.00,1.31
4336.00,1.31
4335.00,1.31
4334.00,1.31
4333.00,1.31
4332.00,1.31
4331.00,1.31
4330.00,1.31
4329.00,1.31
4328.00,1.31
4327.00,1.31
4326.00,1.32
4325.00,1.32
4324.00,1.32
4323.00,1.32
4322.00,1.32
4321.00,1.32
4320.00,1.32
4319.00,1.32
4318.00,1.33
4317.00,1.33
4316.00,1.33
4315.00,1.33
4314.00,1.33
4313.00,1.33
4312.00,1.33
4311.00,1.34
4310.00,1.34
4309.00,1.34
4308.00,1.34
4307.00,1.34
4306.00,1.34
4305.00,1.34
4304.00,1.34
4303.00,1.34
4302.00,1.34
4301.00,1.35
4300.00,1.35
4299.00,1.35
4298.00,1.35
4297.00,1.35
4296.00,1.35
4295.00,1.35
4294.00,1.35
4293.00,1.35
4292.00,1.35
4291.00,1.35
4290.00,1.36
4289.00,1.36
4288.00,1.36
4287.00,1.36
4286.00,1.36
4285.00,1.36
4284.00,1.36
4283.00,1.37
4282.00,1.37
4281.00,1.37
4280.00,1.37
4279.00,1.37
4278.00,1.37
4277.00,1.37
4276.00,1.37
4275.00,1.37
4274.00,1.37
4273.00,1.37
4272.00,1.37
4271.00,1.37
4270.00,1.37
4269.00,1.37
4268.00,1.37
4267.00,1.37
4266.00,1.37
4265.00,1.37
4264.00,1.37
4263.00,1.37
4262.00,1.37
4261.00,1.37
4260.00,1.38
4259.00,1.38
4258.00,1.38
4257.00,1.38
4256.00,1.38
4255.00,1.38
4254.00,1.38
4253.00,1.38
4252.00,1.38
4251.00,1.39
4250.00,1.39
4249.00,1.39
4248.00,1.39
4247.00,1.39
4246.00,1.39
4245.00,1.39
4244.00,1.39
4243.00,1.39
4242.00,1.40
4241.00,1.40
4240.00,1.40
4239.00,1.40
4238.00,1.40
4237.00,1.40
4236.00,1.40
4235.00,1.40
4234.00,1.40
4233.00,1.40
4232.00,1.40
4231.00,1.41
4230.00,1.41
4229.00,1.41
4228.00,1.41
4227.00,1.41
4226.00,1.41
4225.00,1.41
4224.00,1.41
4223.00,1.41
4222.00,1.41
4221.00,1.41
4220.00,1.41
4219.00,1.41
4218.00,1.41
4217.00,1.41
4216.00,1.41
4215.00,1.41
4214.00,1.42
4213.00,1.42
4212.00,1.42
4211.00,1.42
4210.00,1.42
4209.00,1.42
4208.00,1.42
4207.00,1.42
4206.00,1.42
4205.00,1.42
4204.00,1.43
4203.00,1.43
4202.00,1.43
4201.00,1.43
4200.00,1.43
4199.00,1.43
4198.00,1.43
4197.00,1.43
4196.00,1.43
4195.00,1.43
4194.00,1.43
4193.00,1.43
4192.00,1.43
4191.00,1.43
4190.00,1.43
4189.00,1.43
4188.00,1.43
4187.00,1.43
4186.00,1.43
4185.00,1.43
4184.00,1.43
4183.00,1.43
4182.00,1.43
4181.00,1.43
4180.00,1.43
4179.00,1.43
4178.00,1.43
4177.00,1.43
4176.00,1.43
4175.00,1.43
4174.00,1.43
4173.00,1.43
4172.00,1.43
4171.00,1.44
4170.00,1.44
4169.00,1.44
4168.00,1.44
4167.00,1.44
4166.00,1.44
4165.00,1.44
4164.00,1.44
4163.00,1.44
4162.00,1.44
4161.00,1.44
4160.00,1.44
4159.00,1.44
4158.00,1.44
4157.00,1.44
4156.00,1.45
4155.00,1.45
4154.00,1.45
4153.00,1.45
4152.00,1.45
4151.00,1.45
4150.00,1.45
4149.00,1.45
4148.00,1.45
4147.00,1.45
4146.00,1.45
4145.00,1.45
4144.00,1.45
4143.00,1.45
4142.00,1.45
4141.00,1.45
4140.00,1.45
4139.00,1.46
4138.00,1.46
4137.00,1.46
4136.00,1.46
4135.00,1.46
4134.00,1.46
4133.00,1.46
4132.00,1.46
4131.00,1.46
4130.00,1.46
4129.00,1.46
4128.00,1.46
4127.00,1.45
4126.00,1.45
4125.00,1.45
4124.00,1.45
4123.00,1.45
4122.00,1.45
4121.00,1.45
4120.00,1.45
4119.00,1.45
4118.00,1.45
4117.00,1.45
4116.00,1.46
4115.00,1.46
4114.00,1.46
4113.00,1.46
4112.00,1.46
4111.00,1.46
4110.00,1.46
4109.00,1.47
4108.00,1.47
4107.00,1.47
4106.00,1.47
4105.00,1.48
4104.00,1.48
4103.00,1.48
4102.00,1.48
4101.00,1.48
4100.00,1.49
4099.00,1.49
4098.00,1.49
4097.00,1.49
4096.00,1.49
4095.00,1.49
4094.00,1.49
4093.00,1.49
4092.00,1.49
4091.00,1.49
4090.00,1.49
4089.00,1.49
4088.00,1.48
4087.00,1.48
4086.00,1.48
4085.00,1.48
4084.00,1.48
4083.00,1.48
4082.00,1.48
4081.00,1.48
4080.00,1.48
4079.00,1.48
4078.00,1.48
4077.00,1.48
4076.00,1.48
4075.00,1.48
4074.00,1.49
4073.00,1.49
4072.00,1.49
4071.00,1.49
4070.00,1.49
4069.00,1.49
4068.00,1.49
4067.00,1.49
4066.00,1.49
4065.00,1.49
4064.00,1.50
4063.00,1.50
4062.00,1.50
4061.00,1.50
4060.00,1.50
4059.00,1.50
4058.00,1.50
4057.00,1.50
4056.00,1.50
4055.00,1.50
4054.00,1.49
4053.00,1.49
4052.00,1.49
4051.00,1.49
4050.00,1.49
4049.00,1.49
4048.00,1.49
4047.00,1.49
4046.00,1.49
4045.00,1.49
4044.00,1.49
4043.00,1.49
4042.00,1.50
4041.00,1.50
4040.00,1.50
4039.00,1.50
4038.00,1.50
4037.00,1.50
4036.00,1.51
4035.00,1.51
4034.00,1.51
4033.00,1.51
4032.00,1.51
4031.00,1.51
4030.00,1.52
4029.00,1.52
4028.00,1.52
4027.00,1.52
4026.00,1.52
4025.00,1.52
4024.00,1.52
4023.00,1.52
4022.00,1.52
4021.00,1.53
4020.00,1.53
4019.00,1.53
4018.00,1.53
4017.00,1.53
4016.00,1.53
4015.00,1.53
4014.00,1.53
4013.00,1.53
4012.00,1.53
4011.00,1.53
4010.00,1.53
4009.00,1.53
4008.00,1.53
4007.00,1.53
4006.00,1.54
4005.00,1.54
4004.00,1.54
4003.00,1.54
4002.00,1.54
4001.00,1.54
4000.00,1.54
