创建为新数据集,样品 168 用户 Administrator 日期 星期六, 七月 21 2018
cm-1,%T
10000.00,1.57
9999.00,1.57
9998.00,1.57
9997.00,1.57
9996.00,1.57
9995.00,1.57
9994.00,1.57
9993.00,1.56
9992.00,1.56
9991.00,1.56
9990.00,1.57
9989.00,1.57
9988.00,1.57
9987.00,1.57
9986.00,1.57
9985.00,1.57
9984.00,1.57
9983.00,1.57
9982.00,1.57
9981.00,1.57
9980.00,1.57
9979.00,1.56
9978.00,1.56
9977.00,1.56
9976.00,1.56
9975.00,1.56
9974.00,1.56
9973.00,1.56
9972.00,1.56
9971.00,1.56
9970.00,1.56
9969.00,1.56
9968.00,1.56
9967.00,1.56
9966.00,1.56
9965.00,1.56
9964.00,1.56
9963.00,1.56
9962.00,1.56
9961.00,1.56
9960.00,1.56
9959.00,1.56
9958.00,1.56
9957.00,1.56
9956.00,1.56
9955.00,1.56
9954.00,1.56
9953.00,1.56
9952.00,1.55
9951.00,1.55
9950.00,1.55
9949.00,1.55
9948.00,1.55
9947.00,1.55
9946.00,1.55
9945.00,1.55
9944.00,1.55
9943.00,1.56
9942.00,1.56
9941.00,1.55
9940.00,1.55
9939.00,1.55
9938.00,1.55
9937.00,1.55
9936.00,1.55
9935.00,1.54
9934.00,1.54
9933.00,1.54
9932.00,1.53
9931.00,1.53
9930.00,1.52
9929.00,1.52
9928.00,1.52
9927.00,1.51
9926.00,1.51
9925.00,1.51
9924.00,1.50
9923.00,1.50
9922.00,1.50
9921.00,1.50
9920.00,1.50
9919.00,1.50
9918.00,1.51
9917.00,1.51
9916.00,1.51
9915.00,1.51
9914.00,1.51
9913.00,1.52
9912.00,1.52
9911.00,1.52
9910.00,1.53
9909.00,1.53
9908.00,1.53
9907.00,1.53
9906.00,1.54
9905.00,1.54
9904.00,1.54
9903.00,1.54
9902.00,1.55
9901.00,1.55
9900.00,1.55
9899.00,1.55
9898.00,1.55
9897.00,1.55
9896.00,1.55
9895.00,1.55
9894.00,1.55
9893.00,1.55
9892.00,1.55
9891.00,1.55
9890.00,1.55
9889.00,1.55
9888.00,1.55
9887.00,1.55
9886.00,1.55
9885.00,1.55
9884.00,1.55
9883.00,1.55
9882.00,1.56
9881.00,1.56
9880.00,1.56
9879.00,1.56
9878.00,1.56
9877.00,1.56
9876.00,1.56
9875.00,1.56
9874.00,1.57
9873.00,1.57
9872.00,1.57
9871.00,1.57
9870.00,1.57
9869.00,1.57
9868.00,1.57
9867.00,1.57
9866.00,1.57
9865.00,1.56
9864.00,1.56
9863.00,1.56
9862.00,1.56
9861.00,1.56
9860.00,1.55
9859.00,1.55
9858.00,1.55
9857.00,1.55
9856.00,1.54
9855.00,1.54
9854.00,1.54
9853.00,1.54
9852.00,1.54
9851.00,1.54
9850.00,1.53
9849.00,1.53
9848.00,1.53
9847.00,1.53
9846.00,1.52
9845.00,1.52
9844.00,1.52
9843.00,1.52
9842.00,1.51
9841.00,1.51
9840.00,1.51
9839.00,1.51
9838.00,1.51
9837.00,1.50
9836.00,1.50
9835.00,1.50
9834.00,1.50
9833.00,1.50
9832.00,1.50
9831.00,1.50
9830.00,1.50
9829.00,1.51
9828.00,1.51
9827.00,1.51
9826.00,1.51
9825.00,1.51
9824.00,1.51
9823.00,1.51
9822.00,1.51
9821.00,1.51
9820.00,1.51
9819.00,1.51
9818.00,1.51
9817.00,1.51
9816.00,1.51
9815.00,1.51
9814.00,1.51
9813.00,1.51
9812.00,1.51
9811.00,1.51
9810.00,1.51
9809.00,1.51
9808.00,1.51
9807.00,1.51
9806.00,1.52
9805.00,1.52
9804.00,1.52
9803.00,1.52
9802.00,1.52
9801.00,1.52
9800.00,1.52
9799.00,1.53
9798.00,1.53
9797.00,1.53
9796.00,1.53
9795.00,1.53
9794.00,1.54
9793.00,1.54
9792.00,1.54
9791.00,1.54
9790.00,1.54
9789.00,1.54
9788.00,1.54
9787.00,1.55
9786.00,1.55
9785.00,1.55
9784.00,1.55
9783.00,1.55
9782.00,1.55
9781.00,1.54
9780.00,1.54
9779.00,1.54
9778.00,1.54
9777.00,1.54
9776.00,1.53
9775.00,1.53
9774.00,1.53
9773.00,1.53
9772.00,1.53
9771.00,1.53
9770.00,1.53
9769.00,1.53
9768.00,1.53
9767.00,1.53
9766.00,1.53
9765.00,1.53
9764.00,1.54
9763.00,1.54
9762.00,1.54
9761.00,1.55
9760.00,1.55
9759.00,1.55
9758.00,1.55
9757.00,1.56
9756.00,1.56
9755.00,1.56
9754.00,1.56
9753.00,1.56
9752.00,1.56
9751.00,1.56
9750.00,1.56
9749.00,1.56
9748.00,1.56
9747.00,1.56
9746.00,1.55
9745.00,1.55
9744.00,1.55
9743.00,1.55
9742.00,1.54
9741.00,1.54
9740.00,1.54
9739.00,1.54
9738.00,1.53
9737.00,1.53
9736.00,1.53
9735.00,1.53
9734.00,1.53
9733.00,1.53
9732.00,1.53
9731.00,1.54
9730.00,1.54
9729.00,1.54
9728.00,1.54
9727.00,1.54
9726.00,1.54
9725.00,1.55
9724.00,1.55
9723.00,1.55
9722.00,1.55
9721.00,1.55
9720.00,1.55
9719.00,1.55
9718.00,1.55
9717.00,1.55
9716.00,1.55
9715.00,1.55
9714.00,1.55
9713.00,1.55
9712.00,1.55
9711.00,1.55
9710.00,1.55
9709.00,1.54
9708.00,1.54
9707.00,1.54
9706.00,1.54
9705.00,1.54
9704.00,1.54
9703.00,1.54
9702.00,1.54
9701.00,1.54
9700.00,1.53
9699.00,1.53
9698.00,1.53
9697.00,1.53
9696.00,1.53
9695.00,1.53
9694.00,1.53
9693.00,1.53
9692.00,1.53
9691.00,1.53
9690.00,1.53
9689.00,1.53
9688.00,1.53
9687.00,1.53
9686.00,1.53
9685.00,1.53
9684.00,1.53
9683.00,1.53
9682.00,1.53
9681.00,1.53
9680.00,1.53
9679.00,1.53
9678.00,1.53
9677.00,1.53
9676.00,1.53
9675.00,1.53
9674.00,1.52
9673.00,1.52
9672.00,1.52
9671.00,1.52
9670.00,1.52
9669.00,1.52
9668.00,1.52
9667.00,1.52
9666.00,1.52
9665.00,1.52
9664.00,1.52
9663.00,1.52
9662.00,1.52
9661.00,1.52
9660.00,1.52
9659.00,1.52
9658.00,1.53
9657.00,1.53
9656.00,1.53
9655.00,1.53
9654.00,1.53
9653.00,1.53
9652.00,1.53
9651.00,1.53
9650.00,1.53
9649.00,1.53
9648.00,1.53
9647.00,1.53
9646.00,1.53
9645.00,1.53
9644.00,1.53
9643.00,1.53
9642.00,1.53
9641.00,1.53
9640.00,1.53
9639.00,1.53
9638.00,1.53
9637.00,1.53
9636.00,1.53
9635.00,1.53
9634.00,1.53
9633.00,1.53
9632.00,1.53
9631.00,1.53
9630.00,1.53
9629.00,1.53
9628.00,1.53
9627.00,1.53
9626.00,1.53
9625.00,1.53
9624.00,1.53
9623.00,1.53
9622.00,1.53
9621.00,1.53
9620.00,1.54
9619.00,1.54
9618.00,1.54
9617.00,1.54
9616.00,1.54
9615.00,1.54
9614.00,1.55
9613.00,1.55
9612.00,1.55
9611.00,1.55
9610.00,1.55
9609.00,1.55
9608.00,1.55
9607.00,1.55
9606.00,1.55
9605.00,1.55
9604.00,1.54
9603.00,1.54
9602.00,1.54
9601.00,1.54
9600.00,1.53
9599.00,1.53
9598.00,1.53
9597.00,1.53
9596.00,1.52
9595.00,1.52
9594.00,1.52
9593.00,1.52
9592.00,1.52
9591.00,1.52
9590.00,1.52
9589.00,1.52
9588.00,1.52
9587.00,1.52
9586.00,1.53
9585.00,1.53
9584.00,1.53
9583.00,1.53
9582.00,1.53
9581.00,1.53
9580.00,1.54
9579.00,1.54
9578.00,1.54
9577.00,1.54
9576.00,1.54
9575.00,1.54
9574.00,1.55
9573.00,1.55
9572.00,1.55
9571.00,1.55
9570.00,1.54
9569.00,1.54
9568.00,1.54
9567.00,1.54
9566.00,1.54
9565.00,1.54
9564.00,1.53
9563.00,1.53
9562.00,1.53
9561.00,1.53
9560.00,1.53
9559.00,1.53
9558.00,1.53
9557.00,1.53
9556.00,1.53
9555.00,1.53
9554.00,1.53
9553.00,1.53
9552.00,1.53
9551.00,1.53
9550.00,1.54
9549.00,1.54
9548.00,1.54
9547.00,1.54
9546.00,1.54
9545.00,1.54
9544.00,1.54
9543.00,1.54
9542.00,1.55
9541.00,1.55
9540.00,1.55
9539.00,1.54
9538.00,1.54
9537.00,1.54
9536.00,1.54
9535.00,1.54
9534.00,1.54
9533.00,1.54
9532.00,1.54
9531.00,1.54
9530.00,1.54
9529.00,1.54
9528.00,1.54
9527.00,1.54
9526.00,1.54
9525.00,1.54
9524.00,1.54
9523.00,1.54
9522.00,1.54
9521.00,1.54
9520.00,1.54
9519.00,1.54
9518.00,1.54
9517.00,1.54
9516.00,1.54
9515.00,1.54
9514.00,1.55
9513.00,1.55
9512.00,1.55
9511.00,1.55
9510.00,1.55
9509.00,1.55
9508.00,1.55
9507.00,1.55
9506.00,1.55
9505.00,1.55
9504.00,1.55
9503.00,1.55
9502.00,1.55
9501.00,1.55
9500.00,1.55
9499.00,1.55
9498.00,1.54
9497.00,1.54
9496.00,1.54
9495.00,1.54
9494.00,1.54
9493.00,1.53
9492.00,1.53
9491.00,1.53
9490.00,1.53
9489.00,1.53
9488.00,1.53
9487.00,1.53
9486.00,1.53
9485.00,1.53
9484.00,1.53
9483.00,1.53
9482.00,1.53
9481.00,1.53
9480.00,1.53
9479.00,1.53
9478.00,1.54
9477.00,1.54
9476.00,1.54
9475.00,1.54
9474.00,1.54
9473.00,1.55
9472.00,1.55
9471.00,1.55
9470.00,1.55
9469.00,1.55
9468.00,1.55
9467.00,1.55
9466.00,1.55
9465.00,1.55
9464.00,1.55
9463.00,1.55
9462.00,1.55
9461.00,1.56
9460.00,1.56
9459.00,1.56
9458.00,1.56
9457.00,1.56
9456.00,1.56
9455.00,1.56
9454.00,1.55
9453.00,1.55
9452.00,1.55
9451.00,1.55
9450.00,1.55
9449.00,1.55
9448.00,1.55
9447.00,1.55
9446.00,1.54
9445.00,1.54
9444.00,1.54
9443.00,1.54
9442.00,1.54
9441.00,1.54
9440.00,1.53
9439.00,1.53
9438.00,1.53
9437.00,1.53
9436.00,1.53
9435.00,1.53
9434.00,1.53
9433.00,1.53
9432.00,1.53
9431.00,1.53
9430.00,1.53
9429.00,1.53
9428.00,1.53
9427.00,1.53
9426.00,1.53
9425.00,1.53
9424.00,1.53
9423.00,1.53
9422.00,1.53
9421.00,1.53
9420.00,1.53
9419.00,1.53
9418.00,1.53
9417.00,1.53
9416.00,1.53
9415.00,1.53
9414.00,1.53
9413.00,1.53
9412.00,1.53
9411.00,1.53
9410.00,1.53
9409.00,1.53
9408.00,1.53
9407.00,1.53
9406.00,1.53
9405.00,1.53
9404.00,1.53
9403.00,1.53
9402.00,1.53
9401.00,1.53
9400.00,1.54
9399.00,1.54
9398.00,1.54
9397.00,1.54
9396.00,1.54
9395.00,1.54
9394.00,1.54
9393.00,1.55
9392.00,1.55
9391.00,1.55
9390.00,1.55
9389.00,1.55
9388.00,1.56
9387.00,1.56
9386.00,1.56
9385.00,1.56
9384.00,1.56
9383.00,1.56
9382.00,1.56
9381.00,1.56
9380.00,1.56
9379.00,1.56
9378.00,1.56
9377.00,1.56
9376.00,1.56
9375.00,1.56
9374.00,1.55
9373.00,1.55
9372.00,1.55
9371.00,1.54
9370.00,1.54
9369.00,1.54
9368.00,1.54
9367.00,1.53
9366.00,1.53
9365.00,1.53
9364.00,1.53
9363.00,1.53
9362.00,1.53
9361.00,1.53
9360.00,1.53
9359.00,1.53
9358.00,1.53
9357.00,1.53
9356.00,1.53
9355.00,1.53
9354.00,1.53
9353.00,1.53
9352.00,1.53
9351.00,1.53
9350.00,1.53
9349.00,1.53
9348.00,1.53
9347.00,1.53
9346.00,1.53
9345.00,1.53
9344.00,1.53
9343.00,1.53
9342.00,1.53
9341.00,1.53
9340.00,1.53
9339.00,1.53
9338.00,1.53
9337.00,1.52
9336.00,1.52
9335.00,1.52
9334.00,1.52
9333.00,1.52
9332.00,1.52
9331.00,1.52
9330.00,1.52
9329.00,1.52
9328.00,1.52
9327.00,1.52
9326.00,1.52
9325.00,1.52
9324.00,1.53
9323.00,1.53
9322.00,1.53
9321.00,1.53
9320.00,1.53
9319.00,1.54
9318.00,1.54
9317.00,1.54
9316.00,1.55
9315.00,1.55
9314.00,1.55
9313.00,1.55
9312.00,1.55
9311.00,1.55
9310.00,1.55
9309.00,1.56
9308.00,1.56
9307.00,1.56
9306.00,1.56
9305.00,1.56
9304.00,1.56
9303.00,1.55
9302.00,1.55
9301.00,1.55
9300.00,1.55
9299.00,1.55
9298.00,1.55
9297.00,1.55
9296.00,1.55
9295.00,1.55
9294.00,1.54
9293.00,1.54
9292.00,1.54
9291.00,1.54
9290.00,1.54
9289.00,1.53
9288.00,1.53
9287.00,1.53
9286.00,1.53
9285.00,1.52
9284.00,1.52
9283.00,1.52
9282.00,1.52
9281.00,1.52
9280.00,1.52
9279.00,1.52
9278.00,1.52
9277.00,1.52
9276.00,1.53
9275.00,1.53
9274.00,1.53
9273.00,1.53
9272.00,1.53
9271.00,1.54
9270.00,1.54
9269.00,1.54
9268.00,1.54
9267.00,1.55
9266.00,1.55
9265.00,1.55
9264.00,1.55
9263.00,1.55
9262.00,1.55
9261.00,1.55
9260.00,1.55
9259.00,1.55
9258.00,1.55
9257.00,1.55
9256.00,1.54
9255.00,1.54
9254.00,1.54
9253.00,1.54
9252.00,1.54
9251.00,1.53
9250.00,1.53
9249.00,1.53
9248.00,1.53
9247.00,1.53
9246.00,1.53
9245.00,1.53
9244.00,1.53
9243.00,1.52
9242.00,1.52
9241.00,1.52
9240.00,1.52
9239.00,1.53
9238.00,1.53
9237.00,1.53
9236.00,1.53
9235.00,1.53
9234.00,1.53
9233.00,1.53
9232.00,1.53
9231.00,1.53
9230.00,1.53
9229.00,1.53
9228.00,1.54
9227.00,1.54
9226.00,1.54
9225.00,1.54
9224.00,1.54
9223.00,1.54
9222.00,1.54
9221.00,1.54
9220.00,1.54
9219.00,1.54
9218.00,1.54
9217.00,1.54
9216.00,1.54
9215.00,1.54
9214.00,1.54
9213.00,1.54
9212.00,1.54
9211.00,1.54
9210.00,1.54
9209.00,1.54
9208.00,1.54
9207.00,1.54
9206.00,1.54
9205.00,1.54
9204.00,1.54
9203.00,1.54
9202.00,1.54
9201.00,1.55
9200.00,1.55
9199.00,1.55
9198.00,1.55
9197.00,1.55
9196.00,1.55
9195.00,1.55
9194.00,1.55
9193.00,1.55
9192.00,1.55
9191.00,1.55
9190.00,1.55
9189.00,1.55
9188.00,1.55
9187.00,1.55
9186.00,1.55
9185.00,1.55
9184.00,1.54
9183.00,1.54
9182.00,1.54
9181.00,1.54
9180.00,1.54
9179.00,1.54
9178.00,1.54
9177.00,1.54
9176.00,1.54
9175.00,1.54
9174.00,1.54
9173.00,1.54
9172.00,1.54
9171.00,1.54
9170.00,1.54
9169.00,1.54
9168.00,1.55
9167.00,1.55
9166.00,1.55
9165.00,1.55
9164.00,1.55
9163.00,1.55
9162.00,1.55
9161.00,1.55
9160.00,1.55
9159.00,1.55
9158.00,1.55
9157.00,1.55
9156.00,1.55
9155.00,1.55
9154.00,1.55
9153.00,1.54
9152.00,1.54
9151.00,1.54
9150.00,1.54
9149.00,1.54
9148.00,1.54
9147.00,1.54
9146.00,1.54
9145.00,1.54
9144.00,1.54
9143.00,1.54
9142.00,1.54
9141.00,1.54
9140.00,1.54
9139.00,1.54
9138.00,1.54
9137.00,1.54
9136.00,1.54
9135.00,1.54
9134.00,1.54
9133.00,1.54
9132.00,1.54
9131.00,1.54
9130.00,1.55
9129.00,1.55
9128.00,1.55
9127.00,1.55
9126.00,1.55
9125.00,1.55
9124.00,1.55
9123.00,1.55
9122.00,1.54
9121.00,1.54
9120.00,1.54
9119.00,1.54
9118.00,1.54
9117.00,1.54
9116.00,1.54
9115.00,1.53
9114.00,1.53
9113.00,1.53
9112.00,1.53
9111.00,1.53
9110.00,1.53
9109.00,1.53
9108.00,1.53
9107.00,1.53
9106.00,1.53
9105.00,1.53
9104.00,1.53
9103.00,1.53
9102.00,1.53
9101.00,1.53
9100.00,1.53
9099.00,1.54
9098.00,1.54
9097.00,1.54
9096.00,1.54
9095.00,1.55
9094.00,1.55
9093.00,1.55
9092.00,1.55
9091.00,1.55
9090.00,1.56
9089.00,1.56
9088.00,1.56
9087.00,1.56
9086.00,1.56
9085.00,1.56
9084.00,1.57
9083.00,1.57
9082.00,1.57
9081.00,1.57
9080.00,1.57
9079.00,1.57
9078.00,1.57
9077.00,1.57
9076.00,1.57
9075.00,1.57
9074.00,1.56
9073.00,1.56
9072.00,1.56
9071.00,1.56
9070.00,1.56
9069.00,1.56
9068.00,1.55
9067.00,1.55
9066.00,1.55
9065.00,1.55
9064.00,1.55
9063.00,1.55
9062.00,1.54
9061.00,1.54
9060.00,1.54
9059.00,1.54
9058.00,1.54
9057.00,1.54
9056.00,1.54
9055.00,1.54
9054.00,1.54
9053.00,1.54
9052.00,1.54
9051.00,1.54
9050.00,1.54
9049.00,1.54
9048.00,1.54
9047.00,1.54
9046.00,1.55
9045.00,1.55
9044.00,1.55
9043.00,1.55
9042.00,1.55
9041.00,1.55
9040.00,1.55
9039.00,1.55
9038.00,1.55
9037.00,1.55
9036.00,1.55
9035.00,1.55
9034.00,1.55
9033.00,1.55
9032.00,1.55
9031.00,1.55
9030.00,1.55
9029.00,1.55
9028.00,1.55
9027.00,1.55
9026.00,1.55
9025.00,1.55
9024.00,1.55
9023.00,1.55
9022.00,1.55
9021.00,1.55
9020.00,1.55
9019.00,1.55
9018.00,1.55
9017.00,1.55
9016.00,1.55
9015.00,1.55
9014.00,1.54
9013.00,1.54
9012.00,1.54
9011.00,1.54
9010.00,1.54
9009.00,1.54
9008.00,1.54
9007.00,1.54
9006.00,1.54
9005.00,1.54
9004.00,1.54
9003.00,1.54
9002.00,1.54
9001.00,1.54
9000.00,1.54
8999.00,1.55
8998.00,1.55
8997.00,1.55
8996.00,1.55
8995.00,1.55
8994.00,1.55
8993.00,1.55
8992.00,1.55
8991.00,1.55
8990.00,1.55
8989.00,1.55
8988.00,1.55
8987.00,1.55
8986.00,1.55
8985.00,1.55
8984.00,1.54
8983.00,1.54
8982.00,1.54
8981.00,1.54
8980.00,1.54
8979.00,1.53
8978.00,1.53
8977.00,1.53
8976.00,1.53
8975.00,1.53
8974.00,1.52
8973.00,1.52
8972.00,1.52
8971.00,1.52
8970.00,1.52
8969.00,1.52
8968.00,1.52
8967.00,1.53
8966.00,1.53
8965.00,1.53
8964.00,1.53
8963.00,1.53
8962.00,1.53
8961.00,1.54
8960.00,1.54
8959.00,1.54
8958.00,1.54
8957.00,1.54
8956.00,1.54
8955.00,1.55
8954.00,1.55
8953.00,1.55
8952.00,1.55
8951.00,1.55
8950.00,1.55
8949.00,1.55
8948.00,1.55
8947.00,1.55
8946.00,1.55
8945.00,1.55
8944.00,1.55
8943.00,1.55
8942.00,1.55
8941.00,1.55
8940.00,1.55
8939.00,1.55
8938.00,1.55
8937.00,1.55
8936.00,1.54
8935.00,1.54
8934.00,1.54
8933.00,1.54
8932.00,1.54
8931.00,1.54
8930.00,1.54
8929.00,1.54
8928.00,1.54
8927.00,1.54
8926.00,1.54
8925.00,1.54
8924.00,1.55
8923.00,1.55
8922.00,1.55
8921.00,1.55
8920.00,1.55
8919.00,1.55
8918.00,1.55
8917.00,1.55
8916.00,1.55
8915.00,1.55
8914.00,1.55
8913.00,1.55
8912.00,1.55
8911.00,1.55
8910.00,1.55
8909.00,1.55
8908.00,1.55
8907.00,1.55
8906.00,1.55
8905.00,1.55
8904.00,1.55
8903.00,1.55
8902.00,1.55
8901.00,1.56
8900.00,1.56
8899.00,1.56
8898.00,1.56
8897.00,1.56
8896.00,1.56
8895.00,1.56
8894.00,1.56
8893.00,1.56
8892.00,1.56
8891.00,1.56
8890.00,1.56
8889.00,1.56
8888.00,1.56
8887.00,1.56
8886.00,1.56
8885.00,1.56
8884.00,1.56
8883.00,1.55
8882.00,1.55
8881.00,1.55
8880.00,1.55
8879.00,1.55
8878.00,1.55
8877.00,1.55
8876.00,1.55
8875.00,1.55
8874.00,1.55
8873.00,1.55
8872.00,1.55
8871.00,1.55
8870.00,1.55
8869.00,1.55
8868.00,1.55
8867.00,1.54
8866.00,1.54
8865.00,1.54
8864.00,1.54
8863.00,1.54
8862.00,1.54
8861.00,1.53
8860.00,1.53
8859.00,1.53
8858.00,1.53
8857.00,1.53
8856.00,1.53
8855.00,1.53
8854.00,1.53
8853.00,1.53
8852.00,1.53
8851.00,1.53
8850.00,1.53
8849.00,1.53
8848.00,1.53
8847.00,1.53
8846.00,1.53
8845.00,1.53
8844.00,1.53
8843.00,1.53
8842.00,1.53
8841.00,1.53
8840.00,1.53
8839.00,1.54
8838.00,1.54
8837.00,1.54
8836.00,1.53
8835.00,1.53
8834.00,1.53
8833.00,1.53
8832.00,1.53
8831.00,1.53
8830.00,1.53
8829.00,1.53
8828.00,1.52
8827.00,1.52
8826.00,1.52
8825.00,1.52
8824.00,1.52
8823.00,1.52
8822.00,1.51
8821.00,1.51
8820.00,1.51
8819.00,1.51
8818.00,1.51
8817.00,1.51
8816.00,1.51
8815.00,1.51
8814.00,1.51
8813.00,1.51
8812.00,1.51
8811.00,1.51
8810.00,1.51
8809.00,1.51
8808.00,1.51
8807.00,1.51
8806.00,1.51
8805.00,1.51
8804.00,1.51
8803.00,1.51
8802.00,1.51
8801.00,1.51
8800.00,1.51
8799.00,1.51
8798.00,1.51
8797.00,1.51
8796.00,1.51
8795.00,1.51
8794.00,1.51
8793.00,1.50
8792.00,1.50
8791.00,1.50
8790.00,1.50
8789.00,1.50
8788.00,1.50
8787.00,1.50
8786.00,1.49
8785.00,1.49
8784.00,1.49
8783.00,1.49
8782.00,1.49
8781.00,1.49
8780.00,1.49
8779.00,1.49
8778.00,1.49
8777.00,1.49
8776.00,1.49
8775.00,1.49
8774.00,1.49
8773.00,1.49
8772.00,1.49
8771.00,1.49
8770.00,1.49
8769.00,1.49
8768.00,1.49
8767.00,1.49
8766.00,1.49
8765.00,1.49
8764.00,1.49
8763.00,1.49
8762.00,1.49
8761.00,1.49
8760.00,1.49
8759.00,1.49
8758.00,1.49
8757.00,1.49
8756.00,1.49
8755.00,1.49
8754.00,1.49
8753.00,1.49
8752.00,1.50
8751.00,1.50
8750.00,1.50
8749.00,1.50
8748.00,1.50
8747.00,1.50
8746.00,1.50
8745.00,1.50
8744.00,1.50
8743.00,1.50
8742.00,1.50
8741.00,1.49
8740.00,1.49
8739.00,1.49
8738.00,1.49
8737.00,1.49
8736.00,1.48
8735.00,1.48
8734.00,1.48
8733.00,1.47
8732.00,1.47
8731.00,1.47
8730.00,1.47
8729.00,1.47
8728.00,1.47
8727.00,1.47
8726.00,1.47
8725.00,1.47
8724.00,1.47
8723.00,1.47
8722.00,1.47
8721.00,1.47
8720.00,1.47
8719.00,1.47
8718.00,1.48
8717.00,1.48
8716.00,1.48
8715.00,1.48
8714.00,1.48
8713.00,1.48
8712.00,1.48
8711.00,1.48
8710.00,1.48
8709.00,1.48
8708.00,1.48
8707.00,1.48
8706.00,1.48
8705.00,1.48
8704.00,1.48
8703.00,1.48
8702.00,1.48
8701.00,1.48
8700.00,1.48
8699.00,1.47
8698.00,1.47
8697.00,1.47
8696.00,1.47
8695.00,1.47
8694.00,1.47
8693.00,1.47
8692.00,1.47
8691.00,1.47
8690.00,1.46
8689.00,1.46
8688.00,1.46
8687.00,1.46
8686.00,1.46
8685.00,1.45
8684.00,1.45
8683.00,1.45
8682.00,1.45
8681.00,1.45
8680.00,1.45
8679.00,1.45
8678.00,1.45
8677.00,1.45
8676.00,1.45
8675.00,1.45
8674.00,1.45
8673.00,1.45
8672.00,1.45
8671.00,1.45
8670.00,1.45
8669.00,1.45
8668.00,1.45
8667.00,1.45
8666.00,1.45
8665.00,1.45
8664.00,1.45
8663.00,1.45
8662.00,1.45
8661.00,1.45
8660.00,1.45
8659.00,1.45
8658.00,1.45
8657.00,1.45
8656.00,1.45
8655.00,1.45
8654.00,1.46
8653.00,1.46
8652.00,1.46
8651.00,1.46
8650.00,1.47
8649.00,1.47
8648.00,1.47
8647.00,1.47
8646.00,1.48
8645.00,1.48
8644.00,1.48
8643.00,1.48
8642.00,1.48
8641.00,1.48
8640.00,1.48
8639.00,1.48
8638.00,1.48
8637.00,1.47
8636.00,1.47
8635.00,1.47
8634.00,1.47
8633.00,1.46
8632.00,1.46
8631.00,1.46
8630.00,1.46
8629.00,1.45
8628.00,1.45
8627.00,1.45
8626.00,1.45
8625.00,1.45
8624.00,1.45
8623.00,1.44
8622.00,1.44
8621.00,1.44
8620.00,1.44
8619.00,1.44
8618.00,1.44
8617.00,1.44
8616.00,1.44
8615.00,1.44
8614.00,1.44
8613.00,1.44
8612.00,1.44
8611.00,1.44
8610.00,1.44
8609.00,1.44
8608.00,1.44
8607.00,1.44
8606.00,1.44
8605.00,1.44
8604.00,1.44
8603.00,1.44
8602.00,1.44
8601.00,1.44
8600.00,1.44
8599.00,1.44
8598.00,1.44
8597.00,1.44
8596.00,1.44
8595.00,1.43
8594.00,1.43
8593.00,1.43
8592.00,1.43
8591.00,1.43
8590.00,1.43
8589.00,1.43
8588.00,1.42
8587.00,1.42
8586.00,1.42
8585.00,1.42
8584.00,1.42
8583.00,1.42
8582.00,1.42
8581.00,1.42
8580.00,1.42
8579.00,1.42
8578.00,1.42
8577.00,1.42
8576.00,1.42
8575.00,1.42
8574.00,1.42
8573.00,1.42
8572.00,1.42
8571.00,1.42
8570.00,1.42
8569.00,1.42
8568.00,1.42
8567.00,1.42
8566.00,1.42
8565.00,1.42
8564.00,1.42
8563.00,1.42
8562.00,1.42
8561.00,1.42
8560.00,1.42
8559.00,1.42
8558.00,1.42
8557.00,1.42
8556.00,1.42
8555.00,1.42
8554.00,1.42
8553.00,1.42
8552.00,1.42
8551.00,1.42
8550.00,1.41
8549.00,1.41
8548.00,1.41
8547.00,1.41
8546.00,1.41
8545.00,1.41
8544.00,1.41
8543.00,1.40
8542.00,1.40
8541.00,1.40
8540.00,1.40
8539.00,1.40
8538.00,1.40
8537.00,1.40
8536.00,1.40
8535.00,1.40
8534.00,1.40
8533.00,1.40
8532.00,1.40
8531.00,1.40
8530.00,1.40
8529.00,1.40
8528.00,1.40
8527.00,1.40
8526.00,1.40
8525.00,1.40
8524.00,1.40
8523.00,1.40
8522.00,1.40
8521.00,1.40
8520.00,1.40
8519.00,1.40
8518.00,1.40
8517.00,1.40
8516.00,1.40
8515.00,1.40
8514.00,1.39
8513.00,1.39
8512.00,1.39
8511.00,1.39
8510.00,1.39
8509.00,1.39
8508.00,1.39
8507.00,1.39
8506.00,1.39
8505.00,1.39
8504.00,1.39
8503.00,1.38
8502.00,1.38
8501.00,1.38
8500.00,1.38
8499.00,1.38
8498.00,1.38
8497.00,1.38
8496.00,1.38
8495.00,1.38
8494.00,1.38
8493.00,1.38
8492.00,1.38
8491.00,1.37
8490.00,1.37
8489.00,1.37
8488.00,1.37
8487.00,1.37
8486.00,1.37
8485.00,1.37
8484.00,1.37
8483.00,1.37
8482.00,1.37
8481.00,1.36
8480.00,1.36
8479.00,1.36
8478.00,1.36
8477.00,1.36
8476.00,1.36
8475.00,1.36
8474.00,1.36
8473.00,1.36
8472.00,1.35
8471.00,1.35
8470.00,1.35
8469.00,1.35
8468.00,1.35
8467.00,1.35
8466.00,1.35
8465.00,1.35
8464.00,1.35
8463.00,1.35
8462.00,1.35
8461.00,1.35
8460.00,1.35
8459.00,1.35
8458.00,1.35
8457.00,1.35
8456.00,1.34
8455.00,1.34
8454.00,1.34
8453.00,1.34
8452.00,1.34
8451.00,1.34
8450.00,1.34
8449.00,1.34
8448.00,1.34
8447.00,1.34
8446.00,1.34
8445.00,1.34
8444.00,1.34
8443.00,1.34
8442.00,1.34
8441.00,1.34
8440.00,1.34
8439.00,1.34
8438.00,1.34
8437.00,1.34
8436.00,1.34
8435.00,1.35
8434.00,1.35
8433.00,1.35
8432.00,1.35
8431.00,1.35
8430.00,1.35
8429.00,1.35
8428.00,1.35
8427.00,1.35
8426.00,1.35
8425.00,1.35
8424.00,1.35
8423.00,1.35
8422.00,1.35
8421.00,1.35
8420.00,1.36
8419.00,1.36
8418.00,1.36
8417.00,1.36
8416.00,1.36
8415.00,1.36
8414.00,1.36
8413.00,1.36
8412.00,1.36
8411.00,1.36
8410.00,1.36
8409.00,1.36
8408.00,1.36
8407.00,1.36
8406.00,1.36
8405.00,1.36
8404.00,1.36
8403.00,1.36
8402.00,1.36
8401.00,1.36
8400.00,1.36
8399.00,1.36
8398.00,1.36
8397.00,1.36
8396.00,1.36
8395.00,1.36
8394.00,1.36
8393.00,1.36
8392.00,1.36
8391.00,1.36
8390.00,1.36
8389.00,1.36
8388.00,1.36
8387.00,1.36
8386.00,1.36
8385.00,1.36
8384.00,1.36
8383.00,1.36
8382.00,1.36
8381.00,1.36
8380.00,1.36
8379.00,1.36
8378.00,1.36
8377.00,1.36
8376.00,1.36
8375.00,1.36
8374.00,1.36
8373.00,1.36
8372.00,1.36
8371.00,1.36
8370.00,1.36
8369.00,1.37
8368.00,1.37
8367.00,1.37
8366.00,1.37
8365.00,1.37
8364.00,1.38
8363.00,1.38
8362.00,1.38
8361.00,1.38
8360.00,1.39
8359.00,1.39
8358.00,1.39
8357.00,1.39
8356.00,1.39
8355.00,1.39
8354.00,1.39
8353.00,1.39
8352.00,1.39
8351.00,1.39
8350.00,1.39
8349.00,1.39
8348.00,1.39
8347.00,1.39
8346.00,1.39
8345.00,1.39
8344.00,1.39
8343.00,1.39
8342.00,1.39
8341.00,1.39
8340.00,1.40
8339.00,1.40
8338.00,1.40
8337.00,1.40
8336.00,1.40
8335.00,1.40
8334.00,1.40
8333.00,1.40
8332.00,1.41
8331.00,1.41
8330.00,1.41
8329.00,1.41
8328.00,1.41
8327.00,1.41
8326.00,1.41
8325.00,1.41
8324.00,1.41
8323.00,1.41
8322.00,1.41
8321.00,1.41
8320.00,1.40
8319.00,1.40
8318.00,1.40
8317.00,1.40
8316.00,1.40
8315.00,1.40
8314.00,1.40
8313.00,1.40
8312.00,1.40
8311.00,1.40
8310.00,1.40
8309.00,1.40
8308.00,1.40
8307.00,1.40
8306.00,1.41
8305.00,1.41
8304.00,1.41
8303.00,1.40
8302.00,1.40
8301.00,1.40
8300.00,1.40
8299.00,1.40
8298.00,1.40
8297.00,1.40
8296.00,1.40
8295.00,1.40
8294.00,1.39
8293.00,1.39
8292.00,1.39
8291.00,1.39
8290.00,1.39
8289.00,1.39
8288.00,1.39
8287.00,1.39
8286.00,1.39
8285.00,1.39
8284.00,1.39
8283.00,1.39
8282.00,1.39
8281.00,1.39
8280.00,1.39
8279.00,1.39
8278.00,1.40
8277.00,1.40
8276.00,1.40
8275.00,1.40
8274.00,1.40
8273.00,1.40
8272.00,1.40
8271.00,1.40
8270.00,1.40
8269.00,1.40
8268.00,1.40
8267.00,1.40
8266.00,1.40
8265.00,1.40
8264.00,1.41
8263.00,1.41
8262.00,1.41
8261.00,1.41
8260.00,1.41
8259.00,1.41
8258.00,1.41
8257.00,1.41
8256.00,1.41
8255.00,1.41
8254.00,1.41
8253.00,1.41
8252.00,1.41
8251.00,1.41
8250.00,1.41
8249.00,1.41
8248.00,1.41
8247.00,1.41
8246.00,1.41
8245.00,1.41
8244.00,1.41
8243.00,1.41
8242.00,1.42
8241.00,1.42
8240.00,1.42
8239.00,1.42
8238.00,1.42
8237.00,1.42
8236.00,1.43
8235.00,1.43
8234.00,1.43
8233.00,1.43
8232.00,1.43
8231.00,1.43
8230.00,1.43
8229.00,1.43
8228.00,1.43
8227.00,1.44
8226.00,1.44
8225.00,1.44
8224.00,1.44
8223.00,1.44
8222.00,1.44
8221.00,1.44
8220.00,1.44
8219.00,1.44
8218.00,1.44
8217.00,1.44
8216.00,1.44
8215.00,1.44
8214.00,1.44
8213.00,1.44
8212.00,1.44
8211.00,1.44
8210.00,1.44
8209.00,1.44
8208.00,1.44
8207.00,1.43
8206.00,1.43
8205.00,1.43
8204.00,1.43
8203.00,1.43
8202.00,1.43
8201.00,1.43
8200.00,1.43
8199.00,1.43
8198.00,1.43
8197.00,1.43
8196.00,1.44
8195.00,1.44
8194.00,1.44
8193.00,1.44
8192.00,1.44
8191.00,1.44
8190.00,1.44
8189.00,1.44
8188.00,1.44
8187.00,1.44
8186.00,1.44
8185.00,1.44
8184.00,1.44
8183.00,1.44
8182.00,1.44
8181.00,1.44
8180.00,1.44
8179.00,1.44
8178.00,1.44
8177.00,1.44
8176.00,1.44
8175.00,1.44
8174.00,1.44
8173.00,1.44
8172.00,1.44
8171.00,1.44
8170.00,1.45
8169.00,1.45
8168.00,1.45
8167.00,1.45
8166.00,1.45
8165.00,1.45
8164.00,1.45
8163.00,1.45
8162.00,1.45
8161.00,1.45
8160.00,1.45
8159.00,1.45
8158.00,1.45
8157.00,1.45
8156.00,1.45
8155.00,1.45
8154.00,1.46
8153.00,1.46
8152.00,1.46
8151.00,1.46
8150.00,1.46
8149.00,1.46
8148.00,1.46
8147.00,1.46
8146.00,1.46
8145.00,1.47
8144.00,1.47
8143.00,1.47
8142.00,1.47
8141.00,1.47
8140.00,1.47
8139.00,1.47
8138.00,1.47
8137.00,1.47
8136.00,1.47
8135.00,1.47
8134.00,1.47
8133.00,1.47
8132.00,1.47
8131.00,1.47
8130.00,1.47
8129.00,1.47
8128.00,1.47
8127.00,1.47
8126.00,1.47
8125.00,1.47
8124.00,1.47
8123.00,1.47
8122.00,1.47
8121.00,1.47
8120.00,1.48
8119.00,1.48
8118.00,1.48
8117.00,1.48
8116.00,1.48
8115.00,1.48
8114.00,1.48
8113.00,1.48
8112.00,1.48
8111.00,1.48
8110.00,1.48
8109.00,1.48
8108.00,1.48
8107.00,1.48
8106.00,1.48
8105.00,1.48
8104.00,1.48
8103.00,1.48
8102.00,1.48
8101.00,1.48
8100.00,1.48
8099.00,1.48
8098.00,1.48
8097.00,1.48
8096.00,1.48
8095.00,1.48
8094.00,1.48
8093.00,1.48
8092.00,1.48
8091.00,1.48
8090.00,1.48
8089.00,1.48
8088.00,1.48
8087.00,1.48
8086.00,1.48
8085.00,1.48
8084.00,1.49
8083.00,1.49
8082.00,1.49
8081.00,1.49
8080.00,1.49
8079.00,1.49
8078.00,1.49
8077.00,1.49
8076.00,1.49
8075.00,1.49
8074.00,1.50
8073.00,1.50
8072.00,1.50
8071.00,1.50
8070.00,1.50
8069.00,1.50
8068.00,1.50
8067.00,1.50
8066.00,1.50
8065.00,1.50
8064.00,1.50
8063.00,1.50
8062.00,1.51
8061.00,1.51
8060.00,1.51
8059.00,1.51
8058.00,1.51
8057.00,1.51
8056.00,1.51
8055.00,1.51
8054.00,1.51
8053.00,1.51
8052.00,1.50
8051.00,1.50
8050.00,1.50
8049.00,1.50
8048.00,1.50
8047.00,1.50
8046.00,1.50
8045.00,1.50
8044.00,1.50
8043.00,1.50
8042.00,1.50
8041.00,1.50
8040.00,1.50
8039.00,1.50
8038.00,1.50
8037.00,1.50
8036.00,1.50
8035.00,1.50
8034.00,1.50
8033.00,1.50
8032.00,1.51
8031.00,1.51
8030.00,1.51
8029.00,1.51
8028.00,1.51
8027.00,1.51
8026.00,1.51
8025.00,1.51
8024.00,1.51
8023.00,1.51
8022.00,1.51
8021.00,1.51
8020.00,1.51
8019.00,1.51
8018.00,1.51
8017.00,1.51
8016.00,1.50
8015.00,1.50
8014.00,1.50
8013.00,1.50
8012.00,1.50
8011.00,1.50
8010.00,1.50
8009.00,1.50
8008.00,1.50
8007.00,1.50
8006.00,1.50
8005.00,1.50
8004.00,1.50
8003.00,1.50
8002.00,1.50
8001.00,1.50
8000.00,1.50
7999.00,1.50
7998.00,1.50
7997.00,1.51
7996.00,1.51
7995.00,1.51
7994.00,1.51
7993.00,1.51
7992.00,1.51
7991.00,1.51
7990.00,1.51
7989.00,1.51
7988.00,1.51
7987.00,1.51
7986.00,1.51
7985.00,1.51
7984.00,1.50
7983.00,1.50
7982.00,1.50
7981.00,1.50
7980.00,1.50
7979.00,1.50
7978.00,1.50
7977.00,1.50
7976.00,1.50
7975.00,1.50
7974.00,1.50
7973.00,1.50
7972.00,1.50
7971.00,1.51
7970.00,1.51
7969.00,1.51
7968.00,1.51
7967.00,1.51
7966.00,1.51
7965.00,1.51
7964.00,1.52
7963.00,1.52
7962.00,1.52
7961.00,1.52
7960.00,1.52
7959.00,1.52
7958.00,1.52
7957.00,1.52
7956.00,1.52
7955.00,1.52
7954.00,1.52
7953.00,1.52
7952.00,1.52
7951.00,1.52
7950.00,1.52
7949.00,1.52
7948.00,1.53
7947.00,1.53
7946.00,1.53
7945.00,1.53
7944.00,1.53
7943.00,1.53
7942.00,1.53
7941.00,1.53
7940.00,1.53
7939.00,1.53
7938.00,1.52
7937.00,1.52
7936.00,1.52
7935.00,1.52
7934.00,1.52
7933.00,1.52
7932.00,1.52
7931.00,1.52
7930.00,1.52
7929.00,1.52
7928.00,1.52
7927.00,1.52
7926.00,1.52
7925.00,1.52
7924.00,1.52
7923.00,1.52
7922.00,1.53
7921.00,1.53
7920.00,1.53
7919.00,1.53
7918.00,1.53
7917.00,1.53
7916.00,1.53
7915.00,1.53
7914.00,1.53
7913.00,1.53
7912.00,1.53
7911.00,1.53
7910.00,1.53
7909.00,1.53
7908.00,1.53
7907.00,1.53
7906.00,1.53
7905.00,1.53
7904.00,1.53
7903.00,1.53
7902.00,1.53
7901.00,1.53
7900.00,1.53
7899.00,1.53
7898.00,1.53
7897.00,1.53
7896.00,1.53
7895.00,1.53
7894.00,1.53
7893.00,1.53
7892.00,1.54
7891.00,1.54
7890.00,1.54
7889.00,1.54
7888.00,1.54
7887.00,1.54
7886.00,1.54
7885.00,1.54
7884.00,1.54
7883.00,1.54
7882.00,1.55
7881.00,1.55
7880.00,1.55
7879.00,1.55
7878.00,1.55
7877.00,1.54
7876.00,1.54
7875.00,1.54
7874.00,1.54
7873.00,1.54
7872.00,1.54
7871.00,1.54
7870.00,1.54
7869.00,1.54
7868.00,1.54
7867.00,1.54
7866.00,1.54
7865.00,1.54
7864.00,1.54
7863.00,1.54
7862.00,1.54
7861.00,1.54
7860.00,1.54
7859.00,1.54
7858.00,1.54
7857.00,1.54
7856.00,1.54
7855.00,1.54
7854.00,1.54
7853.00,1.54
7852.00,1.54
7851.00,1.54
7850.00,1.54
7849.00,1.54
7848.00,1.53
7847.00,1.53
7846.00,1.53
7845.00,1.53
7844.00,1.53
7843.00,1.53
7842.00,1.53
7841.00,1.53
7840.00,1.53
7839.00,1.53
7838.00,1.53
7837.00,1.53
7836.00,1.53
7835.00,1.54
7834.00,1.54
7833.00,1.54
7832.00,1.54
7831.00,1.54
7830.00,1.54
7829.00,1.54
7828.00,1.54
7827.00,1.54
7826.00,1.54
7825.00,1.54
7824.00,1.54
7823.00,1.54
7822.00,1.54
7821.00,1.54
7820.00,1.54
7819.00,1.55
7818.00,1.55
7817.00,1.55
7816.00,1.55
7815.00,1.55
7814.00,1.55
7813.00,1.55
7812.00,1.55
7811.00,1.55
7810.00,1.55
7809.00,1.55
7808.00,1.55
7807.00,1.55
7806.00,1.55
7805.00,1.55
7804.00,1.55
7803.00,1.55
7802.00,1.54
7801.00,1.54
7800.00,1.54
7799.00,1.54
7798.00,1.54
7797.00,1.54
7796.00,1.54
7795.00,1.54
7794.00,1.54
7793.00,1.54
7792.00,1.54
7791.00,1.54
7790.00,1.54
7789.00,1.54
7788.00,1.55
7787.00,1.55
7786.00,1.55
7785.00,1.55
7784.00,1.55
7783.00,1.55
7782.00,1.55
7781.00,1.55
7780.00,1.55
7779.00,1.55
7778.00,1.56
7777.00,1.56
7776.00,1.56
7775.00,1.56
7774.00,1.56
7773.00,1.56
7772.00,1.56
7771.00,1.56
7770.00,1.56
7769.00,1.56
7768.00,1.56
7767.00,1.56
7766.00,1.56
7765.00,1.56
7764.00,1.56
7763.00,1.56
7762.00,1.56
7761.00,1.56
7760.00,1.56
7759.00,1.56
7758.00,1.56
7757.00,1.56
7756.00,1.55
7755.00,1.55
7754.00,1.55
7753.00,1.55
7752.00,1.55
7751.00,1.55
7750.00,1.55
7749.00,1.55
7748.00,1.55
7747.00,1.55
7746.00,1.55
7745.00,1.55
7744.00,1.55
7743.00,1.55
7742.00,1.55
7741.00,1.55
7740.00,1.55
7739.00,1.55
7738.00,1.55
7737.00,1.55
7736.00,1.55
7735.00,1.55
7734.00,1.55
7733.00,1.55
7732.00,1.55
7731.00,1.55
7730.00,1.55
7729.00,1.55
7728.00,1.55
7727.00,1.55
7726.00,1.55
7725.00,1.55
7724.00,1.55
7723.00,1.55
7722.00,1.55
7721.00,1.54
7720.00,1.54
7719.00,1.54
7718.00,1.54
7717.00,1.54
7716.00,1.54
7715.00,1.54
7714.00,1.54
7713.00,1.54
7712.00,1.54
7711.00,1.54
7710.00,1.55
7709.00,1.55
7708.00,1.55
7707.00,1.55
7706.00,1.55
7705.00,1.55
7704.00,1.56
7703.00,1.56
7702.00,1.56
7701.00,1.56
7700.00,1.56
7699.00,1.56
7698.00,1.57
7697.00,1.57
7696.00,1.57
7695.00,1.57
7694.00,1.57
7693.00,1.57
7692.00,1.57
7691.00,1.57
7690.00,1.57
7689.00,1.57
7688.00,1.57
7687.00,1.57
7686.00,1.57
7685.00,1.57
7684.00,1.57
7683.00,1.57
7682.00,1.57
7681.00,1.57
7680.00,1.57
7679.00,1.57
7678.00,1.57
7677.00,1.57
7676.00,1.56
7675.00,1.56
7674.00,1.56
7673.00,1.56
7672.00,1.56
7671.00,1.56
7670.00,1.56
7669.00,1.56
7668.00,1.56
7667.00,1.56
7666.00,1.56
7665.00,1.56
7664.00,1.56
7663.00,1.56
7662.00,1.56
7661.00,1.56
7660.00,1.55
7659.00,1.55
7658.00,1.55
7657.00,1.55
7656.00,1.55
7655.00,1.55
7654.00,1.55
7653.00,1.55
7652.00,1.55
7651.00,1.55
7650.00,1.55
7649.00,1.55
7648.00,1.56
7647.00,1.56
7646.00,1.56
7645.00,1.56
7644.00,1.56
7643.00,1.56
7642.00,1.56
7641.00,1.56
7640.00,1.57
7639.00,1.57
7638.00,1.57
7637.00,1.57
7636.00,1.57
7635.00,1.57
7634.00,1.57
7633.00,1.57
7632.00,1.57
7631.00,1.57
7630.00,1.57
7629.00,1.57
7628.00,1.56
7627.00,1.56
7626.00,1.56
7625.00,1.56
7624.00,1.56
7623.00,1.56
7622.00,1.56
7621.00,1.56
7620.00,1.56
7619.00,1.56
7618.00,1.56
7617.00,1.56
7616.00,1.56
7615.00,1.56
7614.00,1.56
7613.00,1.56
7612.00,1.56
7611.00,1.56
7610.00,1.56
7609.00,1.56
7608.00,1.56
7607.00,1.56
7606.00,1.56
7605.00,1.56
7604.00,1.56
7603.00,1.56
7602.00,1.55
7601.00,1.55
7600.00,1.55
7599.00,1.55
7598.00,1.55
7597.00,1.55
7596.00,1.55
7595.00,1.55
7594.00,1.55
7593.00,1.55
7592.00,1.55
7591.00,1.55
7590.00,1.55
7589.00,1.55
7588.00,1.55
7587.00,1.55
7586.00,1.54
7585.00,1.54
7584.00,1.54
7583.00,1.54
7582.00,1.54
7581.00,1.54
7580.00,1.54
7579.00,1.54
7578.00,1.54
7577.00,1.54
7576.00,1.54
7575.00,1.54
7574.00,1.54
7573.00,1.54
7572.00,1.54
7571.00,1.54
7570.00,1.54
7569.00,1.54
7568.00,1.54
7567.00,1.54
7566.00,1.54
7565.00,1.54
7564.00,1.54
7563.00,1.54
7562.00,1.54
7561.00,1.54
7560.00,1.54
7559.00,1.54
7558.00,1.54
7557.00,1.54
7556.00,1.54
7555.00,1.54
7554.00,1.54
7553.00,1.54
7552.00,1.54
7551.00,1.54
7550.00,1.54
7549.00,1.54
7548.00,1.54
7547.00,1.55
7546.00,1.55
7545.00,1.55
7544.00,1.55
7543.00,1.55
7542.00,1.55
7541.00,1.55
7540.00,1.55
7539.00,1.55
7538.00,1.55
7537.00,1.55
7536.00,1.55
7535.00,1.55
7534.00,1.55
7533.00,1.55
7532.00,1.55
7531.00,1.55
7530.00,1.55
7529.00,1.55
7528.00,1.55
7527.00,1.54
7526.00,1.54
7525.00,1.54
7524.00,1.54
7523.00,1.54
7522.00,1.54
7521.00,1.54
7520.00,1.54
7519.00,1.53
7518.00,1.53
7517.00,1.53
7516.00,1.53
7515.00,1.53
7514.00,1.53
7513.00,1.53
7512.00,1.53
7511.00,1.53
7510.00,1.53
7509.00,1.53
7508.00,1.53
7507.00,1.53
7506.00,1.53
7505.00,1.53
7504.00,1.53
7503.00,1.53
7502.00,1.52
7501.00,1.52
7500.00,1.52
7499.00,1.52
7498.00,1.52
7497.00,1.52
7496.00,1.52
7495.00,1.52
7494.00,1.52
7493.00,1.52
7492.00,1.52
7491.00,1.52
7490.00,1.52
7489.00,1.52
7488.00,1.52
7487.00,1.52
7486.00,1.52
7485.00,1.52
7484.00,1.51
7483.00,1.51
7482.00,1.51
7481.00,1.51
7480.00,1.51
7479.00,1.51
7478.00,1.51
7477.00,1.51
7476.00,1.51
7475.00,1.51
7474.00,1.51
7473.00,1.51
7472.00,1.51
7471.00,1.51
7470.00,1.51
7469.00,1.51
7468.00,1.51
7467.00,1.51
7466.00,1.51
7465.00,1.51
7464.00,1.51
7463.00,1.51
7462.00,1.51
7461.00,1.51
7460.00,1.51
7459.00,1.51
7458.00,1.50
7457.00,1.50
7456.00,1.50
7455.00,1.50
7454.00,1.50
7453.00,1.50
7452.00,1.50
7451.00,1.50
7450.00,1.50
7449.00,1.50
7448.00,1.50
7447.00,1.50
7446.00,1.50
7445.00,1.50
7444.00,1.50
7443.00,1.50
7442.00,1.50
7441.00,1.50
7440.00,1.50
7439.00,1.50
7438.00,1.50
7437.00,1.49
7436.00,1.49
7435.00,1.49
7434.00,1.49
7433.00,1.49
7432.00,1.49
7431.00,1.49
7430.00,1.48
7429.00,1.48
7428.00,1.48
7427.00,1.48
7426.00,1.48
7425.00,1.48
7424.00,1.47
7423.00,1.47
7422.00,1.47
7421.00,1.47
7420.00,1.47
7419.00,1.47
7418.00,1.47
7417.00,1.47
7416.00,1.47
7415.00,1.47
7414.00,1.47
7413.00,1.46
7412.00,1.46
7411.00,1.46
7410.00,1.46
7409.00,1.46
7408.00,1.46
7407.00,1.46
7406.00,1.46
7405.00,1.46
7404.00,1.46
7403.00,1.45
7402.00,1.45
7401.00,1.45
7400.00,1.45
7399.00,1.45
7398.00,1.45
7397.00,1.45
7396.00,1.45
7395.00,1.45
7394.00,1.44
7393.00,1.44
7392.00,1.44
7391.00,1.44
7390.00,1.44
7389.00,1.44
7388.00,1.44
7387.00,1.44
7386.00,1.43
7385.00,1.43
7384.00,1.43
7383.00,1.43
7382.00,1.43
7381.00,1.43
7380.00,1.43
7379.00,1.43
7378.00,1.42
7377.00,1.42
7376.00,1.42
7375.00,1.42
7374.00,1.42
7373.00,1.42
7372.00,1.42
7371.00,1.42
7370.00,1.42
7369.00,1.42
7368.00,1.42
7367.00,1.42
7366.00,1.42
7365.00,1.42
7364.00,1.42
7363.00,1.42
7362.00,1.42
7361.00,1.42
7360.00,1.42
7359.00,1.42
7358.00,1.42
7357.00,1.42
7356.00,1.42
7355.00,1.42
7354.00,1.42
7353.00,1.42
7352.00,1.42
7351.00,1.42
7350.00,1.42
7349.00,1.42
7348.00,1.42
7347.00,1.42
7346.00,1.42
7345.00,1.42
7344.00,1.42
7343.00,1.42
7342.00,1.42
7341.00,1.42
7340.00,1.42
7339.00,1.42
7338.00,1.42
7337.00,1.41
7336.00,1.41
7335.00,1.41
7334.00,1.41
7333.00,1.41
7332.00,1.41
7331.00,1.41
7330.00,1.40
7329.00,1.40
7328.00,1.40
7327.00,1.40
7326.00,1.40
7325.00,1.40
7324.00,1.40
7323.00,1.39
7322.00,1.39
7321.00,1.39
7320.00,1.39
7319.00,1.39
7318.00,1.39
7317.00,1.39
7316.00,1.39
7315.00,1.39
7314.00,1.39
7313.00,1.39
7312.00,1.39
7311.00,1.39
7310.00,1.39
7309.00,1.39
7308.00,1.39
7307.00,1.38
7306.00,1.38
7305.00,1.38
7304.00,1.38
7303.00,1.38
7302.00,1.38
7301.00,1.38
7300.00,1.38
7299.00,1.37
7298.00,1.37
7297.00,1.37
7296.00,1.37
7295.00,1.37
7294.00,1.37
7293.00,1.37
7292.00,1.36
7291.00,1.36
7290.00,1.36
7289.00,1.36
7288.00,1.36
7287.00,1.36
7286.00,1.35
7285.00,1.35
7284.00,1.35
7283.00,1.35
7282.00,1.35
7281.00,1.35
7280.00,1.35
7279.00,1.35
7278.00,1.34
7277.00,1.34
7276.00,1.34
7275.00,1.34
7274.00,1.34
7273.00,1.34
7272.00,1.34
7271.00,1.34
7270.00,1.34
7269.00,1.34
7268.00,1.34
7267.00,1.34
7266.00,1.34
7265.00,1.34
7264.00,1.34
7263.00,1.33
7262.00,1.33
7261.00,1.33
7260.00,1.33
7259.00,1.33
7258.00,1.32
7257.00,1.32
7256.00,1.32
7255.00,1.32
7254.00,1.31
7253.00,1.31
7252.00,1.31
7251.00,1.31
7250.00,1.30
7249.00,1.30
7248.00,1.30
7247.00,1.29
7246.00,1.29
7245.00,1.29
7244.00,1.29
7243.00,1.28
7242.00,1.28
7241.00,1.28
7240.00,1.27
7239.00,1.27
7238.00,1.26
7237.00,1.26
7236.00,1.26
7235.00,1.25
7234.00,1.25
7233.00,1.24
7232.00,1.24
7231.00,1.23
7230.00,1.23
7229.00,1.23
7228.00,1.22
7227.00,1.22
7226.00,1.21
7225.00,1.21
7224.00,1.21
7223.00,1.20
7222.00,1.20
7221.00,1.19
7220.00,1.19
7219.00,1.19
7218.00,1.19
7217.00,1.18
7216.00,1.18
7215.00,1.18
7214.00,1.17
7213.00,1.17
7212.00,1.17
7211.00,1.16
7210.00,1.16
7209.00,1.15
7208.00,1.15
7207.00,1.15
7206.00,1.14
7205.00,1.14
7204.00,1.13
7203.00,1.13
7202.00,1.12
7201.00,1.12
7200.00,1.11
7199.00,1.11
7198.00,1.11
7197.00,1.10
7196.00,1.10
7195.00,1.09
7194.00,1.09
7193.00,1.08
7192.00,1.08
7191.00,1.07
7190.00,1.07
7189.00,1.07
7188.00,1.06
7187.00,1.06
7186.00,1.06
7185.00,1.05
7184.00,1.05
7183.00,1.04
7182.00,1.04
7181.00,1.04
7180.00,1.03
7179.00,1.03
7178.00,1.03
7177.00,1.03
7176.00,1.02
7175.00,1.02
7174.00,1.02
7173.00,1.01
7172.00,1.01
7171.00,1.01
7170.00,1.00
7169.00,1.00
7168.00,1.00
7167.00,0.99
7166.00,0.99
7165.00,0.98
7164.00,0.98
7163.00,0.98
7162.00,0.97
7161.00,0.97
7160.00,0.97
7159.00,0.96
7158.00,0.96
7157.00,0.96
7156.00,0.95
7155.00,0.95
7154.00,0.95
7153.00,0.95
7152.00,0.94
7151.00,0.94
7150.00,0.94
7149.00,0.93
7148.00,0.93
7147.00,0.93
7146.00,0.93
7145.00,0.92
7144.00,0.92
7143.00,0.92
7142.00,0.92
7141.00,0.91
7140.00,0.91
7139.00,0.91
7138.00,0.91
7137.00,0.90
7136.00,0.90
7135.00,0.90
7134.00,0.89
7133.00,0.89
7132.00,0.89
7131.00,0.88
7130.00,0.88
7129.00,0.88
7128.00,0.87
7127.00,0.87
7126.00,0.87
7125.00,0.87
7124.00,0.86
7123.00,0.86
7122.00,0.86
7121.00,0.85
7120.00,0.85
7119.00,0.85
7118.00,0.84
7117.00,0.84
7116.00,0.84
7115.00,0.84
7114.00,0.83
7113.00,0.83
7112.00,0.83
7111.00,0.82
7110.00,0.82
7109.00,0.82
7108.00,0.82
7107.00,0.81
7106.00,0.81
7105.00,0.81
7104.00,0.80
7103.00,0.80
7102.00,0.80
7101.00,0.80
7100.00,0.79
7099.00,0.79
7098.00,0.79
7097.00,0.79
7096.00,0.78
7095.00,0.78
7094.00,0.78
7093.00,0.78
7092.00,0.78
7091.00,0.77
7090.00,0.77
7089.00,0.77
7088.00,0.77
7087.00,0.77
7086.00,0.76
7085.00,0.76
7084.00,0.76
7083.00,0.76
7082.00,0.76
7081.00,0.75
7080.00,0.75
7079.00,0.75
7078.00,0.75
7077.00,0.75
7076.00,0.75
7075.00,0.74
7074.00,0.74
7073.00,0.74
7072.00,0.74
7071.00,0.74
7070.00,0.74
7069.00,0.74
7068.00,0.73
7067.00,0.73
7066.00,0.73
7065.00,0.73
7064.00,0.73
7063.00,0.73
7062.00,0.73
7061.00,0.73
7060.00,0.73
7059.00,0.73
7058.00,0.73
7057.00,0.73
7056.00,0.73
7055.00,0.72
7054.00,0.72
7053.00,0.72
7052.00,0.72
7051.00,0.72
7050.00,0.72
7049.00,0.72
7048.00,0.72
7047.00,0.72
7046.00,0.72
7045.00,0.71
7044.00,0.71
7043.00,0.71
7042.00,0.71
7041.00,0.71
7040.00,0.71
7039.00,0.71
7038.00,0.70
7037.00,0.70
7036.00,0.70
7035.00,0.70
7034.00,0.70
7033.00,0.70
7032.00,0.69
7031.00,0.69
7030.00,0.69
7029.00,0.69
7028.00,0.69
7027.00,0.69
7026.00,0.69
7025.00,0.68
7024.00,0.68
7023.00,0.68
7022.00,0.68
7021.00,0.68
7020.00,0.68
7019.00,0.68
7018.00,0.68
7017.00,0.68
7016.00,0.67
7015.00,0.67
7014.00,0.67
7013.00,0.67
7012.00,0.67
7011.00,0.67
7010.00,0.67
7009.00,0.67
7008.00,0.67
7007.00,0.67
7006.00,0.66
7005.00,0.66
7004.00,0.66
7003.00,0.66
7002.00,0.66
7001.00,0.66
7000.00,0.66
6999.00,0.66
6998.00,0.66
6997.00,0.66
6996.00,0.66
6995.00,0.66
6994.00,0.66
6993.00,0.66
6992.00,0.66
6991.00,0.66
6990.00,0.66
6989.00,0.66
6988.00,0.66
6987.00,0.66
6986.00,0.66
6985.00,0.66
6984.00,0.66
6983.00,0.66
6982.00,0.66
6981.00,0.65
6980.00,0.65
6979.00,0.65
6978.00,0.65
6977.00,0.65
6976.00,0.65
6975.00,0.65
6974.00,0.65
6973.00,0.65
6972.00,0.65
6971.00,0.65
6970.00,0.64
6969.00,0.64
6968.00,0.64
6967.00,0.64
6966.00,0.64
6965.00,0.64
6964.00,0.64
6963.00,0.64
6962.00,0.64
6961.00,0.64
6960.00,0.64
6959.00,0.64
6958.00,0.64
6957.00,0.64
6956.00,0.64
6955.00,0.64
6954.00,0.64
6953.00,0.64
6952.00,0.64
6951.00,0.64
6950.00,0.64
6949.00,0.64
6948.00,0.64
6947.00,0.64
6946.00,0.64
6945.00,0.64
6944.00,0.64
6943.00,0.64
6942.00,0.63
6941.00,0.63
6940.00,0.63
6939.00,0.63
6938.00,0.63
6937.00,0.63
6936.00,0.63
6935.00,0.63
6934.00,0.63
6933.00,0.63
6932.00,0.63
6931.00,0.63
6930.00,0.63
6929.00,0.63
6928.00,0.63
6927.00,0.63
6926.00,0.63
6925.00,0.63
6924.00,0.63
6923.00,0.63
6922.00,0.63
6921.00,0.63
6920.00,0.63
6919.00,0.63
6918.00,0.63
6917.00,0.63
6916.00,0.64
6915.00,0.64
6914.00,0.64
6913.00,0.64
6912.00,0.64
6911.00,0.64
6910.00,0.64
6909.00,0.64
6908.00,0.64
6907.00,0.64
6906.00,0.64
6905.00,0.64
6904.00,0.64
6903.00,0.64
6902.00,0.64
6901.00,0.64
6900.00,0.64
6899.00,0.64
6898.00,0.64
6897.00,0.64
6896.00,0.64
6895.00,0.64
6894.00,0.64
6893.00,0.63
6892.00,0.63
6891.00,0.63
6890.00,0.63
6889.00,0.63
6888.00,0.63
6887.00,0.63
6886.00,0.63
6885.00,0.63
6884.00,0.63
6883.00,0.63
6882.00,0.63
6881.00,0.63
6880.00,0.63
6879.00,0.63
6878.00,0.63
6877.00,0.63
6876.00,0.63
6875.00,0.63
6874.00,0.63
6873.00,0.63
6872.00,0.63
6871.00,0.63
6870.00,0.63
6869.00,0.63
6868.00,0.63
6867.00,0.63
6866.00,0.63
6865.00,0.63
6864.00,0.63
6863.00,0.63
6862.00,0.63
6861.00,0.63
6860.00,0.63
6859.00,0.63
6858.00,0.63
6857.00,0.63
6856.00,0.63
6855.00,0.63
6854.00,0.63
6853.00,0.63
6852.00,0.63
6851.00,0.62
6850.00,0.62
6849.00,0.62
6848.00,0.62
6847.00,0.62
6846.00,0.62
6845.00,0.62
6844.00,0.62
6843.00,0.62
6842.00,0.62
6841.00,0.62
6840.00,0.63
6839.00,0.63
6838.00,0.63
6837.00,0.63
6836.00,0.63
6835.00,0.63
6834.00,0.63
6833.00,0.63
6832.00,0.63
6831.00,0.63
6830.00,0.63
6829.00,0.63
6828.00,0.63
6827.00,0.63
6826.00,0.63
6825.00,0.63
6824.00,0.63
6823.00,0.63
6822.00,0.63
6821.00,0.63
6820.00,0.63
6819.00,0.63
6818.00,0.63
6817.00,0.63
6816.00,0.63
6815.00,0.63
6814.00,0.63
6813.00,0.63
6812.00,0.63
6811.00,0.63
6810.00,0.64
6809.00,0.64
6808.00,0.64
6807.00,0.64
6806.00,0.64
6805.00,0.64
6804.00,0.64
6803.00,0.64
6802.00,0.64
6801.00,0.64
6800.00,0.64
6799.00,0.64
6798.00,0.64
6797.00,0.64
6796.00,0.64
6795.00,0.64
6794.00,0.64
6793.00,0.64
6792.00,0.64
6791.00,0.64
6790.00,0.64
6789.00,0.64
6788.00,0.64
6787.00,0.65
6786.00,0.65
6785.00,0.65
6784.00,0.65
6783.00,0.65
6782.00,0.65
6781.00,0.65
6780.00,0.66
6779.00,0.66
6778.00,0.66
6777.00,0.66
6776.00,0.66
6775.00,0.66
6774.00,0.66
6773.00,0.67
6772.00,0.67
6771.00,0.67
6770.00,0.67
6769.00,0.67
6768.00,0.67
6767.00,0.67
6766.00,0.67
6765.00,0.67
6764.00,0.67
6763.00,0.67
6762.00,0.67
6761.00,0.67
6760.00,0.67
6759.00,0.67
6758.00,0.68
6757.00,0.68
6756.00,0.68
6755.00,0.68
6754.00,0.68
6753.00,0.68
6752.00,0.68
6751.00,0.68
6750.00,0.68
6749.00,0.69
6748.00,0.69
6747.00,0.69
6746.00,0.69
6745.00,0.69
6744.00,0.69
6743.00,0.69
6742.00,0.69
6741.00,0.69
6740.00,0.69
6739.00,0.69
6738.00,0.69
6737.00,0.69
6736.00,0.69
6735.00,0.69
6734.00,0.69
6733.00,0.69
6732.00,0.69
6731.00,0.69
6730.00,0.69
6729.00,0.70
6728.00,0.70
6727.00,0.70
6726.00,0.70
6725.00,0.70
6724.00,0.70
6723.00,0.70
6722.00,0.70
6721.00,0.70
6720.00,0.70
6719.00,0.70
6718.00,0.70
6717.00,0.70
6716.00,0.70
6715.00,0.70
6714.00,0.70
6713.00,0.70
6712.00,0.70
6711.00,0.70
6710.00,0.70
6709.00,0.70
6708.00,0.70
6707.00,0.70
6706.00,0.70
6705.00,0.70
6704.00,0.70
6703.00,0.70
6702.00,0.71
6701.00,0.71
6700.00,0.71
6699.00,0.71
6698.00,0.71
6697.00,0.71
6696.00,0.71
6695.00,0.71
6694.00,0.71
6693.00,0.71
6692.00,0.71
6691.00,0.71
6690.00,0.72
6689.00,0.72
6688.00,0.72
6687.00,0.72
6686.00,0.72
6685.00,0.72
6684.00,0.72
6683.00,0.72
6682.00,0.72
6681.00,0.72
6680.00,0.73
6679.00,0.73
6678.00,0.73
6677.00,0.73
6676.00,0.73
6675.00,0.73
6674.00,0.73
6673.00,0.74
6672.00,0.74
6671.00,0.74
6670.00,0.74
6669.00,0.74
6668.00,0.74
6667.00,0.74
6666.00,0.75
6665.00,0.75
6664.00,0.75
6663.00,0.75
6662.00,0.75
6661.00,0.75
6660.00,0.75
6659.00,0.75
6658.00,0.75
6657.00,0.75
6656.00,0.75
6655.00,0.75
6654.00,0.75
6653.00,0.76
6652.00,0.76
6651.00,0.76
6650.00,0.76
6649.00,0.76
6648.00,0.76
6647.00,0.76
6646.00,0.76
6645.00,0.76
6644.00,0.77
6643.00,0.77
6642.00,0.77
6641.00,0.77
6640.00,0.77
6639.00,0.77
6638.00,0.77
6637.00,0.78
6636.00,0.78
6635.00,0.78
6634.00,0.78
6633.00,0.78
6632.00,0.78
6631.00,0.78
6630.00,0.78
6629.00,0.79
6628.00,0.79
6627.00,0.79
6626.00,0.79
6625.00,0.79
6624.00,0.79
6623.00,0.79
6622.00,0.79
6621.00,0.79
6620.00,0.79
6619.00,0.79
6618.00,0.79
6617.00,0.79
6616.00,0.80
6615.00,0.80
6614.00,0.80
6613.00,0.80
6612.00,0.80
6611.00,0.80
6610.00,0.80
6609.00,0.80
6608.00,0.80
6607.00,0.80
6606.00,0.81
6605.00,0.81
6604.00,0.81
6603.00,0.81
6602.00,0.81
6601.00,0.81
6600.00,0.81
6599.00,0.81
6598.00,0.82
6597.00,0.82
6596.00,0.82
6595.00,0.82
6594.00,0.82
6593.00,0.82
6592.00,0.82
6591.00,0.82
6590.00,0.83
6589.00,0.83
6588.00,0.83
6587.00,0.83
6586.00,0.83
6585.00,0.83
6584.00,0.83
6583.00,0.83
6582.00,0.83
6581.00,0.83
6580.00,0.83
6579.00,0.83
6578.00,0.83
6577.00,0.83
6576.00,0.84
6575.00,0.84
6574.00,0.84
6573.00,0.84
6572.00,0.84
6571.00,0.84
6570.00,0.84
6569.00,0.84
6568.00,0.84
6567.00,0.84
6566.00,0.84
6565.00,0.84
6564.00,0.84
6563.00,0.84
6562.00,0.85
6561.00,0.85
6560.00,0.85
6559.00,0.85
6558.00,0.85
6557.00,0.85
6556.00,0.85
6555.00,0.86
6554.00,0.86
6553.00,0.86
6552.00,0.86
6551.00,0.86
6550.00,0.86
6549.00,0.86
6548.00,0.86
6547.00,0.87
6546.00,0.87
6545.00,0.87
6544.00,0.87
6543.00,0.87
6542.00,0.87
6541.00,0.87
6540.00,0.87
6539.00,0.87
6538.00,0.87
6537.00,0.87
6536.00,0.87
6535.00,0.87
6534.00,0.88
6533.00,0.88
6532.00,0.88
6531.00,0.88
6530.00,0.88
6529.00,0.88
6528.00,0.88
6527.00,0.88
6526.00,0.88
6525.00,0.89
6524.00,0.89
6523.00,0.89
6522.00,0.89
6521.00,0.89
6520.00,0.89
6519.00,0.89
6518.00,0.90
6517.00,0.90
6516.00,0.90
6515.00,0.90
6514.00,0.90
6513.00,0.90
6512.00,0.90
6511.00,0.90
6510.00,0.90
6509.00,0.90
6508.00,0.90
6507.00,0.91
6506.00,0.91
6505.00,0.91
6504.00,0.91
6503.00,0.91
6502.00,0.91
6501.00,0.91
6500.00,0.91
6499.00,0.91
6498.00,0.91
6497.00,0.91
6496.00,0.91
6495.00,0.91
6494.00,0.91
6493.00,0.92
6492.00,0.92
6491.00,0.92
6490.00,0.92
6489.00,0.92
6488.00,0.92
6487.00,0.92
6486.00,0.92
6485.00,0.92
6484.00,0.92
6483.00,0.92
6482.00,0.92
6481.00,0.92
6480.00,0.92
6479.00,0.92
6478.00,0.92
6477.00,0.92
6476.00,0.93
6475.00,0.93
6474.00,0.93
6473.00,0.93
6472.00,0.93
6471.00,0.93
6470.00,0.93
6469.00,0.93
6468.00,0.93
6467.00,0.93
6466.00,0.93
6465.00,0.93
6464.00,0.94
6463.00,0.94
6462.00,0.94
6461.00,0.94
6460.00,0.94
6459.00,0.94
6458.00,0.94
6457.00,0.94
6456.00,0.94
6455.00,0.95
6454.00,0.95
6453.00,0.95
6452.00,0.95
6451.00,0.95
6450.00,0.95
6449.00,0.95
6448.00,0.95
6447.00,0.95
6446.00,0.95
6445.00,0.95
6444.00,0.95
6443.00,0.95
6442.00,0.95
6441.00,0.95
6440.00,0.95
6439.00,0.95
6438.00,0.95
6437.00,0.95
6436.00,0.96
6435.00,0.96
6434.00,0.96
6433.00,0.96
6432.00,0.96
6431.00,0.96
6430.00,0.96
6429.00,0.96
6428.00,0.96
6427.00,0.96
6426.00,0.96
6425.00,0.96
6424.00,0.96
6423.00,0.96
6422.00,0.96
6421.00,0.96
6420.00,0.96
6419.00,0.96
6418.00,0.96
6417.00,0.96
6416.00,0.97
6415.00,0.97
6414.00,0.97
6413.00,0.97
6412.00,0.97
6411.00,0.97
6410.00,0.97
6409.00,0.98
6408.00,0.98
6407.00,0.98
6406.00,0.98
6405.00,0.98
6404.00,0.98
6403.00,0.98
6402.00,0.98
6401.00,0.99
6400.00,0.99
6399.00,0.99
6398.00,0.99
6397.00,0.99
6396.00,0.99
6395.00,0.99
6394.00,0.99
6393.00,0.99
6392.00,0.99
6391.00,0.99
6390.00,0.99
6389.00,0.99
6388.00,0.99
6387.00,0.99
6386.00,0.99
6385.00,0.99
6384.00,0.99
6383.00,0.99
6382.00,0.99
6381.00,0.99
6380.00,0.99
6379.00,0.99
6378.00,0.99
6377.00,1.00
6376.00,1.00
6375.00,1.00
6374.00,1.00
6373.00,1.00
6372.00,1.00
6371.00,1.00
6370.00,1.00
6369.00,1.00
6368.00,1.01
6367.00,1.01
6366.00,1.01
6365.00,1.01
6364.00,1.01
6363.00,1.01
6362.00,1.01
6361.00,1.01
6360.00,1.01
6359.00,1.01
6358.00,1.01
6357.00,1.01
6356.00,1.02
6355.00,1.02
6354.00,1.02
6353.00,1.02
6352.00,1.02
6351.00,1.02
6350.00,1.02
6349.00,1.02
6348.00,1.02
6347.00,1.02
6346.00,1.02
6345.00,1.02
6344.00,1.03
6343.00,1.03
6342.00,1.03
6341.00,1.03
6340.00,1.03
6339.00,1.03
6338.00,1.03
6337.00,1.04
6336.00,1.04
6335.00,1.04
6334.00,1.04
6333.00,1.04
6332.00,1.04
6331.00,1.04
6330.00,1.05
6329.00,1.05
6328.00,1.05
6327.00,1.05
6326.00,1.05
6325.00,1.05
6324.00,1.05
6323.00,1.06
6322.00,1.06
6321.00,1.06
6320.00,1.06
6319.00,1.06
6318.00,1.06
6317.00,1.06
6316.00,1.06
6315.00,1.06
6314.00,1.07
6313.00,1.07
6312.00,1.07
6311.00,1.07
6310.00,1.07
6309.00,1.07
6308.00,1.07
6307.00,1.07
6306.00,1.07
6305.00,1.07
6304.00,1.07
6303.00,1.07
6302.00,1.07
6301.00,1.07
6300.00,1.07
6299.00,1.08
6298.00,1.08
6297.00,1.08
6296.00,1.08
6295.00,1.08
6294.00,1.08
6293.00,1.08
6292.00,1.08
6291.00,1.08
6290.00,1.09
6289.00,1.09
6288.00,1.09
6287.00,1.09
6286.00,1.09
6285.00,1.09
6284.00,1.09
6283.00,1.09
6282.00,1.09
6281.00,1.09
6280.00,1.09
6279.00,1.10
6278.00,1.10
6277.00,1.10
6276.00,1.10
6275.00,1.10
6274.00,1.10
6273.00,1.10
6272.00,1.11
6271.00,1.11
6270.00,1.11
6269.00,1.11
6268.00,1.11
6267.00,1.12
6266.00,1.12
6265.00,1.12
6264.00,1.12
6263.00,1.13
6262.00,1.13
6261.00,1.13
6260.00,1.13
6259.00,1.13
6258.00,1.13
6257.00,1.14
6256.00,1.14
6255.00,1.14
6254.00,1.14
6253.00,1.14
6252.00,1.14
6251.00,1.14
6250.00,1.14
6249.00,1.15
6248.00,1.15
6247.00,1.15
6246.00,1.15
6245.00,1.15
6244.00,1.15
6243.00,1.15
6242.00,1.15
6241.00,1.15
6240.00,1.16
6239.00,1.16
6238.00,1.16
6237.00,1.16
6236.00,1.16
6235.00,1.16
6234.00,1.16
6233.00,1.16
6232.00,1.16
6231.00,1.16
6230.00,1.17
6229.00,1.17
6228.00,1.17
6227.00,1.17
6226.00,1.17
6225.00,1.17
6224.00,1.18
6223.00,1.18
6222.00,1.18
6221.00,1.18
6220.00,1.18
6219.00,1.18
6218.00,1.18
6217.00,1.19
6216.00,1.19
6215.00,1.19
6214.00,1.19
6213.00,1.19
6212.00,1.19
6211.00,1.20
6210.00,1.20
6209.00,1.20
6208.00,1.20
6207.00,1.20
6206.00,1.20
6205.00,1.21
6204.00,1.21
6203.00,1.21
6202.00,1.21
6201.00,1.21
6200.00,1.21
6199.00,1.21
6198.00,1.21
6197.00,1.22
6196.00,1.22
6195.00,1.22
6194.00,1.22
6193.00,1.22
6192.00,1.22
6191.00,1.22
6190.00,1.22
6189.00,1.23
6188.00,1.23
6187.00,1.23
6186.00,1.23
6185.00,1.23
6184.00,1.23
6183.00,1.24
6182.00,1.24
6181.00,1.24
6180.00,1.24
6179.00,1.24
6178.00,1.25
6177.00,1.25
6176.00,1.25
6175.00,1.25
6174.00,1.25
6173.00,1.26
6172.00,1.26
6171.00,1.26
6170.00,1.26
6169.00,1.26
6168.00,1.26
6167.00,1.27
6166.00,1.27
6165.00,1.27
6164.00,1.27
6163.00,1.27
6162.00,1.28
6161.00,1.28
6160.00,1.28
6159.00,1.28
6158.00,1.28
6157.00,1.29
6156.00,1.29
6155.00,1.29
6154.00,1.29
6153.00,1.29
6152.00,1.29
6151.00,1.30
6150.00,1.30
6149.00,1.30
6148.00,1.30
6147.00,1.30
6146.00,1.30
6145.00,1.30
6144.00,1.31
6143.00,1.31
6142.00,1.31
6141.00,1.31
6140.00,1.31
6139.00,1.31
6138.00,1.32
6137.00,1.32
6136.00,1.32
6135.00,1.32
6134.00,1.32
6133.00,1.33
6132.00,1.33
6131.00,1.33
6130.00,1.33
6129.00,1.33
6128.00,1.33
6127.00,1.34
6126.00,1.34
6125.00,1.34
6124.00,1.34
6123.00,1.34
6122.00,1.34
6121.00,1.34
6120.00,1.35
6119.00,1.35
6118.00,1.35
6117.00,1.35
6116.00,1.35
6115.00,1.35
6114.00,1.35
6113.00,1.35
6112.00,1.35
6111.00,1.36
6110.00,1.36
6109.00,1.36
6108.00,1.36
6107.00,1.36
6106.00,1.36
6105.00,1.37
6104.00,1.37
6103.00,1.37
6102.00,1.37
6101.00,1.38
6100.00,1.38
6099.00,1.38
6098.00,1.38
6097.00,1.38
6096.00,1.39
6095.00,1.39
6094.00,1.39
6093.00,1.39
6092.00,1.39
6091.00,1.40
6090.00,1.40
6089.00,1.40
6088.00,1.40
6087.00,1.40
6086.00,1.40
6085.00,1.41
6084.00,1.41
6083.00,1.41
6082.00,1.41
6081.00,1.41
6080.00,1.41
6079.00,1.41
6078.00,1.42
6077.00,1.42
6076.00,1.42
6075.00,1.42
6074.00,1.42
6073.00,1.42
6072.00,1.43
6071.00,1.43
6070.00,1.43
6069.00,1.43
6068.00,1.43
6067.00,1.43
6066.00,1.43
6065.00,1.43
6064.00,1.43
6063.00,1.43
6062.00,1.44
6061.00,1.44
6060.00,1.44
6059.00,1.44
6058.00,1.44
6057.00,1.44
6056.00,1.44
6055.00,1.44
6054.00,1.44
6053.00,1.44
6052.00,1.44
6051.00,1.44
6050.00,1.44
6049.00,1.44
6048.00,1.44
6047.00,1.44
6046.00,1.45
6045.00,1.45
6044.00,1.45
6043.00,1.45
6042.00,1.45
6041.00,1.45
6040.00,1.45
6039.00,1.45
6038.00,1.46
6037.00,1.46
6036.00,1.46
6035.00,1.46
6034.00,1.46
6033.00,1.46
6032.00,1.46
6031.00,1.46
6030.00,1.46
6029.00,1.46
6028.00,1.46
6027.00,1.46
6026.00,1.46
6025.00,1.46
6024.00,1.46
6023.00,1.46
6022.00,1.46
6021.00,1.46
6020.00,1.46
6019.00,1.46
6018.00,1.46
6017.00,1.46
6016.00,1.46
6015.00,1.46
6014.00,1.46
6013.00,1.46
6012.00,1.46
6011.00,1.46
6010.00,1.46
6009.00,1.46
6008.00,1.46
6007.00,1.46
6006.00,1.46
6005.00,1.46
6004.00,1.46
6003.00,1.46
6002.00,1.46
6001.00,1.46
6000.00,1.46
5999.00,1.46
5998.00,1.45
5997.00,1.45
5996.00,1.45
5995.00,1.45
5994.00,1.45
5993.00,1.45
5992.00,1.45
5991.00,1.45
5990.00,1.45
5989.00,1.44
5988.00,1.44
5987.00,1.44
5986.00,1.44
5985.00,1.43
5984.00,1.43
5983.00,1.43
5982.00,1.43
5981.00,1.42
5980.00,1.42
5979.00,1.41
5978.00,1.41
5977.00,1.40
5976.00,1.40
5975.00,1.39
5974.00,1.39
5973.00,1.38
5972.00,1.38
5971.00,1.37
5970.00,1.36
5969.00,1.36
5968.00,1.35
5967.00,1.34
5966.00,1.33
5965.00,1.33
5964.00,1.32
5963.00,1.31
5962.00,1.30
5961.00,1.29
5960.00,1.29
5959.00,1.28
5958.00,1.27
5957.00,1.26
5956.00,1.25
5955.00,1.24
5954.00,1.23
5953.00,1.23
5952.00,1.22
5951.00,1.21
5950.00,1.21
5949.00,1.20
5948.00,1.19
5947.00,1.19
5946.00,1.18
5945.00,1.18
5944.00,1.18
5943.00,1.17
5942.00,1.17
5941.00,1.17
5940.00,1.17
5939.00,1.17
5938.00,1.16
5937.00,1.16
5936.00,1.16
5935.00,1.16
5934.00,1.16
5933.00,1.16
5932.00,1.16
5931.00,1.16
5930.00,1.16
5929.00,1.16
5928.00,1.15
5927.00,1.15
5926.00,1.15
5925.00,1.15
5924.00,1.15
5923.00,1.15
5922.00,1.14
5921.00,1.14
5920.00,1.14
5919.00,1.14
5918.00,1.13
5917.00,1.13
5916.00,1.13
5915.00,1.13
5914.00,1.12
5913.00,1.12
5912.00,1.12
5911.00,1.11
5910.00,1.11
5909.00,1.11
5908.00,1.11
5907.00,1.11
5906.00,1.10
5905.00,1.10
5904.00,1.10
5903.00,1.10
5902.00,1.10
5901.00,1.10
5900.00,1.10
5899.00,1.10
5898.00,1.10
5897.00,1.11
5896.00,1.11
5895.00,1.11
5894.00,1.11
5893.00,1.11
5892.00,1.12
5891.00,1.12
5890.00,1.12
5889.00,1.13
5888.00,1.13
5887.00,1.13
5886.00,1.14
5885.00,1.14
5884.00,1.14
5883.00,1.15
5882.00,1.15
5881.00,1.16
5880.00,1.16
5879.00,1.16
5878.00,1.17
5877.00,1.17
5876.00,1.17
5875.00,1.18
5874.00,1.18
5873.00,1.18
5872.00,1.18
5871.00,1.19
5870.00,1.19
5869.00,1.19
5868.00,1.20
5867.00,1.20
5866.00,1.20
5865.00,1.20
5864.00,1.20
5863.00,1.21
5862.00,1.21
5861.00,1.21
5860.00,1.21
5859.00,1.21
5858.00,1.21
5857.00,1.21
5856.00,1.21
5855.00,1.21
5854.00,1.21
5853.00,1.21
5852.00,1.21
5851.00,1.22
5850.00,1.22
5849.00,1.22
5848.00,1.22
5847.00,1.22
5846.00,1.22
5845.00,1.22
5844.00,1.22
5843.00,1.22
5842.00,1.22
5841.00,1.22
5840.00,1.22
5839.00,1.22
5838.00,1.22
5837.00,1.22
5836.00,1.21
5835.00,1.21
5834.00,1.21
5833.00,1.21
5832.00,1.21
5831.00,1.21
5830.00,1.21
5829.00,1.21
5828.00,1.21
5827.00,1.21
5826.00,1.21
5825.00,1.21
5824.00,1.21
5823.00,1.21
5822.00,1.21
5821.00,1.22
5820.00,1.22
5819.00,1.22
5818.00,1.22
5817.00,1.22
5816.00,1.22
5815.00,1.22
5814.00,1.22
5813.00,1.23
5812.00,1.23
5811.00,1.23
5810.00,1.23
5809.00,1.23
5808.00,1.23
5807.00,1.23
5806.00,1.23
5805.00,1.23
5804.00,1.22
5803.00,1.22
5802.00,1.22
5801.00,1.22
5800.00,1.22
5799.00,1.21
5798.00,1.21
5797.00,1.21
5796.00,1.21
5795.00,1.20
5794.00,1.20
5793.00,1.20
5792.00,1.19
5791.00,1.19
5790.00,1.19
5789.00,1.18
5788.00,1.18
5787.00,1.18
5786.00,1.17
5785.00,1.17
5784.00,1.17
5783.00,1.17
5782.00,1.16
5781.00,1.16
5780.00,1.16
5779.00,1.16
5778.00,1.16
5777.00,1.15
5776.00,1.15
5775.00,1.15
5774.00,1.15
5773.00,1.15
5772.00,1.15
5771.00,1.15
5770.00,1.15
5769.00,1.15
5768.00,1.16
5767.00,1.16
5766.00,1.16
5765.00,1.16
5764.00,1.16
5763.00,1.17
5762.00,1.17
5761.00,1.17
5760.00,1.17
5759.00,1.18
5758.00,1.18
5757.00,1.19
5756.00,1.19
5755.00,1.19
5754.00,1.20
5753.00,1.20
5752.00,1.21
5751.00,1.21
5750.00,1.21
5749.00,1.22
5748.00,1.22
5747.00,1.23
5746.00,1.23
5745.00,1.23
5744.00,1.24
5743.00,1.24
5742.00,1.24
5741.00,1.25
5740.00,1.25
5739.00,1.25
5738.00,1.26
5737.00,1.26
5736.00,1.26
5735.00,1.26
5734.00,1.27
5733.00,1.27
5732.00,1.27
5731.00,1.27
5730.00,1.27
5729.00,1.27
5728.00,1.27
5727.00,1.28
5726.00,1.28
5725.00,1.28
5724.00,1.28
5723.00,1.28
5722.00,1.28
5721.00,1.28
5720.00,1.28
5719.00,1.28
5718.00,1.28
5717.00,1.28
5716.00,1.28
5715.00,1.28
5714.00,1.28
5713.00,1.28
5712.00,1.28
5711.00,1.28
5710.00,1.28
5709.00,1.28
5708.00,1.28
5707.00,1.28
5706.00,1.28
5705.00,1.28
5704.00,1.28
5703.00,1.28
5702.00,1.27
5701.00,1.27
5700.00,1.27
5699.00,1.27
5698.00,1.27
5697.00,1.27
5696.00,1.27
5695.00,1.26
5694.00,1.26
5693.00,1.26
5692.00,1.26
5691.00,1.26
5690.00,1.26
5689.00,1.25
5688.00,1.25
5687.00,1.25
5686.00,1.25
5685.00,1.25
5684.00,1.25
5683.00,1.24
5682.00,1.24
5681.00,1.24
5680.00,1.24
5679.00,1.24
5678.00,1.24
5677.00,1.24
5676.00,1.24
5675.00,1.24
5674.00,1.24
5673.00,1.24
5672.00,1.24
5671.00,1.24
5670.00,1.24
5669.00,1.24
5668.00,1.24
5667.00,1.24
5666.00,1.24
5665.00,1.24
5664.00,1.24
5663.00,1.25
5662.00,1.25
5661.00,1.25
5660.00,1.25
5659.00,1.25
5658.00,1.25
5657.00,1.26
5656.00,1.26
5655.00,1.26
5654.00,1.26
5653.00,1.26
5652.00,1.27
5651.00,1.27
5650.00,1.27
5649.00,1.27
5648.00,1.28
5647.00,1.28
5646.00,1.28
5645.00,1.28
5644.00,1.28
5643.00,1.29
5642.00,1.29
5641.00,1.29
5640.00,1.29
5639.00,1.30
5638.00,1.30
5637.00,1.30
5636.00,1.30
5635.00,1.30
5634.00,1.31
5633.00,1.31
5632.00,1.31
5631.00,1.31
5630.00,1.31
5629.00,1.32
5628.00,1.32
5627.00,1.32
5626.00,1.32
5625.00,1.32
5624.00,1.32
5623.00,1.33
5622.00,1.33
5621.00,1.33
5620.00,1.33
5619.00,1.33
5618.00,1.34
5617.00,1.34
5616.00,1.34
5615.00,1.34
5614.00,1.35
5613.00,1.35
5612.00,1.35
5611.00,1.35
5610.00,1.35
5609.00,1.36
5608.00,1.36
5607.00,1.36
5606.00,1.36
5605.00,1.36
5604.00,1.37
5603.00,1.37
5602.00,1.37
5601.00,1.37
5600.00,1.37
5599.00,1.37
5598.00,1.38
5597.00,1.38
5596.00,1.38
5595.00,1.38
5594.00,1.38
5593.00,1.38
5592.00,1.39
5591.00,1.39
5590.00,1.39
5589.00,1.39
5588.00,1.39
5587.00,1.39
5586.00,1.40
5585.00,1.40
5584.00,1.40
5583.00,1.40
5582.00,1.40
5581.00,1.40
5580.00,1.40
5579.00,1.41
5578.00,1.41
5577.00,1.41
5576.00,1.41
5575.00,1.41
5574.00,1.41
5573.00,1.42
5572.00,1.42
5571.00,1.42
5570.00,1.42
5569.00,1.42
5568.00,1.42
5567.00,1.43
5566.00,1.43
5565.00,1.43
5564.00,1.43
5563.00,1.43
5562.00,1.43
5561.00,1.44
5560.00,1.44
5559.00,1.44
5558.00,1.44
5557.00,1.44
5556.00,1.44
5555.00,1.45
5554.00,1.45
5553.00,1.45
5552.00,1.45
5551.00,1.45
5550.00,1.46
5549.00,1.46
5548.00,1.46
5547.00,1.46
5546.00,1.46
5545.00,1.46
5544.00,1.46
5543.00,1.47
5542.00,1.47
5541.00,1.47
5540.00,1.47
5539.00,1.47
5538.00,1.47
5537.00,1.48
5536.00,1.48
5535.00,1.48
5534.00,1.48
5533.00,1.48
5532.00,1.48
5531.00,1.48
5530.00,1.48
5529.00,1.49
5528.00,1.49
5527.00,1.49
5526.00,1.49
5525.00,1.49
5524.00,1.49
5523.00,1.49
5522.00,1.49
5521.00,1.49
5520.00,1.49
5519.00,1.49
5518.00,1.49
5517.00,1.49
5516.00,1.49
5515.00,1.49
5514.00,1.50
5513.00,1.50
5512.00,1.50
5511.00,1.50
5510.00,1.50
5509.00,1.50
5508.00,1.50
5507.00,1.50
5506.00,1.50
5505.00,1.50
5504.00,1.50
5503.00,1.50
5502.00,1.50
5501.00,1.50
5500.00,1.50
5499.00,1.50
5498.00,1.50
5497.00,1.51
5496.00,1.51
5495.00,1.51
5494.00,1.51
5493.00,1.51
5492.00,1.51
5491.00,1.51
5490.00,1.52
5489.00,1.52
5488.00,1.52
5487.00,1.52
5486.00,1.52
5485.00,1.53
5484.00,1.53
5483.00,1.53
5482.00,1.53
5481.00,1.53
5480.00,1.53
5479.00,1.54
5478.00,1.54
5477.00,1.54
5476.00,1.54
5475.00,1.54
5474.00,1.54
5473.00,1.55
5472.00,1.55
5471.00,1.55
5470.00,1.55
5469.00,1.55
5468.00,1.55
5467.00,1.55
5466.00,1.55
5465.00,1.55
5464.00,1.56
5463.00,1.56
5462.00,1.56
5461.00,1.56
5460.00,1.56
5459.00,1.56
5458.00,1.56
5457.00,1.56
5456.00,1.56
5455.00,1.56
5454.00,1.56
5453.00,1.56
5452.00,1.56
5451.00,1.56
5450.00,1.56
5449.00,1.56
5448.00,1.56
5447.00,1.56
5446.00,1.56
5445.00,1.56
5444.00,1.56
5443.00,1.56
5442.00,1.56
5441.00,1.56
5440.00,1.56
5439.00,1.56
5438.00,1.56
5437.00,1.56
5436.00,1.56
5435.00,1.56
5434.00,1.56
5433.00,1.56
5432.00,1.56
5431.00,1.56
5430.00,1.56
5429.00,1.57
5428.00,1.57
5427.00,1.57
5426.00,1.57
5425.00,1.57
5424.00,1.57
5423.00,1.57
5422.00,1.57
5421.00,1.57
5420.00,1.57
5419.00,1.57
5418.00,1.57
5417.00,1.57
5416.00,1.57
5415.00,1.57
5414.00,1.57
5413.00,1.57
5412.00,1.57
5411.00,1.57
5410.00,1.57
5409.00,1.57
5408.00,1.57
5407.00,1.56
5406.00,1.56
5405.00,1.56
5404.00,1.56
5403.00,1.56
5402.00,1.56
5401.00,1.56
5400.00,1.56
5399.00,1.56
5398.00,1.56
5397.00,1.56
5396.00,1.56
5395.00,1.56
5394.00,1.55
5393.00,1.55
5392.00,1.55
5391.00,1.55
5390.00,1.55
5389.00,1.54
5388.00,1.54
5387.00,1.54
5386.00,1.53
5385.00,1.53
5384.00,1.53
5383.00,1.53
5382.00,1.52
5381.00,1.52
5380.00,1.51
5379.00,1.51
5378.00,1.51
5377.00,1.50
5376.00,1.50
5375.00,1.49
5374.00,1.49
5373.00,1.48
5372.00,1.48
5371.00,1.47
5370.00,1.47
5369.00,1.46
5368.00,1.46
5367.00,1.45
5366.00,1.44
5365.00,1.43
5364.00,1.43
5363.00,1.42
5362.00,1.41
5361.00,1.40
5360.00,1.39
5359.00,1.39
5358.00,1.38
5357.00,1.37
5356.00,1.36
5355.00,1.35
5354.00,1.34
5353.00,1.33
5352.00,1.32
5351.00,1.31
5350.00,1.30
5349.00,1.29
5348.00,1.28
5347.00,1.27
5346.00,1.26
5345.00,1.25
5344.00,1.24
5343.00,1.23
5342.00,1.22
5341.00,1.20
5340.00,1.19
5339.00,1.18
5338.00,1.17
5337.00,1.16
5336.00,1.15
5335.00,1.14
5334.00,1.13
5333.00,1.11
5332.00,1.10
5331.00,1.09
5330.00,1.08
5329.00,1.07
5328.00,1.06
5327.00,1.05
5326.00,1.04
5325.00,1.03
5324.00,1.02
5323.00,1.01
5322.00,1.00
5321.00,0.99
5320.00,0.98
5319.00,0.97
5318.00,0.96
5317.00,0.95
5316.00,0.94
5315.00,0.93
5314.00,0.92
5313.00,0.91
5312.00,0.91
5311.00,0.90
5310.00,0.89
5309.00,0.88
5308.00,0.88
5307.00,0.87
5306.00,0.86
5305.00,0.86
5304.00,0.85
5303.00,0.85
5302.00,0.84
5301.00,0.84
5300.00,0.83
5299.00,0.83
5298.00,0.82
5297.00,0.82
5296.00,0.82
5295.00,0.81
5294.00,0.81
5293.00,0.81
5292.00,0.81
5291.00,0.80
5290.00,0.80
5289.00,0.80
5288.00,0.80
5287.00,0.80
5286.00,0.80
5285.00,0.80
5284.00,0.79
5283.00,0.79
5282.00,0.79
5281.00,0.79
5280.00,0.79
5279.00,0.79
5278.00,0.79
5277.00,0.79
5276.00,0.79
5275.00,0.79
5274.00,0.79
5273.00,0.79
5272.00,0.79
5271.00,0.79
5270.00,0.79
5269.00,0.79
5268.00,0.79
5267.00,0.79
5266.00,0.79
5265.00,0.79
5264.00,0.79
5263.00,0.79
5262.00,0.79
5261.00,0.79
5260.00,0.79
5259.00,0.79
5258.00,0.79
5257.00,0.79
5256.00,0.79
5255.00,0.79
5254.00,0.79
5253.00,0.79
5252.00,0.79
5251.00,0.79
5250.00,0.79
5249.00,0.79
5248.00,0.79
5247.00,0.79
5246.00,0.79
5245.00,0.79
5244.00,0.79
5243.00,0.79
5242.00,0.79
5241.00,0.79
5240.00,0.79
5239.00,0.79
5238.00,0.79
5237.00,0.79
5236.00,0.79
5235.00,0.79
5234.00,0.79
5233.00,0.79
5232.00,0.79
5231.00,0.79
5230.00,0.79
5229.00,0.79
5228.00,0.79
5227.00,0.79
5226.00,0.79
5225.00,0.79
5224.00,0.79
5223.00,0.80
5222.00,0.80
5221.00,0.80
5220.00,0.80
5219.00,0.80
5218.00,0.80
5217.00,0.80
5216.00,0.80
5215.00,0.80
5214.00,0.80
5213.00,0.80
5212.00,0.80
5211.00,0.80
5210.00,0.80
5209.00,0.80
5208.00,0.80
5207.00,0.80
5206.00,0.80
5205.00,0.80
5204.00,0.80
5203.00,0.80
5202.00,0.80
5201.00,0.80
5200.00,0.80
5199.00,0.81
5198.00,0.81
5197.00,0.81
5196.00,0.81
5195.00,0.81
5194.00,0.81
5193.00,0.81
5192.00,0.81
5191.00,0.81
5190.00,0.81
5189.00,0.81
5188.00,0.81
5187.00,0.81
5186.00,0.81
5185.00,0.81
5184.00,0.81
5183.00,0.81
5182.00,0.81
5181.00,0.81
5180.00,0.81
5179.00,0.82
5178.00,0.82
5177.00,0.82
5176.00,0.82
5175.00,0.82
5174.00,0.82
5173.00,0.82
5172.00,0.82
5171.00,0.82
5170.00,0.82
5169.00,0.82
5168.00,0.82
5167.00,0.82
5166.00,0.82
5165.00,0.82
5164.00,0.82
5163.00,0.82
5162.00,0.82
5161.00,0.82
5160.00,0.82
5159.00,0.82
5158.00,0.82
5157.00,0.82
5156.00,0.82
5155.00,0.83
5154.00,0.83
5153.00,0.83
5152.00,0.83
5151.00,0.83
5150.00,0.83
5149.00,0.83
5148.00,0.83
5147.00,0.83
5146.00,0.83
5145.00,0.83
5144.00,0.83
5143.00,0.83
5142.00,0.83
5141.00,0.83
5140.00,0.83
5139.00,0.83
5138.00,0.83
5137.00,0.83
5136.00,0.83
5135.00,0.83
5134.00,0.84
5133.00,0.84
5132.00,0.84
5131.00,0.84
5130.00,0.84
5129.00,0.84
5128.00,0.84
5127.00,0.84
5126.00,0.84
5125.00,0.84
5124.00,0.84
5123.00,0.84
5122.00,0.84
5121.00,0.84
5120.00,0.84
5119.00,0.85
5118.00,0.85
5117.00,0.85
5116.00,0.85
5115.00,0.85
5114.00,0.85
5113.00,0.85
5112.00,0.85
5111.00,0.85
5110.00,0.85
5109.00,0.85
5108.00,0.85
5107.00,0.85
5106.00,0.85
5105.00,0.85
5104.00,0.85
5103.00,0.85
5102.00,0.85
5101.00,0.85
5100.00,0.85
5099.00,0.85
5098.00,0.85
5097.00,0.86
5096.00,0.86
5095.00,0.86
5094.00,0.86
5093.00,0.86
5092.00,0.86
5091.00,0.86
5090.00,0.86
5089.00,0.86
5088.00,0.86
5087.00,0.86
5086.00,0.86
5085.00,0.86
5084.00,0.86
5083.00,0.86
5082.00,0.86
5081.00,0.86
5080.00,0.86
5079.00,0.87
5078.00,0.87
5077.00,0.87
5076.00,0.87
5075.00,0.87
5074.00,0.87
5073.00,0.87
5072.00,0.87
5071.00,0.87
5070.00,0.87
5069.00,0.87
5068.00,0.88
5067.00,0.88
5066.00,0.88
5065.00,0.88
5064.00,0.88
5063.00,0.88
5062.00,0.88
5061.00,0.88
5060.00,0.88
5059.00,0.89
5058.00,0.89
5057.00,0.89
5056.00,0.89
5055.00,0.89
5054.00,0.89
5053.00,0.89
5052.00,0.89
5051.00,0.89
5050.00,0.89
5049.00,0.89
5048.00,0.89
5047.00,0.89
5046.00,0.89
5045.00,0.89
5044.00,0.89
5043.00,0.89
5042.00,0.89
5041.00,0.89
5040.00,0.89
5039.00,0.89
5038.00,0.89
5037.00,0.89
5036.00,0.89
5035.00,0.89
5034.00,0.90
5033.00,0.90
5032.00,0.90
5031.00,0.90
5030.00,0.90
5029.00,0.90
5028.00,0.90
5027.00,0.90
5026.00,0.90
5025.00,0.91
5024.00,0.91
5023.00,0.91
5022.00,0.91
5021.00,0.91
5020.00,0.91
5019.00,0.91
5018.00,0.91
5017.00,0.91
5016.00,0.91
5015.00,0.91
5014.00,0.91
5013.00,0.91
5012.00,0.91
5011.00,0.91
5010.00,0.91
5009.00,0.91
5008.00,0.91
5007.00,0.91
5006.00,0.91
5005.00,0.91
5004.00,0.92
5003.00,0.92
5002.00,0.92
5001.00,0.92
5000.00,0.92
4999.00,0.92
4998.00,0.92
4997.00,0.92
4996.00,0.92
4995.00,0.92
4994.00,0.92
4993.00,0.92
4992.00,0.93
4991.00,0.93
4990.00,0.93
4989.00,0.93
4988.00,0.93
4987.00,0.93
4986.00,0.93
4985.00,0.93
4984.00,0.93
4983.00,0.93
4982.00,0.94
4981.00,0.94
4980.00,0.94
4979.00,0.94
4978.00,0.94
4977.00,0.94
4976.00,0.94
4975.00,0.94
4974.00,0.94
4973.00,0.94
4972.00,0.94
4971.00,0.95
4970.00,0.95
4969.00,0.95
4968.00,0.95
4967.00,0.95
4966.00,0.95
4965.00,0.95
4964.00,0.95
4963.00,0.95
4962.00,0.95
4961.00,0.95
4960.00,0.96
4959.00,0.96
4958.00,0.96
4957.00,0.96
4956.00,0.96
4955.00,0.96
4954.00,0.96
4953.00,0.96
4952.00,0.96
4951.00,0.96
4950.00,0.96
4949.00,0.96
4948.00,0.96
4947.00,0.96
4946.00,0.96
4945.00,0.96
4944.00,0.96
4943.00,0.97
4942.00,0.97
4941.00,0.97
4940.00,0.97
4939.00,0.97
4938.00,0.97
4937.00,0.97
4936.00,0.97
4935.00,0.97
4934.00,0.97
4933.00,0.98
4932.00,0.98
4931.00,0.98
4930.00,0.98
4929.00,0.98
4928.00,0.98
4927.00,0.98
4926.00,0.98
4925.00,0.98
4924.00,0.99
4923.00,0.99
4922.00,0.99
4921.00,0.99
4920.00,0.99
4919.00,0.99
4918.00,0.99
4917.00,0.99
4916.00,0.99
4915.00,0.99
4914.00,0.99
4913.00,1.00
4912.00,1.00
4911.00,1.00
4910.00,1.00
4909.00,1.00
4908.00,1.00
4907.00,1.00
4906.00,1.00
4905.00,1.00
4904.00,1.00
4903.00,1.00
4902.00,1.00
4901.00,1.00
4900.00,1.00
4899.00,1.00
4898.00,1.00
4897.00,1.00
4896.00,1.00
4895.00,1.01
4894.00,1.01
4893.00,1.01
4892.00,1.01
4891.00,1.01
4890.00,1.01
4889.00,1.01
4888.00,1.01
4887.00,1.01
4886.00,1.01
4885.00,1.01
4884.00,1.01
4883.00,1.01
4882.00,1.01
4881.00,1.01
4880.00,1.01
4879.00,1.01
4878.00,1.02
4877.00,1.02
4876.00,1.02
4875.00,1.02
4874.00,1.02
4873.00,1.02
4872.00,1.02
4871.00,1.02
4870.00,1.03
4869.00,1.03
4868.00,1.03
4867.00,1.03
4866.00,1.03
4865.00,1.03
4864.00,1.03
4863.00,1.03
4862.00,1.03
4861.00,1.03
4860.00,1.03
4859.00,1.03
4858.00,1.04
4857.00,1.04
4856.00,1.04
4855.00,1.04
4854.00,1.04
4853.00,1.04
4852.00,1.04
4851.00,1.04
4850.00,1.04
4849.00,1.04
4848.00,1.04
4847.00,1.04
4846.00,1.04
4845.00,1.04
4844.00,1.04
4843.00,1.04
4842.00,1.04
4841.00,1.04
4840.00,1.04
4839.00,1.04
4838.00,1.05
4837.00,1.05
4836.00,1.05
4835.00,1.05
4834.00,1.05
4833.00,1.05
4832.00,1.05
4831.00,1.05
4830.00,1.05
4829.00,1.05
4828.00,1.05
4827.00,1.05
4826.00,1.05
4825.00,1.05
4824.00,1.05
4823.00,1.05
4822.00,1.05
4821.00,1.05
4820.00,1.06
4819.00,1.06
4818.00,1.06
4817.00,1.06
4816.00,1.06
4815.00,1.06
4814.00,1.06
4813.00,1.07
4812.00,1.07
4811.00,1.07
4810.00,1.07
4809.00,1.07
4808.00,1.07
4807.00,1.08
4806.00,1.08
4805.00,1.08
4804.00,1.08
4803.00,1.08
4802.00,1.08
4801.00,1.08
4800.00,1.08
4799.00,1.08
4798.00,1.08
4797.00,1.08
4796.00,1.08
4795.00,1.08
4794.00,1.08
4793.00,1.08
4792.00,1.08
4791.00,1.08
4790.00,1.08
4789.00,1.09
4788.00,1.09
4787.00,1.09
4786.00,1.09
4785.00,1.09
4784.00,1.09
4783.00,1.10
4782.00,1.10
4781.00,1.10
4780.00,1.10
4779.00,1.10
4778.00,1.11
4777.00,1.11
4776.00,1.11
4775.00,1.11
4774.00,1.11
4773.00,1.12
4772.00,1.12
4771.00,1.12
4770.00,1.12
4769.00,1.12
4768.00,1.12
4767.00,1.12
4766.00,1.12
4765.00,1.13
4764.00,1.13
4763.00,1.13
4762.00,1.13
4761.00,1.13
4760.00,1.13
4759.00,1.13
4758.00,1.14
4757.00,1.14
4756.00,1.14
4755.00,1.14
4754.00,1.14
4753.00,1.15
4752.00,1.15
4751.00,1.15
4750.00,1.15
4749.00,1.15
4748.00,1.15
4747.00,1.15
4746.00,1.16
4745.00,1.16
4744.00,1.16
4743.00,1.16
4742.00,1.16
4741.00,1.16
4740.00,1.16
4739.00,1.16
4738.00,1.16
4737.00,1.16
4736.00,1.16
4735.00,1.16
4734.00,1.17
4733.00,1.17
4732.00,1.17
4731.00,1.17
4730.00,1.17
4729.00,1.17
4728.00,1.17
4727.00,1.18
4726.00,1.18
4725.00,1.18
4724.00,1.18
4723.00,1.18
4722.00,1.19
4721.00,1.19
4720.00,1.19
4719.00,1.19
4718.00,1.20
4717.00,1.20
4716.00,1.20
4715.00,1.20
4714.00,1.21
4713.00,1.21
4712.00,1.21
4711.00,1.21
4710.00,1.22
4709.00,1.22
4708.00,1.22
4707.00,1.22
4706.00,1.22
4705.00,1.23
4704.00,1.23
4703.00,1.23
4702.00,1.23
4701.00,1.23
4700.00,1.23
4699.00,1.23
4698.00,1.24
4697.00,1.24
4696.00,1.24
4695.00,1.24
4694.00,1.24
4693.00,1.24
4692.00,1.24
4691.00,1.25
4690.00,1.25
4689.00,1.25
4688.00,1.25
4687.00,1.25
4686.00,1.25
4685.00,1.25
4684.00,1.25
4683.00,1.26
4682.00,1.26
4681.00,1.26
4680.00,1.26
4679.00,1.26
4678.00,1.26
4677.00,1.26
4676.00,1.26
4675.00,1.27
4674.00,1.27
4673.00,1.27
4672.00,1.27
4671.00,1.27
4670.00,1.27
4669.00,1.27
4668.00,1.27
4667.00,1.27
4666.00,1.28
4665.00,1.28
4664.00,1.28
4663.00,1.28
4662.00,1.28
4661.00,1.28
4660.00,1.28
4659.00,1.28
4658.00,1.29
4657.00,1.29
4656.00,1.29
4655.00,1.29
4654.00,1.29
4653.00,1.29
4652.00,1.29
4651.00,1.30
4650.00,1.30
4649.00,1.30
4648.00,1.30
4647.00,1.30
4646.00,1.31
4645.00,1.31
4644.00,1.31
4643.00,1.31
4642.00,1.31
4641.00,1.31
4640.00,1.32
4639.00,1.32
4638.00,1.32
4637.00,1.32
4636.00,1.32
4635.00,1.32
4634.00,1.33
4633.00,1.33
4632.00,1.33
4631.00,1.33
4630.00,1.33
4629.00,1.33
4628.00,1.33
4627.00,1.34
4626.00,1.34
4625.00,1.34
4624.00,1.34
4623.00,1.34
4622.00,1.34
4621.00,1.34
4620.00,1.34
4619.00,1.34
4618.00,1.34
4617.00,1.34
4616.00,1.34
4615.00,1.35
4614.00,1.35
4613.00,1.35
4612.00,1.35
4611.00,1.35
4610.00,1.35
4609.00,1.35
4608.00,1.35
4607.00,1.35
4606.00,1.35
4605.00,1.35
4604.00,1.36
4603.00,1.36
4602.00,1.36
4601.00,1.36
4600.00,1.36
4599.00,1.36
4598.00,1.36
4597.00,1.36
4596.00,1.36
4595.00,1.36
4594.00,1.36
4593.00,1.36
4592.00,1.36
4591.00,1.36
4590.00,1.36
4589.00,1.36
4588.00,1.36
4587.00,1.36
4586.00,1.36
4585.00,1.37
4584.00,1.37
4583.00,1.37
4582.00,1.37
4581.00,1.37
4580.00,1.37
4579.00,1.37
4578.00,1.38
4577.00,1.38
4576.00,1.38
4575.00,1.38
4574.00,1.38
4573.00,1.38
4572.00,1.39
4571.00,1.39
4570.00,1.39
4569.00,1.39
4568.00,1.39
4567.00,1.39
4566.00,1.40
4565.00,1.40
4564.00,1.40
4563.00,1.40
4562.00,1.40
4561.00,1.40
4560.00,1.40
4559.00,1.40
4558.00,1.41
4557.00,1.41
4556.00,1.41
4555.00,1.41
4554.00,1.41
4553.00,1.41
4552.00,1.41
4551.00,1.42
4550.00,1.42
4549.00,1.42
4548.00,1.42
4547.00,1.42
4546.00,1.42
4545.00,1.42
4544.00,1.42
4543.00,1.42
4542.00,1.42
4541.00,1.43
4540.00,1.43
4539.00,1.43
4538.00,1.43
4537.00,1.43
4536.00,1.43
4535.00,1.43
4534.00,1.43
4533.00,1.43
4532.00,1.43
4531.00,1.43
4530.00,1.43
4529.00,1.43
4528.00,1.43
4527.00,1.43
4526.00,1.43
4525.00,1.43
4524.00,1.43
4523.00,1.43
4522.00,1.43
4521.00,1.43
4520.00,1.43
4519.00,1.43
4518.00,1.43
4517.00,1.43
4516.00,1.43
4515.00,1.43
4514.00,1.43
4513.00,1.43
4512.00,1.43
4511.00,1.43
4510.00,1.43
4509.00,1.43
4508.00,1.43
4507.00,1.43
4506.00,1.43
4505.00,1.43
4504.00,1.43
4503.00,1.43
4502.00,1.43
4501.00,1.43
4500.00,1.43
4499.00,1.43
4498.00,1.43
4497.00,1.43
4496.00,1.43
4495.00,1.43
4494.00,1.43
4493.00,1.43
4492.00,1.42
4491.00,1.42
4490.00,1.42
4489.00,1.42
4488.00,1.42
4487.00,1.42
4486.00,1.42
4485.00,1.41
4484.00,1.41
4483.00,1.41
4482.00,1.41
4481.00,1.41
4480.00,1.40
4479.00,1.40
4478.00,1.40
4477.00,1.40
4476.00,1.40
4475.00,1.40
4474.00,1.39
4473.00,1.39
4472.00,1.39
4471.00,1.39
4470.00,1.39
4469.00,1.38
4468.00,1.38
4467.00,1.38
4466.00,1.38
4465.00,1.38
4464.00,1.37
4463.00,1.37
4462.00,1.37
4461.00,1.36
4460.00,1.36
4459.00,1.36
4458.00,1.35
4457.00,1.35
4456.00,1.35
4455.00,1.34
4454.00,1.34
4453.00,1.34
4452.00,1.33
4451.00,1.33
4450.00,1.33
4449.00,1.32
4448.00,1.32
4447.00,1.32
4446.00,1.31
4445.00,1.31
4444.00,1.31
4443.00,1.31
4442.00,1.30
4441.00,1.30
4440.00,1.30
4439.00,1.29
4438.00,1.29
4437.00,1.29
4436.00,1.28
4435.00,1.28
4434.00,1.28
4433.00,1.28
4432.00,1.27
4431.00,1.27
4430.00,1.27
4429.00,1.27
4428.00,1.27
4427.00,1.27
4426.00,1.26
4425.00,1.26
4424.00,1.26
4423.00,1.26
4422.00,1.26
4421.00,1.26
4420.00,1.26
4419.00,1.26
4418.00,1.26
4417.00,1.26
4416.00,1.26
4415.00,1.26
4414.00,1.26
4413.00,1.26
4412.00,1.26
4411.00,1.26
4410.00,1.26
4409.00,1.26
4408.00,1.26
4407.00,1.26
4406.00,1.26
4405.00,1.26
4404.00,1.26
4403.00,1.26
4402.00,1.26
4401.00,1.26
4400.00,1.27
4399.00,1.27
4398.00,1.27
4397.00,1.27
4396.00,1.27
4395.00,1.27
4394.00,1.28
4393.00,1.28
4392.00,1.28
4391.00,1.28
4390.00,1.28
4389.00,1.29
4388.00,1.29
4387.00,1.29
4386.00,1.29
4385.00,1.29
4384.00,1.29
4383.00,1.29
4382.00,1.30
4381.00,1.30
4380.00,1.30
4379.00,1.30
4378.00,1.30
4377.00,1.30
4376.00,1.30
4375.00,1.30
4374.00,1.30
4373.00,1.30
4372.00,1.30
4371.00,1.30
4370.00,1.30
4369.00,1.30
4368.00,1.30
4367.00,1.30
4366.00,1.30
4365.00,1.30
4364.00,1.30
4363.00,1.30
4362.00,1.30
4361.00,1.30
4360.00,1.30
4359.00,1.30
4358.00,1.30
4357.00,1.30
4356.00,1.30
4355.00,1.30
4354.00,1.30
4353.00,1.30
4352.00,1.30
4351.00,1.30
4350.00,1.30
4349.00,1.31
4348.00,1.31
4347.00,1.31
4346.00,1.31
4345.00,1.31
4344.00,1.31
4343.00,1.31
4342.00,1.31
4341.00,1.31
4340.00,1.32
4339.00,1.32
4338.00,1.32
4337.00,1.32
4336.00,1.32
4335.00,1.32
4334.00,1.32
4333.00,1.32
4332.00,1.32
4331.00,1.32
4330.00,1.32
4329.00,1.32
4328.00,1.32
4327.00,1.32
4326.00,1.32
4325.00,1.33
4324.00,1.33
4323.00,1.33
4322.00,1.33
4321.00,1.33
4320.00,1.33
4319.00,1.33
4318.00,1.34
4317.00,1.34
4316.00,1.34
4315.00,1.34
4314.00,1.34
4313.00,1.34
4312.00,1.34
4311.00,1.35
4310.00,1.35
4309.00,1.35
4308.00,1.35
4307.00,1.35
4306.00,1.36
4305.00,1.36
4304.00,1.36
4303.00,1.36
4302.00,1.36
4301.00,1.37
4300.00,1.37
4299.00,1.37
4298.00,1.37
4297.00,1.37
4296.00,1.37
4295.00,1.38
4294.00,1.38
4293.00,1.38
4292.00,1.38
4291.00,1.38
4290.00,1.38
4289.00,1.39
4288.00,1.39
4287.00,1.39
4286.00,1.39
4285.00,1.39
4284.00,1.39
4283.00,1.39
4282.00,1.39
4281.00,1.40
4280.00,1.40
4279.00,1.40
4278.00,1.40
4277.00,1.40
4276.00,1.40
4275.00,1.40
4274.00,1.40
4273.00,1.40
4272.00,1.40
4271.00,1.40
4270.00,1.40
4269.00,1.40
4268.00,1.39
4267.00,1.39
4266.00,1.39
4265.00,1.39
4264.00,1.39
4263.00,1.39
4262.00,1.39
4261.00,1.39
4260.00,1.39
4259.00,1.39
4258.00,1.39
4257.00,1.40
4256.00,1.40
4255.00,1.40
4254.00,1.40
4253.00,1.40
4252.00,1.40
4251.00,1.40
4250.00,1.40
4249.00,1.40
4248.00,1.40
4247.00,1.40
4246.00,1.41
4245.00,1.41
4244.00,1.41
4243.00,1.41
4242.00,1.41
4241.00,1.41
4240.00,1.41
4239.00,1.41
4238.00,1.41
4237.00,1.42
4236.00,1.42
4235.00,1.42
4234.00,1.42
4233.00,1.42
4232.00,1.42
4231.00,1.42
4230.00,1.42
4229.00,1.42
4228.00,1.43
4227.00,1.43
4226.00,1.43
4225.00,1.43
4224.00,1.43
4223.00,1.43
4222.00,1.43
4221.00,1.43
4220.00,1.44
4219.00,1.44
4218.00,1.44
4217.00,1.44
4216.00,1.44
4215.00,1.44
4214.00,1.44
4213.00,1.44
4212.00,1.44
4211.00,1.44
4210.00,1.44
4209.00,1.44
4208.00,1.45
4207.00,1.45
4206.00,1.45
4205.00,1.45
4204.00,1.45
4203.00,1.45
4202.00,1.45
4201.00,1.45
4200.00,1.45
4199.00,1.45
4198.00,1.45
4197.00,1.45
4196.00,1.45
4195.00,1.45
4194.00,1.46
4193.00,1.46
4192.00,1.46
4191.00,1.46
4190.00,1.46
4189.00,1.46
4188.00,1.46
4187.00,1.46
4186.00,1.46
4185.00,1.46
4184.00,1.46
4183.00,1.46
4182.00,1.46
4181.00,1.46
4180.00,1.46
4179.00,1.46
4178.00,1.46
4177.00,1.46
4176.00,1.46
4175.00,1.46
4174.00,1.46
4173.00,1.46
4172.00,1.46
4171.00,1.46
4170.00,1.46
4169.00,1.46
4168.00,1.46
4167.00,1.46
4166.00,1.47
4165.00,1.47
4164.00,1.47
4163.00,1.47
4162.00,1.47
4161.00,1.47
4160.00,1.47
4159.00,1.47
4158.00,1.47
4157.00,1.47
4156.00,1.47
4155.00,1.47
4154.00,1.47
4153.00,1.47
4152.00,1.47
4151.00,1.47
4150.00,1.47
4149.00,1.47
4148.00,1.47
4147.00,1.47
4146.00,1.47
4145.00,1.47
4144.00,1.47
4143.00,1.47
4142.00,1.47
4141.00,1.47
4140.00,1.47
4139.00,1.46
4138.00,1.46
4137.00,1.46
4136.00,1.46
4135.00,1.46
4134.00,1.46
4133.00,1.46
4132.00,1.46
4131.00,1.46
4130.00,1.47
4129.00,1.47
4128.00,1.47
4127.00,1.47
4126.00,1.47
4125.00,1.47
4124.00,1.47
4123.00,1.47
4122.00,1.48
4121.00,1.48
4120.00,1.48
4119.00,1.48
4118.00,1.48
4117.00,1.48
4116.00,1.48
4115.00,1.49
4114.00,1.49
4113.00,1.49
4112.00,1.49
4111.00,1.49
4110.00,1.49
4109.00,1.49
4108.00,1.50
4107.00,1.50
4106.00,1.50
4105.00,1.50
4104.00,1.50
4103.00,1.50
4102.00,1.50
4101.00,1.50
4100.00,1.50
4099.00,1.51
4098.00,1.51
4097.00,1.51
4096.00,1.51
4095.00,1.51
4094.00,1.51
4093.00,1.51
4092.00,1.51
4091.00,1.51
4090.00,1.51
4089.00,1.52
4088.00,1.52
4087.00,1.52
4086.00,1.52
4085.00,1.52
4084.00,1.52
4083.00,1.51
4082.00,1.51
4081.00,1.51
4080.00,1.51
4079.00,1.51
4078.00,1.51
4077.00,1.51
4076.00,1.50
4075.00,1.50
4074.00,1.50
4073.00,1.50
4072.00,1.50
4071.00,1.50
4070.00,1.50
4069.00,1.50
4068.00,1.50
4067.00,1.50
4066.00,1.50
4065.00,1.50
4064.00,1.50
4063.00,1.50
4062.00,1.51
4061.00,1.51
4060.00,1.51
4059.00,1.51
4058.00,1.51
4057.00,1.51
4056.00,1.52
4055.00,1.52
4054.00,1.52
4053.00,1.52
4052.00,1.52
4051.00,1.53
4050.00,1.53
4049.00,1.53
4048.00,1.53
4047.00,1.53
4046.00,1.54
4045.00,1.54
4044.00,1.54
4043.00,1.54
4042.00,1.55
4041.00,1.55
4040.00,1.55
4039.00,1.55
4038.00,1.56
4037.00,1.56
4036.00,1.56
4035.00,1.56
4034.00,1.56
4033.00,1.56
4032.00,1.56
4031.00,1.56
4030.00,1.56
4029.00,1.56
4028.00,1.56
4027.00,1.56
4026.00,1.56
4025.00,1.56
4024.00,1.56
4023.00,1.56
4022.00,1.57
4021.00,1.57
4020.00,1.57
4019.00,1.57
4018.00,1.57
4017.00,1.57
4016.00,1.57
4015.00,1.57
4014.00,1.57
4013.00,1.57
4012.00,1.57
4011.00,1.57
4010.00,1.57
4009.00,1.57
4008.00,1.57
4007.00,1.57
4006.00,1.57
4005.00,1.57
4004.00,1.57
4003.00,1.57
4002.00,1.57
4001.00,1.57
4000.00,1.57
