创建为新数据集,样品 174 用户 Administrator 日期 星期六, 七月 21 2018
cm-1,%T
10000.00,1.54
9999.00,1.54
9998.00,1.53
9997.00,1.53
9996.00,1.53
9995.00,1.53
9994.00,1.53
9993.00,1.53
9992.00,1.53
9991.00,1.53
9990.00,1.53
9989.00,1.53
9988.00,1.53
9987.00,1.53
9986.00,1.54
9985.00,1.54
9984.00,1.54
9983.00,1.54
9982.00,1.54
9981.00,1.54
9980.00,1.54
9979.00,1.54
9978.00,1.54
9977.00,1.54
9976.00,1.54
9975.00,1.54
9974.00,1.54
9973.00,1.54
9972.00,1.54
9971.00,1.54
9970.00,1.54
9969.00,1.53
9968.00,1.53
9967.00,1.53
9966.00,1.53
9965.00,1.53
9964.00,1.53
9963.00,1.53
9962.00,1.52
9961.00,1.52
9960.00,1.52
9959.00,1.52
9958.00,1.52
9957.00,1.52
9956.00,1.52
9955.00,1.52
9954.00,1.52
9953.00,1.52
9952.00,1.52
9951.00,1.53
9950.00,1.53
9949.00,1.53
9948.00,1.53
9947.00,1.53
9946.00,1.53
9945.00,1.53
9944.00,1.53
9943.00,1.53
9942.00,1.54
9941.00,1.54
9940.00,1.54
9939.00,1.54
9938.00,1.54
9937.00,1.54
9936.00,1.54
9935.00,1.54
9934.00,1.54
9933.00,1.54
9932.00,1.54
9931.00,1.54
9930.00,1.54
9929.00,1.54
9928.00,1.54
9927.00,1.54
9926.00,1.53
9925.00,1.53
9924.00,1.53
9923.00,1.53
9922.00,1.53
9921.00,1.53
9920.00,1.53
9919.00,1.52
9918.00,1.52
9917.00,1.52
9916.00,1.52
9915.00,1.52
9914.00,1.52
9913.00,1.52
9912.00,1.51
9911.00,1.51
9910.00,1.51
9909.00,1.51
9908.00,1.51
9907.00,1.51
9906.00,1.51
9905.00,1.51
9904.00,1.51
9903.00,1.51
9902.00,1.51
9901.00,1.51
9900.00,1.50
9899.00,1.50
9898.00,1.50
9897.00,1.51
9896.00,1.51
9895.00,1.51
9894.00,1.51
9893.00,1.51
9892.00,1.51
9891.00,1.51
9890.00,1.51
9889.00,1.51
9888.00,1.51
9887.00,1.52
9886.00,1.52
9885.00,1.52
9884.00,1.52
9883.00,1.52
9882.00,1.52
9881.00,1.52
9880.00,1.51
9879.00,1.51
9878.00,1.51
9877.00,1.51
9876.00,1.51
9875.00,1.50
9874.00,1.50
9873.00,1.50
9872.00,1.50
9871.00,1.49
9870.00,1.49
9869.00,1.49
9868.00,1.49
9867.00,1.49
9866.00,1.48
9865.00,1.48
9864.00,1.48
9863.00,1.48
9862.00,1.48
9861.00,1.48
9860.00,1.48
9859.00,1.48
9858.00,1.48
9857.00,1.48
9856.00,1.48
9855.00,1.49
9854.00,1.49
9853.00,1.49
9852.00,1.49
9851.00,1.49
9850.00,1.49
9849.00,1.49
9848.00,1.49
9847.00,1.49
9846.00,1.49
9845.00,1.49
9844.00,1.49
9843.00,1.49
9842.00,1.48
9841.00,1.48
9840.00,1.48
9839.00,1.48
9838.00,1.49
9837.00,1.49
9836.00,1.49
9835.00,1.49
9834.00,1.49
9833.00,1.49
9832.00,1.50
9831.00,1.50
9830.00,1.50
9829.00,1.50
9828.00,1.51
9827.00,1.51
9826.00,1.51
9825.00,1.51
9824.00,1.51
9823.00,1.51
9822.00,1.51
9821.00,1.51
9820.00,1.51
9819.00,1.51
9818.00,1.51
9817.00,1.51
9816.00,1.51
9815.00,1.51
9814.00,1.51
9813.00,1.50
9812.00,1.50
9811.00,1.50
9810.00,1.50
9809.00,1.50
9808.00,1.49
9807.00,1.49
9806.00,1.49
9805.00,1.49
9804.00,1.48
9803.00,1.48
9802.00,1.48
9801.00,1.48
9800.00,1.48
9799.00,1.47
9798.00,1.47
9797.00,1.47
9796.00,1.47
9795.00,1.47
9794.00,1.47
9793.00,1.47
9792.00,1.47
9791.00,1.47
9790.00,1.47
9789.00,1.47
9788.00,1.47
9787.00,1.47
9786.00,1.48
9785.00,1.48
9784.00,1.48
9783.00,1.49
9782.00,1.49
9781.00,1.49
9780.00,1.50
9779.00,1.50
9778.00,1.50
9777.00,1.51
9776.00,1.51
9775.00,1.51
9774.00,1.51
9773.00,1.51
9772.00,1.51
9771.00,1.51
9770.00,1.52
9769.00,1.52
9768.00,1.52
9767.00,1.52
9766.00,1.51
9765.00,1.51
9764.00,1.51
9763.00,1.51
9762.00,1.51
9761.00,1.51
9760.00,1.51
9759.00,1.51
9758.00,1.51
9757.00,1.51
9756.00,1.51
9755.00,1.51
9754.00,1.51
9753.00,1.51
9752.00,1.51
9751.00,1.51
9750.00,1.51
9749.00,1.51
9748.00,1.52
9747.00,1.52
9746.00,1.52
9745.00,1.52
9744.00,1.52
9743.00,1.52
9742.00,1.52
9741.00,1.52
9740.00,1.51
9739.00,1.51
9738.00,1.51
9737.00,1.51
9736.00,1.51
9735.00,1.51
9734.00,1.51
9733.00,1.51
9732.00,1.50
9731.00,1.50
9730.00,1.50
9729.00,1.50
9728.00,1.50
9727.00,1.50
9726.00,1.50
9725.00,1.50
9724.00,1.50
9723.00,1.50
9722.00,1.50
9721.00,1.50
9720.00,1.50
9719.00,1.50
9718.00,1.50
9717.00,1.50
9716.00,1.50
9715.00,1.50
9714.00,1.50
9713.00,1.50
9712.00,1.50
9711.00,1.50
9710.00,1.50
9709.00,1.50
9708.00,1.50
9707.00,1.50
9706.00,1.50
9705.00,1.50
9704.00,1.50
9703.00,1.50
9702.00,1.50
9701.00,1.50
9700.00,1.50
9699.00,1.50
9698.00,1.50
9697.00,1.50
9696.00,1.50
9695.00,1.50
9694.00,1.50
9693.00,1.50
9692.00,1.50
9691.00,1.49
9690.00,1.49
9689.00,1.49
9688.00,1.49
9687.00,1.49
9686.00,1.49
9685.00,1.49
9684.00,1.49
9683.00,1.49
9682.00,1.49
9681.00,1.49
9680.00,1.48
9679.00,1.48
9678.00,1.48
9677.00,1.48
9676.00,1.48
9675.00,1.48
9674.00,1.48
9673.00,1.48
9672.00,1.48
9671.00,1.49
9670.00,1.49
9669.00,1.49
9668.00,1.49
9667.00,1.49
9666.00,1.49
9665.00,1.49
9664.00,1.49
9663.00,1.49
9662.00,1.49
9661.00,1.49
9660.00,1.49
9659.00,1.49
9658.00,1.49
9657.00,1.49
9656.00,1.49
9655.00,1.49
9654.00,1.49
9653.00,1.49
9652.00,1.49
9651.00,1.49
9650.00,1.49
9649.00,1.49
9648.00,1.49
9647.00,1.49
9646.00,1.49
9645.00,1.49
9644.00,1.49
9643.00,1.49
9642.00,1.49
9641.00,1.49
9640.00,1.49
9639.00,1.49
9638.00,1.49
9637.00,1.49
9636.00,1.49
9635.00,1.49
9634.00,1.49
9633.00,1.49
9632.00,1.49
9631.00,1.49
9630.00,1.50
9629.00,1.50
9628.00,1.50
9627.00,1.50
9626.00,1.50
9625.00,1.50
9624.00,1.50
9623.00,1.50
9622.00,1.50
9621.00,1.50
9620.00,1.51
9619.00,1.51
9618.00,1.51
9617.00,1.51
9616.00,1.51
9615.00,1.51
9614.00,1.51
9613.00,1.51
9612.00,1.51
9611.00,1.51
9610.00,1.51
9609.00,1.51
9608.00,1.51
9607.00,1.51
9606.00,1.51
9605.00,1.51
9604.00,1.51
9603.00,1.51
9602.00,1.51
9601.00,1.51
9600.00,1.51
9599.00,1.51
9598.00,1.51
9597.00,1.51
9596.00,1.51
9595.00,1.51
9594.00,1.51
9593.00,1.51
9592.00,1.51
9591.00,1.51
9590.00,1.51
9589.00,1.51
9588.00,1.51
9587.00,1.51
9586.00,1.51
9585.00,1.51
9584.00,1.51
9583.00,1.51
9582.00,1.51
9581.00,1.51
9580.00,1.51
9579.00,1.51
9578.00,1.50
9577.00,1.50
9576.00,1.50
9575.00,1.50
9574.00,1.50
9573.00,1.50
9572.00,1.50
9571.00,1.50
9570.00,1.50
9569.00,1.50
9568.00,1.50
9567.00,1.50
9566.00,1.50
9565.00,1.50
9564.00,1.50
9563.00,1.50
9562.00,1.50
9561.00,1.50
9560.00,1.50
9559.00,1.50
9558.00,1.49
9557.00,1.49
9556.00,1.49
9555.00,1.49
9554.00,1.49
9553.00,1.49
9552.00,1.48
9551.00,1.48
9550.00,1.48
9549.00,1.48
9548.00,1.48
9547.00,1.48
9546.00,1.47
9545.00,1.47
9544.00,1.47
9543.00,1.47
9542.00,1.47
9541.00,1.47
9540.00,1.47
9539.00,1.47
9538.00,1.46
9537.00,1.46
9536.00,1.46
9535.00,1.46
9534.00,1.46
9533.00,1.46
9532.00,1.46
9531.00,1.46
9530.00,1.46
9529.00,1.46
9528.00,1.46
9527.00,1.46
9526.00,1.47
9525.00,1.47
9524.00,1.47
9523.00,1.47
9522.00,1.48
9521.00,1.48
9520.00,1.48
9519.00,1.49
9518.00,1.49
9517.00,1.49
9516.00,1.49
9515.00,1.50
9514.00,1.50
9513.00,1.50
9512.00,1.50
9511.00,1.50
9510.00,1.50
9509.00,1.51
9508.00,1.51
9507.00,1.51
9506.00,1.51
9505.00,1.50
9504.00,1.50
9503.00,1.50
9502.00,1.50
9501.00,1.50
9500.00,1.50
9499.00,1.50
9498.00,1.50
9497.00,1.50
9496.00,1.50
9495.00,1.50
9494.00,1.50
9493.00,1.50
9492.00,1.50
9491.00,1.50
9490.00,1.50
9489.00,1.50
9488.00,1.50
9487.00,1.50
9486.00,1.50
9485.00,1.50
9484.00,1.50
9483.00,1.50
9482.00,1.51
9481.00,1.51
9480.00,1.51
9479.00,1.51
9478.00,1.51
9477.00,1.51
9476.00,1.51
9475.00,1.51
9474.00,1.51
9473.00,1.51
9472.00,1.51
9471.00,1.51
9470.00,1.51
9469.00,1.51
9468.00,1.51
9467.00,1.51
9466.00,1.51
9465.00,1.51
9464.00,1.51
9463.00,1.51
9462.00,1.51
9461.00,1.51
9460.00,1.52
9459.00,1.52
9458.00,1.52
9457.00,1.52
9456.00,1.53
9455.00,1.53
9454.00,1.53
9453.00,1.53
9452.00,1.53
9451.00,1.53
9450.00,1.53
9449.00,1.53
9448.00,1.53
9447.00,1.53
9446.00,1.53
9445.00,1.53
9444.00,1.53
9443.00,1.52
9442.00,1.52
9441.00,1.52
9440.00,1.51
9439.00,1.51
9438.00,1.51
9437.00,1.50
9436.00,1.50
9435.00,1.50
9434.00,1.49
9433.00,1.49
9432.00,1.49
9431.00,1.49
9430.00,1.49
9429.00,1.49
9428.00,1.49
9427.00,1.49
9426.00,1.49
9425.00,1.49
9424.00,1.49
9423.00,1.49
9422.00,1.49
9421.00,1.49
9420.00,1.49
9419.00,1.50
9418.00,1.50
9417.00,1.50
9416.00,1.50
9415.00,1.50
9414.00,1.50
9413.00,1.50
9412.00,1.50
9411.00,1.50
9410.00,1.50
9409.00,1.50
9408.00,1.49
9407.00,1.49
9406.00,1.49
9405.00,1.49
9404.00,1.49
9403.00,1.48
9402.00,1.48
9401.00,1.48
9400.00,1.48
9399.00,1.48
9398.00,1.48
9397.00,1.48
9396.00,1.48
9395.00,1.48
9394.00,1.48
9393.00,1.48
9392.00,1.48
9391.00,1.48
9390.00,1.48
9389.00,1.48
9388.00,1.48
9387.00,1.48
9386.00,1.48
9385.00,1.48
9384.00,1.49
9383.00,1.49
9382.00,1.49
9381.00,1.49
9380.00,1.49
9379.00,1.49
9378.00,1.49
9377.00,1.49
9376.00,1.49
9375.00,1.49
9374.00,1.49
9373.00,1.49
9372.00,1.49
9371.00,1.49
9370.00,1.49
9369.00,1.49
9368.00,1.49
9367.00,1.50
9366.00,1.50
9365.00,1.50
9364.00,1.50
9363.00,1.50
9362.00,1.50
9361.00,1.50
9360.00,1.50
9359.00,1.50
9358.00,1.50
9357.00,1.50
9356.00,1.50
9355.00,1.50
9354.00,1.50
9353.00,1.50
9352.00,1.49
9351.00,1.49
9350.00,1.49
9349.00,1.49
9348.00,1.49
9347.00,1.49
9346.00,1.49
9345.00,1.49
9344.00,1.49
9343.00,1.49
9342.00,1.49
9341.00,1.49
9340.00,1.49
9339.00,1.50
9338.00,1.50
9337.00,1.50
9336.00,1.50
9335.00,1.50
9334.00,1.50
9333.00,1.51
9332.00,1.51
9331.00,1.51
9330.00,1.51
9329.00,1.51
9328.00,1.51
9327.00,1.50
9326.00,1.50
9325.00,1.50
9324.00,1.50
9323.00,1.50
9322.00,1.49
9321.00,1.49
9320.00,1.49
9319.00,1.49
9318.00,1.48
9317.00,1.48
9316.00,1.48
9315.00,1.48
9314.00,1.48
9313.00,1.48
9312.00,1.47
9311.00,1.47
9310.00,1.47
9309.00,1.47
9308.00,1.47
9307.00,1.47
9306.00,1.46
9305.00,1.46
9304.00,1.46
9303.00,1.46
9302.00,1.46
9301.00,1.46
9300.00,1.46
9299.00,1.46
9298.00,1.45
9297.00,1.45
9296.00,1.45
9295.00,1.46
9294.00,1.46
9293.00,1.46
9292.00,1.46
9291.00,1.46
9290.00,1.46
9289.00,1.46
9288.00,1.46
9287.00,1.46
9286.00,1.46
9285.00,1.46
9284.00,1.47
9283.00,1.47
9282.00,1.47
9281.00,1.47
9280.00,1.47
9279.00,1.47
9278.00,1.47
9277.00,1.47
9276.00,1.48
9275.00,1.48
9274.00,1.48
9273.00,1.48
9272.00,1.48
9271.00,1.48
9270.00,1.48
9269.00,1.48
9268.00,1.48
9267.00,1.48
9266.00,1.48
9265.00,1.48
9264.00,1.48
9263.00,1.48
9262.00,1.48
9261.00,1.48
9260.00,1.48
9259.00,1.48
9258.00,1.48
9257.00,1.48
9256.00,1.49
9255.00,1.49
9254.00,1.49
9253.00,1.49
9252.00,1.50
9251.00,1.50
9250.00,1.50
9249.00,1.50
9248.00,1.51
9247.00,1.51
9246.00,1.51
9245.00,1.51
9244.00,1.51
9243.00,1.51
9242.00,1.51
9241.00,1.51
9240.00,1.51
9239.00,1.52
9238.00,1.52
9237.00,1.51
9236.00,1.51
9235.00,1.51
9234.00,1.51
9233.00,1.51
9232.00,1.51
9231.00,1.51
9230.00,1.51
9229.00,1.51
9228.00,1.51
9227.00,1.51
9226.00,1.51
9225.00,1.50
9224.00,1.50
9223.00,1.50
9222.00,1.50
9221.00,1.50
9220.00,1.50
9219.00,1.49
9218.00,1.49
9217.00,1.49
9216.00,1.49
9215.00,1.49
9214.00,1.49
9213.00,1.49
9212.00,1.49
9211.00,1.49
9210.00,1.49
9209.00,1.49
9208.00,1.49
9207.00,1.49
9206.00,1.49
9205.00,1.49
9204.00,1.49
9203.00,1.49
9202.00,1.49
9201.00,1.49
9200.00,1.49
9199.00,1.50
9198.00,1.50
9197.00,1.50
9196.00,1.50
9195.00,1.50
9194.00,1.50
9193.00,1.50
9192.00,1.50
9191.00,1.50
9190.00,1.50
9189.00,1.50
9188.00,1.50
9187.00,1.50
9186.00,1.50
9185.00,1.50
9184.00,1.50
9183.00,1.50
9182.00,1.50
9181.00,1.50
9180.00,1.49
9179.00,1.49
9178.00,1.49
9177.00,1.49
9176.00,1.49
9175.00,1.49
9174.00,1.49
9173.00,1.49
9172.00,1.49
9171.00,1.49
9170.00,1.49
9169.00,1.50
9168.00,1.50
9167.00,1.50
9166.00,1.50
9165.00,1.50
9164.00,1.50
9163.00,1.50
9162.00,1.50
9161.00,1.50
9160.00,1.50
9159.00,1.50
9158.00,1.51
9157.00,1.51
9156.00,1.51
9155.00,1.51
9154.00,1.51
9153.00,1.51
9152.00,1.51
9151.00,1.51
9150.00,1.51
9149.00,1.51
9148.00,1.50
9147.00,1.50
9146.00,1.50
9145.00,1.50
9144.00,1.50
9143.00,1.50
9142.00,1.49
9141.00,1.49
9140.00,1.49
9139.00,1.49
9138.00,1.49
9137.00,1.48
9136.00,1.48
9135.00,1.48
9134.00,1.48
9133.00,1.48
9132.00,1.48
9131.00,1.48
9130.00,1.48
9129.00,1.48
9128.00,1.48
9127.00,1.48
9126.00,1.49
9125.00,1.49
9124.00,1.49
9123.00,1.49
9122.00,1.49
9121.00,1.49
9120.00,1.49
9119.00,1.49
9118.00,1.49
9117.00,1.50
9116.00,1.50
9115.00,1.50
9114.00,1.50
9113.00,1.50
9112.00,1.50
9111.00,1.50
9110.00,1.50
9109.00,1.50
9108.00,1.51
9107.00,1.51
9106.00,1.51
9105.00,1.51
9104.00,1.51
9103.00,1.51
9102.00,1.51
9101.00,1.52
9100.00,1.52
9099.00,1.52
9098.00,1.52
9097.00,1.52
9096.00,1.52
9095.00,1.52
9094.00,1.52
9093.00,1.52
9092.00,1.52
9091.00,1.52
9090.00,1.51
9089.00,1.51
9088.00,1.51
9087.00,1.51
9086.00,1.51
9085.00,1.51
9084.00,1.50
9083.00,1.50
9082.00,1.50
9081.00,1.50
9080.00,1.50
9079.00,1.49
9078.00,1.49
9077.00,1.49
9076.00,1.49
9075.00,1.49
9074.00,1.49
9073.00,1.49
9072.00,1.48
9071.00,1.48
9070.00,1.48
9069.00,1.48
9068.00,1.49
9067.00,1.49
9066.00,1.49
9065.00,1.49
9064.00,1.49
9063.00,1.49
9062.00,1.49
9061.00,1.49
9060.00,1.49
9059.00,1.49
9058.00,1.50
9057.00,1.50
9056.00,1.50
9055.00,1.50
9054.00,1.50
9053.00,1.50
9052.00,1.50
9051.00,1.50
9050.00,1.50
9049.00,1.50
9048.00,1.50
9047.00,1.50
9046.00,1.50
9045.00,1.50
9044.00,1.50
9043.00,1.51
9042.00,1.51
9041.00,1.51
9040.00,1.51
9039.00,1.51
9038.00,1.51
9037.00,1.51
9036.00,1.51
9035.00,1.51
9034.00,1.51
9033.00,1.52
9032.00,1.52
9031.00,1.52
9030.00,1.52
9029.00,1.52
9028.00,1.51
9027.00,1.51
9026.00,1.51
9025.00,1.51
9024.00,1.51
9023.00,1.51
9022.00,1.51
9021.00,1.52
9020.00,1.52
9019.00,1.52
9018.00,1.52
9017.00,1.52
9016.00,1.52
9015.00,1.52
9014.00,1.53
9013.00,1.53
9012.00,1.53
9011.00,1.53
9010.00,1.53
9009.00,1.53
9008.00,1.53
9007.00,1.54
9006.00,1.54
9005.00,1.54
9004.00,1.54
9003.00,1.53
9002.00,1.53
9001.00,1.53
9000.00,1.53
8999.00,1.53
8998.00,1.53
8997.00,1.53
8996.00,1.53
8995.00,1.53
8994.00,1.52
8993.00,1.52
8992.00,1.52
8991.00,1.52
8990.00,1.52
8989.00,1.52
8988.00,1.52
8987.00,1.52
8986.00,1.52
8985.00,1.52
8984.00,1.51
8983.00,1.51
8982.00,1.51
8981.00,1.51
8980.00,1.51
8979.00,1.51
8978.00,1.51
8977.00,1.51
8976.00,1.50
8975.00,1.50
8974.00,1.50
8973.00,1.50
8972.00,1.50
8971.00,1.50
8970.00,1.50
8969.00,1.50
8968.00,1.50
8967.00,1.50
8966.00,1.50
8965.00,1.50
8964.00,1.50
8963.00,1.50
8962.00,1.50
8961.00,1.51
8960.00,1.51
8959.00,1.51
8958.00,1.51
8957.00,1.51
8956.00,1.51
8955.00,1.51
8954.00,1.52
8953.00,1.52
8952.00,1.52
8951.00,1.52
8950.00,1.52
8949.00,1.52
8948.00,1.52
8947.00,1.52
8946.00,1.53
8945.00,1.53
8944.00,1.53
8943.00,1.53
8942.00,1.53
8941.00,1.53
8940.00,1.53
8939.00,1.53
8938.00,1.52
8937.00,1.52
8936.00,1.52
8935.00,1.52
8934.00,1.52
8933.00,1.52
8932.00,1.51
8931.00,1.51
8930.00,1.51
8929.00,1.51
8928.00,1.51
8927.00,1.51
8926.00,1.51
8925.00,1.50
8924.00,1.50
8923.00,1.50
8922.00,1.50
8921.00,1.50
8920.00,1.50
8919.00,1.50
8918.00,1.50
8917.00,1.51
8916.00,1.51
8915.00,1.51
8914.00,1.51
8913.00,1.51
8912.00,1.51
8911.00,1.51
8910.00,1.51
8909.00,1.51
8908.00,1.51
8907.00,1.51
8906.00,1.51
8905.00,1.51
8904.00,1.51
8903.00,1.51
8902.00,1.51
8901.00,1.51
8900.00,1.51
8899.00,1.51
8898.00,1.51
8897.00,1.51
8896.00,1.51
8895.00,1.51
8894.00,1.51
8893.00,1.51
8892.00,1.51
8891.00,1.51
8890.00,1.50
8889.00,1.50
8888.00,1.50
8887.00,1.50
8886.00,1.50
8885.00,1.50
8884.00,1.50
8883.00,1.50
8882.00,1.50
8881.00,1.50
8880.00,1.50
8879.00,1.50
8878.00,1.50
8877.00,1.51
8876.00,1.51
8875.00,1.51
8874.00,1.51
8873.00,1.51
8872.00,1.51
8871.00,1.51
8870.00,1.51
8869.00,1.51
8868.00,1.51
8867.00,1.51
8866.00,1.51
8865.00,1.51
8864.00,1.51
8863.00,1.51
8862.00,1.51
8861.00,1.51
8860.00,1.51
8859.00,1.51
8858.00,1.51
8857.00,1.50
8856.00,1.50
8855.00,1.50
8854.00,1.50
8853.00,1.50
8852.00,1.50
8851.00,1.50
8850.00,1.50
8849.00,1.49
8848.00,1.49
8847.00,1.49
8846.00,1.49
8845.00,1.49
8844.00,1.49
8843.00,1.49
8842.00,1.48
8841.00,1.48
8840.00,1.48
8839.00,1.48
8838.00,1.48
8837.00,1.48
8836.00,1.48
8835.00,1.48
8834.00,1.48
8833.00,1.48
8832.00,1.48
8831.00,1.48
8830.00,1.48
8829.00,1.48
8828.00,1.49
8827.00,1.49
8826.00,1.49
8825.00,1.49
8824.00,1.49
8823.00,1.49
8822.00,1.49
8821.00,1.49
8820.00,1.49
8819.00,1.49
8818.00,1.49
8817.00,1.49
8816.00,1.49
8815.00,1.49
8814.00,1.49
8813.00,1.48
8812.00,1.48
8811.00,1.48
8810.00,1.48
8809.00,1.47
8808.00,1.47
8807.00,1.47
8806.00,1.47
8805.00,1.47
8804.00,1.46
8803.00,1.46
8802.00,1.46
8801.00,1.46
8800.00,1.46
8799.00,1.46
8798.00,1.46
8797.00,1.46
8796.00,1.46
8795.00,1.46
8794.00,1.46
8793.00,1.46
8792.00,1.46
8791.00,1.46
8790.00,1.46
8789.00,1.46
8788.00,1.47
8787.00,1.47
8786.00,1.47
8785.00,1.47
8784.00,1.47
8783.00,1.47
8782.00,1.47
8781.00,1.47
8780.00,1.47
8779.00,1.47
8778.00,1.47
8777.00,1.47
8776.00,1.47
8775.00,1.47
8774.00,1.47
8773.00,1.47
8772.00,1.47
8771.00,1.47
8770.00,1.47
8769.00,1.47
8768.00,1.47
8767.00,1.47
8766.00,1.46
8765.00,1.46
8764.00,1.46
8763.00,1.46
8762.00,1.46
8761.00,1.46
8760.00,1.46
8759.00,1.46
8758.00,1.46
8757.00,1.45
8756.00,1.45
8755.00,1.45
8754.00,1.45
8753.00,1.45
8752.00,1.45
8751.00,1.45
8750.00,1.45
8749.00,1.45
8748.00,1.45
8747.00,1.45
8746.00,1.45
8745.00,1.45
8744.00,1.45
8743.00,1.45
8742.00,1.45
8741.00,1.45
8740.00,1.45
8739.00,1.45
8738.00,1.45
8737.00,1.45
8736.00,1.45
8735.00,1.45
8734.00,1.45
8733.00,1.45
8732.00,1.45
8731.00,1.45
8730.00,1.45
8729.00,1.45
8728.00,1.45
8727.00,1.45
8726.00,1.45
8725.00,1.45
8724.00,1.45
8723.00,1.45
8722.00,1.45
8721.00,1.45
8720.00,1.44
8719.00,1.44
8718.00,1.44
8717.00,1.44
8716.00,1.44
8715.00,1.44
8714.00,1.44
8713.00,1.43
8712.00,1.43
8711.00,1.43
8710.00,1.43
8709.00,1.43
8708.00,1.43
8707.00,1.42
8706.00,1.42
8705.00,1.42
8704.00,1.42
8703.00,1.42
8702.00,1.42
8701.00,1.42
8700.00,1.42
8699.00,1.42
8698.00,1.42
8697.00,1.42
8696.00,1.42
8695.00,1.42
8694.00,1.42
8693.00,1.42
8692.00,1.42
8691.00,1.42
8690.00,1.42
8689.00,1.42
8688.00,1.42
8687.00,1.42
8686.00,1.42
8685.00,1.42
8684.00,1.42
8683.00,1.42
8682.00,1.42
8681.00,1.42
8680.00,1.42
8679.00,1.42
8678.00,1.42
8677.00,1.42
8676.00,1.42
8675.00,1.42
8674.00,1.42
8673.00,1.43
8672.00,1.43
8671.00,1.43
8670.00,1.43
8669.00,1.43
8668.00,1.43
8667.00,1.43
8666.00,1.43
8665.00,1.43
8664.00,1.43
8663.00,1.43
8662.00,1.43
8661.00,1.43
8660.00,1.43
8659.00,1.42
8658.00,1.42
8657.00,1.42
8656.00,1.42
8655.00,1.42
8654.00,1.42
8653.00,1.42
8652.00,1.42
8651.00,1.42
8650.00,1.42
8649.00,1.42
8648.00,1.42
8647.00,1.42
8646.00,1.42
8645.00,1.41
8644.00,1.41
8643.00,1.41
8642.00,1.41
8641.00,1.41
8640.00,1.41
8639.00,1.42
8638.00,1.42
8637.00,1.42
8636.00,1.42
8635.00,1.42
8634.00,1.42
8633.00,1.42
8632.00,1.43
8631.00,1.43
8630.00,1.43
8629.00,1.43
8628.00,1.43
8627.00,1.43
8626.00,1.43
8625.00,1.43
8624.00,1.43
8623.00,1.43
8622.00,1.43
8621.00,1.43
8620.00,1.43
8619.00,1.43
8618.00,1.43
8617.00,1.43
8616.00,1.43
8615.00,1.42
8614.00,1.42
8613.00,1.42
8612.00,1.42
8611.00,1.42
8610.00,1.42
8609.00,1.42
8608.00,1.42
8607.00,1.42
8606.00,1.42
8605.00,1.42
8604.00,1.42
8603.00,1.42
8602.00,1.42
8601.00,1.42
8600.00,1.42
8599.00,1.42
8598.00,1.43
8597.00,1.43
8596.00,1.43
8595.00,1.43
8594.00,1.43
8593.00,1.43
8592.00,1.43
8591.00,1.43
8590.00,1.43
8589.00,1.43
8588.00,1.43
8587.00,1.43
8586.00,1.43
8585.00,1.43
8584.00,1.43
8583.00,1.43
8582.00,1.43
8581.00,1.42
8580.00,1.42
8579.00,1.42
8578.00,1.41
8577.00,1.41
8576.00,1.41
8575.00,1.40
8574.00,1.40
8573.00,1.40
8572.00,1.39
8571.00,1.39
8570.00,1.39
8569.00,1.38
8568.00,1.38
8567.00,1.38
8566.00,1.38
8565.00,1.38
8564.00,1.38
8563.00,1.38
8562.00,1.37
8561.00,1.37
8560.00,1.38
8559.00,1.38
8558.00,1.38
8557.00,1.38
8556.00,1.38
8555.00,1.38
8554.00,1.38
8553.00,1.38
8552.00,1.38
8551.00,1.39
8550.00,1.39
8549.00,1.39
8548.00,1.39
8547.00,1.39
8546.00,1.39
8545.00,1.39
8544.00,1.39
8543.00,1.39
8542.00,1.39
8541.00,1.39
8540.00,1.39
8539.00,1.39
8538.00,1.39
8537.00,1.39
8536.00,1.39
8535.00,1.39
8534.00,1.39
8533.00,1.39
8532.00,1.39
8531.00,1.39
8530.00,1.39
8529.00,1.39
8528.00,1.39
8527.00,1.39
8526.00,1.38
8525.00,1.38
8524.00,1.38
8523.00,1.38
8522.00,1.38
8521.00,1.38
8520.00,1.38
8519.00,1.38
8518.00,1.38
8517.00,1.38
8516.00,1.38
8515.00,1.38
8514.00,1.38
8513.00,1.38
8512.00,1.38
8511.00,1.38
8510.00,1.38
8509.00,1.38
8508.00,1.38
8507.00,1.38
8506.00,1.38
8505.00,1.38
8504.00,1.38
8503.00,1.38
8502.00,1.38
8501.00,1.38
8500.00,1.38
8499.00,1.38
8498.00,1.37
8497.00,1.37
8496.00,1.37
8495.00,1.37
8494.00,1.37
8493.00,1.37
8492.00,1.37
8491.00,1.36
8490.00,1.36
8489.00,1.36
8488.00,1.36
8487.00,1.36
8486.00,1.36
8485.00,1.36
8484.00,1.36
8483.00,1.36
8482.00,1.36
8481.00,1.36
8480.00,1.36
8479.00,1.36
8478.00,1.36
8477.00,1.36
8476.00,1.36
8475.00,1.35
8474.00,1.35
8473.00,1.35
8472.00,1.35
8471.00,1.35
8470.00,1.35
8469.00,1.35
8468.00,1.34
8467.00,1.34
8466.00,1.34
8465.00,1.34
8464.00,1.34
8463.00,1.34
8462.00,1.34
8461.00,1.34
8460.00,1.33
8459.00,1.33
8458.00,1.33
8457.00,1.33
8456.00,1.33
8455.00,1.33
8454.00,1.33
8453.00,1.33
8452.00,1.33
8451.00,1.33
8450.00,1.33
8449.00,1.33
8448.00,1.33
8447.00,1.33
8446.00,1.33
8445.00,1.33
8444.00,1.33
8443.00,1.33
8442.00,1.33
8441.00,1.33
8440.00,1.33
8439.00,1.33
8438.00,1.33
8437.00,1.33
8436.00,1.33
8435.00,1.33
8434.00,1.33
8433.00,1.33
8432.00,1.33
8431.00,1.33
8430.00,1.33
8429.00,1.33
8428.00,1.33
8427.00,1.33
8426.00,1.33
8425.00,1.33
8424.00,1.33
8423.00,1.33
8422.00,1.33
8421.00,1.33
8420.00,1.33
8419.00,1.33
8418.00,1.33
8417.00,1.33
8416.00,1.33
8415.00,1.33
8414.00,1.33
8413.00,1.33
8412.00,1.33
8411.00,1.33
8410.00,1.33
8409.00,1.33
8408.00,1.33
8407.00,1.33
8406.00,1.33
8405.00,1.33
8404.00,1.33
8403.00,1.34
8402.00,1.34
8401.00,1.34
8400.00,1.34
8399.00,1.34
8398.00,1.34
8397.00,1.34
8396.00,1.35
8395.00,1.35
8394.00,1.35
8393.00,1.35
8392.00,1.35
8391.00,1.36
8390.00,1.36
8389.00,1.36
8388.00,1.36
8387.00,1.36
8386.00,1.37
8385.00,1.37
8384.00,1.37
8383.00,1.37
8382.00,1.37
8381.00,1.37
8380.00,1.37
8379.00,1.37
8378.00,1.38
8377.00,1.38
8376.00,1.38
8375.00,1.38
8374.00,1.38
8373.00,1.38
8372.00,1.38
8371.00,1.38
8370.00,1.38
8369.00,1.38
8368.00,1.38
8367.00,1.38
8366.00,1.38
8365.00,1.38
8364.00,1.38
8363.00,1.38
8362.00,1.38
8361.00,1.38
8360.00,1.38
8359.00,1.38
8358.00,1.38
8357.00,1.38
8356.00,1.38
8355.00,1.38
8354.00,1.38
8353.00,1.38
8352.00,1.38
8351.00,1.38
8350.00,1.38
8349.00,1.38
8348.00,1.38
8347.00,1.38
8346.00,1.38
8345.00,1.38
8344.00,1.38
8343.00,1.39
8342.00,1.39
8341.00,1.39
8340.00,1.39
8339.00,1.39
8338.00,1.39
8337.00,1.40
8336.00,1.40
8335.00,1.40
8334.00,1.40
8333.00,1.40
8332.00,1.40
8331.00,1.40
8330.00,1.40
8329.00,1.40
8328.00,1.40
8327.00,1.40
8326.00,1.40
8325.00,1.40
8324.00,1.40
8323.00,1.40
8322.00,1.39
8321.00,1.39
8320.00,1.39
8319.00,1.39
8318.00,1.39
8317.00,1.39
8316.00,1.39
8315.00,1.38
8314.00,1.38
8313.00,1.38
8312.00,1.38
8311.00,1.38
8310.00,1.38
8309.00,1.38
8308.00,1.38
8307.00,1.38
8306.00,1.38
8305.00,1.38
8304.00,1.38
8303.00,1.38
8302.00,1.38
8301.00,1.38
8300.00,1.38
8299.00,1.38
8298.00,1.38
8297.00,1.38
8296.00,1.38
8295.00,1.38
8294.00,1.38
8293.00,1.38
8292.00,1.38
8291.00,1.38
8290.00,1.38
8289.00,1.38
8288.00,1.38
8287.00,1.38
8286.00,1.39
8285.00,1.39
8284.00,1.39
8283.00,1.39
8282.00,1.39
8281.00,1.39
8280.00,1.39
8279.00,1.39
8278.00,1.39
8277.00,1.39
8276.00,1.39
8275.00,1.39
8274.00,1.39
8273.00,1.39
8272.00,1.40
8271.00,1.40
8270.00,1.40
8269.00,1.40
8268.00,1.40
8267.00,1.40
8266.00,1.40
8265.00,1.40
8264.00,1.40
8263.00,1.40
8262.00,1.40
8261.00,1.40
8260.00,1.40
8259.00,1.40
8258.00,1.41
8257.00,1.41
8256.00,1.41
8255.00,1.41
8254.00,1.41
8253.00,1.41
8252.00,1.41
8251.00,1.41
8250.00,1.41
8249.00,1.41
8248.00,1.41
8247.00,1.41
8246.00,1.41
8245.00,1.41
8244.00,1.41
8243.00,1.41
8242.00,1.41
8241.00,1.41
8240.00,1.41
8239.00,1.41
8238.00,1.41
8237.00,1.41
8236.00,1.41
8235.00,1.41
8234.00,1.41
8233.00,1.41
8232.00,1.41
8231.00,1.41
8230.00,1.41
8229.00,1.41
8228.00,1.41
8227.00,1.41
8226.00,1.41
8225.00,1.41
8224.00,1.41
8223.00,1.41
8222.00,1.41
8221.00,1.41
8220.00,1.41
8219.00,1.41
8218.00,1.42
8217.00,1.42
8216.00,1.42
8215.00,1.42
8214.00,1.42
8213.00,1.42
8212.00,1.42
8211.00,1.42
8210.00,1.42
8209.00,1.42
8208.00,1.42
8207.00,1.42
8206.00,1.42
8205.00,1.41
8204.00,1.41
8203.00,1.41
8202.00,1.41
8201.00,1.41
8200.00,1.41
8199.00,1.41
8198.00,1.41
8197.00,1.41
8196.00,1.40
8195.00,1.40
8194.00,1.40
8193.00,1.40
8192.00,1.40
8191.00,1.40
8190.00,1.40
8189.00,1.40
8188.00,1.40
8187.00,1.40
8186.00,1.40
8185.00,1.41
8184.00,1.41
8183.00,1.41
8182.00,1.41
8181.00,1.41
8180.00,1.41
8179.00,1.41
8178.00,1.42
8177.00,1.42
8176.00,1.42
8175.00,1.42
8174.00,1.42
8173.00,1.42
8172.00,1.42
8171.00,1.43
8170.00,1.43
8169.00,1.43
8168.00,1.43
8167.00,1.43
8166.00,1.43
8165.00,1.43
8164.00,1.43
8163.00,1.43
8162.00,1.43
8161.00,1.43
8160.00,1.43
8159.00,1.43
8158.00,1.43
8157.00,1.43
8156.00,1.43
8155.00,1.43
8154.00,1.43
8153.00,1.43
8152.00,1.44
8151.00,1.44
8150.00,1.44
8149.00,1.44
8148.00,1.44
8147.00,1.44
8146.00,1.44
8145.00,1.44
8144.00,1.44
8143.00,1.44
8142.00,1.45
8141.00,1.45
8140.00,1.45
8139.00,1.45
8138.00,1.45
8137.00,1.44
8136.00,1.44
8135.00,1.44
8134.00,1.44
8133.00,1.44
8132.00,1.44
8131.00,1.44
8130.00,1.44
8129.00,1.44
8128.00,1.44
8127.00,1.44
8126.00,1.44
8125.00,1.44
8124.00,1.44
8123.00,1.44
8122.00,1.45
8121.00,1.45
8120.00,1.45
8119.00,1.45
8118.00,1.45
8117.00,1.45
8116.00,1.46
8115.00,1.46
8114.00,1.46
8113.00,1.46
8112.00,1.46
8111.00,1.46
8110.00,1.46
8109.00,1.46
8108.00,1.46
8107.00,1.46
8106.00,1.46
8105.00,1.46
8104.00,1.46
8103.00,1.46
8102.00,1.46
8101.00,1.46
8100.00,1.46
8099.00,1.46
8098.00,1.46
8097.00,1.46
8096.00,1.46
8095.00,1.46
8094.00,1.46
8093.00,1.46
8092.00,1.46
8091.00,1.46
8090.00,1.46
8089.00,1.47
8088.00,1.47
8087.00,1.47
8086.00,1.47
8085.00,1.47
8084.00,1.47
8083.00,1.47
8082.00,1.47
8081.00,1.47
8080.00,1.47
8079.00,1.47
8078.00,1.47
8077.00,1.47
8076.00,1.47
8075.00,1.47
8074.00,1.47
8073.00,1.46
8072.00,1.46
8071.00,1.46
8070.00,1.46
8069.00,1.46
8068.00,1.46
8067.00,1.46
8066.00,1.46
8065.00,1.46
8064.00,1.46
8063.00,1.46
8062.00,1.46
8061.00,1.46
8060.00,1.46
8059.00,1.46
8058.00,1.46
8057.00,1.46
8056.00,1.46
8055.00,1.46
8054.00,1.46
8053.00,1.46
8052.00,1.46
8051.00,1.46
8050.00,1.46
8049.00,1.47
8048.00,1.47
8047.00,1.47
8046.00,1.47
8045.00,1.47
8044.00,1.47
8043.00,1.47
8042.00,1.47
8041.00,1.47
8040.00,1.47
8039.00,1.47
8038.00,1.47
8037.00,1.47
8036.00,1.47
8035.00,1.47
8034.00,1.47
8033.00,1.47
8032.00,1.47
8031.00,1.47
8030.00,1.47
8029.00,1.47
8028.00,1.47
8027.00,1.47
8026.00,1.47
8025.00,1.47
8024.00,1.47
8023.00,1.47
8022.00,1.47
8021.00,1.47
8020.00,1.48
8019.00,1.48
8018.00,1.48
8017.00,1.48
8016.00,1.48
8015.00,1.48
8014.00,1.48
8013.00,1.48
8012.00,1.49
8011.00,1.49
8010.00,1.49
8009.00,1.49
8008.00,1.49
8007.00,1.49
8006.00,1.49
8005.00,1.49
8004.00,1.49
8003.00,1.49
8002.00,1.49
8001.00,1.49
8000.00,1.49
7999.00,1.49
7998.00,1.49
7997.00,1.49
7996.00,1.49
7995.00,1.49
7994.00,1.49
7993.00,1.49
7992.00,1.49
7991.00,1.49
7990.00,1.49
7989.00,1.49
7988.00,1.49
7987.00,1.49
7986.00,1.49
7985.00,1.49
7984.00,1.49
7983.00,1.49
7982.00,1.49
7981.00,1.49
7980.00,1.49
7979.00,1.49
7978.00,1.49
7977.00,1.49
7976.00,1.49
7975.00,1.49
7974.00,1.49
7973.00,1.49
7972.00,1.49
7971.00,1.49
7970.00,1.49
7969.00,1.49
7968.00,1.49
7967.00,1.49
7966.00,1.49
7965.00,1.49
7964.00,1.49
7963.00,1.49
7962.00,1.48
7961.00,1.48
7960.00,1.48
7959.00,1.48
7958.00,1.48
7957.00,1.48
7956.00,1.48
7955.00,1.48
7954.00,1.48
7953.00,1.48
7952.00,1.48
7951.00,1.48
7950.00,1.48
7949.00,1.48
7948.00,1.48
7947.00,1.48
7946.00,1.48
7945.00,1.48
7944.00,1.48
7943.00,1.48
7942.00,1.48
7941.00,1.49
7940.00,1.49
7939.00,1.49
7938.00,1.49
7937.00,1.49
7936.00,1.49
7935.00,1.49
7934.00,1.49
7933.00,1.49
7932.00,1.50
7931.00,1.50
7930.00,1.50
7929.00,1.50
7928.00,1.50
7927.00,1.50
7926.00,1.50
7925.00,1.50
7924.00,1.50
7923.00,1.50
7922.00,1.50
7921.00,1.50
7920.00,1.50
7919.00,1.50
7918.00,1.50
7917.00,1.50
7916.00,1.50
7915.00,1.50
7914.00,1.50
7913.00,1.50
7912.00,1.50
7911.00,1.50
7910.00,1.50
7909.00,1.50
7908.00,1.50
7907.00,1.50
7906.00,1.50
7905.00,1.50
7904.00,1.50
7903.00,1.50
7902.00,1.50
7901.00,1.50
7900.00,1.50
7899.00,1.50
7898.00,1.50
7897.00,1.50
7896.00,1.50
7895.00,1.50
7894.00,1.50
7893.00,1.50
7892.00,1.50
7891.00,1.50
7890.00,1.50
7889.00,1.50
7888.00,1.50
7887.00,1.50
7886.00,1.50
7885.00,1.50
7884.00,1.50
7883.00,1.50
7882.00,1.50
7881.00,1.50
7880.00,1.51
7879.00,1.51
7878.00,1.51
7877.00,1.51
7876.00,1.51
7875.00,1.51
7874.00,1.51
7873.00,1.51
7872.00,1.51
7871.00,1.51
7870.00,1.51
7869.00,1.51
7868.00,1.51
7867.00,1.51
7866.00,1.51
7865.00,1.51
7864.00,1.51
7863.00,1.51
7862.00,1.51
7861.00,1.51
7860.00,1.51
7859.00,1.51
7858.00,1.51
7857.00,1.51
7856.00,1.51
7855.00,1.51
7854.00,1.51
7853.00,1.51
7852.00,1.51
7851.00,1.51
7850.00,1.51
7849.00,1.51
7848.00,1.51
7847.00,1.51
7846.00,1.51
7845.00,1.51
7844.00,1.51
7843.00,1.51
7842.00,1.51
7841.00,1.51
7840.00,1.51
7839.00,1.51
7838.00,1.51
7837.00,1.51
7836.00,1.51
7835.00,1.51
7834.00,1.51
7833.00,1.51
7832.00,1.51
7831.00,1.51
7830.00,1.51
7829.00,1.51
7828.00,1.50
7827.00,1.50
7826.00,1.50
7825.00,1.50
7824.00,1.51
7823.00,1.51
7822.00,1.51
7821.00,1.51
7820.00,1.51
7819.00,1.51
7818.00,1.51
7817.00,1.51
7816.00,1.51
7815.00,1.51
7814.00,1.52
7813.00,1.52
7812.00,1.52
7811.00,1.52
7810.00,1.52
7809.00,1.52
7808.00,1.52
7807.00,1.53
7806.00,1.53
7805.00,1.53
7804.00,1.53
7803.00,1.53
7802.00,1.53
7801.00,1.53
7800.00,1.53
7799.00,1.53
7798.00,1.53
7797.00,1.53
7796.00,1.53
7795.00,1.53
7794.00,1.53
7793.00,1.53
7792.00,1.53
7791.00,1.52
7790.00,1.52
7789.00,1.52
7788.00,1.52
7787.00,1.52
7786.00,1.52
7785.00,1.52
7784.00,1.52
7783.00,1.52
7782.00,1.52
7781.00,1.52
7780.00,1.52
7779.00,1.52
7778.00,1.52
7777.00,1.52
7776.00,1.52
7775.00,1.52
7774.00,1.52
7773.00,1.52
7772.00,1.52
7771.00,1.52
7770.00,1.52
7769.00,1.52
7768.00,1.52
7767.00,1.52
7766.00,1.52
7765.00,1.52
7764.00,1.53
7763.00,1.53
7762.00,1.53
7761.00,1.53
7760.00,1.53
7759.00,1.53
7758.00,1.53
7757.00,1.53
7756.00,1.53
7755.00,1.54
7754.00,1.54
7753.00,1.54
7752.00,1.54
7751.00,1.54
7750.00,1.54
7749.00,1.54
7748.00,1.54
7747.00,1.53
7746.00,1.53
7745.00,1.53
7744.00,1.53
7743.00,1.53
7742.00,1.53
7741.00,1.53
7740.00,1.53
7739.00,1.53
7738.00,1.53
7737.00,1.53
7736.00,1.53
7735.00,1.53
7734.00,1.53
7733.00,1.53
7732.00,1.53
7731.00,1.53
7730.00,1.53
7729.00,1.53
7728.00,1.53
7727.00,1.53
7726.00,1.53
7725.00,1.53
7724.00,1.53
7723.00,1.53
7722.00,1.53
7721.00,1.53
7720.00,1.53
7719.00,1.53
7718.00,1.53
7717.00,1.53
7716.00,1.53
7715.00,1.53
7714.00,1.53
7713.00,1.53
7712.00,1.53
7711.00,1.53
7710.00,1.53
7709.00,1.53
7708.00,1.53
7707.00,1.53
7706.00,1.53
7705.00,1.54
7704.00,1.54
7703.00,1.54
7702.00,1.54
7701.00,1.54
7700.00,1.54
7699.00,1.54
7698.00,1.54
7697.00,1.54
7696.00,1.54
7695.00,1.54
7694.00,1.54
7693.00,1.53
7692.00,1.53
7691.00,1.53
7690.00,1.53
7689.00,1.53
7688.00,1.53
7687.00,1.53
7686.00,1.53
7685.00,1.53
7684.00,1.53
7683.00,1.53
7682.00,1.53
7681.00,1.53
7680.00,1.53
7679.00,1.53
7678.00,1.53
7677.00,1.53
7676.00,1.53
7675.00,1.53
7674.00,1.53
7673.00,1.53
7672.00,1.53
7671.00,1.53
7670.00,1.53
7669.00,1.53
7668.00,1.53
7667.00,1.53
7666.00,1.53
7665.00,1.53
7664.00,1.53
7663.00,1.53
7662.00,1.53
7661.00,1.53
7660.00,1.53
7659.00,1.53
7658.00,1.53
7657.00,1.53
7656.00,1.53
7655.00,1.53
7654.00,1.53
7653.00,1.53
7652.00,1.53
7651.00,1.53
7650.00,1.53
7649.00,1.53
7648.00,1.53
7647.00,1.53
7646.00,1.53
7645.00,1.53
7644.00,1.53
7643.00,1.53
7642.00,1.53
7641.00,1.53
7640.00,1.53
7639.00,1.53
7638.00,1.53
7637.00,1.53
7636.00,1.53
7635.00,1.53
7634.00,1.53
7633.00,1.53
7632.00,1.53
7631.00,1.53
7630.00,1.53
7629.00,1.54
7628.00,1.54
7627.00,1.54
7626.00,1.54
7625.00,1.54
7624.00,1.54
7623.00,1.54
7622.00,1.54
7621.00,1.54
7620.00,1.54
7619.00,1.54
7618.00,1.54
7617.00,1.54
7616.00,1.54
7615.00,1.54
7614.00,1.54
7613.00,1.54
7612.00,1.54
7611.00,1.53
7610.00,1.53
7609.00,1.53
7608.00,1.53
7607.00,1.53
7606.00,1.53
7605.00,1.53
7604.00,1.53
7603.00,1.53
7602.00,1.53
7601.00,1.53
7600.00,1.53
7599.00,1.53
7598.00,1.52
7597.00,1.52
7596.00,1.52
7595.00,1.52
7594.00,1.52
7593.00,1.52
7592.00,1.52
7591.00,1.52
7590.00,1.53
7589.00,1.53
7588.00,1.53
7587.00,1.53
7586.00,1.53
7585.00,1.53
7584.00,1.53
7583.00,1.53
7582.00,1.53
7581.00,1.53
7580.00,1.53
7579.00,1.53
7578.00,1.53
7577.00,1.53
7576.00,1.53
7575.00,1.53
7574.00,1.53
7573.00,1.53
7572.00,1.52
7571.00,1.52
7570.00,1.52
7569.00,1.52
7568.00,1.52
7567.00,1.52
7566.00,1.52
7565.00,1.52
7564.00,1.52
7563.00,1.52
7562.00,1.52
7561.00,1.52
7560.00,1.52
7559.00,1.52
7558.00,1.52
7557.00,1.52
7556.00,1.52
7555.00,1.52
7554.00,1.52
7553.00,1.52
7552.00,1.52
7551.00,1.52
7550.00,1.52
7549.00,1.52
7548.00,1.52
7547.00,1.52
7546.00,1.52
7545.00,1.52
7544.00,1.52
7543.00,1.52
7542.00,1.52
7541.00,1.52
7540.00,1.52
7539.00,1.52
7538.00,1.52
7537.00,1.52
7536.00,1.52
7535.00,1.52
7534.00,1.52
7533.00,1.52
7532.00,1.52
7531.00,1.52
7530.00,1.51
7529.00,1.51
7528.00,1.51
7527.00,1.51
7526.00,1.51
7525.00,1.51
7524.00,1.51
7523.00,1.51
7522.00,1.51
7521.00,1.51
7520.00,1.51
7519.00,1.51
7518.00,1.51
7517.00,1.51
7516.00,1.51
7515.00,1.51
7514.00,1.51
7513.00,1.51
7512.00,1.51
7511.00,1.51
7510.00,1.51
7509.00,1.50
7508.00,1.50
7507.00,1.50
7506.00,1.50
7505.00,1.50
7504.00,1.50
7503.00,1.50
7502.00,1.50
7501.00,1.50
7500.00,1.50
7499.00,1.50
7498.00,1.50
7497.00,1.50
7496.00,1.50
7495.00,1.50
7494.00,1.49
7493.00,1.49
7492.00,1.49
7491.00,1.49
7490.00,1.49
7489.00,1.49
7488.00,1.49
7487.00,1.49
7486.00,1.49
7485.00,1.49
7484.00,1.49
7483.00,1.49
7482.00,1.49
7481.00,1.49
7480.00,1.49
7479.00,1.49
7478.00,1.49
7477.00,1.49
7476.00,1.49
7475.00,1.49
7474.00,1.48
7473.00,1.48
7472.00,1.48
7471.00,1.48
7470.00,1.48
7469.00,1.48
7468.00,1.48
7467.00,1.48
7466.00,1.48
7465.00,1.48
7464.00,1.48
7463.00,1.48
7462.00,1.48
7461.00,1.48
7460.00,1.48
7459.00,1.48
7458.00,1.48
7457.00,1.48
7456.00,1.48
7455.00,1.48
7454.00,1.48
7453.00,1.48
7452.00,1.48
7451.00,1.48
7450.00,1.48
7449.00,1.48
7448.00,1.48
7447.00,1.47
7446.00,1.47
7445.00,1.47
7444.00,1.47
7443.00,1.47
7442.00,1.47
7441.00,1.47
7440.00,1.46
7439.00,1.46
7438.00,1.46
7437.00,1.46
7436.00,1.46
7435.00,1.46
7434.00,1.46
7433.00,1.46
7432.00,1.46
7431.00,1.46
7430.00,1.46
7429.00,1.46
7428.00,1.46
7427.00,1.46
7426.00,1.46
7425.00,1.46
7424.00,1.45
7423.00,1.45
7422.00,1.45
7421.00,1.45
7420.00,1.45
7419.00,1.45
7418.00,1.45
7417.00,1.45
7416.00,1.45
7415.00,1.45
7414.00,1.45
7413.00,1.45
7412.00,1.45
7411.00,1.45
7410.00,1.44
7409.00,1.44
7408.00,1.44
7407.00,1.44
7406.00,1.44
7405.00,1.44
7404.00,1.44
7403.00,1.43
7402.00,1.43
7401.00,1.43
7400.00,1.43
7399.00,1.43
7398.00,1.42
7397.00,1.42
7396.00,1.42
7395.00,1.42
7394.00,1.42
7393.00,1.42
7392.00,1.41
7391.00,1.41
7390.00,1.41
7389.00,1.41
7388.00,1.41
7387.00,1.41
7386.00,1.41
7385.00,1.41
7384.00,1.40
7383.00,1.40
7382.00,1.40
7381.00,1.40
7380.00,1.40
7379.00,1.40
7378.00,1.40
7377.00,1.40
7376.00,1.40
7375.00,1.40
7374.00,1.40
7373.00,1.40
7372.00,1.41
7371.00,1.41
7370.00,1.41
7369.00,1.41
7368.00,1.41
7367.00,1.41
7366.00,1.41
7365.00,1.41
7364.00,1.41
7363.00,1.41
7362.00,1.41
7361.00,1.41
7360.00,1.41
7359.00,1.41
7358.00,1.40
7357.00,1.40
7356.00,1.40
7355.00,1.40
7354.00,1.40
7353.00,1.40
7352.00,1.40
7351.00,1.40
7350.00,1.40
7349.00,1.40
7348.00,1.40
7347.00,1.40
7346.00,1.40
7345.00,1.40
7344.00,1.40
7343.00,1.39
7342.00,1.39
7341.00,1.39
7340.00,1.39
7339.00,1.39
7338.00,1.39
7337.00,1.39
7336.00,1.39
7335.00,1.39
7334.00,1.39
7333.00,1.39
7332.00,1.38
7331.00,1.38
7330.00,1.38
7329.00,1.38
7328.00,1.38
7327.00,1.38
7326.00,1.38
7325.00,1.38
7324.00,1.38
7323.00,1.38
7322.00,1.38
7321.00,1.38
7320.00,1.38
7319.00,1.38
7318.00,1.38
7317.00,1.38
7316.00,1.38
7315.00,1.38
7314.00,1.38
7313.00,1.38
7312.00,1.38
7311.00,1.37
7310.00,1.37
7309.00,1.37
7308.00,1.37
7307.00,1.37
7306.00,1.37
7305.00,1.37
7304.00,1.37
7303.00,1.37
7302.00,1.37
7301.00,1.37
7300.00,1.37
7299.00,1.37
7298.00,1.37
7297.00,1.37
7296.00,1.36
7295.00,1.36
7294.00,1.36
7293.00,1.36
7292.00,1.36
7291.00,1.36
7290.00,1.36
7289.00,1.36
7288.00,1.36
7287.00,1.36
7286.00,1.36
7285.00,1.36
7284.00,1.35
7283.00,1.35
7282.00,1.35
7281.00,1.35
7280.00,1.35
7279.00,1.35
7278.00,1.35
7277.00,1.35
7276.00,1.34
7275.00,1.34
7274.00,1.34
7273.00,1.34
7272.00,1.34
7271.00,1.34
7270.00,1.34
7269.00,1.33
7268.00,1.33
7267.00,1.33
7266.00,1.33
7265.00,1.33
7264.00,1.33
7263.00,1.33
7262.00,1.33
7261.00,1.32
7260.00,1.32
7259.00,1.32
7258.00,1.32
7257.00,1.32
7256.00,1.32
7255.00,1.31
7254.00,1.31
7253.00,1.31
7252.00,1.31
7251.00,1.30
7250.00,1.30
7249.00,1.30
7248.00,1.29
7247.00,1.29
7246.00,1.29
7245.00,1.28
7244.00,1.28
7243.00,1.28
7242.00,1.27
7241.00,1.27
7240.00,1.27
7239.00,1.26
7238.00,1.26
7237.00,1.26
7236.00,1.25
7235.00,1.25
7234.00,1.25
7233.00,1.24
7232.00,1.24
7231.00,1.23
7230.00,1.23
7229.00,1.23
7228.00,1.22
7227.00,1.22
7226.00,1.22
7225.00,1.21
7224.00,1.21
7223.00,1.21
7222.00,1.20
7221.00,1.20
7220.00,1.20
7219.00,1.19
7218.00,1.19
7217.00,1.19
7216.00,1.18
7215.00,1.18
7214.00,1.18
7213.00,1.17
7212.00,1.17
7211.00,1.17
7210.00,1.16
7209.00,1.16
7208.00,1.16
7207.00,1.15
7206.00,1.15
7205.00,1.15
7204.00,1.14
7203.00,1.14
7202.00,1.14
7201.00,1.14
7200.00,1.13
7199.00,1.13
7198.00,1.13
7197.00,1.13
7196.00,1.12
7195.00,1.12
7194.00,1.12
7193.00,1.12
7192.00,1.11
7191.00,1.11
7190.00,1.11
7189.00,1.10
7188.00,1.10
7187.00,1.10
7186.00,1.09
7185.00,1.09
7184.00,1.09
7183.00,1.08
7182.00,1.08
7181.00,1.08
7180.00,1.07
7179.00,1.07
7178.00,1.07
7177.00,1.07
7176.00,1.06
7175.00,1.06
7174.00,1.06
7173.00,1.05
7172.00,1.05
7171.00,1.05
7170.00,1.05
7169.00,1.04
7168.00,1.04
7167.00,1.04
7166.00,1.04
7165.00,1.03
7164.00,1.03
7163.00,1.03
7162.00,1.02
7161.00,1.02
7160.00,1.02
7159.00,1.01
7158.00,1.01
7157.00,1.01
7156.00,1.01
7155.00,1.00
7154.00,1.00
7153.00,1.00
7152.00,1.00
7151.00,0.99
7150.00,0.99
7149.00,0.99
7148.00,0.99
7147.00,0.98
7146.00,0.98
7145.00,0.98
7144.00,0.98
7143.00,0.97
7142.00,0.97
7141.00,0.97
7140.00,0.96
7139.00,0.96
7138.00,0.96
7137.00,0.95
7136.00,0.95
7135.00,0.95
7134.00,0.95
7133.00,0.94
7132.00,0.94
7131.00,0.94
7130.00,0.93
7129.00,0.93
7128.00,0.93
7127.00,0.92
7126.00,0.92
7125.00,0.92
7124.00,0.92
7123.00,0.91
7122.00,0.91
7121.00,0.91
7120.00,0.90
7119.00,0.90
7118.00,0.90
7117.00,0.90
7116.00,0.89
7115.00,0.89
7114.00,0.89
7113.00,0.89
7112.00,0.88
7111.00,0.88
7110.00,0.88
7109.00,0.88
7108.00,0.87
7107.00,0.87
7106.00,0.87
7105.00,0.87
7104.00,0.87
7103.00,0.86
7102.00,0.86
7101.00,0.86
7100.00,0.86
7099.00,0.85
7098.00,0.85
7097.00,0.85
7096.00,0.85
7095.00,0.84
7094.00,0.84
7093.00,0.84
7092.00,0.84
7091.00,0.84
7090.00,0.83
7089.00,0.83
7088.00,0.83
7087.00,0.83
7086.00,0.83
7085.00,0.82
7084.00,0.82
7083.00,0.82
7082.00,0.82
7081.00,0.81
7080.00,0.81
7079.00,0.81
7078.00,0.81
7077.00,0.80
7076.00,0.80
7075.00,0.80
7074.00,0.80
7073.00,0.80
7072.00,0.79
7071.00,0.79
7070.00,0.79
7069.00,0.79
7068.00,0.79
7067.00,0.79
7066.00,0.79
7065.00,0.79
7064.00,0.79
7063.00,0.79
7062.00,0.78
7061.00,0.78
7060.00,0.78
7059.00,0.78
7058.00,0.78
7057.00,0.78
7056.00,0.78
7055.00,0.78
7054.00,0.77
7053.00,0.77
7052.00,0.77
7051.00,0.77
7050.00,0.77
7049.00,0.77
7048.00,0.77
7047.00,0.76
7046.00,0.76
7045.00,0.76
7044.00,0.76
7043.00,0.76
7042.00,0.76
7041.00,0.76
7040.00,0.76
7039.00,0.76
7038.00,0.76
7037.00,0.75
7036.00,0.75
7035.00,0.75
7034.00,0.75
7033.00,0.75
7032.00,0.75
7031.00,0.75
7030.00,0.75
7029.00,0.75
7028.00,0.75
7027.00,0.75
7026.00,0.75
7025.00,0.74
7024.00,0.74
7023.00,0.74
7022.00,0.74
7021.00,0.74
7020.00,0.74
7019.00,0.74
7018.00,0.74
7017.00,0.74
7016.00,0.73
7015.00,0.73
7014.00,0.73
7013.00,0.73
7012.00,0.73
7011.00,0.73
7010.00,0.73
7009.00,0.73
7008.00,0.73
7007.00,0.73
7006.00,0.72
7005.00,0.72
7004.00,0.72
7003.00,0.72
7002.00,0.72
7001.00,0.72
7000.00,0.71
6999.00,0.71
6998.00,0.71
6997.00,0.71
6996.00,0.71
6995.00,0.71
6994.00,0.71
6993.00,0.71
6992.00,0.71
6991.00,0.71
6990.00,0.71
6989.00,0.71
6988.00,0.71
6987.00,0.71
6986.00,0.71
6985.00,0.71
6984.00,0.71
6983.00,0.71
6982.00,0.71
6981.00,0.71
6980.00,0.71
6979.00,0.71
6978.00,0.71
6977.00,0.71
6976.00,0.71
6975.00,0.71
6974.00,0.71
6973.00,0.71
6972.00,0.71
6971.00,0.71
6970.00,0.71
6969.00,0.71
6968.00,0.71
6967.00,0.71
6966.00,0.71
6965.00,0.71
6964.00,0.71
6963.00,0.71
6962.00,0.71
6961.00,0.71
6960.00,0.71
6959.00,0.71
6958.00,0.71
6957.00,0.71
6956.00,0.71
6955.00,0.71
6954.00,0.71
6953.00,0.71
6952.00,0.71
6951.00,0.71
6950.00,0.71
6949.00,0.71
6948.00,0.71
6947.00,0.70
6946.00,0.70
6945.00,0.70
6944.00,0.70
6943.00,0.70
6942.00,0.70
6941.00,0.70
6940.00,0.70
6939.00,0.70
6938.00,0.70
6937.00,0.70
6936.00,0.69
6935.00,0.69
6934.00,0.69
6933.00,0.69
6932.00,0.69
6931.00,0.69
6930.00,0.70
6929.00,0.70
6928.00,0.70
6927.00,0.70
6926.00,0.70
6925.00,0.70
6924.00,0.70
6923.00,0.70
6922.00,0.70
6921.00,0.70
6920.00,0.70
6919.00,0.70
6918.00,0.69
6917.00,0.69
6916.00,0.69
6915.00,0.69
6914.00,0.69
6913.00,0.69
6912.00,0.69
6911.00,0.69
6910.00,0.69
6909.00,0.69
6908.00,0.69
6907.00,0.69
6906.00,0.69
6905.00,0.69
6904.00,0.69
6903.00,0.69
6902.00,0.69
6901.00,0.69
6900.00,0.69
6899.00,0.69
6898.00,0.69
6897.00,0.69
6896.00,0.69
6895.00,0.69
6894.00,0.69
6893.00,0.69
6892.00,0.69
6891.00,0.69
6890.00,0.69
6889.00,0.69
6888.00,0.69
6887.00,0.69
6886.00,0.69
6885.00,0.69
6884.00,0.68
6883.00,0.68
6882.00,0.68
6881.00,0.68
6880.00,0.68
6879.00,0.68
6878.00,0.68
6877.00,0.68
6876.00,0.67
6875.00,0.67
6874.00,0.67
6873.00,0.67
6872.00,0.67
6871.00,0.67
6870.00,0.67
6869.00,0.67
6868.00,0.67
6867.00,0.67
6866.00,0.67
6865.00,0.67
6864.00,0.67
6863.00,0.67
6862.00,0.67
6861.00,0.67
6860.00,0.67
6859.00,0.67
6858.00,0.67
6857.00,0.67
6856.00,0.67
6855.00,0.68
6854.00,0.68
6853.00,0.68
6852.00,0.68
6851.00,0.68
6850.00,0.68
6849.00,0.68
6848.00,0.68
6847.00,0.68
6846.00,0.68
6845.00,0.68
6844.00,0.68
6843.00,0.68
6842.00,0.69
6841.00,0.69
6840.00,0.69
6839.00,0.69
6838.00,0.69
6837.00,0.69
6836.00,0.69
6835.00,0.69
6834.00,0.69
6833.00,0.69
6832.00,0.69
6831.00,0.69
6830.00,0.69
6829.00,0.69
6828.00,0.69
6827.00,0.69
6826.00,0.69
6825.00,0.69
6824.00,0.69
6823.00,0.69
6822.00,0.69
6821.00,0.68
6820.00,0.68
6819.00,0.68
6818.00,0.68
6817.00,0.68
6816.00,0.68
6815.00,0.68
6814.00,0.68
6813.00,0.68
6812.00,0.68
6811.00,0.68
6810.00,0.68
6809.00,0.68
6808.00,0.68
6807.00,0.68
6806.00,0.69
6805.00,0.69
6804.00,0.69
6803.00,0.69
6802.00,0.69
6801.00,0.69
6800.00,0.69
6799.00,0.70
6798.00,0.70
6797.00,0.70
6796.00,0.70
6795.00,0.70
6794.00,0.70
6793.00,0.70
6792.00,0.71
6791.00,0.71
6790.00,0.71
6789.00,0.71
6788.00,0.71
6787.00,0.71
6786.00,0.71
6785.00,0.71
6784.00,0.71
6783.00,0.72
6782.00,0.72
6781.00,0.72
6780.00,0.72
6779.00,0.72
6778.00,0.72
6777.00,0.72
6776.00,0.72
6775.00,0.72
6774.00,0.72
6773.00,0.72
6772.00,0.72
6771.00,0.72
6770.00,0.72
6769.00,0.72
6768.00,0.72
6767.00,0.72
6766.00,0.72
6765.00,0.72
6764.00,0.72
6763.00,0.72
6762.00,0.72
6761.00,0.72
6760.00,0.72
6759.00,0.72
6758.00,0.72
6757.00,0.72
6756.00,0.72
6755.00,0.72
6754.00,0.72
6753.00,0.72
6752.00,0.72
6751.00,0.73
6750.00,0.73
6749.00,0.73
6748.00,0.73
6747.00,0.73
6746.00,0.73
6745.00,0.73
6744.00,0.73
6743.00,0.73
6742.00,0.73
6741.00,0.73
6740.00,0.73
6739.00,0.73
6738.00,0.73
6737.00,0.73
6736.00,0.73
6735.00,0.73
6734.00,0.73
6733.00,0.73
6732.00,0.74
6731.00,0.74
6730.00,0.74
6729.00,0.74
6728.00,0.74
6727.00,0.74
6726.00,0.74
6725.00,0.74
6724.00,0.74
6723.00,0.74
6722.00,0.75
6721.00,0.75
6720.00,0.75
6719.00,0.75
6718.00,0.75
6717.00,0.75
6716.00,0.75
6715.00,0.75
6714.00,0.75
6713.00,0.76
6712.00,0.76
6711.00,0.76
6710.00,0.76
6709.00,0.76
6708.00,0.76
6707.00,0.76
6706.00,0.76
6705.00,0.76
6704.00,0.76
6703.00,0.76
6702.00,0.76
6701.00,0.76
6700.00,0.76
6699.00,0.77
6698.00,0.77
6697.00,0.77
6696.00,0.77
6695.00,0.77
6694.00,0.77
6693.00,0.77
6692.00,0.77
6691.00,0.77
6690.00,0.78
6689.00,0.78
6688.00,0.78
6687.00,0.78
6686.00,0.78
6685.00,0.78
6684.00,0.78
6683.00,0.78
6682.00,0.78
6681.00,0.78
6680.00,0.79
6679.00,0.79
6678.00,0.79
6677.00,0.79
6676.00,0.79
6675.00,0.79
6674.00,0.79
6673.00,0.79
6672.00,0.80
6671.00,0.80
6670.00,0.80
6669.00,0.80
6668.00,0.80
6667.00,0.80
6666.00,0.80
6665.00,0.80
6664.00,0.81
6663.00,0.81
6662.00,0.81
6661.00,0.81
6660.00,0.81
6659.00,0.81
6658.00,0.81
6657.00,0.81
6656.00,0.81
6655.00,0.82
6654.00,0.82
6653.00,0.82
6652.00,0.82
6651.00,0.82
6650.00,0.82
6649.00,0.82
6648.00,0.82
6647.00,0.82
6646.00,0.82
6645.00,0.83
6644.00,0.83
6643.00,0.83
6642.00,0.83
6641.00,0.83
6640.00,0.83
6639.00,0.83
6638.00,0.83
6637.00,0.83
6636.00,0.83
6635.00,0.83
6634.00,0.83
6633.00,0.83
6632.00,0.84
6631.00,0.84
6630.00,0.84
6629.00,0.84
6628.00,0.84
6627.00,0.84
6626.00,0.84
6625.00,0.84
6624.00,0.84
6623.00,0.85
6622.00,0.85
6621.00,0.85
6620.00,0.85
6619.00,0.85
6618.00,0.85
6617.00,0.85
6616.00,0.85
6615.00,0.85
6614.00,0.85
6613.00,0.85
6612.00,0.86
6611.00,0.86
6610.00,0.86
6609.00,0.86
6608.00,0.86
6607.00,0.86
6606.00,0.86
6605.00,0.86
6604.00,0.86
6603.00,0.86
6602.00,0.86
6601.00,0.86
6600.00,0.86
6599.00,0.86
6598.00,0.86
6597.00,0.86
6596.00,0.87
6595.00,0.87
6594.00,0.87
6593.00,0.87
6592.00,0.87
6591.00,0.87
6590.00,0.87
6589.00,0.87
6588.00,0.87
6587.00,0.87
6586.00,0.87
6585.00,0.87
6584.00,0.88
6583.00,0.88
6582.00,0.88
6581.00,0.88
6580.00,0.88
6579.00,0.88
6578.00,0.88
6577.00,0.89
6576.00,0.89
6575.00,0.89
6574.00,0.89
6573.00,0.89
6572.00,0.89
6571.00,0.89
6570.00,0.90
6569.00,0.90
6568.00,0.90
6567.00,0.90
6566.00,0.90
6565.00,0.90
6564.00,0.90
6563.00,0.90
6562.00,0.90
6561.00,0.90
6560.00,0.90
6559.00,0.90
6558.00,0.90
6557.00,0.90
6556.00,0.90
6555.00,0.90
6554.00,0.90
6553.00,0.90
6552.00,0.91
6551.00,0.91
6550.00,0.91
6549.00,0.91
6548.00,0.91
6547.00,0.91
6546.00,0.91
6545.00,0.91
6544.00,0.91
6543.00,0.91
6542.00,0.92
6541.00,0.92
6540.00,0.92
6539.00,0.92
6538.00,0.92
6537.00,0.92
6536.00,0.92
6535.00,0.92
6534.00,0.93
6533.00,0.93
6532.00,0.93
6531.00,0.93
6530.00,0.93
6529.00,0.93
6528.00,0.93
6527.00,0.93
6526.00,0.93
6525.00,0.93
6524.00,0.93
6523.00,0.93
6522.00,0.94
6521.00,0.94
6520.00,0.94
6519.00,0.94
6518.00,0.94
6517.00,0.94
6516.00,0.94
6515.00,0.94
6514.00,0.94
6513.00,0.94
6512.00,0.94
6511.00,0.94
6510.00,0.94
6509.00,0.95
6508.00,0.95
6507.00,0.95
6506.00,0.95
6505.00,0.95
6504.00,0.95
6503.00,0.95
6502.00,0.95
6501.00,0.95
6500.00,0.95
6499.00,0.95
6498.00,0.95
6497.00,0.95
6496.00,0.96
6495.00,0.96
6494.00,0.96
6493.00,0.96
6492.00,0.96
6491.00,0.96
6490.00,0.96
6489.00,0.96
6488.00,0.96
6487.00,0.96
6486.00,0.96
6485.00,0.96
6484.00,0.96
6483.00,0.96
6482.00,0.96
6481.00,0.96
6480.00,0.97
6479.00,0.97
6478.00,0.97
6477.00,0.97
6476.00,0.97
6475.00,0.97
6474.00,0.97
6473.00,0.97
6472.00,0.97
6471.00,0.97
6470.00,0.97
6469.00,0.97
6468.00,0.97
6467.00,0.97
6466.00,0.97
6465.00,0.98
6464.00,0.98
6463.00,0.98
6462.00,0.98
6461.00,0.98
6460.00,0.98
6459.00,0.98
6458.00,0.98
6457.00,0.98
6456.00,0.98
6455.00,0.98
6454.00,0.98
6453.00,0.98
6452.00,0.98
6451.00,0.98
6450.00,0.98
6449.00,0.98
6448.00,0.98
6447.00,0.98
6446.00,0.99
6445.00,0.99
6444.00,0.99
6443.00,0.99
6442.00,0.99
6441.00,0.99
6440.00,0.99
6439.00,0.99
6438.00,0.99
6437.00,0.99
6436.00,0.99
6435.00,0.99
6434.00,0.99
6433.00,0.99
6432.00,0.99
6431.00,0.99
6430.00,1.00
6429.00,1.00
6428.00,1.00
6427.00,1.00
6426.00,1.00
6425.00,1.00
6424.00,1.00
6423.00,1.00
6422.00,1.00
6421.00,1.00
6420.00,1.00
6419.00,1.00
6418.00,1.00
6417.00,1.00
6416.00,1.00
6415.00,1.00
6414.00,1.00
6413.00,1.00
6412.00,1.00
6411.00,1.00
6410.00,1.00
6409.00,1.01
6408.00,1.01
6407.00,1.01
6406.00,1.01
6405.00,1.01
6404.00,1.01
6403.00,1.01
6402.00,1.01
6401.00,1.01
6400.00,1.01
6399.00,1.01
6398.00,1.01
6397.00,1.01
6396.00,1.01
6395.00,1.01
6394.00,1.01
6393.00,1.01
6392.00,1.01
6391.00,1.01
6390.00,1.01
6389.00,1.01
6388.00,1.01
6387.00,1.01
6386.00,1.01
6385.00,1.01
6384.00,1.01
6383.00,1.01
6382.00,1.01
6381.00,1.01
6380.00,1.01
6379.00,1.02
6378.00,1.02
6377.00,1.02
6376.00,1.02
6375.00,1.02
6374.00,1.02
6373.00,1.02
6372.00,1.02
6371.00,1.02
6370.00,1.03
6369.00,1.03
6368.00,1.03
6367.00,1.03
6366.00,1.03
6365.00,1.03
6364.00,1.03
6363.00,1.04
6362.00,1.04
6361.00,1.04
6360.00,1.04
6359.00,1.04
6358.00,1.04
6357.00,1.04
6356.00,1.05
6355.00,1.05
6354.00,1.05
6353.00,1.05
6352.00,1.05
6351.00,1.05
6350.00,1.05
6349.00,1.05
6348.00,1.06
6347.00,1.06
6346.00,1.06
6345.00,1.06
6344.00,1.06
6343.00,1.06
6342.00,1.06
6341.00,1.06
6340.00,1.06
6339.00,1.06
6338.00,1.06
6337.00,1.07
6336.00,1.07
6335.00,1.07
6334.00,1.07
6333.00,1.07
6332.00,1.07
6331.00,1.07
6330.00,1.07
6329.00,1.07
6328.00,1.07
6327.00,1.07
6326.00,1.07
6325.00,1.07
6324.00,1.08
6323.00,1.08
6322.00,1.08
6321.00,1.08
6320.00,1.08
6319.00,1.08
6318.00,1.08
6317.00,1.08
6316.00,1.08
6315.00,1.08
6314.00,1.09
6313.00,1.09
6312.00,1.09
6311.00,1.09
6310.00,1.09
6309.00,1.09
6308.00,1.09
6307.00,1.09
6306.00,1.09
6305.00,1.09
6304.00,1.10
6303.00,1.10
6302.00,1.10
6301.00,1.10
6300.00,1.10
6299.00,1.10
6298.00,1.10
6297.00,1.10
6296.00,1.10
6295.00,1.10
6294.00,1.11
6293.00,1.11
6292.00,1.11
6291.00,1.11
6290.00,1.11
6289.00,1.11
6288.00,1.12
6287.00,1.12
6286.00,1.12
6285.00,1.12
6284.00,1.12
6283.00,1.12
6282.00,1.12
6281.00,1.12
6280.00,1.12
6279.00,1.13
6278.00,1.13
6277.00,1.13
6276.00,1.13
6275.00,1.13
6274.00,1.13
6273.00,1.13
6272.00,1.13
6271.00,1.13
6270.00,1.13
6269.00,1.13
6268.00,1.14
6267.00,1.14
6266.00,1.14
6265.00,1.14
6264.00,1.14
6263.00,1.14
6262.00,1.14
6261.00,1.15
6260.00,1.15
6259.00,1.15
6258.00,1.15
6257.00,1.15
6256.00,1.15
6255.00,1.15
6254.00,1.16
6253.00,1.16
6252.00,1.16
6251.00,1.16
6250.00,1.16
6249.00,1.16
6248.00,1.16
6247.00,1.16
6246.00,1.16
6245.00,1.17
6244.00,1.17
6243.00,1.17
6242.00,1.17
6241.00,1.17
6240.00,1.17
6239.00,1.17
6238.00,1.17
6237.00,1.17
6236.00,1.18
6235.00,1.18
6234.00,1.18
6233.00,1.18
6232.00,1.18
6231.00,1.18
6230.00,1.18
6229.00,1.18
6228.00,1.18
6227.00,1.19
6226.00,1.19
6225.00,1.19
6224.00,1.19
6223.00,1.19
6222.00,1.19
6221.00,1.19
6220.00,1.19
6219.00,1.20
6218.00,1.20
6217.00,1.20
6216.00,1.20
6215.00,1.20
6214.00,1.20
6213.00,1.21
6212.00,1.21
6211.00,1.21
6210.00,1.21
6209.00,1.21
6208.00,1.21
6207.00,1.21
6206.00,1.22
6205.00,1.22
6204.00,1.22
6203.00,1.22
6202.00,1.22
6201.00,1.22
6200.00,1.22
6199.00,1.23
6198.00,1.23
6197.00,1.23
6196.00,1.23
6195.00,1.23
6194.00,1.23
6193.00,1.23
6192.00,1.23
6191.00,1.24
6190.00,1.24
6189.00,1.24
6188.00,1.24
6187.00,1.24
6186.00,1.24
6185.00,1.24
6184.00,1.25
6183.00,1.25
6182.00,1.25
6181.00,1.25
6180.00,1.25
6179.00,1.25
6178.00,1.25
6177.00,1.25
6176.00,1.26
6175.00,1.26
6174.00,1.26
6173.00,1.26
6172.00,1.26
6171.00,1.26
6170.00,1.26
6169.00,1.26
6168.00,1.27
6167.00,1.27
6166.00,1.27
6165.00,1.27
6164.00,1.27
6163.00,1.27
6162.00,1.28
6161.00,1.28
6160.00,1.28
6159.00,1.28
6158.00,1.28
6157.00,1.28
6156.00,1.28
6155.00,1.28
6154.00,1.28
6153.00,1.29
6152.00,1.29
6151.00,1.29
6150.00,1.29
6149.00,1.29
6148.00,1.29
6147.00,1.29
6146.00,1.30
6145.00,1.30
6144.00,1.30
6143.00,1.30
6142.00,1.30
6141.00,1.31
6140.00,1.31
6139.00,1.31
6138.00,1.31
6137.00,1.31
6136.00,1.32
6135.00,1.32
6134.00,1.32
6133.00,1.32
6132.00,1.33
6131.00,1.33
6130.00,1.33
6129.00,1.33
6128.00,1.33
6127.00,1.33
6126.00,1.34
6125.00,1.34
6124.00,1.34
6123.00,1.34
6122.00,1.34
6121.00,1.34
6120.00,1.34
6119.00,1.34
6118.00,1.34
6117.00,1.35
6116.00,1.35
6115.00,1.35
6114.00,1.35
6113.00,1.35
6112.00,1.35
6111.00,1.35
6110.00,1.35
6109.00,1.36
6108.00,1.36
6107.00,1.36
6106.00,1.36
6105.00,1.36
6104.00,1.36
6103.00,1.36
6102.00,1.37
6101.00,1.37
6100.00,1.37
6099.00,1.37
6098.00,1.37
6097.00,1.37
6096.00,1.38
6095.00,1.38
6094.00,1.38
6093.00,1.38
6092.00,1.38
6091.00,1.39
6090.00,1.39
6089.00,1.39
6088.00,1.39
6087.00,1.39
6086.00,1.39
6085.00,1.39
6084.00,1.40
6083.00,1.40
6082.00,1.40
6081.00,1.40
6080.00,1.40
6079.00,1.40
6078.00,1.40
6077.00,1.40
6076.00,1.40
6075.00,1.40
6074.00,1.41
6073.00,1.41
6072.00,1.41
6071.00,1.41
6070.00,1.41
6069.00,1.41
6068.00,1.41
6067.00,1.41
6066.00,1.41
6065.00,1.41
6064.00,1.42
6063.00,1.42
6062.00,1.42
6061.00,1.42
6060.00,1.42
6059.00,1.42
6058.00,1.42
6057.00,1.42
6056.00,1.43
6055.00,1.43
6054.00,1.43
6053.00,1.43
6052.00,1.43
6051.00,1.43
6050.00,1.43
6049.00,1.43
6048.00,1.43
6047.00,1.43
6046.00,1.43
6045.00,1.43
6044.00,1.43
6043.00,1.43
6042.00,1.43
6041.00,1.43
6040.00,1.44
6039.00,1.44
6038.00,1.44
6037.00,1.44
6036.00,1.44
6035.00,1.44
6034.00,1.44
6033.00,1.44
6032.00,1.44
6031.00,1.44
6030.00,1.44
6029.00,1.44
6028.00,1.44
6027.00,1.44
6026.00,1.44
6025.00,1.44
6024.00,1.44
6023.00,1.44
6022.00,1.44
6021.00,1.44
6020.00,1.44
6019.00,1.44
6018.00,1.44
6017.00,1.44
6016.00,1.44
6015.00,1.44
6014.00,1.44
6013.00,1.44
6012.00,1.44
6011.00,1.44
6010.00,1.44
6009.00,1.44
6008.00,1.44
6007.00,1.44
6006.00,1.44
6005.00,1.44
6004.00,1.44
6003.00,1.44
6002.00,1.44
6001.00,1.44
6000.00,1.44
5999.00,1.44
5998.00,1.43
5997.00,1.43
5996.00,1.43
5995.00,1.43
5994.00,1.43
5993.00,1.43
5992.00,1.42
5991.00,1.42
5990.00,1.42
5989.00,1.42
5988.00,1.42
5987.00,1.41
5986.00,1.41
5985.00,1.41
5984.00,1.40
5983.00,1.40
5982.00,1.40
5981.00,1.40
5980.00,1.39
5979.00,1.39
5978.00,1.39
5977.00,1.38
5976.00,1.38
5975.00,1.37
5974.00,1.37
5973.00,1.36
5972.00,1.36
5971.00,1.35
5970.00,1.35
5969.00,1.34
5968.00,1.34
5967.00,1.33
5966.00,1.32
5965.00,1.32
5964.00,1.31
5963.00,1.30
5962.00,1.30
5961.00,1.29
5960.00,1.28
5959.00,1.27
5958.00,1.27
5957.00,1.26
5956.00,1.25
5955.00,1.25
5954.00,1.24
5953.00,1.23
5952.00,1.23
5951.00,1.22
5950.00,1.22
5949.00,1.21
5948.00,1.20
5947.00,1.20
5946.00,1.20
5945.00,1.19
5944.00,1.19
5943.00,1.19
5942.00,1.18
5941.00,1.18
5940.00,1.18
5939.00,1.18
5938.00,1.17
5937.00,1.17
5936.00,1.17
5935.00,1.17
5934.00,1.17
5933.00,1.17
5932.00,1.17
5931.00,1.17
5930.00,1.16
5929.00,1.16
5928.00,1.16
5927.00,1.16
5926.00,1.16
5925.00,1.16
5924.00,1.15
5923.00,1.15
5922.00,1.15
5921.00,1.15
5920.00,1.14
5919.00,1.14
5918.00,1.14
5917.00,1.14
5916.00,1.13
5915.00,1.13
5914.00,1.13
5913.00,1.12
5912.00,1.12
5911.00,1.12
5910.00,1.12
5909.00,1.11
5908.00,1.11
5907.00,1.11
5906.00,1.11
5905.00,1.11
5904.00,1.11
5903.00,1.10
5902.00,1.10
5901.00,1.10
5900.00,1.10
5899.00,1.11
5898.00,1.11
5897.00,1.11
5896.00,1.11
5895.00,1.11
5894.00,1.11
5893.00,1.11
5892.00,1.12
5891.00,1.12
5890.00,1.12
5889.00,1.13
5888.00,1.13
5887.00,1.13
5886.00,1.14
5885.00,1.14
5884.00,1.14
5883.00,1.15
5882.00,1.15
5881.00,1.15
5880.00,1.16
5879.00,1.16
5878.00,1.16
5877.00,1.17
5876.00,1.17
5875.00,1.17
5874.00,1.17
5873.00,1.18
5872.00,1.18
5871.00,1.18
5870.00,1.18
5869.00,1.19
5868.00,1.19
5867.00,1.19
5866.00,1.19
5865.00,1.19
5864.00,1.19
5863.00,1.20
5862.00,1.20
5861.00,1.20
5860.00,1.20
5859.00,1.20
5858.00,1.20
5857.00,1.20
5856.00,1.21
5855.00,1.21
5854.00,1.21
5853.00,1.21
5852.00,1.21
5851.00,1.21
5850.00,1.21
5849.00,1.21
5848.00,1.22
5847.00,1.22
5846.00,1.22
5845.00,1.22
5844.00,1.22
5843.00,1.22
5842.00,1.22
5841.00,1.22
5840.00,1.22
5839.00,1.22
5838.00,1.22
5837.00,1.22
5836.00,1.22
5835.00,1.22
5834.00,1.22
5833.00,1.22
5832.00,1.22
5831.00,1.22
5830.00,1.21
5829.00,1.21
5828.00,1.21
5827.00,1.21
5826.00,1.21
5825.00,1.21
5824.00,1.21
5823.00,1.21
5822.00,1.21
5821.00,1.21
5820.00,1.21
5819.00,1.22
5818.00,1.22
5817.00,1.22
5816.00,1.22
5815.00,1.22
5814.00,1.22
5813.00,1.22
5812.00,1.22
5811.00,1.22
5810.00,1.22
5809.00,1.22
5808.00,1.22
5807.00,1.22
5806.00,1.22
5805.00,1.21
5804.00,1.21
5803.00,1.21
5802.00,1.21
5801.00,1.21
5800.00,1.21
5799.00,1.20
5798.00,1.20
5797.00,1.20
5796.00,1.20
5795.00,1.19
5794.00,1.19
5793.00,1.19
5792.00,1.19
5791.00,1.18
5790.00,1.18
5789.00,1.18
5788.00,1.18
5787.00,1.17
5786.00,1.17
5785.00,1.17
5784.00,1.17
5783.00,1.17
5782.00,1.17
5781.00,1.17
5780.00,1.17
5779.00,1.17
5778.00,1.17
5777.00,1.17
5776.00,1.17
5775.00,1.17
5774.00,1.16
5773.00,1.17
5772.00,1.17
5771.00,1.17
5770.00,1.17
5769.00,1.17
5768.00,1.17
5767.00,1.17
5766.00,1.17
5765.00,1.17
5764.00,1.17
5763.00,1.17
5762.00,1.17
5761.00,1.18
5760.00,1.18
5759.00,1.18
5758.00,1.18
5757.00,1.19
5756.00,1.19
5755.00,1.19
5754.00,1.20
5753.00,1.20
5752.00,1.20
5751.00,1.21
5750.00,1.21
5749.00,1.22
5748.00,1.22
5747.00,1.22
5746.00,1.23
5745.00,1.23
5744.00,1.24
5743.00,1.24
5742.00,1.24
5741.00,1.25
5740.00,1.25
5739.00,1.25
5738.00,1.25
5737.00,1.26
5736.00,1.26
5735.00,1.26
5734.00,1.26
5733.00,1.27
5732.00,1.27
5731.00,1.27
5730.00,1.27
5729.00,1.27
5728.00,1.27
5727.00,1.28
5726.00,1.28
5725.00,1.28
5724.00,1.28
5723.00,1.28
5722.00,1.28
5721.00,1.28
5720.00,1.28
5719.00,1.28
5718.00,1.28
5717.00,1.28
5716.00,1.28
5715.00,1.28
5714.00,1.28
5713.00,1.28
5712.00,1.28
5711.00,1.28
5710.00,1.28
5709.00,1.28
5708.00,1.28
5707.00,1.28
5706.00,1.28
5705.00,1.28
5704.00,1.27
5703.00,1.27
5702.00,1.27
5701.00,1.27
5700.00,1.27
5699.00,1.27
5698.00,1.27
5697.00,1.27
5696.00,1.26
5695.00,1.26
5694.00,1.26
5693.00,1.26
5692.00,1.26
5691.00,1.26
5690.00,1.26
5689.00,1.25
5688.00,1.25
5687.00,1.25
5686.00,1.25
5685.00,1.25
5684.00,1.25
5683.00,1.25
5682.00,1.24
5681.00,1.24
5680.00,1.24
5679.00,1.24
5678.00,1.24
5677.00,1.24
5676.00,1.24
5675.00,1.24
5674.00,1.24
5673.00,1.24
5672.00,1.24
5671.00,1.24
5670.00,1.24
5669.00,1.24
5668.00,1.24
5667.00,1.24
5666.00,1.25
5665.00,1.25
5664.00,1.25
5663.00,1.25
5662.00,1.25
5661.00,1.25
5660.00,1.26
5659.00,1.26
5658.00,1.26
5657.00,1.26
5656.00,1.26
5655.00,1.26
5654.00,1.26
5653.00,1.27
5652.00,1.27
5651.00,1.27
5650.00,1.27
5649.00,1.27
5648.00,1.28
5647.00,1.28
5646.00,1.28
5645.00,1.28
5644.00,1.29
5643.00,1.29
5642.00,1.29
5641.00,1.29
5640.00,1.30
5639.00,1.30
5638.00,1.30
5637.00,1.30
5636.00,1.30
5635.00,1.31
5634.00,1.31
5633.00,1.31
5632.00,1.31
5631.00,1.31
5630.00,1.31
5629.00,1.31
5628.00,1.32
5627.00,1.32
5626.00,1.32
5625.00,1.32
5624.00,1.32
5623.00,1.32
5622.00,1.32
5621.00,1.33
5620.00,1.33
5619.00,1.33
5618.00,1.33
5617.00,1.33
5616.00,1.33
5615.00,1.34
5614.00,1.34
5613.00,1.34
5612.00,1.34
5611.00,1.34
5610.00,1.35
5609.00,1.35
5608.00,1.35
5607.00,1.35
5606.00,1.35
5605.00,1.35
5604.00,1.36
5603.00,1.36
5602.00,1.36
5601.00,1.36
5600.00,1.36
5599.00,1.36
5598.00,1.36
5597.00,1.37
5596.00,1.37
5595.00,1.37
5594.00,1.37
5593.00,1.37
5592.00,1.37
5591.00,1.38
5590.00,1.38
5589.00,1.38
5588.00,1.38
5587.00,1.38
5586.00,1.38
5585.00,1.39
5584.00,1.39
5583.00,1.39
5582.00,1.39
5581.00,1.39
5580.00,1.40
5579.00,1.40
5578.00,1.40
5577.00,1.40
5576.00,1.40
5575.00,1.40
5574.00,1.40
5573.00,1.41
5572.00,1.41
5571.00,1.41
5570.00,1.41
5569.00,1.41
5568.00,1.41
5567.00,1.41
5566.00,1.41
5565.00,1.41
5564.00,1.42
5563.00,1.42
5562.00,1.42
5561.00,1.42
5560.00,1.42
5559.00,1.42
5558.00,1.42
5557.00,1.42
5556.00,1.42
5555.00,1.43
5554.00,1.43
5553.00,1.43
5552.00,1.43
5551.00,1.43
5550.00,1.43
5549.00,1.43
5548.00,1.43
5547.00,1.44
5546.00,1.44
5545.00,1.44
5544.00,1.44
5543.00,1.44
5542.00,1.44
5541.00,1.45
5540.00,1.45
5539.00,1.45
5538.00,1.45
5537.00,1.45
5536.00,1.45
5535.00,1.45
5534.00,1.46
5533.00,1.46
5532.00,1.46
5531.00,1.46
5530.00,1.46
5529.00,1.46
5528.00,1.46
5527.00,1.46
5526.00,1.46
5525.00,1.46
5524.00,1.46
5523.00,1.46
5522.00,1.46
5521.00,1.46
5520.00,1.46
5519.00,1.46
5518.00,1.46
5517.00,1.46
5516.00,1.47
5515.00,1.47
5514.00,1.47
5513.00,1.47
5512.00,1.47
5511.00,1.47
5510.00,1.47
5509.00,1.47
5508.00,1.47
5507.00,1.47
5506.00,1.47
5505.00,1.47
5504.00,1.47
5503.00,1.47
5502.00,1.47
5501.00,1.47
5500.00,1.48
5499.00,1.48
5498.00,1.48
5497.00,1.48
5496.00,1.48
5495.00,1.48
5494.00,1.48
5493.00,1.48
5492.00,1.48
5491.00,1.49
5490.00,1.49
5489.00,1.49
5488.00,1.49
5487.00,1.49
5486.00,1.49
5485.00,1.49
5484.00,1.49
5483.00,1.50
5482.00,1.50
5481.00,1.50
5480.00,1.50
5479.00,1.50
5478.00,1.50
5477.00,1.50
5476.00,1.50
5475.00,1.51
5474.00,1.51
5473.00,1.51
5472.00,1.51
5471.00,1.51
5470.00,1.51
5469.00,1.51
5468.00,1.52
5467.00,1.52
5466.00,1.52
5465.00,1.52
5464.00,1.52
5463.00,1.52
5462.00,1.52
5461.00,1.52
5460.00,1.52
5459.00,1.52
5458.00,1.52
5457.00,1.52
5456.00,1.52
5455.00,1.52
5454.00,1.52
5453.00,1.52
5452.00,1.52
5451.00,1.52
5450.00,1.52
5449.00,1.52
5448.00,1.52
5447.00,1.52
5446.00,1.53
5445.00,1.53
5444.00,1.53
5443.00,1.53
5442.00,1.53
5441.00,1.53
5440.00,1.53
5439.00,1.53
5438.00,1.53
5437.00,1.53
5436.00,1.53
5435.00,1.53
5434.00,1.53
5433.00,1.53
5432.00,1.53
5431.00,1.54
5430.00,1.54
5429.00,1.54
5428.00,1.54
5427.00,1.54
5426.00,1.54
5425.00,1.54
5424.00,1.54
5423.00,1.54
5422.00,1.54
5421.00,1.54
5420.00,1.54
5419.00,1.54
5418.00,1.54
5417.00,1.54
5416.00,1.54
5415.00,1.54
5414.00,1.54
5413.00,1.54
5412.00,1.54
5411.00,1.54
5410.00,1.54
5409.00,1.54
5408.00,1.54
5407.00,1.54
5406.00,1.54
5405.00,1.54
5404.00,1.54
5403.00,1.54
5402.00,1.54
5401.00,1.54
5400.00,1.54
5399.00,1.54
5398.00,1.54
5397.00,1.53
5396.00,1.53
5395.00,1.53
5394.00,1.53
5393.00,1.53
5392.00,1.53
5391.00,1.53
5390.00,1.53
5389.00,1.53
5388.00,1.52
5387.00,1.52
5386.00,1.52
5385.00,1.52
5384.00,1.51
5383.00,1.51
5382.00,1.51
5381.00,1.50
5380.00,1.50
5379.00,1.50
5378.00,1.49
5377.00,1.49
5376.00,1.49
5375.00,1.48
5374.00,1.48
5373.00,1.47
5372.00,1.47
5371.00,1.47
5370.00,1.46
5369.00,1.46
5368.00,1.45
5367.00,1.45
5366.00,1.44
5365.00,1.43
5364.00,1.43
5363.00,1.42
5362.00,1.42
5361.00,1.41
5360.00,1.40
5359.00,1.40
5358.00,1.39
5357.00,1.38
5356.00,1.37
5355.00,1.37
5354.00,1.36
5353.00,1.35
5352.00,1.34
5351.00,1.33
5350.00,1.32
5349.00,1.31
5348.00,1.30
5347.00,1.29
5346.00,1.28
5345.00,1.27
5344.00,1.26
5343.00,1.25
5342.00,1.24
5341.00,1.23
5340.00,1.22
5339.00,1.21
5338.00,1.20
5337.00,1.19
5336.00,1.18
5335.00,1.17
5334.00,1.16
5333.00,1.15
5332.00,1.14
5331.00,1.13
5330.00,1.12
5329.00,1.11
5328.00,1.09
5327.00,1.08
5326.00,1.07
5325.00,1.06
5324.00,1.05
5323.00,1.04
5322.00,1.03
5321.00,1.02
5320.00,1.01
5319.00,1.00
5318.00,0.99
5317.00,0.98
5316.00,0.97
5315.00,0.96
5314.00,0.96
5313.00,0.95
5312.00,0.94
5311.00,0.93
5310.00,0.92
5309.00,0.91
5308.00,0.91
5307.00,0.90
5306.00,0.89
5305.00,0.89
5304.00,0.88
5303.00,0.87
5302.00,0.87
5301.00,0.86
5300.00,0.86
5299.00,0.85
5298.00,0.85
5297.00,0.84
5296.00,0.84
5295.00,0.84
5294.00,0.83
5293.00,0.83
5292.00,0.82
5291.00,0.82
5290.00,0.82
5289.00,0.81
5288.00,0.81
5287.00,0.81
5286.00,0.80
5285.00,0.80
5284.00,0.80
5283.00,0.80
5282.00,0.80
5281.00,0.79
5280.00,0.79
5279.00,0.79
5278.00,0.79
5277.00,0.79
5276.00,0.79
5275.00,0.79
5274.00,0.79
5273.00,0.79
5272.00,0.79
5271.00,0.79
5270.00,0.79
5269.00,0.79
5268.00,0.79
5267.00,0.79
5266.00,0.79
5265.00,0.78
5264.00,0.78
5263.00,0.78
5262.00,0.78
5261.00,0.78
5260.00,0.78
5259.00,0.78
5258.00,0.78
5257.00,0.78
5256.00,0.78
5255.00,0.77
5254.00,0.77
5253.00,0.77
5252.00,0.77
5251.00,0.77
5250.00,0.77
5249.00,0.77
5248.00,0.77
5247.00,0.77
5246.00,0.77
5245.00,0.77
5244.00,0.77
5243.00,0.77
5242.00,0.77
5241.00,0.77
5240.00,0.77
5239.00,0.77
5238.00,0.77
5237.00,0.77
5236.00,0.78
5235.00,0.78
5234.00,0.78
5233.00,0.78
5232.00,0.78
5231.00,0.78
5230.00,0.78
5229.00,0.78
5228.00,0.78
5227.00,0.78
5226.00,0.78
5225.00,0.78
5224.00,0.78
5223.00,0.78
5222.00,0.78
5221.00,0.78
5220.00,0.78
5219.00,0.78
5218.00,0.78
5217.00,0.78
5216.00,0.78
5215.00,0.78
5214.00,0.78
5213.00,0.78
5212.00,0.78
5211.00,0.78
5210.00,0.78
5209.00,0.78
5208.00,0.78
5207.00,0.78
5206.00,0.78
5205.00,0.79
5204.00,0.79
5203.00,0.79
5202.00,0.79
5201.00,0.79
5200.00,0.79
5199.00,0.79
5198.00,0.79
5197.00,0.79
5196.00,0.79
5195.00,0.79
5194.00,0.79
5193.00,0.80
5192.00,0.80
5191.00,0.80
5190.00,0.80
5189.00,0.80
5188.00,0.80
5187.00,0.80
5186.00,0.80
5185.00,0.80
5184.00,0.80
5183.00,0.80
5182.00,0.80
5181.00,0.80
5180.00,0.80
5179.00,0.80
5178.00,0.80
5177.00,0.80
5176.00,0.80
5175.00,0.80
5174.00,0.80
5173.00,0.80
5172.00,0.80
5171.00,0.80
5170.00,0.80
5169.00,0.80
5168.00,0.80
5167.00,0.80
5166.00,0.81
5165.00,0.81
5164.00,0.81
5163.00,0.81
5162.00,0.81
5161.00,0.81
5160.00,0.81
5159.00,0.81
5158.00,0.81
5157.00,0.81
5156.00,0.81
5155.00,0.81
5154.00,0.81
5153.00,0.81
5152.00,0.82
5151.00,0.82
5150.00,0.82
5149.00,0.82
5148.00,0.82
5147.00,0.82
5146.00,0.82
5145.00,0.82
5144.00,0.82
5143.00,0.82
5142.00,0.82
5141.00,0.82
5140.00,0.82
5139.00,0.82
5138.00,0.82
5137.00,0.82
5136.00,0.82
5135.00,0.82
5134.00,0.82
5133.00,0.82
5132.00,0.82
5131.00,0.82
5130.00,0.82
5129.00,0.83
5128.00,0.83
5127.00,0.83
5126.00,0.83
5125.00,0.83
5124.00,0.83
5123.00,0.83
5122.00,0.83
5121.00,0.83
5120.00,0.83
5119.00,0.84
5118.00,0.84
5117.00,0.84
5116.00,0.84
5115.00,0.84
5114.00,0.84
5113.00,0.84
5112.00,0.84
5111.00,0.84
5110.00,0.84
5109.00,0.84
5108.00,0.84
5107.00,0.85
5106.00,0.85
5105.00,0.85
5104.00,0.85
5103.00,0.85
5102.00,0.85
5101.00,0.85
5100.00,0.85
5099.00,0.85
5098.00,0.85
5097.00,0.85
5096.00,0.85
5095.00,0.85
5094.00,0.85
5093.00,0.85
5092.00,0.85
5091.00,0.85
5090.00,0.85
5089.00,0.85
5088.00,0.85
5087.00,0.85
5086.00,0.85
5085.00,0.85
5084.00,0.85
5083.00,0.85
5082.00,0.85
5081.00,0.86
5080.00,0.86
5079.00,0.86
5078.00,0.86
5077.00,0.86
5076.00,0.86
5075.00,0.86
5074.00,0.86
5073.00,0.86
5072.00,0.86
5071.00,0.86
5070.00,0.86
5069.00,0.87
5068.00,0.87
5067.00,0.87
5066.00,0.87
5065.00,0.87
5064.00,0.87
5063.00,0.87
5062.00,0.87
5061.00,0.87
5060.00,0.87
5059.00,0.87
5058.00,0.87
5057.00,0.87
5056.00,0.87
5055.00,0.87
5054.00,0.87
5053.00,0.87
5052.00,0.87
5051.00,0.87
5050.00,0.87
5049.00,0.88
5048.00,0.88
5047.00,0.88
5046.00,0.88
5045.00,0.88
5044.00,0.88
5043.00,0.88
5042.00,0.88
5041.00,0.88
5040.00,0.88
5039.00,0.88
5038.00,0.89
5037.00,0.89
5036.00,0.89
5035.00,0.89
5034.00,0.89
5033.00,0.89
5032.00,0.89
5031.00,0.89
5030.00,0.89
5029.00,0.89
5028.00,0.89
5027.00,0.89
5026.00,0.90
5025.00,0.90
5024.00,0.90
5023.00,0.90
5022.00,0.90
5021.00,0.90
5020.00,0.90
5019.00,0.90
5018.00,0.90
5017.00,0.90
5016.00,0.90
5015.00,0.90
5014.00,0.90
5013.00,0.90
5012.00,0.90
5011.00,0.91
5010.00,0.91
5009.00,0.91
5008.00,0.91
5007.00,0.91
5006.00,0.91
5005.00,0.91
5004.00,0.91
5003.00,0.91
5002.00,0.91
5001.00,0.92
5000.00,0.92
4999.00,0.92
4998.00,0.92
4997.00,0.92
4996.00,0.92
4995.00,0.92
4994.00,0.93
4993.00,0.93
4992.00,0.93
4991.00,0.93
4990.00,0.93
4989.00,0.93
4988.00,0.94
4987.00,0.94
4986.00,0.94
4985.00,0.94
4984.00,0.94
4983.00,0.94
4982.00,0.94
4981.00,0.94
4980.00,0.94
4979.00,0.95
4978.00,0.95
4977.00,0.95
4976.00,0.95
4975.00,0.95
4974.00,0.95
4973.00,0.95
4972.00,0.95
4971.00,0.95
4970.00,0.95
4969.00,0.95
4968.00,0.95
4967.00,0.95
4966.00,0.95
4965.00,0.96
4964.00,0.96
4963.00,0.96
4962.00,0.96
4961.00,0.96
4960.00,0.96
4959.00,0.96
4958.00,0.96
4957.00,0.96
4956.00,0.96
4955.00,0.96
4954.00,0.96
4953.00,0.96
4952.00,0.96
4951.00,0.96
4950.00,0.96
4949.00,0.96
4948.00,0.96
4947.00,0.96
4946.00,0.97
4945.00,0.97
4944.00,0.97
4943.00,0.97
4942.00,0.97
4941.00,0.97
4940.00,0.97
4939.00,0.97
4938.00,0.97
4937.00,0.97
4936.00,0.98
4935.00,0.98
4934.00,0.98
4933.00,0.98
4932.00,0.98
4931.00,0.98
4930.00,0.98
4929.00,0.98
4928.00,0.98
4927.00,0.99
4926.00,0.99
4925.00,0.99
4924.00,0.99
4923.00,0.99
4922.00,0.99
4921.00,0.99
4920.00,0.99
4919.00,0.99
4918.00,0.99
4917.00,0.99
4916.00,0.99
4915.00,0.99
4914.00,0.99
4913.00,0.99
4912.00,0.99
4911.00,0.99
4910.00,1.00
4909.00,1.00
4908.00,1.00
4907.00,1.00
4906.00,1.00
4905.00,1.00
4904.00,1.00
4903.00,1.00
4902.00,1.00
4901.00,1.00
4900.00,1.00
4899.00,1.00
4898.00,1.00
4897.00,1.01
4896.00,1.01
4895.00,1.01
4894.00,1.01
4893.00,1.01
4892.00,1.01
4891.00,1.01
4890.00,1.01
4889.00,1.01
4888.00,1.01
4887.00,1.01
4886.00,1.01
4885.00,1.01
4884.00,1.01
4883.00,1.01
4882.00,1.01
4881.00,1.01
4880.00,1.01
4879.00,1.01
4878.00,1.01
4877.00,1.02
4876.00,1.02
4875.00,1.02
4874.00,1.02
4873.00,1.02
4872.00,1.02
4871.00,1.02
4870.00,1.02
4869.00,1.02
4868.00,1.02
4867.00,1.02
4866.00,1.02
4865.00,1.02
4864.00,1.02
4863.00,1.02
4862.00,1.02
4861.00,1.02
4860.00,1.02
4859.00,1.02
4858.00,1.03
4857.00,1.03
4856.00,1.03
4855.00,1.03
4854.00,1.03
4853.00,1.03
4852.00,1.03
4851.00,1.03
4850.00,1.03
4849.00,1.03
4848.00,1.03
4847.00,1.04
4846.00,1.04
4845.00,1.04
4844.00,1.04
4843.00,1.04
4842.00,1.04
4841.00,1.04
4840.00,1.05
4839.00,1.05
4838.00,1.05
4837.00,1.05
4836.00,1.05
4835.00,1.05
4834.00,1.05
4833.00,1.06
4832.00,1.06
4831.00,1.06
4830.00,1.06
4829.00,1.06
4828.00,1.06
4827.00,1.06
4826.00,1.06
4825.00,1.06
4824.00,1.06
4823.00,1.06
4822.00,1.06
4821.00,1.06
4820.00,1.06
4819.00,1.06
4818.00,1.06
4817.00,1.06
4816.00,1.06
4815.00,1.06
4814.00,1.06
4813.00,1.06
4812.00,1.06
4811.00,1.06
4810.00,1.06
4809.00,1.07
4808.00,1.07
4807.00,1.07
4806.00,1.07
4805.00,1.07
4804.00,1.07
4803.00,1.07
4802.00,1.07
4801.00,1.08
4800.00,1.08
4799.00,1.08
4798.00,1.08
4797.00,1.08
4796.00,1.08
4795.00,1.09
4794.00,1.09
4793.00,1.09
4792.00,1.09
4791.00,1.09
4790.00,1.09
4789.00,1.10
4788.00,1.10
4787.00,1.10
4786.00,1.10
4785.00,1.10
4784.00,1.10
4783.00,1.11
4782.00,1.11
4781.00,1.11
4780.00,1.11
4779.00,1.11
4778.00,1.11
4777.00,1.11
4776.00,1.12
4775.00,1.12
4774.00,1.12
4773.00,1.12
4772.00,1.12
4771.00,1.12
4770.00,1.12
4769.00,1.12
4768.00,1.12
4767.00,1.12
4766.00,1.12
4765.00,1.13
4764.00,1.13
4763.00,1.13
4762.00,1.13
4761.00,1.13
4760.00,1.13
4759.00,1.13
4758.00,1.13
4757.00,1.14
4756.00,1.14
4755.00,1.14
4754.00,1.14
4753.00,1.15
4752.00,1.15
4751.00,1.15
4750.00,1.15
4749.00,1.15
4748.00,1.16
4747.00,1.16
4746.00,1.16
4745.00,1.16
4744.00,1.16
4743.00,1.16
4742.00,1.16
4741.00,1.16
4740.00,1.16
4739.00,1.16
4738.00,1.17
4737.00,1.17
4736.00,1.17
4735.00,1.17
4734.00,1.17
4733.00,1.17
4732.00,1.17
4731.00,1.17
4730.00,1.17
4729.00,1.18
4728.00,1.18
4727.00,1.18
4726.00,1.18
4725.00,1.18
4724.00,1.19
4723.00,1.19
4722.00,1.19
4721.00,1.19
4720.00,1.20
4719.00,1.20
4718.00,1.20
4717.00,1.20
4716.00,1.21
4715.00,1.21
4714.00,1.21
4713.00,1.21
4712.00,1.21
4711.00,1.21
4710.00,1.21
4709.00,1.22
4708.00,1.22
4707.00,1.22
4706.00,1.22
4705.00,1.22
4704.00,1.22
4703.00,1.22
4702.00,1.22
4701.00,1.22
4700.00,1.22
4699.00,1.23
4698.00,1.23
4697.00,1.23
4696.00,1.23
4695.00,1.23
4694.00,1.23
4693.00,1.23
4692.00,1.23
4691.00,1.23
4690.00,1.24
4689.00,1.24
4688.00,1.24
4687.00,1.24
4686.00,1.24
4685.00,1.25
4684.00,1.25
4683.00,1.25
4682.00,1.25
4681.00,1.25
4680.00,1.25
4679.00,1.26
4678.00,1.26
4677.00,1.26
4676.00,1.26
4675.00,1.26
4674.00,1.27
4673.00,1.27
4672.00,1.27
4671.00,1.27
4670.00,1.28
4669.00,1.28
4668.00,1.28
4667.00,1.28
4666.00,1.29
4665.00,1.29
4664.00,1.29
4663.00,1.30
4662.00,1.30
4661.00,1.30
4660.00,1.30
4659.00,1.31
4658.00,1.31
4657.00,1.31
4656.00,1.31
4655.00,1.32
4654.00,1.32
4653.00,1.32
4652.00,1.32
4651.00,1.32
4650.00,1.32
4649.00,1.32
4648.00,1.32
4647.00,1.32
4646.00,1.32
4645.00,1.32
4644.00,1.32
4643.00,1.32
4642.00,1.32
4641.00,1.32
4640.00,1.32
4639.00,1.32
4638.00,1.32
4637.00,1.32
4636.00,1.32
4635.00,1.32
4634.00,1.32
4633.00,1.32
4632.00,1.33
4631.00,1.33
4630.00,1.33
4629.00,1.33
4628.00,1.33
4627.00,1.33
4626.00,1.34
4625.00,1.34
4624.00,1.34
4623.00,1.34
4622.00,1.34
4621.00,1.34
4620.00,1.35
4619.00,1.35
4618.00,1.35
4617.00,1.35
4616.00,1.35
4615.00,1.35
4614.00,1.35
4613.00,1.35
4612.00,1.35
4611.00,1.35
4610.00,1.35
4609.00,1.35
4608.00,1.35
4607.00,1.35
4606.00,1.35
4605.00,1.35
4604.00,1.35
4603.00,1.35
4602.00,1.35
4601.00,1.35
4600.00,1.35
4599.00,1.36
4598.00,1.36
4597.00,1.36
4596.00,1.36
4595.00,1.36
4594.00,1.36
4593.00,1.36
4592.00,1.37
4591.00,1.37
4590.00,1.37
4589.00,1.37
4588.00,1.37
4587.00,1.37
4586.00,1.37
4585.00,1.37
4584.00,1.38
4583.00,1.38
4582.00,1.38
4581.00,1.38
4580.00,1.38
4579.00,1.38
4578.00,1.38
4577.00,1.38
4576.00,1.38
4575.00,1.38
4574.00,1.38
4573.00,1.38
4572.00,1.38
4571.00,1.39
4570.00,1.39
4569.00,1.39
4568.00,1.39
4567.00,1.39
4566.00,1.39
4565.00,1.39
4564.00,1.40
4563.00,1.40
4562.00,1.40
4561.00,1.40
4560.00,1.40
4559.00,1.40
4558.00,1.41
4557.00,1.41
4556.00,1.41
4555.00,1.41
4554.00,1.41
4553.00,1.41
4552.00,1.42
4551.00,1.42
4550.00,1.42
4549.00,1.42
4548.00,1.42
4547.00,1.42
4546.00,1.42
4545.00,1.42
4544.00,1.42
4543.00,1.42
4542.00,1.42
4541.00,1.42
4540.00,1.42
4539.00,1.42
4538.00,1.42
4537.00,1.42
4536.00,1.42
4535.00,1.42
4534.00,1.42
4533.00,1.42
4532.00,1.42
4531.00,1.42
4530.00,1.42
4529.00,1.43
4528.00,1.43
4527.00,1.43
4526.00,1.43
4525.00,1.43
4524.00,1.43
4523.00,1.43
4522.00,1.43
4521.00,1.44
4520.00,1.44
4519.00,1.44
4518.00,1.44
4517.00,1.44
4516.00,1.44
4515.00,1.44
4514.00,1.44
4513.00,1.44
4512.00,1.44
4511.00,1.44
4510.00,1.44
4509.00,1.44
4508.00,1.44
4507.00,1.44
4506.00,1.44
4505.00,1.44
4504.00,1.44
4503.00,1.44
4502.00,1.44
4501.00,1.44
4500.00,1.44
4499.00,1.44
4498.00,1.44
4497.00,1.44
4496.00,1.44
4495.00,1.44
4494.00,1.44
4493.00,1.43
4492.00,1.43
4491.00,1.43
4490.00,1.43
4489.00,1.43
4488.00,1.43
4487.00,1.42
4486.00,1.42
4485.00,1.42
4484.00,1.42
4483.00,1.42
4482.00,1.42
4481.00,1.42
4480.00,1.41
4479.00,1.41
4478.00,1.41
4477.00,1.41
4476.00,1.41
4475.00,1.41
4474.00,1.40
4473.00,1.40
4472.00,1.40
4471.00,1.40
4470.00,1.40
4469.00,1.39
4468.00,1.39
4467.00,1.39
4466.00,1.39
4465.00,1.38
4464.00,1.38
4463.00,1.38
4462.00,1.37
4461.00,1.37
4460.00,1.36
4459.00,1.36
4458.00,1.36
4457.00,1.35
4456.00,1.35
4455.00,1.34
4454.00,1.34
4453.00,1.34
4452.00,1.33
4451.00,1.33
4450.00,1.32
4449.00,1.32
4448.00,1.32
4447.00,1.31
4446.00,1.31
4445.00,1.31
4444.00,1.30
4443.00,1.30
4442.00,1.30
4441.00,1.29
4440.00,1.29
4439.00,1.29
4438.00,1.28
4437.00,1.28
4436.00,1.28
4435.00,1.27
4434.00,1.27
4433.00,1.27
4432.00,1.27
4431.00,1.26
4430.00,1.26
4429.00,1.26
4428.00,1.26
4427.00,1.25
4426.00,1.25
4425.00,1.25
4424.00,1.25
4423.00,1.24
4422.00,1.24
4421.00,1.24
4420.00,1.24
4419.00,1.24
4418.00,1.23
4417.00,1.23
4416.00,1.23
4415.00,1.23
4414.00,1.23
4413.00,1.23
4412.00,1.23
4411.00,1.23
4410.00,1.23
4409.00,1.23
4408.00,1.23
4407.00,1.23
4406.00,1.23
4405.00,1.23
4404.00,1.24
4403.00,1.24
4402.00,1.24
4401.00,1.24
4400.00,1.24
4399.00,1.24
4398.00,1.24
4397.00,1.24
4396.00,1.25
4395.00,1.25
4394.00,1.25
4393.00,1.25
4392.00,1.25
4391.00,1.25
4390.00,1.25
4389.00,1.25
4388.00,1.26
4387.00,1.26
4386.00,1.26
4385.00,1.26
4384.00,1.26
4383.00,1.26
4382.00,1.26
4381.00,1.26
4380.00,1.27
4379.00,1.27
4378.00,1.27
4377.00,1.27
4376.00,1.27
4375.00,1.27
4374.00,1.27
4373.00,1.27
4372.00,1.27
4371.00,1.27
4370.00,1.28
4369.00,1.28
4368.00,1.28
4367.00,1.28
4366.00,1.28
4365.00,1.28
4364.00,1.28
4363.00,1.28
4362.00,1.28
4361.00,1.28
4360.00,1.28
4359.00,1.28
4358.00,1.28
4357.00,1.28
4356.00,1.28
4355.00,1.28
4354.00,1.28
4353.00,1.28
4352.00,1.28
4351.00,1.28
4350.00,1.28
4349.00,1.28
4348.00,1.28
4347.00,1.28
4346.00,1.28
4345.00,1.28
4344.00,1.28
4343.00,1.28
4342.00,1.28
4341.00,1.28
4340.00,1.28
4339.00,1.28
4338.00,1.28
4337.00,1.28
4336.00,1.28
4335.00,1.28
4334.00,1.28
4333.00,1.28
4332.00,1.28
4331.00,1.28
4330.00,1.28
4329.00,1.28
4328.00,1.28
4327.00,1.28
4326.00,1.28
4325.00,1.28
4324.00,1.29
4323.00,1.29
4322.00,1.29
4321.00,1.29
4320.00,1.29
4319.00,1.30
4318.00,1.30
4317.00,1.30
4316.00,1.30
4315.00,1.30
4314.00,1.31
4313.00,1.31
4312.00,1.31
4311.00,1.31
4310.00,1.31
4309.00,1.32
4308.00,1.32
4307.00,1.32
4306.00,1.32
4305.00,1.32
4304.00,1.32
4303.00,1.32
4302.00,1.32
4301.00,1.32
4300.00,1.32
4299.00,1.33
4298.00,1.33
4297.00,1.33
4296.00,1.33
4295.00,1.33
4294.00,1.33
4293.00,1.34
4292.00,1.34
4291.00,1.34
4290.00,1.34
4289.00,1.34
4288.00,1.34
4287.00,1.35
4286.00,1.35
4285.00,1.35
4284.00,1.35
4283.00,1.35
4282.00,1.35
4281.00,1.35
4280.00,1.35
4279.00,1.36
4278.00,1.36
4277.00,1.36
4276.00,1.36
4275.00,1.36
4274.00,1.36
4273.00,1.36
4272.00,1.36
4271.00,1.36
4270.00,1.36
4269.00,1.36
4268.00,1.36
4267.00,1.36
4266.00,1.36
4265.00,1.35
4264.00,1.35
4263.00,1.35
4262.00,1.35
4261.00,1.35
4260.00,1.35
4259.00,1.35
4258.00,1.35
4257.00,1.35
4256.00,1.35
4255.00,1.35
4254.00,1.35
4253.00,1.36
4252.00,1.36
4251.00,1.36
4250.00,1.36
4249.00,1.36
4248.00,1.36
4247.00,1.36
4246.00,1.37
4245.00,1.37
4244.00,1.37
4243.00,1.37
4242.00,1.37
4241.00,1.38
4240.00,1.38
4239.00,1.38
4238.00,1.38
4237.00,1.38
4236.00,1.39
4235.00,1.39
4234.00,1.39
4233.00,1.39
4232.00,1.39
4231.00,1.40
4230.00,1.40
4229.00,1.40
4228.00,1.40
4227.00,1.40
4226.00,1.40
4225.00,1.41
4224.00,1.41
4223.00,1.41
4222.00,1.41
4221.00,1.41
4220.00,1.41
4219.00,1.42
4218.00,1.42
4217.00,1.42
4216.00,1.42
4215.00,1.42
4214.00,1.42
4213.00,1.42
4212.00,1.42
4211.00,1.42
4210.00,1.42
4209.00,1.42
4208.00,1.42
4207.00,1.42
4206.00,1.42
4205.00,1.42
4204.00,1.42
4203.00,1.42
4202.00,1.42
4201.00,1.42
4200.00,1.42
4199.00,1.42
4198.00,1.42
4197.00,1.42
4196.00,1.42
4195.00,1.42
4194.00,1.42
4193.00,1.42
4192.00,1.42
4191.00,1.42
4190.00,1.42
4189.00,1.42
4188.00,1.42
4187.00,1.42
4186.00,1.42
4185.00,1.42
4184.00,1.42
4183.00,1.42
4182.00,1.42
4181.00,1.42
4180.00,1.42
4179.00,1.42
4178.00,1.42
4177.00,1.42
4176.00,1.42
4175.00,1.43
4174.00,1.43
4173.00,1.43
4172.00,1.43
4171.00,1.43
4170.00,1.44
4169.00,1.44
4168.00,1.44
4167.00,1.44
4166.00,1.44
4165.00,1.45
4164.00,1.45
4163.00,1.45
4162.00,1.45
4161.00,1.45
4160.00,1.45
4159.00,1.45
4158.00,1.45
4157.00,1.46
4156.00,1.46
4155.00,1.46
4154.00,1.46
4153.00,1.46
4152.00,1.46
4151.00,1.46
4150.00,1.46
4149.00,1.46
4148.00,1.46
4147.00,1.46
4146.00,1.46
4145.00,1.46
4144.00,1.47
4143.00,1.47
4142.00,1.47
4141.00,1.47
4140.00,1.47
4139.00,1.47
4138.00,1.47
4137.00,1.47
4136.00,1.47
4135.00,1.46
4134.00,1.46
4133.00,1.46
4132.00,1.46
4131.00,1.46
4130.00,1.46
4129.00,1.46
4128.00,1.46
4127.00,1.46
4126.00,1.46
4125.00,1.46
4124.00,1.46
4123.00,1.46
4122.00,1.46
4121.00,1.46
4120.00,1.46
4119.00,1.46
4118.00,1.46
4117.00,1.46
4116.00,1.46
4115.00,1.46
4114.00,1.46
4113.00,1.46
4112.00,1.46
4111.00,1.46
4110.00,1.46
4109.00,1.46
4108.00,1.46
4107.00,1.46
4106.00,1.46
4105.00,1.47
4104.00,1.47
4103.00,1.47
4102.00,1.47
4101.00,1.47
4100.00,1.47
4099.00,1.47
4098.00,1.47
4097.00,1.48
4096.00,1.48
4095.00,1.48
4094.00,1.48
4093.00,1.48
4092.00,1.48
4091.00,1.48
4090.00,1.48
4089.00,1.48
4088.00,1.48
4087.00,1.48
4086.00,1.48
4085.00,1.48
4084.00,1.48
4083.00,1.48
4082.00,1.48
4081.00,1.48
4080.00,1.48
4079.00,1.48
4078.00,1.48
4077.00,1.48
4076.00,1.49
4075.00,1.49
4074.00,1.49
4073.00,1.49
4072.00,1.49
4071.00,1.49
4070.00,1.49
4069.00,1.49
4068.00,1.50
4067.00,1.50
4066.00,1.50
4065.00,1.50
4064.00,1.50
4063.00,1.50
4062.00,1.50
4061.00,1.50
4060.00,1.51
4059.00,1.51
4058.00,1.51
4057.00,1.51
4056.00,1.51
4055.00,1.51
4054.00,1.51
4053.00,1.51
4052.00,1.51
4051.00,1.51
4050.00,1.51
4049.00,1.51
4048.00,1.51
4047.00,1.51
4046.00,1.50
4045.00,1.50
4044.00,1.50
4043.00,1.50
4042.00,1.50
4041.00,1.50
4040.00,1.50
4039.00,1.50
4038.00,1.50
4037.00,1.50
4036.00,1.50
4035.00,1.51
4034.00,1.51
4033.00,1.51
4032.00,1.51
4031.00,1.51
4030.00,1.51
4029.00,1.51
4028.00,1.51
4027.00,1.51
4026.00,1.51
4025.00,1.52
4024.00,1.52
4023.00,1.52
4022.00,1.52
4021.00,1.52
4020.00,1.52
4019.00,1.52
4018.00,1.53
4017.00,1.53
4016.00,1.53
4015.00,1.53
4014.00,1.53
4013.00,1.53
4012.00,1.54
4011.00,1.54
4010.00,1.54
4009.00,1.54
4008.00,1.54
4007.00,1.54
4006.00,1.54
4005.00,1.54
4004.00,1.54
4003.00,1.54
4002.00,1.53
4001.00,1.53
4000.00,1.53
