创建为新数据集,样品 177 用户 Administrator 日期 星期六, 七月 21 2018
cm-1,%T
10000.00,2.02
9999.00,2.02
9998.00,2.01
9997.00,2.01
9996.00,2.00
9995.00,1.99
9994.00,1.99
9993.00,1.98
9992.00,1.97
9991.00,1.97
9990.00,1.96
9989.00,1.95
9988.00,1.95
9987.00,1.94
9986.00,1.93
9985.00,1.93
9984.00,1.92
9983.00,1.92
9982.00,1.91
9981.00,1.91
9980.00,1.91
9979.00,1.90
9978.00,1.90
9977.00,1.90
9976.00,1.90
9975.00,1.90
9974.00,1.90
9973.00,1.90
9972.00,1.90
9971.00,1.90
9970.00,1.90
9969.00,1.90
9968.00,1.90
9967.00,1.90
9966.00,1.90
9965.00,1.91
9964.00,1.91
9963.00,1.91
9962.00,1.91
9961.00,1.91
9960.00,1.90
9959.00,1.90
9958.00,1.90
9957.00,1.90
9956.00,1.90
9955.00,1.90
9954.00,1.90
9953.00,1.90
9952.00,1.90
9951.00,1.89
9950.00,1.89
9949.00,1.89
9948.00,1.88
9947.00,1.88
9946.00,1.88
9945.00,1.87
9944.00,1.87
9943.00,1.87
9942.00,1.86
9941.00,1.86
9940.00,1.86
9939.00,1.85
9938.00,1.85
9937.00,1.85
9936.00,1.85
9935.00,1.85
9934.00,1.84
9933.00,1.84
9932.00,1.84
9931.00,1.84
9930.00,1.84
9929.00,1.85
9928.00,1.85
9927.00,1.85
9926.00,1.85
9925.00,1.85
9924.00,1.86
9923.00,1.86
9922.00,1.86
9921.00,1.86
9920.00,1.87
9919.00,1.87
9918.00,1.87
9917.00,1.87
9916.00,1.87
9915.00,1.87
9914.00,1.87
9913.00,1.87
9912.00,1.87
9911.00,1.87
9910.00,1.87
9909.00,1.87
9908.00,1.87
9907.00,1.87
9906.00,1.87
9905.00,1.86
9904.00,1.86
9903.00,1.86
9902.00,1.86
9901.00,1.86
9900.00,1.86
9899.00,1.86
9898.00,1.86
9897.00,1.87
9896.00,1.87
9895.00,1.87
9894.00,1.87
9893.00,1.87
9892.00,1.87
9891.00,1.87
9890.00,1.88
9889.00,1.88
9888.00,1.88
9887.00,1.88
9886.00,1.88
9885.00,1.88
9884.00,1.89
9883.00,1.89
9882.00,1.89
9881.00,1.89
9880.00,1.89
9879.00,1.89
9878.00,1.90
9877.00,1.90
9876.00,1.90
9875.00,1.90
9874.00,1.90
9873.00,1.90
9872.00,1.90
9871.00,1.90
9870.00,1.90
9869.00,1.89
9868.00,1.89
9867.00,1.89
9866.00,1.89
9865.00,1.89
9864.00,1.88
9863.00,1.88
9862.00,1.88
9861.00,1.88
9860.00,1.87
9859.00,1.87
9858.00,1.87
9857.00,1.86
9856.00,1.86
9855.00,1.86
9854.00,1.86
9853.00,1.85
9852.00,1.85
9851.00,1.85
9850.00,1.85
9849.00,1.85
9848.00,1.84
9847.00,1.84
9846.00,1.84
9845.00,1.84
9844.00,1.84
9843.00,1.84
9842.00,1.84
9841.00,1.84
9840.00,1.84
9839.00,1.85
9838.00,1.85
9837.00,1.85
9836.00,1.85
9835.00,1.85
9834.00,1.86
9833.00,1.86
9832.00,1.86
9831.00,1.86
9830.00,1.86
9829.00,1.86
9828.00,1.86
9827.00,1.86
9826.00,1.86
9825.00,1.86
9824.00,1.86
9823.00,1.86
9822.00,1.86
9821.00,1.85
9820.00,1.85
9819.00,1.85
9818.00,1.85
9817.00,1.84
9816.00,1.84
9815.00,1.84
9814.00,1.84
9813.00,1.84
9812.00,1.84
9811.00,1.84
9810.00,1.84
9809.00,1.84
9808.00,1.84
9807.00,1.84
9806.00,1.84
9805.00,1.84
9804.00,1.84
9803.00,1.84
9802.00,1.84
9801.00,1.84
9800.00,1.84
9799.00,1.84
9798.00,1.84
9797.00,1.85
9796.00,1.85
9795.00,1.85
9794.00,1.85
9793.00,1.85
9792.00,1.86
9791.00,1.86
9790.00,1.86
9789.00,1.86
9788.00,1.87
9787.00,1.87
9786.00,1.87
9785.00,1.88
9784.00,1.88
9783.00,1.88
9782.00,1.89
9781.00,1.89
9780.00,1.89
9779.00,1.89
9778.00,1.90
9777.00,1.90
9776.00,1.90
9775.00,1.90
9774.00,1.90
9773.00,1.90
9772.00,1.90
9771.00,1.90
9770.00,1.90
9769.00,1.90
9768.00,1.90
9767.00,1.89
9766.00,1.89
9765.00,1.89
9764.00,1.89
9763.00,1.89
9762.00,1.89
9761.00,1.88
9760.00,1.88
9759.00,1.88
9758.00,1.88
9757.00,1.88
9756.00,1.88
9755.00,1.88
9754.00,1.88
9753.00,1.88
9752.00,1.88
9751.00,1.88
9750.00,1.88
9749.00,1.88
9748.00,1.88
9747.00,1.88
9746.00,1.88
9745.00,1.88
9744.00,1.88
9743.00,1.87
9742.00,1.87
9741.00,1.87
9740.00,1.87
9739.00,1.86
9738.00,1.86
9737.00,1.86
9736.00,1.85
9735.00,1.85
9734.00,1.85
9733.00,1.84
9732.00,1.84
9731.00,1.84
9730.00,1.84
9729.00,1.84
9728.00,1.84
9727.00,1.84
9726.00,1.84
9725.00,1.84
9724.00,1.84
9723.00,1.85
9722.00,1.85
9721.00,1.85
9720.00,1.85
9719.00,1.85
9718.00,1.86
9717.00,1.86
9716.00,1.86
9715.00,1.86
9714.00,1.86
9713.00,1.86
9712.00,1.86
9711.00,1.87
9710.00,1.87
9709.00,1.87
9708.00,1.87
9707.00,1.87
9706.00,1.87
9705.00,1.87
9704.00,1.87
9703.00,1.88
9702.00,1.88
9701.00,1.88
9700.00,1.88
9699.00,1.88
9698.00,1.88
9697.00,1.88
9696.00,1.88
9695.00,1.88
9694.00,1.88
9693.00,1.88
9692.00,1.88
9691.00,1.88
9690.00,1.87
9689.00,1.87
9688.00,1.87
9687.00,1.87
9686.00,1.87
9685.00,1.87
9684.00,1.87
9683.00,1.87
9682.00,1.87
9681.00,1.87
9680.00,1.87
9679.00,1.87
9678.00,1.87
9677.00,1.87
9676.00,1.88
9675.00,1.88
9674.00,1.88
9673.00,1.88
9672.00,1.88
9671.00,1.88
9670.00,1.88
9669.00,1.88
9668.00,1.87
9667.00,1.87
9666.00,1.87
9665.00,1.87
9664.00,1.87
9663.00,1.87
9662.00,1.86
9661.00,1.86
9660.00,1.86
9659.00,1.86
9658.00,1.86
9657.00,1.85
9656.00,1.85
9655.00,1.85
9654.00,1.85
9653.00,1.85
9652.00,1.85
9651.00,1.85
9650.00,1.85
9649.00,1.85
9648.00,1.85
9647.00,1.85
9646.00,1.86
9645.00,1.86
9644.00,1.86
9643.00,1.86
9642.00,1.86
9641.00,1.86
9640.00,1.87
9639.00,1.87
9638.00,1.87
9637.00,1.87
9636.00,1.87
9635.00,1.87
9634.00,1.87
9633.00,1.87
9632.00,1.87
9631.00,1.88
9630.00,1.88
9629.00,1.88
9628.00,1.88
9627.00,1.88
9626.00,1.88
9625.00,1.88
9624.00,1.89
9623.00,1.89
9622.00,1.89
9621.00,1.89
9620.00,1.89
9619.00,1.89
9618.00,1.89
9617.00,1.89
9616.00,1.89
9615.00,1.89
9614.00,1.89
9613.00,1.88
9612.00,1.88
9611.00,1.88
9610.00,1.88
9609.00,1.88
9608.00,1.88
9607.00,1.87
9606.00,1.87
9605.00,1.87
9604.00,1.87
9603.00,1.87
9602.00,1.86
9601.00,1.86
9600.00,1.86
9599.00,1.86
9598.00,1.86
9597.00,1.86
9596.00,1.86
9595.00,1.85
9594.00,1.85
9593.00,1.85
9592.00,1.85
9591.00,1.85
9590.00,1.85
9589.00,1.85
9588.00,1.85
9587.00,1.85
9586.00,1.85
9585.00,1.85
9584.00,1.85
9583.00,1.85
9582.00,1.85
9581.00,1.85
9580.00,1.85
9579.00,1.86
9578.00,1.86
9577.00,1.86
9576.00,1.86
9575.00,1.86
9574.00,1.86
9573.00,1.86
9572.00,1.86
9571.00,1.86
9570.00,1.86
9569.00,1.87
9568.00,1.87
9567.00,1.87
9566.00,1.87
9565.00,1.87
9564.00,1.87
9563.00,1.88
9562.00,1.88
9561.00,1.88
9560.00,1.88
9559.00,1.88
9558.00,1.88
9557.00,1.88
9556.00,1.89
9555.00,1.89
9554.00,1.89
9553.00,1.89
9552.00,1.89
9551.00,1.89
9550.00,1.89
9549.00,1.89
9548.00,1.89
9547.00,1.90
9546.00,1.90
9545.00,1.90
9544.00,1.90
9543.00,1.90
9542.00,1.90
9541.00,1.90
9540.00,1.90
9539.00,1.90
9538.00,1.90
9537.00,1.90
9536.00,1.90
9535.00,1.89
9534.00,1.89
9533.00,1.89
9532.00,1.89
9531.00,1.89
9530.00,1.89
9529.00,1.89
9528.00,1.89
9527.00,1.89
9526.00,1.89
9525.00,1.88
9524.00,1.88
9523.00,1.88
9522.00,1.88
9521.00,1.88
9520.00,1.88
9519.00,1.87
9518.00,1.87
9517.00,1.87
9516.00,1.87
9515.00,1.87
9514.00,1.87
9513.00,1.87
9512.00,1.87
9511.00,1.87
9510.00,1.87
9509.00,1.87
9508.00,1.87
9507.00,1.87
9506.00,1.87
9505.00,1.87
9504.00,1.87
9503.00,1.88
9502.00,1.88
9501.00,1.88
9500.00,1.88
9499.00,1.88
9498.00,1.88
9497.00,1.88
9496.00,1.88
9495.00,1.88
9494.00,1.88
9493.00,1.88
9492.00,1.88
9491.00,1.88
9490.00,1.88
9489.00,1.89
9488.00,1.89
9487.00,1.89
9486.00,1.89
9485.00,1.89
9484.00,1.90
9483.00,1.90
9482.00,1.90
9481.00,1.90
9480.00,1.90
9479.00,1.90
9478.00,1.90
9477.00,1.90
9476.00,1.90
9475.00,1.90
9474.00,1.90
9473.00,1.90
9472.00,1.89
9471.00,1.89
9470.00,1.89
9469.00,1.89
9468.00,1.89
9467.00,1.88
9466.00,1.88
9465.00,1.88
9464.00,1.88
9463.00,1.87
9462.00,1.87
9461.00,1.87
9460.00,1.87
9459.00,1.87
9458.00,1.87
9457.00,1.87
9456.00,1.87
9455.00,1.87
9454.00,1.87
9453.00,1.87
9452.00,1.87
9451.00,1.87
9450.00,1.87
9449.00,1.87
9448.00,1.87
9447.00,1.87
9446.00,1.87
9445.00,1.87
9444.00,1.87
9443.00,1.87
9442.00,1.87
9441.00,1.87
9440.00,1.87
9439.00,1.87
9438.00,1.87
9437.00,1.87
9436.00,1.87
9435.00,1.87
9434.00,1.87
9433.00,1.88
9432.00,1.88
9431.00,1.88
9430.00,1.88
9429.00,1.88
9428.00,1.88
9427.00,1.88
9426.00,1.88
9425.00,1.88
9424.00,1.88
9423.00,1.88
9422.00,1.88
9421.00,1.88
9420.00,1.88
9419.00,1.88
9418.00,1.87
9417.00,1.87
9416.00,1.87
9415.00,1.87
9414.00,1.87
9413.00,1.87
9412.00,1.86
9411.00,1.86
9410.00,1.86
9409.00,1.86
9408.00,1.86
9407.00,1.86
9406.00,1.86
9405.00,1.86
9404.00,1.86
9403.00,1.86
9402.00,1.86
9401.00,1.86
9400.00,1.87
9399.00,1.87
9398.00,1.87
9397.00,1.87
9396.00,1.87
9395.00,1.87
9394.00,1.87
9393.00,1.87
9392.00,1.87
9391.00,1.87
9390.00,1.88
9389.00,1.88
9388.00,1.88
9387.00,1.88
9386.00,1.88
9385.00,1.89
9384.00,1.89
9383.00,1.89
9382.00,1.89
9381.00,1.89
9380.00,1.90
9379.00,1.90
9378.00,1.90
9377.00,1.90
9376.00,1.90
9375.00,1.90
9374.00,1.90
9373.00,1.90
9372.00,1.90
9371.00,1.90
9370.00,1.90
9369.00,1.90
9368.00,1.90
9367.00,1.90
9366.00,1.90
9365.00,1.90
9364.00,1.90
9363.00,1.89
9362.00,1.89
9361.00,1.89
9360.00,1.89
9359.00,1.89
9358.00,1.89
9357.00,1.88
9356.00,1.88
9355.00,1.88
9354.00,1.88
9353.00,1.88
9352.00,1.88
9351.00,1.88
9350.00,1.88
9349.00,1.88
9348.00,1.88
9347.00,1.88
9346.00,1.88
9345.00,1.88
9344.00,1.88
9343.00,1.88
9342.00,1.88
9341.00,1.88
9340.00,1.88
9339.00,1.88
9338.00,1.88
9337.00,1.87
9336.00,1.87
9335.00,1.87
9334.00,1.87
9333.00,1.87
9332.00,1.87
9331.00,1.87
9330.00,1.86
9329.00,1.86
9328.00,1.86
9327.00,1.86
9326.00,1.86
9325.00,1.86
9324.00,1.86
9323.00,1.86
9322.00,1.86
9321.00,1.86
9320.00,1.86
9319.00,1.86
9318.00,1.86
9317.00,1.86
9316.00,1.86
9315.00,1.86
9314.00,1.86
9313.00,1.86
9312.00,1.86
9311.00,1.87
9310.00,1.87
9309.00,1.87
9308.00,1.87
9307.00,1.87
9306.00,1.87
9305.00,1.87
9304.00,1.87
9303.00,1.87
9302.00,1.87
9301.00,1.87
9300.00,1.87
9299.00,1.87
9298.00,1.87
9297.00,1.87
9296.00,1.87
9295.00,1.87
9294.00,1.87
9293.00,1.87
9292.00,1.88
9291.00,1.88
9290.00,1.88
9289.00,1.88
9288.00,1.88
9287.00,1.88
9286.00,1.88
9285.00,1.88
9284.00,1.88
9283.00,1.88
9282.00,1.88
9281.00,1.89
9280.00,1.89
9279.00,1.89
9278.00,1.89
9277.00,1.89
9276.00,1.89
9275.00,1.89
9274.00,1.89
9273.00,1.89
9272.00,1.89
9271.00,1.89
9270.00,1.89
9269.00,1.89
9268.00,1.89
9267.00,1.88
9266.00,1.88
9265.00,1.88
9264.00,1.88
9263.00,1.88
9262.00,1.88
9261.00,1.88
9260.00,1.88
9259.00,1.88
9258.00,1.88
9257.00,1.88
9256.00,1.88
9255.00,1.88
9254.00,1.88
9253.00,1.88
9252.00,1.88
9251.00,1.88
9250.00,1.88
9249.00,1.88
9248.00,1.88
9247.00,1.88
9246.00,1.88
9245.00,1.88
9244.00,1.88
9243.00,1.88
9242.00,1.88
9241.00,1.89
9240.00,1.89
9239.00,1.89
9238.00,1.89
9237.00,1.89
9236.00,1.89
9235.00,1.89
9234.00,1.89
9233.00,1.89
9232.00,1.89
9231.00,1.90
9230.00,1.90
9229.00,1.90
9228.00,1.90
9227.00,1.90
9226.00,1.90
9225.00,1.90
9224.00,1.90
9223.00,1.90
9222.00,1.90
9221.00,1.90
9220.00,1.90
9219.00,1.90
9218.00,1.90
9217.00,1.89
9216.00,1.89
9215.00,1.89
9214.00,1.89
9213.00,1.89
9212.00,1.89
9211.00,1.89
9210.00,1.89
9209.00,1.89
9208.00,1.89
9207.00,1.89
9206.00,1.89
9205.00,1.89
9204.00,1.89
9203.00,1.89
9202.00,1.89
9201.00,1.89
9200.00,1.89
9199.00,1.89
9198.00,1.89
9197.00,1.89
9196.00,1.90
9195.00,1.90
9194.00,1.90
9193.00,1.90
9192.00,1.90
9191.00,1.90
9190.00,1.90
9189.00,1.90
9188.00,1.90
9187.00,1.90
9186.00,1.89
9185.00,1.89
9184.00,1.89
9183.00,1.89
9182.00,1.89
9181.00,1.88
9180.00,1.88
9179.00,1.88
9178.00,1.88
9177.00,1.88
9176.00,1.88
9175.00,1.88
9174.00,1.87
9173.00,1.87
9172.00,1.87
9171.00,1.87
9170.00,1.87
9169.00,1.87
9168.00,1.87
9167.00,1.87
9166.00,1.87
9165.00,1.87
9164.00,1.87
9163.00,1.87
9162.00,1.87
9161.00,1.87
9160.00,1.87
9159.00,1.87
9158.00,1.86
9157.00,1.86
9156.00,1.86
9155.00,1.86
9154.00,1.87
9153.00,1.87
9152.00,1.87
9151.00,1.87
9150.00,1.87
9149.00,1.87
9148.00,1.87
9147.00,1.87
9146.00,1.88
9145.00,1.88
9144.00,1.88
9143.00,1.88
9142.00,1.89
9141.00,1.89
9140.00,1.89
9139.00,1.89
9138.00,1.89
9137.00,1.90
9136.00,1.90
9135.00,1.90
9134.00,1.90
9133.00,1.90
9132.00,1.90
9131.00,1.90
9130.00,1.90
9129.00,1.90
9128.00,1.90
9127.00,1.90
9126.00,1.90
9125.00,1.90
9124.00,1.90
9123.00,1.90
9122.00,1.90
9121.00,1.89
9120.00,1.89
9119.00,1.89
9118.00,1.89
9117.00,1.89
9116.00,1.89
9115.00,1.89
9114.00,1.89
9113.00,1.89
9112.00,1.88
9111.00,1.88
9110.00,1.88
9109.00,1.88
9108.00,1.88
9107.00,1.88
9106.00,1.88
9105.00,1.88
9104.00,1.88
9103.00,1.88
9102.00,1.88
9101.00,1.88
9100.00,1.88
9099.00,1.88
9098.00,1.88
9097.00,1.88
9096.00,1.88
9095.00,1.88
9094.00,1.88
9093.00,1.88
9092.00,1.88
9091.00,1.88
9090.00,1.88
9089.00,1.88
9088.00,1.88
9087.00,1.88
9086.00,1.88
9085.00,1.88
9084.00,1.88
9083.00,1.88
9082.00,1.88
9081.00,1.88
9080.00,1.88
9079.00,1.88
9078.00,1.88
9077.00,1.88
9076.00,1.88
9075.00,1.88
9074.00,1.89
9073.00,1.89
9072.00,1.89
9071.00,1.89
9070.00,1.89
9069.00,1.89
9068.00,1.89
9067.00,1.89
9066.00,1.89
9065.00,1.89
9064.00,1.89
9063.00,1.89
9062.00,1.89
9061.00,1.89
9060.00,1.89
9059.00,1.89
9058.00,1.89
9057.00,1.89
9056.00,1.89
9055.00,1.89
9054.00,1.89
9053.00,1.89
9052.00,1.89
9051.00,1.88
9050.00,1.88
9049.00,1.88
9048.00,1.88
9047.00,1.88
9046.00,1.88
9045.00,1.88
9044.00,1.88
9043.00,1.88
9042.00,1.88
9041.00,1.88
9040.00,1.88
9039.00,1.88
9038.00,1.88
9037.00,1.88
9036.00,1.88
9035.00,1.88
9034.00,1.88
9033.00,1.88
9032.00,1.88
9031.00,1.88
9030.00,1.88
9029.00,1.87
9028.00,1.87
9027.00,1.87
9026.00,1.87
9025.00,1.87
9024.00,1.86
9023.00,1.86
9022.00,1.86
9021.00,1.86
9020.00,1.86
9019.00,1.86
9018.00,1.86
9017.00,1.86
9016.00,1.86
9015.00,1.86
9014.00,1.86
9013.00,1.86
9012.00,1.87
9011.00,1.87
9010.00,1.87
9009.00,1.87
9008.00,1.87
9007.00,1.87
9006.00,1.87
9005.00,1.87
9004.00,1.87
9003.00,1.88
9002.00,1.88
9001.00,1.88
9000.00,1.88
8999.00,1.88
8998.00,1.88
8997.00,1.88
8996.00,1.88
8995.00,1.88
8994.00,1.88
8993.00,1.88
8992.00,1.88
8991.00,1.89
8990.00,1.89
8989.00,1.89
8988.00,1.89
8987.00,1.89
8986.00,1.89
8985.00,1.90
8984.00,1.90
8983.00,1.90
8982.00,1.90
8981.00,1.90
8980.00,1.90
8979.00,1.90
8978.00,1.90
8977.00,1.90
8976.00,1.90
8975.00,1.90
8974.00,1.90
8973.00,1.90
8972.00,1.90
8971.00,1.90
8970.00,1.89
8969.00,1.89
8968.00,1.89
8967.00,1.89
8966.00,1.89
8965.00,1.89
8964.00,1.89
8963.00,1.89
8962.00,1.89
8961.00,1.89
8960.00,1.89
8959.00,1.89
8958.00,1.89
8957.00,1.89
8956.00,1.89
8955.00,1.89
8954.00,1.89
8953.00,1.89
8952.00,1.89
8951.00,1.89
8950.00,1.89
8949.00,1.89
8948.00,1.89
8947.00,1.89
8946.00,1.89
8945.00,1.89
8944.00,1.89
8943.00,1.88
8942.00,1.88
8941.00,1.88
8940.00,1.88
8939.00,1.88
8938.00,1.88
8937.00,1.88
8936.00,1.88
8935.00,1.88
8934.00,1.88
8933.00,1.88
8932.00,1.88
8931.00,1.88
8930.00,1.88
8929.00,1.88
8928.00,1.88
8927.00,1.88
8926.00,1.88
8925.00,1.89
8924.00,1.89
8923.00,1.89
8922.00,1.89
8921.00,1.89
8920.00,1.89
8919.00,1.89
8918.00,1.90
8917.00,1.90
8916.00,1.90
8915.00,1.90
8914.00,1.90
8913.00,1.90
8912.00,1.89
8911.00,1.89
8910.00,1.89
8909.00,1.89
8908.00,1.89
8907.00,1.89
8906.00,1.88
8905.00,1.88
8904.00,1.88
8903.00,1.88
8902.00,1.88
8901.00,1.88
8900.00,1.88
8899.00,1.87
8898.00,1.87
8897.00,1.87
8896.00,1.87
8895.00,1.87
8894.00,1.88
8893.00,1.88
8892.00,1.88
8891.00,1.88
8890.00,1.88
8889.00,1.88
8888.00,1.88
8887.00,1.88
8886.00,1.88
8885.00,1.88
8884.00,1.88
8883.00,1.88
8882.00,1.88
8881.00,1.88
8880.00,1.88
8879.00,1.88
8878.00,1.88
8877.00,1.88
8876.00,1.87
8875.00,1.87
8874.00,1.87
8873.00,1.87
8872.00,1.87
8871.00,1.87
8870.00,1.87
8869.00,1.87
8868.00,1.87
8867.00,1.87
8866.00,1.87
8865.00,1.86
8864.00,1.86
8863.00,1.86
8862.00,1.86
8861.00,1.86
8860.00,1.86
8859.00,1.86
8858.00,1.86
8857.00,1.86
8856.00,1.87
8855.00,1.87
8854.00,1.87
8853.00,1.87
8852.00,1.87
8851.00,1.87
8850.00,1.87
8849.00,1.87
8848.00,1.87
8847.00,1.87
8846.00,1.88
8845.00,1.88
8844.00,1.88
8843.00,1.88
8842.00,1.88
8841.00,1.87
8840.00,1.87
8839.00,1.87
8838.00,1.87
8837.00,1.87
8836.00,1.87
8835.00,1.87
8834.00,1.87
8833.00,1.87
8832.00,1.87
8831.00,1.87
8830.00,1.87
8829.00,1.87
8828.00,1.87
8827.00,1.87
8826.00,1.87
8825.00,1.87
8824.00,1.87
8823.00,1.87
8822.00,1.87
8821.00,1.87
8820.00,1.87
8819.00,1.87
8818.00,1.87
8817.00,1.87
8816.00,1.87
8815.00,1.87
8814.00,1.87
8813.00,1.87
8812.00,1.87
8811.00,1.87
8810.00,1.86
8809.00,1.86
8808.00,1.86
8807.00,1.86
8806.00,1.86
8805.00,1.85
8804.00,1.85
8803.00,1.85
8802.00,1.85
8801.00,1.84
8800.00,1.84
8799.00,1.84
8798.00,1.84
8797.00,1.84
8796.00,1.83
8795.00,1.83
8794.00,1.83
8793.00,1.83
8792.00,1.83
8791.00,1.83
8790.00,1.84
8789.00,1.84
8788.00,1.84
8787.00,1.84
8786.00,1.84
8785.00,1.84
8784.00,1.84
8783.00,1.84
8782.00,1.84
8781.00,1.84
8780.00,1.85
8779.00,1.85
8778.00,1.85
8777.00,1.85
8776.00,1.85
8775.00,1.84
8774.00,1.84
8773.00,1.84
8772.00,1.84
8771.00,1.84
8770.00,1.84
8769.00,1.84
8768.00,1.84
8767.00,1.84
8766.00,1.84
8765.00,1.84
8764.00,1.84
8763.00,1.84
8762.00,1.84
8761.00,1.84
8760.00,1.84
8759.00,1.84
8758.00,1.84
8757.00,1.84
8756.00,1.84
8755.00,1.84
8754.00,1.84
8753.00,1.84
8752.00,1.84
8751.00,1.84
8750.00,1.83
8749.00,1.83
8748.00,1.83
8747.00,1.83
8746.00,1.83
8745.00,1.83
8744.00,1.82
8743.00,1.82
8742.00,1.82
8741.00,1.82
8740.00,1.81
8739.00,1.81
8738.00,1.81
8737.00,1.81
8736.00,1.81
8735.00,1.81
8734.00,1.81
8733.00,1.80
8732.00,1.80
8731.00,1.80
8730.00,1.80
8729.00,1.80
8728.00,1.80
8727.00,1.80
8726.00,1.80
8725.00,1.80
8724.00,1.80
8723.00,1.80
8722.00,1.80
8721.00,1.81
8720.00,1.81
8719.00,1.81
8718.00,1.81
8717.00,1.81
8716.00,1.81
8715.00,1.81
8714.00,1.81
8713.00,1.81
8712.00,1.81
8711.00,1.81
8710.00,1.81
8709.00,1.81
8708.00,1.81
8707.00,1.81
8706.00,1.81
8705.00,1.81
8704.00,1.81
8703.00,1.81
8702.00,1.81
8701.00,1.81
8700.00,1.81
8699.00,1.81
8698.00,1.82
8697.00,1.82
8696.00,1.82
8695.00,1.82
8694.00,1.82
8693.00,1.82
8692.00,1.82
8691.00,1.82
8690.00,1.82
8689.00,1.82
8688.00,1.82
8687.00,1.82
8686.00,1.82
8685.00,1.81
8684.00,1.81
8683.00,1.81
8682.00,1.81
8681.00,1.81
8680.00,1.81
8679.00,1.81
8678.00,1.81
8677.00,1.81
8676.00,1.81
8675.00,1.81
8674.00,1.80
8673.00,1.80
8672.00,1.80
8671.00,1.80
8670.00,1.80
8669.00,1.80
8668.00,1.80
8667.00,1.80
8666.00,1.80
8665.00,1.80
8664.00,1.80
8663.00,1.80
8662.00,1.79
8661.00,1.79
8660.00,1.79
8659.00,1.79
8658.00,1.79
8657.00,1.78
8656.00,1.78
8655.00,1.78
8654.00,1.78
8653.00,1.78
8652.00,1.78
8651.00,1.78
8650.00,1.77
8649.00,1.77
8648.00,1.77
8647.00,1.77
8646.00,1.77
8645.00,1.77
8644.00,1.77
8643.00,1.77
8642.00,1.78
8641.00,1.78
8640.00,1.78
8639.00,1.78
8638.00,1.78
8637.00,1.78
8636.00,1.78
8635.00,1.78
8634.00,1.79
8633.00,1.79
8632.00,1.79
8631.00,1.79
8630.00,1.79
8629.00,1.79
8628.00,1.79
8627.00,1.79
8626.00,1.79
8625.00,1.79
8624.00,1.79
8623.00,1.79
8622.00,1.79
8621.00,1.79
8620.00,1.79
8619.00,1.79
8618.00,1.78
8617.00,1.78
8616.00,1.78
8615.00,1.78
8614.00,1.78
8613.00,1.78
8612.00,1.77
8611.00,1.77
8610.00,1.77
8609.00,1.77
8608.00,1.77
8607.00,1.77
8606.00,1.77
8605.00,1.77
8604.00,1.77
8603.00,1.77
8602.00,1.77
8601.00,1.77
8600.00,1.77
8599.00,1.77
8598.00,1.77
8597.00,1.78
8596.00,1.78
8595.00,1.78
8594.00,1.78
8593.00,1.78
8592.00,1.78
8591.00,1.78
8590.00,1.78
8589.00,1.78
8588.00,1.78
8587.00,1.78
8586.00,1.78
8585.00,1.79
8584.00,1.79
8583.00,1.79
8582.00,1.79
8581.00,1.78
8580.00,1.78
8579.00,1.78
8578.00,1.78
8577.00,1.78
8576.00,1.78
8575.00,1.78
8574.00,1.78
8573.00,1.77
8572.00,1.77
8571.00,1.77
8570.00,1.77
8569.00,1.77
8568.00,1.76
8567.00,1.76
8566.00,1.76
8565.00,1.76
8564.00,1.76
8563.00,1.76
8562.00,1.76
8561.00,1.76
8560.00,1.76
8559.00,1.76
8558.00,1.76
8557.00,1.76
8556.00,1.76
8555.00,1.76
8554.00,1.76
8553.00,1.76
8552.00,1.76
8551.00,1.76
8550.00,1.76
8549.00,1.76
8548.00,1.76
8547.00,1.75
8546.00,1.75
8545.00,1.75
8544.00,1.75
8543.00,1.75
8542.00,1.75
8541.00,1.75
8540.00,1.74
8539.00,1.74
8538.00,1.74
8537.00,1.74
8536.00,1.74
8535.00,1.74
8534.00,1.74
8533.00,1.74
8532.00,1.74
8531.00,1.74
8530.00,1.74
8529.00,1.74
8528.00,1.74
8527.00,1.74
8526.00,1.74
8525.00,1.74
8524.00,1.74
8523.00,1.74
8522.00,1.74
8521.00,1.74
8520.00,1.74
8519.00,1.74
8518.00,1.74
8517.00,1.74
8516.00,1.74
8515.00,1.74
8514.00,1.74
8513.00,1.74
8512.00,1.74
8511.00,1.74
8510.00,1.74
8509.00,1.74
8508.00,1.74
8507.00,1.74
8506.00,1.74
8505.00,1.74
8504.00,1.74
8503.00,1.75
8502.00,1.75
8501.00,1.75
8500.00,1.75
8499.00,1.75
8498.00,1.75
8497.00,1.75
8496.00,1.75
8495.00,1.75
8494.00,1.75
8493.00,1.75
8492.00,1.75
8491.00,1.75
8490.00,1.75
8489.00,1.75
8488.00,1.75
8487.00,1.75
8486.00,1.75
8485.00,1.75
8484.00,1.75
8483.00,1.75
8482.00,1.74
8481.00,1.74
8480.00,1.74
8479.00,1.74
8478.00,1.74
8477.00,1.74
8476.00,1.74
8475.00,1.74
8474.00,1.74
8473.00,1.73
8472.00,1.73
8471.00,1.73
8470.00,1.73
8469.00,1.73
8468.00,1.73
8467.00,1.73
8466.00,1.73
8465.00,1.73
8464.00,1.72
8463.00,1.72
8462.00,1.72
8461.00,1.72
8460.00,1.72
8459.00,1.72
8458.00,1.72
8457.00,1.72
8456.00,1.72
8455.00,1.72
8454.00,1.71
8453.00,1.71
8452.00,1.71
8451.00,1.71
8450.00,1.71
8449.00,1.71
8448.00,1.71
8447.00,1.71
8446.00,1.71
8445.00,1.71
8444.00,1.71
8443.00,1.71
8442.00,1.71
8441.00,1.71
8440.00,1.71
8439.00,1.71
8438.00,1.71
8437.00,1.71
8436.00,1.71
8435.00,1.71
8434.00,1.71
8433.00,1.71
8432.00,1.71
8431.00,1.71
8430.00,1.71
8429.00,1.71
8428.00,1.71
8427.00,1.71
8426.00,1.72
8425.00,1.72
8424.00,1.72
8423.00,1.72
8422.00,1.72
8421.00,1.72
8420.00,1.73
8419.00,1.73
8418.00,1.73
8417.00,1.73
8416.00,1.73
8415.00,1.73
8414.00,1.73
8413.00,1.73
8412.00,1.73
8411.00,1.73
8410.00,1.73
8409.00,1.73
8408.00,1.73
8407.00,1.73
8406.00,1.73
8405.00,1.73
8404.00,1.73
8403.00,1.73
8402.00,1.73
8401.00,1.73
8400.00,1.73
8399.00,1.74
8398.00,1.74
8397.00,1.74
8396.00,1.74
8395.00,1.74
8394.00,1.74
8393.00,1.74
8392.00,1.74
8391.00,1.74
8390.00,1.74
8389.00,1.74
8388.00,1.74
8387.00,1.75
8386.00,1.75
8385.00,1.75
8384.00,1.75
8383.00,1.75
8382.00,1.75
8381.00,1.75
8380.00,1.75
8379.00,1.75
8378.00,1.75
8377.00,1.76
8376.00,1.76
8375.00,1.76
8374.00,1.76
8373.00,1.76
8372.00,1.76
8371.00,1.76
8370.00,1.76
8369.00,1.76
8368.00,1.76
8367.00,1.76
8366.00,1.76
8365.00,1.76
8364.00,1.76
8363.00,1.76
8362.00,1.76
8361.00,1.76
8360.00,1.76
8359.00,1.76
8358.00,1.76
8357.00,1.77
8356.00,1.77
8355.00,1.77
8354.00,1.77
8353.00,1.77
8352.00,1.77
8351.00,1.77
8350.00,1.77
8349.00,1.77
8348.00,1.77
8347.00,1.77
8346.00,1.77
8345.00,1.77
8344.00,1.77
8343.00,1.77
8342.00,1.77
8341.00,1.77
8340.00,1.77
8339.00,1.77
8338.00,1.77
8337.00,1.77
8336.00,1.77
8335.00,1.77
8334.00,1.77
8333.00,1.77
8332.00,1.77
8331.00,1.77
8330.00,1.77
8329.00,1.77
8328.00,1.77
8327.00,1.76
8326.00,1.76
8325.00,1.76
8324.00,1.76
8323.00,1.76
8322.00,1.76
8321.00,1.76
8320.00,1.76
8319.00,1.76
8318.00,1.76
8317.00,1.76
8316.00,1.77
8315.00,1.77
8314.00,1.77
8313.00,1.77
8312.00,1.77
8311.00,1.77
8310.00,1.77
8309.00,1.77
8308.00,1.77
8307.00,1.77
8306.00,1.77
8305.00,1.77
8304.00,1.77
8303.00,1.77
8302.00,1.77
8301.00,1.77
8300.00,1.77
8299.00,1.77
8298.00,1.77
8297.00,1.77
8296.00,1.77
8295.00,1.77
8294.00,1.77
8293.00,1.77
8292.00,1.77
8291.00,1.77
8290.00,1.77
8289.00,1.77
8288.00,1.77
8287.00,1.77
8286.00,1.77
8285.00,1.77
8284.00,1.77
8283.00,1.77
8282.00,1.78
8281.00,1.78
8280.00,1.78
8279.00,1.78
8278.00,1.78
8277.00,1.78
8276.00,1.78
8275.00,1.79
8274.00,1.79
8273.00,1.79
8272.00,1.79
8271.00,1.79
8270.00,1.79
8269.00,1.79
8268.00,1.79
8267.00,1.79
8266.00,1.79
8265.00,1.79
8264.00,1.79
8263.00,1.79
8262.00,1.79
8261.00,1.79
8260.00,1.79
8259.00,1.79
8258.00,1.79
8257.00,1.79
8256.00,1.79
8255.00,1.79
8254.00,1.79
8253.00,1.79
8252.00,1.79
8251.00,1.79
8250.00,1.79
8249.00,1.79
8248.00,1.79
8247.00,1.79
8246.00,1.79
8245.00,1.79
8244.00,1.79
8243.00,1.79
8242.00,1.79
8241.00,1.79
8240.00,1.79
8239.00,1.79
8238.00,1.79
8237.00,1.79
8236.00,1.79
8235.00,1.79
8234.00,1.79
8233.00,1.79
8232.00,1.79
8231.00,1.79
8230.00,1.79
8229.00,1.80
8228.00,1.80
8227.00,1.80
8226.00,1.80
8225.00,1.80
8224.00,1.80
8223.00,1.80
8222.00,1.80
8221.00,1.80
8220.00,1.80
8219.00,1.80
8218.00,1.80
8217.00,1.80
8216.00,1.80
8215.00,1.80
8214.00,1.80
8213.00,1.80
8212.00,1.80
8211.00,1.80
8210.00,1.80
8209.00,1.80
8208.00,1.80
8207.00,1.80
8206.00,1.80
8205.00,1.80
8204.00,1.80
8203.00,1.80
8202.00,1.80
8201.00,1.80
8200.00,1.80
8199.00,1.80
8198.00,1.80
8197.00,1.80
8196.00,1.80
8195.00,1.80
8194.00,1.80
8193.00,1.80
8192.00,1.80
8191.00,1.80
8190.00,1.80
8189.00,1.80
8188.00,1.80
8187.00,1.80
8186.00,1.80
8185.00,1.80
8184.00,1.80
8183.00,1.81
8182.00,1.81
8181.00,1.81
8180.00,1.81
8179.00,1.81
8178.00,1.81
8177.00,1.81
8176.00,1.81
8175.00,1.81
8174.00,1.81
8173.00,1.81
8172.00,1.81
8171.00,1.81
8170.00,1.82
8169.00,1.82
8168.00,1.82
8167.00,1.82
8166.00,1.82
8165.00,1.82
8164.00,1.82
8163.00,1.82
8162.00,1.82
8161.00,1.82
8160.00,1.82
8159.00,1.82
8158.00,1.82
8157.00,1.82
8156.00,1.82
8155.00,1.82
8154.00,1.82
8153.00,1.82
8152.00,1.82
8151.00,1.82
8150.00,1.82
8149.00,1.82
8148.00,1.82
8147.00,1.82
8146.00,1.82
8145.00,1.82
8144.00,1.82
8143.00,1.82
8142.00,1.82
8141.00,1.82
8140.00,1.82
8139.00,1.82
8138.00,1.82
8137.00,1.82
8136.00,1.82
8135.00,1.82
8134.00,1.82
8133.00,1.82
8132.00,1.82
8131.00,1.82
8130.00,1.82
8129.00,1.82
8128.00,1.83
8127.00,1.83
8126.00,1.83
8125.00,1.83
8124.00,1.83
8123.00,1.83
8122.00,1.83
8121.00,1.83
8120.00,1.83
8119.00,1.83
8118.00,1.83
8117.00,1.83
8116.00,1.83
8115.00,1.83
8114.00,1.83
8113.00,1.83
8112.00,1.83
8111.00,1.83
8110.00,1.83
8109.00,1.83
8108.00,1.84
8107.00,1.84
8106.00,1.84
8105.00,1.84
8104.00,1.84
8103.00,1.84
8102.00,1.84
8101.00,1.85
8100.00,1.85
8099.00,1.85
8098.00,1.85
8097.00,1.85
8096.00,1.85
8095.00,1.85
8094.00,1.85
8093.00,1.85
8092.00,1.85
8091.00,1.85
8090.00,1.85
8089.00,1.85
8088.00,1.85
8087.00,1.85
8086.00,1.84
8085.00,1.84
8084.00,1.84
8083.00,1.84
8082.00,1.84
8081.00,1.84
8080.00,1.84
8079.00,1.84
8078.00,1.84
8077.00,1.84
8076.00,1.84
8075.00,1.84
8074.00,1.84
8073.00,1.84
8072.00,1.84
8071.00,1.84
8070.00,1.84
8069.00,1.84
8068.00,1.84
8067.00,1.84
8066.00,1.84
8065.00,1.84
8064.00,1.84
8063.00,1.84
8062.00,1.84
8061.00,1.84
8060.00,1.84
8059.00,1.84
8058.00,1.84
8057.00,1.84
8056.00,1.84
8055.00,1.84
8054.00,1.84
8053.00,1.84
8052.00,1.84
8051.00,1.84
8050.00,1.84
8049.00,1.84
8048.00,1.84
8047.00,1.84
8046.00,1.84
8045.00,1.84
8044.00,1.84
8043.00,1.84
8042.00,1.84
8041.00,1.85
8040.00,1.85
8039.00,1.85
8038.00,1.85
8037.00,1.85
8036.00,1.85
8035.00,1.85
8034.00,1.85
8033.00,1.85
8032.00,1.85
8031.00,1.86
8030.00,1.86
8029.00,1.86
8028.00,1.86
8027.00,1.86
8026.00,1.86
8025.00,1.86
8024.00,1.86
8023.00,1.86
8022.00,1.86
8021.00,1.86
8020.00,1.86
8019.00,1.86
8018.00,1.86
8017.00,1.86
8016.00,1.86
8015.00,1.86
8014.00,1.86
8013.00,1.85
8012.00,1.85
8011.00,1.85
8010.00,1.85
8009.00,1.85
8008.00,1.85
8007.00,1.85
8006.00,1.85
8005.00,1.85
8004.00,1.85
8003.00,1.85
8002.00,1.85
8001.00,1.85
8000.00,1.85
7999.00,1.85
7998.00,1.85
7997.00,1.85
7996.00,1.86
7995.00,1.86
7994.00,1.86
7993.00,1.86
7992.00,1.86
7991.00,1.86
7990.00,1.86
7989.00,1.86
7988.00,1.86
7987.00,1.86
7986.00,1.86
7985.00,1.86
7984.00,1.86
7983.00,1.86
7982.00,1.86
7981.00,1.86
7980.00,1.86
7979.00,1.86
7978.00,1.86
7977.00,1.86
7976.00,1.86
7975.00,1.86
7974.00,1.86
7973.00,1.86
7972.00,1.86
7971.00,1.86
7970.00,1.86
7969.00,1.86
7968.00,1.86
7967.00,1.86
7966.00,1.86
7965.00,1.86
7964.00,1.86
7963.00,1.86
7962.00,1.86
7961.00,1.86
7960.00,1.86
7959.00,1.86
7958.00,1.86
7957.00,1.86
7956.00,1.86
7955.00,1.86
7954.00,1.86
7953.00,1.86
7952.00,1.86
7951.00,1.86
7950.00,1.86
7949.00,1.86
7948.00,1.86
7947.00,1.86
7946.00,1.86
7945.00,1.87
7944.00,1.87
7943.00,1.87
7942.00,1.87
7941.00,1.87
7940.00,1.87
7939.00,1.87
7938.00,1.88
7937.00,1.88
7936.00,1.88
7935.00,1.88
7934.00,1.88
7933.00,1.88
7932.00,1.88
7931.00,1.88
7930.00,1.88
7929.00,1.88
7928.00,1.88
7927.00,1.88
7926.00,1.88
7925.00,1.88
7924.00,1.88
7923.00,1.88
7922.00,1.88
7921.00,1.88
7920.00,1.88
7919.00,1.88
7918.00,1.88
7917.00,1.88
7916.00,1.88
7915.00,1.88
7914.00,1.88
7913.00,1.88
7912.00,1.88
7911.00,1.88
7910.00,1.88
7909.00,1.88
7908.00,1.87
7907.00,1.87
7906.00,1.87
7905.00,1.87
7904.00,1.87
7903.00,1.88
7902.00,1.88
7901.00,1.88
7900.00,1.88
7899.00,1.88
7898.00,1.88
7897.00,1.88
7896.00,1.88
7895.00,1.88
7894.00,1.88
7893.00,1.88
7892.00,1.88
7891.00,1.88
7890.00,1.88
7889.00,1.88
7888.00,1.88
7887.00,1.88
7886.00,1.88
7885.00,1.88
7884.00,1.88
7883.00,1.88
7882.00,1.88
7881.00,1.88
7880.00,1.88
7879.00,1.88
7878.00,1.88
7877.00,1.88
7876.00,1.88
7875.00,1.88
7874.00,1.88
7873.00,1.88
7872.00,1.88
7871.00,1.88
7870.00,1.88
7869.00,1.88
7868.00,1.88
7867.00,1.88
7866.00,1.88
7865.00,1.88
7864.00,1.88
7863.00,1.88
7862.00,1.88
7861.00,1.88
7860.00,1.88
7859.00,1.88
7858.00,1.88
7857.00,1.88
7856.00,1.88
7855.00,1.88
7854.00,1.88
7853.00,1.88
7852.00,1.88
7851.00,1.88
7850.00,1.88
7849.00,1.88
7848.00,1.88
7847.00,1.88
7846.00,1.88
7845.00,1.88
7844.00,1.89
7843.00,1.89
7842.00,1.89
7841.00,1.88
7840.00,1.88
7839.00,1.88
7838.00,1.88
7837.00,1.88
7836.00,1.88
7835.00,1.88
7834.00,1.88
7833.00,1.88
7832.00,1.89
7831.00,1.89
7830.00,1.89
7829.00,1.89
7828.00,1.89
7827.00,1.89
7826.00,1.89
7825.00,1.89
7824.00,1.89
7823.00,1.89
7822.00,1.89
7821.00,1.89
7820.00,1.89
7819.00,1.89
7818.00,1.89
7817.00,1.89
7816.00,1.89
7815.00,1.89
7814.00,1.89
7813.00,1.89
7812.00,1.89
7811.00,1.89
7810.00,1.89
7809.00,1.88
7808.00,1.88
7807.00,1.88
7806.00,1.88
7805.00,1.88
7804.00,1.88
7803.00,1.88
7802.00,1.88
7801.00,1.88
7800.00,1.88
7799.00,1.88
7798.00,1.88
7797.00,1.88
7796.00,1.88
7795.00,1.88
7794.00,1.88
7793.00,1.88
7792.00,1.88
7791.00,1.88
7790.00,1.88
7789.00,1.88
7788.00,1.88
7787.00,1.88
7786.00,1.88
7785.00,1.88
7784.00,1.88
7783.00,1.89
7782.00,1.89
7781.00,1.89
7780.00,1.89
7779.00,1.89
7778.00,1.89
7777.00,1.89
7776.00,1.89
7775.00,1.89
7774.00,1.89
7773.00,1.89
7772.00,1.89
7771.00,1.89
7770.00,1.90
7769.00,1.90
7768.00,1.90
7767.00,1.90
7766.00,1.90
7765.00,1.89
7764.00,1.89
7763.00,1.89
7762.00,1.89
7761.00,1.89
7760.00,1.89
7759.00,1.89
7758.00,1.89
7757.00,1.89
7756.00,1.89
7755.00,1.89
7754.00,1.89
7753.00,1.89
7752.00,1.89
7751.00,1.89
7750.00,1.89
7749.00,1.89
7748.00,1.90
7747.00,1.90
7746.00,1.90
7745.00,1.90
7744.00,1.90
7743.00,1.90
7742.00,1.90
7741.00,1.90
7740.00,1.90
7739.00,1.90
7738.00,1.90
7737.00,1.90
7736.00,1.90
7735.00,1.90
7734.00,1.90
7733.00,1.90
7732.00,1.90
7731.00,1.90
7730.00,1.90
7729.00,1.90
7728.00,1.90
7727.00,1.90
7726.00,1.90
7725.00,1.90
7724.00,1.90
7723.00,1.90
7722.00,1.90
7721.00,1.90
7720.00,1.90
7719.00,1.90
7718.00,1.90
7717.00,1.90
7716.00,1.90
7715.00,1.90
7714.00,1.90
7713.00,1.90
7712.00,1.90
7711.00,1.90
7710.00,1.90
7709.00,1.90
7708.00,1.90
7707.00,1.90
7706.00,1.90
7705.00,1.90
7704.00,1.90
7703.00,1.90
7702.00,1.90
7701.00,1.90
7700.00,1.90
7699.00,1.90
7698.00,1.90
7697.00,1.90
7696.00,1.90
7695.00,1.90
7694.00,1.90
7693.00,1.90
7692.00,1.90
7691.00,1.90
7690.00,1.90
7689.00,1.90
7688.00,1.90
7687.00,1.90
7686.00,1.90
7685.00,1.90
7684.00,1.90
7683.00,1.89
7682.00,1.89
7681.00,1.89
7680.00,1.89
7679.00,1.89
7678.00,1.89
7677.00,1.89
7676.00,1.89
7675.00,1.89
7674.00,1.89
7673.00,1.89
7672.00,1.89
7671.00,1.89
7670.00,1.89
7669.00,1.89
7668.00,1.89
7667.00,1.89
7666.00,1.89
7665.00,1.90
7664.00,1.90
7663.00,1.90
7662.00,1.90
7661.00,1.90
7660.00,1.90
7659.00,1.90
7658.00,1.90
7657.00,1.90
7656.00,1.90
7655.00,1.90
7654.00,1.90
7653.00,1.90
7652.00,1.90
7651.00,1.90
7650.00,1.90
7649.00,1.90
7648.00,1.90
7647.00,1.90
7646.00,1.90
7645.00,1.90
7644.00,1.90
7643.00,1.89
7642.00,1.89
7641.00,1.89
7640.00,1.89
7639.00,1.89
7638.00,1.89
7637.00,1.89
7636.00,1.89
7635.00,1.89
7634.00,1.89
7633.00,1.89
7632.00,1.89
7631.00,1.89
7630.00,1.89
7629.00,1.89
7628.00,1.89
7627.00,1.89
7626.00,1.89
7625.00,1.89
7624.00,1.89
7623.00,1.89
7622.00,1.89
7621.00,1.89
7620.00,1.89
7619.00,1.89
7618.00,1.89
7617.00,1.90
7616.00,1.90
7615.00,1.90
7614.00,1.90
7613.00,1.90
7612.00,1.90
7611.00,1.90
7610.00,1.90
7609.00,1.90
7608.00,1.90
7607.00,1.90
7606.00,1.90
7605.00,1.90
7604.00,1.90
7603.00,1.90
7602.00,1.90
7601.00,1.90
7600.00,1.89
7599.00,1.89
7598.00,1.89
7597.00,1.89
7596.00,1.89
7595.00,1.89
7594.00,1.89
7593.00,1.89
7592.00,1.89
7591.00,1.89
7590.00,1.89
7589.00,1.89
7588.00,1.89
7587.00,1.89
7586.00,1.89
7585.00,1.89
7584.00,1.89
7583.00,1.89
7582.00,1.88
7581.00,1.88
7580.00,1.88
7579.00,1.88
7578.00,1.88
7577.00,1.88
7576.00,1.88
7575.00,1.88
7574.00,1.88
7573.00,1.88
7572.00,1.88
7571.00,1.88
7570.00,1.89
7569.00,1.89
7568.00,1.89
7567.00,1.89
7566.00,1.89
7565.00,1.89
7564.00,1.89
7563.00,1.89
7562.00,1.89
7561.00,1.89
7560.00,1.89
7559.00,1.89
7558.00,1.89
7557.00,1.89
7556.00,1.89
7555.00,1.89
7554.00,1.89
7553.00,1.89
7552.00,1.89
7551.00,1.89
7550.00,1.89
7549.00,1.89
7548.00,1.88
7547.00,1.88
7546.00,1.88
7545.00,1.88
7544.00,1.88
7543.00,1.88
7542.00,1.88
7541.00,1.88
7540.00,1.88
7539.00,1.88
7538.00,1.88
7537.00,1.88
7536.00,1.88
7535.00,1.88
7534.00,1.88
7533.00,1.87
7532.00,1.87
7531.00,1.87
7530.00,1.87
7529.00,1.87
7528.00,1.87
7527.00,1.87
7526.00,1.87
7525.00,1.87
7524.00,1.87
7523.00,1.87
7522.00,1.87
7521.00,1.87
7520.00,1.87
7519.00,1.87
7518.00,1.86
7517.00,1.86
7516.00,1.86
7515.00,1.86
7514.00,1.86
7513.00,1.86
7512.00,1.86
7511.00,1.86
7510.00,1.86
7509.00,1.86
7508.00,1.86
7507.00,1.86
7506.00,1.86
7505.00,1.86
7504.00,1.86
7503.00,1.85
7502.00,1.85
7501.00,1.85
7500.00,1.85
7499.00,1.85
7498.00,1.85
7497.00,1.85
7496.00,1.85
7495.00,1.85
7494.00,1.85
7493.00,1.85
7492.00,1.85
7491.00,1.85
7490.00,1.85
7489.00,1.85
7488.00,1.85
7487.00,1.85
7486.00,1.85
7485.00,1.85
7484.00,1.85
7483.00,1.85
7482.00,1.85
7481.00,1.85
7480.00,1.85
7479.00,1.85
7478.00,1.84
7477.00,1.84
7476.00,1.84
7475.00,1.84
7474.00,1.84
7473.00,1.84
7472.00,1.84
7471.00,1.84
7470.00,1.83
7469.00,1.83
7468.00,1.83
7467.00,1.83
7466.00,1.83
7465.00,1.83
7464.00,1.83
7463.00,1.83
7462.00,1.83
7461.00,1.83
7460.00,1.83
7459.00,1.83
7458.00,1.83
7457.00,1.83
7456.00,1.83
7455.00,1.83
7454.00,1.83
7453.00,1.83
7452.00,1.83
7451.00,1.83
7450.00,1.83
7449.00,1.82
7448.00,1.82
7447.00,1.82
7446.00,1.82
7445.00,1.82
7444.00,1.82
7443.00,1.82
7442.00,1.82
7441.00,1.81
7440.00,1.81
7439.00,1.81
7438.00,1.81
7437.00,1.81
7436.00,1.81
7435.00,1.81
7434.00,1.80
7433.00,1.80
7432.00,1.80
7431.00,1.80
7430.00,1.80
7429.00,1.80
7428.00,1.80
7427.00,1.80
7426.00,1.79
7425.00,1.79
7424.00,1.79
7423.00,1.79
7422.00,1.79
7421.00,1.79
7420.00,1.79
7419.00,1.79
7418.00,1.79
7417.00,1.79
7416.00,1.79
7415.00,1.78
7414.00,1.78
7413.00,1.78
7412.00,1.78
7411.00,1.78
7410.00,1.78
7409.00,1.78
7408.00,1.78
7407.00,1.78
7406.00,1.78
7405.00,1.78
7404.00,1.78
7403.00,1.78
7402.00,1.77
7401.00,1.77
7400.00,1.77
7399.00,1.77
7398.00,1.77
7397.00,1.77
7396.00,1.77
7395.00,1.77
7394.00,1.77
7393.00,1.77
7392.00,1.77
7391.00,1.77
7390.00,1.77
7389.00,1.76
7388.00,1.76
7387.00,1.76
7386.00,1.76
7385.00,1.76
7384.00,1.76
7383.00,1.76
7382.00,1.76
7381.00,1.76
7380.00,1.76
7379.00,1.76
7378.00,1.76
7377.00,1.76
7376.00,1.76
7375.00,1.76
7374.00,1.75
7373.00,1.75
7372.00,1.75
7371.00,1.75
7370.00,1.75
7369.00,1.75
7368.00,1.75
7367.00,1.75
7366.00,1.75
7365.00,1.75
7364.00,1.75
7363.00,1.75
7362.00,1.74
7361.00,1.74
7360.00,1.74
7359.00,1.74
7358.00,1.74
7357.00,1.74
7356.00,1.74
7355.00,1.74
7354.00,1.74
7353.00,1.74
7352.00,1.74
7351.00,1.74
7350.00,1.74
7349.00,1.74
7348.00,1.73
7347.00,1.73
7346.00,1.73
7345.00,1.73
7344.00,1.73
7343.00,1.73
7342.00,1.73
7341.00,1.73
7340.00,1.73
7339.00,1.74
7338.00,1.74
7337.00,1.74
7336.00,1.74
7335.00,1.74
7334.00,1.74
7333.00,1.74
7332.00,1.74
7331.00,1.74
7330.00,1.74
7329.00,1.74
7328.00,1.74
7327.00,1.74
7326.00,1.74
7325.00,1.74
7324.00,1.74
7323.00,1.74
7322.00,1.74
7321.00,1.74
7320.00,1.74
7319.00,1.74
7318.00,1.74
7317.00,1.74
7316.00,1.73
7315.00,1.73
7314.00,1.73
7313.00,1.73
7312.00,1.73
7311.00,1.72
7310.00,1.72
7309.00,1.72
7308.00,1.72
7307.00,1.72
7306.00,1.71
7305.00,1.71
7304.00,1.71
7303.00,1.71
7302.00,1.71
7301.00,1.70
7300.00,1.70
7299.00,1.70
7298.00,1.70
7297.00,1.70
7296.00,1.70
7295.00,1.70
7294.00,1.69
7293.00,1.69
7292.00,1.69
7291.00,1.69
7290.00,1.69
7289.00,1.69
7288.00,1.69
7287.00,1.69
7286.00,1.69
7285.00,1.69
7284.00,1.69
7283.00,1.69
7282.00,1.69
7281.00,1.69
7280.00,1.69
7279.00,1.68
7278.00,1.68
7277.00,1.68
7276.00,1.68
7275.00,1.68
7274.00,1.67
7273.00,1.67
7272.00,1.67
7271.00,1.67
7270.00,1.67
7269.00,1.66
7268.00,1.66
7267.00,1.66
7266.00,1.66
7265.00,1.66
7264.00,1.65
7263.00,1.65
7262.00,1.65
7261.00,1.65
7260.00,1.65
7259.00,1.64
7258.00,1.64
7257.00,1.64
7256.00,1.64
7255.00,1.64
7254.00,1.63
7253.00,1.63
7252.00,1.63
7251.00,1.63
7250.00,1.62
7249.00,1.62
7248.00,1.62
7247.00,1.61
7246.00,1.61
7245.00,1.61
7244.00,1.60
7243.00,1.60
7242.00,1.59
7241.00,1.59
7240.00,1.59
7239.00,1.58
7238.00,1.58
7237.00,1.58
7236.00,1.58
7235.00,1.57
7234.00,1.57
7233.00,1.57
7232.00,1.56
7231.00,1.56
7230.00,1.56
7229.00,1.55
7228.00,1.55
7227.00,1.55
7226.00,1.54
7225.00,1.54
7224.00,1.53
7223.00,1.53
7222.00,1.53
7221.00,1.52
7220.00,1.52
7219.00,1.51
7218.00,1.51
7217.00,1.50
7216.00,1.49
7215.00,1.49
7214.00,1.48
7213.00,1.48
7212.00,1.47
7211.00,1.46
7210.00,1.46
7209.00,1.45
7208.00,1.45
7207.00,1.44
7206.00,1.43
7205.00,1.43
7204.00,1.42
7203.00,1.41
7202.00,1.41
7201.00,1.40
7200.00,1.39
7199.00,1.39
7198.00,1.38
7197.00,1.37
7196.00,1.37
7195.00,1.36
7194.00,1.36
7193.00,1.35
7192.00,1.35
7191.00,1.34
7190.00,1.34
7189.00,1.33
7188.00,1.33
7187.00,1.32
7186.00,1.31
7185.00,1.31
7184.00,1.30
7183.00,1.30
7182.00,1.29
7181.00,1.29
7180.00,1.28
7179.00,1.28
7178.00,1.27
7177.00,1.27
7176.00,1.26
7175.00,1.26
7174.00,1.25
7173.00,1.25
7172.00,1.24
7171.00,1.24
7170.00,1.23
7169.00,1.23
7168.00,1.23
7167.00,1.22
7166.00,1.22
7165.00,1.21
7164.00,1.21
7163.00,1.21
7162.00,1.20
7161.00,1.20
7160.00,1.19
7159.00,1.19
7158.00,1.19
7157.00,1.18
7156.00,1.18
7155.00,1.17
7154.00,1.17
7153.00,1.16
7152.00,1.16
7151.00,1.15
7150.00,1.15
7149.00,1.14
7148.00,1.14
7147.00,1.13
7146.00,1.13
7145.00,1.12
7144.00,1.12
7143.00,1.11
7142.00,1.11
7141.00,1.10
7140.00,1.10
7139.00,1.09
7138.00,1.09
7137.00,1.08
7136.00,1.08
7135.00,1.08
7134.00,1.07
7133.00,1.07
7132.00,1.07
7131.00,1.06
7130.00,1.06
7129.00,1.06
7128.00,1.05
7127.00,1.05
7126.00,1.05
7125.00,1.04
7124.00,1.04
7123.00,1.04
7122.00,1.03
7121.00,1.03
7120.00,1.03
7119.00,1.02
7118.00,1.02
7117.00,1.02
7116.00,1.02
7115.00,1.01
7114.00,1.01
7113.00,1.01
7112.00,1.00
7111.00,1.00
7110.00,1.00
7109.00,1.00
7108.00,0.99
7107.00,0.99
7106.00,0.99
7105.00,0.98
7104.00,0.98
7103.00,0.98
7102.00,0.98
7101.00,0.97
7100.00,0.97
7099.00,0.97
7098.00,0.97
7097.00,0.96
7096.00,0.96
7095.00,0.96
7094.00,0.96
7093.00,0.95
7092.00,0.95
7091.00,0.95
7090.00,0.95
7089.00,0.94
7088.00,0.94
7087.00,0.94
7086.00,0.94
7085.00,0.93
7084.00,0.93
7083.00,0.93
7082.00,0.92
7081.00,0.92
7080.00,0.92
7079.00,0.92
7078.00,0.91
7077.00,0.91
7076.00,0.91
7075.00,0.91
7074.00,0.90
7073.00,0.90
7072.00,0.90
7071.00,0.90
7070.00,0.90
7069.00,0.89
7068.00,0.89
7067.00,0.89
7066.00,0.89
7065.00,0.88
7064.00,0.88
7063.00,0.88
7062.00,0.88
7061.00,0.88
7060.00,0.87
7059.00,0.87
7058.00,0.87
7057.00,0.87
7056.00,0.87
7055.00,0.86
7054.00,0.86
7053.00,0.86
7052.00,0.86
7051.00,0.86
7050.00,0.86
7049.00,0.85
7048.00,0.85
7047.00,0.85
7046.00,0.85
7045.00,0.85
7044.00,0.85
7043.00,0.85
7042.00,0.85
7041.00,0.85
7040.00,0.85
7039.00,0.84
7038.00,0.84
7037.00,0.84
7036.00,0.84
7035.00,0.84
7034.00,0.84
7033.00,0.84
7032.00,0.84
7031.00,0.84
7030.00,0.83
7029.00,0.83
7028.00,0.83
7027.00,0.83
7026.00,0.83
7025.00,0.83
7024.00,0.83
7023.00,0.83
7022.00,0.82
7021.00,0.82
7020.00,0.82
7019.00,0.82
7018.00,0.82
7017.00,0.82
7016.00,0.82
7015.00,0.81
7014.00,0.81
7013.00,0.81
7012.00,0.81
7011.00,0.81
7010.00,0.81
7009.00,0.80
7008.00,0.80
7007.00,0.80
7006.00,0.80
7005.00,0.80
7004.00,0.80
7003.00,0.80
7002.00,0.80
7001.00,0.80
7000.00,0.79
6999.00,0.79
6998.00,0.79
6997.00,0.79
6996.00,0.79
6995.00,0.79
6994.00,0.79
6993.00,0.79
6992.00,0.79
6991.00,0.79
6990.00,0.79
6989.00,0.79
6988.00,0.79
6987.00,0.79
6986.00,0.78
6985.00,0.78
6984.00,0.78
6983.00,0.78
6982.00,0.78
6981.00,0.78
6980.00,0.78
6979.00,0.78
6978.00,0.78
6977.00,0.78
6976.00,0.78
6975.00,0.78
6974.00,0.78
6973.00,0.78
6972.00,0.78
6971.00,0.78
6970.00,0.78
6969.00,0.77
6968.00,0.77
6967.00,0.77
6966.00,0.77
6965.00,0.77
6964.00,0.77
6963.00,0.77
6962.00,0.77
6961.00,0.77
6960.00,0.77
6959.00,0.77
6958.00,0.77
6957.00,0.77
6956.00,0.77
6955.00,0.77
6954.00,0.77
6953.00,0.77
6952.00,0.76
6951.00,0.76
6950.00,0.76
6949.00,0.76
6948.00,0.76
6947.00,0.76
6946.00,0.76
6945.00,0.76
6944.00,0.76
6943.00,0.76
6942.00,0.75
6941.00,0.75
6940.00,0.75
6939.00,0.75
6938.00,0.75
6937.00,0.75
6936.00,0.75
6935.00,0.75
6934.00,0.75
6933.00,0.75
6932.00,0.75
6931.00,0.75
6930.00,0.76
6929.00,0.76
6928.00,0.76
6927.00,0.76
6926.00,0.76
6925.00,0.76
6924.00,0.76
6923.00,0.76
6922.00,0.76
6921.00,0.76
6920.00,0.76
6919.00,0.76
6918.00,0.76
6917.00,0.76
6916.00,0.76
6915.00,0.76
6914.00,0.76
6913.00,0.76
6912.00,0.76
6911.00,0.76
6910.00,0.76
6909.00,0.76
6908.00,0.76
6907.00,0.76
6906.00,0.76
6905.00,0.76
6904.00,0.75
6903.00,0.75
6902.00,0.75
6901.00,0.75
6900.00,0.75
6899.00,0.75
6898.00,0.75
6897.00,0.75
6896.00,0.75
6895.00,0.75
6894.00,0.75
6893.00,0.75
6892.00,0.75
6891.00,0.75
6890.00,0.75
6889.00,0.75
6888.00,0.75
6887.00,0.75
6886.00,0.75
6885.00,0.75
6884.00,0.75
6883.00,0.75
6882.00,0.75
6881.00,0.75
6880.00,0.75
6879.00,0.75
6878.00,0.75
6877.00,0.75
6876.00,0.75
6875.00,0.75
6874.00,0.75
6873.00,0.75
6872.00,0.75
6871.00,0.75
6870.00,0.75
6869.00,0.75
6868.00,0.75
6867.00,0.75
6866.00,0.76
6865.00,0.76
6864.00,0.76
6863.00,0.76
6862.00,0.76
6861.00,0.76
6860.00,0.76
6859.00,0.76
6858.00,0.76
6857.00,0.76
6856.00,0.76
6855.00,0.76
6854.00,0.76
6853.00,0.76
6852.00,0.75
6851.00,0.75
6850.00,0.75
6849.00,0.75
6848.00,0.75
6847.00,0.75
6846.00,0.75
6845.00,0.75
6844.00,0.75
6843.00,0.75
6842.00,0.75
6841.00,0.75
6840.00,0.75
6839.00,0.75
6838.00,0.75
6837.00,0.75
6836.00,0.75
6835.00,0.75
6834.00,0.75
6833.00,0.75
6832.00,0.75
6831.00,0.75
6830.00,0.76
6829.00,0.76
6828.00,0.76
6827.00,0.76
6826.00,0.76
6825.00,0.76
6824.00,0.76
6823.00,0.76
6822.00,0.76
6821.00,0.76
6820.00,0.76
6819.00,0.76
6818.00,0.76
6817.00,0.76
6816.00,0.76
6815.00,0.77
6814.00,0.77
6813.00,0.77
6812.00,0.77
6811.00,0.77
6810.00,0.77
6809.00,0.77
6808.00,0.77
6807.00,0.77
6806.00,0.77
6805.00,0.77
6804.00,0.77
6803.00,0.77
6802.00,0.77
6801.00,0.77
6800.00,0.77
6799.00,0.77
6798.00,0.77
6797.00,0.77
6796.00,0.77
6795.00,0.78
6794.00,0.78
6793.00,0.78
6792.00,0.78
6791.00,0.78
6790.00,0.78
6789.00,0.78
6788.00,0.78
6787.00,0.78
6786.00,0.78
6785.00,0.79
6784.00,0.79
6783.00,0.79
6782.00,0.79
6781.00,0.79
6780.00,0.79
6779.00,0.79
6778.00,0.79
6777.00,0.79
6776.00,0.79
6775.00,0.79
6774.00,0.79
6773.00,0.79
6772.00,0.79
6771.00,0.79
6770.00,0.80
6769.00,0.80
6768.00,0.80
6767.00,0.80
6766.00,0.80
6765.00,0.80
6764.00,0.81
6763.00,0.81
6762.00,0.81
6761.00,0.81
6760.00,0.81
6759.00,0.81
6758.00,0.82
6757.00,0.82
6756.00,0.82
6755.00,0.82
6754.00,0.82
6753.00,0.82
6752.00,0.82
6751.00,0.82
6750.00,0.82
6749.00,0.82
6748.00,0.82
6747.00,0.82
6746.00,0.82
6745.00,0.82
6744.00,0.82
6743.00,0.82
6742.00,0.82
6741.00,0.82
6740.00,0.82
6739.00,0.82
6738.00,0.82
6737.00,0.83
6736.00,0.83
6735.00,0.83
6734.00,0.83
6733.00,0.83
6732.00,0.83
6731.00,0.83
6730.00,0.83
6729.00,0.83
6728.00,0.84
6727.00,0.84
6726.00,0.84
6725.00,0.84
6724.00,0.84
6723.00,0.84
6722.00,0.85
6721.00,0.85
6720.00,0.85
6719.00,0.85
6718.00,0.85
6717.00,0.85
6716.00,0.86
6715.00,0.86
6714.00,0.86
6713.00,0.86
6712.00,0.86
6711.00,0.86
6710.00,0.86
6709.00,0.86
6708.00,0.86
6707.00,0.86
6706.00,0.87
6705.00,0.87
6704.00,0.87
6703.00,0.87
6702.00,0.87
6701.00,0.87
6700.00,0.87
6699.00,0.87
6698.00,0.87
6697.00,0.87
6696.00,0.87
6695.00,0.87
6694.00,0.87
6693.00,0.88
6692.00,0.88
6691.00,0.88
6690.00,0.88
6689.00,0.88
6688.00,0.88
6687.00,0.89
6686.00,0.89
6685.00,0.89
6684.00,0.89
6683.00,0.89
6682.00,0.90
6681.00,0.90
6680.00,0.90
6679.00,0.90
6678.00,0.90
6677.00,0.90
6676.00,0.90
6675.00,0.90
6674.00,0.91
6673.00,0.91
6672.00,0.91
6671.00,0.91
6670.00,0.91
6669.00,0.91
6668.00,0.91
6667.00,0.92
6666.00,0.92
6665.00,0.92
6664.00,0.92
6663.00,0.92
6662.00,0.92
6661.00,0.93
6660.00,0.93
6659.00,0.93
6658.00,0.93
6657.00,0.93
6656.00,0.94
6655.00,0.94
6654.00,0.94
6653.00,0.94
6652.00,0.94
6651.00,0.94
6650.00,0.94
6649.00,0.95
6648.00,0.95
6647.00,0.95
6646.00,0.95
6645.00,0.95
6644.00,0.95
6643.00,0.95
6642.00,0.96
6641.00,0.96
6640.00,0.96
6639.00,0.96
6638.00,0.96
6637.00,0.96
6636.00,0.97
6635.00,0.97
6634.00,0.97
6633.00,0.97
6632.00,0.97
6631.00,0.97
6630.00,0.97
6629.00,0.97
6628.00,0.98
6627.00,0.98
6626.00,0.98
6625.00,0.98
6624.00,0.98
6623.00,0.98
6622.00,0.98
6621.00,0.98
6620.00,0.98
6619.00,0.98
6618.00,0.98
6617.00,0.98
6616.00,0.99
6615.00,0.99
6614.00,0.99
6613.00,0.99
6612.00,0.99
6611.00,0.99
6610.00,1.00
6609.00,1.00
6608.00,1.00
6607.00,1.00
6606.00,1.01
6605.00,1.01
6604.00,1.01
6603.00,1.01
6602.00,1.01
6601.00,1.02
6600.00,1.02
6599.00,1.02
6598.00,1.02
6597.00,1.02
6596.00,1.03
6595.00,1.03
6594.00,1.03
6593.00,1.03
6592.00,1.03
6591.00,1.03
6590.00,1.03
6589.00,1.04
6588.00,1.04
6587.00,1.04
6586.00,1.04
6585.00,1.04
6584.00,1.04
6583.00,1.04
6582.00,1.05
6581.00,1.05
6580.00,1.05
6579.00,1.05
6578.00,1.05
6577.00,1.05
6576.00,1.05
6575.00,1.06
6574.00,1.06
6573.00,1.06
6572.00,1.06
6571.00,1.06
6570.00,1.07
6569.00,1.07
6568.00,1.07
6567.00,1.07
6566.00,1.07
6565.00,1.07
6564.00,1.08
6563.00,1.08
6562.00,1.08
6561.00,1.08
6560.00,1.08
6559.00,1.08
6558.00,1.08
6557.00,1.09
6556.00,1.09
6555.00,1.09
6554.00,1.09
6553.00,1.09
6552.00,1.09
6551.00,1.09
6550.00,1.10
6549.00,1.10
6548.00,1.10
6547.00,1.10
6546.00,1.10
6545.00,1.10
6544.00,1.10
6543.00,1.11
6542.00,1.11
6541.00,1.11
6540.00,1.11
6539.00,1.11
6538.00,1.11
6537.00,1.11
6536.00,1.12
6535.00,1.12
6534.00,1.12
6533.00,1.12
6532.00,1.12
6531.00,1.13
6530.00,1.13
6529.00,1.13
6528.00,1.13
6527.00,1.13
6526.00,1.13
6525.00,1.13
6524.00,1.13
6523.00,1.13
6522.00,1.14
6521.00,1.14
6520.00,1.14
6519.00,1.14
6518.00,1.14
6517.00,1.14
6516.00,1.14
6515.00,1.14
6514.00,1.14
6513.00,1.14
6512.00,1.14
6511.00,1.15
6510.00,1.15
6509.00,1.15
6508.00,1.15
6507.00,1.15
6506.00,1.15
6505.00,1.15
6504.00,1.16
6503.00,1.16
6502.00,1.16
6501.00,1.16
6500.00,1.16
6499.00,1.16
6498.00,1.17
6497.00,1.17
6496.00,1.17
6495.00,1.17
6494.00,1.17
6493.00,1.17
6492.00,1.17
6491.00,1.18
6490.00,1.18
6489.00,1.18
6488.00,1.18
6487.00,1.18
6486.00,1.18
6485.00,1.18
6484.00,1.19
6483.00,1.19
6482.00,1.19
6481.00,1.19
6480.00,1.19
6479.00,1.20
6478.00,1.20
6477.00,1.20
6476.00,1.20
6475.00,1.20
6474.00,1.21
6473.00,1.21
6472.00,1.21
6471.00,1.21
6470.00,1.21
6469.00,1.21
6468.00,1.21
6467.00,1.21
6466.00,1.21
6465.00,1.21
6464.00,1.22
6463.00,1.22
6462.00,1.22
6461.00,1.22
6460.00,1.22
6459.00,1.22
6458.00,1.22
6457.00,1.22
6456.00,1.22
6455.00,1.22
6454.00,1.22
6453.00,1.22
6452.00,1.23
6451.00,1.23
6450.00,1.23
6449.00,1.23
6448.00,1.23
6447.00,1.23
6446.00,1.23
6445.00,1.24
6444.00,1.24
6443.00,1.24
6442.00,1.24
6441.00,1.24
6440.00,1.24
6439.00,1.24
6438.00,1.24
6437.00,1.24
6436.00,1.25
6435.00,1.25
6434.00,1.25
6433.00,1.25
6432.00,1.25
6431.00,1.25
6430.00,1.25
6429.00,1.26
6428.00,1.26
6427.00,1.26
6426.00,1.26
6425.00,1.26
6424.00,1.26
6423.00,1.27
6422.00,1.27
6421.00,1.27
6420.00,1.27
6419.00,1.27
6418.00,1.27
6417.00,1.27
6416.00,1.27
6415.00,1.28
6414.00,1.28
6413.00,1.28
6412.00,1.28
6411.00,1.28
6410.00,1.28
6409.00,1.28
6408.00,1.28
6407.00,1.29
6406.00,1.29
6405.00,1.29
6404.00,1.29
6403.00,1.29
6402.00,1.29
6401.00,1.29
6400.00,1.29
6399.00,1.30
6398.00,1.30
6397.00,1.30
6396.00,1.30
6395.00,1.30
6394.00,1.30
6393.00,1.30
6392.00,1.30
6391.00,1.31
6390.00,1.31
6389.00,1.31
6388.00,1.31
6387.00,1.31
6386.00,1.31
6385.00,1.31
6384.00,1.31
6383.00,1.32
6382.00,1.32
6381.00,1.32
6380.00,1.32
6379.00,1.32
6378.00,1.32
6377.00,1.32
6376.00,1.33
6375.00,1.33
6374.00,1.33
6373.00,1.33
6372.00,1.33
6371.00,1.33
6370.00,1.33
6369.00,1.33
6368.00,1.33
6367.00,1.34
6366.00,1.34
6365.00,1.34
6364.00,1.34
6363.00,1.34
6362.00,1.34
6361.00,1.34
6360.00,1.34
6359.00,1.35
6358.00,1.35
6357.00,1.35
6356.00,1.35
6355.00,1.35
6354.00,1.36
6353.00,1.36
6352.00,1.36
6351.00,1.36
6350.00,1.36
6349.00,1.36
6348.00,1.37
6347.00,1.37
6346.00,1.37
6345.00,1.37
6344.00,1.37
6343.00,1.37
6342.00,1.37
6341.00,1.37
6340.00,1.38
6339.00,1.38
6338.00,1.38
6337.00,1.38
6336.00,1.38
6335.00,1.38
6334.00,1.39
6333.00,1.39
6332.00,1.39
6331.00,1.39
6330.00,1.39
6329.00,1.40
6328.00,1.40
6327.00,1.40
6326.00,1.40
6325.00,1.40
6324.00,1.41
6323.00,1.41
6322.00,1.41
6321.00,1.41
6320.00,1.41
6319.00,1.42
6318.00,1.42
6317.00,1.42
6316.00,1.42
6315.00,1.42
6314.00,1.43
6313.00,1.43
6312.00,1.43
6311.00,1.43
6310.00,1.43
6309.00,1.44
6308.00,1.44
6307.00,1.44
6306.00,1.44
6305.00,1.44
6304.00,1.44
6303.00,1.44
6302.00,1.45
6301.00,1.45
6300.00,1.45
6299.00,1.45
6298.00,1.45
6297.00,1.45
6296.00,1.45
6295.00,1.46
6294.00,1.46
6293.00,1.46
6292.00,1.46
6291.00,1.46
6290.00,1.46
6289.00,1.46
6288.00,1.46
6287.00,1.47
6286.00,1.47
6285.00,1.47
6284.00,1.47
6283.00,1.47
6282.00,1.47
6281.00,1.47
6280.00,1.48
6279.00,1.48
6278.00,1.48
6277.00,1.48
6276.00,1.48
6275.00,1.49
6274.00,1.49
6273.00,1.49
6272.00,1.49
6271.00,1.49
6270.00,1.50
6269.00,1.50
6268.00,1.50
6267.00,1.50
6266.00,1.50
6265.00,1.50
6264.00,1.51
6263.00,1.51
6262.00,1.51
6261.00,1.51
6260.00,1.51
6259.00,1.51
6258.00,1.52
6257.00,1.52
6256.00,1.52
6255.00,1.52
6254.00,1.52
6253.00,1.52
6252.00,1.52
6251.00,1.53
6250.00,1.53
6249.00,1.53
6248.00,1.53
6247.00,1.53
6246.00,1.53
6245.00,1.54
6244.00,1.54
6243.00,1.54
6242.00,1.54
6241.00,1.54
6240.00,1.54
6239.00,1.55
6238.00,1.55
6237.00,1.55
6236.00,1.55
6235.00,1.55
6234.00,1.55
6233.00,1.56
6232.00,1.56
6231.00,1.56
6230.00,1.56
6229.00,1.56
6228.00,1.56
6227.00,1.56
6226.00,1.57
6225.00,1.57
6224.00,1.57
6223.00,1.57
6222.00,1.57
6221.00,1.57
6220.00,1.57
6219.00,1.57
6218.00,1.57
6217.00,1.58
6216.00,1.58
6215.00,1.58
6214.00,1.58
6213.00,1.58
6212.00,1.58
6211.00,1.59
6210.00,1.59
6209.00,1.59
6208.00,1.59
6207.00,1.60
6206.00,1.60
6205.00,1.60
6204.00,1.60
6203.00,1.60
6202.00,1.61
6201.00,1.61
6200.00,1.61
6199.00,1.61
6198.00,1.62
6197.00,1.62
6196.00,1.62
6195.00,1.62
6194.00,1.62
6193.00,1.63
6192.00,1.63
6191.00,1.63
6190.00,1.63
6189.00,1.63
6188.00,1.63
6187.00,1.63
6186.00,1.64
6185.00,1.64
6184.00,1.64
6183.00,1.64
6182.00,1.64
6181.00,1.64
6180.00,1.64
6179.00,1.65
6178.00,1.65
6177.00,1.65
6176.00,1.65
6175.00,1.65
6174.00,1.65
6173.00,1.66
6172.00,1.66
6171.00,1.66
6170.00,1.66
6169.00,1.67
6168.00,1.67
6167.00,1.67
6166.00,1.67
6165.00,1.67
6164.00,1.68
6163.00,1.68
6162.00,1.68
6161.00,1.68
6160.00,1.68
6159.00,1.69
6158.00,1.69
6157.00,1.69
6156.00,1.69
6155.00,1.69
6154.00,1.69
6153.00,1.70
6152.00,1.70
6151.00,1.70
6150.00,1.70
6149.00,1.70
6148.00,1.70
6147.00,1.71
6146.00,1.71
6145.00,1.71
6144.00,1.71
6143.00,1.71
6142.00,1.71
6141.00,1.71
6140.00,1.71
6139.00,1.72
6138.00,1.72
6137.00,1.72
6136.00,1.72
6135.00,1.72
6134.00,1.72
6133.00,1.73
6132.00,1.73
6131.00,1.73
6130.00,1.73
6129.00,1.73
6128.00,1.73
6127.00,1.74
6126.00,1.74
6125.00,1.74
6124.00,1.74
6123.00,1.74
6122.00,1.74
6121.00,1.75
6120.00,1.75
6119.00,1.75
6118.00,1.75
6117.00,1.75
6116.00,1.75
6115.00,1.76
6114.00,1.76
6113.00,1.76
6112.00,1.76
6111.00,1.76
6110.00,1.76
6109.00,1.77
6108.00,1.77
6107.00,1.77
6106.00,1.77
6105.00,1.77
6104.00,1.77
6103.00,1.77
6102.00,1.78
6101.00,1.78
6100.00,1.78
6099.00,1.78
6098.00,1.78
6097.00,1.79
6096.00,1.79
6095.00,1.79
6094.00,1.79
6093.00,1.79
6092.00,1.80
6091.00,1.80
6090.00,1.80
6089.00,1.80
6088.00,1.80
6087.00,1.81
6086.00,1.81
6085.00,1.81
6084.00,1.81
6083.00,1.81
6082.00,1.81
6081.00,1.81
6080.00,1.82
6079.00,1.82
6078.00,1.82
6077.00,1.82
6076.00,1.82
6075.00,1.82
6074.00,1.82
6073.00,1.82
6072.00,1.82
6071.00,1.83
6070.00,1.83
6069.00,1.83
6068.00,1.83
6067.00,1.83
6066.00,1.83
6065.00,1.83
6064.00,1.83
6063.00,1.84
6062.00,1.84
6061.00,1.84
6060.00,1.84
6059.00,1.84
6058.00,1.84
6057.00,1.84
6056.00,1.84
6055.00,1.84
6054.00,1.84
6053.00,1.84
6052.00,1.84
6051.00,1.85
6050.00,1.85
6049.00,1.85
6048.00,1.85
6047.00,1.85
6046.00,1.85
6045.00,1.85
6044.00,1.85
6043.00,1.85
6042.00,1.85
6041.00,1.85
6040.00,1.85
6039.00,1.86
6038.00,1.86
6037.00,1.86
6036.00,1.86
6035.00,1.86
6034.00,1.86
6033.00,1.86
6032.00,1.86
6031.00,1.87
6030.00,1.87
6029.00,1.87
6028.00,1.87
6027.00,1.87
6026.00,1.87
6025.00,1.87
6024.00,1.87
6023.00,1.87
6022.00,1.87
6021.00,1.88
6020.00,1.88
6019.00,1.88
6018.00,1.88
6017.00,1.88
6016.00,1.88
6015.00,1.88
6014.00,1.88
6013.00,1.88
6012.00,1.88
6011.00,1.88
6010.00,1.88
6009.00,1.88
6008.00,1.88
6007.00,1.88
6006.00,1.88
6005.00,1.88
6004.00,1.88
6003.00,1.88
6002.00,1.88
6001.00,1.88
6000.00,1.88
5999.00,1.88
5998.00,1.88
5997.00,1.88
5996.00,1.88
5995.00,1.88
5994.00,1.88
5993.00,1.88
5992.00,1.87
5991.00,1.87
5990.00,1.87
5989.00,1.87
5988.00,1.87
5987.00,1.86
5986.00,1.86
5985.00,1.86
5984.00,1.86
5983.00,1.85
5982.00,1.85
5981.00,1.85
5980.00,1.85
5979.00,1.84
5978.00,1.84
5977.00,1.83
5976.00,1.83
5975.00,1.83
5974.00,1.82
5973.00,1.82
5972.00,1.81
5971.00,1.81
5970.00,1.80
5969.00,1.80
5968.00,1.79
5967.00,1.78
5966.00,1.78
5965.00,1.77
5964.00,1.76
5963.00,1.76
5962.00,1.75
5961.00,1.74
5960.00,1.74
5959.00,1.73
5958.00,1.72
5957.00,1.72
5956.00,1.71
5955.00,1.71
5954.00,1.70
5953.00,1.70
5952.00,1.69
5951.00,1.69
5950.00,1.68
5949.00,1.68
5948.00,1.67
5947.00,1.67
5946.00,1.67
5945.00,1.67
5944.00,1.66
5943.00,1.66
5942.00,1.66
5941.00,1.66
5940.00,1.66
5939.00,1.66
5938.00,1.66
5937.00,1.66
5936.00,1.66
5935.00,1.65
5934.00,1.65
5933.00,1.65
5932.00,1.65
5931.00,1.65
5930.00,1.65
5929.00,1.65
5928.00,1.64
5927.00,1.64
5926.00,1.64
5925.00,1.64
5924.00,1.63
5923.00,1.63
5922.00,1.63
5921.00,1.63
5920.00,1.62
5919.00,1.62
5918.00,1.62
5917.00,1.61
5916.00,1.61
5915.00,1.61
5914.00,1.61
5913.00,1.60
5912.00,1.60
5911.00,1.60
5910.00,1.60
5909.00,1.60
5908.00,1.60
5907.00,1.59
5906.00,1.59
5905.00,1.59
5904.00,1.59
5903.00,1.59
5902.00,1.59
5901.00,1.59
5900.00,1.59
5899.00,1.60
5898.00,1.60
5897.00,1.60
5896.00,1.60
5895.00,1.60
5894.00,1.61
5893.00,1.61
5892.00,1.61
5891.00,1.61
5890.00,1.62
5889.00,1.62
5888.00,1.62
5887.00,1.63
5886.00,1.63
5885.00,1.63
5884.00,1.64
5883.00,1.64
5882.00,1.64
5881.00,1.65
5880.00,1.65
5879.00,1.65
5878.00,1.66
5877.00,1.66
5876.00,1.66
5875.00,1.67
5874.00,1.67
5873.00,1.67
5872.00,1.68
5871.00,1.68
5870.00,1.68
5869.00,1.68
5868.00,1.69
5867.00,1.69
5866.00,1.69
5865.00,1.69
5864.00,1.69
5863.00,1.69
5862.00,1.70
5861.00,1.70
5860.00,1.70
5859.00,1.70
5858.00,1.70
5857.00,1.70
5856.00,1.70
5855.00,1.70
5854.00,1.70
5853.00,1.70
5852.00,1.70
5851.00,1.70
5850.00,1.70
5849.00,1.70
5848.00,1.70
5847.00,1.70
5846.00,1.70
5845.00,1.70
5844.00,1.70
5843.00,1.70
5842.00,1.70
5841.00,1.70
5840.00,1.70
5839.00,1.70
5838.00,1.70
5837.00,1.70
5836.00,1.70
5835.00,1.70
5834.00,1.70
5833.00,1.70
5832.00,1.70
5831.00,1.70
5830.00,1.70
5829.00,1.70
5828.00,1.70
5827.00,1.70
5826.00,1.70
5825.00,1.70
5824.00,1.70
5823.00,1.70
5822.00,1.70
5821.00,1.70
5820.00,1.70
5819.00,1.70
5818.00,1.70
5817.00,1.70
5816.00,1.70
5815.00,1.70
5814.00,1.70
5813.00,1.70
5812.00,1.70
5811.00,1.70
5810.00,1.70
5809.00,1.70
5808.00,1.70
5807.00,1.70
5806.00,1.70
5805.00,1.70
5804.00,1.70
5803.00,1.69
5802.00,1.69
5801.00,1.69
5800.00,1.69
5799.00,1.69
5798.00,1.69
5797.00,1.68
5796.00,1.68
5795.00,1.68
5794.00,1.68
5793.00,1.68
5792.00,1.67
5791.00,1.67
5790.00,1.67
5789.00,1.67
5788.00,1.66
5787.00,1.66
5786.00,1.66
5785.00,1.66
5784.00,1.66
5783.00,1.66
5782.00,1.65
5781.00,1.65
5780.00,1.65
5779.00,1.65
5778.00,1.65
5777.00,1.65
5776.00,1.65
5775.00,1.65
5774.00,1.65
5773.00,1.65
5772.00,1.65
5771.00,1.65
5770.00,1.65
5769.00,1.65
5768.00,1.65
5767.00,1.65
5766.00,1.65
5765.00,1.65
5764.00,1.65
5763.00,1.66
5762.00,1.66
5761.00,1.66
5760.00,1.66
5759.00,1.67
5758.00,1.67
5757.00,1.67
5756.00,1.68
5755.00,1.68
5754.00,1.68
5753.00,1.68
5752.00,1.69
5751.00,1.69
5750.00,1.69
5749.00,1.69
5748.00,1.70
5747.00,1.70
5746.00,1.70
5745.00,1.70
5744.00,1.71
5743.00,1.71
5742.00,1.71
5741.00,1.71
5740.00,1.71
5739.00,1.71
5738.00,1.71
5737.00,1.72
5736.00,1.72
5735.00,1.72
5734.00,1.72
5733.00,1.72
5732.00,1.72
5731.00,1.72
5730.00,1.72
5729.00,1.72
5728.00,1.72
5727.00,1.72
5726.00,1.72
5725.00,1.72
5724.00,1.72
5723.00,1.72
5722.00,1.72
5721.00,1.72
5720.00,1.72
5719.00,1.72
5718.00,1.72
5717.00,1.72
5716.00,1.72
5715.00,1.72
5714.00,1.71
5713.00,1.71
5712.00,1.71
5711.00,1.71
5710.00,1.71
5709.00,1.71
5708.00,1.71
5707.00,1.70
5706.00,1.70
5705.00,1.70
5704.00,1.70
5703.00,1.70
5702.00,1.69
5701.00,1.69
5700.00,1.69
5699.00,1.69
5698.00,1.69
5697.00,1.69
5696.00,1.68
5695.00,1.68
5694.00,1.68
5693.00,1.68
5692.00,1.68
5691.00,1.67
5690.00,1.67
5689.00,1.67
5688.00,1.67
5687.00,1.67
5686.00,1.67
5685.00,1.67
5684.00,1.66
5683.00,1.66
5682.00,1.66
5681.00,1.66
5680.00,1.66
5679.00,1.66
5678.00,1.66
5677.00,1.66
5676.00,1.66
5675.00,1.66
5674.00,1.66
5673.00,1.66
5672.00,1.66
5671.00,1.66
5670.00,1.66
5669.00,1.66
5668.00,1.66
5667.00,1.66
5666.00,1.66
5665.00,1.66
5664.00,1.66
5663.00,1.67
5662.00,1.67
5661.00,1.67
5660.00,1.67
5659.00,1.67
5658.00,1.67
5657.00,1.67
5656.00,1.68
5655.00,1.68
5654.00,1.68
5653.00,1.68
5652.00,1.68
5651.00,1.68
5650.00,1.68
5649.00,1.69
5648.00,1.69
5647.00,1.69
5646.00,1.69
5645.00,1.69
5644.00,1.69
5643.00,1.69
5642.00,1.69
5641.00,1.69
5640.00,1.69
5639.00,1.69
5638.00,1.69
5637.00,1.69
5636.00,1.69
5635.00,1.69
5634.00,1.70
5633.00,1.70
5632.00,1.70
5631.00,1.70
5630.00,1.70
5629.00,1.70
5628.00,1.70
5627.00,1.70
5626.00,1.70
5625.00,1.70
5624.00,1.70
5623.00,1.71
5622.00,1.71
5621.00,1.71
5620.00,1.71
5619.00,1.71
5618.00,1.71
5617.00,1.71
5616.00,1.71
5615.00,1.71
5614.00,1.72
5613.00,1.72
5612.00,1.72
5611.00,1.72
5610.00,1.72
5609.00,1.72
5608.00,1.72
5607.00,1.72
5606.00,1.73
5605.00,1.73
5604.00,1.73
5603.00,1.73
5602.00,1.73
5601.00,1.74
5600.00,1.74
5599.00,1.74
5598.00,1.74
5597.00,1.74
5596.00,1.75
5595.00,1.75
5594.00,1.75
5593.00,1.75
5592.00,1.75
5591.00,1.75
5590.00,1.76
5589.00,1.76
5588.00,1.76
5587.00,1.76
5586.00,1.76
5585.00,1.76
5584.00,1.76
5583.00,1.77
5582.00,1.77
5581.00,1.77
5580.00,1.77
5579.00,1.77
5578.00,1.77
5577.00,1.77
5576.00,1.77
5575.00,1.77
5574.00,1.78
5573.00,1.78
5572.00,1.78
5571.00,1.78
5570.00,1.78
5569.00,1.78
5568.00,1.78
5567.00,1.78
5566.00,1.79
5565.00,1.79
5564.00,1.79
5563.00,1.79
5562.00,1.79
5561.00,1.79
5560.00,1.80
5559.00,1.80
5558.00,1.80
5557.00,1.80
5556.00,1.80
5555.00,1.80
5554.00,1.81
5553.00,1.81
5552.00,1.81
5551.00,1.81
5550.00,1.81
5549.00,1.81
5548.00,1.81
5547.00,1.82
5546.00,1.82
5545.00,1.82
5544.00,1.82
5543.00,1.82
5542.00,1.82
5541.00,1.82
5540.00,1.82
5539.00,1.83
5538.00,1.83
5537.00,1.83
5536.00,1.83
5535.00,1.83
5534.00,1.83
5533.00,1.83
5532.00,1.83
5531.00,1.83
5530.00,1.84
5529.00,1.84
5528.00,1.84
5527.00,1.84
5526.00,1.84
5525.00,1.84
5524.00,1.84
5523.00,1.84
5522.00,1.84
5521.00,1.84
5520.00,1.84
5519.00,1.84
5518.00,1.84
5517.00,1.85
5516.00,1.85
5515.00,1.85
5514.00,1.85
5513.00,1.85
5512.00,1.85
5511.00,1.85
5510.00,1.85
5509.00,1.85
5508.00,1.85
5507.00,1.85
5506.00,1.85
5505.00,1.85
5504.00,1.85
5503.00,1.85
5502.00,1.85
5501.00,1.85
5500.00,1.85
5499.00,1.85
5498.00,1.86
5497.00,1.86
5496.00,1.86
5495.00,1.86
5494.00,1.86
5493.00,1.86
5492.00,1.86
5491.00,1.87
5490.00,1.87
5489.00,1.87
5488.00,1.87
5487.00,1.87
5486.00,1.87
5485.00,1.87
5484.00,1.88
5483.00,1.88
5482.00,1.88
5481.00,1.88
5480.00,1.88
5479.00,1.88
5478.00,1.88
5477.00,1.88
5476.00,1.88
5475.00,1.89
5474.00,1.89
5473.00,1.89
5472.00,1.89
5471.00,1.89
5470.00,1.89
5469.00,1.89
5468.00,1.89
5467.00,1.89
5466.00,1.89
5465.00,1.90
5464.00,1.90
5463.00,1.90
5462.00,1.90
5461.00,1.90
5460.00,1.90
5459.00,1.90
5458.00,1.90
5457.00,1.90
5456.00,1.90
5455.00,1.90
5454.00,1.90
5453.00,1.90
5452.00,1.90
5451.00,1.90
5450.00,1.90
5449.00,1.90
5448.00,1.90
5447.00,1.90
5446.00,1.90
5445.00,1.90
5444.00,1.90
5443.00,1.90
5442.00,1.90
5441.00,1.90
5440.00,1.90
5439.00,1.90
5438.00,1.90
5437.00,1.90
5436.00,1.90
5435.00,1.90
5434.00,1.90
5433.00,1.90
5432.00,1.90
5431.00,1.90
5430.00,1.90
5429.00,1.90
5428.00,1.90
5427.00,1.90
5426.00,1.90
5425.00,1.90
5424.00,1.90
5423.00,1.90
5422.00,1.90
5421.00,1.90
5420.00,1.90
5419.00,1.90
5418.00,1.90
5417.00,1.90
5416.00,1.90
5415.00,1.90
5414.00,1.90
5413.00,1.89
5412.00,1.89
5411.00,1.89
5410.00,1.89
5409.00,1.89
5408.00,1.89
5407.00,1.88
5406.00,1.88
5405.00,1.88
5404.00,1.88
5403.00,1.88
5402.00,1.87
5401.00,1.87
5400.00,1.87
5399.00,1.87
5398.00,1.86
5397.00,1.86
5396.00,1.86
5395.00,1.85
5394.00,1.85
5393.00,1.85
5392.00,1.84
5391.00,1.84
5390.00,1.84
5389.00,1.83
5388.00,1.83
5387.00,1.83
5386.00,1.82
5385.00,1.82
5384.00,1.81
5383.00,1.81
5382.00,1.80
5381.00,1.80
5380.00,1.79
5379.00,1.79
5378.00,1.78
5377.00,1.78
5376.00,1.77
5375.00,1.76
5374.00,1.76
5373.00,1.75
5372.00,1.74
5371.00,1.74
5370.00,1.73
5369.00,1.72
5368.00,1.71
5367.00,1.71
5366.00,1.70
5365.00,1.69
5364.00,1.68
5363.00,1.67
5362.00,1.66
5361.00,1.65
5360.00,1.64
5359.00,1.63
5358.00,1.62
5357.00,1.61
5356.00,1.60
5355.00,1.59
5354.00,1.58
5353.00,1.57
5352.00,1.55
5351.00,1.54
5350.00,1.53
5349.00,1.52
5348.00,1.50
5347.00,1.49
5346.00,1.48
5345.00,1.46
5344.00,1.45
5343.00,1.44
5342.00,1.43
5341.00,1.41
5340.00,1.40
5339.00,1.39
5338.00,1.37
5337.00,1.36
5336.00,1.35
5335.00,1.33
5334.00,1.32
5333.00,1.31
5332.00,1.29
5331.00,1.28
5330.00,1.27
5329.00,1.26
5328.00,1.24
5327.00,1.23
5326.00,1.22
5325.00,1.21
5324.00,1.20
5323.00,1.19
5322.00,1.17
5321.00,1.16
5320.00,1.15
5319.00,1.14
5318.00,1.13
5317.00,1.12
5316.00,1.11
5315.00,1.10
5314.00,1.09
5313.00,1.08
5312.00,1.07
5311.00,1.06
5310.00,1.05
5309.00,1.04
5308.00,1.03
5307.00,1.02
5306.00,1.01
5305.00,1.00
5304.00,0.99
5303.00,0.99
5302.00,0.98
5301.00,0.97
5300.00,0.97
5299.00,0.96
5298.00,0.95
5297.00,0.95
5296.00,0.94
5295.00,0.94
5294.00,0.93
5293.00,0.93
5292.00,0.92
5291.00,0.92
5290.00,0.91
5289.00,0.91
5288.00,0.91
5287.00,0.90
5286.00,0.90
5285.00,0.90
5284.00,0.89
5283.00,0.89
5282.00,0.89
5281.00,0.89
5280.00,0.89
5279.00,0.89
5278.00,0.88
5277.00,0.88
5276.00,0.88
5275.00,0.88
5274.00,0.88
5273.00,0.88
5272.00,0.88
5271.00,0.88
5270.00,0.88
5269.00,0.88
5268.00,0.88
5267.00,0.88
5266.00,0.88
5265.00,0.87
5264.00,0.87
5263.00,0.87
5262.00,0.87
5261.00,0.87
5260.00,0.87
5259.00,0.87
5258.00,0.87
5257.00,0.87
5256.00,0.87
5255.00,0.87
5254.00,0.87
5253.00,0.87
5252.00,0.87
5251.00,0.87
5250.00,0.87
5249.00,0.87
5248.00,0.87
5247.00,0.87
5246.00,0.87
5245.00,0.87
5244.00,0.87
5243.00,0.87
5242.00,0.87
5241.00,0.87
5240.00,0.87
5239.00,0.87
5238.00,0.87
5237.00,0.87
5236.00,0.87
5235.00,0.87
5234.00,0.87
5233.00,0.87
5232.00,0.87
5231.00,0.87
5230.00,0.87
5229.00,0.87
5228.00,0.87
5227.00,0.87
5226.00,0.87
5225.00,0.88
5224.00,0.88
5223.00,0.88
5222.00,0.88
5221.00,0.88
5220.00,0.88
5219.00,0.88
5218.00,0.88
5217.00,0.88
5216.00,0.88
5215.00,0.88
5214.00,0.88
5213.00,0.88
5212.00,0.88
5211.00,0.88
5210.00,0.88
5209.00,0.88
5208.00,0.88
5207.00,0.88
5206.00,0.88
5205.00,0.88
5204.00,0.88
5203.00,0.88
5202.00,0.88
5201.00,0.88
5200.00,0.89
5199.00,0.89
5198.00,0.89
5197.00,0.89
5196.00,0.89
5195.00,0.89
5194.00,0.89
5193.00,0.89
5192.00,0.89
5191.00,0.89
5190.00,0.89
5189.00,0.90
5188.00,0.90
5187.00,0.90
5186.00,0.90
5185.00,0.90
5184.00,0.90
5183.00,0.90
5182.00,0.90
5181.00,0.90
5180.00,0.90
5179.00,0.91
5178.00,0.91
5177.00,0.91
5176.00,0.91
5175.00,0.91
5174.00,0.91
5173.00,0.91
5172.00,0.91
5171.00,0.91
5170.00,0.91
5169.00,0.91
5168.00,0.91
5167.00,0.91
5166.00,0.91
5165.00,0.91
5164.00,0.91
5163.00,0.91
5162.00,0.91
5161.00,0.91
5160.00,0.91
5159.00,0.92
5158.00,0.92
5157.00,0.92
5156.00,0.92
5155.00,0.92
5154.00,0.92
5153.00,0.92
5152.00,0.92
5151.00,0.92
5150.00,0.92
5149.00,0.93
5148.00,0.93
5147.00,0.93
5146.00,0.93
5145.00,0.93
5144.00,0.93
5143.00,0.93
5142.00,0.93
5141.00,0.93
5140.00,0.93
5139.00,0.93
5138.00,0.93
5137.00,0.93
5136.00,0.93
5135.00,0.93
5134.00,0.93
5133.00,0.93
5132.00,0.94
5131.00,0.94
5130.00,0.94
5129.00,0.94
5128.00,0.94
5127.00,0.94
5126.00,0.94
5125.00,0.94
5124.00,0.94
5123.00,0.94
5122.00,0.94
5121.00,0.94
5120.00,0.94
5119.00,0.95
5118.00,0.95
5117.00,0.95
5116.00,0.95
5115.00,0.95
5114.00,0.95
5113.00,0.95
5112.00,0.95
5111.00,0.95
5110.00,0.95
5109.00,0.95
5108.00,0.95
5107.00,0.96
5106.00,0.96
5105.00,0.96
5104.00,0.96
5103.00,0.96
5102.00,0.96
5101.00,0.96
5100.00,0.96
5099.00,0.96
5098.00,0.96
5097.00,0.96
5096.00,0.96
5095.00,0.96
5094.00,0.96
5093.00,0.96
5092.00,0.96
5091.00,0.96
5090.00,0.96
5089.00,0.97
5088.00,0.97
5087.00,0.97
5086.00,0.97
5085.00,0.97
5084.00,0.97
5083.00,0.97
5082.00,0.97
5081.00,0.97
5080.00,0.97
5079.00,0.97
5078.00,0.97
5077.00,0.97
5076.00,0.97
5075.00,0.97
5074.00,0.97
5073.00,0.97
5072.00,0.97
5071.00,0.97
5070.00,0.98
5069.00,0.98
5068.00,0.98
5067.00,0.98
5066.00,0.98
5065.00,0.98
5064.00,0.98
5063.00,0.98
5062.00,0.98
5061.00,0.98
5060.00,0.99
5059.00,0.99
5058.00,0.99
5057.00,0.99
5056.00,0.99
5055.00,0.99
5054.00,0.99
5053.00,1.00
5052.00,1.00
5051.00,1.00
5050.00,1.00
5049.00,1.00
5048.00,1.00
5047.00,1.00
5046.00,1.00
5045.00,1.00
5044.00,1.00
5043.00,1.01
5042.00,1.01
5041.00,1.01
5040.00,1.01
5039.00,1.01
5038.00,1.01
5037.00,1.01
5036.00,1.01
5035.00,1.01
5034.00,1.02
5033.00,1.02
5032.00,1.02
5031.00,1.02
5030.00,1.02
5029.00,1.02
5028.00,1.02
5027.00,1.02
5026.00,1.02
5025.00,1.02
5024.00,1.02
5023.00,1.02
5022.00,1.02
5021.00,1.03
5020.00,1.03
5019.00,1.03
5018.00,1.03
5017.00,1.03
5016.00,1.03
5015.00,1.03
5014.00,1.03
5013.00,1.03
5012.00,1.03
5011.00,1.03
5010.00,1.03
5009.00,1.03
5008.00,1.03
5007.00,1.03
5006.00,1.03
5005.00,1.04
5004.00,1.04
5003.00,1.04
5002.00,1.04
5001.00,1.04
5000.00,1.04
4999.00,1.04
4998.00,1.05
4997.00,1.05
4996.00,1.05
4995.00,1.05
4994.00,1.05
4993.00,1.06
4992.00,1.06
4991.00,1.06
4990.00,1.06
4989.00,1.06
4988.00,1.06
4987.00,1.06
4986.00,1.06
4985.00,1.07
4984.00,1.07
4983.00,1.07
4982.00,1.07
4981.00,1.07
4980.00,1.07
4979.00,1.07
4978.00,1.07
4977.00,1.07
4976.00,1.07
4975.00,1.07
4974.00,1.07
4973.00,1.07
4972.00,1.07
4971.00,1.07
4970.00,1.07
4969.00,1.07
4968.00,1.07
4967.00,1.07
4966.00,1.07
4965.00,1.07
4964.00,1.08
4963.00,1.08
4962.00,1.08
4961.00,1.08
4960.00,1.08
4959.00,1.08
4958.00,1.08
4957.00,1.08
4956.00,1.09
4955.00,1.09
4954.00,1.09
4953.00,1.09
4952.00,1.09
4951.00,1.09
4950.00,1.10
4949.00,1.10
4948.00,1.10
4947.00,1.10
4946.00,1.10
4945.00,1.11
4944.00,1.11
4943.00,1.11
4942.00,1.11
4941.00,1.12
4940.00,1.12
4939.00,1.12
4938.00,1.12
4937.00,1.12
4936.00,1.13
4935.00,1.13
4934.00,1.13
4933.00,1.13
4932.00,1.13
4931.00,1.13
4930.00,1.14
4929.00,1.14
4928.00,1.14
4927.00,1.14
4926.00,1.14
4925.00,1.14
4924.00,1.14
4923.00,1.14
4922.00,1.14
4921.00,1.14
4920.00,1.15
4919.00,1.15
4918.00,1.15
4917.00,1.15
4916.00,1.15
4915.00,1.15
4914.00,1.15
4913.00,1.15
4912.00,1.15
4911.00,1.15
4910.00,1.15
4909.00,1.15
4908.00,1.15
4907.00,1.16
4906.00,1.16
4905.00,1.16
4904.00,1.16
4903.00,1.16
4902.00,1.16
4901.00,1.16
4900.00,1.17
4899.00,1.17
4898.00,1.17
4897.00,1.17
4896.00,1.17
4895.00,1.17
4894.00,1.17
4893.00,1.17
4892.00,1.18
4891.00,1.18
4890.00,1.18
4889.00,1.18
4888.00,1.18
4887.00,1.18
4886.00,1.18
4885.00,1.19
4884.00,1.19
4883.00,1.19
4882.00,1.19
4881.00,1.19
4880.00,1.19
4879.00,1.19
4878.00,1.19
4877.00,1.19
4876.00,1.19
4875.00,1.19
4874.00,1.20
4873.00,1.20
4872.00,1.20
4871.00,1.20
4870.00,1.20
4869.00,1.20
4868.00,1.20
4867.00,1.20
4866.00,1.20
4865.00,1.20
4864.00,1.21
4863.00,1.21
4862.00,1.21
4861.00,1.21
4860.00,1.21
4859.00,1.22
4858.00,1.22
4857.00,1.22
4856.00,1.22
4855.00,1.23
4854.00,1.23
4853.00,1.23
4852.00,1.23
4851.00,1.23
4850.00,1.23
4849.00,1.24
4848.00,1.24
4847.00,1.24
4846.00,1.24
4845.00,1.24
4844.00,1.24
4843.00,1.24
4842.00,1.25
4841.00,1.25
4840.00,1.25
4839.00,1.25
4838.00,1.25
4837.00,1.25
4836.00,1.25
4835.00,1.25
4834.00,1.26
4833.00,1.26
4832.00,1.26
4831.00,1.26
4830.00,1.26
4829.00,1.26
4828.00,1.27
4827.00,1.27
4826.00,1.27
4825.00,1.27
4824.00,1.27
4823.00,1.27
4822.00,1.28
4821.00,1.28
4820.00,1.28
4819.00,1.28
4818.00,1.28
4817.00,1.28
4816.00,1.29
4815.00,1.29
4814.00,1.29
4813.00,1.29
4812.00,1.29
4811.00,1.29
4810.00,1.30
4809.00,1.30
4808.00,1.30
4807.00,1.30
4806.00,1.30
4805.00,1.30
4804.00,1.31
4803.00,1.31
4802.00,1.31
4801.00,1.31
4800.00,1.31
4799.00,1.32
4798.00,1.32
4797.00,1.32
4796.00,1.32
4795.00,1.32
4794.00,1.33
4793.00,1.33
4792.00,1.33
4791.00,1.33
4790.00,1.33
4789.00,1.34
4788.00,1.34
4787.00,1.34
4786.00,1.34
4785.00,1.34
4784.00,1.35
4783.00,1.35
4782.00,1.35
4781.00,1.35
4780.00,1.36
4779.00,1.36
4778.00,1.36
4777.00,1.36
4776.00,1.37
4775.00,1.37
4774.00,1.37
4773.00,1.37
4772.00,1.38
4771.00,1.38
4770.00,1.38
4769.00,1.38
4768.00,1.39
4767.00,1.39
4766.00,1.39
4765.00,1.39
4764.00,1.39
4763.00,1.39
4762.00,1.39
4761.00,1.40
4760.00,1.40
4759.00,1.40
4758.00,1.40
4757.00,1.40
4756.00,1.40
4755.00,1.41
4754.00,1.41
4753.00,1.41
4752.00,1.41
4751.00,1.41
4750.00,1.42
4749.00,1.42
4748.00,1.42
4747.00,1.43
4746.00,1.43
4745.00,1.43
4744.00,1.44
4743.00,1.44
4742.00,1.44
4741.00,1.45
4740.00,1.45
4739.00,1.45
4738.00,1.45
4737.00,1.46
4736.00,1.46
4735.00,1.46
4734.00,1.46
4733.00,1.46
4732.00,1.47
4731.00,1.47
4730.00,1.47
4729.00,1.47
4728.00,1.47
4727.00,1.48
4726.00,1.48
4725.00,1.48
4724.00,1.48
4723.00,1.48
4722.00,1.49
4721.00,1.49
4720.00,1.49
4719.00,1.49
4718.00,1.50
4717.00,1.50
4716.00,1.50
4715.00,1.50
4714.00,1.50
4713.00,1.51
4712.00,1.51
4711.00,1.51
4710.00,1.51
4709.00,1.52
4708.00,1.52
4707.00,1.52
4706.00,1.53
4705.00,1.53
4704.00,1.53
4703.00,1.53
4702.00,1.54
4701.00,1.54
4700.00,1.54
4699.00,1.55
4698.00,1.55
4697.00,1.55
4696.00,1.55
4695.00,1.56
4694.00,1.56
4693.00,1.56
4692.00,1.57
4691.00,1.57
4690.00,1.57
4689.00,1.57
4688.00,1.58
4687.00,1.58
4686.00,1.58
4685.00,1.58
4684.00,1.59
4683.00,1.59
4682.00,1.59
4681.00,1.59
4680.00,1.59
4679.00,1.60
4678.00,1.60
4677.00,1.60
4676.00,1.60
4675.00,1.61
4674.00,1.61
4673.00,1.61
4672.00,1.61
4671.00,1.62
4670.00,1.62
4669.00,1.62
4668.00,1.62
4667.00,1.62
4666.00,1.63
4665.00,1.63
4664.00,1.63
4663.00,1.63
4662.00,1.64
4661.00,1.64
4660.00,1.64
4659.00,1.64
4658.00,1.65
4657.00,1.65
4656.00,1.65
4655.00,1.65
4654.00,1.66
4653.00,1.66
4652.00,1.66
4651.00,1.66
4650.00,1.67
4649.00,1.67
4648.00,1.67
4647.00,1.67
4646.00,1.68
4645.00,1.68
4644.00,1.68
4643.00,1.68
4642.00,1.68
4641.00,1.69
4640.00,1.69
4639.00,1.69
4638.00,1.69
4637.00,1.69
4636.00,1.69
4635.00,1.69
4634.00,1.69
4633.00,1.70
4632.00,1.70
4631.00,1.70
4630.00,1.70
4629.00,1.70
4628.00,1.70
4627.00,1.70
4626.00,1.70
4625.00,1.70
4624.00,1.70
4623.00,1.70
4622.00,1.71
4621.00,1.71
4620.00,1.71
4619.00,1.71
4618.00,1.71
4617.00,1.71
4616.00,1.71
4615.00,1.72
4614.00,1.72
4613.00,1.72
4612.00,1.72
4611.00,1.72
4610.00,1.72
4609.00,1.72
4608.00,1.73
4607.00,1.73
4606.00,1.73
4605.00,1.73
4604.00,1.73
4603.00,1.73
4602.00,1.73
4601.00,1.73
4600.00,1.73
4599.00,1.74
4598.00,1.74
4597.00,1.74
4596.00,1.74
4595.00,1.74
4594.00,1.74
4593.00,1.74
4592.00,1.75
4591.00,1.75
4590.00,1.75
4589.00,1.75
4588.00,1.75
4587.00,1.76
4586.00,1.76
4585.00,1.76
4584.00,1.76
4583.00,1.76
4582.00,1.76
4581.00,1.77
4580.00,1.77
4579.00,1.77
4578.00,1.77
4577.00,1.77
4576.00,1.77
4575.00,1.78
4574.00,1.78
4573.00,1.78
4572.00,1.78
4571.00,1.78
4570.00,1.78
4569.00,1.79
4568.00,1.79
4567.00,1.79
4566.00,1.79
4565.00,1.79
4564.00,1.79
4563.00,1.79
4562.00,1.79
4561.00,1.79
4560.00,1.79
4559.00,1.79
4558.00,1.79
4557.00,1.79
4556.00,1.80
4555.00,1.80
4554.00,1.80
4553.00,1.80
4552.00,1.80
4551.00,1.80
4550.00,1.81
4549.00,1.81
4548.00,1.81
4547.00,1.81
4546.00,1.81
4545.00,1.82
4544.00,1.82
4543.00,1.82
4542.00,1.82
4541.00,1.83
4540.00,1.83
4539.00,1.83
4538.00,1.83
4537.00,1.83
4536.00,1.83
4535.00,1.84
4534.00,1.84
4533.00,1.84
4532.00,1.84
4531.00,1.84
4530.00,1.84
4529.00,1.84
4528.00,1.84
4527.00,1.84
4526.00,1.84
4525.00,1.84
4524.00,1.84
4523.00,1.84
4522.00,1.84
4521.00,1.84
4520.00,1.84
4519.00,1.84
4518.00,1.84
4517.00,1.84
4516.00,1.84
4515.00,1.84
4514.00,1.84
4513.00,1.84
4512.00,1.84
4511.00,1.84
4510.00,1.85
4509.00,1.85
4508.00,1.85
4507.00,1.85
4506.00,1.85
4505.00,1.85
4504.00,1.85
4503.00,1.85
4502.00,1.85
4501.00,1.85
4500.00,1.85
4499.00,1.85
4498.00,1.86
4497.00,1.86
4496.00,1.86
4495.00,1.86
4494.00,1.86
4493.00,1.86
4492.00,1.85
4491.00,1.85
4490.00,1.85
4489.00,1.85
4488.00,1.85
4487.00,1.85
4486.00,1.85
4485.00,1.85
4484.00,1.84
4483.00,1.84
4482.00,1.84
4481.00,1.84
4480.00,1.83
4479.00,1.83
4478.00,1.83
4477.00,1.82
4476.00,1.82
4475.00,1.82
4474.00,1.81
4473.00,1.81
4472.00,1.81
4471.00,1.80
4470.00,1.80
4469.00,1.80
4468.00,1.79
4467.00,1.79
4466.00,1.79
4465.00,1.78
4464.00,1.78
4463.00,1.78
4462.00,1.77
4461.00,1.77
4460.00,1.76
4459.00,1.76
4458.00,1.76
4457.00,1.75
4456.00,1.75
4455.00,1.74
4454.00,1.74
4453.00,1.73
4452.00,1.73
4451.00,1.72
4450.00,1.72
4449.00,1.71
4448.00,1.70
4447.00,1.70
4446.00,1.69
4445.00,1.68
4444.00,1.68
4443.00,1.67
4442.00,1.66
4441.00,1.66
4440.00,1.65
4439.00,1.64
4438.00,1.63
4437.00,1.63
4436.00,1.62
4435.00,1.61
4434.00,1.61
4433.00,1.60
4432.00,1.59
4431.00,1.59
4430.00,1.58
4429.00,1.58
4428.00,1.57
4427.00,1.57
4426.00,1.56
4425.00,1.56
4424.00,1.56
4423.00,1.55
4422.00,1.55
4421.00,1.55
4420.00,1.55
4419.00,1.54
4418.00,1.54
4417.00,1.54
4416.00,1.54
4415.00,1.54
4414.00,1.54
4413.00,1.54
4412.00,1.54
4411.00,1.54
4410.00,1.54
4409.00,1.54
4408.00,1.54
4407.00,1.54
4406.00,1.54
4405.00,1.54
4404.00,1.54
4403.00,1.54
4402.00,1.54
4401.00,1.54
4400.00,1.54
4399.00,1.54
4398.00,1.55
4397.00,1.55
4396.00,1.55
4395.00,1.55
4394.00,1.56
4393.00,1.56
4392.00,1.56
4391.00,1.57
4390.00,1.57
4389.00,1.58
4388.00,1.58
4387.00,1.58
4386.00,1.59
4385.00,1.59
4384.00,1.59
4383.00,1.60
4382.00,1.60
4381.00,1.60
4380.00,1.60
4379.00,1.61
4378.00,1.61
4377.00,1.61
4376.00,1.61
4375.00,1.61
4374.00,1.61
4373.00,1.61
4372.00,1.61
4371.00,1.61
4370.00,1.61
4369.00,1.61
4368.00,1.61
4367.00,1.61
4366.00,1.61
4365.00,1.60
4364.00,1.60
4363.00,1.60
4362.00,1.60
4361.00,1.60
4360.00,1.60
4359.00,1.60
4358.00,1.59
4357.00,1.59
4356.00,1.59
4355.00,1.59
4354.00,1.59
4353.00,1.59
4352.00,1.59
4351.00,1.59
4350.00,1.59
4349.00,1.59
4348.00,1.59
4347.00,1.58
4346.00,1.58
4345.00,1.58
4344.00,1.59
4343.00,1.59
4342.00,1.59
4341.00,1.59
4340.00,1.59
4339.00,1.59
4338.00,1.59
4337.00,1.59
4336.00,1.60
4335.00,1.60
4334.00,1.60
4333.00,1.60
4332.00,1.61
4331.00,1.61
4330.00,1.61
4329.00,1.62
4328.00,1.62
4327.00,1.63
4326.00,1.63
4325.00,1.63
4324.00,1.64
4323.00,1.64
4322.00,1.65
4321.00,1.65
4320.00,1.65
4319.00,1.66
4318.00,1.66
4317.00,1.67
4316.00,1.67
4315.00,1.67
4314.00,1.68
4313.00,1.68
4312.00,1.69
4311.00,1.69
4310.00,1.69
4309.00,1.70
4308.00,1.70
4307.00,1.70
4306.00,1.71
4305.00,1.71
4304.00,1.71
4303.00,1.72
4302.00,1.72
4301.00,1.72
4300.00,1.73
4299.00,1.73
4298.00,1.73
4297.00,1.73
4296.00,1.73
4295.00,1.73
4294.00,1.74
4293.00,1.74
4292.00,1.74
4291.00,1.74
4290.00,1.74
4289.00,1.74
4288.00,1.74
4287.00,1.74
4286.00,1.74
4285.00,1.74
4284.00,1.74
4283.00,1.74
4282.00,1.74
4281.00,1.74
4280.00,1.74
4279.00,1.74
4278.00,1.74
4277.00,1.74
4276.00,1.74
4275.00,1.74
4274.00,1.74
4273.00,1.73
4272.00,1.73
4271.00,1.73
4270.00,1.73
4269.00,1.73
4268.00,1.72
4267.00,1.72
4266.00,1.72
4265.00,1.72
4264.00,1.72
4263.00,1.71
4262.00,1.71
4261.00,1.71
4260.00,1.71
4259.00,1.71
4258.00,1.70
4257.00,1.70
4256.00,1.70
4255.00,1.70
4254.00,1.70
4253.00,1.70
4252.00,1.70
4251.00,1.70
4250.00,1.70
4249.00,1.70
4248.00,1.70
4247.00,1.70
4246.00,1.71
4245.00,1.71
4244.00,1.71
4243.00,1.71
4242.00,1.72
4241.00,1.72
4240.00,1.72
4239.00,1.72
4238.00,1.73
4237.00,1.73
4236.00,1.73
4235.00,1.73
4234.00,1.74
4233.00,1.74
4232.00,1.74
4231.00,1.74
4230.00,1.74
4229.00,1.75
4228.00,1.75
4227.00,1.75
4226.00,1.75
4225.00,1.75
4224.00,1.75
4223.00,1.75
4222.00,1.75
4221.00,1.75
4220.00,1.75
4219.00,1.75
4218.00,1.75
4217.00,1.76
4216.00,1.76
4215.00,1.76
4214.00,1.76
4213.00,1.76
4212.00,1.76
4211.00,1.76
4210.00,1.76
4209.00,1.76
4208.00,1.76
4207.00,1.76
4206.00,1.76
4205.00,1.76
4204.00,1.76
4203.00,1.76
4202.00,1.76
4201.00,1.76
4200.00,1.76
4199.00,1.77
4198.00,1.77
4197.00,1.77
4196.00,1.77
4195.00,1.77
4194.00,1.77
4193.00,1.77
4192.00,1.77
4191.00,1.77
4190.00,1.77
4189.00,1.77
4188.00,1.77
4187.00,1.77
4186.00,1.77
4185.00,1.77
4184.00,1.77
4183.00,1.77
4182.00,1.77
4181.00,1.77
4180.00,1.77
4179.00,1.77
4178.00,1.77
4177.00,1.77
4176.00,1.77
4175.00,1.77
4174.00,1.77
4173.00,1.77
4172.00,1.77
4171.00,1.77
4170.00,1.77
4169.00,1.77
4168.00,1.77
4167.00,1.77
4166.00,1.77
4165.00,1.77
4164.00,1.77
4163.00,1.77
4162.00,1.77
4161.00,1.77
4160.00,1.77
4159.00,1.77
4158.00,1.77
4157.00,1.77
4156.00,1.77
4155.00,1.77
4154.00,1.77
4153.00,1.77
4152.00,1.77
4151.00,1.77
4150.00,1.77
4149.00,1.77
4148.00,1.77
4147.00,1.77
4146.00,1.77
4145.00,1.77
4144.00,1.77
4143.00,1.77
4142.00,1.78
4141.00,1.78
4140.00,1.78
4139.00,1.78
4138.00,1.78
4137.00,1.78
4136.00,1.78
4135.00,1.78
4134.00,1.78
4133.00,1.78
4132.00,1.78
4131.00,1.78
4130.00,1.78
4129.00,1.78
4128.00,1.79
4127.00,1.79
4126.00,1.79
4125.00,1.79
4124.00,1.79
4123.00,1.79
4122.00,1.80
4121.00,1.80
4120.00,1.80
4119.00,1.80
4118.00,1.80
4117.00,1.80
4116.00,1.81
4115.00,1.81
4114.00,1.81
4113.00,1.81
4112.00,1.81
4111.00,1.81
4110.00,1.81
4109.00,1.81
4108.00,1.81
4107.00,1.82
4106.00,1.82
4105.00,1.82
4104.00,1.82
4103.00,1.82
4102.00,1.82
4101.00,1.82
4100.00,1.82
4099.00,1.82
4098.00,1.82
4097.00,1.82
4096.00,1.82
4095.00,1.82
4094.00,1.82
4093.00,1.82
4092.00,1.82
4091.00,1.82
4090.00,1.82
4089.00,1.82
4088.00,1.82
4087.00,1.83
4086.00,1.83
4085.00,1.83
4084.00,1.83
4083.00,1.83
4082.00,1.83
4081.00,1.84
4080.00,1.84
4079.00,1.84
4078.00,1.84
4077.00,1.84
4076.00,1.84
4075.00,1.84
4074.00,1.85
4073.00,1.85
4072.00,1.85
4071.00,1.85
4070.00,1.85
4069.00,1.85
4068.00,1.85
4067.00,1.85
4066.00,1.85
4065.00,1.85
4064.00,1.85
4063.00,1.85
4062.00,1.85
4061.00,1.85
4060.00,1.85
4059.00,1.85
4058.00,1.85
4057.00,1.85
4056.00,1.85
4055.00,1.85
4054.00,1.85
4053.00,1.85
4052.00,1.85
4051.00,1.85
4050.00,1.86
4049.00,1.86
4048.00,1.86
4047.00,1.87
4046.00,1.87
4045.00,1.87
4044.00,1.88
4043.00,1.88
4042.00,1.88
4041.00,1.89
4040.00,1.89
4039.00,1.89
4038.00,1.90
4037.00,1.90
4036.00,1.90
4035.00,1.90
4034.00,1.90
4033.00,1.90
4032.00,1.90
4031.00,1.90
4030.00,1.90
4029.00,1.90
4028.00,1.90
4027.00,1.90
4026.00,1.90
4025.00,1.90
4024.00,1.90
4023.00,1.90
4022.00,1.90
4021.00,1.90
4020.00,1.90
4019.00,1.90
4018.00,1.90
4017.00,1.90
4016.00,1.90
4015.00,1.90
4014.00,1.90
4013.00,1.90
4012.00,1.90
4011.00,1.90
4010.00,1.90
4009.00,1.90
4008.00,1.90
4007.00,1.90
4006.00,1.90
4005.00,1.90
4004.00,1.90
4003.00,1.90
4002.00,1.90
4001.00,1.90
4000.00,1.90
