创建为新数据集,样品 189 用户 Administrator 日期 星期六, 七月 21 2018
cm-1,%T
10000.00,1.69
9999.00,1.69
9998.00,1.68
9997.00,1.68
9996.00,1.68
9995.00,1.68
9994.00,1.68
9993.00,1.68
9992.00,1.68
9991.00,1.68
9990.00,1.68
9989.00,1.67
9988.00,1.67
9987.00,1.67
9986.00,1.67
9985.00,1.67
9984.00,1.67
9983.00,1.67
9982.00,1.67
9981.00,1.67
9980.00,1.68
9979.00,1.68
9978.00,1.68
9977.00,1.68
9976.00,1.68
9975.00,1.68
9974.00,1.68
9973.00,1.68
9972.00,1.68
9971.00,1.67
9970.00,1.67
9969.00,1.67
9968.00,1.67
9967.00,1.67
9966.00,1.66
9965.00,1.66
9964.00,1.66
9963.00,1.66
9962.00,1.66
9961.00,1.65
9960.00,1.65
9959.00,1.65
9958.00,1.65
9957.00,1.65
9956.00,1.65
9955.00,1.65
9954.00,1.65
9953.00,1.66
9952.00,1.66
9951.00,1.66
9950.00,1.66
9949.00,1.66
9948.00,1.66
9947.00,1.66
9946.00,1.66
9945.00,1.66
9944.00,1.66
9943.00,1.66
9942.00,1.66
9941.00,1.66
9940.00,1.66
9939.00,1.65
9938.00,1.65
9937.00,1.65
9936.00,1.65
9935.00,1.64
9934.00,1.64
9933.00,1.64
9932.00,1.64
9931.00,1.64
9930.00,1.64
9929.00,1.64
9928.00,1.64
9927.00,1.64
9926.00,1.64
9925.00,1.64
9924.00,1.64
9923.00,1.65
9922.00,1.65
9921.00,1.65
9920.00,1.65
9919.00,1.65
9918.00,1.65
9917.00,1.65
9916.00,1.65
9915.00,1.65
9914.00,1.65
9913.00,1.65
9912.00,1.65
9911.00,1.65
9910.00,1.65
9909.00,1.65
9908.00,1.65
9907.00,1.65
9906.00,1.65
9905.00,1.65
9904.00,1.65
9903.00,1.65
9902.00,1.64
9901.00,1.64
9900.00,1.64
9899.00,1.64
9898.00,1.64
9897.00,1.64
9896.00,1.64
9895.00,1.64
9894.00,1.64
9893.00,1.64
9892.00,1.64
9891.00,1.64
9890.00,1.64
9889.00,1.64
9888.00,1.64
9887.00,1.65
9886.00,1.65
9885.00,1.65
9884.00,1.64
9883.00,1.64
9882.00,1.64
9881.00,1.64
9880.00,1.64
9879.00,1.64
9878.00,1.63
9877.00,1.63
9876.00,1.63
9875.00,1.63
9874.00,1.62
9873.00,1.62
9872.00,1.62
9871.00,1.62
9870.00,1.61
9869.00,1.61
9868.00,1.61
9867.00,1.61
9866.00,1.62
9865.00,1.62
9864.00,1.62
9863.00,1.62
9862.00,1.62
9861.00,1.63
9860.00,1.63
9859.00,1.64
9858.00,1.64
9857.00,1.64
9856.00,1.65
9855.00,1.65
9854.00,1.66
9853.00,1.66
9852.00,1.66
9851.00,1.66
9850.00,1.67
9849.00,1.67
9848.00,1.67
9847.00,1.67
9846.00,1.67
9845.00,1.68
9844.00,1.68
9843.00,1.68
9842.00,1.68
9841.00,1.68
9840.00,1.68
9839.00,1.68
9838.00,1.68
9837.00,1.68
9836.00,1.68
9835.00,1.69
9834.00,1.69
9833.00,1.69
9832.00,1.68
9831.00,1.68
9830.00,1.68
9829.00,1.68
9828.00,1.68
9827.00,1.68
9826.00,1.68
9825.00,1.67
9824.00,1.67
9823.00,1.67
9822.00,1.67
9821.00,1.66
9820.00,1.66
9819.00,1.66
9818.00,1.66
9817.00,1.65
9816.00,1.65
9815.00,1.65
9814.00,1.64
9813.00,1.64
9812.00,1.64
9811.00,1.64
9810.00,1.63
9809.00,1.63
9808.00,1.63
9807.00,1.63
9806.00,1.63
9805.00,1.62
9804.00,1.62
9803.00,1.62
9802.00,1.62
9801.00,1.62
9800.00,1.62
9799.00,1.62
9798.00,1.62
9797.00,1.62
9796.00,1.62
9795.00,1.62
9794.00,1.62
9793.00,1.62
9792.00,1.61
9791.00,1.61
9790.00,1.61
9789.00,1.61
9788.00,1.61
9787.00,1.61
9786.00,1.61
9785.00,1.61
9784.00,1.61
9783.00,1.61
9782.00,1.61
9781.00,1.60
9780.00,1.60
9779.00,1.60
9778.00,1.60
9777.00,1.60
9776.00,1.60
9775.00,1.61
9774.00,1.61
9773.00,1.61
9772.00,1.61
9771.00,1.61
9770.00,1.61
9769.00,1.62
9768.00,1.62
9767.00,1.62
9766.00,1.62
9765.00,1.63
9764.00,1.63
9763.00,1.63
9762.00,1.63
9761.00,1.63
9760.00,1.63
9759.00,1.63
9758.00,1.63
9757.00,1.63
9756.00,1.63
9755.00,1.63
9754.00,1.63
9753.00,1.63
9752.00,1.63
9751.00,1.63
9750.00,1.63
9749.00,1.63
9748.00,1.63
9747.00,1.63
9746.00,1.63
9745.00,1.64
9744.00,1.64
9743.00,1.64
9742.00,1.64
9741.00,1.64
9740.00,1.64
9739.00,1.65
9738.00,1.65
9737.00,1.65
9736.00,1.65
9735.00,1.65
9734.00,1.65
9733.00,1.65
9732.00,1.65
9731.00,1.65
9730.00,1.65
9729.00,1.65
9728.00,1.65
9727.00,1.64
9726.00,1.64
9725.00,1.64
9724.00,1.63
9723.00,1.63
9722.00,1.63
9721.00,1.63
9720.00,1.62
9719.00,1.62
9718.00,1.62
9717.00,1.62
9716.00,1.62
9715.00,1.62
9714.00,1.62
9713.00,1.62
9712.00,1.63
9711.00,1.63
9710.00,1.63
9709.00,1.64
9708.00,1.64
9707.00,1.64
9706.00,1.65
9705.00,1.65
9704.00,1.66
9703.00,1.66
9702.00,1.67
9701.00,1.67
9700.00,1.67
9699.00,1.67
9698.00,1.68
9697.00,1.68
9696.00,1.68
9695.00,1.68
9694.00,1.68
9693.00,1.68
9692.00,1.68
9691.00,1.68
9690.00,1.68
9689.00,1.68
9688.00,1.68
9687.00,1.67
9686.00,1.67
9685.00,1.67
9684.00,1.67
9683.00,1.67
9682.00,1.67
9681.00,1.66
9680.00,1.66
9679.00,1.66
9678.00,1.66
9677.00,1.66
9676.00,1.66
9675.00,1.66
9674.00,1.66
9673.00,1.66
9672.00,1.66
9671.00,1.66
9670.00,1.66
9669.00,1.66
9668.00,1.66
9667.00,1.66
9666.00,1.66
9665.00,1.66
9664.00,1.66
9663.00,1.66
9662.00,1.66
9661.00,1.66
9660.00,1.66
9659.00,1.66
9658.00,1.66
9657.00,1.66
9656.00,1.66
9655.00,1.66
9654.00,1.66
9653.00,1.65
9652.00,1.65
9651.00,1.65
9650.00,1.65
9649.00,1.65
9648.00,1.64
9647.00,1.64
9646.00,1.64
9645.00,1.64
9644.00,1.63
9643.00,1.63
9642.00,1.63
9641.00,1.63
9640.00,1.63
9639.00,1.63
9638.00,1.63
9637.00,1.63
9636.00,1.63
9635.00,1.63
9634.00,1.63
9633.00,1.64
9632.00,1.64
9631.00,1.64
9630.00,1.64
9629.00,1.65
9628.00,1.65
9627.00,1.65
9626.00,1.65
9625.00,1.65
9624.00,1.65
9623.00,1.65
9622.00,1.65
9621.00,1.65
9620.00,1.65
9619.00,1.65
9618.00,1.64
9617.00,1.64
9616.00,1.64
9615.00,1.64
9614.00,1.64
9613.00,1.63
9612.00,1.63
9611.00,1.63
9610.00,1.63
9609.00,1.63
9608.00,1.63
9607.00,1.63
9606.00,1.63
9605.00,1.63
9604.00,1.63
9603.00,1.63
9602.00,1.63
9601.00,1.63
9600.00,1.63
9599.00,1.63
9598.00,1.63
9597.00,1.63
9596.00,1.63
9595.00,1.63
9594.00,1.63
9593.00,1.63
9592.00,1.63
9591.00,1.63
9590.00,1.63
9589.00,1.63
9588.00,1.63
9587.00,1.63
9586.00,1.63
9585.00,1.63
9584.00,1.63
9583.00,1.63
9582.00,1.63
9581.00,1.63
9580.00,1.63
9579.00,1.63
9578.00,1.63
9577.00,1.63
9576.00,1.63
9575.00,1.63
9574.00,1.63
9573.00,1.63
9572.00,1.63
9571.00,1.63
9570.00,1.63
9569.00,1.63
9568.00,1.63
9567.00,1.63
9566.00,1.63
9565.00,1.63
9564.00,1.63
9563.00,1.63
9562.00,1.63
9561.00,1.63
9560.00,1.63
9559.00,1.63
9558.00,1.63
9557.00,1.63
9556.00,1.63
9555.00,1.63
9554.00,1.63
9553.00,1.63
9552.00,1.64
9551.00,1.64
9550.00,1.64
9549.00,1.64
9548.00,1.64
9547.00,1.65
9546.00,1.65
9545.00,1.65
9544.00,1.65
9543.00,1.65
9542.00,1.65
9541.00,1.65
9540.00,1.65
9539.00,1.65
9538.00,1.65
9537.00,1.65
9536.00,1.65
9535.00,1.65
9534.00,1.65
9533.00,1.65
9532.00,1.65
9531.00,1.65
9530.00,1.65
9529.00,1.65
9528.00,1.65
9527.00,1.66
9526.00,1.66
9525.00,1.66
9524.00,1.66
9523.00,1.66
9522.00,1.66
9521.00,1.66
9520.00,1.67
9519.00,1.67
9518.00,1.67
9517.00,1.66
9516.00,1.66
9515.00,1.66
9514.00,1.66
9513.00,1.66
9512.00,1.65
9511.00,1.65
9510.00,1.65
9509.00,1.64
9508.00,1.64
9507.00,1.63
9506.00,1.63
9505.00,1.63
9504.00,1.62
9503.00,1.62
9502.00,1.62
9501.00,1.62
9500.00,1.62
9499.00,1.62
9498.00,1.61
9497.00,1.61
9496.00,1.62
9495.00,1.62
9494.00,1.62
9493.00,1.62
9492.00,1.62
9491.00,1.62
9490.00,1.63
9489.00,1.63
9488.00,1.63
9487.00,1.63
9486.00,1.64
9485.00,1.64
9484.00,1.64
9483.00,1.64
9482.00,1.65
9481.00,1.65
9480.00,1.65
9479.00,1.65
9478.00,1.65
9477.00,1.65
9476.00,1.65
9475.00,1.65
9474.00,1.66
9473.00,1.66
9472.00,1.66
9471.00,1.66
9470.00,1.66
9469.00,1.66
9468.00,1.66
9467.00,1.66
9466.00,1.66
9465.00,1.66
9464.00,1.66
9463.00,1.66
9462.00,1.67
9461.00,1.67
9460.00,1.67
9459.00,1.67
9458.00,1.67
9457.00,1.67
9456.00,1.67
9455.00,1.67
9454.00,1.67
9453.00,1.67
9452.00,1.67
9451.00,1.67
9450.00,1.66
9449.00,1.66
9448.00,1.66
9447.00,1.66
9446.00,1.66
9445.00,1.65
9444.00,1.65
9443.00,1.65
9442.00,1.65
9441.00,1.64
9440.00,1.64
9439.00,1.64
9438.00,1.64
9437.00,1.64
9436.00,1.63
9435.00,1.63
9434.00,1.63
9433.00,1.63
9432.00,1.63
9431.00,1.63
9430.00,1.63
9429.00,1.63
9428.00,1.64
9427.00,1.64
9426.00,1.64
9425.00,1.64
9424.00,1.65
9423.00,1.65
9422.00,1.65
9421.00,1.66
9420.00,1.66
9419.00,1.66
9418.00,1.66
9417.00,1.67
9416.00,1.67
9415.00,1.67
9414.00,1.67
9413.00,1.67
9412.00,1.68
9411.00,1.68
9410.00,1.68
9409.00,1.68
9408.00,1.68
9407.00,1.68
9406.00,1.68
9405.00,1.68
9404.00,1.68
9403.00,1.68
9402.00,1.68
9401.00,1.68
9400.00,1.68
9399.00,1.68
9398.00,1.68
9397.00,1.68
9396.00,1.68
9395.00,1.68
9394.00,1.68
9393.00,1.68
9392.00,1.67
9391.00,1.67
9390.00,1.67
9389.00,1.67
9388.00,1.67
9387.00,1.67
9386.00,1.66
9385.00,1.66
9384.00,1.66
9383.00,1.66
9382.00,1.66
9381.00,1.65
9380.00,1.65
9379.00,1.65
9378.00,1.65
9377.00,1.65
9376.00,1.65
9375.00,1.65
9374.00,1.65
9373.00,1.65
9372.00,1.65
9371.00,1.65
9370.00,1.65
9369.00,1.65
9368.00,1.65
9367.00,1.65
9366.00,1.65
9365.00,1.65
9364.00,1.65
9363.00,1.65
9362.00,1.65
9361.00,1.65
9360.00,1.65
9359.00,1.64
9358.00,1.64
9357.00,1.64
9356.00,1.64
9355.00,1.64
9354.00,1.65
9353.00,1.65
9352.00,1.65
9351.00,1.65
9350.00,1.65
9349.00,1.65
9348.00,1.65
9347.00,1.65
9346.00,1.65
9345.00,1.65
9344.00,1.65
9343.00,1.65
9342.00,1.65
9341.00,1.65
9340.00,1.65
9339.00,1.65
9338.00,1.65
9337.00,1.65
9336.00,1.65
9335.00,1.65
9334.00,1.64
9333.00,1.64
9332.00,1.64
9331.00,1.64
9330.00,1.64
9329.00,1.64
9328.00,1.63
9327.00,1.63
9326.00,1.63
9325.00,1.63
9324.00,1.63
9323.00,1.62
9322.00,1.62
9321.00,1.62
9320.00,1.62
9319.00,1.62
9318.00,1.62
9317.00,1.61
9316.00,1.61
9315.00,1.61
9314.00,1.61
9313.00,1.61
9312.00,1.62
9311.00,1.62
9310.00,1.62
9309.00,1.62
9308.00,1.62
9307.00,1.63
9306.00,1.63
9305.00,1.63
9304.00,1.63
9303.00,1.64
9302.00,1.64
9301.00,1.64
9300.00,1.64
9299.00,1.64
9298.00,1.64
9297.00,1.65
9296.00,1.65
9295.00,1.65
9294.00,1.65
9293.00,1.65
9292.00,1.65
9291.00,1.65
9290.00,1.65
9289.00,1.65
9288.00,1.65
9287.00,1.65
9286.00,1.65
9285.00,1.65
9284.00,1.65
9283.00,1.64
9282.00,1.64
9281.00,1.64
9280.00,1.64
9279.00,1.64
9278.00,1.64
9277.00,1.64
9276.00,1.64
9275.00,1.63
9274.00,1.63
9273.00,1.63
9272.00,1.63
9271.00,1.63
9270.00,1.63
9269.00,1.63
9268.00,1.62
9267.00,1.62
9266.00,1.62
9265.00,1.62
9264.00,1.62
9263.00,1.62
9262.00,1.62
9261.00,1.62
9260.00,1.63
9259.00,1.63
9258.00,1.63
9257.00,1.63
9256.00,1.63
9255.00,1.63
9254.00,1.64
9253.00,1.64
9252.00,1.64
9251.00,1.64
9250.00,1.64
9249.00,1.65
9248.00,1.65
9247.00,1.65
9246.00,1.65
9245.00,1.65
9244.00,1.65
9243.00,1.65
9242.00,1.65
9241.00,1.66
9240.00,1.66
9239.00,1.66
9238.00,1.66
9237.00,1.66
9236.00,1.66
9235.00,1.66
9234.00,1.66
9233.00,1.65
9232.00,1.65
9231.00,1.65
9230.00,1.65
9229.00,1.65
9228.00,1.65
9227.00,1.65
9226.00,1.65
9225.00,1.65
9224.00,1.65
9223.00,1.64
9222.00,1.64
9221.00,1.64
9220.00,1.64
9219.00,1.63
9218.00,1.63
9217.00,1.63
9216.00,1.63
9215.00,1.63
9214.00,1.62
9213.00,1.62
9212.00,1.62
9211.00,1.62
9210.00,1.63
9209.00,1.63
9208.00,1.63
9207.00,1.63
9206.00,1.63
9205.00,1.63
9204.00,1.64
9203.00,1.64
9202.00,1.64
9201.00,1.64
9200.00,1.64
9199.00,1.64
9198.00,1.64
9197.00,1.64
9196.00,1.65
9195.00,1.65
9194.00,1.65
9193.00,1.65
9192.00,1.65
9191.00,1.65
9190.00,1.65
9189.00,1.65
9188.00,1.64
9187.00,1.64
9186.00,1.64
9185.00,1.64
9184.00,1.64
9183.00,1.64
9182.00,1.64
9181.00,1.64
9180.00,1.64
9179.00,1.64
9178.00,1.64
9177.00,1.64
9176.00,1.64
9175.00,1.64
9174.00,1.64
9173.00,1.64
9172.00,1.64
9171.00,1.65
9170.00,1.65
9169.00,1.65
9168.00,1.65
9167.00,1.65
9166.00,1.65
9165.00,1.65
9164.00,1.66
9163.00,1.66
9162.00,1.66
9161.00,1.66
9160.00,1.66
9159.00,1.66
9158.00,1.66
9157.00,1.66
9156.00,1.66
9155.00,1.66
9154.00,1.65
9153.00,1.65
9152.00,1.65
9151.00,1.65
9150.00,1.65
9149.00,1.64
9148.00,1.64
9147.00,1.64
9146.00,1.64
9145.00,1.64
9144.00,1.63
9143.00,1.63
9142.00,1.63
9141.00,1.63
9140.00,1.63
9139.00,1.63
9138.00,1.63
9137.00,1.63
9136.00,1.63
9135.00,1.63
9134.00,1.64
9133.00,1.64
9132.00,1.64
9131.00,1.64
9130.00,1.64
9129.00,1.64
9128.00,1.64
9127.00,1.64
9126.00,1.64
9125.00,1.64
9124.00,1.64
9123.00,1.64
9122.00,1.64
9121.00,1.64
9120.00,1.64
9119.00,1.65
9118.00,1.65
9117.00,1.65
9116.00,1.65
9115.00,1.65
9114.00,1.65
9113.00,1.65
9112.00,1.65
9111.00,1.65
9110.00,1.65
9109.00,1.65
9108.00,1.65
9107.00,1.65
9106.00,1.65
9105.00,1.65
9104.00,1.65
9103.00,1.65
9102.00,1.65
9101.00,1.65
9100.00,1.65
9099.00,1.65
9098.00,1.65
9097.00,1.64
9096.00,1.64
9095.00,1.64
9094.00,1.64
9093.00,1.64
9092.00,1.64
9091.00,1.64
9090.00,1.64
9089.00,1.64
9088.00,1.64
9087.00,1.64
9086.00,1.64
9085.00,1.64
9084.00,1.64
9083.00,1.64
9082.00,1.65
9081.00,1.65
9080.00,1.65
9079.00,1.65
9078.00,1.65
9077.00,1.66
9076.00,1.66
9075.00,1.66
9074.00,1.66
9073.00,1.66
9072.00,1.66
9071.00,1.66
9070.00,1.66
9069.00,1.66
9068.00,1.66
9067.00,1.66
9066.00,1.65
9065.00,1.65
9064.00,1.65
9063.00,1.65
9062.00,1.65
9061.00,1.65
9060.00,1.65
9059.00,1.65
9058.00,1.65
9057.00,1.65
9056.00,1.65
9055.00,1.65
9054.00,1.65
9053.00,1.65
9052.00,1.65
9051.00,1.65
9050.00,1.65
9049.00,1.65
9048.00,1.65
9047.00,1.65
9046.00,1.66
9045.00,1.66
9044.00,1.66
9043.00,1.66
9042.00,1.66
9041.00,1.66
9040.00,1.66
9039.00,1.66
9038.00,1.66
9037.00,1.66
9036.00,1.66
9035.00,1.66
9034.00,1.66
9033.00,1.66
9032.00,1.66
9031.00,1.66
9030.00,1.66
9029.00,1.66
9028.00,1.66
9027.00,1.66
9026.00,1.66
9025.00,1.66
9024.00,1.66
9023.00,1.66
9022.00,1.66
9021.00,1.66
9020.00,1.66
9019.00,1.66
9018.00,1.66
9017.00,1.66
9016.00,1.66
9015.00,1.66
9014.00,1.66
9013.00,1.66
9012.00,1.66
9011.00,1.67
9010.00,1.67
9009.00,1.67
9008.00,1.67
9007.00,1.67
9006.00,1.67
9005.00,1.67
9004.00,1.67
9003.00,1.67
9002.00,1.67
9001.00,1.67
9000.00,1.67
8999.00,1.67
8998.00,1.67
8997.00,1.67
8996.00,1.67
8995.00,1.67
8994.00,1.67
8993.00,1.67
8992.00,1.67
8991.00,1.67
8990.00,1.67
8989.00,1.67
8988.00,1.67
8987.00,1.66
8986.00,1.66
8985.00,1.66
8984.00,1.66
8983.00,1.66
8982.00,1.66
8981.00,1.67
8980.00,1.67
8979.00,1.67
8978.00,1.67
8977.00,1.67
8976.00,1.67
8975.00,1.67
8974.00,1.68
8973.00,1.68
8972.00,1.68
8971.00,1.68
8970.00,1.68
8969.00,1.68
8968.00,1.67
8967.00,1.67
8966.00,1.67
8965.00,1.67
8964.00,1.67
8963.00,1.66
8962.00,1.66
8961.00,1.66
8960.00,1.66
8959.00,1.65
8958.00,1.65
8957.00,1.65
8956.00,1.65
8955.00,1.65
8954.00,1.65
8953.00,1.65
8952.00,1.65
8951.00,1.65
8950.00,1.65
8949.00,1.65
8948.00,1.65
8947.00,1.65
8946.00,1.66
8945.00,1.66
8944.00,1.66
8943.00,1.66
8942.00,1.66
8941.00,1.67
8940.00,1.67
8939.00,1.67
8938.00,1.67
8937.00,1.67
8936.00,1.68
8935.00,1.68
8934.00,1.68
8933.00,1.68
8932.00,1.68
8931.00,1.68
8930.00,1.68
8929.00,1.68
8928.00,1.68
8927.00,1.68
8926.00,1.69
8925.00,1.69
8924.00,1.69
8923.00,1.68
8922.00,1.68
8921.00,1.68
8920.00,1.68
8919.00,1.68
8918.00,1.68
8917.00,1.68
8916.00,1.68
8915.00,1.68
8914.00,1.67
8913.00,1.67
8912.00,1.67
8911.00,1.67
8910.00,1.67
8909.00,1.66
8908.00,1.66
8907.00,1.66
8906.00,1.66
8905.00,1.66
8904.00,1.66
8903.00,1.66
8902.00,1.66
8901.00,1.66
8900.00,1.66
8899.00,1.66
8898.00,1.66
8897.00,1.66
8896.00,1.66
8895.00,1.66
8894.00,1.66
8893.00,1.66
8892.00,1.66
8891.00,1.66
8890.00,1.66
8889.00,1.66
8888.00,1.66
8887.00,1.66
8886.00,1.66
8885.00,1.66
8884.00,1.66
8883.00,1.66
8882.00,1.66
8881.00,1.66
8880.00,1.66
8879.00,1.66
8878.00,1.65
8877.00,1.65
8876.00,1.65
8875.00,1.65
8874.00,1.65
8873.00,1.65
8872.00,1.65
8871.00,1.65
8870.00,1.65
8869.00,1.65
8868.00,1.65
8867.00,1.65
8866.00,1.64
8865.00,1.64
8864.00,1.64
8863.00,1.64
8862.00,1.64
8861.00,1.64
8860.00,1.64
8859.00,1.65
8858.00,1.65
8857.00,1.65
8856.00,1.65
8855.00,1.65
8854.00,1.65
8853.00,1.65
8852.00,1.65
8851.00,1.65
8850.00,1.65
8849.00,1.65
8848.00,1.65
8847.00,1.65
8846.00,1.65
8845.00,1.65
8844.00,1.65
8843.00,1.65
8842.00,1.65
8841.00,1.65
8840.00,1.65
8839.00,1.65
8838.00,1.65
8837.00,1.64
8836.00,1.64
8835.00,1.64
8834.00,1.64
8833.00,1.64
8832.00,1.64
8831.00,1.64
8830.00,1.64
8829.00,1.64
8828.00,1.64
8827.00,1.64
8826.00,1.64
8825.00,1.64
8824.00,1.64
8823.00,1.64
8822.00,1.64
8821.00,1.64
8820.00,1.63
8819.00,1.63
8818.00,1.63
8817.00,1.63
8816.00,1.62
8815.00,1.62
8814.00,1.62
8813.00,1.62
8812.00,1.61
8811.00,1.61
8810.00,1.61
8809.00,1.61
8808.00,1.61
8807.00,1.61
8806.00,1.61
8805.00,1.61
8804.00,1.61
8803.00,1.61
8802.00,1.61
8801.00,1.62
8800.00,1.62
8799.00,1.62
8798.00,1.63
8797.00,1.63
8796.00,1.63
8795.00,1.63
8794.00,1.63
8793.00,1.64
8792.00,1.64
8791.00,1.64
8790.00,1.64
8789.00,1.64
8788.00,1.64
8787.00,1.63
8786.00,1.63
8785.00,1.63
8784.00,1.63
8783.00,1.63
8782.00,1.63
8781.00,1.62
8780.00,1.62
8779.00,1.62
8778.00,1.62
8777.00,1.61
8776.00,1.61
8775.00,1.61
8774.00,1.61
8773.00,1.61
8772.00,1.61
8771.00,1.61
8770.00,1.61
8769.00,1.60
8768.00,1.60
8767.00,1.60
8766.00,1.60
8765.00,1.60
8764.00,1.60
8763.00,1.60
8762.00,1.60
8761.00,1.60
8760.00,1.60
8759.00,1.60
8758.00,1.60
8757.00,1.60
8756.00,1.60
8755.00,1.60
8754.00,1.60
8753.00,1.60
8752.00,1.60
8751.00,1.59
8750.00,1.59
8749.00,1.59
8748.00,1.59
8747.00,1.59
8746.00,1.59
8745.00,1.59
8744.00,1.59
8743.00,1.59
8742.00,1.59
8741.00,1.59
8740.00,1.59
8739.00,1.59
8738.00,1.59
8737.00,1.59
8736.00,1.59
8735.00,1.59
8734.00,1.59
8733.00,1.59
8732.00,1.59
8731.00,1.59
8730.00,1.59
8729.00,1.59
8728.00,1.58
8727.00,1.58
8726.00,1.58
8725.00,1.58
8724.00,1.58
8723.00,1.58
8722.00,1.58
8721.00,1.58
8720.00,1.57
8719.00,1.57
8718.00,1.57
8717.00,1.57
8716.00,1.57
8715.00,1.57
8714.00,1.57
8713.00,1.57
8712.00,1.57
8711.00,1.57
8710.00,1.57
8709.00,1.58
8708.00,1.58
8707.00,1.58
8706.00,1.58
8705.00,1.58
8704.00,1.58
8703.00,1.58
8702.00,1.58
8701.00,1.58
8700.00,1.58
8699.00,1.58
8698.00,1.59
8697.00,1.59
8696.00,1.59
8695.00,1.59
8694.00,1.59
8693.00,1.58
8692.00,1.58
8691.00,1.58
8690.00,1.58
8689.00,1.59
8688.00,1.59
8687.00,1.59
8686.00,1.59
8685.00,1.59
8684.00,1.59
8683.00,1.59
8682.00,1.59
8681.00,1.59
8680.00,1.59
8679.00,1.59
8678.00,1.59
8677.00,1.59
8676.00,1.59
8675.00,1.59
8674.00,1.59
8673.00,1.59
8672.00,1.59
8671.00,1.59
8670.00,1.59
8669.00,1.59
8668.00,1.59
8667.00,1.58
8666.00,1.58
8665.00,1.58
8664.00,1.58
8663.00,1.58
8662.00,1.58
8661.00,1.57
8660.00,1.57
8659.00,1.57
8658.00,1.57
8657.00,1.57
8656.00,1.57
8655.00,1.58
8654.00,1.58
8653.00,1.58
8652.00,1.58
8651.00,1.58
8650.00,1.58
8649.00,1.58
8648.00,1.58
8647.00,1.58
8646.00,1.58
8645.00,1.58
8644.00,1.59
8643.00,1.59
8642.00,1.59
8641.00,1.59
8640.00,1.59
8639.00,1.59
8638.00,1.59
8637.00,1.58
8636.00,1.58
8635.00,1.58
8634.00,1.58
8633.00,1.58
8632.00,1.58
8631.00,1.58
8630.00,1.57
8629.00,1.57
8628.00,1.57
8627.00,1.56
8626.00,1.56
8625.00,1.56
8624.00,1.56
8623.00,1.56
8622.00,1.56
8621.00,1.55
8620.00,1.55
8619.00,1.55
8618.00,1.56
8617.00,1.56
8616.00,1.56
8615.00,1.56
8614.00,1.56
8613.00,1.57
8612.00,1.57
8611.00,1.57
8610.00,1.57
8609.00,1.58
8608.00,1.58
8607.00,1.58
8606.00,1.58
8605.00,1.58
8604.00,1.58
8603.00,1.58
8602.00,1.58
8601.00,1.58
8600.00,1.58
8599.00,1.58
8598.00,1.57
8597.00,1.57
8596.00,1.57
8595.00,1.57
8594.00,1.56
8593.00,1.56
8592.00,1.56
8591.00,1.56
8590.00,1.55
8589.00,1.55
8588.00,1.55
8587.00,1.55
8586.00,1.55
8585.00,1.55
8584.00,1.55
8583.00,1.55
8582.00,1.55
8581.00,1.55
8580.00,1.55
8579.00,1.55
8578.00,1.56
8577.00,1.56
8576.00,1.56
8575.00,1.56
8574.00,1.56
8573.00,1.56
8572.00,1.56
8571.00,1.56
8570.00,1.56
8569.00,1.56
8568.00,1.56
8567.00,1.56
8566.00,1.56
8565.00,1.56
8564.00,1.55
8563.00,1.55
8562.00,1.55
8561.00,1.55
8560.00,1.55
8559.00,1.55
8558.00,1.55
8557.00,1.55
8556.00,1.54
8555.00,1.54
8554.00,1.54
8553.00,1.54
8552.00,1.54
8551.00,1.54
8550.00,1.54
8549.00,1.54
8548.00,1.54
8547.00,1.53
8546.00,1.53
8545.00,1.53
8544.00,1.53
8543.00,1.53
8542.00,1.53
8541.00,1.53
8540.00,1.53
8539.00,1.53
8538.00,1.53
8537.00,1.52
8536.00,1.52
8535.00,1.52
8534.00,1.52
8533.00,1.52
8532.00,1.52
8531.00,1.52
8530.00,1.52
8529.00,1.52
8528.00,1.52
8527.00,1.52
8526.00,1.52
8525.00,1.52
8524.00,1.52
8523.00,1.52
8522.00,1.52
8521.00,1.52
8520.00,1.51
8519.00,1.51
8518.00,1.51
8517.00,1.51
8516.00,1.51
8515.00,1.51
8514.00,1.51
8513.00,1.51
8512.00,1.51
8511.00,1.51
8510.00,1.51
8509.00,1.51
8508.00,1.51
8507.00,1.51
8506.00,1.51
8505.00,1.52
8504.00,1.52
8503.00,1.52
8502.00,1.52
8501.00,1.52
8500.00,1.52
8499.00,1.52
8498.00,1.52
8497.00,1.52
8496.00,1.52
8495.00,1.52
8494.00,1.51
8493.00,1.51
8492.00,1.51
8491.00,1.51
8490.00,1.51
8489.00,1.51
8488.00,1.51
8487.00,1.50
8486.00,1.50
8485.00,1.50
8484.00,1.50
8483.00,1.50
8482.00,1.50
8481.00,1.50
8480.00,1.50
8479.00,1.50
8478.00,1.50
8477.00,1.50
8476.00,1.50
8475.00,1.50
8474.00,1.50
8473.00,1.50
8472.00,1.50
8471.00,1.50
8470.00,1.50
8469.00,1.50
8468.00,1.50
8467.00,1.50
8466.00,1.50
8465.00,1.50
8464.00,1.49
8463.00,1.49
8462.00,1.49
8461.00,1.49
8460.00,1.49
8459.00,1.49
8458.00,1.49
8457.00,1.49
8456.00,1.49
8455.00,1.49
8454.00,1.48
8453.00,1.48
8452.00,1.48
8451.00,1.48
8450.00,1.48
8449.00,1.48
8448.00,1.48
8447.00,1.48
8446.00,1.48
8445.00,1.48
8444.00,1.48
8443.00,1.48
8442.00,1.48
8441.00,1.48
8440.00,1.48
8439.00,1.48
8438.00,1.48
8437.00,1.48
8436.00,1.49
8435.00,1.49
8434.00,1.49
8433.00,1.49
8432.00,1.49
8431.00,1.49
8430.00,1.49
8429.00,1.49
8428.00,1.49
8427.00,1.48
8426.00,1.48
8425.00,1.48
8424.00,1.48
8423.00,1.48
8422.00,1.48
8421.00,1.48
8420.00,1.47
8419.00,1.47
8418.00,1.47
8417.00,1.47
8416.00,1.47
8415.00,1.47
8414.00,1.47
8413.00,1.47
8412.00,1.47
8411.00,1.47
8410.00,1.47
8409.00,1.47
8408.00,1.47
8407.00,1.47
8406.00,1.47
8405.00,1.47
8404.00,1.47
8403.00,1.48
8402.00,1.48
8401.00,1.48
8400.00,1.48
8399.00,1.49
8398.00,1.49
8397.00,1.49
8396.00,1.49
8395.00,1.49
8394.00,1.49
8393.00,1.49
8392.00,1.50
8391.00,1.50
8390.00,1.50
8389.00,1.50
8388.00,1.50
8387.00,1.50
8386.00,1.50
8385.00,1.50
8384.00,1.51
8383.00,1.51
8382.00,1.51
8381.00,1.51
8380.00,1.51
8379.00,1.51
8378.00,1.52
8377.00,1.52
8376.00,1.52
8375.00,1.52
8374.00,1.52
8373.00,1.52
8372.00,1.52
8371.00,1.52
8370.00,1.52
8369.00,1.52
8368.00,1.52
8367.00,1.52
8366.00,1.52
8365.00,1.52
8364.00,1.52
8363.00,1.52
8362.00,1.52
8361.00,1.52
8360.00,1.52
8359.00,1.52
8358.00,1.52
8357.00,1.52
8356.00,1.52
8355.00,1.52
8354.00,1.53
8353.00,1.53
8352.00,1.53
8351.00,1.53
8350.00,1.53
8349.00,1.53
8348.00,1.54
8347.00,1.54
8346.00,1.54
8345.00,1.54
8344.00,1.54
8343.00,1.54
8342.00,1.54
8341.00,1.54
8340.00,1.54
8339.00,1.54
8338.00,1.54
8337.00,1.53
8336.00,1.53
8335.00,1.53
8334.00,1.53
8333.00,1.53
8332.00,1.53
8331.00,1.53
8330.00,1.53
8329.00,1.53
8328.00,1.53
8327.00,1.53
8326.00,1.53
8325.00,1.53
8324.00,1.53
8323.00,1.53
8322.00,1.53
8321.00,1.53
8320.00,1.53
8319.00,1.53
8318.00,1.53
8317.00,1.53
8316.00,1.53
8315.00,1.53
8314.00,1.53
8313.00,1.53
8312.00,1.53
8311.00,1.53
8310.00,1.53
8309.00,1.53
8308.00,1.53
8307.00,1.54
8306.00,1.54
8305.00,1.54
8304.00,1.54
8303.00,1.54
8302.00,1.54
8301.00,1.54
8300.00,1.55
8299.00,1.55
8298.00,1.55
8297.00,1.55
8296.00,1.55
8295.00,1.55
8294.00,1.55
8293.00,1.56
8292.00,1.56
8291.00,1.56
8290.00,1.56
8289.00,1.56
8288.00,1.56
8287.00,1.56
8286.00,1.55
8285.00,1.55
8284.00,1.55
8283.00,1.55
8282.00,1.55
8281.00,1.55
8280.00,1.55
8279.00,1.55
8278.00,1.55
8277.00,1.55
8276.00,1.55
8275.00,1.55
8274.00,1.55
8273.00,1.55
8272.00,1.55
8271.00,1.55
8270.00,1.55
8269.00,1.55
8268.00,1.55
8267.00,1.55
8266.00,1.55
8265.00,1.55
8264.00,1.55
8263.00,1.55
8262.00,1.55
8261.00,1.54
8260.00,1.54
8259.00,1.54
8258.00,1.54
8257.00,1.54
8256.00,1.54
8255.00,1.54
8254.00,1.54
8253.00,1.54
8252.00,1.54
8251.00,1.54
8250.00,1.54
8249.00,1.54
8248.00,1.54
8247.00,1.54
8246.00,1.55
8245.00,1.55
8244.00,1.55
8243.00,1.55
8242.00,1.55
8241.00,1.55
8240.00,1.55
8239.00,1.55
8238.00,1.55
8237.00,1.55
8236.00,1.55
8235.00,1.55
8234.00,1.55
8233.00,1.55
8232.00,1.55
8231.00,1.55
8230.00,1.55
8229.00,1.55
8228.00,1.55
8227.00,1.55
8226.00,1.56
8225.00,1.56
8224.00,1.56
8223.00,1.56
8222.00,1.56
8221.00,1.56
8220.00,1.56
8219.00,1.56
8218.00,1.56
8217.00,1.56
8216.00,1.56
8215.00,1.56
8214.00,1.56
8213.00,1.56
8212.00,1.56
8211.00,1.56
8210.00,1.56
8209.00,1.56
8208.00,1.56
8207.00,1.56
8206.00,1.56
8205.00,1.56
8204.00,1.56
8203.00,1.56
8202.00,1.56
8201.00,1.56
8200.00,1.56
8199.00,1.56
8198.00,1.56
8197.00,1.56
8196.00,1.57
8195.00,1.57
8194.00,1.57
8193.00,1.57
8192.00,1.57
8191.00,1.57
8190.00,1.57
8189.00,1.57
8188.00,1.57
8187.00,1.57
8186.00,1.57
8185.00,1.57
8184.00,1.57
8183.00,1.57
8182.00,1.58
8181.00,1.58
8180.00,1.58
8179.00,1.58
8178.00,1.58
8177.00,1.58
8176.00,1.58
8175.00,1.58
8174.00,1.58
8173.00,1.58
8172.00,1.58
8171.00,1.58
8170.00,1.58
8169.00,1.58
8168.00,1.58
8167.00,1.59
8166.00,1.59
8165.00,1.59
8164.00,1.59
8163.00,1.59
8162.00,1.59
8161.00,1.59
8160.00,1.59
8159.00,1.59
8158.00,1.59
8157.00,1.59
8156.00,1.59
8155.00,1.59
8154.00,1.59
8153.00,1.59
8152.00,1.59
8151.00,1.59
8150.00,1.59
8149.00,1.59
8148.00,1.59
8147.00,1.59
8146.00,1.59
8145.00,1.59
8144.00,1.59
8143.00,1.59
8142.00,1.59
8141.00,1.59
8140.00,1.59
8139.00,1.59
8138.00,1.59
8137.00,1.59
8136.00,1.59
8135.00,1.59
8134.00,1.59
8133.00,1.59
8132.00,1.59
8131.00,1.59
8130.00,1.59
8129.00,1.59
8128.00,1.59
8127.00,1.59
8126.00,1.59
8125.00,1.59
8124.00,1.59
8123.00,1.59
8122.00,1.59
8121.00,1.59
8120.00,1.59
8119.00,1.58
8118.00,1.58
8117.00,1.58
8116.00,1.58
8115.00,1.59
8114.00,1.59
8113.00,1.59
8112.00,1.59
8111.00,1.59
8110.00,1.59
8109.00,1.59
8108.00,1.60
8107.00,1.60
8106.00,1.60
8105.00,1.60
8104.00,1.60
8103.00,1.61
8102.00,1.61
8101.00,1.61
8100.00,1.61
8099.00,1.61
8098.00,1.62
8097.00,1.62
8096.00,1.62
8095.00,1.62
8094.00,1.62
8093.00,1.62
8092.00,1.62
8091.00,1.62
8090.00,1.62
8089.00,1.62
8088.00,1.62
8087.00,1.62
8086.00,1.62
8085.00,1.62
8084.00,1.61
8083.00,1.61
8082.00,1.61
8081.00,1.61
8080.00,1.61
8079.00,1.61
8078.00,1.61
8077.00,1.61
8076.00,1.61
8075.00,1.61
8074.00,1.61
8073.00,1.61
8072.00,1.61
8071.00,1.61
8070.00,1.61
8069.00,1.61
8068.00,1.61
8067.00,1.61
8066.00,1.61
8065.00,1.61
8064.00,1.61
8063.00,1.61
8062.00,1.61
8061.00,1.62
8060.00,1.62
8059.00,1.62
8058.00,1.62
8057.00,1.62
8056.00,1.62
8055.00,1.62
8054.00,1.62
8053.00,1.62
8052.00,1.62
8051.00,1.62
8050.00,1.62
8049.00,1.62
8048.00,1.63
8047.00,1.63
8046.00,1.63
8045.00,1.63
8044.00,1.63
8043.00,1.63
8042.00,1.63
8041.00,1.63
8040.00,1.63
8039.00,1.63
8038.00,1.63
8037.00,1.63
8036.00,1.64
8035.00,1.64
8034.00,1.64
8033.00,1.64
8032.00,1.64
8031.00,1.64
8030.00,1.63
8029.00,1.63
8028.00,1.63
8027.00,1.63
8026.00,1.63
8025.00,1.63
8024.00,1.63
8023.00,1.63
8022.00,1.63
8021.00,1.63
8020.00,1.63
8019.00,1.63
8018.00,1.62
8017.00,1.62
8016.00,1.62
8015.00,1.63
8014.00,1.63
8013.00,1.63
8012.00,1.63
8011.00,1.63
8010.00,1.63
8009.00,1.63
8008.00,1.63
8007.00,1.63
8006.00,1.63
8005.00,1.63
8004.00,1.63
8003.00,1.63
8002.00,1.63
8001.00,1.63
8000.00,1.63
7999.00,1.63
7998.00,1.63
7997.00,1.63
7996.00,1.63
7995.00,1.63
7994.00,1.63
7993.00,1.63
7992.00,1.63
7991.00,1.63
7990.00,1.63
7989.00,1.63
7988.00,1.63
7987.00,1.63
7986.00,1.63
7985.00,1.63
7984.00,1.63
7983.00,1.63
7982.00,1.63
7981.00,1.63
7980.00,1.63
7979.00,1.63
7978.00,1.64
7977.00,1.64
7976.00,1.64
7975.00,1.64
7974.00,1.64
7973.00,1.64
7972.00,1.64
7971.00,1.64
7970.00,1.64
7969.00,1.64
7968.00,1.64
7967.00,1.64
7966.00,1.64
7965.00,1.64
7964.00,1.64
7963.00,1.64
7962.00,1.64
7961.00,1.64
7960.00,1.64
7959.00,1.64
7958.00,1.64
7957.00,1.64
7956.00,1.64
7955.00,1.64
7954.00,1.64
7953.00,1.64
7952.00,1.64
7951.00,1.64
7950.00,1.64
7949.00,1.64
7948.00,1.64
7947.00,1.64
7946.00,1.64
7945.00,1.64
7944.00,1.64
7943.00,1.64
7942.00,1.64
7941.00,1.64
7940.00,1.64
7939.00,1.64
7938.00,1.64
7937.00,1.64
7936.00,1.64
7935.00,1.64
7934.00,1.64
7933.00,1.64
7932.00,1.64
7931.00,1.64
7930.00,1.64
7929.00,1.64
7928.00,1.64
7927.00,1.64
7926.00,1.64
7925.00,1.64
7924.00,1.64
7923.00,1.64
7922.00,1.64
7921.00,1.64
7920.00,1.64
7919.00,1.64
7918.00,1.64
7917.00,1.64
7916.00,1.64
7915.00,1.64
7914.00,1.64
7913.00,1.64
7912.00,1.65
7911.00,1.65
7910.00,1.65
7909.00,1.65
7908.00,1.65
7907.00,1.65
7906.00,1.66
7905.00,1.66
7904.00,1.66
7903.00,1.66
7902.00,1.66
7901.00,1.66
7900.00,1.66
7899.00,1.66
7898.00,1.66
7897.00,1.66
7896.00,1.66
7895.00,1.66
7894.00,1.66
7893.00,1.66
7892.00,1.66
7891.00,1.66
7890.00,1.66
7889.00,1.66
7888.00,1.66
7887.00,1.66
7886.00,1.66
7885.00,1.66
7884.00,1.66
7883.00,1.66
7882.00,1.66
7881.00,1.66
7880.00,1.66
7879.00,1.66
7878.00,1.66
7877.00,1.66
7876.00,1.66
7875.00,1.66
7874.00,1.66
7873.00,1.66
7872.00,1.66
7871.00,1.66
7870.00,1.66
7869.00,1.65
7868.00,1.65
7867.00,1.65
7866.00,1.65
7865.00,1.65
7864.00,1.65
7863.00,1.65
7862.00,1.65
7861.00,1.65
7860.00,1.65
7859.00,1.65
7858.00,1.65
7857.00,1.66
7856.00,1.66
7855.00,1.66
7854.00,1.66
7853.00,1.66
7852.00,1.66
7851.00,1.66
7850.00,1.66
7849.00,1.66
7848.00,1.66
7847.00,1.66
7846.00,1.66
7845.00,1.66
7844.00,1.66
7843.00,1.66
7842.00,1.66
7841.00,1.66
7840.00,1.66
7839.00,1.66
7838.00,1.66
7837.00,1.66
7836.00,1.66
7835.00,1.66
7834.00,1.67
7833.00,1.67
7832.00,1.67
7831.00,1.67
7830.00,1.67
7829.00,1.67
7828.00,1.67
7827.00,1.67
7826.00,1.67
7825.00,1.67
7824.00,1.67
7823.00,1.67
7822.00,1.67
7821.00,1.67
7820.00,1.67
7819.00,1.67
7818.00,1.67
7817.00,1.67
7816.00,1.67
7815.00,1.67
7814.00,1.67
7813.00,1.67
7812.00,1.67
7811.00,1.67
7810.00,1.66
7809.00,1.66
7808.00,1.66
7807.00,1.66
7806.00,1.66
7805.00,1.66
7804.00,1.66
7803.00,1.66
7802.00,1.66
7801.00,1.65
7800.00,1.65
7799.00,1.65
7798.00,1.66
7797.00,1.66
7796.00,1.66
7795.00,1.66
7794.00,1.66
7793.00,1.66
7792.00,1.66
7791.00,1.66
7790.00,1.67
7789.00,1.67
7788.00,1.67
7787.00,1.67
7786.00,1.67
7785.00,1.67
7784.00,1.67
7783.00,1.68
7782.00,1.68
7781.00,1.68
7780.00,1.68
7779.00,1.68
7778.00,1.68
7777.00,1.68
7776.00,1.68
7775.00,1.68
7774.00,1.68
7773.00,1.68
7772.00,1.68
7771.00,1.68
7770.00,1.68
7769.00,1.68
7768.00,1.68
7767.00,1.68
7766.00,1.68
7765.00,1.68
7764.00,1.67
7763.00,1.67
7762.00,1.67
7761.00,1.67
7760.00,1.67
7759.00,1.67
7758.00,1.67
7757.00,1.67
7756.00,1.67
7755.00,1.67
7754.00,1.67
7753.00,1.67
7752.00,1.67
7751.00,1.67
7750.00,1.67
7749.00,1.67
7748.00,1.67
7747.00,1.67
7746.00,1.67
7745.00,1.67
7744.00,1.67
7743.00,1.67
7742.00,1.67
7741.00,1.67
7740.00,1.67
7739.00,1.67
7738.00,1.67
7737.00,1.67
7736.00,1.67
7735.00,1.67
7734.00,1.67
7733.00,1.67
7732.00,1.67
7731.00,1.67
7730.00,1.67
7729.00,1.67
7728.00,1.67
7727.00,1.67
7726.00,1.67
7725.00,1.67
7724.00,1.67
7723.00,1.67
7722.00,1.68
7721.00,1.68
7720.00,1.68
7719.00,1.68
7718.00,1.68
7717.00,1.68
7716.00,1.68
7715.00,1.68
7714.00,1.68
7713.00,1.68
7712.00,1.68
7711.00,1.68
7710.00,1.68
7709.00,1.68
7708.00,1.69
7707.00,1.69
7706.00,1.69
7705.00,1.68
7704.00,1.68
7703.00,1.68
7702.00,1.68
7701.00,1.68
7700.00,1.68
7699.00,1.68
7698.00,1.68
7697.00,1.68
7696.00,1.68
7695.00,1.68
7694.00,1.68
7693.00,1.68
7692.00,1.68
7691.00,1.68
7690.00,1.68
7689.00,1.67
7688.00,1.67
7687.00,1.67
7686.00,1.67
7685.00,1.67
7684.00,1.67
7683.00,1.67
7682.00,1.67
7681.00,1.67
7680.00,1.67
7679.00,1.67
7678.00,1.67
7677.00,1.67
7676.00,1.67
7675.00,1.67
7674.00,1.68
7673.00,1.68
7672.00,1.68
7671.00,1.68
7670.00,1.68
7669.00,1.68
7668.00,1.68
7667.00,1.68
7666.00,1.68
7665.00,1.68
7664.00,1.68
7663.00,1.68
7662.00,1.68
7661.00,1.68
7660.00,1.69
7659.00,1.69
7658.00,1.69
7657.00,1.69
7656.00,1.69
7655.00,1.69
7654.00,1.68
7653.00,1.68
7652.00,1.68
7651.00,1.68
7650.00,1.68
7649.00,1.68
7648.00,1.68
7647.00,1.68
7646.00,1.68
7645.00,1.68
7644.00,1.68
7643.00,1.68
7642.00,1.68
7641.00,1.68
7640.00,1.69
7639.00,1.69
7638.00,1.69
7637.00,1.69
7636.00,1.69
7635.00,1.69
7634.00,1.69
7633.00,1.69
7632.00,1.69
7631.00,1.69
7630.00,1.69
7629.00,1.69
7628.00,1.69
7627.00,1.68
7626.00,1.68
7625.00,1.68
7624.00,1.68
7623.00,1.68
7622.00,1.68
7621.00,1.68
7620.00,1.68
7619.00,1.68
7618.00,1.68
7617.00,1.68
7616.00,1.68
7615.00,1.68
7614.00,1.68
7613.00,1.68
7612.00,1.68
7611.00,1.68
7610.00,1.68
7609.00,1.68
7608.00,1.68
7607.00,1.68
7606.00,1.68
7605.00,1.68
7604.00,1.68
7603.00,1.68
7602.00,1.68
7601.00,1.68
7600.00,1.68
7599.00,1.68
7598.00,1.68
7597.00,1.68
7596.00,1.68
7595.00,1.68
7594.00,1.68
7593.00,1.68
7592.00,1.68
7591.00,1.68
7590.00,1.68
7589.00,1.68
7588.00,1.68
7587.00,1.68
7586.00,1.68
7585.00,1.68
7584.00,1.68
7583.00,1.68
7582.00,1.68
7581.00,1.69
7580.00,1.69
7579.00,1.68
7578.00,1.68
7577.00,1.68
7576.00,1.68
7575.00,1.68
7574.00,1.68
7573.00,1.68
7572.00,1.68
7571.00,1.68
7570.00,1.67
7569.00,1.67
7568.00,1.67
7567.00,1.67
7566.00,1.67
7565.00,1.67
7564.00,1.66
7563.00,1.66
7562.00,1.66
7561.00,1.66
7560.00,1.66
7559.00,1.66
7558.00,1.66
7557.00,1.66
7556.00,1.66
7555.00,1.66
7554.00,1.66
7553.00,1.66
7552.00,1.66
7551.00,1.66
7550.00,1.66
7549.00,1.66
7548.00,1.66
7547.00,1.66
7546.00,1.67
7545.00,1.67
7544.00,1.67
7543.00,1.67
7542.00,1.67
7541.00,1.67
7540.00,1.67
7539.00,1.66
7538.00,1.66
7537.00,1.66
7536.00,1.66
7535.00,1.66
7534.00,1.66
7533.00,1.66
7532.00,1.66
7531.00,1.66
7530.00,1.66
7529.00,1.66
7528.00,1.66
7527.00,1.66
7526.00,1.66
7525.00,1.66
7524.00,1.66
7523.00,1.66
7522.00,1.66
7521.00,1.66
7520.00,1.65
7519.00,1.65
7518.00,1.65
7517.00,1.65
7516.00,1.65
7515.00,1.65
7514.00,1.65
7513.00,1.65
7512.00,1.65
7511.00,1.65
7510.00,1.65
7509.00,1.65
7508.00,1.65
7507.00,1.65
7506.00,1.65
7505.00,1.65
7504.00,1.65
7503.00,1.65
7502.00,1.65
7501.00,1.65
7500.00,1.65
7499.00,1.65
7498.00,1.65
7497.00,1.65
7496.00,1.65
7495.00,1.65
7494.00,1.65
7493.00,1.65
7492.00,1.65
7491.00,1.65
7490.00,1.65
7489.00,1.65
7488.00,1.65
7487.00,1.65
7486.00,1.65
7485.00,1.65
7484.00,1.65
7483.00,1.65
7482.00,1.65
7481.00,1.65
7480.00,1.64
7479.00,1.64
7478.00,1.64
7477.00,1.64
7476.00,1.64
7475.00,1.64
7474.00,1.64
7473.00,1.64
7472.00,1.63
7471.00,1.63
7470.00,1.63
7469.00,1.63
7468.00,1.63
7467.00,1.63
7466.00,1.63
7465.00,1.63
7464.00,1.63
7463.00,1.63
7462.00,1.63
7461.00,1.63
7460.00,1.63
7459.00,1.63
7458.00,1.63
7457.00,1.63
7456.00,1.63
7455.00,1.63
7454.00,1.63
7453.00,1.63
7452.00,1.63
7451.00,1.63
7450.00,1.63
7449.00,1.63
7448.00,1.62
7447.00,1.62
7446.00,1.62
7445.00,1.62
7444.00,1.62
7443.00,1.62
7442.00,1.61
7441.00,1.61
7440.00,1.61
7439.00,1.61
7438.00,1.61
7437.00,1.60
7436.00,1.60
7435.00,1.60
7434.00,1.60
7433.00,1.60
7432.00,1.60
7431.00,1.60
7430.00,1.59
7429.00,1.59
7428.00,1.59
7427.00,1.59
7426.00,1.59
7425.00,1.59
7424.00,1.59
7423.00,1.59
7422.00,1.59
7421.00,1.59
7420.00,1.59
7419.00,1.59
7418.00,1.59
7417.00,1.59
7416.00,1.59
7415.00,1.59
7414.00,1.59
7413.00,1.59
7412.00,1.59
7411.00,1.59
7410.00,1.59
7409.00,1.59
7408.00,1.59
7407.00,1.59
7406.00,1.59
7405.00,1.59
7404.00,1.59
7403.00,1.58
7402.00,1.58
7401.00,1.58
7400.00,1.58
7399.00,1.58
7398.00,1.58
7397.00,1.58
7396.00,1.58
7395.00,1.58
7394.00,1.58
7393.00,1.58
7392.00,1.58
7391.00,1.58
7390.00,1.57
7389.00,1.57
7388.00,1.57
7387.00,1.57
7386.00,1.57
7385.00,1.57
7384.00,1.57
7383.00,1.56
7382.00,1.56
7381.00,1.56
7380.00,1.56
7379.00,1.56
7378.00,1.56
7377.00,1.55
7376.00,1.55
7375.00,1.55
7374.00,1.55
7373.00,1.55
7372.00,1.55
7371.00,1.55
7370.00,1.55
7369.00,1.55
7368.00,1.55
7367.00,1.55
7366.00,1.55
7365.00,1.55
7364.00,1.55
7363.00,1.55
7362.00,1.55
7361.00,1.55
7360.00,1.55
7359.00,1.55
7358.00,1.55
7357.00,1.55
7356.00,1.55
7355.00,1.55
7354.00,1.55
7353.00,1.54
7352.00,1.54
7351.00,1.54
7350.00,1.54
7349.00,1.54
7348.00,1.54
7347.00,1.54
7346.00,1.54
7345.00,1.54
7344.00,1.54
7343.00,1.54
7342.00,1.54
7341.00,1.54
7340.00,1.54
7339.00,1.53
7338.00,1.53
7337.00,1.53
7336.00,1.53
7335.00,1.53
7334.00,1.53
7333.00,1.53
7332.00,1.53
7331.00,1.53
7330.00,1.53
7329.00,1.53
7328.00,1.53
7327.00,1.53
7326.00,1.53
7325.00,1.53
7324.00,1.52
7323.00,1.52
7322.00,1.52
7321.00,1.52
7320.00,1.52
7319.00,1.52
7318.00,1.52
7317.00,1.52
7316.00,1.52
7315.00,1.52
7314.00,1.52
7313.00,1.51
7312.00,1.51
7311.00,1.51
7310.00,1.51
7309.00,1.51
7308.00,1.51
7307.00,1.51
7306.00,1.51
7305.00,1.51
7304.00,1.51
7303.00,1.51
7302.00,1.51
7301.00,1.51
7300.00,1.50
7299.00,1.50
7298.00,1.50
7297.00,1.50
7296.00,1.50
7295.00,1.50
7294.00,1.50
7293.00,1.49
7292.00,1.49
7291.00,1.49
7290.00,1.49
7289.00,1.49
7288.00,1.49
7287.00,1.49
7286.00,1.49
7285.00,1.49
7284.00,1.49
7283.00,1.48
7282.00,1.48
7281.00,1.48
7280.00,1.48
7279.00,1.48
7278.00,1.48
7277.00,1.48
7276.00,1.48
7275.00,1.48
7274.00,1.48
7273.00,1.48
7272.00,1.48
7271.00,1.47
7270.00,1.47
7269.00,1.47
7268.00,1.47
7267.00,1.47
7266.00,1.47
7265.00,1.47
7264.00,1.47
7263.00,1.47
7262.00,1.46
7261.00,1.46
7260.00,1.46
7259.00,1.46
7258.00,1.46
7257.00,1.45
7256.00,1.45
7255.00,1.45
7254.00,1.45
7253.00,1.44
7252.00,1.44
7251.00,1.44
7250.00,1.44
7249.00,1.43
7248.00,1.43
7247.00,1.43
7246.00,1.43
7245.00,1.42
7244.00,1.42
7243.00,1.42
7242.00,1.42
7241.00,1.41
7240.00,1.41
7239.00,1.41
7238.00,1.41
7237.00,1.40
7236.00,1.40
7235.00,1.40
7234.00,1.39
7233.00,1.39
7232.00,1.39
7231.00,1.38
7230.00,1.38
7229.00,1.37
7228.00,1.37
7227.00,1.37
7226.00,1.36
7225.00,1.36
7224.00,1.35
7223.00,1.35
7222.00,1.35
7221.00,1.34
7220.00,1.34
7219.00,1.34
7218.00,1.33
7217.00,1.33
7216.00,1.33
7215.00,1.32
7214.00,1.32
7213.00,1.32
7212.00,1.31
7211.00,1.31
7210.00,1.31
7209.00,1.31
7208.00,1.30
7207.00,1.30
7206.00,1.30
7205.00,1.29
7204.00,1.29
7203.00,1.29
7202.00,1.28
7201.00,1.28
7200.00,1.28
7199.00,1.27
7198.00,1.27
7197.00,1.26
7196.00,1.26
7195.00,1.26
7194.00,1.25
7193.00,1.25
7192.00,1.25
7191.00,1.24
7190.00,1.24
7189.00,1.24
7188.00,1.23
7187.00,1.23
7186.00,1.23
7185.00,1.22
7184.00,1.22
7183.00,1.22
7182.00,1.21
7181.00,1.21
7180.00,1.21
7179.00,1.20
7178.00,1.20
7177.00,1.20
7176.00,1.19
7175.00,1.19
7174.00,1.19
7173.00,1.19
7172.00,1.18
7171.00,1.18
7170.00,1.18
7169.00,1.17
7168.00,1.17
7167.00,1.17
7166.00,1.16
7165.00,1.16
7164.00,1.16
7163.00,1.15
7162.00,1.15
7161.00,1.15
7160.00,1.15
7159.00,1.14
7158.00,1.14
7157.00,1.14
7156.00,1.13
7155.00,1.13
7154.00,1.13
7153.00,1.13
7152.00,1.12
7151.00,1.12
7150.00,1.12
7149.00,1.12
7148.00,1.11
7147.00,1.11
7146.00,1.11
7145.00,1.10
7144.00,1.10
7143.00,1.10
7142.00,1.09
7141.00,1.09
7140.00,1.09
7139.00,1.09
7138.00,1.08
7137.00,1.08
7136.00,1.08
7135.00,1.08
7134.00,1.07
7133.00,1.07
7132.00,1.07
7131.00,1.07
7130.00,1.06
7129.00,1.06
7128.00,1.06
7127.00,1.06
7126.00,1.05
7125.00,1.05
7124.00,1.05
7123.00,1.04
7122.00,1.04
7121.00,1.04
7120.00,1.03
7119.00,1.03
7118.00,1.03
7117.00,1.02
7116.00,1.02
7115.00,1.02
7114.00,1.01
7113.00,1.01
7112.00,1.01
7111.00,1.01
7110.00,1.00
7109.00,1.00
7108.00,1.00
7107.00,1.00
7106.00,0.99
7105.00,0.99
7104.00,0.99
7103.00,0.99
7102.00,0.99
7101.00,0.98
7100.00,0.98
7099.00,0.98
7098.00,0.98
7097.00,0.98
7096.00,0.98
7095.00,0.98
7094.00,0.97
7093.00,0.97
7092.00,0.97
7091.00,0.97
7090.00,0.97
7089.00,0.96
7088.00,0.96
7087.00,0.96
7086.00,0.96
7085.00,0.96
7084.00,0.95
7083.00,0.95
7082.00,0.95
7081.00,0.95
7080.00,0.95
7079.00,0.94
7078.00,0.94
7077.00,0.94
7076.00,0.94
7075.00,0.94
7074.00,0.94
7073.00,0.93
7072.00,0.93
7071.00,0.93
7070.00,0.93
7069.00,0.93
7068.00,0.93
7067.00,0.93
7066.00,0.93
7065.00,0.92
7064.00,0.92
7063.00,0.92
7062.00,0.92
7061.00,0.92
7060.00,0.92
7059.00,0.91
7058.00,0.91
7057.00,0.91
7056.00,0.91
7055.00,0.91
7054.00,0.91
7053.00,0.90
7052.00,0.90
7051.00,0.90
7050.00,0.90
7049.00,0.90
7048.00,0.90
7047.00,0.90
7046.00,0.90
7045.00,0.89
7044.00,0.89
7043.00,0.89
7042.00,0.89
7041.00,0.89
7040.00,0.89
7039.00,0.89
7038.00,0.89
7037.00,0.89
7036.00,0.89
7035.00,0.89
7034.00,0.89
7033.00,0.88
7032.00,0.88
7031.00,0.88
7030.00,0.88
7029.00,0.88
7028.00,0.88
7027.00,0.88
7026.00,0.87
7025.00,0.87
7024.00,0.87
7023.00,0.87
7022.00,0.87
7021.00,0.87
7020.00,0.87
7019.00,0.86
7018.00,0.86
7017.00,0.86
7016.00,0.86
7015.00,0.86
7014.00,0.86
7013.00,0.86
7012.00,0.86
7011.00,0.86
7010.00,0.86
7009.00,0.86
7008.00,0.86
7007.00,0.86
7006.00,0.85
7005.00,0.85
7004.00,0.85
7003.00,0.85
7002.00,0.85
7001.00,0.85
7000.00,0.85
6999.00,0.85
6998.00,0.85
6997.00,0.85
6996.00,0.85
6995.00,0.85
6994.00,0.85
6993.00,0.85
6992.00,0.85
6991.00,0.85
6990.00,0.85
6989.00,0.85
6988.00,0.84
6987.00,0.84
6986.00,0.84
6985.00,0.84
6984.00,0.84
6983.00,0.84
6982.00,0.84
6981.00,0.84
6980.00,0.84
6979.00,0.84
6978.00,0.83
6977.00,0.83
6976.00,0.83
6975.00,0.83
6974.00,0.83
6973.00,0.83
6972.00,0.83
6971.00,0.83
6970.00,0.83
6969.00,0.83
6968.00,0.83
6967.00,0.83
6966.00,0.83
6965.00,0.83
6964.00,0.83
6963.00,0.83
6962.00,0.83
6961.00,0.83
6960.00,0.83
6959.00,0.83
6958.00,0.83
6957.00,0.83
6956.00,0.83
6955.00,0.82
6954.00,0.82
6953.00,0.82
6952.00,0.82
6951.00,0.82
6950.00,0.82
6949.00,0.82
6948.00,0.82
6947.00,0.82
6946.00,0.82
6945.00,0.82
6944.00,0.82
6943.00,0.82
6942.00,0.82
6941.00,0.82
6940.00,0.82
6939.00,0.82
6938.00,0.82
6937.00,0.82
6936.00,0.82
6935.00,0.82
6934.00,0.82
6933.00,0.82
6932.00,0.82
6931.00,0.82
6930.00,0.82
6929.00,0.82
6928.00,0.82
6927.00,0.82
6926.00,0.82
6925.00,0.81
6924.00,0.81
6923.00,0.81
6922.00,0.81
6921.00,0.81
6920.00,0.81
6919.00,0.81
6918.00,0.81
6917.00,0.81
6916.00,0.81
6915.00,0.81
6914.00,0.81
6913.00,0.81
6912.00,0.81
6911.00,0.81
6910.00,0.81
6909.00,0.81
6908.00,0.81
6907.00,0.81
6906.00,0.81
6905.00,0.81
6904.00,0.81
6903.00,0.81
6902.00,0.81
6901.00,0.81
6900.00,0.81
6899.00,0.81
6898.00,0.81
6897.00,0.81
6896.00,0.81
6895.00,0.81
6894.00,0.81
6893.00,0.81
6892.00,0.81
6891.00,0.81
6890.00,0.81
6889.00,0.81
6888.00,0.81
6887.00,0.81
6886.00,0.81
6885.00,0.81
6884.00,0.81
6883.00,0.81
6882.00,0.81
6881.00,0.80
6880.00,0.80
6879.00,0.80
6878.00,0.80
6877.00,0.80
6876.00,0.80
6875.00,0.80
6874.00,0.81
6873.00,0.81
6872.00,0.81
6871.00,0.81
6870.00,0.81
6869.00,0.81
6868.00,0.81
6867.00,0.81
6866.00,0.81
6865.00,0.81
6864.00,0.81
6863.00,0.81
6862.00,0.81
6861.00,0.81
6860.00,0.81
6859.00,0.81
6858.00,0.81
6857.00,0.81
6856.00,0.81
6855.00,0.81
6854.00,0.81
6853.00,0.81
6852.00,0.81
6851.00,0.81
6850.00,0.81
6849.00,0.81
6848.00,0.81
6847.00,0.81
6846.00,0.81
6845.00,0.81
6844.00,0.81
6843.00,0.81
6842.00,0.81
6841.00,0.81
6840.00,0.81
6839.00,0.81
6838.00,0.82
6837.00,0.82
6836.00,0.82
6835.00,0.82
6834.00,0.82
6833.00,0.82
6832.00,0.82
6831.00,0.82
6830.00,0.82
6829.00,0.82
6828.00,0.82
6827.00,0.82
6826.00,0.82
6825.00,0.82
6824.00,0.82
6823.00,0.82
6822.00,0.83
6821.00,0.83
6820.00,0.83
6819.00,0.83
6818.00,0.83
6817.00,0.83
6816.00,0.83
6815.00,0.83
6814.00,0.83
6813.00,0.83
6812.00,0.83
6811.00,0.83
6810.00,0.83
6809.00,0.83
6808.00,0.83
6807.00,0.83
6806.00,0.83
6805.00,0.83
6804.00,0.83
6803.00,0.83
6802.00,0.83
6801.00,0.83
6800.00,0.83
6799.00,0.83
6798.00,0.83
6797.00,0.83
6796.00,0.83
6795.00,0.83
6794.00,0.83
6793.00,0.83
6792.00,0.83
6791.00,0.83
6790.00,0.83
6789.00,0.83
6788.00,0.83
6787.00,0.83
6786.00,0.83
6785.00,0.83
6784.00,0.83
6783.00,0.83
6782.00,0.83
6781.00,0.83
6780.00,0.83
6779.00,0.83
6778.00,0.83
6777.00,0.84
6776.00,0.84
6775.00,0.84
6774.00,0.84
6773.00,0.84
6772.00,0.84
6771.00,0.84
6770.00,0.84
6769.00,0.85
6768.00,0.85
6767.00,0.85
6766.00,0.85
6765.00,0.85
6764.00,0.85
6763.00,0.85
6762.00,0.85
6761.00,0.85
6760.00,0.85
6759.00,0.86
6758.00,0.86
6757.00,0.86
6756.00,0.86
6755.00,0.86
6754.00,0.86
6753.00,0.86
6752.00,0.86
6751.00,0.86
6750.00,0.86
6749.00,0.86
6748.00,0.86
6747.00,0.86
6746.00,0.86
6745.00,0.86
6744.00,0.86
6743.00,0.87
6742.00,0.87
6741.00,0.87
6740.00,0.87
6739.00,0.87
6738.00,0.87
6737.00,0.87
6736.00,0.87
6735.00,0.87
6734.00,0.87
6733.00,0.87
6732.00,0.87
6731.00,0.87
6730.00,0.87
6729.00,0.87
6728.00,0.87
6727.00,0.87
6726.00,0.87
6725.00,0.87
6724.00,0.87
6723.00,0.87
6722.00,0.88
6721.00,0.88
6720.00,0.88
6719.00,0.88
6718.00,0.88
6717.00,0.88
6716.00,0.88
6715.00,0.88
6714.00,0.88
6713.00,0.88
6712.00,0.88
6711.00,0.88
6710.00,0.89
6709.00,0.89
6708.00,0.89
6707.00,0.89
6706.00,0.89
6705.00,0.89
6704.00,0.89
6703.00,0.89
6702.00,0.90
6701.00,0.90
6700.00,0.90
6699.00,0.90
6698.00,0.90
6697.00,0.90
6696.00,0.90
6695.00,0.90
6694.00,0.90
6693.00,0.91
6692.00,0.91
6691.00,0.91
6690.00,0.91
6689.00,0.91
6688.00,0.91
6687.00,0.91
6686.00,0.91
6685.00,0.91
6684.00,0.91
6683.00,0.91
6682.00,0.91
6681.00,0.91
6680.00,0.92
6679.00,0.92
6678.00,0.92
6677.00,0.92
6676.00,0.92
6675.00,0.92
6674.00,0.92
6673.00,0.92
6672.00,0.92
6671.00,0.92
6670.00,0.92
6669.00,0.92
6668.00,0.92
6667.00,0.92
6666.00,0.92
6665.00,0.93
6664.00,0.93
6663.00,0.93
6662.00,0.93
6661.00,0.93
6660.00,0.93
6659.00,0.93
6658.00,0.93
6657.00,0.93
6656.00,0.93
6655.00,0.93
6654.00,0.94
6653.00,0.94
6652.00,0.94
6651.00,0.94
6650.00,0.94
6649.00,0.94
6648.00,0.95
6647.00,0.95
6646.00,0.95
6645.00,0.95
6644.00,0.95
6643.00,0.95
6642.00,0.96
6641.00,0.96
6640.00,0.96
6639.00,0.96
6638.00,0.96
6637.00,0.96
6636.00,0.96
6635.00,0.97
6634.00,0.97
6633.00,0.97
6632.00,0.97
6631.00,0.97
6630.00,0.97
6629.00,0.97
6628.00,0.97
6627.00,0.97
6626.00,0.97
6625.00,0.97
6624.00,0.97
6623.00,0.98
6622.00,0.98
6621.00,0.98
6620.00,0.98
6619.00,0.98
6618.00,0.98
6617.00,0.98
6616.00,0.98
6615.00,0.98
6614.00,0.98
6613.00,0.98
6612.00,0.98
6611.00,0.98
6610.00,0.98
6609.00,0.98
6608.00,0.98
6607.00,0.98
6606.00,0.98
6605.00,0.98
6604.00,0.98
6603.00,0.98
6602.00,0.99
6601.00,0.99
6600.00,0.99
6599.00,0.99
6598.00,0.99
6597.00,1.00
6596.00,1.00
6595.00,1.00
6594.00,1.00
6593.00,1.00
6592.00,1.01
6591.00,1.01
6590.00,1.01
6589.00,1.01
6588.00,1.01
6587.00,1.02
6586.00,1.02
6585.00,1.02
6584.00,1.02
6583.00,1.02
6582.00,1.02
6581.00,1.02
6580.00,1.02
6579.00,1.02
6578.00,1.02
6577.00,1.02
6576.00,1.02
6575.00,1.02
6574.00,1.02
6573.00,1.03
6572.00,1.03
6571.00,1.03
6570.00,1.03
6569.00,1.03
6568.00,1.03
6567.00,1.03
6566.00,1.03
6565.00,1.03
6564.00,1.03
6563.00,1.03
6562.00,1.03
6561.00,1.03
6560.00,1.04
6559.00,1.04
6558.00,1.04
6557.00,1.04
6556.00,1.04
6555.00,1.04
6554.00,1.04
6553.00,1.04
6552.00,1.05
6551.00,1.05
6550.00,1.05
6549.00,1.05
6548.00,1.05
6547.00,1.05
6546.00,1.05
6545.00,1.05
6544.00,1.05
6543.00,1.05
6542.00,1.05
6541.00,1.05
6540.00,1.05
6539.00,1.05
6538.00,1.05
6537.00,1.05
6536.00,1.05
6535.00,1.06
6534.00,1.06
6533.00,1.06
6532.00,1.06
6531.00,1.06
6530.00,1.06
6529.00,1.06
6528.00,1.06
6527.00,1.07
6526.00,1.07
6525.00,1.07
6524.00,1.07
6523.00,1.07
6522.00,1.07
6521.00,1.07
6520.00,1.07
6519.00,1.08
6518.00,1.08
6517.00,1.08
6516.00,1.08
6515.00,1.08
6514.00,1.08
6513.00,1.08
6512.00,1.08
6511.00,1.08
6510.00,1.08
6509.00,1.08
6508.00,1.08
6507.00,1.08
6506.00,1.08
6505.00,1.08
6504.00,1.08
6503.00,1.08
6502.00,1.08
6501.00,1.09
6500.00,1.09
6499.00,1.09
6498.00,1.09
6497.00,1.09
6496.00,1.09
6495.00,1.09
6494.00,1.09
6493.00,1.09
6492.00,1.10
6491.00,1.10
6490.00,1.10
6489.00,1.10
6488.00,1.10
6487.00,1.10
6486.00,1.10
6485.00,1.10
6484.00,1.10
6483.00,1.10
6482.00,1.10
6481.00,1.10
6480.00,1.10
6479.00,1.10
6478.00,1.10
6477.00,1.10
6476.00,1.10
6475.00,1.10
6474.00,1.10
6473.00,1.10
6472.00,1.10
6471.00,1.10
6470.00,1.10
6469.00,1.10
6468.00,1.10
6467.00,1.10
6466.00,1.11
6465.00,1.11
6464.00,1.11
6463.00,1.11
6462.00,1.11
6461.00,1.11
6460.00,1.11
6459.00,1.11
6458.00,1.11
6457.00,1.12
6456.00,1.12
6455.00,1.12
6454.00,1.12
6453.00,1.12
6452.00,1.12
6451.00,1.12
6450.00,1.12
6449.00,1.12
6448.00,1.12
6447.00,1.12
6446.00,1.12
6445.00,1.12
6444.00,1.13
6443.00,1.13
6442.00,1.13
6441.00,1.13
6440.00,1.13
6439.00,1.13
6438.00,1.13
6437.00,1.13
6436.00,1.13
6435.00,1.13
6434.00,1.13
6433.00,1.13
6432.00,1.13
6431.00,1.13
6430.00,1.13
6429.00,1.13
6428.00,1.13
6427.00,1.13
6426.00,1.14
6425.00,1.14
6424.00,1.14
6423.00,1.14
6422.00,1.14
6421.00,1.14
6420.00,1.14
6419.00,1.14
6418.00,1.14
6417.00,1.14
6416.00,1.14
6415.00,1.14
6414.00,1.14
6413.00,1.14
6412.00,1.14
6411.00,1.14
6410.00,1.14
6409.00,1.14
6408.00,1.14
6407.00,1.15
6406.00,1.15
6405.00,1.15
6404.00,1.15
6403.00,1.15
6402.00,1.15
6401.00,1.15
6400.00,1.15
6399.00,1.15
6398.00,1.15
6397.00,1.16
6396.00,1.16
6395.00,1.16
6394.00,1.16
6393.00,1.16
6392.00,1.16
6391.00,1.16
6390.00,1.16
6389.00,1.16
6388.00,1.16
6387.00,1.17
6386.00,1.17
6385.00,1.17
6384.00,1.17
6383.00,1.17
6382.00,1.17
6381.00,1.17
6380.00,1.17
6379.00,1.17
6378.00,1.17
6377.00,1.17
6376.00,1.17
6375.00,1.17
6374.00,1.17
6373.00,1.17
6372.00,1.17
6371.00,1.17
6370.00,1.17
6369.00,1.17
6368.00,1.17
6367.00,1.17
6366.00,1.17
6365.00,1.17
6364.00,1.18
6363.00,1.18
6362.00,1.18
6361.00,1.18
6360.00,1.18
6359.00,1.18
6358.00,1.18
6357.00,1.18
6356.00,1.18
6355.00,1.18
6354.00,1.18
6353.00,1.18
6352.00,1.18
6351.00,1.18
6350.00,1.18
6349.00,1.18
6348.00,1.18
6347.00,1.19
6346.00,1.19
6345.00,1.19
6344.00,1.19
6343.00,1.19
6342.00,1.19
6341.00,1.19
6340.00,1.19
6339.00,1.19
6338.00,1.19
6337.00,1.20
6336.00,1.20
6335.00,1.20
6334.00,1.20
6333.00,1.20
6332.00,1.20
6331.00,1.20
6330.00,1.21
6329.00,1.21
6328.00,1.21
6327.00,1.21
6326.00,1.21
6325.00,1.21
6324.00,1.21
6323.00,1.22
6322.00,1.22
6321.00,1.22
6320.00,1.22
6319.00,1.22
6318.00,1.22
6317.00,1.22
6316.00,1.22
6315.00,1.23
6314.00,1.23
6313.00,1.23
6312.00,1.23
6311.00,1.23
6310.00,1.23
6309.00,1.23
6308.00,1.23
6307.00,1.23
6306.00,1.23
6305.00,1.24
6304.00,1.24
6303.00,1.24
6302.00,1.24
6301.00,1.24
6300.00,1.24
6299.00,1.24
6298.00,1.24
6297.00,1.24
6296.00,1.24
6295.00,1.25
6294.00,1.25
6293.00,1.25
6292.00,1.25
6291.00,1.25
6290.00,1.25
6289.00,1.25
6288.00,1.25
6287.00,1.25
6286.00,1.25
6285.00,1.26
6284.00,1.26
6283.00,1.26
6282.00,1.26
6281.00,1.26
6280.00,1.26
6279.00,1.26
6278.00,1.26
6277.00,1.26
6276.00,1.26
6275.00,1.26
6274.00,1.26
6273.00,1.26
6272.00,1.27
6271.00,1.27
6270.00,1.27
6269.00,1.27
6268.00,1.27
6267.00,1.27
6266.00,1.27
6265.00,1.27
6264.00,1.27
6263.00,1.27
6262.00,1.28
6261.00,1.28
6260.00,1.28
6259.00,1.28
6258.00,1.28
6257.00,1.28
6256.00,1.28
6255.00,1.29
6254.00,1.29
6253.00,1.29
6252.00,1.29
6251.00,1.29
6250.00,1.29
6249.00,1.29
6248.00,1.30
6247.00,1.30
6246.00,1.30
6245.00,1.30
6244.00,1.30
6243.00,1.30
6242.00,1.30
6241.00,1.30
6240.00,1.31
6239.00,1.31
6238.00,1.31
6237.00,1.31
6236.00,1.31
6235.00,1.31
6234.00,1.32
6233.00,1.32
6232.00,1.32
6231.00,1.32
6230.00,1.32
6229.00,1.33
6228.00,1.33
6227.00,1.33
6226.00,1.33
6225.00,1.33
6224.00,1.34
6223.00,1.34
6222.00,1.34
6221.00,1.34
6220.00,1.34
6219.00,1.34
6218.00,1.34
6217.00,1.35
6216.00,1.35
6215.00,1.35
6214.00,1.35
6213.00,1.35
6212.00,1.35
6211.00,1.35
6210.00,1.35
6209.00,1.35
6208.00,1.36
6207.00,1.36
6206.00,1.36
6205.00,1.36
6204.00,1.36
6203.00,1.36
6202.00,1.36
6201.00,1.36
6200.00,1.36
6199.00,1.36
6198.00,1.37
6197.00,1.37
6196.00,1.37
6195.00,1.37
6194.00,1.37
6193.00,1.37
6192.00,1.37
6191.00,1.37
6190.00,1.37
6189.00,1.38
6188.00,1.38
6187.00,1.38
6186.00,1.38
6185.00,1.38
6184.00,1.38
6183.00,1.38
6182.00,1.38
6181.00,1.39
6180.00,1.39
6179.00,1.39
6178.00,1.39
6177.00,1.39
6176.00,1.39
6175.00,1.40
6174.00,1.40
6173.00,1.40
6172.00,1.40
6171.00,1.40
6170.00,1.41
6169.00,1.41
6168.00,1.41
6167.00,1.41
6166.00,1.41
6165.00,1.42
6164.00,1.42
6163.00,1.42
6162.00,1.42
6161.00,1.42
6160.00,1.42
6159.00,1.42
6158.00,1.42
6157.00,1.43
6156.00,1.43
6155.00,1.43
6154.00,1.43
6153.00,1.43
6152.00,1.43
6151.00,1.43
6150.00,1.43
6149.00,1.44
6148.00,1.44
6147.00,1.44
6146.00,1.44
6145.00,1.44
6144.00,1.44
6143.00,1.45
6142.00,1.45
6141.00,1.45
6140.00,1.45
6139.00,1.45
6138.00,1.46
6137.00,1.46
6136.00,1.46
6135.00,1.46
6134.00,1.46
6133.00,1.47
6132.00,1.47
6131.00,1.47
6130.00,1.47
6129.00,1.47
6128.00,1.48
6127.00,1.48
6126.00,1.48
6125.00,1.48
6124.00,1.48
6123.00,1.49
6122.00,1.49
6121.00,1.49
6120.00,1.49
6119.00,1.49
6118.00,1.49
6117.00,1.49
6116.00,1.50
6115.00,1.50
6114.00,1.50
6113.00,1.50
6112.00,1.50
6111.00,1.50
6110.00,1.50
6109.00,1.50
6108.00,1.51
6107.00,1.51
6106.00,1.51
6105.00,1.51
6104.00,1.51
6103.00,1.51
6102.00,1.51
6101.00,1.51
6100.00,1.51
6099.00,1.52
6098.00,1.52
6097.00,1.52
6096.00,1.52
6095.00,1.52
6094.00,1.52
6093.00,1.52
6092.00,1.53
6091.00,1.53
6090.00,1.53
6089.00,1.53
6088.00,1.53
6087.00,1.53
6086.00,1.53
6085.00,1.54
6084.00,1.54
6083.00,1.54
6082.00,1.54
6081.00,1.54
6080.00,1.54
6079.00,1.54
6078.00,1.54
6077.00,1.54
6076.00,1.54
6075.00,1.54
6074.00,1.54
6073.00,1.55
6072.00,1.55
6071.00,1.55
6070.00,1.55
6069.00,1.55
6068.00,1.55
6067.00,1.55
6066.00,1.55
6065.00,1.55
6064.00,1.55
6063.00,1.56
6062.00,1.56
6061.00,1.56
6060.00,1.56
6059.00,1.56
6058.00,1.56
6057.00,1.57
6056.00,1.57
6055.00,1.57
6054.00,1.57
6053.00,1.57
6052.00,1.57
6051.00,1.57
6050.00,1.57
6049.00,1.58
6048.00,1.58
6047.00,1.58
6046.00,1.58
6045.00,1.58
6044.00,1.58
6043.00,1.58
6042.00,1.58
6041.00,1.58
6040.00,1.58
6039.00,1.58
6038.00,1.58
6037.00,1.58
6036.00,1.58
6035.00,1.58
6034.00,1.58
6033.00,1.58
6032.00,1.58
6031.00,1.58
6030.00,1.58
6029.00,1.58
6028.00,1.58
6027.00,1.58
6026.00,1.58
6025.00,1.58
6024.00,1.58
6023.00,1.58
6022.00,1.58
6021.00,1.58
6020.00,1.58
6019.00,1.58
6018.00,1.59
6017.00,1.59
6016.00,1.59
6015.00,1.59
6014.00,1.59
6013.00,1.59
6012.00,1.59
6011.00,1.59
6010.00,1.59
6009.00,1.59
6008.00,1.59
6007.00,1.59
6006.00,1.59
6005.00,1.59
6004.00,1.59
6003.00,1.59
6002.00,1.59
6001.00,1.59
6000.00,1.59
5999.00,1.59
5998.00,1.59
5997.00,1.58
5996.00,1.58
5995.00,1.58
5994.00,1.58
5993.00,1.58
5992.00,1.58
5991.00,1.58
5990.00,1.58
5989.00,1.57
5988.00,1.57
5987.00,1.57
5986.00,1.56
5985.00,1.56
5984.00,1.56
5983.00,1.55
5982.00,1.55
5981.00,1.55
5980.00,1.54
5979.00,1.54
5978.00,1.53
5977.00,1.53
5976.00,1.52
5975.00,1.52
5974.00,1.51
5973.00,1.51
5972.00,1.50
5971.00,1.50
5970.00,1.49
5969.00,1.48
5968.00,1.48
5967.00,1.47
5966.00,1.46
5965.00,1.46
5964.00,1.45
5963.00,1.44
5962.00,1.43
5961.00,1.43
5960.00,1.42
5959.00,1.41
5958.00,1.40
5957.00,1.40
5956.00,1.39
5955.00,1.38
5954.00,1.37
5953.00,1.37
5952.00,1.36
5951.00,1.35
5950.00,1.35
5949.00,1.34
5948.00,1.34
5947.00,1.33
5946.00,1.33
5945.00,1.33
5944.00,1.32
5943.00,1.32
5942.00,1.32
5941.00,1.32
5940.00,1.31
5939.00,1.31
5938.00,1.31
5937.00,1.31
5936.00,1.31
5935.00,1.31
5934.00,1.31
5933.00,1.31
5932.00,1.31
5931.00,1.31
5930.00,1.31
5929.00,1.31
5928.00,1.31
5927.00,1.31
5926.00,1.30
5925.00,1.30
5924.00,1.30
5923.00,1.30
5922.00,1.30
5921.00,1.29
5920.00,1.29
5919.00,1.29
5918.00,1.29
5917.00,1.28
5916.00,1.28
5915.00,1.28
5914.00,1.27
5913.00,1.27
5912.00,1.27
5911.00,1.27
5910.00,1.26
5909.00,1.26
5908.00,1.26
5907.00,1.26
5906.00,1.26
5905.00,1.26
5904.00,1.25
5903.00,1.25
5902.00,1.25
5901.00,1.25
5900.00,1.25
5899.00,1.25
5898.00,1.25
5897.00,1.25
5896.00,1.25
5895.00,1.25
5894.00,1.26
5893.00,1.26
5892.00,1.26
5891.00,1.26
5890.00,1.26
5889.00,1.27
5888.00,1.27
5887.00,1.27
5886.00,1.28
5885.00,1.28
5884.00,1.28
5883.00,1.29
5882.00,1.29
5881.00,1.29
5880.00,1.30
5879.00,1.30
5878.00,1.31
5877.00,1.31
5876.00,1.31
5875.00,1.32
5874.00,1.32
5873.00,1.32
5872.00,1.32
5871.00,1.33
5870.00,1.33
5869.00,1.33
5868.00,1.33
5867.00,1.34
5866.00,1.34
5865.00,1.34
5864.00,1.34
5863.00,1.34
5862.00,1.34
5861.00,1.35
5860.00,1.35
5859.00,1.35
5858.00,1.35
5857.00,1.35
5856.00,1.35
5855.00,1.35
5854.00,1.35
5853.00,1.35
5852.00,1.35
5851.00,1.36
5850.00,1.36
5849.00,1.36
5848.00,1.36
5847.00,1.36
5846.00,1.36
5845.00,1.36
5844.00,1.36
5843.00,1.36
5842.00,1.36
5841.00,1.36
5840.00,1.36
5839.00,1.36
5838.00,1.36
5837.00,1.36
5836.00,1.36
5835.00,1.36
5834.00,1.36
5833.00,1.36
5832.00,1.36
5831.00,1.36
5830.00,1.35
5829.00,1.35
5828.00,1.35
5827.00,1.35
5826.00,1.35
5825.00,1.35
5824.00,1.35
5823.00,1.35
5822.00,1.35
5821.00,1.35
5820.00,1.35
5819.00,1.35
5818.00,1.35
5817.00,1.35
5816.00,1.35
5815.00,1.35
5814.00,1.35
5813.00,1.35
5812.00,1.35
5811.00,1.35
5810.00,1.35
5809.00,1.35
5808.00,1.35
5807.00,1.35
5806.00,1.35
5805.00,1.35
5804.00,1.35
5803.00,1.35
5802.00,1.35
5801.00,1.35
5800.00,1.35
5799.00,1.35
5798.00,1.35
5797.00,1.34
5796.00,1.34
5795.00,1.34
5794.00,1.34
5793.00,1.34
5792.00,1.33
5791.00,1.33
5790.00,1.33
5789.00,1.33
5788.00,1.32
5787.00,1.32
5786.00,1.32
5785.00,1.32
5784.00,1.32
5783.00,1.31
5782.00,1.31
5781.00,1.31
5780.00,1.31
5779.00,1.31
5778.00,1.31
5777.00,1.30
5776.00,1.30
5775.00,1.30
5774.00,1.30
5773.00,1.30
5772.00,1.30
5771.00,1.30
5770.00,1.31
5769.00,1.31
5768.00,1.31
5767.00,1.31
5766.00,1.31
5765.00,1.31
5764.00,1.32
5763.00,1.32
5762.00,1.32
5761.00,1.32
5760.00,1.33
5759.00,1.33
5758.00,1.33
5757.00,1.34
5756.00,1.34
5755.00,1.34
5754.00,1.35
5753.00,1.35
5752.00,1.36
5751.00,1.36
5750.00,1.36
5749.00,1.37
5748.00,1.37
5747.00,1.37
5746.00,1.38
5745.00,1.38
5744.00,1.38
5743.00,1.39
5742.00,1.39
5741.00,1.39
5740.00,1.39
5739.00,1.40
5738.00,1.40
5737.00,1.40
5736.00,1.40
5735.00,1.40
5734.00,1.41
5733.00,1.41
5732.00,1.41
5731.00,1.41
5730.00,1.41
5729.00,1.41
5728.00,1.41
5727.00,1.41
5726.00,1.42
5725.00,1.42
5724.00,1.42
5723.00,1.42
5722.00,1.42
5721.00,1.42
5720.00,1.42
5719.00,1.42
5718.00,1.42
5717.00,1.42
5716.00,1.42
5715.00,1.42
5714.00,1.42
5713.00,1.42
5712.00,1.42
5711.00,1.42
5710.00,1.42
5709.00,1.42
5708.00,1.42
5707.00,1.42
5706.00,1.42
5705.00,1.42
5704.00,1.42
5703.00,1.42
5702.00,1.42
5701.00,1.42
5700.00,1.42
5699.00,1.42
5698.00,1.42
5697.00,1.41
5696.00,1.41
5695.00,1.41
5694.00,1.41
5693.00,1.41
5692.00,1.41
5691.00,1.41
5690.00,1.40
5689.00,1.40
5688.00,1.40
5687.00,1.40
5686.00,1.40
5685.00,1.40
5684.00,1.40
5683.00,1.40
5682.00,1.40
5681.00,1.40
5680.00,1.39
5679.00,1.39
5678.00,1.39
5677.00,1.39
5676.00,1.39
5675.00,1.39
5674.00,1.39
5673.00,1.39
5672.00,1.39
5671.00,1.39
5670.00,1.39
5669.00,1.39
5668.00,1.39
5667.00,1.40
5666.00,1.40
5665.00,1.40
5664.00,1.40
5663.00,1.40
5662.00,1.40
5661.00,1.40
5660.00,1.40
5659.00,1.40
5658.00,1.41
5657.00,1.41
5656.00,1.41
5655.00,1.41
5654.00,1.41
5653.00,1.41
5652.00,1.42
5651.00,1.42
5650.00,1.42
5649.00,1.42
5648.00,1.42
5647.00,1.43
5646.00,1.43
5645.00,1.43
5644.00,1.43
5643.00,1.44
5642.00,1.44
5641.00,1.44
5640.00,1.44
5639.00,1.44
5638.00,1.45
5637.00,1.45
5636.00,1.45
5635.00,1.45
5634.00,1.45
5633.00,1.45
5632.00,1.46
5631.00,1.46
5630.00,1.46
5629.00,1.46
5628.00,1.46
5627.00,1.46
5626.00,1.47
5625.00,1.47
5624.00,1.47
5623.00,1.47
5622.00,1.48
5621.00,1.48
5620.00,1.48
5619.00,1.48
5618.00,1.48
5617.00,1.49
5616.00,1.49
5615.00,1.49
5614.00,1.49
5613.00,1.49
5612.00,1.50
5611.00,1.50
5610.00,1.50
5609.00,1.50
5608.00,1.50
5607.00,1.50
5606.00,1.50
5605.00,1.51
5604.00,1.51
5603.00,1.51
5602.00,1.51
5601.00,1.51
5600.00,1.51
5599.00,1.52
5598.00,1.52
5597.00,1.52
5596.00,1.52
5595.00,1.52
5594.00,1.52
5593.00,1.53
5592.00,1.53
5591.00,1.53
5590.00,1.53
5589.00,1.53
5588.00,1.53
5587.00,1.54
5586.00,1.54
5585.00,1.54
5584.00,1.54
5583.00,1.54
5582.00,1.54
5581.00,1.55
5580.00,1.55
5579.00,1.55
5578.00,1.55
5577.00,1.55
5576.00,1.55
5575.00,1.55
5574.00,1.55
5573.00,1.55
5572.00,1.56
5571.00,1.56
5570.00,1.56
5569.00,1.56
5568.00,1.56
5567.00,1.56
5566.00,1.56
5565.00,1.56
5564.00,1.56
5563.00,1.56
5562.00,1.56
5561.00,1.57
5560.00,1.57
5559.00,1.57
5558.00,1.57
5557.00,1.57
5556.00,1.57
5555.00,1.57
5554.00,1.57
5553.00,1.58
5552.00,1.58
5551.00,1.58
5550.00,1.58
5549.00,1.58
5548.00,1.58
5547.00,1.59
5546.00,1.59
5545.00,1.59
5544.00,1.59
5543.00,1.59
5542.00,1.59
5541.00,1.59
5540.00,1.59
5539.00,1.60
5538.00,1.60
5537.00,1.60
5536.00,1.60
5535.00,1.60
5534.00,1.60
5533.00,1.60
5532.00,1.60
5531.00,1.60
5530.00,1.60
5529.00,1.60
5528.00,1.60
5527.00,1.61
5526.00,1.61
5525.00,1.61
5524.00,1.61
5523.00,1.61
5522.00,1.61
5521.00,1.61
5520.00,1.61
5519.00,1.62
5518.00,1.62
5517.00,1.62
5516.00,1.62
5515.00,1.62
5514.00,1.62
5513.00,1.62
5512.00,1.62
5511.00,1.62
5510.00,1.62
5509.00,1.62
5508.00,1.62
5507.00,1.62
5506.00,1.62
5505.00,1.62
5504.00,1.63
5503.00,1.63
5502.00,1.63
5501.00,1.63
5500.00,1.63
5499.00,1.63
5498.00,1.63
5497.00,1.63
5496.00,1.63
5495.00,1.63
5494.00,1.63
5493.00,1.63
5492.00,1.64
5491.00,1.64
5490.00,1.64
5489.00,1.64
5488.00,1.64
5487.00,1.64
5486.00,1.64
5485.00,1.64
5484.00,1.65
5483.00,1.65
5482.00,1.65
5481.00,1.65
5480.00,1.65
5479.00,1.65
5478.00,1.65
5477.00,1.65
5476.00,1.65
5475.00,1.65
5474.00,1.65
5473.00,1.66
5472.00,1.66
5471.00,1.66
5470.00,1.66
5469.00,1.66
5468.00,1.66
5467.00,1.66
5466.00,1.66
5465.00,1.66
5464.00,1.67
5463.00,1.67
5462.00,1.67
5461.00,1.67
5460.00,1.67
5459.00,1.67
5458.00,1.67
5457.00,1.68
5456.00,1.68
5455.00,1.68
5454.00,1.68
5453.00,1.68
5452.00,1.68
5451.00,1.68
5450.00,1.68
5449.00,1.68
5448.00,1.68
5447.00,1.68
5446.00,1.68
5445.00,1.68
5444.00,1.68
5443.00,1.68
5442.00,1.68
5441.00,1.68
5440.00,1.68
5439.00,1.68
5438.00,1.68
5437.00,1.68
5436.00,1.68
5435.00,1.68
5434.00,1.68
5433.00,1.68
5432.00,1.68
5431.00,1.68
5430.00,1.68
5429.00,1.68
5428.00,1.68
5427.00,1.68
5426.00,1.68
5425.00,1.68
5424.00,1.68
5423.00,1.69
5422.00,1.69
5421.00,1.69
5420.00,1.69
5419.00,1.69
5418.00,1.69
5417.00,1.68
5416.00,1.68
5415.00,1.68
5414.00,1.68
5413.00,1.68
5412.00,1.68
5411.00,1.68
5410.00,1.68
5409.00,1.68
5408.00,1.68
5407.00,1.68
5406.00,1.68
5405.00,1.68
5404.00,1.68
5403.00,1.68
5402.00,1.68
5401.00,1.68
5400.00,1.68
5399.00,1.68
5398.00,1.68
5397.00,1.68
5396.00,1.68
5395.00,1.68
5394.00,1.68
5393.00,1.68
5392.00,1.68
5391.00,1.67
5390.00,1.67
5389.00,1.67
5388.00,1.67
5387.00,1.66
5386.00,1.66
5385.00,1.66
5384.00,1.65
5383.00,1.65
5382.00,1.65
5381.00,1.65
5380.00,1.64
5379.00,1.64
5378.00,1.64
5377.00,1.63
5376.00,1.63
5375.00,1.63
5374.00,1.62
5373.00,1.62
5372.00,1.61
5371.00,1.61
5370.00,1.61
5369.00,1.60
5368.00,1.60
5367.00,1.59
5366.00,1.59
5365.00,1.58
5364.00,1.57
5363.00,1.57
5362.00,1.56
5361.00,1.56
5360.00,1.55
5359.00,1.54
5358.00,1.53
5357.00,1.53
5356.00,1.52
5355.00,1.51
5354.00,1.50
5353.00,1.49
5352.00,1.48
5351.00,1.47
5350.00,1.46
5349.00,1.45
5348.00,1.44
5347.00,1.43
5346.00,1.42
5345.00,1.41
5344.00,1.40
5343.00,1.39
5342.00,1.38
5341.00,1.37
5340.00,1.36
5339.00,1.35
5338.00,1.34
5337.00,1.33
5336.00,1.32
5335.00,1.31
5334.00,1.30
5333.00,1.29
5332.00,1.28
5331.00,1.27
5330.00,1.26
5329.00,1.25
5328.00,1.24
5327.00,1.23
5326.00,1.22
5325.00,1.21
5324.00,1.20
5323.00,1.19
5322.00,1.18
5321.00,1.17
5320.00,1.16
5319.00,1.15
5318.00,1.14
5317.00,1.13
5316.00,1.12
5315.00,1.11
5314.00,1.10
5313.00,1.09
5312.00,1.08
5311.00,1.07
5310.00,1.07
5309.00,1.06
5308.00,1.05
5307.00,1.04
5306.00,1.03
5305.00,1.03
5304.00,1.02
5303.00,1.01
5302.00,1.01
5301.00,1.00
5300.00,1.00
5299.00,0.99
5298.00,0.99
5297.00,0.98
5296.00,0.98
5295.00,0.97
5294.00,0.97
5293.00,0.97
5292.00,0.96
5291.00,0.96
5290.00,0.96
5289.00,0.95
5288.00,0.95
5287.00,0.95
5286.00,0.95
5285.00,0.95
5284.00,0.95
5283.00,0.94
5282.00,0.94
5281.00,0.94
5280.00,0.94
5279.00,0.94
5278.00,0.94
5277.00,0.94
5276.00,0.94
5275.00,0.93
5274.00,0.93
5273.00,0.93
5272.00,0.93
5271.00,0.93
5270.00,0.93
5269.00,0.93
5268.00,0.93
5267.00,0.93
5266.00,0.92
5265.00,0.92
5264.00,0.92
5263.00,0.92
5262.00,0.92
5261.00,0.92
5260.00,0.92
5259.00,0.92
5258.00,0.92
5257.00,0.92
5256.00,0.92
5255.00,0.92
5254.00,0.92
5253.00,0.92
5252.00,0.92
5251.00,0.92
5250.00,0.92
5249.00,0.92
5248.00,0.92
5247.00,0.92
5246.00,0.92
5245.00,0.92
5244.00,0.92
5243.00,0.92
5242.00,0.92
5241.00,0.92
5240.00,0.92
5239.00,0.92
5238.00,0.92
5237.00,0.92
5236.00,0.92
5235.00,0.92
5234.00,0.92
5233.00,0.92
5232.00,0.92
5231.00,0.92
5230.00,0.92
5229.00,0.92
5228.00,0.92
5227.00,0.92
5226.00,0.92
5225.00,0.92
5224.00,0.92
5223.00,0.92
5222.00,0.92
5221.00,0.93
5220.00,0.93
5219.00,0.93
5218.00,0.93
5217.00,0.93
5216.00,0.93
5215.00,0.93
5214.00,0.93
5213.00,0.93
5212.00,0.93
5211.00,0.93
5210.00,0.93
5209.00,0.93
5208.00,0.93
5207.00,0.93
5206.00,0.93
5205.00,0.93
5204.00,0.93
5203.00,0.93
5202.00,0.93
5201.00,0.93
5200.00,0.93
5199.00,0.93
5198.00,0.93
5197.00,0.93
5196.00,0.93
5195.00,0.93
5194.00,0.94
5193.00,0.94
5192.00,0.94
5191.00,0.94
5190.00,0.94
5189.00,0.94
5188.00,0.94
5187.00,0.94
5186.00,0.94
5185.00,0.94
5184.00,0.94
5183.00,0.94
5182.00,0.94
5181.00,0.94
5180.00,0.94
5179.00,0.94
5178.00,0.94
5177.00,0.94
5176.00,0.94
5175.00,0.94
5174.00,0.94
5173.00,0.94
5172.00,0.94
5171.00,0.94
5170.00,0.94
5169.00,0.94
5168.00,0.94
5167.00,0.94
5166.00,0.95
5165.00,0.95
5164.00,0.95
5163.00,0.95
5162.00,0.95
5161.00,0.95
5160.00,0.95
5159.00,0.95
5158.00,0.95
5157.00,0.95
5156.00,0.95
5155.00,0.95
5154.00,0.95
5153.00,0.95
5152.00,0.95
5151.00,0.96
5150.00,0.96
5149.00,0.96
5148.00,0.96
5147.00,0.96
5146.00,0.96
5145.00,0.96
5144.00,0.96
5143.00,0.96
5142.00,0.97
5141.00,0.97
5140.00,0.97
5139.00,0.97
5138.00,0.97
5137.00,0.97
5136.00,0.97
5135.00,0.97
5134.00,0.97
5133.00,0.97
5132.00,0.97
5131.00,0.97
5130.00,0.97
5129.00,0.97
5128.00,0.97
5127.00,0.97
5126.00,0.97
5125.00,0.97
5124.00,0.97
5123.00,0.97
5122.00,0.97
5121.00,0.97
5120.00,0.97
5119.00,0.97
5118.00,0.97
5117.00,0.97
5116.00,0.97
5115.00,0.98
5114.00,0.98
5113.00,0.98
5112.00,0.98
5111.00,0.98
5110.00,0.98
5109.00,0.98
5108.00,0.98
5107.00,0.98
5106.00,0.98
5105.00,0.98
5104.00,0.99
5103.00,0.99
5102.00,0.99
5101.00,0.99
5100.00,0.99
5099.00,0.99
5098.00,0.99
5097.00,0.99
5096.00,0.99
5095.00,0.99
5094.00,1.00
5093.00,1.00
5092.00,1.00
5091.00,1.00
5090.00,1.00
5089.00,1.00
5088.00,1.00
5087.00,1.00
5086.00,1.00
5085.00,1.00
5084.00,1.00
5083.00,1.01
5082.00,1.01
5081.00,1.01
5080.00,1.01
5079.00,1.01
5078.00,1.01
5077.00,1.01
5076.00,1.01
5075.00,1.01
5074.00,1.01
5073.00,1.01
5072.00,1.01
5071.00,1.01
5070.00,1.01
5069.00,1.01
5068.00,1.01
5067.00,1.01
5066.00,1.01
5065.00,1.01
5064.00,1.02
5063.00,1.02
5062.00,1.02
5061.00,1.02
5060.00,1.02
5059.00,1.02
5058.00,1.02
5057.00,1.02
5056.00,1.02
5055.00,1.02
5054.00,1.02
5053.00,1.02
5052.00,1.02
5051.00,1.02
5050.00,1.02
5049.00,1.02
5048.00,1.03
5047.00,1.03
5046.00,1.03
5045.00,1.03
5044.00,1.03
5043.00,1.03
5042.00,1.03
5041.00,1.03
5040.00,1.03
5039.00,1.03
5038.00,1.03
5037.00,1.03
5036.00,1.03
5035.00,1.03
5034.00,1.03
5033.00,1.04
5032.00,1.04
5031.00,1.04
5030.00,1.04
5029.00,1.04
5028.00,1.04
5027.00,1.04
5026.00,1.04
5025.00,1.04
5024.00,1.05
5023.00,1.05
5022.00,1.05
5021.00,1.05
5020.00,1.05
5019.00,1.05
5018.00,1.05
5017.00,1.05
5016.00,1.05
5015.00,1.06
5014.00,1.06
5013.00,1.06
5012.00,1.06
5011.00,1.06
5010.00,1.06
5009.00,1.06
5008.00,1.06
5007.00,1.06
5006.00,1.06
5005.00,1.06
5004.00,1.06
5003.00,1.06
5002.00,1.06
5001.00,1.06
5000.00,1.06
4999.00,1.07
4998.00,1.07
4997.00,1.07
4996.00,1.07
4995.00,1.07
4994.00,1.07
4993.00,1.07
4992.00,1.07
4991.00,1.07
4990.00,1.08
4989.00,1.08
4988.00,1.08
4987.00,1.08
4986.00,1.08
4985.00,1.08
4984.00,1.08
4983.00,1.08
4982.00,1.08
4981.00,1.09
4980.00,1.09
4979.00,1.09
4978.00,1.09
4977.00,1.09
4976.00,1.09
4975.00,1.09
4974.00,1.09
4973.00,1.09
4972.00,1.10
4971.00,1.10
4970.00,1.10
4969.00,1.10
4968.00,1.10
4967.00,1.10
4966.00,1.10
4965.00,1.10
4964.00,1.10
4963.00,1.11
4962.00,1.11
4961.00,1.11
4960.00,1.11
4959.00,1.11
4958.00,1.11
4957.00,1.11
4956.00,1.11
4955.00,1.11
4954.00,1.11
4953.00,1.11
4952.00,1.11
4951.00,1.11
4950.00,1.12
4949.00,1.12
4948.00,1.12
4947.00,1.12
4946.00,1.12
4945.00,1.12
4944.00,1.12
4943.00,1.12
4942.00,1.12
4941.00,1.12
4940.00,1.12
4939.00,1.12
4938.00,1.13
4937.00,1.13
4936.00,1.13
4935.00,1.13
4934.00,1.13
4933.00,1.13
4932.00,1.13
4931.00,1.13
4930.00,1.13
4929.00,1.13
4928.00,1.13
4927.00,1.13
4926.00,1.13
4925.00,1.13
4924.00,1.13
4923.00,1.13
4922.00,1.14
4921.00,1.14
4920.00,1.14
4919.00,1.14
4918.00,1.14
4917.00,1.14
4916.00,1.14
4915.00,1.14
4914.00,1.14
4913.00,1.15
4912.00,1.15
4911.00,1.15
4910.00,1.15
4909.00,1.15
4908.00,1.15
4907.00,1.15
4906.00,1.15
4905.00,1.15
4904.00,1.15
4903.00,1.15
4902.00,1.15
4901.00,1.15
4900.00,1.15
4899.00,1.15
4898.00,1.15
4897.00,1.15
4896.00,1.15
4895.00,1.15
4894.00,1.15
4893.00,1.15
4892.00,1.15
4891.00,1.15
4890.00,1.15
4889.00,1.15
4888.00,1.16
4887.00,1.16
4886.00,1.16
4885.00,1.16
4884.00,1.16
4883.00,1.16
4882.00,1.16
4881.00,1.16
4880.00,1.17
4879.00,1.17
4878.00,1.17
4877.00,1.17
4876.00,1.17
4875.00,1.17
4874.00,1.17
4873.00,1.17
4872.00,1.17
4871.00,1.17
4870.00,1.17
4869.00,1.17
4868.00,1.17
4867.00,1.17
4866.00,1.17
4865.00,1.17
4864.00,1.17
4863.00,1.17
4862.00,1.17
4861.00,1.17
4860.00,1.17
4859.00,1.17
4858.00,1.17
4857.00,1.17
4856.00,1.17
4855.00,1.18
4854.00,1.18
4853.00,1.18
4852.00,1.18
4851.00,1.18
4850.00,1.18
4849.00,1.18
4848.00,1.18
4847.00,1.19
4846.00,1.19
4845.00,1.19
4844.00,1.19
4843.00,1.19
4842.00,1.19
4841.00,1.19
4840.00,1.20
4839.00,1.20
4838.00,1.20
4837.00,1.20
4836.00,1.20
4835.00,1.20
4834.00,1.20
4833.00,1.20
4832.00,1.20
4831.00,1.20
4830.00,1.20
4829.00,1.20
4828.00,1.20
4827.00,1.20
4826.00,1.20
4825.00,1.20
4824.00,1.20
4823.00,1.20
4822.00,1.21
4821.00,1.21
4820.00,1.21
4819.00,1.21
4818.00,1.21
4817.00,1.21
4816.00,1.21
4815.00,1.21
4814.00,1.21
4813.00,1.21
4812.00,1.21
4811.00,1.21
4810.00,1.21
4809.00,1.21
4808.00,1.22
4807.00,1.22
4806.00,1.22
4805.00,1.22
4804.00,1.22
4803.00,1.22
4802.00,1.22
4801.00,1.22
4800.00,1.22
4799.00,1.22
4798.00,1.22
4797.00,1.22
4796.00,1.23
4795.00,1.23
4794.00,1.23
4793.00,1.23
4792.00,1.23
4791.00,1.23
4790.00,1.23
4789.00,1.23
4788.00,1.23
4787.00,1.24
4786.00,1.24
4785.00,1.24
4784.00,1.24
4783.00,1.24
4782.00,1.24
4781.00,1.25
4780.00,1.25
4779.00,1.25
4778.00,1.25
4777.00,1.25
4776.00,1.26
4775.00,1.26
4774.00,1.26
4773.00,1.26
4772.00,1.26
4771.00,1.26
4770.00,1.27
4769.00,1.27
4768.00,1.27
4767.00,1.27
4766.00,1.27
4765.00,1.27
4764.00,1.28
4763.00,1.28
4762.00,1.28
4761.00,1.28
4760.00,1.28
4759.00,1.28
4758.00,1.28
4757.00,1.29
4756.00,1.29
4755.00,1.29
4754.00,1.29
4753.00,1.29
4752.00,1.29
4751.00,1.29
4750.00,1.30
4749.00,1.30
4748.00,1.30
4747.00,1.30
4746.00,1.30
4745.00,1.30
4744.00,1.30
4743.00,1.30
4742.00,1.31
4741.00,1.31
4740.00,1.31
4739.00,1.31
4738.00,1.31
4737.00,1.31
4736.00,1.31
4735.00,1.32
4734.00,1.32
4733.00,1.32
4732.00,1.32
4731.00,1.32
4730.00,1.32
4729.00,1.33
4728.00,1.33
4727.00,1.33
4726.00,1.33
4725.00,1.33
4724.00,1.34
4723.00,1.34
4722.00,1.34
4721.00,1.34
4720.00,1.35
4719.00,1.35
4718.00,1.35
4717.00,1.35
4716.00,1.36
4715.00,1.36
4714.00,1.36
4713.00,1.36
4712.00,1.37
4711.00,1.37
4710.00,1.37
4709.00,1.37
4708.00,1.38
4707.00,1.38
4706.00,1.38
4705.00,1.38
4704.00,1.39
4703.00,1.39
4702.00,1.39
4701.00,1.39
4700.00,1.39
4699.00,1.40
4698.00,1.40
4697.00,1.40
4696.00,1.40
4695.00,1.40
4694.00,1.41
4693.00,1.41
4692.00,1.41
4691.00,1.41
4690.00,1.41
4689.00,1.41
4688.00,1.41
4687.00,1.42
4686.00,1.42
4685.00,1.42
4684.00,1.42
4683.00,1.42
4682.00,1.42
4681.00,1.42
4680.00,1.42
4679.00,1.42
4678.00,1.42
4677.00,1.42
4676.00,1.42
4675.00,1.42
4674.00,1.42
4673.00,1.43
4672.00,1.43
4671.00,1.43
4670.00,1.43
4669.00,1.43
4668.00,1.43
4667.00,1.43
4666.00,1.43
4665.00,1.44
4664.00,1.44
4663.00,1.44
4662.00,1.44
4661.00,1.44
4660.00,1.45
4659.00,1.45
4658.00,1.45
4657.00,1.45
4656.00,1.45
4655.00,1.45
4654.00,1.45
4653.00,1.45
4652.00,1.46
4651.00,1.46
4650.00,1.46
4649.00,1.46
4648.00,1.46
4647.00,1.46
4646.00,1.46
4645.00,1.46
4644.00,1.47
4643.00,1.47
4642.00,1.47
4641.00,1.47
4640.00,1.47
4639.00,1.47
4638.00,1.48
4637.00,1.48
4636.00,1.48
4635.00,1.48
4634.00,1.48
4633.00,1.48
4632.00,1.48
4631.00,1.48
4630.00,1.48
4629.00,1.49
4628.00,1.49
4627.00,1.49
4626.00,1.49
4625.00,1.49
4624.00,1.49
4623.00,1.49
4622.00,1.49
4621.00,1.49
4620.00,1.49
4619.00,1.49
4618.00,1.50
4617.00,1.50
4616.00,1.50
4615.00,1.50
4614.00,1.50
4613.00,1.51
4612.00,1.51
4611.00,1.51
4610.00,1.51
4609.00,1.51
4608.00,1.51
4607.00,1.52
4606.00,1.52
4605.00,1.52
4604.00,1.52
4603.00,1.52
4602.00,1.52
4601.00,1.52
4600.00,1.52
4599.00,1.52
4598.00,1.52
4597.00,1.52
4596.00,1.52
4595.00,1.52
4594.00,1.53
4593.00,1.53
4592.00,1.53
4591.00,1.53
4590.00,1.53
4589.00,1.53
4588.00,1.53
4587.00,1.53
4586.00,1.53
4585.00,1.53
4584.00,1.53
4583.00,1.53
4582.00,1.53
4581.00,1.53
4580.00,1.53
4579.00,1.53
4578.00,1.53
4577.00,1.54
4576.00,1.54
4575.00,1.54
4574.00,1.54
4573.00,1.54
4572.00,1.54
4571.00,1.54
4570.00,1.54
4569.00,1.54
4568.00,1.55
4567.00,1.55
4566.00,1.55
4565.00,1.55
4564.00,1.55
4563.00,1.55
4562.00,1.56
4561.00,1.56
4560.00,1.56
4559.00,1.56
4558.00,1.56
4557.00,1.56
4556.00,1.56
4555.00,1.56
4554.00,1.56
4553.00,1.56
4552.00,1.56
4551.00,1.56
4550.00,1.56
4549.00,1.56
4548.00,1.56
4547.00,1.57
4546.00,1.57
4545.00,1.57
4544.00,1.57
4543.00,1.57
4542.00,1.57
4541.00,1.57
4540.00,1.57
4539.00,1.57
4538.00,1.57
4537.00,1.57
4536.00,1.57
4535.00,1.57
4534.00,1.57
4533.00,1.57
4532.00,1.58
4531.00,1.58
4530.00,1.58
4529.00,1.58
4528.00,1.58
4527.00,1.58
4526.00,1.58
4525.00,1.58
4524.00,1.58
4523.00,1.58
4522.00,1.58
4521.00,1.58
4520.00,1.58
4519.00,1.58
4518.00,1.58
4517.00,1.58
4516.00,1.58
4515.00,1.58
4514.00,1.58
4513.00,1.58
4512.00,1.58
4511.00,1.58
4510.00,1.58
4509.00,1.58
4508.00,1.58
4507.00,1.58
4506.00,1.58
4505.00,1.58
4504.00,1.58
4503.00,1.57
4502.00,1.57
4501.00,1.57
4500.00,1.57
4499.00,1.57
4498.00,1.57
4497.00,1.57
4496.00,1.57
4495.00,1.57
4494.00,1.57
4493.00,1.57
4492.00,1.57
4491.00,1.57
4490.00,1.56
4489.00,1.56
4488.00,1.56
4487.00,1.56
4486.00,1.56
4485.00,1.56
4484.00,1.56
4483.00,1.56
4482.00,1.56
4481.00,1.56
4480.00,1.55
4479.00,1.55
4478.00,1.55
4477.00,1.55
4476.00,1.55
4475.00,1.54
4474.00,1.54
4473.00,1.54
4472.00,1.54
4471.00,1.53
4470.00,1.53
4469.00,1.53
4468.00,1.53
4467.00,1.52
4466.00,1.52
4465.00,1.52
4464.00,1.52
4463.00,1.51
4462.00,1.51
4461.00,1.51
4460.00,1.51
4459.00,1.50
4458.00,1.50
4457.00,1.50
4456.00,1.50
4455.00,1.49
4454.00,1.49
4453.00,1.49
4452.00,1.48
4451.00,1.48
4450.00,1.47
4449.00,1.47
4448.00,1.47
4447.00,1.46
4446.00,1.46
4445.00,1.45
4444.00,1.45
4443.00,1.45
4442.00,1.44
4441.00,1.44
4440.00,1.43
4439.00,1.43
4438.00,1.43
4437.00,1.42
4436.00,1.42
4435.00,1.42
4434.00,1.41
4433.00,1.41
4432.00,1.41
4431.00,1.40
4430.00,1.40
4429.00,1.40
4428.00,1.40
4427.00,1.39
4426.00,1.39
4425.00,1.39
4424.00,1.39
4423.00,1.39
4422.00,1.39
4421.00,1.39
4420.00,1.38
4419.00,1.38
4418.00,1.38
4417.00,1.38
4416.00,1.38
4415.00,1.38
4414.00,1.38
4413.00,1.38
4412.00,1.38
4411.00,1.38
4410.00,1.38
4409.00,1.38
4408.00,1.38
4407.00,1.38
4406.00,1.38
4405.00,1.38
4404.00,1.39
4403.00,1.39
4402.00,1.39
4401.00,1.39
4400.00,1.39
4399.00,1.39
4398.00,1.39
4397.00,1.39
4396.00,1.40
4395.00,1.40
4394.00,1.40
4393.00,1.40
4392.00,1.40
4391.00,1.40
4390.00,1.41
4389.00,1.41
4388.00,1.41
4387.00,1.41
4386.00,1.41
4385.00,1.41
4384.00,1.42
4383.00,1.42
4382.00,1.42
4381.00,1.42
4380.00,1.42
4379.00,1.42
4378.00,1.43
4377.00,1.43
4376.00,1.43
4375.00,1.43
4374.00,1.43
4373.00,1.43
4372.00,1.43
4371.00,1.44
4370.00,1.44
4369.00,1.44
4368.00,1.44
4367.00,1.44
4366.00,1.44
4365.00,1.44
4364.00,1.44
4363.00,1.44
4362.00,1.44
4361.00,1.44
4360.00,1.44
4359.00,1.44
4358.00,1.44
4357.00,1.44
4356.00,1.44
4355.00,1.43
4354.00,1.43
4353.00,1.43
4352.00,1.43
4351.00,1.43
4350.00,1.43
4349.00,1.43
4348.00,1.43
4347.00,1.43
4346.00,1.43
4345.00,1.43
4344.00,1.43
4343.00,1.43
4342.00,1.43
4341.00,1.43
4340.00,1.43
4339.00,1.44
4338.00,1.44
4337.00,1.44
4336.00,1.44
4335.00,1.44
4334.00,1.44
4333.00,1.44
4332.00,1.44
4331.00,1.44
4330.00,1.45
4329.00,1.45
4328.00,1.45
4327.00,1.45
4326.00,1.45
4325.00,1.45
4324.00,1.45
4323.00,1.45
4322.00,1.45
4321.00,1.45
4320.00,1.46
4319.00,1.46
4318.00,1.46
4317.00,1.46
4316.00,1.46
4315.00,1.46
4314.00,1.47
4313.00,1.47
4312.00,1.47
4311.00,1.47
4310.00,1.47
4309.00,1.48
4308.00,1.48
4307.00,1.48
4306.00,1.48
4305.00,1.49
4304.00,1.49
4303.00,1.49
4302.00,1.49
4301.00,1.49
4300.00,1.49
4299.00,1.50
4298.00,1.50
4297.00,1.50
4296.00,1.50
4295.00,1.50
4294.00,1.50
4293.00,1.50
4292.00,1.50
4291.00,1.50
4290.00,1.50
4289.00,1.51
4288.00,1.51
4287.00,1.51
4286.00,1.51
4285.00,1.51
4284.00,1.51
4283.00,1.51
4282.00,1.51
4281.00,1.51
4280.00,1.51
4279.00,1.51
4278.00,1.51
4277.00,1.51
4276.00,1.51
4275.00,1.51
4274.00,1.51
4273.00,1.51
4272.00,1.51
4271.00,1.51
4270.00,1.51
4269.00,1.51
4268.00,1.51
4267.00,1.51
4266.00,1.51
4265.00,1.51
4264.00,1.51
4263.00,1.51
4262.00,1.51
4261.00,1.51
4260.00,1.51
4259.00,1.51
4258.00,1.51
4257.00,1.51
4256.00,1.51
4255.00,1.51
4254.00,1.51
4253.00,1.52
4252.00,1.52
4251.00,1.52
4250.00,1.52
4249.00,1.52
4248.00,1.52
4247.00,1.53
4246.00,1.53
4245.00,1.53
4244.00,1.53
4243.00,1.53
4242.00,1.53
4241.00,1.54
4240.00,1.54
4239.00,1.54
4238.00,1.54
4237.00,1.54
4236.00,1.54
4235.00,1.55
4234.00,1.55
4233.00,1.55
4232.00,1.55
4231.00,1.55
4230.00,1.55
4229.00,1.55
4228.00,1.55
4227.00,1.55
4226.00,1.56
4225.00,1.56
4224.00,1.56
4223.00,1.56
4222.00,1.56
4221.00,1.56
4220.00,1.56
4219.00,1.56
4218.00,1.56
4217.00,1.56
4216.00,1.56
4215.00,1.56
4214.00,1.56
4213.00,1.56
4212.00,1.56
4211.00,1.56
4210.00,1.56
4209.00,1.57
4208.00,1.57
4207.00,1.57
4206.00,1.57
4205.00,1.57
4204.00,1.57
4203.00,1.57
4202.00,1.57
4201.00,1.57
4200.00,1.57
4199.00,1.57
4198.00,1.57
4197.00,1.57
4196.00,1.58
4195.00,1.58
4194.00,1.58
4193.00,1.58
4192.00,1.58
4191.00,1.58
4190.00,1.58
4189.00,1.58
4188.00,1.58
4187.00,1.58
4186.00,1.58
4185.00,1.58
4184.00,1.58
4183.00,1.58
4182.00,1.58
4181.00,1.58
4180.00,1.58
4179.00,1.58
4178.00,1.58
4177.00,1.58
4176.00,1.57
4175.00,1.57
4174.00,1.57
4173.00,1.57
4172.00,1.57
4171.00,1.57
4170.00,1.57
4169.00,1.57
4168.00,1.58
4167.00,1.58
4166.00,1.58
4165.00,1.58
4164.00,1.58
4163.00,1.58
4162.00,1.58
4161.00,1.58
4160.00,1.58
4159.00,1.58
4158.00,1.58
4157.00,1.58
4156.00,1.58
4155.00,1.58
4154.00,1.58
4153.00,1.58
4152.00,1.58
4151.00,1.58
4150.00,1.58
4149.00,1.58
4148.00,1.58
4147.00,1.58
4146.00,1.58
4145.00,1.58
4144.00,1.58
4143.00,1.58
4142.00,1.58
4141.00,1.58
4140.00,1.58
4139.00,1.59
4138.00,1.59
4137.00,1.59
4136.00,1.59
4135.00,1.59
4134.00,1.59
4133.00,1.59
4132.00,1.59
4131.00,1.59
4130.00,1.59
4129.00,1.59
4128.00,1.60
4127.00,1.60
4126.00,1.60
4125.00,1.60
4124.00,1.60
4123.00,1.60
4122.00,1.60
4121.00,1.60
4120.00,1.60
4119.00,1.61
4118.00,1.61
4117.00,1.61
4116.00,1.61
4115.00,1.61
4114.00,1.61
4113.00,1.61
4112.00,1.61
4111.00,1.61
4110.00,1.61
4109.00,1.61
4108.00,1.62
4107.00,1.62
4106.00,1.62
4105.00,1.62
4104.00,1.62
4103.00,1.62
4102.00,1.62
4101.00,1.62
4100.00,1.62
4099.00,1.62
4098.00,1.62
4097.00,1.62
4096.00,1.62
4095.00,1.62
4094.00,1.62
4093.00,1.62
4092.00,1.62
4091.00,1.62
4090.00,1.62
4089.00,1.62
4088.00,1.62
4087.00,1.62
4086.00,1.62
4085.00,1.62
4084.00,1.63
4083.00,1.63
4082.00,1.63
4081.00,1.63
4080.00,1.63
4079.00,1.63
4078.00,1.63
4077.00,1.63
4076.00,1.63
4075.00,1.63
4074.00,1.64
4073.00,1.64
4072.00,1.64
4071.00,1.64
4070.00,1.64
4069.00,1.64
4068.00,1.64
4067.00,1.64
4066.00,1.64
4065.00,1.64
4064.00,1.64
4063.00,1.64
4062.00,1.65
4061.00,1.65
4060.00,1.65
4059.00,1.65
4058.00,1.65
4057.00,1.65
4056.00,1.65
4055.00,1.65
4054.00,1.66
4053.00,1.66
4052.00,1.66
4051.00,1.66
4050.00,1.66
4049.00,1.66
4048.00,1.66
4047.00,1.66
4046.00,1.66
4045.00,1.66
4044.00,1.66
4043.00,1.66
4042.00,1.66
4041.00,1.66
4040.00,1.66
4039.00,1.66
4038.00,1.66
4037.00,1.66
4036.00,1.66
4035.00,1.66
4034.00,1.66
4033.00,1.66
4032.00,1.66
4031.00,1.66
4030.00,1.66
4029.00,1.66
4028.00,1.67
4027.00,1.67
4026.00,1.67
4025.00,1.67
4024.00,1.67
4023.00,1.67
4022.00,1.67
4021.00,1.67
4020.00,1.67
4019.00,1.67
4018.00,1.67
4017.00,1.68
4016.00,1.68
4015.00,1.68
4014.00,1.68
4013.00,1.68
4012.00,1.68
4011.00,1.68
4010.00,1.68
4009.00,1.68
4008.00,1.68
4007.00,1.68
4006.00,1.68
4005.00,1.68
4004.00,1.68
4003.00,1.68
4002.00,1.68
4001.00,1.69
4000.00,1.69
