创建为新数据集,样品 192 用户 Administrator 日期 星期六, 七月 21 2018
cm-1,%T
10000.00,1.48
9999.00,1.48
9998.00,1.48
9997.00,1.48
9996.00,1.48
9995.00,1.48
9994.00,1.48
9993.00,1.48
9992.00,1.48
9991.00,1.48
9990.00,1.48
9989.00,1.48
9988.00,1.48
9987.00,1.48
9986.00,1.48
9985.00,1.48
9984.00,1.48
9983.00,1.48
9982.00,1.48
9981.00,1.47
9980.00,1.47
9979.00,1.47
9978.00,1.47
9977.00,1.47
9976.00,1.46
9975.00,1.46
9974.00,1.46
9973.00,1.45
9972.00,1.45
9971.00,1.45
9970.00,1.45
9969.00,1.45
9968.00,1.44
9967.00,1.44
9966.00,1.44
9965.00,1.44
9964.00,1.44
9963.00,1.44
9962.00,1.44
9961.00,1.44
9960.00,1.44
9959.00,1.44
9958.00,1.44
9957.00,1.44
9956.00,1.44
9955.00,1.44
9954.00,1.44
9953.00,1.44
9952.00,1.44
9951.00,1.44
9950.00,1.44
9949.00,1.44
9948.00,1.44
9947.00,1.44
9946.00,1.44
9945.00,1.44
9944.00,1.44
9943.00,1.45
9942.00,1.45
9941.00,1.45
9940.00,1.45
9939.00,1.45
9938.00,1.46
9937.00,1.46
9936.00,1.46
9935.00,1.46
9934.00,1.46
9933.00,1.46
9932.00,1.46
9931.00,1.46
9930.00,1.46
9929.00,1.46
9928.00,1.46
9927.00,1.45
9926.00,1.45
9925.00,1.45
9924.00,1.45
9923.00,1.45
9922.00,1.45
9921.00,1.45
9920.00,1.45
9919.00,1.45
9918.00,1.46
9917.00,1.46
9916.00,1.46
9915.00,1.46
9914.00,1.46
9913.00,1.46
9912.00,1.46
9911.00,1.46
9910.00,1.46
9909.00,1.46
9908.00,1.46
9907.00,1.46
9906.00,1.46
9905.00,1.46
9904.00,1.46
9903.00,1.46
9902.00,1.45
9901.00,1.45
9900.00,1.45
9899.00,1.45
9898.00,1.45
9897.00,1.45
9896.00,1.45
9895.00,1.45
9894.00,1.45
9893.00,1.45
9892.00,1.45
9891.00,1.45
9890.00,1.45
9889.00,1.45
9888.00,1.45
9887.00,1.45
9886.00,1.45
9885.00,1.45
9884.00,1.45
9883.00,1.46
9882.00,1.46
9881.00,1.46
9880.00,1.46
9879.00,1.46
9878.00,1.46
9877.00,1.46
9876.00,1.46
9875.00,1.46
9874.00,1.46
9873.00,1.45
9872.00,1.45
9871.00,1.45
9870.00,1.45
9869.00,1.45
9868.00,1.45
9867.00,1.45
9866.00,1.44
9865.00,1.44
9864.00,1.44
9863.00,1.44
9862.00,1.44
9861.00,1.44
9860.00,1.44
9859.00,1.44
9858.00,1.44
9857.00,1.44
9856.00,1.44
9855.00,1.44
9854.00,1.44
9853.00,1.44
9852.00,1.44
9851.00,1.44
9850.00,1.44
9849.00,1.44
9848.00,1.44
9847.00,1.44
9846.00,1.44
9845.00,1.45
9844.00,1.45
9843.00,1.45
9842.00,1.45
9841.00,1.45
9840.00,1.45
9839.00,1.46
9838.00,1.46
9837.00,1.46
9836.00,1.46
9835.00,1.46
9834.00,1.47
9833.00,1.47
9832.00,1.47
9831.00,1.47
9830.00,1.47
9829.00,1.47
9828.00,1.47
9827.00,1.46
9826.00,1.46
9825.00,1.46
9824.00,1.46
9823.00,1.46
9822.00,1.45
9821.00,1.45
9820.00,1.45
9819.00,1.45
9818.00,1.44
9817.00,1.44
9816.00,1.44
9815.00,1.44
9814.00,1.44
9813.00,1.44
9812.00,1.44
9811.00,1.44
9810.00,1.44
9809.00,1.44
9808.00,1.44
9807.00,1.44
9806.00,1.44
9805.00,1.44
9804.00,1.44
9803.00,1.44
9802.00,1.44
9801.00,1.44
9800.00,1.44
9799.00,1.44
9798.00,1.44
9797.00,1.44
9796.00,1.44
9795.00,1.45
9794.00,1.45
9793.00,1.45
9792.00,1.45
9791.00,1.45
9790.00,1.45
9789.00,1.45
9788.00,1.45
9787.00,1.45
9786.00,1.44
9785.00,1.44
9784.00,1.44
9783.00,1.44
9782.00,1.44
9781.00,1.44
9780.00,1.44
9779.00,1.44
9778.00,1.44
9777.00,1.44
9776.00,1.44
9775.00,1.44
9774.00,1.44
9773.00,1.44
9772.00,1.43
9771.00,1.43
9770.00,1.43
9769.00,1.43
9768.00,1.43
9767.00,1.43
9766.00,1.43
9765.00,1.44
9764.00,1.44
9763.00,1.44
9762.00,1.44
9761.00,1.44
9760.00,1.44
9759.00,1.44
9758.00,1.44
9757.00,1.44
9756.00,1.44
9755.00,1.44
9754.00,1.44
9753.00,1.44
9752.00,1.44
9751.00,1.44
9750.00,1.44
9749.00,1.44
9748.00,1.44
9747.00,1.44
9746.00,1.45
9745.00,1.45
9744.00,1.45
9743.00,1.45
9742.00,1.45
9741.00,1.45
9740.00,1.45
9739.00,1.45
9738.00,1.45
9737.00,1.45
9736.00,1.45
9735.00,1.45
9734.00,1.45
9733.00,1.45
9732.00,1.45
9731.00,1.45
9730.00,1.44
9729.00,1.44
9728.00,1.44
9727.00,1.44
9726.00,1.44
9725.00,1.44
9724.00,1.44
9723.00,1.44
9722.00,1.44
9721.00,1.44
9720.00,1.44
9719.00,1.44
9718.00,1.44
9717.00,1.44
9716.00,1.43
9715.00,1.43
9714.00,1.43
9713.00,1.43
9712.00,1.43
9711.00,1.43
9710.00,1.43
9709.00,1.43
9708.00,1.43
9707.00,1.42
9706.00,1.42
9705.00,1.42
9704.00,1.42
9703.00,1.42
9702.00,1.42
9701.00,1.42
9700.00,1.42
9699.00,1.42
9698.00,1.41
9697.00,1.41
9696.00,1.41
9695.00,1.41
9694.00,1.41
9693.00,1.41
9692.00,1.41
9691.00,1.41
9690.00,1.42
9689.00,1.42
9688.00,1.42
9687.00,1.42
9686.00,1.42
9685.00,1.42
9684.00,1.43
9683.00,1.43
9682.00,1.43
9681.00,1.43
9680.00,1.43
9679.00,1.44
9678.00,1.44
9677.00,1.44
9676.00,1.44
9675.00,1.44
9674.00,1.44
9673.00,1.44
9672.00,1.44
9671.00,1.44
9670.00,1.44
9669.00,1.44
9668.00,1.44
9667.00,1.44
9666.00,1.44
9665.00,1.45
9664.00,1.45
9663.00,1.45
9662.00,1.45
9661.00,1.45
9660.00,1.45
9659.00,1.45
9658.00,1.45
9657.00,1.45
9656.00,1.45
9655.00,1.45
9654.00,1.45
9653.00,1.45
9652.00,1.45
9651.00,1.45
9650.00,1.45
9649.00,1.45
9648.00,1.45
9647.00,1.45
9646.00,1.44
9645.00,1.44
9644.00,1.44
9643.00,1.44
9642.00,1.44
9641.00,1.44
9640.00,1.44
9639.00,1.44
9638.00,1.43
9637.00,1.43
9636.00,1.43
9635.00,1.43
9634.00,1.43
9633.00,1.43
9632.00,1.43
9631.00,1.43
9630.00,1.43
9629.00,1.44
9628.00,1.44
9627.00,1.44
9626.00,1.44
9625.00,1.44
9624.00,1.44
9623.00,1.44
9622.00,1.44
9621.00,1.44
9620.00,1.44
9619.00,1.44
9618.00,1.44
9617.00,1.44
9616.00,1.44
9615.00,1.44
9614.00,1.44
9613.00,1.44
9612.00,1.44
9611.00,1.43
9610.00,1.43
9609.00,1.43
9608.00,1.43
9607.00,1.43
9606.00,1.42
9605.00,1.42
9604.00,1.42
9603.00,1.42
9602.00,1.42
9601.00,1.41
9600.00,1.41
9599.00,1.41
9598.00,1.41
9597.00,1.41
9596.00,1.41
9595.00,1.41
9594.00,1.41
9593.00,1.41
9592.00,1.41
9591.00,1.41
9590.00,1.41
9589.00,1.41
9588.00,1.41
9587.00,1.41
9586.00,1.41
9585.00,1.41
9584.00,1.42
9583.00,1.42
9582.00,1.42
9581.00,1.42
9580.00,1.43
9579.00,1.43
9578.00,1.43
9577.00,1.43
9576.00,1.43
9575.00,1.44
9574.00,1.44
9573.00,1.44
9572.00,1.44
9571.00,1.44
9570.00,1.44
9569.00,1.45
9568.00,1.45
9567.00,1.45
9566.00,1.45
9565.00,1.45
9564.00,1.45
9563.00,1.45
9562.00,1.45
9561.00,1.45
9560.00,1.45
9559.00,1.45
9558.00,1.44
9557.00,1.44
9556.00,1.44
9555.00,1.44
9554.00,1.44
9553.00,1.44
9552.00,1.44
9551.00,1.44
9550.00,1.44
9549.00,1.44
9548.00,1.44
9547.00,1.44
9546.00,1.44
9545.00,1.44
9544.00,1.44
9543.00,1.44
9542.00,1.44
9541.00,1.44
9540.00,1.44
9539.00,1.45
9538.00,1.45
9537.00,1.45
9536.00,1.45
9535.00,1.45
9534.00,1.44
9533.00,1.44
9532.00,1.44
9531.00,1.44
9530.00,1.44
9529.00,1.44
9528.00,1.44
9527.00,1.44
9526.00,1.44
9525.00,1.44
9524.00,1.44
9523.00,1.44
9522.00,1.44
9521.00,1.44
9520.00,1.44
9519.00,1.44
9518.00,1.45
9517.00,1.45
9516.00,1.45
9515.00,1.45
9514.00,1.45
9513.00,1.45
9512.00,1.45
9511.00,1.45
9510.00,1.45
9509.00,1.45
9508.00,1.45
9507.00,1.45
9506.00,1.45
9505.00,1.45
9504.00,1.45
9503.00,1.45
9502.00,1.45
9501.00,1.45
9500.00,1.45
9499.00,1.45
9498.00,1.45
9497.00,1.46
9496.00,1.46
9495.00,1.46
9494.00,1.46
9493.00,1.47
9492.00,1.47
9491.00,1.47
9490.00,1.47
9489.00,1.47
9488.00,1.48
9487.00,1.48
9486.00,1.48
9485.00,1.48
9484.00,1.48
9483.00,1.48
9482.00,1.48
9481.00,1.48
9480.00,1.48
9479.00,1.48
9478.00,1.48
9477.00,1.48
9476.00,1.48
9475.00,1.48
9474.00,1.48
9473.00,1.48
9472.00,1.47
9471.00,1.47
9470.00,1.47
9469.00,1.47
9468.00,1.47
9467.00,1.47
9466.00,1.47
9465.00,1.46
9464.00,1.46
9463.00,1.46
9462.00,1.46
9461.00,1.45
9460.00,1.45
9459.00,1.45
9458.00,1.44
9457.00,1.44
9456.00,1.44
9455.00,1.44
9454.00,1.43
9453.00,1.43
9452.00,1.43
9451.00,1.43
9450.00,1.43
9449.00,1.43
9448.00,1.43
9447.00,1.42
9446.00,1.42
9445.00,1.42
9444.00,1.42
9443.00,1.43
9442.00,1.43
9441.00,1.43
9440.00,1.43
9439.00,1.43
9438.00,1.43
9437.00,1.43
9436.00,1.43
9435.00,1.43
9434.00,1.43
9433.00,1.43
9432.00,1.43
9431.00,1.43
9430.00,1.43
9429.00,1.43
9428.00,1.43
9427.00,1.43
9426.00,1.43
9425.00,1.43
9424.00,1.43
9423.00,1.43
9422.00,1.43
9421.00,1.43
9420.00,1.43
9419.00,1.43
9418.00,1.43
9417.00,1.43
9416.00,1.43
9415.00,1.43
9414.00,1.43
9413.00,1.43
9412.00,1.43
9411.00,1.43
9410.00,1.43
9409.00,1.44
9408.00,1.44
9407.00,1.44
9406.00,1.44
9405.00,1.44
9404.00,1.44
9403.00,1.44
9402.00,1.44
9401.00,1.44
9400.00,1.44
9399.00,1.45
9398.00,1.45
9397.00,1.45
9396.00,1.45
9395.00,1.45
9394.00,1.45
9393.00,1.45
9392.00,1.46
9391.00,1.46
9390.00,1.46
9389.00,1.46
9388.00,1.46
9387.00,1.46
9386.00,1.46
9385.00,1.46
9384.00,1.46
9383.00,1.46
9382.00,1.46
9381.00,1.46
9380.00,1.46
9379.00,1.45
9378.00,1.45
9377.00,1.45
9376.00,1.45
9375.00,1.45
9374.00,1.45
9373.00,1.45
9372.00,1.44
9371.00,1.44
9370.00,1.44
9369.00,1.44
9368.00,1.44
9367.00,1.44
9366.00,1.44
9365.00,1.44
9364.00,1.44
9363.00,1.44
9362.00,1.44
9361.00,1.44
9360.00,1.44
9359.00,1.44
9358.00,1.44
9357.00,1.44
9356.00,1.44
9355.00,1.44
9354.00,1.44
9353.00,1.44
9352.00,1.45
9351.00,1.45
9350.00,1.45
9349.00,1.45
9348.00,1.45
9347.00,1.45
9346.00,1.45
9345.00,1.45
9344.00,1.45
9343.00,1.45
9342.00,1.45
9341.00,1.45
9340.00,1.46
9339.00,1.46
9338.00,1.46
9337.00,1.46
9336.00,1.46
9335.00,1.46
9334.00,1.46
9333.00,1.46
9332.00,1.46
9331.00,1.46
9330.00,1.46
9329.00,1.46
9328.00,1.46
9327.00,1.46
9326.00,1.45
9325.00,1.45
9324.00,1.45
9323.00,1.45
9322.00,1.45
9321.00,1.45
9320.00,1.45
9319.00,1.45
9318.00,1.45
9317.00,1.45
9316.00,1.45
9315.00,1.45
9314.00,1.45
9313.00,1.45
9312.00,1.45
9311.00,1.45
9310.00,1.45
9309.00,1.45
9308.00,1.45
9307.00,1.45
9306.00,1.45
9305.00,1.45
9304.00,1.45
9303.00,1.45
9302.00,1.45
9301.00,1.45
9300.00,1.45
9299.00,1.45
9298.00,1.45
9297.00,1.45
9296.00,1.45
9295.00,1.45
9294.00,1.45
9293.00,1.45
9292.00,1.45
9291.00,1.45
9290.00,1.45
9289.00,1.45
9288.00,1.46
9287.00,1.46
9286.00,1.46
9285.00,1.46
9284.00,1.46
9283.00,1.46
9282.00,1.46
9281.00,1.46
9280.00,1.46
9279.00,1.46
9278.00,1.46
9277.00,1.46
9276.00,1.46
9275.00,1.46
9274.00,1.46
9273.00,1.46
9272.00,1.46
9271.00,1.45
9270.00,1.45
9269.00,1.45
9268.00,1.45
9267.00,1.45
9266.00,1.44
9265.00,1.44
9264.00,1.44
9263.00,1.44
9262.00,1.44
9261.00,1.44
9260.00,1.44
9259.00,1.44
9258.00,1.44
9257.00,1.44
9256.00,1.44
9255.00,1.44
9254.00,1.44
9253.00,1.44
9252.00,1.44
9251.00,1.45
9250.00,1.45
9249.00,1.45
9248.00,1.45
9247.00,1.45
9246.00,1.45
9245.00,1.45
9244.00,1.45
9243.00,1.45
9242.00,1.45
9241.00,1.45
9240.00,1.45
9239.00,1.45
9238.00,1.45
9237.00,1.45
9236.00,1.45
9235.00,1.45
9234.00,1.45
9233.00,1.45
9232.00,1.45
9231.00,1.45
9230.00,1.44
9229.00,1.44
9228.00,1.44
9227.00,1.44
9226.00,1.44
9225.00,1.44
9224.00,1.43
9223.00,1.43
9222.00,1.43
9221.00,1.43
9220.00,1.43
9219.00,1.43
9218.00,1.43
9217.00,1.43
9216.00,1.43
9215.00,1.44
9214.00,1.44
9213.00,1.44
9212.00,1.44
9211.00,1.45
9210.00,1.45
9209.00,1.46
9208.00,1.46
9207.00,1.46
9206.00,1.47
9205.00,1.47
9204.00,1.47
9203.00,1.47
9202.00,1.48
9201.00,1.48
9200.00,1.48
9199.00,1.48
9198.00,1.48
9197.00,1.47
9196.00,1.47
9195.00,1.47
9194.00,1.47
9193.00,1.47
9192.00,1.47
9191.00,1.46
9190.00,1.46
9189.00,1.46
9188.00,1.46
9187.00,1.46
9186.00,1.46
9185.00,1.45
9184.00,1.45
9183.00,1.45
9182.00,1.45
9181.00,1.46
9180.00,1.46
9179.00,1.46
9178.00,1.46
9177.00,1.46
9176.00,1.46
9175.00,1.46
9174.00,1.46
9173.00,1.46
9172.00,1.46
9171.00,1.46
9170.00,1.46
9169.00,1.46
9168.00,1.46
9167.00,1.46
9166.00,1.46
9165.00,1.45
9164.00,1.45
9163.00,1.45
9162.00,1.45
9161.00,1.45
9160.00,1.45
9159.00,1.45
9158.00,1.45
9157.00,1.45
9156.00,1.45
9155.00,1.46
9154.00,1.46
9153.00,1.46
9152.00,1.46
9151.00,1.46
9150.00,1.46
9149.00,1.46
9148.00,1.46
9147.00,1.46
9146.00,1.46
9145.00,1.46
9144.00,1.46
9143.00,1.46
9142.00,1.46
9141.00,1.46
9140.00,1.46
9139.00,1.46
9138.00,1.45
9137.00,1.45
9136.00,1.45
9135.00,1.45
9134.00,1.45
9133.00,1.45
9132.00,1.44
9131.00,1.44
9130.00,1.44
9129.00,1.44
9128.00,1.44
9127.00,1.44
9126.00,1.44
9125.00,1.45
9124.00,1.45
9123.00,1.45
9122.00,1.45
9121.00,1.45
9120.00,1.45
9119.00,1.45
9118.00,1.45
9117.00,1.46
9116.00,1.46
9115.00,1.46
9114.00,1.46
9113.00,1.46
9112.00,1.46
9111.00,1.46
9110.00,1.46
9109.00,1.46
9108.00,1.46
9107.00,1.46
9106.00,1.46
9105.00,1.46
9104.00,1.46
9103.00,1.46
9102.00,1.46
9101.00,1.46
9100.00,1.46
9099.00,1.46
9098.00,1.46
9097.00,1.46
9096.00,1.46
9095.00,1.46
9094.00,1.46
9093.00,1.46
9092.00,1.46
9091.00,1.46
9090.00,1.46
9089.00,1.46
9088.00,1.45
9087.00,1.45
9086.00,1.45
9085.00,1.45
9084.00,1.45
9083.00,1.45
9082.00,1.45
9081.00,1.45
9080.00,1.45
9079.00,1.45
9078.00,1.45
9077.00,1.45
9076.00,1.45
9075.00,1.45
9074.00,1.45
9073.00,1.45
9072.00,1.45
9071.00,1.45
9070.00,1.45
9069.00,1.45
9068.00,1.45
9067.00,1.46
9066.00,1.46
9065.00,1.46
9064.00,1.46
9063.00,1.46
9062.00,1.46
9061.00,1.46
9060.00,1.46
9059.00,1.46
9058.00,1.46
9057.00,1.46
9056.00,1.46
9055.00,1.46
9054.00,1.46
9053.00,1.46
9052.00,1.46
9051.00,1.46
9050.00,1.46
9049.00,1.46
9048.00,1.46
9047.00,1.46
9046.00,1.46
9045.00,1.46
9044.00,1.46
9043.00,1.46
9042.00,1.46
9041.00,1.46
9040.00,1.45
9039.00,1.45
9038.00,1.45
9037.00,1.45
9036.00,1.45
9035.00,1.45
9034.00,1.45
9033.00,1.45
9032.00,1.45
9031.00,1.45
9030.00,1.45
9029.00,1.45
9028.00,1.46
9027.00,1.46
9026.00,1.46
9025.00,1.46
9024.00,1.46
9023.00,1.46
9022.00,1.46
9021.00,1.46
9020.00,1.47
9019.00,1.47
9018.00,1.47
9017.00,1.47
9016.00,1.47
9015.00,1.47
9014.00,1.48
9013.00,1.48
9012.00,1.48
9011.00,1.48
9010.00,1.48
9009.00,1.48
9008.00,1.48
9007.00,1.48
9006.00,1.48
9005.00,1.48
9004.00,1.48
9003.00,1.48
9002.00,1.48
9001.00,1.48
9000.00,1.48
8999.00,1.48
8998.00,1.48
8997.00,1.48
8996.00,1.48
8995.00,1.48
8994.00,1.48
8993.00,1.48
8992.00,1.48
8991.00,1.48
8990.00,1.48
8989.00,1.48
8988.00,1.48
8987.00,1.48
8986.00,1.48
8985.00,1.48
8984.00,1.48
8983.00,1.48
8982.00,1.48
8981.00,1.48
8980.00,1.48
8979.00,1.48
8978.00,1.48
8977.00,1.48
8976.00,1.48
8975.00,1.48
8974.00,1.48
8973.00,1.47
8972.00,1.47
8971.00,1.47
8970.00,1.47
8969.00,1.47
8968.00,1.47
8967.00,1.47
8966.00,1.47
8965.00,1.46
8964.00,1.46
8963.00,1.46
8962.00,1.46
8961.00,1.46
8960.00,1.46
8959.00,1.46
8958.00,1.46
8957.00,1.46
8956.00,1.46
8955.00,1.47
8954.00,1.47
8953.00,1.47
8952.00,1.47
8951.00,1.47
8950.00,1.47
8949.00,1.47
8948.00,1.47
8947.00,1.47
8946.00,1.47
8945.00,1.47
8944.00,1.47
8943.00,1.47
8942.00,1.47
8941.00,1.47
8940.00,1.47
8939.00,1.47
8938.00,1.47
8937.00,1.47
8936.00,1.47
8935.00,1.47
8934.00,1.46
8933.00,1.46
8932.00,1.46
8931.00,1.46
8930.00,1.46
8929.00,1.46
8928.00,1.46
8927.00,1.46
8926.00,1.46
8925.00,1.46
8924.00,1.46
8923.00,1.46
8922.00,1.46
8921.00,1.46
8920.00,1.46
8919.00,1.46
8918.00,1.46
8917.00,1.46
8916.00,1.46
8915.00,1.46
8914.00,1.46
8913.00,1.46
8912.00,1.46
8911.00,1.46
8910.00,1.46
8909.00,1.46
8908.00,1.46
8907.00,1.46
8906.00,1.46
8905.00,1.46
8904.00,1.46
8903.00,1.46
8902.00,1.46
8901.00,1.46
8900.00,1.46
8899.00,1.46
8898.00,1.46
8897.00,1.46
8896.00,1.46
8895.00,1.47
8894.00,1.47
8893.00,1.47
8892.00,1.47
8891.00,1.47
8890.00,1.47
8889.00,1.47
8888.00,1.47
8887.00,1.47
8886.00,1.47
8885.00,1.47
8884.00,1.47
8883.00,1.47
8882.00,1.47
8881.00,1.47
8880.00,1.46
8879.00,1.46
8878.00,1.46
8877.00,1.46
8876.00,1.46
8875.00,1.46
8874.00,1.46
8873.00,1.46
8872.00,1.46
8871.00,1.46
8870.00,1.46
8869.00,1.46
8868.00,1.46
8867.00,1.46
8866.00,1.46
8865.00,1.46
8864.00,1.46
8863.00,1.46
8862.00,1.46
8861.00,1.46
8860.00,1.46
8859.00,1.46
8858.00,1.46
8857.00,1.46
8856.00,1.46
8855.00,1.46
8854.00,1.46
8853.00,1.46
8852.00,1.46
8851.00,1.46
8850.00,1.46
8849.00,1.45
8848.00,1.45
8847.00,1.45
8846.00,1.45
8845.00,1.45
8844.00,1.44
8843.00,1.44
8842.00,1.44
8841.00,1.44
8840.00,1.44
8839.00,1.44
8838.00,1.44
8837.00,1.43
8836.00,1.43
8835.00,1.43
8834.00,1.43
8833.00,1.43
8832.00,1.43
8831.00,1.43
8830.00,1.43
8829.00,1.43
8828.00,1.43
8827.00,1.43
8826.00,1.43
8825.00,1.43
8824.00,1.43
8823.00,1.43
8822.00,1.43
8821.00,1.43
8820.00,1.42
8819.00,1.42
8818.00,1.42
8817.00,1.42
8816.00,1.42
8815.00,1.42
8814.00,1.42
8813.00,1.42
8812.00,1.42
8811.00,1.42
8810.00,1.42
8809.00,1.42
8808.00,1.42
8807.00,1.42
8806.00,1.42
8805.00,1.42
8804.00,1.42
8803.00,1.42
8802.00,1.42
8801.00,1.42
8800.00,1.42
8799.00,1.42
8798.00,1.42
8797.00,1.42
8796.00,1.42
8795.00,1.42
8794.00,1.41
8793.00,1.41
8792.00,1.41
8791.00,1.41
8790.00,1.41
8789.00,1.41
8788.00,1.41
8787.00,1.41
8786.00,1.42
8785.00,1.42
8784.00,1.42
8783.00,1.42
8782.00,1.42
8781.00,1.42
8780.00,1.42
8779.00,1.42
8778.00,1.43
8777.00,1.43
8776.00,1.43
8775.00,1.43
8774.00,1.43
8773.00,1.43
8772.00,1.43
8771.00,1.43
8770.00,1.43
8769.00,1.43
8768.00,1.42
8767.00,1.42
8766.00,1.42
8765.00,1.42
8764.00,1.42
8763.00,1.42
8762.00,1.42
8761.00,1.42
8760.00,1.41
8759.00,1.41
8758.00,1.41
8757.00,1.41
8756.00,1.41
8755.00,1.41
8754.00,1.41
8753.00,1.41
8752.00,1.41
8751.00,1.41
8750.00,1.41
8749.00,1.41
8748.00,1.41
8747.00,1.41
8746.00,1.41
8745.00,1.41
8744.00,1.41
8743.00,1.41
8742.00,1.41
8741.00,1.41
8740.00,1.41
8739.00,1.41
8738.00,1.41
8737.00,1.41
8736.00,1.41
8735.00,1.41
8734.00,1.41
8733.00,1.41
8732.00,1.41
8731.00,1.41
8730.00,1.41
8729.00,1.41
8728.00,1.41
8727.00,1.41
8726.00,1.41
8725.00,1.41
8724.00,1.41
8723.00,1.41
8722.00,1.41
8721.00,1.41
8720.00,1.41
8719.00,1.41
8718.00,1.41
8717.00,1.41
8716.00,1.40
8715.00,1.40
8714.00,1.40
8713.00,1.40
8712.00,1.40
8711.00,1.40
8710.00,1.40
8709.00,1.40
8708.00,1.39
8707.00,1.39
8706.00,1.39
8705.00,1.39
8704.00,1.39
8703.00,1.39
8702.00,1.39
8701.00,1.39
8700.00,1.39
8699.00,1.38
8698.00,1.38
8697.00,1.38
8696.00,1.38
8695.00,1.38
8694.00,1.38
8693.00,1.38
8692.00,1.38
8691.00,1.38
8690.00,1.38
8689.00,1.38
8688.00,1.38
8687.00,1.38
8686.00,1.38
8685.00,1.37
8684.00,1.37
8683.00,1.37
8682.00,1.37
8681.00,1.37
8680.00,1.37
8679.00,1.37
8678.00,1.37
8677.00,1.37
8676.00,1.37
8675.00,1.37
8674.00,1.37
8673.00,1.38
8672.00,1.38
8671.00,1.38
8670.00,1.38
8669.00,1.38
8668.00,1.38
8667.00,1.38
8666.00,1.38
8665.00,1.38
8664.00,1.38
8663.00,1.38
8662.00,1.38
8661.00,1.38
8660.00,1.38
8659.00,1.38
8658.00,1.38
8657.00,1.38
8656.00,1.38
8655.00,1.38
8654.00,1.38
8653.00,1.38
8652.00,1.38
8651.00,1.38
8650.00,1.38
8649.00,1.38
8648.00,1.38
8647.00,1.38
8646.00,1.38
8645.00,1.38
8644.00,1.38
8643.00,1.38
8642.00,1.38
8641.00,1.38
8640.00,1.38
8639.00,1.37
8638.00,1.37
8637.00,1.37
8636.00,1.37
8635.00,1.37
8634.00,1.37
8633.00,1.37
8632.00,1.37
8631.00,1.37
8630.00,1.37
8629.00,1.37
8628.00,1.36
8627.00,1.36
8626.00,1.36
8625.00,1.36
8624.00,1.36
8623.00,1.36
8622.00,1.36
8621.00,1.36
8620.00,1.36
8619.00,1.36
8618.00,1.36
8617.00,1.36
8616.00,1.36
8615.00,1.36
8614.00,1.36
8613.00,1.36
8612.00,1.36
8611.00,1.36
8610.00,1.36
8609.00,1.36
8608.00,1.36
8607.00,1.36
8606.00,1.36
8605.00,1.36
8604.00,1.36
8603.00,1.36
8602.00,1.36
8601.00,1.36
8600.00,1.36
8599.00,1.36
8598.00,1.36
8597.00,1.36
8596.00,1.36
8595.00,1.36
8594.00,1.36
8593.00,1.36
8592.00,1.36
8591.00,1.36
8590.00,1.36
8589.00,1.36
8588.00,1.36
8587.00,1.36
8586.00,1.36
8585.00,1.36
8584.00,1.36
8583.00,1.36
8582.00,1.36
8581.00,1.36
8580.00,1.36
8579.00,1.36
8578.00,1.35
8577.00,1.35
8576.00,1.35
8575.00,1.35
8574.00,1.35
8573.00,1.35
8572.00,1.35
8571.00,1.34
8570.00,1.34
8569.00,1.34
8568.00,1.34
8567.00,1.34
8566.00,1.34
8565.00,1.33
8564.00,1.33
8563.00,1.33
8562.00,1.33
8561.00,1.33
8560.00,1.33
8559.00,1.33
8558.00,1.33
8557.00,1.33
8556.00,1.33
8555.00,1.33
8554.00,1.33
8553.00,1.33
8552.00,1.33
8551.00,1.33
8550.00,1.33
8549.00,1.33
8548.00,1.33
8547.00,1.33
8546.00,1.33
8545.00,1.33
8544.00,1.33
8543.00,1.33
8542.00,1.33
8541.00,1.33
8540.00,1.33
8539.00,1.33
8538.00,1.33
8537.00,1.33
8536.00,1.33
8535.00,1.33
8534.00,1.33
8533.00,1.33
8532.00,1.33
8531.00,1.33
8530.00,1.33
8529.00,1.33
8528.00,1.33
8527.00,1.33
8526.00,1.33
8525.00,1.34
8524.00,1.34
8523.00,1.34
8522.00,1.34
8521.00,1.34
8520.00,1.34
8519.00,1.34
8518.00,1.33
8517.00,1.33
8516.00,1.33
8515.00,1.33
8514.00,1.33
8513.00,1.33
8512.00,1.33
8511.00,1.33
8510.00,1.32
8509.00,1.32
8508.00,1.32
8507.00,1.32
8506.00,1.32
8505.00,1.32
8504.00,1.32
8503.00,1.31
8502.00,1.31
8501.00,1.31
8500.00,1.31
8499.00,1.31
8498.00,1.31
8497.00,1.31
8496.00,1.31
8495.00,1.30
8494.00,1.30
8493.00,1.30
8492.00,1.30
8491.00,1.30
8490.00,1.30
8489.00,1.30
8488.00,1.30
8487.00,1.29
8486.00,1.29
8485.00,1.29
8484.00,1.29
8483.00,1.29
8482.00,1.29
8481.00,1.29
8480.00,1.28
8479.00,1.28
8478.00,1.28
8477.00,1.28
8476.00,1.28
8475.00,1.28
8474.00,1.28
8473.00,1.28
8472.00,1.28
8471.00,1.28
8470.00,1.28
8469.00,1.28
8468.00,1.28
8467.00,1.28
8466.00,1.28
8465.00,1.28
8464.00,1.28
8463.00,1.28
8462.00,1.28
8461.00,1.28
8460.00,1.28
8459.00,1.28
8458.00,1.28
8457.00,1.27
8456.00,1.27
8455.00,1.27
8454.00,1.27
8453.00,1.27
8452.00,1.27
8451.00,1.27
8450.00,1.27
8449.00,1.27
8448.00,1.26
8447.00,1.26
8446.00,1.26
8445.00,1.26
8444.00,1.26
8443.00,1.26
8442.00,1.26
8441.00,1.26
8440.00,1.26
8439.00,1.26
8438.00,1.26
8437.00,1.26
8436.00,1.26
8435.00,1.26
8434.00,1.26
8433.00,1.26
8432.00,1.26
8431.00,1.26
8430.00,1.26
8429.00,1.26
8428.00,1.26
8427.00,1.26
8426.00,1.26
8425.00,1.26
8424.00,1.26
8423.00,1.26
8422.00,1.26
8421.00,1.26
8420.00,1.26
8419.00,1.26
8418.00,1.26
8417.00,1.27
8416.00,1.27
8415.00,1.27
8414.00,1.27
8413.00,1.27
8412.00,1.27
8411.00,1.27
8410.00,1.27
8409.00,1.27
8408.00,1.27
8407.00,1.27
8406.00,1.27
8405.00,1.27
8404.00,1.27
8403.00,1.27
8402.00,1.28
8401.00,1.28
8400.00,1.28
8399.00,1.28
8398.00,1.28
8397.00,1.29
8396.00,1.29
8395.00,1.29
8394.00,1.29
8393.00,1.30
8392.00,1.30
8391.00,1.30
8390.00,1.30
8389.00,1.30
8388.00,1.30
8387.00,1.31
8386.00,1.31
8385.00,1.31
8384.00,1.31
8383.00,1.31
8382.00,1.31
8381.00,1.31
8380.00,1.31
8379.00,1.30
8378.00,1.30
8377.00,1.30
8376.00,1.30
8375.00,1.30
8374.00,1.30
8373.00,1.30
8372.00,1.30
8371.00,1.30
8370.00,1.30
8369.00,1.30
8368.00,1.30
8367.00,1.30
8366.00,1.30
8365.00,1.30
8364.00,1.30
8363.00,1.30
8362.00,1.30
8361.00,1.30
8360.00,1.30
8359.00,1.30
8358.00,1.30
8357.00,1.30
8356.00,1.30
8355.00,1.30
8354.00,1.30
8353.00,1.30
8352.00,1.30
8351.00,1.30
8350.00,1.30
8349.00,1.31
8348.00,1.31
8347.00,1.31
8346.00,1.31
8345.00,1.31
8344.00,1.32
8343.00,1.32
8342.00,1.32
8341.00,1.32
8340.00,1.32
8339.00,1.32
8338.00,1.32
8337.00,1.32
8336.00,1.32
8335.00,1.32
8334.00,1.32
8333.00,1.32
8332.00,1.32
8331.00,1.31
8330.00,1.31
8329.00,1.31
8328.00,1.31
8327.00,1.31
8326.00,1.31
8325.00,1.30
8324.00,1.30
8323.00,1.30
8322.00,1.30
8321.00,1.30
8320.00,1.30
8319.00,1.30
8318.00,1.30
8317.00,1.30
8316.00,1.30
8315.00,1.30
8314.00,1.30
8313.00,1.30
8312.00,1.30
8311.00,1.30
8310.00,1.30
8309.00,1.31
8308.00,1.31
8307.00,1.31
8306.00,1.31
8305.00,1.31
8304.00,1.31
8303.00,1.31
8302.00,1.31
8301.00,1.31
8300.00,1.31
8299.00,1.31
8298.00,1.31
8297.00,1.31
8296.00,1.31
8295.00,1.31
8294.00,1.31
8293.00,1.31
8292.00,1.31
8291.00,1.31
8290.00,1.32
8289.00,1.32
8288.00,1.32
8287.00,1.32
8286.00,1.32
8285.00,1.32
8284.00,1.32
8283.00,1.32
8282.00,1.32
8281.00,1.33
8280.00,1.33
8279.00,1.33
8278.00,1.33
8277.00,1.33
8276.00,1.33
8275.00,1.33
8274.00,1.33
8273.00,1.33
8272.00,1.33
8271.00,1.33
8270.00,1.33
8269.00,1.33
8268.00,1.33
8267.00,1.33
8266.00,1.33
8265.00,1.33
8264.00,1.33
8263.00,1.33
8262.00,1.33
8261.00,1.33
8260.00,1.33
8259.00,1.33
8258.00,1.33
8257.00,1.33
8256.00,1.33
8255.00,1.33
8254.00,1.33
8253.00,1.33
8252.00,1.33
8251.00,1.34
8250.00,1.34
8249.00,1.34
8248.00,1.34
8247.00,1.34
8246.00,1.34
8245.00,1.34
8244.00,1.34
8243.00,1.34
8242.00,1.34
8241.00,1.34
8240.00,1.34
8239.00,1.34
8238.00,1.34
8237.00,1.34
8236.00,1.34
8235.00,1.34
8234.00,1.34
8233.00,1.34
8232.00,1.34
8231.00,1.34
8230.00,1.34
8229.00,1.34
8228.00,1.34
8227.00,1.34
8226.00,1.34
8225.00,1.34
8224.00,1.34
8223.00,1.34
8222.00,1.34
8221.00,1.34
8220.00,1.34
8219.00,1.34
8218.00,1.34
8217.00,1.34
8216.00,1.35
8215.00,1.35
8214.00,1.35
8213.00,1.35
8212.00,1.35
8211.00,1.35
8210.00,1.36
8209.00,1.36
8208.00,1.36
8207.00,1.36
8206.00,1.36
8205.00,1.36
8204.00,1.36
8203.00,1.36
8202.00,1.37
8201.00,1.37
8200.00,1.37
8199.00,1.37
8198.00,1.37
8197.00,1.37
8196.00,1.36
8195.00,1.36
8194.00,1.36
8193.00,1.36
8192.00,1.36
8191.00,1.36
8190.00,1.36
8189.00,1.36
8188.00,1.36
8187.00,1.36
8186.00,1.36
8185.00,1.36
8184.00,1.36
8183.00,1.36
8182.00,1.36
8181.00,1.36
8180.00,1.36
8179.00,1.37
8178.00,1.37
8177.00,1.37
8176.00,1.37
8175.00,1.37
8174.00,1.37
8173.00,1.37
8172.00,1.37
8171.00,1.37
8170.00,1.37
8169.00,1.37
8168.00,1.37
8167.00,1.37
8166.00,1.38
8165.00,1.38
8164.00,1.38
8163.00,1.38
8162.00,1.38
8161.00,1.38
8160.00,1.38
8159.00,1.38
8158.00,1.38
8157.00,1.38
8156.00,1.38
8155.00,1.38
8154.00,1.38
8153.00,1.38
8152.00,1.38
8151.00,1.37
8150.00,1.37
8149.00,1.37
8148.00,1.37
8147.00,1.37
8146.00,1.37
8145.00,1.37
8144.00,1.37
8143.00,1.37
8142.00,1.37
8141.00,1.37
8140.00,1.37
8139.00,1.37
8138.00,1.37
8137.00,1.37
8136.00,1.37
8135.00,1.38
8134.00,1.38
8133.00,1.38
8132.00,1.38
8131.00,1.38
8130.00,1.38
8129.00,1.38
8128.00,1.38
8127.00,1.39
8126.00,1.39
8125.00,1.39
8124.00,1.39
8123.00,1.39
8122.00,1.39
8121.00,1.40
8120.00,1.40
8119.00,1.40
8118.00,1.40
8117.00,1.40
8116.00,1.40
8115.00,1.40
8114.00,1.40
8113.00,1.40
8112.00,1.40
8111.00,1.40
8110.00,1.40
8109.00,1.40
8108.00,1.40
8107.00,1.40
8106.00,1.40
8105.00,1.40
8104.00,1.40
8103.00,1.40
8102.00,1.40
8101.00,1.40
8100.00,1.40
8099.00,1.40
8098.00,1.40
8097.00,1.40
8096.00,1.40
8095.00,1.40
8094.00,1.40
8093.00,1.40
8092.00,1.40
8091.00,1.40
8090.00,1.40
8089.00,1.40
8088.00,1.40
8087.00,1.40
8086.00,1.40
8085.00,1.41
8084.00,1.41
8083.00,1.41
8082.00,1.41
8081.00,1.41
8080.00,1.41
8079.00,1.41
8078.00,1.41
8077.00,1.41
8076.00,1.41
8075.00,1.41
8074.00,1.41
8073.00,1.41
8072.00,1.41
8071.00,1.41
8070.00,1.41
8069.00,1.41
8068.00,1.41
8067.00,1.41
8066.00,1.41
8065.00,1.41
8064.00,1.41
8063.00,1.41
8062.00,1.41
8061.00,1.41
8060.00,1.41
8059.00,1.41
8058.00,1.41
8057.00,1.41
8056.00,1.41
8055.00,1.41
8054.00,1.41
8053.00,1.41
8052.00,1.41
8051.00,1.41
8050.00,1.41
8049.00,1.41
8048.00,1.41
8047.00,1.41
8046.00,1.41
8045.00,1.41
8044.00,1.41
8043.00,1.42
8042.00,1.42
8041.00,1.42
8040.00,1.42
8039.00,1.42
8038.00,1.42
8037.00,1.42
8036.00,1.42
8035.00,1.42
8034.00,1.42
8033.00,1.42
8032.00,1.42
8031.00,1.42
8030.00,1.42
8029.00,1.43
8028.00,1.43
8027.00,1.43
8026.00,1.43
8025.00,1.43
8024.00,1.43
8023.00,1.43
8022.00,1.43
8021.00,1.43
8020.00,1.43
8019.00,1.43
8018.00,1.43
8017.00,1.43
8016.00,1.43
8015.00,1.42
8014.00,1.42
8013.00,1.42
8012.00,1.42
8011.00,1.42
8010.00,1.42
8009.00,1.42
8008.00,1.42
8007.00,1.42
8006.00,1.42
8005.00,1.42
8004.00,1.42
8003.00,1.42
8002.00,1.42
8001.00,1.42
8000.00,1.42
7999.00,1.42
7998.00,1.42
7997.00,1.42
7996.00,1.42
7995.00,1.42
7994.00,1.42
7993.00,1.42
7992.00,1.42
7991.00,1.43
7990.00,1.43
7989.00,1.43
7988.00,1.43
7987.00,1.43
7986.00,1.43
7985.00,1.43
7984.00,1.43
7983.00,1.44
7982.00,1.44
7981.00,1.44
7980.00,1.44
7979.00,1.44
7978.00,1.44
7977.00,1.44
7976.00,1.44
7975.00,1.44
7974.00,1.45
7973.00,1.45
7972.00,1.45
7971.00,1.45
7970.00,1.45
7969.00,1.45
7968.00,1.45
7967.00,1.45
7966.00,1.45
7965.00,1.45
7964.00,1.45
7963.00,1.45
7962.00,1.44
7961.00,1.44
7960.00,1.44
7959.00,1.44
7958.00,1.44
7957.00,1.44
7956.00,1.44
7955.00,1.44
7954.00,1.44
7953.00,1.44
7952.00,1.43
7951.00,1.43
7950.00,1.43
7949.00,1.43
7948.00,1.43
7947.00,1.43
7946.00,1.43
7945.00,1.43
7944.00,1.43
7943.00,1.43
7942.00,1.43
7941.00,1.43
7940.00,1.43
7939.00,1.43
7938.00,1.43
7937.00,1.43
7936.00,1.44
7935.00,1.44
7934.00,1.44
7933.00,1.44
7932.00,1.44
7931.00,1.44
7930.00,1.44
7929.00,1.45
7928.00,1.45
7927.00,1.45
7926.00,1.45
7925.00,1.45
7924.00,1.45
7923.00,1.45
7922.00,1.45
7921.00,1.45
7920.00,1.45
7919.00,1.45
7918.00,1.45
7917.00,1.45
7916.00,1.45
7915.00,1.45
7914.00,1.45
7913.00,1.45
7912.00,1.45
7911.00,1.45
7910.00,1.45
7909.00,1.45
7908.00,1.45
7907.00,1.45
7906.00,1.45
7905.00,1.44
7904.00,1.44
7903.00,1.44
7902.00,1.44
7901.00,1.44
7900.00,1.44
7899.00,1.44
7898.00,1.44
7897.00,1.44
7896.00,1.44
7895.00,1.44
7894.00,1.44
7893.00,1.44
7892.00,1.44
7891.00,1.44
7890.00,1.44
7889.00,1.44
7888.00,1.44
7887.00,1.44
7886.00,1.45
7885.00,1.45
7884.00,1.45
7883.00,1.45
7882.00,1.45
7881.00,1.45
7880.00,1.45
7879.00,1.45
7878.00,1.45
7877.00,1.45
7876.00,1.45
7875.00,1.45
7874.00,1.45
7873.00,1.45
7872.00,1.45
7871.00,1.45
7870.00,1.45
7869.00,1.45
7868.00,1.45
7867.00,1.45
7866.00,1.45
7865.00,1.45
7864.00,1.45
7863.00,1.45
7862.00,1.45
7861.00,1.45
7860.00,1.45
7859.00,1.45
7858.00,1.45
7857.00,1.46
7856.00,1.46
7855.00,1.46
7854.00,1.46
7853.00,1.46
7852.00,1.46
7851.00,1.46
7850.00,1.46
7849.00,1.46
7848.00,1.46
7847.00,1.46
7846.00,1.46
7845.00,1.46
7844.00,1.46
7843.00,1.46
7842.00,1.46
7841.00,1.46
7840.00,1.46
7839.00,1.46
7838.00,1.46
7837.00,1.46
7836.00,1.46
7835.00,1.46
7834.00,1.46
7833.00,1.45
7832.00,1.46
7831.00,1.46
7830.00,1.46
7829.00,1.46
7828.00,1.46
7827.00,1.46
7826.00,1.46
7825.00,1.46
7824.00,1.46
7823.00,1.46
7822.00,1.46
7821.00,1.46
7820.00,1.46
7819.00,1.46
7818.00,1.46
7817.00,1.46
7816.00,1.46
7815.00,1.46
7814.00,1.46
7813.00,1.46
7812.00,1.46
7811.00,1.46
7810.00,1.46
7809.00,1.46
7808.00,1.46
7807.00,1.46
7806.00,1.46
7805.00,1.46
7804.00,1.46
7803.00,1.46
7802.00,1.46
7801.00,1.46
7800.00,1.46
7799.00,1.46
7798.00,1.46
7797.00,1.46
7796.00,1.46
7795.00,1.46
7794.00,1.46
7793.00,1.46
7792.00,1.46
7791.00,1.46
7790.00,1.46
7789.00,1.47
7788.00,1.47
7787.00,1.47
7786.00,1.47
7785.00,1.47
7784.00,1.47
7783.00,1.47
7782.00,1.47
7781.00,1.47
7780.00,1.47
7779.00,1.47
7778.00,1.47
7777.00,1.47
7776.00,1.47
7775.00,1.47
7774.00,1.47
7773.00,1.47
7772.00,1.47
7771.00,1.47
7770.00,1.47
7769.00,1.47
7768.00,1.48
7767.00,1.48
7766.00,1.48
7765.00,1.48
7764.00,1.48
7763.00,1.48
7762.00,1.48
7761.00,1.48
7760.00,1.48
7759.00,1.48
7758.00,1.48
7757.00,1.48
7756.00,1.48
7755.00,1.48
7754.00,1.48
7753.00,1.47
7752.00,1.47
7751.00,1.47
7750.00,1.47
7749.00,1.47
7748.00,1.47
7747.00,1.47
7746.00,1.47
7745.00,1.47
7744.00,1.48
7743.00,1.48
7742.00,1.48
7741.00,1.48
7740.00,1.48
7739.00,1.48
7738.00,1.48
7737.00,1.48
7736.00,1.48
7735.00,1.48
7734.00,1.48
7733.00,1.48
7732.00,1.48
7731.00,1.48
7730.00,1.48
7729.00,1.48
7728.00,1.48
7727.00,1.48
7726.00,1.48
7725.00,1.48
7724.00,1.48
7723.00,1.47
7722.00,1.47
7721.00,1.47
7720.00,1.47
7719.00,1.47
7718.00,1.47
7717.00,1.47
7716.00,1.47
7715.00,1.47
7714.00,1.47
7713.00,1.47
7712.00,1.47
7711.00,1.47
7710.00,1.47
7709.00,1.47
7708.00,1.47
7707.00,1.47
7706.00,1.47
7705.00,1.47
7704.00,1.47
7703.00,1.47
7702.00,1.47
7701.00,1.47
7700.00,1.47
7699.00,1.47
7698.00,1.47
7697.00,1.47
7696.00,1.47
7695.00,1.47
7694.00,1.47
7693.00,1.47
7692.00,1.47
7691.00,1.47
7690.00,1.47
7689.00,1.47
7688.00,1.47
7687.00,1.47
7686.00,1.47
7685.00,1.47
7684.00,1.47
7683.00,1.47
7682.00,1.47
7681.00,1.47
7680.00,1.48
7679.00,1.48
7678.00,1.48
7677.00,1.48
7676.00,1.48
7675.00,1.48
7674.00,1.48
7673.00,1.48
7672.00,1.48
7671.00,1.48
7670.00,1.48
7669.00,1.48
7668.00,1.48
7667.00,1.48
7666.00,1.48
7665.00,1.48
7664.00,1.48
7663.00,1.48
7662.00,1.48
7661.00,1.48
7660.00,1.48
7659.00,1.48
7658.00,1.48
7657.00,1.48
7656.00,1.48
7655.00,1.48
7654.00,1.48
7653.00,1.48
7652.00,1.48
7651.00,1.48
7650.00,1.48
7649.00,1.48
7648.00,1.48
7647.00,1.48
7646.00,1.48
7645.00,1.48
7644.00,1.48
7643.00,1.48
7642.00,1.48
7641.00,1.48
7640.00,1.48
7639.00,1.47
7638.00,1.47
7637.00,1.47
7636.00,1.47
7635.00,1.47
7634.00,1.47
7633.00,1.47
7632.00,1.47
7631.00,1.47
7630.00,1.47
7629.00,1.47
7628.00,1.47
7627.00,1.47
7626.00,1.47
7625.00,1.47
7624.00,1.47
7623.00,1.47
7622.00,1.47
7621.00,1.48
7620.00,1.48
7619.00,1.48
7618.00,1.48
7617.00,1.48
7616.00,1.48
7615.00,1.48
7614.00,1.48
7613.00,1.48
7612.00,1.48
7611.00,1.48
7610.00,1.48
7609.00,1.48
7608.00,1.47
7607.00,1.47
7606.00,1.47
7605.00,1.47
7604.00,1.47
7603.00,1.47
7602.00,1.47
7601.00,1.47
7600.00,1.47
7599.00,1.47
7598.00,1.47
7597.00,1.47
7596.00,1.47
7595.00,1.47
7594.00,1.47
7593.00,1.47
7592.00,1.47
7591.00,1.47
7590.00,1.47
7589.00,1.47
7588.00,1.47
7587.00,1.47
7586.00,1.47
7585.00,1.47
7584.00,1.47
7583.00,1.48
7582.00,1.48
7581.00,1.48
7580.00,1.48
7579.00,1.48
7578.00,1.48
7577.00,1.48
7576.00,1.48
7575.00,1.48
7574.00,1.48
7573.00,1.48
7572.00,1.48
7571.00,1.48
7570.00,1.48
7569.00,1.48
7568.00,1.48
7567.00,1.48
7566.00,1.48
7565.00,1.48
7564.00,1.47
7563.00,1.47
7562.00,1.47
7561.00,1.47
7560.00,1.47
7559.00,1.47
7558.00,1.47
7557.00,1.47
7556.00,1.47
7555.00,1.47
7554.00,1.47
7553.00,1.47
7552.00,1.47
7551.00,1.47
7550.00,1.47
7549.00,1.47
7548.00,1.47
7547.00,1.47
7546.00,1.47
7545.00,1.47
7544.00,1.47
7543.00,1.46
7542.00,1.46
7541.00,1.46
7540.00,1.46
7539.00,1.46
7538.00,1.46
7537.00,1.46
7536.00,1.46
7535.00,1.46
7534.00,1.46
7533.00,1.46
7532.00,1.46
7531.00,1.45
7530.00,1.45
7529.00,1.45
7528.00,1.45
7527.00,1.45
7526.00,1.45
7525.00,1.45
7524.00,1.45
7523.00,1.45
7522.00,1.45
7521.00,1.45
7520.00,1.45
7519.00,1.45
7518.00,1.45
7517.00,1.45
7516.00,1.45
7515.00,1.45
7514.00,1.45
7513.00,1.45
7512.00,1.45
7511.00,1.45
7510.00,1.45
7509.00,1.44
7508.00,1.44
7507.00,1.44
7506.00,1.44
7505.00,1.44
7504.00,1.44
7503.00,1.44
7502.00,1.44
7501.00,1.44
7500.00,1.44
7499.00,1.44
7498.00,1.44
7497.00,1.44
7496.00,1.44
7495.00,1.44
7494.00,1.44
7493.00,1.44
7492.00,1.44
7491.00,1.43
7490.00,1.43
7489.00,1.43
7488.00,1.43
7487.00,1.43
7486.00,1.43
7485.00,1.43
7484.00,1.43
7483.00,1.43
7482.00,1.43
7481.00,1.43
7480.00,1.43
7479.00,1.43
7478.00,1.43
7477.00,1.43
7476.00,1.42
7475.00,1.42
7474.00,1.42
7473.00,1.42
7472.00,1.42
7471.00,1.42
7470.00,1.42
7469.00,1.42
7468.00,1.42
7467.00,1.42
7466.00,1.42
7465.00,1.41
7464.00,1.41
7463.00,1.41
7462.00,1.41
7461.00,1.41
7460.00,1.41
7459.00,1.41
7458.00,1.41
7457.00,1.41
7456.00,1.41
7455.00,1.41
7454.00,1.41
7453.00,1.41
7452.00,1.41
7451.00,1.41
7450.00,1.40
7449.00,1.40
7448.00,1.40
7447.00,1.40
7446.00,1.40
7445.00,1.40
7444.00,1.40
7443.00,1.40
7442.00,1.40
7441.00,1.40
7440.00,1.40
7439.00,1.40
7438.00,1.40
7437.00,1.40
7436.00,1.40
7435.00,1.40
7434.00,1.40
7433.00,1.40
7432.00,1.40
7431.00,1.40
7430.00,1.40
7429.00,1.39
7428.00,1.39
7427.00,1.39
7426.00,1.39
7425.00,1.39
7424.00,1.39
7423.00,1.39
7422.00,1.39
7421.00,1.39
7420.00,1.39
7419.00,1.39
7418.00,1.39
7417.00,1.39
7416.00,1.39
7415.00,1.38
7414.00,1.38
7413.00,1.38
7412.00,1.38
7411.00,1.38
7410.00,1.38
7409.00,1.38
7408.00,1.38
7407.00,1.37
7406.00,1.37
7405.00,1.37
7404.00,1.37
7403.00,1.37
7402.00,1.37
7401.00,1.37
7400.00,1.36
7399.00,1.36
7398.00,1.36
7397.00,1.36
7396.00,1.36
7395.00,1.36
7394.00,1.36
7393.00,1.35
7392.00,1.35
7391.00,1.35
7390.00,1.35
7389.00,1.35
7388.00,1.35
7387.00,1.35
7386.00,1.34
7385.00,1.34
7384.00,1.34
7383.00,1.34
7382.00,1.34
7381.00,1.34
7380.00,1.33
7379.00,1.33
7378.00,1.33
7377.00,1.33
7376.00,1.33
7375.00,1.33
7374.00,1.33
7373.00,1.32
7372.00,1.32
7371.00,1.32
7370.00,1.32
7369.00,1.32
7368.00,1.32
7367.00,1.31
7366.00,1.31
7365.00,1.31
7364.00,1.31
7363.00,1.31
7362.00,1.31
7361.00,1.31
7360.00,1.31
7359.00,1.31
7358.00,1.31
7357.00,1.31
7356.00,1.31
7355.00,1.31
7354.00,1.31
7353.00,1.31
7352.00,1.31
7351.00,1.31
7350.00,1.31
7349.00,1.31
7348.00,1.31
7347.00,1.32
7346.00,1.32
7345.00,1.32
7344.00,1.32
7343.00,1.32
7342.00,1.32
7341.00,1.32
7340.00,1.32
7339.00,1.32
7338.00,1.32
7337.00,1.32
7336.00,1.31
7335.00,1.31
7334.00,1.31
7333.00,1.31
7332.00,1.31
7331.00,1.31
7330.00,1.31
7329.00,1.30
7328.00,1.30
7327.00,1.30
7326.00,1.30
7325.00,1.30
7324.00,1.30
7323.00,1.29
7322.00,1.29
7321.00,1.29
7320.00,1.29
7319.00,1.29
7318.00,1.29
7317.00,1.29
7316.00,1.29
7315.00,1.29
7314.00,1.29
7313.00,1.29
7312.00,1.29
7311.00,1.29
7310.00,1.29
7309.00,1.29
7308.00,1.29
7307.00,1.29
7306.00,1.29
7305.00,1.29
7304.00,1.29
7303.00,1.28
7302.00,1.28
7301.00,1.28
7300.00,1.28
7299.00,1.28
7298.00,1.28
7297.00,1.28
7296.00,1.28
7295.00,1.28
7294.00,1.28
7293.00,1.28
7292.00,1.28
7291.00,1.28
7290.00,1.28
7289.00,1.28
7288.00,1.28
7287.00,1.28
7286.00,1.27
7285.00,1.27
7284.00,1.27
7283.00,1.27
7282.00,1.27
7281.00,1.27
7280.00,1.27
7279.00,1.27
7278.00,1.27
7277.00,1.27
7276.00,1.27
7275.00,1.27
7274.00,1.27
7273.00,1.27
7272.00,1.27
7271.00,1.27
7270.00,1.27
7269.00,1.26
7268.00,1.26
7267.00,1.26
7266.00,1.26
7265.00,1.26
7264.00,1.26
7263.00,1.25
7262.00,1.25
7261.00,1.25
7260.00,1.24
7259.00,1.24
7258.00,1.24
7257.00,1.24
7256.00,1.23
7255.00,1.23
7254.00,1.23
7253.00,1.22
7252.00,1.22
7251.00,1.22
7250.00,1.21
7249.00,1.21
7248.00,1.21
7247.00,1.20
7246.00,1.20
7245.00,1.20
7244.00,1.19
7243.00,1.19
7242.00,1.19
7241.00,1.18
7240.00,1.18
7239.00,1.18
7238.00,1.17
7237.00,1.17
7236.00,1.16
7235.00,1.16
7234.00,1.16
7233.00,1.15
7232.00,1.15
7231.00,1.15
7230.00,1.15
7229.00,1.14
7228.00,1.14
7227.00,1.14
7226.00,1.13
7225.00,1.13
7224.00,1.13
7223.00,1.13
7222.00,1.12
7221.00,1.12
7220.00,1.12
7219.00,1.12
7218.00,1.11
7217.00,1.11
7216.00,1.11
7215.00,1.11
7214.00,1.10
7213.00,1.10
7212.00,1.10
7211.00,1.09
7210.00,1.09
7209.00,1.09
7208.00,1.09
7207.00,1.08
7206.00,1.08
7205.00,1.08
7204.00,1.07
7203.00,1.07
7202.00,1.07
7201.00,1.06
7200.00,1.06
7199.00,1.06
7198.00,1.05
7197.00,1.05
7196.00,1.05
7195.00,1.04
7194.00,1.04
7193.00,1.04
7192.00,1.03
7191.00,1.03
7190.00,1.03
7189.00,1.02
7188.00,1.02
7187.00,1.02
7186.00,1.01
7185.00,1.01
7184.00,1.00
7183.00,1.00
7182.00,1.00
7181.00,0.99
7180.00,0.99
7179.00,0.99
7178.00,0.98
7177.00,0.98
7176.00,0.97
7175.00,0.97
7174.00,0.97
7173.00,0.96
7172.00,0.96
7171.00,0.96
7170.00,0.95
7169.00,0.95
7168.00,0.95
7167.00,0.94
7166.00,0.94
7165.00,0.94
7164.00,0.94
7163.00,0.93
7162.00,0.93
7161.00,0.93
7160.00,0.93
7159.00,0.92
7158.00,0.92
7157.00,0.92
7156.00,0.92
7155.00,0.91
7154.00,0.91
7153.00,0.91
7152.00,0.91
7151.00,0.90
7150.00,0.90
7149.00,0.90
7148.00,0.90
7147.00,0.89
7146.00,0.89
7145.00,0.89
7144.00,0.88
7143.00,0.88
7142.00,0.88
7141.00,0.87
7140.00,0.87
7139.00,0.87
7138.00,0.87
7137.00,0.86
7136.00,0.86
7135.00,0.86
7134.00,0.86
7133.00,0.85
7132.00,0.85
7131.00,0.85
7130.00,0.85
7129.00,0.85
7128.00,0.85
7127.00,0.84
7126.00,0.84
7125.00,0.84
7124.00,0.84
7123.00,0.84
7122.00,0.84
7121.00,0.83
7120.00,0.83
7119.00,0.83
7118.00,0.83
7117.00,0.83
7116.00,0.82
7115.00,0.82
7114.00,0.82
7113.00,0.82
7112.00,0.82
7111.00,0.81
7110.00,0.81
7109.00,0.81
7108.00,0.81
7107.00,0.81
7106.00,0.80
7105.00,0.80
7104.00,0.80
7103.00,0.80
7102.00,0.80
7101.00,0.79
7100.00,0.79
7099.00,0.79
7098.00,0.79
7097.00,0.78
7096.00,0.78
7095.00,0.78
7094.00,0.78
7093.00,0.77
7092.00,0.77
7091.00,0.77
7090.00,0.77
7089.00,0.76
7088.00,0.76
7087.00,0.76
7086.00,0.76
7085.00,0.75
7084.00,0.75
7083.00,0.75
7082.00,0.75
7081.00,0.74
7080.00,0.74
7079.00,0.74
7078.00,0.74
7077.00,0.73
7076.00,0.73
7075.00,0.73
7074.00,0.73
7073.00,0.73
7072.00,0.73
7071.00,0.73
7070.00,0.72
7069.00,0.72
7068.00,0.72
7067.00,0.72
7066.00,0.72
7065.00,0.72
7064.00,0.72
7063.00,0.72
7062.00,0.72
7061.00,0.72
7060.00,0.72
7059.00,0.72
7058.00,0.72
7057.00,0.72
7056.00,0.71
7055.00,0.71
7054.00,0.71
7053.00,0.71
7052.00,0.71
7051.00,0.71
7050.00,0.71
7049.00,0.71
7048.00,0.71
7047.00,0.70
7046.00,0.70
7045.00,0.70
7044.00,0.70
7043.00,0.70
7042.00,0.70
7041.00,0.70
7040.00,0.70
7039.00,0.70
7038.00,0.70
7037.00,0.70
7036.00,0.70
7035.00,0.70
7034.00,0.70
7033.00,0.69
7032.00,0.69
7031.00,0.69
7030.00,0.69
7029.00,0.69
7028.00,0.69
7027.00,0.69
7026.00,0.69
7025.00,0.69
7024.00,0.68
7023.00,0.68
7022.00,0.68
7021.00,0.68
7020.00,0.68
7019.00,0.68
7018.00,0.68
7017.00,0.68
7016.00,0.68
7015.00,0.68
7014.00,0.68
7013.00,0.68
7012.00,0.68
7011.00,0.68
7010.00,0.68
7009.00,0.68
7008.00,0.68
7007.00,0.68
7006.00,0.68
7005.00,0.68
7004.00,0.68
7003.00,0.68
7002.00,0.68
7001.00,0.68
7000.00,0.68
6999.00,0.67
6998.00,0.67
6997.00,0.67
6996.00,0.67
6995.00,0.67
6994.00,0.67
6993.00,0.67
6992.00,0.67
6991.00,0.67
6990.00,0.67
6989.00,0.67
6988.00,0.67
6987.00,0.67
6986.00,0.66
6985.00,0.66
6984.00,0.66
6983.00,0.66
6982.00,0.66
6981.00,0.66
6980.00,0.66
6979.00,0.66
6978.00,0.66
6977.00,0.66
6976.00,0.66
6975.00,0.66
6974.00,0.66
6973.00,0.66
6972.00,0.66
6971.00,0.66
6970.00,0.66
6969.00,0.66
6968.00,0.67
6967.00,0.67
6966.00,0.67
6965.00,0.67
6964.00,0.67
6963.00,0.67
6962.00,0.67
6961.00,0.67
6960.00,0.67
6959.00,0.67
6958.00,0.67
6957.00,0.67
6956.00,0.67
6955.00,0.66
6954.00,0.66
6953.00,0.66
6952.00,0.66
6951.00,0.66
6950.00,0.66
6949.00,0.66
6948.00,0.66
6947.00,0.66
6946.00,0.66
6945.00,0.66
6944.00,0.66
6943.00,0.66
6942.00,0.66
6941.00,0.66
6940.00,0.66
6939.00,0.66
6938.00,0.66
6937.00,0.66
6936.00,0.66
6935.00,0.66
6934.00,0.66
6933.00,0.66
6932.00,0.66
6931.00,0.66
6930.00,0.66
6929.00,0.66
6928.00,0.66
6927.00,0.66
6926.00,0.66
6925.00,0.66
6924.00,0.66
6923.00,0.66
6922.00,0.65
6921.00,0.65
6920.00,0.65
6919.00,0.65
6918.00,0.65
6917.00,0.65
6916.00,0.65
6915.00,0.65
6914.00,0.65
6913.00,0.65
6912.00,0.65
6911.00,0.65
6910.00,0.65
6909.00,0.65
6908.00,0.65
6907.00,0.65
6906.00,0.65
6905.00,0.65
6904.00,0.65
6903.00,0.65
6902.00,0.65
6901.00,0.65
6900.00,0.65
6899.00,0.65
6898.00,0.65
6897.00,0.65
6896.00,0.65
6895.00,0.65
6894.00,0.65
6893.00,0.65
6892.00,0.65
6891.00,0.65
6890.00,0.65
6889.00,0.65
6888.00,0.65
6887.00,0.65
6886.00,0.65
6885.00,0.65
6884.00,0.65
6883.00,0.65
6882.00,0.65
6881.00,0.66
6880.00,0.66
6879.00,0.66
6878.00,0.66
6877.00,0.66
6876.00,0.66
6875.00,0.66
6874.00,0.66
6873.00,0.66
6872.00,0.66
6871.00,0.66
6870.00,0.66
6869.00,0.66
6868.00,0.66
6867.00,0.66
6866.00,0.66
6865.00,0.66
6864.00,0.66
6863.00,0.66
6862.00,0.65
6861.00,0.65
6860.00,0.65
6859.00,0.65
6858.00,0.65
6857.00,0.65
6856.00,0.65
6855.00,0.65
6854.00,0.65
6853.00,0.65
6852.00,0.65
6851.00,0.65
6850.00,0.65
6849.00,0.65
6848.00,0.65
6847.00,0.65
6846.00,0.65
6845.00,0.65
6844.00,0.65
6843.00,0.65
6842.00,0.65
6841.00,0.65
6840.00,0.65
6839.00,0.65
6838.00,0.65
6837.00,0.66
6836.00,0.66
6835.00,0.66
6834.00,0.66
6833.00,0.66
6832.00,0.66
6831.00,0.66
6830.00,0.66
6829.00,0.66
6828.00,0.66
6827.00,0.66
6826.00,0.66
6825.00,0.66
6824.00,0.66
6823.00,0.66
6822.00,0.66
6821.00,0.66
6820.00,0.66
6819.00,0.66
6818.00,0.66
6817.00,0.66
6816.00,0.66
6815.00,0.66
6814.00,0.66
6813.00,0.66
6812.00,0.66
6811.00,0.65
6810.00,0.65
6809.00,0.65
6808.00,0.65
6807.00,0.65
6806.00,0.65
6805.00,0.65
6804.00,0.66
6803.00,0.66
6802.00,0.66
6801.00,0.66
6800.00,0.66
6799.00,0.66
6798.00,0.66
6797.00,0.66
6796.00,0.66
6795.00,0.66
6794.00,0.66
6793.00,0.66
6792.00,0.67
6791.00,0.67
6790.00,0.67
6789.00,0.67
6788.00,0.67
6787.00,0.67
6786.00,0.67
6785.00,0.67
6784.00,0.67
6783.00,0.67
6782.00,0.67
6781.00,0.68
6780.00,0.68
6779.00,0.68
6778.00,0.68
6777.00,0.68
6776.00,0.68
6775.00,0.68
6774.00,0.68
6773.00,0.69
6772.00,0.69
6771.00,0.69
6770.00,0.69
6769.00,0.69
6768.00,0.69
6767.00,0.69
6766.00,0.69
6765.00,0.69
6764.00,0.69
6763.00,0.69
6762.00,0.69
6761.00,0.69
6760.00,0.69
6759.00,0.69
6758.00,0.69
6757.00,0.69
6756.00,0.69
6755.00,0.69
6754.00,0.69
6753.00,0.69
6752.00,0.69
6751.00,0.69
6750.00,0.69
6749.00,0.69
6748.00,0.69
6747.00,0.69
6746.00,0.69
6745.00,0.69
6744.00,0.69
6743.00,0.69
6742.00,0.69
6741.00,0.69
6740.00,0.69
6739.00,0.69
6738.00,0.69
6737.00,0.69
6736.00,0.70
6735.00,0.70
6734.00,0.70
6733.00,0.70
6732.00,0.70
6731.00,0.70
6730.00,0.70
6729.00,0.70
6728.00,0.70
6727.00,0.70
6726.00,0.70
6725.00,0.70
6724.00,0.71
6723.00,0.71
6722.00,0.71
6721.00,0.71
6720.00,0.71
6719.00,0.71
6718.00,0.71
6717.00,0.71
6716.00,0.71
6715.00,0.71
6714.00,0.71
6713.00,0.71
6712.00,0.71
6711.00,0.71
6710.00,0.71
6709.00,0.71
6708.00,0.71
6707.00,0.71
6706.00,0.71
6705.00,0.71
6704.00,0.71
6703.00,0.72
6702.00,0.72
6701.00,0.72
6700.00,0.72
6699.00,0.72
6698.00,0.72
6697.00,0.72
6696.00,0.72
6695.00,0.72
6694.00,0.72
6693.00,0.73
6692.00,0.73
6691.00,0.73
6690.00,0.73
6689.00,0.73
6688.00,0.73
6687.00,0.73
6686.00,0.73
6685.00,0.74
6684.00,0.74
6683.00,0.74
6682.00,0.74
6681.00,0.74
6680.00,0.74
6679.00,0.74
6678.00,0.74
6677.00,0.74
6676.00,0.74
6675.00,0.74
6674.00,0.74
6673.00,0.74
6672.00,0.74
6671.00,0.74
6670.00,0.74
6669.00,0.74
6668.00,0.74
6667.00,0.74
6666.00,0.74
6665.00,0.74
6664.00,0.74
6663.00,0.75
6662.00,0.75
6661.00,0.75
6660.00,0.75
6659.00,0.75
6658.00,0.75
6657.00,0.75
6656.00,0.75
6655.00,0.75
6654.00,0.75
6653.00,0.75
6652.00,0.75
6651.00,0.76
6650.00,0.76
6649.00,0.76
6648.00,0.76
6647.00,0.76
6646.00,0.76
6645.00,0.76
6644.00,0.76
6643.00,0.76
6642.00,0.76
6641.00,0.76
6640.00,0.76
6639.00,0.77
6638.00,0.77
6637.00,0.77
6636.00,0.77
6635.00,0.77
6634.00,0.77
6633.00,0.77
6632.00,0.77
6631.00,0.78
6630.00,0.78
6629.00,0.78
6628.00,0.78
6627.00,0.78
6626.00,0.78
6625.00,0.78
6624.00,0.78
6623.00,0.78
6622.00,0.78
6621.00,0.79
6620.00,0.79
6619.00,0.79
6618.00,0.79
6617.00,0.79
6616.00,0.79
6615.00,0.79
6614.00,0.79
6613.00,0.79
6612.00,0.79
6611.00,0.79
6610.00,0.79
6609.00,0.80
6608.00,0.80
6607.00,0.80
6606.00,0.80
6605.00,0.80
6604.00,0.80
6603.00,0.80
6602.00,0.80
6601.00,0.80
6600.00,0.80
6599.00,0.80
6598.00,0.80
6597.00,0.80
6596.00,0.80
6595.00,0.81
6594.00,0.81
6593.00,0.81
6592.00,0.81
6591.00,0.81
6590.00,0.81
6589.00,0.81
6588.00,0.81
6587.00,0.81
6586.00,0.82
6585.00,0.82
6584.00,0.82
6583.00,0.82
6582.00,0.82
6581.00,0.82
6580.00,0.82
6579.00,0.82
6578.00,0.82
6577.00,0.82
6576.00,0.82
6575.00,0.83
6574.00,0.83
6573.00,0.83
6572.00,0.83
6571.00,0.83
6570.00,0.83
6569.00,0.83
6568.00,0.83
6567.00,0.83
6566.00,0.83
6565.00,0.83
6564.00,0.83
6563.00,0.83
6562.00,0.83
6561.00,0.83
6560.00,0.83
6559.00,0.84
6558.00,0.84
6557.00,0.84
6556.00,0.84
6555.00,0.84
6554.00,0.84
6553.00,0.84
6552.00,0.84
6551.00,0.84
6550.00,0.84
6549.00,0.85
6548.00,0.85
6547.00,0.85
6546.00,0.85
6545.00,0.85
6544.00,0.85
6543.00,0.85
6542.00,0.85
6541.00,0.85
6540.00,0.86
6539.00,0.86
6538.00,0.86
6537.00,0.86
6536.00,0.86
6535.00,0.86
6534.00,0.86
6533.00,0.86
6532.00,0.86
6531.00,0.86
6530.00,0.86
6529.00,0.86
6528.00,0.86
6527.00,0.86
6526.00,0.86
6525.00,0.86
6524.00,0.86
6523.00,0.87
6522.00,0.87
6521.00,0.87
6520.00,0.87
6519.00,0.87
6518.00,0.87
6517.00,0.87
6516.00,0.87
6515.00,0.87
6514.00,0.87
6513.00,0.87
6512.00,0.87
6511.00,0.87
6510.00,0.88
6509.00,0.88
6508.00,0.88
6507.00,0.88
6506.00,0.88
6505.00,0.88
6504.00,0.88
6503.00,0.88
6502.00,0.88
6501.00,0.88
6500.00,0.88
6499.00,0.88
6498.00,0.89
6497.00,0.89
6496.00,0.89
6495.00,0.89
6494.00,0.89
6493.00,0.89
6492.00,0.89
6491.00,0.89
6490.00,0.89
6489.00,0.89
6488.00,0.89
6487.00,0.90
6486.00,0.90
6485.00,0.90
6484.00,0.90
6483.00,0.90
6482.00,0.90
6481.00,0.90
6480.00,0.90
6479.00,0.90
6478.00,0.90
6477.00,0.90
6476.00,0.90
6475.00,0.90
6474.00,0.90
6473.00,0.90
6472.00,0.90
6471.00,0.90
6470.00,0.90
6469.00,0.91
6468.00,0.91
6467.00,0.91
6466.00,0.91
6465.00,0.91
6464.00,0.91
6463.00,0.91
6462.00,0.91
6461.00,0.91
6460.00,0.91
6459.00,0.91
6458.00,0.91
6457.00,0.91
6456.00,0.91
6455.00,0.91
6454.00,0.91
6453.00,0.91
6452.00,0.91
6451.00,0.92
6450.00,0.92
6449.00,0.92
6448.00,0.92
6447.00,0.92
6446.00,0.92
6445.00,0.92
6444.00,0.92
6443.00,0.92
6442.00,0.92
6441.00,0.92
6440.00,0.92
6439.00,0.92
6438.00,0.93
6437.00,0.93
6436.00,0.93
6435.00,0.93
6434.00,0.93
6433.00,0.93
6432.00,0.93
6431.00,0.93
6430.00,0.93
6429.00,0.93
6428.00,0.93
6427.00,0.93
6426.00,0.93
6425.00,0.93
6424.00,0.93
6423.00,0.93
6422.00,0.93
6421.00,0.93
6420.00,0.93
6419.00,0.93
6418.00,0.93
6417.00,0.93
6416.00,0.93
6415.00,0.93
6414.00,0.93
6413.00,0.93
6412.00,0.93
6411.00,0.93
6410.00,0.93
6409.00,0.93
6408.00,0.93
6407.00,0.93
6406.00,0.94
6405.00,0.94
6404.00,0.94
6403.00,0.94
6402.00,0.94
6401.00,0.94
6400.00,0.95
6399.00,0.95
6398.00,0.95
6397.00,0.95
6396.00,0.95
6395.00,0.95
6394.00,0.95
6393.00,0.95
6392.00,0.95
6391.00,0.95
6390.00,0.95
6389.00,0.95
6388.00,0.95
6387.00,0.95
6386.00,0.95
6385.00,0.95
6384.00,0.95
6383.00,0.95
6382.00,0.95
6381.00,0.95
6380.00,0.95
6379.00,0.95
6378.00,0.95
6377.00,0.95
6376.00,0.95
6375.00,0.95
6374.00,0.95
6373.00,0.96
6372.00,0.96
6371.00,0.96
6370.00,0.96
6369.00,0.96
6368.00,0.96
6367.00,0.96
6366.00,0.96
6365.00,0.96
6364.00,0.96
6363.00,0.96
6362.00,0.96
6361.00,0.96
6360.00,0.96
6359.00,0.96
6358.00,0.96
6357.00,0.96
6356.00,0.97
6355.00,0.97
6354.00,0.97
6353.00,0.97
6352.00,0.97
6351.00,0.97
6350.00,0.98
6349.00,0.98
6348.00,0.98
6347.00,0.98
6346.00,0.98
6345.00,0.98
6344.00,0.98
6343.00,0.99
6342.00,0.99
6341.00,0.99
6340.00,0.99
6339.00,0.99
6338.00,0.99
6337.00,0.99
6336.00,0.99
6335.00,0.99
6334.00,0.99
6333.00,0.99
6332.00,0.99
6331.00,0.99
6330.00,1.00
6329.00,1.00
6328.00,1.00
6327.00,1.00
6326.00,1.00
6325.00,1.00
6324.00,1.00
6323.00,1.00
6322.00,1.00
6321.00,1.00
6320.00,1.00
6319.00,1.00
6318.00,1.00
6317.00,1.00
6316.00,1.00
6315.00,1.00
6314.00,1.01
6313.00,1.01
6312.00,1.01
6311.00,1.01
6310.00,1.01
6309.00,1.01
6308.00,1.01
6307.00,1.01
6306.00,1.02
6305.00,1.02
6304.00,1.02
6303.00,1.02
6302.00,1.02
6301.00,1.02
6300.00,1.02
6299.00,1.03
6298.00,1.03
6297.00,1.03
6296.00,1.03
6295.00,1.03
6294.00,1.03
6293.00,1.03
6292.00,1.04
6291.00,1.04
6290.00,1.04
6289.00,1.04
6288.00,1.04
6287.00,1.04
6286.00,1.04
6285.00,1.04
6284.00,1.04
6283.00,1.05
6282.00,1.05
6281.00,1.05
6280.00,1.05
6279.00,1.05
6278.00,1.05
6277.00,1.05
6276.00,1.05
6275.00,1.05
6274.00,1.05
6273.00,1.05
6272.00,1.05
6271.00,1.05
6270.00,1.06
6269.00,1.06
6268.00,1.06
6267.00,1.06
6266.00,1.06
6265.00,1.06
6264.00,1.07
6263.00,1.07
6262.00,1.07
6261.00,1.07
6260.00,1.07
6259.00,1.07
6258.00,1.08
6257.00,1.08
6256.00,1.08
6255.00,1.08
6254.00,1.08
6253.00,1.08
6252.00,1.08
6251.00,1.08
6250.00,1.09
6249.00,1.09
6248.00,1.09
6247.00,1.09
6246.00,1.09
6245.00,1.09
6244.00,1.09
6243.00,1.09
6242.00,1.10
6241.00,1.10
6240.00,1.10
6239.00,1.10
6238.00,1.10
6237.00,1.10
6236.00,1.11
6235.00,1.11
6234.00,1.11
6233.00,1.11
6232.00,1.11
6231.00,1.11
6230.00,1.12
6229.00,1.12
6228.00,1.12
6227.00,1.12
6226.00,1.12
6225.00,1.12
6224.00,1.12
6223.00,1.12
6222.00,1.13
6221.00,1.13
6220.00,1.13
6219.00,1.13
6218.00,1.13
6217.00,1.13
6216.00,1.13
6215.00,1.13
6214.00,1.14
6213.00,1.14
6212.00,1.14
6211.00,1.14
6210.00,1.14
6209.00,1.14
6208.00,1.14
6207.00,1.14
6206.00,1.14
6205.00,1.15
6204.00,1.15
6203.00,1.15
6202.00,1.15
6201.00,1.15
6200.00,1.15
6199.00,1.15
6198.00,1.15
6197.00,1.15
6196.00,1.16
6195.00,1.16
6194.00,1.16
6193.00,1.16
6192.00,1.16
6191.00,1.16
6190.00,1.16
6189.00,1.16
6188.00,1.16
6187.00,1.17
6186.00,1.17
6185.00,1.17
6184.00,1.17
6183.00,1.17
6182.00,1.17
6181.00,1.17
6180.00,1.18
6179.00,1.18
6178.00,1.18
6177.00,1.18
6176.00,1.18
6175.00,1.19
6174.00,1.19
6173.00,1.19
6172.00,1.19
6171.00,1.19
6170.00,1.20
6169.00,1.20
6168.00,1.20
6167.00,1.20
6166.00,1.20
6165.00,1.21
6164.00,1.21
6163.00,1.21
6162.00,1.21
6161.00,1.21
6160.00,1.21
6159.00,1.21
6158.00,1.21
6157.00,1.21
6156.00,1.21
6155.00,1.21
6154.00,1.22
6153.00,1.22
6152.00,1.22
6151.00,1.22
6150.00,1.22
6149.00,1.22
6148.00,1.22
6147.00,1.22
6146.00,1.22
6145.00,1.23
6144.00,1.23
6143.00,1.23
6142.00,1.23
6141.00,1.23
6140.00,1.23
6139.00,1.24
6138.00,1.24
6137.00,1.24
6136.00,1.24
6135.00,1.24
6134.00,1.25
6133.00,1.25
6132.00,1.25
6131.00,1.25
6130.00,1.25
6129.00,1.25
6128.00,1.26
6127.00,1.26
6126.00,1.26
6125.00,1.26
6124.00,1.26
6123.00,1.26
6122.00,1.26
6121.00,1.26
6120.00,1.26
6119.00,1.26
6118.00,1.26
6117.00,1.26
6116.00,1.26
6115.00,1.27
6114.00,1.27
6113.00,1.27
6112.00,1.27
6111.00,1.27
6110.00,1.27
6109.00,1.27
6108.00,1.27
6107.00,1.27
6106.00,1.27
6105.00,1.28
6104.00,1.28
6103.00,1.28
6102.00,1.28
6101.00,1.28
6100.00,1.28
6099.00,1.29
6098.00,1.29
6097.00,1.29
6096.00,1.29
6095.00,1.29
6094.00,1.30
6093.00,1.30
6092.00,1.30
6091.00,1.30
6090.00,1.30
6089.00,1.31
6088.00,1.31
6087.00,1.31
6086.00,1.31
6085.00,1.31
6084.00,1.32
6083.00,1.32
6082.00,1.32
6081.00,1.32
6080.00,1.32
6079.00,1.33
6078.00,1.33
6077.00,1.33
6076.00,1.33
6075.00,1.33
6074.00,1.33
6073.00,1.34
6072.00,1.34
6071.00,1.34
6070.00,1.34
6069.00,1.34
6068.00,1.34
6067.00,1.34
6066.00,1.34
6065.00,1.34
6064.00,1.34
6063.00,1.34
6062.00,1.34
6061.00,1.34
6060.00,1.34
6059.00,1.34
6058.00,1.35
6057.00,1.35
6056.00,1.35
6055.00,1.35
6054.00,1.35
6053.00,1.35
6052.00,1.35
6051.00,1.35
6050.00,1.35
6049.00,1.35
6048.00,1.35
6047.00,1.35
6046.00,1.36
6045.00,1.36
6044.00,1.36
6043.00,1.36
6042.00,1.36
6041.00,1.36
6040.00,1.36
6039.00,1.36
6038.00,1.37
6037.00,1.37
6036.00,1.37
6035.00,1.37
6034.00,1.37
6033.00,1.37
6032.00,1.37
6031.00,1.37
6030.00,1.37
6029.00,1.37
6028.00,1.37
6027.00,1.37
6026.00,1.37
6025.00,1.38
6024.00,1.38
6023.00,1.38
6022.00,1.38
6021.00,1.38
6020.00,1.38
6019.00,1.38
6018.00,1.38
6017.00,1.38
6016.00,1.38
6015.00,1.38
6014.00,1.38
6013.00,1.38
6012.00,1.38
6011.00,1.38
6010.00,1.38
6009.00,1.38
6008.00,1.38
6007.00,1.38
6006.00,1.38
6005.00,1.38
6004.00,1.38
6003.00,1.37
6002.00,1.37
6001.00,1.37
6000.00,1.37
5999.00,1.37
5998.00,1.37
5997.00,1.37
5996.00,1.37
5995.00,1.37
5994.00,1.37
5993.00,1.37
5992.00,1.36
5991.00,1.36
5990.00,1.36
5989.00,1.36
5988.00,1.35
5987.00,1.35
5986.00,1.35
5985.00,1.35
5984.00,1.34
5983.00,1.34
5982.00,1.33
5981.00,1.33
5980.00,1.33
5979.00,1.32
5978.00,1.32
5977.00,1.31
5976.00,1.31
5975.00,1.30
5974.00,1.30
5973.00,1.29
5972.00,1.29
5971.00,1.28
5970.00,1.28
5969.00,1.27
5968.00,1.26
5967.00,1.26
5966.00,1.25
5965.00,1.24
5964.00,1.24
5963.00,1.23
5962.00,1.22
5961.00,1.22
5960.00,1.21
5959.00,1.20
5958.00,1.20
5957.00,1.19
5956.00,1.18
5955.00,1.18
5954.00,1.17
5953.00,1.16
5952.00,1.16
5951.00,1.15
5950.00,1.14
5949.00,1.14
5948.00,1.13
5947.00,1.13
5946.00,1.12
5945.00,1.12
5944.00,1.12
5943.00,1.11
5942.00,1.11
5941.00,1.11
5940.00,1.11
5939.00,1.11
5938.00,1.10
5937.00,1.10
5936.00,1.10
5935.00,1.10
5934.00,1.10
5933.00,1.10
5932.00,1.10
5931.00,1.10
5930.00,1.10
5929.00,1.10
5928.00,1.10
5927.00,1.10
5926.00,1.10
5925.00,1.10
5924.00,1.10
5923.00,1.09
5922.00,1.09
5921.00,1.09
5920.00,1.09
5919.00,1.08
5918.00,1.08
5917.00,1.08
5916.00,1.08
5915.00,1.07
5914.00,1.07
5913.00,1.07
5912.00,1.07
5911.00,1.07
5910.00,1.06
5909.00,1.06
5908.00,1.06
5907.00,1.06
5906.00,1.06
5905.00,1.06
5904.00,1.06
5903.00,1.05
5902.00,1.05
5901.00,1.05
5900.00,1.05
5899.00,1.05
5898.00,1.05
5897.00,1.06
5896.00,1.06
5895.00,1.06
5894.00,1.06
5893.00,1.06
5892.00,1.06
5891.00,1.06
5890.00,1.07
5889.00,1.07
5888.00,1.07
5887.00,1.07
5886.00,1.08
5885.00,1.08
5884.00,1.08
5883.00,1.08
5882.00,1.09
5881.00,1.09
5880.00,1.09
5879.00,1.10
5878.00,1.10
5877.00,1.10
5876.00,1.10
5875.00,1.11
5874.00,1.11
5873.00,1.11
5872.00,1.11
5871.00,1.11
5870.00,1.12
5869.00,1.12
5868.00,1.12
5867.00,1.12
5866.00,1.12
5865.00,1.12
5864.00,1.13
5863.00,1.13
5862.00,1.13
5861.00,1.13
5860.00,1.13
5859.00,1.14
5858.00,1.14
5857.00,1.14
5856.00,1.14
5855.00,1.14
5854.00,1.14
5853.00,1.15
5852.00,1.15
5851.00,1.15
5850.00,1.15
5849.00,1.15
5848.00,1.15
5847.00,1.15
5846.00,1.15
5845.00,1.15
5844.00,1.15
5843.00,1.15
5842.00,1.15
5841.00,1.15
5840.00,1.15
5839.00,1.15
5838.00,1.15
5837.00,1.15
5836.00,1.15
5835.00,1.15
5834.00,1.15
5833.00,1.15
5832.00,1.15
5831.00,1.15
5830.00,1.15
5829.00,1.15
5828.00,1.15
5827.00,1.15
5826.00,1.15
5825.00,1.15
5824.00,1.15
5823.00,1.15
5822.00,1.15
5821.00,1.15
5820.00,1.15
5819.00,1.15
5818.00,1.15
5817.00,1.16
5816.00,1.16
5815.00,1.16
5814.00,1.16
5813.00,1.16
5812.00,1.16
5811.00,1.16
5810.00,1.16
5809.00,1.16
5808.00,1.16
5807.00,1.16
5806.00,1.16
5805.00,1.16
5804.00,1.16
5803.00,1.16
5802.00,1.16
5801.00,1.16
5800.00,1.16
5799.00,1.15
5798.00,1.15
5797.00,1.15
5796.00,1.15
5795.00,1.15
5794.00,1.15
5793.00,1.14
5792.00,1.14
5791.00,1.14
5790.00,1.14
5789.00,1.14
5788.00,1.13
5787.00,1.13
5786.00,1.13
5785.00,1.13
5784.00,1.12
5783.00,1.12
5782.00,1.12
5781.00,1.12
5780.00,1.12
5779.00,1.11
5778.00,1.11
5777.00,1.11
5776.00,1.11
5775.00,1.11
5774.00,1.11
5773.00,1.11
5772.00,1.11
5771.00,1.11
5770.00,1.11
5769.00,1.11
5768.00,1.11
5767.00,1.11
5766.00,1.11
5765.00,1.11
5764.00,1.12
5763.00,1.12
5762.00,1.12
5761.00,1.12
5760.00,1.13
5759.00,1.13
5758.00,1.13
5757.00,1.13
5756.00,1.14
5755.00,1.14
5754.00,1.14
5753.00,1.15
5752.00,1.15
5751.00,1.15
5750.00,1.16
5749.00,1.16
5748.00,1.16
5747.00,1.16
5746.00,1.17
5745.00,1.17
5744.00,1.17
5743.00,1.18
5742.00,1.18
5741.00,1.18
5740.00,1.19
5739.00,1.19
5738.00,1.19
5737.00,1.19
5736.00,1.20
5735.00,1.20
5734.00,1.20
5733.00,1.20
5732.00,1.20
5731.00,1.21
5730.00,1.21
5729.00,1.21
5728.00,1.21
5727.00,1.21
5726.00,1.21
5725.00,1.21
5724.00,1.21
5723.00,1.22
5722.00,1.22
5721.00,1.22
5720.00,1.22
5719.00,1.22
5718.00,1.22
5717.00,1.22
5716.00,1.22
5715.00,1.22
5714.00,1.22
5713.00,1.22
5712.00,1.22
5711.00,1.22
5710.00,1.22
5709.00,1.22
5708.00,1.22
5707.00,1.22
5706.00,1.22
5705.00,1.22
5704.00,1.22
5703.00,1.22
5702.00,1.21
5701.00,1.21
5700.00,1.21
5699.00,1.21
5698.00,1.21
5697.00,1.21
5696.00,1.20
5695.00,1.20
5694.00,1.20
5693.00,1.20
5692.00,1.20
5691.00,1.19
5690.00,1.19
5689.00,1.19
5688.00,1.19
5687.00,1.19
5686.00,1.19
5685.00,1.19
5684.00,1.19
5683.00,1.18
5682.00,1.18
5681.00,1.18
5680.00,1.18
5679.00,1.18
5678.00,1.18
5677.00,1.18
5676.00,1.18
5675.00,1.18
5674.00,1.18
5673.00,1.18
5672.00,1.18
5671.00,1.18
5670.00,1.18
5669.00,1.18
5668.00,1.19
5667.00,1.19
5666.00,1.19
5665.00,1.19
5664.00,1.19
5663.00,1.19
5662.00,1.19
5661.00,1.19
5660.00,1.20
5659.00,1.20
5658.00,1.20
5657.00,1.20
5656.00,1.20
5655.00,1.21
5654.00,1.21
5653.00,1.21
5652.00,1.21
5651.00,1.21
5650.00,1.22
5649.00,1.22
5648.00,1.22
5647.00,1.22
5646.00,1.22
5645.00,1.22
5644.00,1.23
5643.00,1.23
5642.00,1.23
5641.00,1.23
5640.00,1.23
5639.00,1.24
5638.00,1.24
5637.00,1.24
5636.00,1.24
5635.00,1.24
5634.00,1.25
5633.00,1.25
5632.00,1.25
5631.00,1.25
5630.00,1.25
5629.00,1.26
5628.00,1.26
5627.00,1.26
5626.00,1.26
5625.00,1.26
5624.00,1.26
5623.00,1.27
5622.00,1.27
5621.00,1.27
5620.00,1.27
5619.00,1.27
5618.00,1.27
5617.00,1.28
5616.00,1.28
5615.00,1.28
5614.00,1.28
5613.00,1.28
5612.00,1.28
5611.00,1.29
5610.00,1.29
5609.00,1.29
5608.00,1.29
5607.00,1.29
5606.00,1.29
5605.00,1.30
5604.00,1.30
5603.00,1.30
5602.00,1.30
5601.00,1.30
5600.00,1.31
5599.00,1.31
5598.00,1.31
5597.00,1.31
5596.00,1.32
5595.00,1.32
5594.00,1.32
5593.00,1.32
5592.00,1.32
5591.00,1.33
5590.00,1.33
5589.00,1.33
5588.00,1.33
5587.00,1.33
5586.00,1.33
5585.00,1.34
5584.00,1.34
5583.00,1.34
5582.00,1.34
5581.00,1.34
5580.00,1.34
5579.00,1.34
5578.00,1.34
5577.00,1.34
5576.00,1.35
5575.00,1.35
5574.00,1.35
5573.00,1.35
5572.00,1.35
5571.00,1.35
5570.00,1.35
5569.00,1.35
5568.00,1.36
5567.00,1.36
5566.00,1.36
5565.00,1.36
5564.00,1.36
5563.00,1.36
5562.00,1.36
5561.00,1.37
5560.00,1.37
5559.00,1.37
5558.00,1.37
5557.00,1.37
5556.00,1.37
5555.00,1.37
5554.00,1.37
5553.00,1.38
5552.00,1.38
5551.00,1.38
5550.00,1.38
5549.00,1.38
5548.00,1.38
5547.00,1.38
5546.00,1.38
5545.00,1.39
5544.00,1.39
5543.00,1.39
5542.00,1.39
5541.00,1.39
5540.00,1.39
5539.00,1.39
5538.00,1.39
5537.00,1.40
5536.00,1.40
5535.00,1.40
5534.00,1.40
5533.00,1.40
5532.00,1.40
5531.00,1.40
5530.00,1.40
5529.00,1.41
5528.00,1.41
5527.00,1.41
5526.00,1.41
5525.00,1.41
5524.00,1.41
5523.00,1.41
5522.00,1.41
5521.00,1.41
5520.00,1.41
5519.00,1.42
5518.00,1.42
5517.00,1.42
5516.00,1.42
5515.00,1.42
5514.00,1.42
5513.00,1.42
5512.00,1.42
5511.00,1.42
5510.00,1.42
5509.00,1.42
5508.00,1.42
5507.00,1.42
5506.00,1.42
5505.00,1.42
5504.00,1.42
5503.00,1.42
5502.00,1.42
5501.00,1.42
5500.00,1.42
5499.00,1.42
5498.00,1.42
5497.00,1.43
5496.00,1.43
5495.00,1.43
5494.00,1.43
5493.00,1.43
5492.00,1.43
5491.00,1.43
5490.00,1.43
5489.00,1.43
5488.00,1.43
5487.00,1.44
5486.00,1.44
5485.00,1.44
5484.00,1.44
5483.00,1.44
5482.00,1.44
5481.00,1.44
5480.00,1.45
5479.00,1.45
5478.00,1.45
5477.00,1.45
5476.00,1.45
5475.00,1.45
5474.00,1.45
5473.00,1.46
5472.00,1.46
5471.00,1.46
5470.00,1.46
5469.00,1.46
5468.00,1.46
5467.00,1.46
5466.00,1.46
5465.00,1.47
5464.00,1.47
5463.00,1.47
5462.00,1.47
5461.00,1.47
5460.00,1.47
5459.00,1.47
5458.00,1.47
5457.00,1.47
5456.00,1.47
5455.00,1.47
5454.00,1.47
5453.00,1.47
5452.00,1.48
5451.00,1.48
5450.00,1.48
5449.00,1.48
5448.00,1.48
5447.00,1.48
5446.00,1.48
5445.00,1.48
5444.00,1.48
5443.00,1.48
5442.00,1.48
5441.00,1.48
5440.00,1.48
5439.00,1.48
5438.00,1.48
5437.00,1.48
5436.00,1.48
5435.00,1.48
5434.00,1.48
5433.00,1.48
5432.00,1.48
5431.00,1.48
5430.00,1.48
5429.00,1.48
5428.00,1.48
5427.00,1.48
5426.00,1.48
5425.00,1.48
5424.00,1.48
5423.00,1.48
5422.00,1.48
5421.00,1.48
5420.00,1.48
5419.00,1.48
5418.00,1.48
5417.00,1.48
5416.00,1.48
5415.00,1.48
5414.00,1.48
5413.00,1.48
5412.00,1.48
5411.00,1.48
5410.00,1.48
5409.00,1.48
5408.00,1.48
5407.00,1.48
5406.00,1.48
5405.00,1.48
5404.00,1.48
5403.00,1.48
5402.00,1.47
5401.00,1.47
5400.00,1.47
5399.00,1.47
5398.00,1.47
5397.00,1.47
5396.00,1.47
5395.00,1.47
5394.00,1.47
5393.00,1.46
5392.00,1.46
5391.00,1.46
5390.00,1.46
5389.00,1.46
5388.00,1.45
5387.00,1.45
5386.00,1.45
5385.00,1.45
5384.00,1.44
5383.00,1.44
5382.00,1.44
5381.00,1.44
5380.00,1.43
5379.00,1.43
5378.00,1.43
5377.00,1.42
5376.00,1.42
5375.00,1.41
5374.00,1.41
5373.00,1.41
5372.00,1.40
5371.00,1.40
5370.00,1.39
5369.00,1.39
5368.00,1.38
5367.00,1.38
5366.00,1.37
5365.00,1.37
5364.00,1.36
5363.00,1.35
5362.00,1.35
5361.00,1.34
5360.00,1.33
5359.00,1.33
5358.00,1.32
5357.00,1.31
5356.00,1.30
5355.00,1.30
5354.00,1.29
5353.00,1.28
5352.00,1.27
5351.00,1.26
5350.00,1.25
5349.00,1.24
5348.00,1.24
5347.00,1.23
5346.00,1.22
5345.00,1.21
5344.00,1.20
5343.00,1.19
5342.00,1.18
5341.00,1.17
5340.00,1.16
5339.00,1.15
5338.00,1.14
5337.00,1.13
5336.00,1.12
5335.00,1.11
5334.00,1.10
5333.00,1.09
5332.00,1.09
5331.00,1.08
5330.00,1.07
5329.00,1.06
5328.00,1.05
5327.00,1.04
5326.00,1.03
5325.00,1.03
5324.00,1.02
5323.00,1.01
5322.00,1.00
5321.00,0.99
5320.00,0.99
5319.00,0.98
5318.00,0.97
5317.00,0.96
5316.00,0.96
5315.00,0.95
5314.00,0.94
5313.00,0.94
5312.00,0.93
5311.00,0.92
5310.00,0.92
5309.00,0.91
5308.00,0.91
5307.00,0.90
5306.00,0.90
5305.00,0.89
5304.00,0.89
5303.00,0.88
5302.00,0.88
5301.00,0.88
5300.00,0.87
5299.00,0.87
5298.00,0.87
5297.00,0.86
5296.00,0.86
5295.00,0.86
5294.00,0.86
5293.00,0.85
5292.00,0.85
5291.00,0.85
5290.00,0.85
5289.00,0.85
5288.00,0.85
5287.00,0.85
5286.00,0.85
5285.00,0.85
5284.00,0.85
5283.00,0.84
5282.00,0.84
5281.00,0.84
5280.00,0.84
5279.00,0.84
5278.00,0.84
5277.00,0.84
5276.00,0.84
5275.00,0.84
5274.00,0.84
5273.00,0.84
5272.00,0.84
5271.00,0.84
5270.00,0.84
5269.00,0.84
5268.00,0.84
5267.00,0.84
5266.00,0.84
5265.00,0.84
5264.00,0.84
5263.00,0.84
5262.00,0.84
5261.00,0.83
5260.00,0.83
5259.00,0.83
5258.00,0.83
5257.00,0.83
5256.00,0.83
5255.00,0.83
5254.00,0.83
5253.00,0.83
5252.00,0.83
5251.00,0.83
5250.00,0.83
5249.00,0.84
5248.00,0.84
5247.00,0.84
5246.00,0.84
5245.00,0.84
5244.00,0.84
5243.00,0.84
5242.00,0.84
5241.00,0.84
5240.00,0.84
5239.00,0.85
5238.00,0.85
5237.00,0.85
5236.00,0.85
5235.00,0.85
5234.00,0.85
5233.00,0.85
5232.00,0.85
5231.00,0.85
5230.00,0.85
5229.00,0.85
5228.00,0.85
5227.00,0.85
5226.00,0.85
5225.00,0.85
5224.00,0.85
5223.00,0.85
5222.00,0.85
5221.00,0.85
5220.00,0.85
5219.00,0.85
5218.00,0.85
5217.00,0.85
5216.00,0.85
5215.00,0.85
5214.00,0.85
5213.00,0.85
5212.00,0.85
5211.00,0.85
5210.00,0.85
5209.00,0.85
5208.00,0.85
5207.00,0.85
5206.00,0.84
5205.00,0.84
5204.00,0.84
5203.00,0.84
5202.00,0.84
5201.00,0.84
5200.00,0.84
5199.00,0.84
5198.00,0.84
5197.00,0.85
5196.00,0.85
5195.00,0.85
5194.00,0.85
5193.00,0.85
5192.00,0.85
5191.00,0.85
5190.00,0.85
5189.00,0.85
5188.00,0.86
5187.00,0.86
5186.00,0.86
5185.00,0.86
5184.00,0.86
5183.00,0.86
5182.00,0.86
5181.00,0.86
5180.00,0.86
5179.00,0.86
5178.00,0.86
5177.00,0.86
5176.00,0.86
5175.00,0.86
5174.00,0.86
5173.00,0.86
5172.00,0.86
5171.00,0.86
5170.00,0.86
5169.00,0.86
5168.00,0.86
5167.00,0.86
5166.00,0.87
5165.00,0.87
5164.00,0.87
5163.00,0.87
5162.00,0.87
5161.00,0.87
5160.00,0.87
5159.00,0.87
5158.00,0.87
5157.00,0.87
5156.00,0.87
5155.00,0.87
5154.00,0.88
5153.00,0.88
5152.00,0.88
5151.00,0.88
5150.00,0.88
5149.00,0.88
5148.00,0.88
5147.00,0.88
5146.00,0.88
5145.00,0.88
5144.00,0.88
5143.00,0.88
5142.00,0.88
5141.00,0.88
5140.00,0.88
5139.00,0.88
5138.00,0.88
5137.00,0.88
5136.00,0.89
5135.00,0.89
5134.00,0.89
5133.00,0.89
5132.00,0.89
5131.00,0.89
5130.00,0.89
5129.00,0.89
5128.00,0.89
5127.00,0.89
5126.00,0.89
5125.00,0.89
5124.00,0.89
5123.00,0.89
5122.00,0.89
5121.00,0.89
5120.00,0.89
5119.00,0.89
5118.00,0.89
5117.00,0.89
5116.00,0.89
5115.00,0.89
5114.00,0.89
5113.00,0.89
5112.00,0.89
5111.00,0.89
5110.00,0.89
5109.00,0.89
5108.00,0.89
5107.00,0.89
5106.00,0.89
5105.00,0.89
5104.00,0.90
5103.00,0.90
5102.00,0.90
5101.00,0.90
5100.00,0.90
5099.00,0.90
5098.00,0.90
5097.00,0.90
5096.00,0.90
5095.00,0.90
5094.00,0.90
5093.00,0.90
5092.00,0.90
5091.00,0.90
5090.00,0.90
5089.00,0.90
5088.00,0.90
5087.00,0.90
5086.00,0.90
5085.00,0.90
5084.00,0.90
5083.00,0.90
5082.00,0.91
5081.00,0.91
5080.00,0.91
5079.00,0.91
5078.00,0.91
5077.00,0.91
5076.00,0.91
5075.00,0.91
5074.00,0.91
5073.00,0.91
5072.00,0.91
5071.00,0.91
5070.00,0.91
5069.00,0.91
5068.00,0.91
5067.00,0.91
5066.00,0.91
5065.00,0.91
5064.00,0.91
5063.00,0.91
5062.00,0.91
5061.00,0.91
5060.00,0.91
5059.00,0.92
5058.00,0.92
5057.00,0.92
5056.00,0.92
5055.00,0.92
5054.00,0.92
5053.00,0.92
5052.00,0.92
5051.00,0.92
5050.00,0.92
5049.00,0.93
5048.00,0.93
5047.00,0.93
5046.00,0.93
5045.00,0.93
5044.00,0.93
5043.00,0.93
5042.00,0.93
5041.00,0.93
5040.00,0.93
5039.00,0.93
5038.00,0.93
5037.00,0.93
5036.00,0.93
5035.00,0.93
5034.00,0.93
5033.00,0.93
5032.00,0.94
5031.00,0.94
5030.00,0.94
5029.00,0.94
5028.00,0.94
5027.00,0.94
5026.00,0.94
5025.00,0.94
5024.00,0.94
5023.00,0.94
5022.00,0.94
5021.00,0.94
5020.00,0.94
5019.00,0.94
5018.00,0.95
5017.00,0.95
5016.00,0.95
5015.00,0.95
5014.00,0.95
5013.00,0.95
5012.00,0.95
5011.00,0.95
5010.00,0.95
5009.00,0.95
5008.00,0.95
5007.00,0.95
5006.00,0.95
5005.00,0.95
5004.00,0.95
5003.00,0.96
5002.00,0.96
5001.00,0.96
5000.00,0.96
4999.00,0.96
4998.00,0.96
4997.00,0.96
4996.00,0.96
4995.00,0.96
4994.00,0.96
4993.00,0.96
4992.00,0.97
4991.00,0.97
4990.00,0.97
4989.00,0.97
4988.00,0.97
4987.00,0.97
4986.00,0.97
4985.00,0.97
4984.00,0.97
4983.00,0.97
4982.00,0.97
4981.00,0.97
4980.00,0.97
4979.00,0.97
4978.00,0.97
4977.00,0.97
4976.00,0.97
4975.00,0.97
4974.00,0.97
4973.00,0.97
4972.00,0.97
4971.00,0.97
4970.00,0.97
4969.00,0.97
4968.00,0.98
4967.00,0.98
4966.00,0.98
4965.00,0.98
4964.00,0.98
4963.00,0.98
4962.00,0.98
4961.00,0.98
4960.00,0.98
4959.00,0.98
4958.00,0.98
4957.00,0.98
4956.00,0.98
4955.00,0.98
4954.00,0.98
4953.00,0.98
4952.00,0.99
4951.00,0.99
4950.00,0.99
4949.00,0.99
4948.00,0.99
4947.00,0.99
4946.00,0.99
4945.00,0.99
4944.00,0.99
4943.00,0.99
4942.00,0.99
4941.00,0.99
4940.00,0.99
4939.00,0.99
4938.00,0.99
4937.00,0.99
4936.00,1.00
4935.00,1.00
4934.00,1.00
4933.00,1.00
4932.00,1.00
4931.00,1.00
4930.00,1.00
4929.00,1.00
4928.00,1.00
4927.00,1.00
4926.00,1.00
4925.00,1.00
4924.00,1.00
4923.00,1.01
4922.00,1.01
4921.00,1.01
4920.00,1.01
4919.00,1.01
4918.00,1.01
4917.00,1.01
4916.00,1.01
4915.00,1.01
4914.00,1.01
4913.00,1.01
4912.00,1.01
4911.00,1.01
4910.00,1.01
4909.00,1.01
4908.00,1.01
4907.00,1.01
4906.00,1.01
4905.00,1.01
4904.00,1.01
4903.00,1.01
4902.00,1.01
4901.00,1.01
4900.00,1.01
4899.00,1.01
4898.00,1.01
4897.00,1.01
4896.00,1.01
4895.00,1.01
4894.00,1.01
4893.00,1.01
4892.00,1.01
4891.00,1.01
4890.00,1.01
4889.00,1.02
4888.00,1.02
4887.00,1.02
4886.00,1.02
4885.00,1.02
4884.00,1.02
4883.00,1.02
4882.00,1.02
4881.00,1.02
4880.00,1.02
4879.00,1.02
4878.00,1.02
4877.00,1.02
4876.00,1.03
4875.00,1.03
4874.00,1.03
4873.00,1.03
4872.00,1.03
4871.00,1.03
4870.00,1.03
4869.00,1.03
4868.00,1.03
4867.00,1.04
4866.00,1.04
4865.00,1.04
4864.00,1.04
4863.00,1.04
4862.00,1.04
4861.00,1.04
4860.00,1.04
4859.00,1.04
4858.00,1.04
4857.00,1.04
4856.00,1.04
4855.00,1.04
4854.00,1.04
4853.00,1.04
4852.00,1.04
4851.00,1.04
4850.00,1.04
4849.00,1.05
4848.00,1.05
4847.00,1.05
4846.00,1.05
4845.00,1.05
4844.00,1.05
4843.00,1.05
4842.00,1.05
4841.00,1.05
4840.00,1.05
4839.00,1.05
4838.00,1.05
4837.00,1.05
4836.00,1.06
4835.00,1.06
4834.00,1.06
4833.00,1.06
4832.00,1.06
4831.00,1.06
4830.00,1.06
4829.00,1.07
4828.00,1.07
4827.00,1.07
4826.00,1.07
4825.00,1.07
4824.00,1.07
4823.00,1.07
4822.00,1.07
4821.00,1.07
4820.00,1.07
4819.00,1.08
4818.00,1.08
4817.00,1.08
4816.00,1.08
4815.00,1.08
4814.00,1.08
4813.00,1.08
4812.00,1.08
4811.00,1.08
4810.00,1.08
4809.00,1.08
4808.00,1.08
4807.00,1.08
4806.00,1.08
4805.00,1.08
4804.00,1.08
4803.00,1.08
4802.00,1.08
4801.00,1.08
4800.00,1.08
4799.00,1.08
4798.00,1.09
4797.00,1.09
4796.00,1.09
4795.00,1.09
4794.00,1.09
4793.00,1.09
4792.00,1.09
4791.00,1.09
4790.00,1.09
4789.00,1.09
4788.00,1.09
4787.00,1.09
4786.00,1.09
4785.00,1.09
4784.00,1.09
4783.00,1.10
4782.00,1.10
4781.00,1.10
4780.00,1.10
4779.00,1.10
4778.00,1.10
4777.00,1.10
4776.00,1.10
4775.00,1.10
4774.00,1.10
4773.00,1.10
4772.00,1.10
4771.00,1.11
4770.00,1.11
4769.00,1.11
4768.00,1.11
4767.00,1.11
4766.00,1.11
4765.00,1.11
4764.00,1.11
4763.00,1.12
4762.00,1.12
4761.00,1.12
4760.00,1.12
4759.00,1.12
4758.00,1.12
4757.00,1.12
4756.00,1.12
4755.00,1.12
4754.00,1.12
4753.00,1.12
4752.00,1.12
4751.00,1.12
4750.00,1.12
4749.00,1.12
4748.00,1.12
4747.00,1.12
4746.00,1.13
4745.00,1.13
4744.00,1.13
4743.00,1.13
4742.00,1.13
4741.00,1.13
4740.00,1.13
4739.00,1.13
4738.00,1.13
4737.00,1.14
4736.00,1.14
4735.00,1.14
4734.00,1.14
4733.00,1.14
4732.00,1.14
4731.00,1.15
4730.00,1.15
4729.00,1.15
4728.00,1.15
4727.00,1.15
4726.00,1.15
4725.00,1.15
4724.00,1.15
4723.00,1.15
4722.00,1.16
4721.00,1.16
4720.00,1.16
4719.00,1.16
4718.00,1.16
4717.00,1.16
4716.00,1.16
4715.00,1.16
4714.00,1.16
4713.00,1.16
4712.00,1.16
4711.00,1.17
4710.00,1.17
4709.00,1.17
4708.00,1.17
4707.00,1.17
4706.00,1.17
4705.00,1.18
4704.00,1.18
4703.00,1.18
4702.00,1.18
4701.00,1.18
4700.00,1.18
4699.00,1.19
4698.00,1.19
4697.00,1.19
4696.00,1.19
4695.00,1.19
4694.00,1.19
4693.00,1.20
4692.00,1.20
4691.00,1.20
4690.00,1.20
4689.00,1.20
4688.00,1.20
4687.00,1.21
4686.00,1.21
4685.00,1.21
4684.00,1.21
4683.00,1.21
4682.00,1.21
4681.00,1.21
4680.00,1.21
4679.00,1.21
4678.00,1.21
4677.00,1.21
4676.00,1.21
4675.00,1.21
4674.00,1.21
4673.00,1.21
4672.00,1.21
4671.00,1.21
4670.00,1.22
4669.00,1.22
4668.00,1.22
4667.00,1.22
4666.00,1.22
4665.00,1.22
4664.00,1.22
4663.00,1.22
4662.00,1.22
4661.00,1.22
4660.00,1.22
4659.00,1.22
4658.00,1.23
4657.00,1.23
4656.00,1.23
4655.00,1.23
4654.00,1.23
4653.00,1.23
4652.00,1.23
4651.00,1.23
4650.00,1.23
4649.00,1.23
4648.00,1.24
4647.00,1.24
4646.00,1.24
4645.00,1.24
4644.00,1.24
4643.00,1.24
4642.00,1.25
4641.00,1.25
4640.00,1.25
4639.00,1.25
4638.00,1.25
4637.00,1.26
4636.00,1.26
4635.00,1.26
4634.00,1.26
4633.00,1.26
4632.00,1.26
4631.00,1.26
4630.00,1.26
4629.00,1.26
4628.00,1.26
4627.00,1.27
4626.00,1.27
4625.00,1.27
4624.00,1.27
4623.00,1.27
4622.00,1.27
4621.00,1.27
4620.00,1.27
4619.00,1.27
4618.00,1.27
4617.00,1.27
4616.00,1.27
4615.00,1.27
4614.00,1.27
4613.00,1.27
4612.00,1.27
4611.00,1.28
4610.00,1.28
4609.00,1.28
4608.00,1.28
4607.00,1.28
4606.00,1.28
4605.00,1.28
4604.00,1.28
4603.00,1.29
4602.00,1.29
4601.00,1.29
4600.00,1.29
4599.00,1.29
4598.00,1.29
4597.00,1.29
4596.00,1.29
4595.00,1.29
4594.00,1.29
4593.00,1.29
4592.00,1.29
4591.00,1.29
4590.00,1.29
4589.00,1.30
4588.00,1.30
4587.00,1.30
4586.00,1.30
4585.00,1.30
4584.00,1.30
4583.00,1.30
4582.00,1.30
4581.00,1.30
4580.00,1.30
4579.00,1.30
4578.00,1.30
4577.00,1.30
4576.00,1.30
4575.00,1.30
4574.00,1.30
4573.00,1.30
4572.00,1.30
4571.00,1.31
4570.00,1.31
4569.00,1.31
4568.00,1.31
4567.00,1.31
4566.00,1.31
4565.00,1.31
4564.00,1.31
4563.00,1.31
4562.00,1.31
4561.00,1.31
4560.00,1.31
4559.00,1.31
4558.00,1.31
4557.00,1.31
4556.00,1.31
4555.00,1.31
4554.00,1.31
4553.00,1.31
4552.00,1.31
4551.00,1.31
4550.00,1.32
4549.00,1.32
4548.00,1.32
4547.00,1.32
4546.00,1.32
4545.00,1.32
4544.00,1.32
4543.00,1.32
4542.00,1.32
4541.00,1.32
4540.00,1.32
4539.00,1.32
4538.00,1.32
4537.00,1.32
4536.00,1.32
4535.00,1.32
4534.00,1.32
4533.00,1.32
4532.00,1.32
4531.00,1.32
4530.00,1.32
4529.00,1.32
4528.00,1.32
4527.00,1.32
4526.00,1.32
4525.00,1.33
4524.00,1.33
4523.00,1.33
4522.00,1.33
4521.00,1.33
4520.00,1.33
4519.00,1.33
4518.00,1.33
4517.00,1.33
4516.00,1.33
4515.00,1.33
4514.00,1.33
4513.00,1.32
4512.00,1.32
4511.00,1.32
4510.00,1.32
4509.00,1.32
4508.00,1.32
4507.00,1.32
4506.00,1.32
4505.00,1.32
4504.00,1.32
4503.00,1.32
4502.00,1.32
4501.00,1.32
4500.00,1.33
4499.00,1.33
4498.00,1.33
4497.00,1.33
4496.00,1.33
4495.00,1.33
4494.00,1.33
4493.00,1.33
4492.00,1.33
4491.00,1.33
4490.00,1.33
4489.00,1.33
4488.00,1.33
4487.00,1.32
4486.00,1.32
4485.00,1.32
4484.00,1.32
4483.00,1.32
4482.00,1.32
4481.00,1.32
4480.00,1.31
4479.00,1.31
4478.00,1.31
4477.00,1.31
4476.00,1.31
4475.00,1.31
4474.00,1.31
4473.00,1.31
4472.00,1.30
4471.00,1.30
4470.00,1.30
4469.00,1.30
4468.00,1.30
4467.00,1.30
4466.00,1.30
4465.00,1.30
4464.00,1.29
4463.00,1.29
4462.00,1.29
4461.00,1.29
4460.00,1.29
4459.00,1.29
4458.00,1.28
4457.00,1.28
4456.00,1.28
4455.00,1.28
4454.00,1.27
4453.00,1.27
4452.00,1.27
4451.00,1.27
4450.00,1.26
4449.00,1.26
4448.00,1.26
4447.00,1.26
4446.00,1.26
4445.00,1.25
4444.00,1.25
4443.00,1.25
4442.00,1.25
4441.00,1.25
4440.00,1.25
4439.00,1.24
4438.00,1.24
4437.00,1.24
4436.00,1.24
4435.00,1.24
4434.00,1.24
4433.00,1.24
4432.00,1.24
4431.00,1.24
4430.00,1.24
4429.00,1.24
4428.00,1.23
4427.00,1.23
4426.00,1.23
4425.00,1.23
4424.00,1.23
4423.00,1.23
4422.00,1.23
4421.00,1.23
4420.00,1.23
4419.00,1.23
4418.00,1.23
4417.00,1.23
4416.00,1.23
4415.00,1.23
4414.00,1.23
4413.00,1.23
4412.00,1.23
4411.00,1.23
4410.00,1.23
4409.00,1.23
4408.00,1.23
4407.00,1.24
4406.00,1.24
4405.00,1.24
4404.00,1.24
4403.00,1.24
4402.00,1.24
4401.00,1.24
4400.00,1.24
4399.00,1.24
4398.00,1.24
4397.00,1.24
4396.00,1.25
4395.00,1.25
4394.00,1.25
4393.00,1.25
4392.00,1.25
4391.00,1.25
4390.00,1.25
4389.00,1.25
4388.00,1.25
4387.00,1.25
4386.00,1.25
4385.00,1.25
4384.00,1.25
4383.00,1.25
4382.00,1.26
4381.00,1.26
4380.00,1.26
4379.00,1.26
4378.00,1.26
4377.00,1.26
4376.00,1.26
4375.00,1.26
4374.00,1.26
4373.00,1.26
4372.00,1.26
4371.00,1.26
4370.00,1.26
4369.00,1.26
4368.00,1.26
4367.00,1.26
4366.00,1.27
4365.00,1.27
4364.00,1.27
4363.00,1.27
4362.00,1.27
4361.00,1.27
4360.00,1.27
4359.00,1.27
4358.00,1.27
4357.00,1.27
4356.00,1.26
4355.00,1.26
4354.00,1.26
4353.00,1.26
4352.00,1.26
4351.00,1.26
4350.00,1.27
4349.00,1.27
4348.00,1.27
4347.00,1.27
4346.00,1.27
4345.00,1.27
4344.00,1.27
4343.00,1.27
4342.00,1.27
4341.00,1.27
4340.00,1.27
4339.00,1.27
4338.00,1.27
4337.00,1.27
4336.00,1.27
4335.00,1.28
4334.00,1.28
4333.00,1.28
4332.00,1.28
4331.00,1.28
4330.00,1.28
4329.00,1.28
4328.00,1.28
4327.00,1.29
4326.00,1.29
4325.00,1.29
4324.00,1.29
4323.00,1.29
4322.00,1.30
4321.00,1.30
4320.00,1.30
4319.00,1.30
4318.00,1.30
4317.00,1.31
4316.00,1.31
4315.00,1.31
4314.00,1.31
4313.00,1.31
4312.00,1.31
4311.00,1.32
4310.00,1.32
4309.00,1.32
4308.00,1.32
4307.00,1.32
4306.00,1.32
4305.00,1.32
4304.00,1.32
4303.00,1.32
4302.00,1.32
4301.00,1.32
4300.00,1.32
4299.00,1.32
4298.00,1.32
4297.00,1.32
4296.00,1.32
4295.00,1.32
4294.00,1.32
4293.00,1.32
4292.00,1.32
4291.00,1.32
4290.00,1.32
4289.00,1.32
4288.00,1.32
4287.00,1.32
4286.00,1.32
4285.00,1.32
4284.00,1.32
4283.00,1.32
4282.00,1.32
4281.00,1.32
4280.00,1.32
4279.00,1.32
4278.00,1.32
4277.00,1.32
4276.00,1.32
4275.00,1.33
4274.00,1.33
4273.00,1.33
4272.00,1.33
4271.00,1.33
4270.00,1.33
4269.00,1.33
4268.00,1.33
4267.00,1.33
4266.00,1.33
4265.00,1.33
4264.00,1.33
4263.00,1.33
4262.00,1.33
4261.00,1.33
4260.00,1.33
4259.00,1.33
4258.00,1.33
4257.00,1.33
4256.00,1.33
4255.00,1.33
4254.00,1.33
4253.00,1.33
4252.00,1.33
4251.00,1.33
4250.00,1.33
4249.00,1.33
4248.00,1.33
4247.00,1.33
4246.00,1.33
4245.00,1.33
4244.00,1.33
4243.00,1.33
4242.00,1.33
4241.00,1.34
4240.00,1.34
4239.00,1.34
4238.00,1.34
4237.00,1.34
4236.00,1.35
4235.00,1.35
4234.00,1.35
4233.00,1.35
4232.00,1.35
4231.00,1.35
4230.00,1.36
4229.00,1.36
4228.00,1.36
4227.00,1.36
4226.00,1.36
4225.00,1.36
4224.00,1.36
4223.00,1.36
4222.00,1.36
4221.00,1.36
4220.00,1.36
4219.00,1.36
4218.00,1.36
4217.00,1.36
4216.00,1.36
4215.00,1.36
4214.00,1.36
4213.00,1.36
4212.00,1.36
4211.00,1.37
4210.00,1.37
4209.00,1.37
4208.00,1.37
4207.00,1.37
4206.00,1.37
4205.00,1.37
4204.00,1.37
4203.00,1.37
4202.00,1.37
4201.00,1.37
4200.00,1.37
4199.00,1.37
4198.00,1.37
4197.00,1.38
4196.00,1.38
4195.00,1.38
4194.00,1.38
4193.00,1.38
4192.00,1.38
4191.00,1.38
4190.00,1.38
4189.00,1.38
4188.00,1.38
4187.00,1.38
4186.00,1.38
4185.00,1.38
4184.00,1.38
4183.00,1.39
4182.00,1.39
4181.00,1.39
4180.00,1.39
4179.00,1.39
4178.00,1.39
4177.00,1.39
4176.00,1.39
4175.00,1.39
4174.00,1.39
4173.00,1.39
4172.00,1.39
4171.00,1.39
4170.00,1.39
4169.00,1.39
4168.00,1.39
4167.00,1.39
4166.00,1.39
4165.00,1.39
4164.00,1.39
4163.00,1.39
4162.00,1.39
4161.00,1.39
4160.00,1.39
4159.00,1.39
4158.00,1.39
4157.00,1.39
4156.00,1.39
4155.00,1.39
4154.00,1.39
4153.00,1.39
4152.00,1.39
4151.00,1.39
4150.00,1.39
4149.00,1.39
4148.00,1.39
4147.00,1.39
4146.00,1.39
4145.00,1.39
4144.00,1.39
4143.00,1.39
4142.00,1.39
4141.00,1.40
4140.00,1.40
4139.00,1.40
4138.00,1.40
4137.00,1.40
4136.00,1.40
4135.00,1.40
4134.00,1.40
4133.00,1.41
4132.00,1.41
4131.00,1.41
4130.00,1.41
4129.00,1.41
4128.00,1.41
4127.00,1.41
4126.00,1.41
4125.00,1.41
4124.00,1.41
4123.00,1.41
4122.00,1.41
4121.00,1.41
4120.00,1.41
4119.00,1.41
4118.00,1.41
4117.00,1.41
4116.00,1.41
4115.00,1.41
4114.00,1.41
4113.00,1.41
4112.00,1.41
4111.00,1.41
4110.00,1.41
4109.00,1.41
4108.00,1.42
4107.00,1.42
4106.00,1.42
4105.00,1.42
4104.00,1.42
4103.00,1.42
4102.00,1.42
4101.00,1.42
4100.00,1.42
4099.00,1.42
4098.00,1.42
4097.00,1.42
4096.00,1.42
4095.00,1.42
4094.00,1.42
4093.00,1.42
4092.00,1.42
4091.00,1.42
4090.00,1.42
4089.00,1.42
4088.00,1.42
4087.00,1.42
4086.00,1.42
4085.00,1.42
4084.00,1.42
4083.00,1.42
4082.00,1.42
4081.00,1.42
4080.00,1.42
4079.00,1.43
4078.00,1.43
4077.00,1.43
4076.00,1.43
4075.00,1.43
4074.00,1.43
4073.00,1.44
4072.00,1.44
4071.00,1.44
4070.00,1.44
4069.00,1.44
4068.00,1.44
4067.00,1.44
4066.00,1.44
4065.00,1.44
4064.00,1.44
4063.00,1.44
4062.00,1.44
4061.00,1.44
4060.00,1.44
4059.00,1.44
4058.00,1.44
4057.00,1.44
4056.00,1.44
4055.00,1.44
4054.00,1.44
4053.00,1.44
4052.00,1.44
4051.00,1.44
4050.00,1.44
4049.00,1.44
4048.00,1.44
4047.00,1.44
4046.00,1.44
4045.00,1.44
4044.00,1.45
4043.00,1.45
4042.00,1.45
4041.00,1.45
4040.00,1.45
4039.00,1.45
4038.00,1.45
4037.00,1.45
4036.00,1.45
4035.00,1.45
4034.00,1.45
4033.00,1.45
4032.00,1.45
4031.00,1.45
4030.00,1.45
4029.00,1.45
4028.00,1.46
4027.00,1.46
4026.00,1.46
4025.00,1.46
4024.00,1.46
4023.00,1.46
4022.00,1.47
4021.00,1.47
4020.00,1.47
4019.00,1.47
4018.00,1.47
4017.00,1.47
4016.00,1.48
4015.00,1.48
4014.00,1.48
4013.00,1.48
4012.00,1.48
4011.00,1.48
4010.00,1.48
4009.00,1.48
4008.00,1.48
4007.00,1.48
4006.00,1.48
4005.00,1.48
4004.00,1.48
4003.00,1.48
4002.00,1.48
4001.00,1.48
4000.00,1.48
