创建为新数据集,样品 213 用户 Administrator 日期 星期六, 七月 21 2018
cm-1,%T
10000.00,1.00
9999.00,1.00
9998.00,1.00
9997.00,1.01
9996.00,1.01
9995.00,1.01
9994.00,1.01
9993.00,1.01
9992.00,1.02
9991.00,1.02
9990.00,1.02
9989.00,1.02
9988.00,1.03
9987.00,1.03
9986.00,1.03
9985.00,1.03
9984.00,1.03
9983.00,1.03
9982.00,1.03
9981.00,1.03
9980.00,1.03
9979.00,1.03
9978.00,1.03
9977.00,1.03
9976.00,1.03
9975.00,1.03
9974.00,1.03
9973.00,1.03
9972.00,1.02
9971.00,1.02
9970.00,1.02
9969.00,1.02
9968.00,1.02
9967.00,1.02
9966.00,1.02
9965.00,1.02
9964.00,1.01
9963.00,1.01
9962.00,1.01
9961.00,1.01
9960.00,1.01
9959.00,1.01
9958.00,1.01
9957.00,1.01
9956.00,1.01
9955.00,1.01
9954.00,1.01
9953.00,1.01
9952.00,1.01
9951.00,1.01
9950.00,1.01
9949.00,1.01
9948.00,1.01
9947.00,1.01
9946.00,1.01
9945.00,1.01
9944.00,1.01
9943.00,1.01
9942.00,1.02
9941.00,1.02
9940.00,1.02
9939.00,1.02
9938.00,1.02
9937.00,1.02
9936.00,1.02
9935.00,1.02
9934.00,1.02
9933.00,1.02
9932.00,1.02
9931.00,1.02
9930.00,1.02
9929.00,1.02
9928.00,1.02
9927.00,1.02
9926.00,1.02
9925.00,1.02
9924.00,1.02
9923.00,1.02
9922.00,1.02
9921.00,1.02
9920.00,1.02
9919.00,1.02
9918.00,1.02
9917.00,1.02
9916.00,1.02
9915.00,1.02
9914.00,1.02
9913.00,1.02
9912.00,1.02
9911.00,1.02
9910.00,1.02
9909.00,1.02
9908.00,1.02
9907.00,1.02
9906.00,1.02
9905.00,1.02
9904.00,1.02
9903.00,1.01
9902.00,1.01
9901.00,1.01
9900.00,1.01
9899.00,1.01
9898.00,1.00
9897.00,1.00
9896.00,1.00
9895.00,1.00
9894.00,1.00
9893.00,0.99
9892.00,0.99
9891.00,0.99
9890.00,0.99
9889.00,0.99
9888.00,0.99
9887.00,0.99
9886.00,0.99
9885.00,0.99
9884.00,0.99
9883.00,0.99
9882.00,0.99
9881.00,0.99
9880.00,0.99
9879.00,0.99
9878.00,0.99
9877.00,0.99
9876.00,1.00
9875.00,1.00
9874.00,1.00
9873.00,1.00
9872.00,1.00
9871.00,1.00
9870.00,1.00
9869.00,1.00
9868.00,1.01
9867.00,1.01
9866.00,1.01
9865.00,1.01
9864.00,1.02
9863.00,1.02
9862.00,1.02
9861.00,1.02
9860.00,1.02
9859.00,1.03
9858.00,1.03
9857.00,1.03
9856.00,1.03
9855.00,1.03
9854.00,1.03
9853.00,1.03
9852.00,1.03
9851.00,1.03
9850.00,1.02
9849.00,1.02
9848.00,1.02
9847.00,1.02
9846.00,1.02
9845.00,1.01
9844.00,1.01
9843.00,1.01
9842.00,1.01
9841.00,1.00
9840.00,1.00
9839.00,1.00
9838.00,1.00
9837.00,0.99
9836.00,0.99
9835.00,0.99
9834.00,0.99
9833.00,0.99
9832.00,0.98
9831.00,0.98
9830.00,0.98
9829.00,0.98
9828.00,0.98
9827.00,0.98
9826.00,0.98
9825.00,0.98
9824.00,0.98
9823.00,0.98
9822.00,0.98
9821.00,0.99
9820.00,0.99
9819.00,0.99
9818.00,0.99
9817.00,1.00
9816.00,1.00
9815.00,1.00
9814.00,1.00
9813.00,1.01
9812.00,1.01
9811.00,1.01
9810.00,1.01
9809.00,1.01
9808.00,1.01
9807.00,1.01
9806.00,1.01
9805.00,1.01
9804.00,1.00
9803.00,1.00
9802.00,1.00
9801.00,1.00
9800.00,0.99
9799.00,0.99
9798.00,0.99
9797.00,0.99
9796.00,0.98
9795.00,0.98
9794.00,0.98
9793.00,0.98
9792.00,0.98
9791.00,0.98
9790.00,0.98
9789.00,0.99
9788.00,0.99
9787.00,0.99
9786.00,0.99
9785.00,0.99
9784.00,0.99
9783.00,1.00
9782.00,1.00
9781.00,1.00
9780.00,1.00
9779.00,1.00
9778.00,1.00
9777.00,1.00
9776.00,1.01
9775.00,1.01
9774.00,1.01
9773.00,1.01
9772.00,1.01
9771.00,1.01
9770.00,1.01
9769.00,1.01
9768.00,1.01
9767.00,1.01
9766.00,1.01
9765.00,1.01
9764.00,1.01
9763.00,1.01
9762.00,1.01
9761.00,1.01
9760.00,1.01
9759.00,1.01
9758.00,1.01
9757.00,1.01
9756.00,1.01
9755.00,1.01
9754.00,1.01
9753.00,1.01
9752.00,1.01
9751.00,1.01
9750.00,1.01
9749.00,1.01
9748.00,1.01
9747.00,1.01
9746.00,1.01
9745.00,1.01
9744.00,1.01
9743.00,1.02
9742.00,1.02
9741.00,1.02
9740.00,1.02
9739.00,1.02
9738.00,1.02
9737.00,1.03
9736.00,1.03
9735.00,1.03
9734.00,1.03
9733.00,1.03
9732.00,1.03
9731.00,1.03
9730.00,1.03
9729.00,1.03
9728.00,1.03
9727.00,1.03
9726.00,1.03
9725.00,1.03
9724.00,1.03
9723.00,1.03
9722.00,1.03
9721.00,1.02
9720.00,1.02
9719.00,1.02
9718.00,1.01
9717.00,1.01
9716.00,1.01
9715.00,1.00
9714.00,1.00
9713.00,0.99
9712.00,0.99
9711.00,0.99
9710.00,0.98
9709.00,0.98
9708.00,0.98
9707.00,0.98
9706.00,0.97
9705.00,0.97
9704.00,0.97
9703.00,0.97
9702.00,0.97
9701.00,0.97
9700.00,0.97
9699.00,0.97
9698.00,0.97
9697.00,0.97
9696.00,0.97
9695.00,0.98
9694.00,0.98
9693.00,0.98
9692.00,0.98
9691.00,0.98
9690.00,0.98
9689.00,0.98
9688.00,0.98
9687.00,0.98
9686.00,0.98
9685.00,0.98
9684.00,0.98
9683.00,0.98
9682.00,0.98
9681.00,0.98
9680.00,0.98
9679.00,0.98
9678.00,0.98
9677.00,0.98
9676.00,0.99
9675.00,0.99
9674.00,0.99
9673.00,0.99
9672.00,0.99
9671.00,0.99
9670.00,0.99
9669.00,0.99
9668.00,0.99
9667.00,1.00
9666.00,1.00
9665.00,1.00
9664.00,1.00
9663.00,1.00
9662.00,1.00
9661.00,1.00
9660.00,1.00
9659.00,1.00
9658.00,1.00
9657.00,1.00
9656.00,1.00
9655.00,1.00
9654.00,1.01
9653.00,1.01
9652.00,1.01
9651.00,1.01
9650.00,1.01
9649.00,1.01
9648.00,1.01
9647.00,1.01
9646.00,1.01
9645.00,1.01
9644.00,1.01
9643.00,1.01
9642.00,1.01
9641.00,1.01
9640.00,1.01
9639.00,1.01
9638.00,1.01
9637.00,1.01
9636.00,1.01
9635.00,1.01
9634.00,1.01
9633.00,1.01
9632.00,1.01
9631.00,1.01
9630.00,1.01
9629.00,1.01
9628.00,1.01
9627.00,1.00
9626.00,1.00
9625.00,1.00
9624.00,1.00
9623.00,1.00
9622.00,1.00
9621.00,1.00
9620.00,1.00
9619.00,1.00
9618.00,1.00
9617.00,1.00
9616.00,1.00
9615.00,1.00
9614.00,1.00
9613.00,0.99
9612.00,0.99
9611.00,0.99
9610.00,0.99
9609.00,0.99
9608.00,0.99
9607.00,0.98
9606.00,0.98
9605.00,0.98
9604.00,0.98
9603.00,0.98
9602.00,0.98
9601.00,0.98
9600.00,0.98
9599.00,0.97
9598.00,0.97
9597.00,0.97
9596.00,0.97
9595.00,0.97
9594.00,0.98
9593.00,0.98
9592.00,0.98
9591.00,0.98
9590.00,0.98
9589.00,0.98
9588.00,0.98
9587.00,0.99
9586.00,0.99
9585.00,0.99
9584.00,0.99
9583.00,0.99
9582.00,0.99
9581.00,1.00
9580.00,1.00
9579.00,1.00
9578.00,1.00
9577.00,1.00
9576.00,1.00
9575.00,1.00
9574.00,1.00
9573.00,1.00
9572.00,1.00
9571.00,1.00
9570.00,1.00
9569.00,1.00
9568.00,1.00
9567.00,1.00
9566.00,1.00
9565.00,1.00
9564.00,1.00
9563.00,1.00
9562.00,1.00
9561.00,1.00
9560.00,1.00
9559.00,1.00
9558.00,1.00
9557.00,1.00
9556.00,1.01
9555.00,1.01
9554.00,1.01
9553.00,1.01
9552.00,1.01
9551.00,1.01
9550.00,1.01
9549.00,1.01
9548.00,1.01
9547.00,1.01
9546.00,1.01
9545.00,1.01
9544.00,1.01
9543.00,1.01
9542.00,1.01
9541.00,1.01
9540.00,1.01
9539.00,1.01
9538.00,1.01
9537.00,1.01
9536.00,1.01
9535.00,1.01
9534.00,1.01
9533.00,1.01
9532.00,1.01
9531.00,1.01
9530.00,1.01
9529.00,1.01
9528.00,1.01
9527.00,1.01
9526.00,1.01
9525.00,1.01
9524.00,1.01
9523.00,1.01
9522.00,1.01
9521.00,1.01
9520.00,1.01
9519.00,1.01
9518.00,1.01
9517.00,1.01
9516.00,1.01
9515.00,1.01
9514.00,1.01
9513.00,1.01
9512.00,1.01
9511.00,1.01
9510.00,1.01
9509.00,1.00
9508.00,1.00
9507.00,1.00
9506.00,1.00
9505.00,1.00
9504.00,1.00
9503.00,1.00
9502.00,1.00
9501.00,1.00
9500.00,1.00
9499.00,1.00
9498.00,1.00
9497.00,1.00
9496.00,1.00
9495.00,1.00
9494.00,1.00
9493.00,1.00
9492.00,1.00
9491.00,1.00
9490.00,1.00
9489.00,1.00
9488.00,1.00
9487.00,1.00
9486.00,1.00
9485.00,1.00
9484.00,1.00
9483.00,1.00
9482.00,1.00
9481.00,1.00
9480.00,1.00
9479.00,1.00
9478.00,1.00
9477.00,1.00
9476.00,1.00
9475.00,1.01
9474.00,1.01
9473.00,1.01
9472.00,1.01
9471.00,1.01
9470.00,1.01
9469.00,1.01
9468.00,1.01
9467.00,1.01
9466.00,1.01
9465.00,1.01
9464.00,1.01
9463.00,1.01
9462.00,1.01
9461.00,1.01
9460.00,1.01
9459.00,1.01
9458.00,1.01
9457.00,1.01
9456.00,1.01
9455.00,1.01
9454.00,1.01
9453.00,1.01
9452.00,1.01
9451.00,1.01
9450.00,1.01
9449.00,1.01
9448.00,1.01
9447.00,1.01
9446.00,1.01
9445.00,1.01
9444.00,1.01
9443.00,1.01
9442.00,1.01
9441.00,1.01
9440.00,1.01
9439.00,1.01
9438.00,1.01
9437.00,1.01
9436.00,1.00
9435.00,1.00
9434.00,1.00
9433.00,1.00
9432.00,1.00
9431.00,1.00
9430.00,1.00
9429.00,1.00
9428.00,1.00
9427.00,1.00
9426.00,1.00
9425.00,1.00
9424.00,1.00
9423.00,1.00
9422.00,1.00
9421.00,1.00
9420.00,1.00
9419.00,1.00
9418.00,1.00
9417.00,1.00
9416.00,1.00
9415.00,1.00
9414.00,1.00
9413.00,1.00
9412.00,1.01
9411.00,1.01
9410.00,1.01
9409.00,1.01
9408.00,1.01
9407.00,1.01
9406.00,1.01
9405.00,1.02
9404.00,1.02
9403.00,1.02
9402.00,1.02
9401.00,1.02
9400.00,1.02
9399.00,1.02
9398.00,1.02
9397.00,1.02
9396.00,1.02
9395.00,1.02
9394.00,1.02
9393.00,1.02
9392.00,1.02
9391.00,1.02
9390.00,1.02
9389.00,1.02
9388.00,1.02
9387.00,1.02
9386.00,1.02
9385.00,1.02
9384.00,1.02
9383.00,1.02
9382.00,1.02
9381.00,1.02
9380.00,1.01
9379.00,1.01
9378.00,1.01
9377.00,1.01
9376.00,1.01
9375.00,1.01
9374.00,1.01
9373.00,1.01
9372.00,1.01
9371.00,1.01
9370.00,1.01
9369.00,1.01
9368.00,1.01
9367.00,1.00
9366.00,1.00
9365.00,1.00
9364.00,1.00
9363.00,1.00
9362.00,1.00
9361.00,1.00
9360.00,1.00
9359.00,0.99
9358.00,0.99
9357.00,0.99
9356.00,0.99
9355.00,0.99
9354.00,0.99
9353.00,0.99
9352.00,0.99
9351.00,0.98
9350.00,0.98
9349.00,0.98
9348.00,0.98
9347.00,0.98
9346.00,0.98
9345.00,0.98
9344.00,0.98
9343.00,0.98
9342.00,0.98
9341.00,0.98
9340.00,0.98
9339.00,0.98
9338.00,0.98
9337.00,0.98
9336.00,0.98
9335.00,0.98
9334.00,0.98
9333.00,0.98
9332.00,0.99
9331.00,0.99
9330.00,0.99
9329.00,0.99
9328.00,0.99
9327.00,1.00
9326.00,1.00
9325.00,1.00
9324.00,1.01
9323.00,1.01
9322.00,1.01
9321.00,1.01
9320.00,1.01
9319.00,1.02
9318.00,1.02
9317.00,1.02
9316.00,1.02
9315.00,1.02
9314.00,1.02
9313.00,1.02
9312.00,1.02
9311.00,1.02
9310.00,1.02
9309.00,1.02
9308.00,1.02
9307.00,1.02
9306.00,1.02
9305.00,1.02
9304.00,1.02
9303.00,1.02
9302.00,1.02
9301.00,1.02
9300.00,1.02
9299.00,1.02
9298.00,1.02
9297.00,1.02
9296.00,1.02
9295.00,1.02
9294.00,1.02
9293.00,1.02
9292.00,1.02
9291.00,1.02
9290.00,1.02
9289.00,1.02
9288.00,1.02
9287.00,1.03
9286.00,1.03
9285.00,1.03
9284.00,1.03
9283.00,1.03
9282.00,1.03
9281.00,1.02
9280.00,1.02
9279.00,1.02
9278.00,1.02
9277.00,1.02
9276.00,1.02
9275.00,1.02
9274.00,1.02
9273.00,1.02
9272.00,1.02
9271.00,1.02
9270.00,1.02
9269.00,1.02
9268.00,1.02
9267.00,1.02
9266.00,1.02
9265.00,1.02
9264.00,1.02
9263.00,1.02
9262.00,1.03
9261.00,1.03
9260.00,1.03
9259.00,1.03
9258.00,1.03
9257.00,1.02
9256.00,1.02
9255.00,1.02
9254.00,1.02
9253.00,1.02
9252.00,1.02
9251.00,1.02
9250.00,1.01
9249.00,1.01
9248.00,1.01
9247.00,1.01
9246.00,1.01
9245.00,1.01
9244.00,1.00
9243.00,1.00
9242.00,1.00
9241.00,1.00
9240.00,1.00
9239.00,1.00
9238.00,1.00
9237.00,1.00
9236.00,1.00
9235.00,1.01
9234.00,1.01
9233.00,1.01
9232.00,1.01
9231.00,1.01
9230.00,1.01
9229.00,1.01
9228.00,1.02
9227.00,1.02
9226.00,1.02
9225.00,1.02
9224.00,1.02
9223.00,1.02
9222.00,1.02
9221.00,1.02
9220.00,1.03
9219.00,1.03
9218.00,1.03
9217.00,1.03
9216.00,1.03
9215.00,1.02
9214.00,1.02
9213.00,1.02
9212.00,1.02
9211.00,1.02
9210.00,1.02
9209.00,1.02
9208.00,1.02
9207.00,1.02
9206.00,1.02
9205.00,1.01
9204.00,1.01
9203.00,1.01
9202.00,1.01
9201.00,1.01
9200.00,1.01
9199.00,1.01
9198.00,1.01
9197.00,1.01
9196.00,1.01
9195.00,1.01
9194.00,1.01
9193.00,1.01
9192.00,1.01
9191.00,1.01
9190.00,1.01
9189.00,1.01
9188.00,1.01
9187.00,1.01
9186.00,1.01
9185.00,1.01
9184.00,1.01
9183.00,1.01
9182.00,1.01
9181.00,1.01
9180.00,1.01
9179.00,1.01
9178.00,1.01
9177.00,1.01
9176.00,1.01
9175.00,1.01
9174.00,1.02
9173.00,1.02
9172.00,1.02
9171.00,1.02
9170.00,1.02
9169.00,1.02
9168.00,1.02
9167.00,1.02
9166.00,1.02
9165.00,1.02
9164.00,1.03
9163.00,1.03
9162.00,1.03
9161.00,1.03
9160.00,1.03
9159.00,1.03
9158.00,1.03
9157.00,1.03
9156.00,1.03
9155.00,1.02
9154.00,1.02
9153.00,1.02
9152.00,1.02
9151.00,1.02
9150.00,1.02
9149.00,1.02
9148.00,1.02
9147.00,1.02
9146.00,1.02
9145.00,1.02
9144.00,1.02
9143.00,1.02
9142.00,1.02
9141.00,1.02
9140.00,1.02
9139.00,1.02
9138.00,1.02
9137.00,1.02
9136.00,1.02
9135.00,1.02
9134.00,1.02
9133.00,1.02
9132.00,1.02
9131.00,1.02
9130.00,1.02
9129.00,1.02
9128.00,1.02
9127.00,1.02
9126.00,1.01
9125.00,1.01
9124.00,1.01
9123.00,1.01
9122.00,1.01
9121.00,1.01
9120.00,1.01
9119.00,1.01
9118.00,1.01
9117.00,1.01
9116.00,1.01
9115.00,1.01
9114.00,1.01
9113.00,1.01
9112.00,1.02
9111.00,1.02
9110.00,1.02
9109.00,1.02
9108.00,1.02
9107.00,1.02
9106.00,1.02
9105.00,1.03
9104.00,1.03
9103.00,1.03
9102.00,1.03
9101.00,1.03
9100.00,1.03
9099.00,1.03
9098.00,1.03
9097.00,1.03
9096.00,1.03
9095.00,1.03
9094.00,1.02
9093.00,1.02
9092.00,1.02
9091.00,1.02
9090.00,1.02
9089.00,1.02
9088.00,1.02
9087.00,1.02
9086.00,1.02
9085.00,1.02
9084.00,1.02
9083.00,1.02
9082.00,1.02
9081.00,1.02
9080.00,1.02
9079.00,1.02
9078.00,1.02
9077.00,1.02
9076.00,1.02
9075.00,1.02
9074.00,1.02
9073.00,1.02
9072.00,1.02
9071.00,1.02
9070.00,1.03
9069.00,1.03
9068.00,1.03
9067.00,1.03
9066.00,1.02
9065.00,1.02
9064.00,1.02
9063.00,1.02
9062.00,1.02
9061.00,1.02
9060.00,1.02
9059.00,1.02
9058.00,1.02
9057.00,1.02
9056.00,1.02
9055.00,1.02
9054.00,1.02
9053.00,1.02
9052.00,1.02
9051.00,1.02
9050.00,1.02
9049.00,1.02
9048.00,1.02
9047.00,1.03
9046.00,1.03
9045.00,1.03
9044.00,1.03
9043.00,1.03
9042.00,1.03
9041.00,1.03
9040.00,1.03
9039.00,1.03
9038.00,1.03
9037.00,1.03
9036.00,1.03
9035.00,1.03
9034.00,1.03
9033.00,1.03
9032.00,1.03
9031.00,1.03
9030.00,1.03
9029.00,1.03
9028.00,1.03
9027.00,1.03
9026.00,1.03
9025.00,1.03
9024.00,1.03
9023.00,1.03
9022.00,1.03
9021.00,1.03
9020.00,1.03
9019.00,1.03
9018.00,1.03
9017.00,1.03
9016.00,1.03
9015.00,1.03
9014.00,1.03
9013.00,1.03
9012.00,1.03
9011.00,1.03
9010.00,1.03
9009.00,1.03
9008.00,1.03
9007.00,1.03
9006.00,1.03
9005.00,1.03
9004.00,1.03
9003.00,1.03
9002.00,1.03
9001.00,1.03
9000.00,1.03
8999.00,1.03
8998.00,1.03
8997.00,1.02
8996.00,1.02
8995.00,1.02
8994.00,1.02
8993.00,1.02
8992.00,1.02
8991.00,1.02
8990.00,1.02
8989.00,1.02
8988.00,1.02
8987.00,1.02
8986.00,1.02
8985.00,1.02
8984.00,1.02
8983.00,1.02
8982.00,1.02
8981.00,1.02
8980.00,1.02
8979.00,1.01
8978.00,1.01
8977.00,1.01
8976.00,1.01
8975.00,1.01
8974.00,1.01
8973.00,1.01
8972.00,1.01
8971.00,1.01
8970.00,1.01
8969.00,1.01
8968.00,1.01
8967.00,1.01
8966.00,1.01
8965.00,1.01
8964.00,1.01
8963.00,1.01
8962.00,1.01
8961.00,1.01
8960.00,1.01
8959.00,1.01
8958.00,1.01
8957.00,1.01
8956.00,1.01
8955.00,1.01
8954.00,1.01
8953.00,1.01
8952.00,1.01
8951.00,1.01
8950.00,1.01
8949.00,1.01
8948.00,1.01
8947.00,1.01
8946.00,1.01
8945.00,1.01
8944.00,1.01
8943.00,1.02
8942.00,1.02
8941.00,1.02
8940.00,1.02
8939.00,1.02
8938.00,1.02
8937.00,1.02
8936.00,1.02
8935.00,1.02
8934.00,1.02
8933.00,1.02
8932.00,1.02
8931.00,1.02
8930.00,1.02
8929.00,1.02
8928.00,1.02
8927.00,1.02
8926.00,1.02
8925.00,1.02
8924.00,1.02
8923.00,1.02
8922.00,1.02
8921.00,1.02
8920.00,1.02
8919.00,1.02
8918.00,1.02
8917.00,1.02
8916.00,1.03
8915.00,1.03
8914.00,1.03
8913.00,1.03
8912.00,1.03
8911.00,1.03
8910.00,1.03
8909.00,1.03
8908.00,1.03
8907.00,1.03
8906.00,1.03
8905.00,1.03
8904.00,1.03
8903.00,1.03
8902.00,1.03
8901.00,1.03
8900.00,1.03
8899.00,1.03
8898.00,1.03
8897.00,1.03
8896.00,1.03
8895.00,1.03
8894.00,1.03
8893.00,1.03
8892.00,1.03
8891.00,1.03
8890.00,1.03
8889.00,1.03
8888.00,1.03
8887.00,1.03
8886.00,1.03
8885.00,1.03
8884.00,1.03
8883.00,1.03
8882.00,1.03
8881.00,1.03
8880.00,1.03
8879.00,1.03
8878.00,1.03
8877.00,1.03
8876.00,1.03
8875.00,1.03
8874.00,1.03
8873.00,1.03
8872.00,1.03
8871.00,1.02
8870.00,1.02
8869.00,1.02
8868.00,1.02
8867.00,1.02
8866.00,1.02
8865.00,1.02
8864.00,1.01
8863.00,1.01
8862.00,1.01
8861.00,1.01
8860.00,1.01
8859.00,1.01
8858.00,1.01
8857.00,1.01
8856.00,1.01
8855.00,1.01
8854.00,1.01
8853.00,1.01
8852.00,1.01
8851.00,1.01
8850.00,1.01
8849.00,1.01
8848.00,1.01
8847.00,1.01
8846.00,1.01
8845.00,1.01
8844.00,1.01
8843.00,1.01
8842.00,1.01
8841.00,1.01
8840.00,1.01
8839.00,1.01
8838.00,1.01
8837.00,1.01
8836.00,1.01
8835.00,1.01
8834.00,1.00
8833.00,1.00
8832.00,1.00
8831.00,1.00
8830.00,1.00
8829.00,1.00
8828.00,1.00
8827.00,1.00
8826.00,1.00
8825.00,0.99
8824.00,0.99
8823.00,0.99
8822.00,0.99
8821.00,0.99
8820.00,0.99
8819.00,0.99
8818.00,0.99
8817.00,0.99
8816.00,0.99
8815.00,0.99
8814.00,0.99
8813.00,0.99
8812.00,0.99
8811.00,0.99
8810.00,0.99
8809.00,0.99
8808.00,0.99
8807.00,0.99
8806.00,1.00
8805.00,1.00
8804.00,1.00
8803.00,1.00
8802.00,1.00
8801.00,1.00
8800.00,1.01
8799.00,1.01
8798.00,1.01
8797.00,1.01
8796.00,1.01
8795.00,1.01
8794.00,1.01
8793.00,1.01
8792.00,1.01
8791.00,1.01
8790.00,1.01
8789.00,1.01
8788.00,1.01
8787.00,1.01
8786.00,1.01
8785.00,1.01
8784.00,1.01
8783.00,1.00
8782.00,1.00
8781.00,1.00
8780.00,1.00
8779.00,1.00
8778.00,1.00
8777.00,1.00
8776.00,1.00
8775.00,1.00
8774.00,0.99
8773.00,0.99
8772.00,0.99
8771.00,0.99
8770.00,0.99
8769.00,0.99
8768.00,0.99
8767.00,0.99
8766.00,1.00
8765.00,1.00
8764.00,1.00
8763.00,1.00
8762.00,1.00
8761.00,1.00
8760.00,1.00
8759.00,1.00
8758.00,1.00
8757.00,1.00
8756.00,1.00
8755.00,1.00
8754.00,1.00
8753.00,1.00
8752.00,1.00
8751.00,0.99
8750.00,0.99
8749.00,0.99
8748.00,0.99
8747.00,0.99
8746.00,0.99
8745.00,0.99
8744.00,0.99
8743.00,0.98
8742.00,0.98
8741.00,0.98
8740.00,0.98
8739.00,0.98
8738.00,0.98
8737.00,0.97
8736.00,0.97
8735.00,0.97
8734.00,0.97
8733.00,0.97
8732.00,0.97
8731.00,0.97
8730.00,0.97
8729.00,0.97
8728.00,0.97
8727.00,0.97
8726.00,0.97
8725.00,0.97
8724.00,0.97
8723.00,0.97
8722.00,0.97
8721.00,0.97
8720.00,0.97
8719.00,0.97
8718.00,0.98
8717.00,0.98
8716.00,0.98
8715.00,0.98
8714.00,0.98
8713.00,0.98
8712.00,0.98
8711.00,0.98
8710.00,0.98
8709.00,0.97
8708.00,0.97
8707.00,0.97
8706.00,0.97
8705.00,0.97
8704.00,0.97
8703.00,0.97
8702.00,0.97
8701.00,0.97
8700.00,0.97
8699.00,0.97
8698.00,0.97
8697.00,0.97
8696.00,0.97
8695.00,0.97
8694.00,0.97
8693.00,0.97
8692.00,0.97
8691.00,0.97
8690.00,0.98
8689.00,0.98
8688.00,0.98
8687.00,0.98
8686.00,0.98
8685.00,0.98
8684.00,0.98
8683.00,0.98
8682.00,0.98
8681.00,0.98
8680.00,0.98
8679.00,0.98
8678.00,0.98
8677.00,0.98
8676.00,0.98
8675.00,0.98
8674.00,0.98
8673.00,0.97
8672.00,0.97
8671.00,0.97
8670.00,0.97
8669.00,0.97
8668.00,0.97
8667.00,0.97
8666.00,0.97
8665.00,0.97
8664.00,0.97
8663.00,0.96
8662.00,0.96
8661.00,0.96
8660.00,0.96
8659.00,0.96
8658.00,0.96
8657.00,0.96
8656.00,0.96
8655.00,0.96
8654.00,0.96
8653.00,0.96
8652.00,0.96
8651.00,0.96
8650.00,0.96
8649.00,0.96
8648.00,0.96
8647.00,0.96
8646.00,0.96
8645.00,0.96
8644.00,0.96
8643.00,0.96
8642.00,0.96
8641.00,0.96
8640.00,0.96
8639.00,0.96
8638.00,0.96
8637.00,0.96
8636.00,0.96
8635.00,0.96
8634.00,0.96
8633.00,0.96
8632.00,0.96
8631.00,0.96
8630.00,0.96
8629.00,0.96
8628.00,0.96
8627.00,0.96
8626.00,0.96
8625.00,0.97
8624.00,0.97
8623.00,0.97
8622.00,0.97
8621.00,0.97
8620.00,0.97
8619.00,0.97
8618.00,0.97
8617.00,0.97
8616.00,0.97
8615.00,0.97
8614.00,0.97
8613.00,0.97
8612.00,0.97
8611.00,0.97
8610.00,0.97
8609.00,0.97
8608.00,0.97
8607.00,0.97
8606.00,0.97
8605.00,0.97
8604.00,0.97
8603.00,0.96
8602.00,0.96
8601.00,0.96
8600.00,0.96
8599.00,0.96
8598.00,0.96
8597.00,0.96
8596.00,0.96
8595.00,0.96
8594.00,0.96
8593.00,0.96
8592.00,0.96
8591.00,0.96
8590.00,0.96
8589.00,0.96
8588.00,0.96
8587.00,0.96
8586.00,0.96
8585.00,0.96
8584.00,0.96
8583.00,0.96
8582.00,0.96
8581.00,0.96
8580.00,0.96
8579.00,0.96
8578.00,0.96
8577.00,0.96
8576.00,0.96
8575.00,0.96
8574.00,0.95
8573.00,0.95
8572.00,0.95
8571.00,0.95
8570.00,0.95
8569.00,0.95
8568.00,0.95
8567.00,0.95
8566.00,0.95
8565.00,0.95
8564.00,0.95
8563.00,0.95
8562.00,0.94
8561.00,0.94
8560.00,0.94
8559.00,0.94
8558.00,0.94
8557.00,0.94
8556.00,0.94
8555.00,0.94
8554.00,0.94
8553.00,0.94
8552.00,0.94
8551.00,0.94
8550.00,0.94
8549.00,0.93
8548.00,0.93
8547.00,0.93
8546.00,0.93
8545.00,0.93
8544.00,0.94
8543.00,0.94
8542.00,0.94
8541.00,0.94
8540.00,0.94
8539.00,0.94
8538.00,0.94
8537.00,0.94
8536.00,0.94
8535.00,0.94
8534.00,0.94
8533.00,0.94
8532.00,0.94
8531.00,0.94
8530.00,0.94
8529.00,0.94
8528.00,0.94
8527.00,0.94
8526.00,0.94
8525.00,0.94
8524.00,0.94
8523.00,0.94
8522.00,0.94
8521.00,0.94
8520.00,0.94
8519.00,0.95
8518.00,0.95
8517.00,0.95
8516.00,0.95
8515.00,0.95
8514.00,0.95
8513.00,0.95
8512.00,0.95
8511.00,0.95
8510.00,0.95
8509.00,0.95
8508.00,0.95
8507.00,0.95
8506.00,0.95
8505.00,0.95
8504.00,0.95
8503.00,0.95
8502.00,0.95
8501.00,0.95
8500.00,0.94
8499.00,0.94
8498.00,0.94
8497.00,0.94
8496.00,0.94
8495.00,0.94
8494.00,0.93
8493.00,0.93
8492.00,0.93
8491.00,0.93
8490.00,0.93
8489.00,0.92
8488.00,0.92
8487.00,0.92
8486.00,0.92
8485.00,0.92
8484.00,0.92
8483.00,0.92
8482.00,0.92
8481.00,0.92
8480.00,0.92
8479.00,0.92
8478.00,0.92
8477.00,0.92
8476.00,0.92
8475.00,0.93
8474.00,0.93
8473.00,0.93
8472.00,0.93
8471.00,0.93
8470.00,0.93
8469.00,0.93
8468.00,0.93
8467.00,0.92
8466.00,0.92
8465.00,0.92
8464.00,0.92
8463.00,0.92
8462.00,0.92
8461.00,0.92
8460.00,0.92
8459.00,0.92
8458.00,0.91
8457.00,0.91
8456.00,0.91
8455.00,0.91
8454.00,0.91
8453.00,0.91
8452.00,0.91
8451.00,0.90
8450.00,0.90
8449.00,0.90
8448.00,0.90
8447.00,0.90
8446.00,0.90
8445.00,0.90
8444.00,0.90
8443.00,0.90
8442.00,0.90
8441.00,0.90
8440.00,0.90
8439.00,0.90
8438.00,0.90
8437.00,0.90
8436.00,0.90
8435.00,0.90
8434.00,0.90
8433.00,0.90
8432.00,0.90
8431.00,0.90
8430.00,0.90
8429.00,0.90
8428.00,0.90
8427.00,0.90
8426.00,0.90
8425.00,0.90
8424.00,0.90
8423.00,0.90
8422.00,0.90
8421.00,0.91
8420.00,0.91
8419.00,0.91
8418.00,0.91
8417.00,0.91
8416.00,0.91
8415.00,0.91
8414.00,0.91
8413.00,0.91
8412.00,0.91
8411.00,0.91
8410.00,0.91
8409.00,0.92
8408.00,0.92
8407.00,0.92
8406.00,0.92
8405.00,0.92
8404.00,0.92
8403.00,0.92
8402.00,0.92
8401.00,0.92
8400.00,0.92
8399.00,0.92
8398.00,0.93
8397.00,0.93
8396.00,0.93
8395.00,0.93
8394.00,0.93
8393.00,0.93
8392.00,0.93
8391.00,0.93
8390.00,0.93
8389.00,0.93
8388.00,0.93
8387.00,0.93
8386.00,0.93
8385.00,0.93
8384.00,0.93
8383.00,0.93
8382.00,0.93
8381.00,0.93
8380.00,0.93
8379.00,0.93
8378.00,0.93
8377.00,0.93
8376.00,0.93
8375.00,0.93
8374.00,0.93
8373.00,0.93
8372.00,0.93
8371.00,0.93
8370.00,0.93
8369.00,0.93
8368.00,0.93
8367.00,0.93
8366.00,0.93
8365.00,0.93
8364.00,0.93
8363.00,0.93
8362.00,0.93
8361.00,0.93
8360.00,0.93
8359.00,0.93
8358.00,0.93
8357.00,0.93
8356.00,0.93
8355.00,0.94
8354.00,0.94
8353.00,0.94
8352.00,0.94
8351.00,0.94
8350.00,0.94
8349.00,0.94
8348.00,0.94
8347.00,0.94
8346.00,0.94
8345.00,0.94
8344.00,0.94
8343.00,0.94
8342.00,0.94
8341.00,0.94
8340.00,0.94
8339.00,0.94
8338.00,0.94
8337.00,0.94
8336.00,0.94
8335.00,0.94
8334.00,0.94
8333.00,0.94
8332.00,0.93
8331.00,0.93
8330.00,0.93
8329.00,0.93
8328.00,0.93
8327.00,0.93
8326.00,0.93
8325.00,0.93
8324.00,0.93
8323.00,0.93
8322.00,0.93
8321.00,0.93
8320.00,0.93
8319.00,0.93
8318.00,0.93
8317.00,0.93
8316.00,0.93
8315.00,0.93
8314.00,0.93
8313.00,0.93
8312.00,0.94
8311.00,0.94
8310.00,0.94
8309.00,0.94
8308.00,0.94
8307.00,0.94
8306.00,0.94
8305.00,0.94
8304.00,0.94
8303.00,0.94
8302.00,0.94
8301.00,0.94
8300.00,0.94
8299.00,0.94
8298.00,0.94
8297.00,0.94
8296.00,0.94
8295.00,0.94
8294.00,0.94
8293.00,0.94
8292.00,0.94
8291.00,0.94
8290.00,0.94
8289.00,0.94
8288.00,0.94
8287.00,0.94
8286.00,0.94
8285.00,0.94
8284.00,0.94
8283.00,0.94
8282.00,0.94
8281.00,0.94
8280.00,0.94
8279.00,0.94
8278.00,0.94
8277.00,0.94
8276.00,0.94
8275.00,0.94
8274.00,0.94
8273.00,0.94
8272.00,0.94
8271.00,0.94
8270.00,0.94
8269.00,0.94
8268.00,0.94
8267.00,0.94
8266.00,0.94
8265.00,0.94
8264.00,0.94
8263.00,0.94
8262.00,0.94
8261.00,0.94
8260.00,0.94
8259.00,0.94
8258.00,0.94
8257.00,0.95
8256.00,0.95
8255.00,0.95
8254.00,0.95
8253.00,0.95
8252.00,0.95
8251.00,0.95
8250.00,0.95
8249.00,0.95
8248.00,0.96
8247.00,0.96
8246.00,0.96
8245.00,0.96
8244.00,0.96
8243.00,0.96
8242.00,0.96
8241.00,0.96
8240.00,0.96
8239.00,0.96
8238.00,0.96
8237.00,0.96
8236.00,0.96
8235.00,0.96
8234.00,0.96
8233.00,0.96
8232.00,0.96
8231.00,0.96
8230.00,0.96
8229.00,0.96
8228.00,0.96
8227.00,0.96
8226.00,0.96
8225.00,0.96
8224.00,0.96
8223.00,0.96
8222.00,0.96
8221.00,0.96
8220.00,0.96
8219.00,0.96
8218.00,0.96
8217.00,0.96
8216.00,0.96
8215.00,0.96
8214.00,0.96
8213.00,0.96
8212.00,0.96
8211.00,0.96
8210.00,0.96
8209.00,0.96
8208.00,0.96
8207.00,0.96
8206.00,0.96
8205.00,0.96
8204.00,0.96
8203.00,0.96
8202.00,0.96
8201.00,0.96
8200.00,0.97
8199.00,0.97
8198.00,0.97
8197.00,0.97
8196.00,0.97
8195.00,0.97
8194.00,0.97
8193.00,0.97
8192.00,0.98
8191.00,0.98
8190.00,0.98
8189.00,0.98
8188.00,0.98
8187.00,0.98
8186.00,0.98
8185.00,0.98
8184.00,0.98
8183.00,0.98
8182.00,0.98
8181.00,0.98
8180.00,0.98
8179.00,0.98
8178.00,0.98
8177.00,0.98
8176.00,0.98
8175.00,0.98
8174.00,0.98
8173.00,0.98
8172.00,0.98
8171.00,0.98
8170.00,0.98
8169.00,0.98
8168.00,0.98
8167.00,0.98
8166.00,0.98
8165.00,0.98
8164.00,0.98
8163.00,0.98
8162.00,0.98
8161.00,0.98
8160.00,0.98
8159.00,0.98
8158.00,0.98
8157.00,0.98
8156.00,0.98
8155.00,0.98
8154.00,0.98
8153.00,0.98
8152.00,0.98
8151.00,0.98
8150.00,0.98
8149.00,0.98
8148.00,0.98
8147.00,0.98
8146.00,0.98
8145.00,0.98
8144.00,0.98
8143.00,0.98
8142.00,0.98
8141.00,0.98
8140.00,0.98
8139.00,0.98
8138.00,0.98
8137.00,0.98
8136.00,0.98
8135.00,0.98
8134.00,0.98
8133.00,0.98
8132.00,0.98
8131.00,0.98
8130.00,0.98
8129.00,0.98
8128.00,0.98
8127.00,0.98
8126.00,0.98
8125.00,0.98
8124.00,0.98
8123.00,0.98
8122.00,0.98
8121.00,0.98
8120.00,0.98
8119.00,0.98
8118.00,0.98
8117.00,0.98
8116.00,0.98
8115.00,0.98
8114.00,0.98
8113.00,0.98
8112.00,0.98
8111.00,0.98
8110.00,0.98
8109.00,0.98
8108.00,0.98
8107.00,0.98
8106.00,0.98
8105.00,0.98
8104.00,0.98
8103.00,0.98
8102.00,0.98
8101.00,0.99
8100.00,0.99
8099.00,0.99
8098.00,0.99
8097.00,0.99
8096.00,0.99
8095.00,0.99
8094.00,0.99
8093.00,0.99
8092.00,0.99
8091.00,0.99
8090.00,0.99
8089.00,0.99
8088.00,1.00
8087.00,1.00
8086.00,1.00
8085.00,1.00
8084.00,1.00
8083.00,1.00
8082.00,1.00
8081.00,1.00
8080.00,1.00
8079.00,1.00
8078.00,1.00
8077.00,1.00
8076.00,1.00
8075.00,1.00
8074.00,1.00
8073.00,1.00
8072.00,1.00
8071.00,1.00
8070.00,1.00
8069.00,1.00
8068.00,0.99
8067.00,0.99
8066.00,0.99
8065.00,0.99
8064.00,0.99
8063.00,0.99
8062.00,0.99
8061.00,0.99
8060.00,0.99
8059.00,0.99
8058.00,0.99
8057.00,0.99
8056.00,0.99
8055.00,0.99
8054.00,0.99
8053.00,0.99
8052.00,0.99
8051.00,0.99
8050.00,0.99
8049.00,1.00
8048.00,1.00
8047.00,1.00
8046.00,1.00
8045.00,1.00
8044.00,1.00
8043.00,1.00
8042.00,1.00
8041.00,1.00
8040.00,1.00
8039.00,1.00
8038.00,1.01
8037.00,1.01
8036.00,1.01
8035.00,1.01
8034.00,1.01
8033.00,1.01
8032.00,1.01
8031.00,1.01
8030.00,1.01
8029.00,1.01
8028.00,1.01
8027.00,1.01
8026.00,1.01
8025.00,1.01
8024.00,1.01
8023.00,1.01
8022.00,1.01
8021.00,1.01
8020.00,1.01
8019.00,1.01
8018.00,1.01
8017.00,1.00
8016.00,1.00
8015.00,1.00
8014.00,1.00
8013.00,1.00
8012.00,1.00
8011.00,1.00
8010.00,1.00
8009.00,1.00
8008.00,1.00
8007.00,1.00
8006.00,1.00
8005.00,1.00
8004.00,1.00
8003.00,1.00
8002.00,1.00
8001.00,1.00
8000.00,1.00
7999.00,1.00
7998.00,1.00
7997.00,1.00
7996.00,1.01
7995.00,1.01
7994.00,1.01
7993.00,1.01
7992.00,1.01
7991.00,1.01
7990.00,1.01
7989.00,1.01
7988.00,1.01
7987.00,1.01
7986.00,1.01
7985.00,1.01
7984.00,1.01
7983.00,1.01
7982.00,1.01
7981.00,1.01
7980.00,1.01
7979.00,1.01
7978.00,1.01
7977.00,1.01
7976.00,1.01
7975.00,1.01
7974.00,1.01
7973.00,1.01
7972.00,1.01
7971.00,1.01
7970.00,1.01
7969.00,1.01
7968.00,1.01
7967.00,1.01
7966.00,1.01
7965.00,1.01
7964.00,1.01
7963.00,1.01
7962.00,1.02
7961.00,1.02
7960.00,1.02
7959.00,1.02
7958.00,1.02
7957.00,1.02
7956.00,1.02
7955.00,1.02
7954.00,1.02
7953.00,1.02
7952.00,1.02
7951.00,1.02
7950.00,1.02
7949.00,1.02
7948.00,1.02
7947.00,1.02
7946.00,1.02
7945.00,1.02
7944.00,1.02
7943.00,1.02
7942.00,1.02
7941.00,1.01
7940.00,1.01
7939.00,1.01
7938.00,1.01
7937.00,1.01
7936.00,1.01
7935.00,1.01
7934.00,1.01
7933.00,1.01
7932.00,1.01
7931.00,1.01
7930.00,1.01
7929.00,1.01
7928.00,1.01
7927.00,1.02
7926.00,1.02
7925.00,1.02
7924.00,1.02
7923.00,1.02
7922.00,1.02
7921.00,1.02
7920.00,1.02
7919.00,1.02
7918.00,1.02
7917.00,1.02
7916.00,1.02
7915.00,1.02
7914.00,1.02
7913.00,1.02
7912.00,1.02
7911.00,1.02
7910.00,1.02
7909.00,1.02
7908.00,1.02
7907.00,1.02
7906.00,1.02
7905.00,1.01
7904.00,1.01
7903.00,1.01
7902.00,1.01
7901.00,1.01
7900.00,1.01
7899.00,1.01
7898.00,1.01
7897.00,1.01
7896.00,1.01
7895.00,1.02
7894.00,1.02
7893.00,1.02
7892.00,1.02
7891.00,1.02
7890.00,1.02
7889.00,1.02
7888.00,1.02
7887.00,1.02
7886.00,1.02
7885.00,1.02
7884.00,1.02
7883.00,1.02
7882.00,1.02
7881.00,1.02
7880.00,1.02
7879.00,1.02
7878.00,1.02
7877.00,1.02
7876.00,1.02
7875.00,1.02
7874.00,1.02
7873.00,1.02
7872.00,1.02
7871.00,1.02
7870.00,1.02
7869.00,1.02
7868.00,1.02
7867.00,1.02
7866.00,1.02
7865.00,1.02
7864.00,1.02
7863.00,1.02
7862.00,1.02
7861.00,1.03
7860.00,1.03
7859.00,1.03
7858.00,1.03
7857.00,1.03
7856.00,1.03
7855.00,1.03
7854.00,1.03
7853.00,1.03
7852.00,1.03
7851.00,1.03
7850.00,1.03
7849.00,1.03
7848.00,1.03
7847.00,1.03
7846.00,1.03
7845.00,1.03
7844.00,1.03
7843.00,1.02
7842.00,1.02
7841.00,1.02
7840.00,1.02
7839.00,1.02
7838.00,1.02
7837.00,1.02
7836.00,1.02
7835.00,1.02
7834.00,1.02
7833.00,1.02
7832.00,1.02
7831.00,1.02
7830.00,1.02
7829.00,1.01
7828.00,1.01
7827.00,1.01
7826.00,1.01
7825.00,1.01
7824.00,1.01
7823.00,1.01
7822.00,1.01
7821.00,1.01
7820.00,1.01
7819.00,1.01
7818.00,1.01
7817.00,1.02
7816.00,1.02
7815.00,1.02
7814.00,1.02
7813.00,1.02
7812.00,1.02
7811.00,1.02
7810.00,1.02
7809.00,1.02
7808.00,1.02
7807.00,1.02
7806.00,1.02
7805.00,1.02
7804.00,1.03
7803.00,1.03
7802.00,1.03
7801.00,1.03
7800.00,1.03
7799.00,1.03
7798.00,1.03
7797.00,1.03
7796.00,1.03
7795.00,1.03
7794.00,1.03
7793.00,1.03
7792.00,1.03
7791.00,1.03
7790.00,1.03
7789.00,1.03
7788.00,1.02
7787.00,1.02
7786.00,1.02
7785.00,1.02
7784.00,1.02
7783.00,1.02
7782.00,1.02
7781.00,1.02
7780.00,1.02
7779.00,1.02
7778.00,1.02
7777.00,1.02
7776.00,1.02
7775.00,1.02
7774.00,1.03
7773.00,1.03
7772.00,1.03
7771.00,1.03
7770.00,1.03
7769.00,1.03
7768.00,1.03
7767.00,1.03
7766.00,1.03
7765.00,1.03
7764.00,1.03
7763.00,1.03
7762.00,1.03
7761.00,1.03
7760.00,1.03
7759.00,1.03
7758.00,1.03
7757.00,1.03
7756.00,1.03
7755.00,1.03
7754.00,1.03
7753.00,1.03
7752.00,1.03
7751.00,1.03
7750.00,1.03
7749.00,1.03
7748.00,1.03
7747.00,1.03
7746.00,1.03
7745.00,1.03
7744.00,1.03
7743.00,1.03
7742.00,1.03
7741.00,1.03
7740.00,1.03
7739.00,1.03
7738.00,1.03
7737.00,1.03
7736.00,1.03
7735.00,1.03
7734.00,1.03
7733.00,1.03
7732.00,1.03
7731.00,1.03
7730.00,1.03
7729.00,1.03
7728.00,1.03
7727.00,1.03
7726.00,1.03
7725.00,1.03
7724.00,1.03
7723.00,1.03
7722.00,1.03
7721.00,1.03
7720.00,1.03
7719.00,1.03
7718.00,1.03
7717.00,1.03
7716.00,1.03
7715.00,1.03
7714.00,1.03
7713.00,1.03
7712.00,1.03
7711.00,1.03
7710.00,1.03
7709.00,1.03
7708.00,1.03
7707.00,1.02
7706.00,1.02
7705.00,1.02
7704.00,1.02
7703.00,1.02
7702.00,1.02
7701.00,1.02
7700.00,1.02
7699.00,1.02
7698.00,1.02
7697.00,1.02
7696.00,1.02
7695.00,1.02
7694.00,1.02
7693.00,1.02
7692.00,1.02
7691.00,1.02
7690.00,1.02
7689.00,1.02
7688.00,1.02
7687.00,1.02
7686.00,1.02
7685.00,1.02
7684.00,1.02
7683.00,1.02
7682.00,1.02
7681.00,1.02
7680.00,1.02
7679.00,1.02
7678.00,1.02
7677.00,1.02
7676.00,1.02
7675.00,1.02
7674.00,1.02
7673.00,1.02
7672.00,1.02
7671.00,1.02
7670.00,1.02
7669.00,1.02
7668.00,1.02
7667.00,1.03
7666.00,1.03
7665.00,1.03
7664.00,1.03
7663.00,1.03
7662.00,1.03
7661.00,1.03
7660.00,1.03
7659.00,1.03
7658.00,1.03
7657.00,1.03
7656.00,1.03
7655.00,1.03
7654.00,1.03
7653.00,1.03
7652.00,1.03
7651.00,1.03
7650.00,1.03
7649.00,1.03
7648.00,1.03
7647.00,1.03
7646.00,1.03
7645.00,1.03
7644.00,1.03
7643.00,1.03
7642.00,1.03
7641.00,1.03
7640.00,1.03
7639.00,1.03
7638.00,1.03
7637.00,1.03
7636.00,1.03
7635.00,1.03
7634.00,1.03
7633.00,1.03
7632.00,1.03
7631.00,1.03
7630.00,1.03
7629.00,1.03
7628.00,1.03
7627.00,1.03
7626.00,1.03
7625.00,1.03
7624.00,1.03
7623.00,1.03
7622.00,1.03
7621.00,1.03
7620.00,1.03
7619.00,1.03
7618.00,1.03
7617.00,1.03
7616.00,1.03
7615.00,1.03
7614.00,1.03
7613.00,1.03
7612.00,1.03
7611.00,1.03
7610.00,1.03
7609.00,1.03
7608.00,1.02
7607.00,1.02
7606.00,1.02
7605.00,1.02
7604.00,1.02
7603.00,1.02
7602.00,1.02
7601.00,1.02
7600.00,1.02
7599.00,1.02
7598.00,1.02
7597.00,1.02
7596.00,1.02
7595.00,1.02
7594.00,1.02
7593.00,1.02
7592.00,1.02
7591.00,1.02
7590.00,1.02
7589.00,1.02
7588.00,1.02
7587.00,1.02
7586.00,1.02
7585.00,1.02
7584.00,1.02
7583.00,1.02
7582.00,1.02
7581.00,1.02
7580.00,1.02
7579.00,1.02
7578.00,1.02
7577.00,1.02
7576.00,1.02
7575.00,1.02
7574.00,1.02
7573.00,1.02
7572.00,1.02
7571.00,1.02
7570.00,1.02
7569.00,1.02
7568.00,1.02
7567.00,1.02
7566.00,1.02
7565.00,1.02
7564.00,1.02
7563.00,1.02
7562.00,1.02
7561.00,1.02
7560.00,1.02
7559.00,1.02
7558.00,1.02
7557.00,1.02
7556.00,1.02
7555.00,1.02
7554.00,1.02
7553.00,1.02
7552.00,1.01
7551.00,1.01
7550.00,1.01
7549.00,1.01
7548.00,1.01
7547.00,1.01
7546.00,1.01
7545.00,1.01
7544.00,1.01
7543.00,1.01
7542.00,1.01
7541.00,1.01
7540.00,1.01
7539.00,1.01
7538.00,1.01
7537.00,1.01
7536.00,1.01
7535.00,1.01
7534.00,1.01
7533.00,1.01
7532.00,1.01
7531.00,1.01
7530.00,1.01
7529.00,1.01
7528.00,1.01
7527.00,1.01
7526.00,1.01
7525.00,1.01
7524.00,1.01
7523.00,1.01
7522.00,1.00
7521.00,1.00
7520.00,1.00
7519.00,1.00
7518.00,1.00
7517.00,1.00
7516.00,1.00
7515.00,1.00
7514.00,1.00
7513.00,1.00
7512.00,1.00
7511.00,1.00
7510.00,1.00
7509.00,1.00
7508.00,1.00
7507.00,1.00
7506.00,1.00
7505.00,1.00
7504.00,1.00
7503.00,1.00
7502.00,1.00
7501.00,1.00
7500.00,1.00
7499.00,1.00
7498.00,1.00
7497.00,1.00
7496.00,1.00
7495.00,1.00
7494.00,1.00
7493.00,1.00
7492.00,1.00
7491.00,1.00
7490.00,1.00
7489.00,1.00
7488.00,1.00
7487.00,1.00
7486.00,1.00
7485.00,1.00
7484.00,1.00
7483.00,1.00
7482.00,1.00
7481.00,1.00
7480.00,1.00
7479.00,1.00
7478.00,1.00
7477.00,0.99
7476.00,0.99
7475.00,0.99
7474.00,0.99
7473.00,0.99
7472.00,0.99
7471.00,0.99
7470.00,0.99
7469.00,0.99
7468.00,0.99
7467.00,0.99
7466.00,0.99
7465.00,0.99
7464.00,0.99
7463.00,0.99
7462.00,0.99
7461.00,0.99
7460.00,0.99
7459.00,0.99
7458.00,0.99
7457.00,0.99
7456.00,0.99
7455.00,0.99
7454.00,0.99
7453.00,0.99
7452.00,0.99
7451.00,0.99
7450.00,0.99
7449.00,0.99
7448.00,0.99
7447.00,0.99
7446.00,0.99
7445.00,0.99
7444.00,0.99
7443.00,0.99
7442.00,0.99
7441.00,0.99
7440.00,0.99
7439.00,0.99
7438.00,0.99
7437.00,0.99
7436.00,0.99
7435.00,0.98
7434.00,0.98
7433.00,0.98
7432.00,0.98
7431.00,0.98
7430.00,0.98
7429.00,0.98
7428.00,0.98
7427.00,0.98
7426.00,0.98
7425.00,0.98
7424.00,0.98
7423.00,0.97
7422.00,0.97
7421.00,0.97
7420.00,0.97
7419.00,0.97
7418.00,0.97
7417.00,0.97
7416.00,0.97
7415.00,0.97
7414.00,0.97
7413.00,0.97
7412.00,0.97
7411.00,0.97
7410.00,0.97
7409.00,0.97
7408.00,0.97
7407.00,0.96
7406.00,0.96
7405.00,0.96
7404.00,0.96
7403.00,0.96
7402.00,0.96
7401.00,0.96
7400.00,0.96
7399.00,0.95
7398.00,0.95
7397.00,0.95
7396.00,0.95
7395.00,0.95
7394.00,0.95
7393.00,0.95
7392.00,0.95
7391.00,0.95
7390.00,0.95
7389.00,0.95
7388.00,0.95
7387.00,0.94
7386.00,0.94
7385.00,0.94
7384.00,0.94
7383.00,0.94
7382.00,0.94
7381.00,0.94
7380.00,0.94
7379.00,0.94
7378.00,0.94
7377.00,0.94
7376.00,0.94
7375.00,0.94
7374.00,0.94
7373.00,0.94
7372.00,0.94
7371.00,0.94
7370.00,0.94
7369.00,0.94
7368.00,0.94
7367.00,0.94
7366.00,0.94
7365.00,0.94
7364.00,0.94
7363.00,0.94
7362.00,0.94
7361.00,0.93
7360.00,0.93
7359.00,0.93
7358.00,0.93
7357.00,0.93
7356.00,0.93
7355.00,0.93
7354.00,0.93
7353.00,0.93
7352.00,0.93
7351.00,0.93
7350.00,0.93
7349.00,0.93
7348.00,0.93
7347.00,0.93
7346.00,0.93
7345.00,0.93
7344.00,0.93
7343.00,0.93
7342.00,0.92
7341.00,0.92
7340.00,0.92
7339.00,0.92
7338.00,0.92
7337.00,0.92
7336.00,0.92
7335.00,0.92
7334.00,0.92
7333.00,0.92
7332.00,0.92
7331.00,0.92
7330.00,0.92
7329.00,0.92
7328.00,0.92
7327.00,0.92
7326.00,0.92
7325.00,0.92
7324.00,0.92
7323.00,0.92
7322.00,0.92
7321.00,0.92
7320.00,0.92
7319.00,0.92
7318.00,0.92
7317.00,0.92
7316.00,0.92
7315.00,0.92
7314.00,0.92
7313.00,0.92
7312.00,0.92
7311.00,0.92
7310.00,0.92
7309.00,0.92
7308.00,0.92
7307.00,0.92
7306.00,0.92
7305.00,0.92
7304.00,0.92
7303.00,0.91
7302.00,0.91
7301.00,0.91
7300.00,0.91
7299.00,0.91
7298.00,0.91
7297.00,0.91
7296.00,0.91
7295.00,0.91
7294.00,0.91
7293.00,0.91
7292.00,0.91
7291.00,0.91
7290.00,0.91
7289.00,0.91
7288.00,0.90
7287.00,0.90
7286.00,0.90
7285.00,0.90
7284.00,0.90
7283.00,0.90
7282.00,0.90
7281.00,0.90
7280.00,0.90
7279.00,0.89
7278.00,0.89
7277.00,0.89
7276.00,0.89
7275.00,0.89
7274.00,0.89
7273.00,0.89
7272.00,0.89
7271.00,0.89
7270.00,0.89
7269.00,0.89
7268.00,0.89
7267.00,0.88
7266.00,0.88
7265.00,0.88
7264.00,0.88
7263.00,0.88
7262.00,0.88
7261.00,0.88
7260.00,0.88
7259.00,0.88
7258.00,0.87
7257.00,0.87
7256.00,0.87
7255.00,0.87
7254.00,0.87
7253.00,0.87
7252.00,0.86
7251.00,0.86
7250.00,0.86
7249.00,0.86
7248.00,0.86
7247.00,0.85
7246.00,0.85
7245.00,0.85
7244.00,0.85
7243.00,0.85
7242.00,0.84
7241.00,0.84
7240.00,0.84
7239.00,0.83
7238.00,0.83
7237.00,0.83
7236.00,0.83
7235.00,0.82
7234.00,0.82
7233.00,0.82
7232.00,0.81
7231.00,0.81
7230.00,0.81
7229.00,0.81
7228.00,0.80
7227.00,0.80
7226.00,0.80
7225.00,0.80
7224.00,0.79
7223.00,0.79
7222.00,0.79
7221.00,0.79
7220.00,0.78
7219.00,0.78
7218.00,0.78
7217.00,0.77
7216.00,0.77
7215.00,0.77
7214.00,0.77
7213.00,0.76
7212.00,0.76
7211.00,0.76
7210.00,0.75
7209.00,0.75
7208.00,0.75
7207.00,0.75
7206.00,0.74
7205.00,0.74
7204.00,0.74
7203.00,0.74
7202.00,0.73
7201.00,0.73
7200.00,0.73
7199.00,0.73
7198.00,0.72
7197.00,0.72
7196.00,0.72
7195.00,0.72
7194.00,0.71
7193.00,0.71
7192.00,0.71
7191.00,0.71
7190.00,0.70
7189.00,0.70
7188.00,0.70
7187.00,0.69
7186.00,0.69
7185.00,0.69
7184.00,0.69
7183.00,0.68
7182.00,0.68
7181.00,0.68
7180.00,0.68
7179.00,0.67
7178.00,0.67
7177.00,0.67
7176.00,0.66
7175.00,0.66
7174.00,0.66
7173.00,0.66
7172.00,0.65
7171.00,0.65
7170.00,0.65
7169.00,0.65
7168.00,0.64
7167.00,0.64
7166.00,0.64
7165.00,0.63
7164.00,0.63
7163.00,0.63
7162.00,0.63
7161.00,0.62
7160.00,0.62
7159.00,0.62
7158.00,0.61
7157.00,0.61
7156.00,0.61
7155.00,0.61
7154.00,0.61
7153.00,0.60
7152.00,0.60
7151.00,0.60
7150.00,0.60
7149.00,0.60
7148.00,0.59
7147.00,0.59
7146.00,0.59
7145.00,0.59
7144.00,0.58
7143.00,0.58
7142.00,0.58
7141.00,0.58
7140.00,0.57
7139.00,0.57
7138.00,0.57
7137.00,0.57
7136.00,0.56
7135.00,0.56
7134.00,0.56
7133.00,0.56
7132.00,0.55
7131.00,0.55
7130.00,0.55
7129.00,0.55
7128.00,0.55
7127.00,0.54
7126.00,0.54
7125.00,0.54
7124.00,0.54
7123.00,0.54
7122.00,0.53
7121.00,0.53
7120.00,0.53
7119.00,0.53
7118.00,0.53
7117.00,0.53
7116.00,0.53
7115.00,0.52
7114.00,0.52
7113.00,0.52
7112.00,0.52
7111.00,0.52
7110.00,0.52
7109.00,0.51
7108.00,0.51
7107.00,0.51
7106.00,0.51
7105.00,0.51
7104.00,0.51
7103.00,0.50
7102.00,0.50
7101.00,0.50
7100.00,0.50
7099.00,0.50
7098.00,0.50
7097.00,0.50
7096.00,0.50
7095.00,0.50
7094.00,0.50
7093.00,0.50
7092.00,0.50
7091.00,0.50
7090.00,0.50
7089.00,0.49
7088.00,0.49
7087.00,0.49
7086.00,0.49
7085.00,0.49
7084.00,0.49
7083.00,0.49
7082.00,0.49
7081.00,0.49
7080.00,0.49
7079.00,0.49
7078.00,0.49
7077.00,0.48
7076.00,0.48
7075.00,0.48
7074.00,0.48
7073.00,0.48
7072.00,0.47
7071.00,0.47
7070.00,0.47
7069.00,0.47
7068.00,0.47
7067.00,0.47
7066.00,0.46
7065.00,0.46
7064.00,0.46
7063.00,0.46
7062.00,0.46
7061.00,0.46
7060.00,0.46
7059.00,0.46
7058.00,0.46
7057.00,0.46
7056.00,0.46
7055.00,0.46
7054.00,0.46
7053.00,0.46
7052.00,0.46
7051.00,0.46
7050.00,0.46
7049.00,0.46
7048.00,0.46
7047.00,0.45
7046.00,0.45
7045.00,0.45
7044.00,0.45
7043.00,0.45
7042.00,0.45
7041.00,0.45
7040.00,0.45
7039.00,0.45
7038.00,0.45
7037.00,0.45
7036.00,0.45
7035.00,0.45
7034.00,0.45
7033.00,0.45
7032.00,0.45
7031.00,0.45
7030.00,0.45
7029.00,0.44
7028.00,0.44
7027.00,0.44
7026.00,0.44
7025.00,0.44
7024.00,0.44
7023.00,0.44
7022.00,0.44
7021.00,0.44
7020.00,0.44
7019.00,0.44
7018.00,0.44
7017.00,0.44
7016.00,0.44
7015.00,0.44
7014.00,0.44
7013.00,0.44
7012.00,0.44
7011.00,0.44
7010.00,0.44
7009.00,0.44
7008.00,0.44
7007.00,0.43
7006.00,0.43
7005.00,0.43
7004.00,0.43
7003.00,0.43
7002.00,0.43
7001.00,0.43
7000.00,0.43
6999.00,0.43
6998.00,0.43
6997.00,0.43
6996.00,0.43
6995.00,0.43
6994.00,0.43
6993.00,0.43
6992.00,0.42
6991.00,0.42
6990.00,0.42
6989.00,0.42
6988.00,0.42
6987.00,0.42
6986.00,0.42
6985.00,0.42
6984.00,0.42
6983.00,0.42
6982.00,0.42
6981.00,0.42
6980.00,0.42
6979.00,0.42
6978.00,0.42
6977.00,0.42
6976.00,0.42
6975.00,0.42
6974.00,0.42
6973.00,0.42
6972.00,0.42
6971.00,0.42
6970.00,0.42
6969.00,0.42
6968.00,0.42
6967.00,0.42
6966.00,0.42
6965.00,0.42
6964.00,0.42
6963.00,0.42
6962.00,0.42
6961.00,0.42
6960.00,0.42
6959.00,0.42
6958.00,0.42
6957.00,0.42
6956.00,0.42
6955.00,0.42
6954.00,0.42
6953.00,0.42
6952.00,0.42
6951.00,0.42
6950.00,0.42
6949.00,0.42
6948.00,0.42
6947.00,0.42
6946.00,0.41
6945.00,0.41
6944.00,0.41
6943.00,0.41
6942.00,0.41
6941.00,0.41
6940.00,0.41
6939.00,0.41
6938.00,0.41
6937.00,0.41
6936.00,0.41
6935.00,0.41
6934.00,0.41
6933.00,0.41
6932.00,0.41
6931.00,0.41
6930.00,0.41
6929.00,0.41
6928.00,0.41
6927.00,0.41
6926.00,0.41
6925.00,0.41
6924.00,0.41
6923.00,0.41
6922.00,0.41
6921.00,0.41
6920.00,0.41
6919.00,0.41
6918.00,0.41
6917.00,0.41
6916.00,0.41
6915.00,0.40
6914.00,0.40
6913.00,0.40
6912.00,0.40
6911.00,0.40
6910.00,0.40
6909.00,0.41
6908.00,0.41
6907.00,0.41
6906.00,0.41
6905.00,0.41
6904.00,0.41
6903.00,0.41
6902.00,0.41
6901.00,0.41
6900.00,0.41
6899.00,0.41
6898.00,0.41
6897.00,0.41
6896.00,0.41
6895.00,0.41
6894.00,0.41
6893.00,0.41
6892.00,0.41
6891.00,0.41
6890.00,0.41
6889.00,0.41
6888.00,0.41
6887.00,0.41
6886.00,0.41
6885.00,0.41
6884.00,0.41
6883.00,0.41
6882.00,0.41
6881.00,0.41
6880.00,0.41
6879.00,0.41
6878.00,0.41
6877.00,0.41
6876.00,0.41
6875.00,0.41
6874.00,0.41
6873.00,0.41
6872.00,0.41
6871.00,0.41
6870.00,0.41
6869.00,0.41
6868.00,0.41
6867.00,0.41
6866.00,0.41
6865.00,0.41
6864.00,0.41
6863.00,0.41
6862.00,0.41
6861.00,0.41
6860.00,0.41
6859.00,0.41
6858.00,0.41
6857.00,0.41
6856.00,0.41
6855.00,0.41
6854.00,0.41
6853.00,0.41
6852.00,0.41
6851.00,0.41
6850.00,0.41
6849.00,0.41
6848.00,0.41
6847.00,0.41
6846.00,0.41
6845.00,0.41
6844.00,0.42
6843.00,0.42
6842.00,0.42
6841.00,0.42
6840.00,0.42
6839.00,0.42
6838.00,0.42
6837.00,0.42
6836.00,0.42
6835.00,0.42
6834.00,0.42
6833.00,0.42
6832.00,0.42
6831.00,0.42
6830.00,0.42
6829.00,0.42
6828.00,0.42
6827.00,0.42
6826.00,0.42
6825.00,0.42
6824.00,0.42
6823.00,0.42
6822.00,0.42
6821.00,0.42
6820.00,0.42
6819.00,0.42
6818.00,0.42
6817.00,0.42
6816.00,0.42
6815.00,0.42
6814.00,0.42
6813.00,0.42
6812.00,0.42
6811.00,0.42
6810.00,0.42
6809.00,0.42
6808.00,0.42
6807.00,0.42
6806.00,0.42
6805.00,0.42
6804.00,0.42
6803.00,0.42
6802.00,0.42
6801.00,0.42
6800.00,0.42
6799.00,0.42
6798.00,0.42
6797.00,0.42
6796.00,0.42
6795.00,0.42
6794.00,0.42
6793.00,0.42
6792.00,0.42
6791.00,0.43
6790.00,0.43
6789.00,0.43
6788.00,0.43
6787.00,0.43
6786.00,0.43
6785.00,0.43
6784.00,0.43
6783.00,0.43
6782.00,0.43
6781.00,0.43
6780.00,0.43
6779.00,0.43
6778.00,0.43
6777.00,0.43
6776.00,0.43
6775.00,0.43
6774.00,0.43
6773.00,0.43
6772.00,0.43
6771.00,0.43
6770.00,0.43
6769.00,0.43
6768.00,0.43
6767.00,0.44
6766.00,0.44
6765.00,0.44
6764.00,0.44
6763.00,0.44
6762.00,0.44
6761.00,0.44
6760.00,0.44
6759.00,0.44
6758.00,0.44
6757.00,0.44
6756.00,0.44
6755.00,0.44
6754.00,0.44
6753.00,0.44
6752.00,0.44
6751.00,0.44
6750.00,0.44
6749.00,0.44
6748.00,0.44
6747.00,0.44
6746.00,0.44
6745.00,0.44
6744.00,0.44
6743.00,0.44
6742.00,0.44
6741.00,0.44
6740.00,0.44
6739.00,0.45
6738.00,0.45
6737.00,0.45
6736.00,0.45
6735.00,0.45
6734.00,0.45
6733.00,0.45
6732.00,0.45
6731.00,0.45
6730.00,0.45
6729.00,0.45
6728.00,0.45
6727.00,0.45
6726.00,0.45
6725.00,0.45
6724.00,0.45
6723.00,0.45
6722.00,0.46
6721.00,0.46
6720.00,0.46
6719.00,0.46
6718.00,0.46
6717.00,0.46
6716.00,0.46
6715.00,0.46
6714.00,0.46
6713.00,0.46
6712.00,0.46
6711.00,0.46
6710.00,0.46
6709.00,0.46
6708.00,0.46
6707.00,0.46
6706.00,0.46
6705.00,0.46
6704.00,0.46
6703.00,0.46
6702.00,0.46
6701.00,0.46
6700.00,0.47
6699.00,0.47
6698.00,0.47
6697.00,0.47
6696.00,0.47
6695.00,0.47
6694.00,0.47
6693.00,0.47
6692.00,0.47
6691.00,0.47
6690.00,0.47
6689.00,0.47
6688.00,0.47
6687.00,0.48
6686.00,0.48
6685.00,0.48
6684.00,0.48
6683.00,0.48
6682.00,0.48
6681.00,0.48
6680.00,0.48
6679.00,0.48
6678.00,0.48
6677.00,0.48
6676.00,0.48
6675.00,0.48
6674.00,0.48
6673.00,0.48
6672.00,0.48
6671.00,0.49
6670.00,0.49
6669.00,0.49
6668.00,0.49
6667.00,0.49
6666.00,0.49
6665.00,0.49
6664.00,0.49
6663.00,0.49
6662.00,0.49
6661.00,0.49
6660.00,0.50
6659.00,0.50
6658.00,0.50
6657.00,0.50
6656.00,0.50
6655.00,0.50
6654.00,0.50
6653.00,0.50
6652.00,0.50
6651.00,0.50
6650.00,0.50
6649.00,0.50
6648.00,0.50
6647.00,0.50
6646.00,0.50
6645.00,0.50
6644.00,0.51
6643.00,0.51
6642.00,0.51
6641.00,0.51
6640.00,0.51
6639.00,0.51
6638.00,0.51
6637.00,0.51
6636.00,0.51
6635.00,0.51
6634.00,0.51
6633.00,0.51
6632.00,0.51
6631.00,0.51
6630.00,0.51
6629.00,0.52
6628.00,0.52
6627.00,0.52
6626.00,0.52
6625.00,0.52
6624.00,0.52
6623.00,0.52
6622.00,0.52
6621.00,0.52
6620.00,0.52
6619.00,0.52
6618.00,0.52
6617.00,0.52
6616.00,0.52
6615.00,0.52
6614.00,0.53
6613.00,0.53
6612.00,0.53
6611.00,0.53
6610.00,0.53
6609.00,0.53
6608.00,0.53
6607.00,0.53
6606.00,0.53
6605.00,0.53
6604.00,0.53
6603.00,0.53
6602.00,0.53
6601.00,0.54
6600.00,0.54
6599.00,0.54
6598.00,0.54
6597.00,0.54
6596.00,0.54
6595.00,0.54
6594.00,0.54
6593.00,0.54
6592.00,0.54
6591.00,0.55
6590.00,0.55
6589.00,0.55
6588.00,0.55
6587.00,0.55
6586.00,0.55
6585.00,0.55
6584.00,0.55
6583.00,0.55
6582.00,0.55
6581.00,0.55
6580.00,0.55
6579.00,0.55
6578.00,0.55
6577.00,0.55
6576.00,0.55
6575.00,0.56
6574.00,0.56
6573.00,0.56
6572.00,0.56
6571.00,0.56
6570.00,0.56
6569.00,0.56
6568.00,0.56
6567.00,0.56
6566.00,0.56
6565.00,0.56
6564.00,0.57
6563.00,0.57
6562.00,0.57
6561.00,0.57
6560.00,0.57
6559.00,0.57
6558.00,0.57
6557.00,0.57
6556.00,0.57
6555.00,0.57
6554.00,0.57
6553.00,0.58
6552.00,0.58
6551.00,0.58
6550.00,0.58
6549.00,0.58
6548.00,0.58
6547.00,0.58
6546.00,0.58
6545.00,0.58
6544.00,0.58
6543.00,0.58
6542.00,0.58
6541.00,0.58
6540.00,0.59
6539.00,0.59
6538.00,0.59
6537.00,0.59
6536.00,0.59
6535.00,0.59
6534.00,0.59
6533.00,0.59
6532.00,0.59
6531.00,0.59
6530.00,0.59
6529.00,0.59
6528.00,0.59
6527.00,0.59
6526.00,0.59
6525.00,0.59
6524.00,0.59
6523.00,0.59
6522.00,0.59
6521.00,0.59
6520.00,0.59
6519.00,0.59
6518.00,0.59
6517.00,0.59
6516.00,0.60
6515.00,0.60
6514.00,0.60
6513.00,0.60
6512.00,0.60
6511.00,0.60
6510.00,0.60
6509.00,0.60
6508.00,0.60
6507.00,0.60
6506.00,0.61
6505.00,0.61
6504.00,0.61
6503.00,0.61
6502.00,0.61
6501.00,0.61
6500.00,0.61
6499.00,0.61
6498.00,0.62
6497.00,0.62
6496.00,0.62
6495.00,0.62
6494.00,0.62
6493.00,0.62
6492.00,0.62
6491.00,0.62
6490.00,0.62
6489.00,0.62
6488.00,0.62
6487.00,0.62
6486.00,0.62
6485.00,0.62
6484.00,0.62
6483.00,0.62
6482.00,0.62
6481.00,0.62
6480.00,0.62
6479.00,0.62
6478.00,0.62
6477.00,0.62
6476.00,0.62
6475.00,0.62
6474.00,0.62
6473.00,0.63
6472.00,0.63
6471.00,0.63
6470.00,0.63
6469.00,0.63
6468.00,0.63
6467.00,0.63
6466.00,0.63
6465.00,0.63
6464.00,0.63
6463.00,0.63
6462.00,0.63
6461.00,0.63
6460.00,0.64
6459.00,0.64
6458.00,0.64
6457.00,0.64
6456.00,0.64
6455.00,0.64
6454.00,0.64
6453.00,0.64
6452.00,0.64
6451.00,0.64
6450.00,0.65
6449.00,0.65
6448.00,0.65
6447.00,0.65
6446.00,0.65
6445.00,0.65
6444.00,0.65
6443.00,0.65
6442.00,0.65
6441.00,0.65
6440.00,0.65
6439.00,0.65
6438.00,0.65
6437.00,0.65
6436.00,0.65
6435.00,0.65
6434.00,0.65
6433.00,0.65
6432.00,0.65
6431.00,0.65
6430.00,0.65
6429.00,0.65
6428.00,0.65
6427.00,0.66
6426.00,0.66
6425.00,0.66
6424.00,0.66
6423.00,0.66
6422.00,0.66
6421.00,0.66
6420.00,0.66
6419.00,0.66
6418.00,0.66
6417.00,0.66
6416.00,0.66
6415.00,0.66
6414.00,0.66
6413.00,0.66
6412.00,0.66
6411.00,0.66
6410.00,0.66
6409.00,0.66
6408.00,0.66
6407.00,0.67
6406.00,0.67
6405.00,0.67
6404.00,0.67
6403.00,0.67
6402.00,0.67
6401.00,0.67
6400.00,0.67
6399.00,0.67
6398.00,0.67
6397.00,0.67
6396.00,0.67
6395.00,0.67
6394.00,0.67
6393.00,0.67
6392.00,0.67
6391.00,0.67
6390.00,0.67
6389.00,0.67
6388.00,0.68
6387.00,0.68
6386.00,0.68
6385.00,0.68
6384.00,0.68
6383.00,0.68
6382.00,0.68
6381.00,0.68
6380.00,0.68
6379.00,0.69
6378.00,0.69
6377.00,0.69
6376.00,0.69
6375.00,0.69
6374.00,0.69
6373.00,0.69
6372.00,0.69
6371.00,0.69
6370.00,0.69
6369.00,0.69
6368.00,0.69
6367.00,0.69
6366.00,0.69
6365.00,0.69
6364.00,0.69
6363.00,0.69
6362.00,0.69
6361.00,0.70
6360.00,0.70
6359.00,0.70
6358.00,0.70
6357.00,0.70
6356.00,0.70
6355.00,0.70
6354.00,0.70
6353.00,0.70
6352.00,0.70
6351.00,0.70
6350.00,0.70
6349.00,0.71
6348.00,0.71
6347.00,0.71
6346.00,0.71
6345.00,0.71
6344.00,0.71
6343.00,0.71
6342.00,0.71
6341.00,0.71
6340.00,0.71
6339.00,0.71
6338.00,0.71
6337.00,0.71
6336.00,0.71
6335.00,0.72
6334.00,0.72
6333.00,0.72
6332.00,0.72
6331.00,0.72
6330.00,0.72
6329.00,0.72
6328.00,0.72
6327.00,0.72
6326.00,0.72
6325.00,0.72
6324.00,0.73
6323.00,0.73
6322.00,0.73
6321.00,0.73
6320.00,0.73
6319.00,0.73
6318.00,0.73
6317.00,0.73
6316.00,0.74
6315.00,0.74
6314.00,0.74
6313.00,0.74
6312.00,0.74
6311.00,0.74
6310.00,0.74
6309.00,0.74
6308.00,0.74
6307.00,0.74
6306.00,0.74
6305.00,0.75
6304.00,0.75
6303.00,0.75
6302.00,0.75
6301.00,0.75
6300.00,0.75
6299.00,0.75
6298.00,0.75
6297.00,0.75
6296.00,0.75
6295.00,0.75
6294.00,0.75
6293.00,0.75
6292.00,0.76
6291.00,0.76
6290.00,0.76
6289.00,0.76
6288.00,0.76
6287.00,0.76
6286.00,0.76
6285.00,0.76
6284.00,0.76
6283.00,0.76
6282.00,0.76
6281.00,0.76
6280.00,0.77
6279.00,0.77
6278.00,0.77
6277.00,0.77
6276.00,0.77
6275.00,0.77
6274.00,0.77
6273.00,0.77
6272.00,0.77
6271.00,0.77
6270.00,0.77
6269.00,0.78
6268.00,0.78
6267.00,0.78
6266.00,0.78
6265.00,0.78
6264.00,0.78
6263.00,0.78
6262.00,0.78
6261.00,0.78
6260.00,0.78
6259.00,0.78
6258.00,0.79
6257.00,0.79
6256.00,0.79
6255.00,0.79
6254.00,0.79
6253.00,0.79
6252.00,0.79
6251.00,0.79
6250.00,0.79
6249.00,0.80
6248.00,0.80
6247.00,0.80
6246.00,0.80
6245.00,0.80
6244.00,0.80
6243.00,0.80
6242.00,0.80
6241.00,0.81
6240.00,0.81
6239.00,0.81
6238.00,0.81
6237.00,0.81
6236.00,0.81
6235.00,0.81
6234.00,0.81
6233.00,0.81
6232.00,0.82
6231.00,0.82
6230.00,0.82
6229.00,0.82
6228.00,0.82
6227.00,0.82
6226.00,0.82
6225.00,0.82
6224.00,0.82
6223.00,0.82
6222.00,0.82
6221.00,0.82
6220.00,0.82
6219.00,0.82
6218.00,0.82
6217.00,0.82
6216.00,0.83
6215.00,0.83
6214.00,0.83
6213.00,0.83
6212.00,0.83
6211.00,0.83
6210.00,0.83
6209.00,0.83
6208.00,0.83
6207.00,0.84
6206.00,0.84
6205.00,0.84
6204.00,0.84
6203.00,0.84
6202.00,0.84
6201.00,0.84
6200.00,0.84
6199.00,0.84
6198.00,0.84
6197.00,0.84
6196.00,0.84
6195.00,0.84
6194.00,0.84
6193.00,0.85
6192.00,0.85
6191.00,0.85
6190.00,0.85
6189.00,0.85
6188.00,0.85
6187.00,0.85
6186.00,0.85
6185.00,0.85
6184.00,0.86
6183.00,0.86
6182.00,0.86
6181.00,0.86
6180.00,0.86
6179.00,0.86
6178.00,0.86
6177.00,0.86
6176.00,0.86
6175.00,0.87
6174.00,0.87
6173.00,0.87
6172.00,0.87
6171.00,0.87
6170.00,0.87
6169.00,0.87
6168.00,0.87
6167.00,0.87
6166.00,0.87
6165.00,0.88
6164.00,0.88
6163.00,0.88
6162.00,0.88
6161.00,0.88
6160.00,0.88
6159.00,0.88
6158.00,0.88
6157.00,0.88
6156.00,0.88
6155.00,0.88
6154.00,0.88
6153.00,0.88
6152.00,0.88
6151.00,0.89
6150.00,0.89
6149.00,0.89
6148.00,0.89
6147.00,0.89
6146.00,0.89
6145.00,0.89
6144.00,0.89
6143.00,0.90
6142.00,0.90
6141.00,0.90
6140.00,0.90
6139.00,0.90
6138.00,0.91
6137.00,0.91
6136.00,0.91
6135.00,0.91
6134.00,0.91
6133.00,0.91
6132.00,0.92
6131.00,0.92
6130.00,0.92
6129.00,0.92
6128.00,0.92
6127.00,0.92
6126.00,0.92
6125.00,0.92
6124.00,0.92
6123.00,0.92
6122.00,0.92
6121.00,0.92
6120.00,0.93
6119.00,0.93
6118.00,0.93
6117.00,0.93
6116.00,0.93
6115.00,0.93
6114.00,0.93
6113.00,0.93
6112.00,0.93
6111.00,0.93
6110.00,0.93
6109.00,0.93
6108.00,0.93
6107.00,0.93
6106.00,0.93
6105.00,0.94
6104.00,0.94
6103.00,0.94
6102.00,0.94
6101.00,0.94
6100.00,0.94
6099.00,0.94
6098.00,0.94
6097.00,0.95
6096.00,0.95
6095.00,0.95
6094.00,0.95
6093.00,0.95
6092.00,0.95
6091.00,0.95
6090.00,0.95
6089.00,0.95
6088.00,0.96
6087.00,0.96
6086.00,0.96
6085.00,0.96
6084.00,0.96
6083.00,0.96
6082.00,0.96
6081.00,0.96
6080.00,0.96
6079.00,0.96
6078.00,0.96
6077.00,0.96
6076.00,0.96
6075.00,0.96
6074.00,0.96
6073.00,0.97
6072.00,0.97
6071.00,0.97
6070.00,0.97
6069.00,0.97
6068.00,0.97
6067.00,0.97
6066.00,0.97
6065.00,0.97
6064.00,0.97
6063.00,0.98
6062.00,0.98
6061.00,0.98
6060.00,0.98
6059.00,0.98
6058.00,0.98
6057.00,0.98
6056.00,0.98
6055.00,0.98
6054.00,0.99
6053.00,0.99
6052.00,0.99
6051.00,0.99
6050.00,0.99
6049.00,0.99
6048.00,0.99
6047.00,0.99
6046.00,0.99
6045.00,0.99
6044.00,0.99
6043.00,0.99
6042.00,0.99
6041.00,0.99
6040.00,0.99
6039.00,0.99
6038.00,1.00
6037.00,1.00
6036.00,1.00
6035.00,1.00
6034.00,1.00
6033.00,1.00
6032.00,1.00
6031.00,1.00
6030.00,1.00
6029.00,1.00
6028.00,1.00
6027.00,1.00
6026.00,1.00
6025.00,1.00
6024.00,1.00
6023.00,1.00
6022.00,1.00
6021.00,1.00
6020.00,1.00
6019.00,1.00
6018.00,1.00
6017.00,1.00
6016.00,1.00
6015.00,1.00
6014.00,1.00
6013.00,1.00
6012.00,1.00
6011.00,1.00
6010.00,1.00
6009.00,1.00
6008.00,1.00
6007.00,1.00
6006.00,1.00
6005.00,1.00
6004.00,1.00
6003.00,1.00
6002.00,1.00
6001.00,1.00
6000.00,1.00
5999.00,1.00
5998.00,1.00
5997.00,1.00
5996.00,1.00
5995.00,0.99
5994.00,0.99
5993.00,0.99
5992.00,0.99
5991.00,0.99
5990.00,0.99
5989.00,0.99
5988.00,0.99
5987.00,0.99
5986.00,0.98
5985.00,0.98
5984.00,0.98
5983.00,0.98
5982.00,0.98
5981.00,0.97
5980.00,0.97
5979.00,0.97
5978.00,0.97
5977.00,0.97
5976.00,0.96
5975.00,0.96
5974.00,0.96
5973.00,0.95
5972.00,0.95
5971.00,0.95
5970.00,0.94
5969.00,0.94
5968.00,0.94
5967.00,0.93
5966.00,0.93
5965.00,0.93
5964.00,0.92
5963.00,0.92
5962.00,0.91
5961.00,0.91
5960.00,0.91
5959.00,0.90
5958.00,0.90
5957.00,0.89
5956.00,0.89
5955.00,0.89
5954.00,0.88
5953.00,0.88
5952.00,0.88
5951.00,0.88
5950.00,0.87
5949.00,0.87
5948.00,0.87
5947.00,0.87
5946.00,0.86
5945.00,0.86
5944.00,0.86
5943.00,0.86
5942.00,0.86
5941.00,0.85
5940.00,0.85
5939.00,0.85
5938.00,0.85
5937.00,0.85
5936.00,0.85
5935.00,0.85
5934.00,0.85
5933.00,0.85
5932.00,0.85
5931.00,0.84
5930.00,0.84
5929.00,0.84
5928.00,0.84
5927.00,0.84
5926.00,0.84
5925.00,0.84
5924.00,0.84
5923.00,0.84
5922.00,0.83
5921.00,0.83
5920.00,0.83
5919.00,0.83
5918.00,0.83
5917.00,0.82
5916.00,0.82
5915.00,0.82
5914.00,0.82
5913.00,0.82
5912.00,0.82
5911.00,0.81
5910.00,0.81
5909.00,0.81
5908.00,0.81
5907.00,0.81
5906.00,0.81
5905.00,0.81
5904.00,0.81
5903.00,0.81
5902.00,0.81
5901.00,0.81
5900.00,0.81
5899.00,0.81
5898.00,0.81
5897.00,0.81
5896.00,0.81
5895.00,0.81
5894.00,0.82
5893.00,0.82
5892.00,0.82
5891.00,0.82
5890.00,0.82
5889.00,0.82
5888.00,0.83
5887.00,0.83
5886.00,0.83
5885.00,0.83
5884.00,0.84
5883.00,0.84
5882.00,0.84
5881.00,0.84
5880.00,0.84
5879.00,0.85
5878.00,0.85
5877.00,0.85
5876.00,0.85
5875.00,0.85
5874.00,0.85
5873.00,0.85
5872.00,0.86
5871.00,0.86
5870.00,0.86
5869.00,0.86
5868.00,0.86
5867.00,0.86
5866.00,0.86
5865.00,0.86
5864.00,0.87
5863.00,0.87
5862.00,0.87
5861.00,0.87
5860.00,0.87
5859.00,0.87
5858.00,0.87
5857.00,0.87
5856.00,0.88
5855.00,0.88
5854.00,0.88
5853.00,0.88
5852.00,0.88
5851.00,0.88
5850.00,0.88
5849.00,0.88
5848.00,0.88
5847.00,0.88
5846.00,0.88
5845.00,0.88
5844.00,0.88
5843.00,0.88
5842.00,0.88
5841.00,0.88
5840.00,0.88
5839.00,0.88
5838.00,0.88
5837.00,0.88
5836.00,0.88
5835.00,0.88
5834.00,0.88
5833.00,0.88
5832.00,0.88
5831.00,0.88
5830.00,0.88
5829.00,0.88
5828.00,0.88
5827.00,0.88
5826.00,0.88
5825.00,0.88
5824.00,0.88
5823.00,0.88
5822.00,0.88
5821.00,0.88
5820.00,0.88
5819.00,0.88
5818.00,0.88
5817.00,0.88
5816.00,0.88
5815.00,0.88
5814.00,0.88
5813.00,0.88
5812.00,0.88
5811.00,0.88
5810.00,0.88
5809.00,0.88
5808.00,0.88
5807.00,0.88
5806.00,0.88
5805.00,0.88
5804.00,0.88
5803.00,0.88
5802.00,0.88
5801.00,0.87
5800.00,0.87
5799.00,0.87
5798.00,0.87
5797.00,0.87
5796.00,0.87
5795.00,0.87
5794.00,0.86
5793.00,0.86
5792.00,0.86
5791.00,0.86
5790.00,0.86
5789.00,0.86
5788.00,0.85
5787.00,0.85
5786.00,0.85
5785.00,0.85
5784.00,0.85
5783.00,0.85
5782.00,0.84
5781.00,0.84
5780.00,0.84
5779.00,0.84
5778.00,0.84
5777.00,0.84
5776.00,0.84
5775.00,0.84
5774.00,0.84
5773.00,0.84
5772.00,0.84
5771.00,0.84
5770.00,0.84
5769.00,0.84
5768.00,0.84
5767.00,0.84
5766.00,0.85
5765.00,0.85
5764.00,0.85
5763.00,0.85
5762.00,0.85
5761.00,0.85
5760.00,0.86
5759.00,0.86
5758.00,0.86
5757.00,0.86
5756.00,0.86
5755.00,0.86
5754.00,0.87
5753.00,0.87
5752.00,0.87
5751.00,0.87
5750.00,0.87
5749.00,0.88
5748.00,0.88
5747.00,0.88
5746.00,0.88
5745.00,0.88
5744.00,0.88
5743.00,0.88
5742.00,0.89
5741.00,0.89
5740.00,0.89
5739.00,0.89
5738.00,0.89
5737.00,0.89
5736.00,0.89
5735.00,0.89
5734.00,0.90
5733.00,0.90
5732.00,0.90
5731.00,0.90
5730.00,0.90
5729.00,0.90
5728.00,0.90
5727.00,0.90
5726.00,0.90
5725.00,0.90
5724.00,0.90
5723.00,0.90
5722.00,0.90
5721.00,0.90
5720.00,0.90
5719.00,0.90
5718.00,0.90
5717.00,0.90
5716.00,0.89
5715.00,0.89
5714.00,0.89
5713.00,0.89
5712.00,0.89
5711.00,0.89
5710.00,0.89
5709.00,0.89
5708.00,0.89
5707.00,0.89
5706.00,0.89
5705.00,0.89
5704.00,0.89
5703.00,0.89
5702.00,0.89
5701.00,0.89
5700.00,0.89
5699.00,0.89
5698.00,0.89
5697.00,0.89
5696.00,0.88
5695.00,0.88
5694.00,0.88
5693.00,0.88
5692.00,0.88
5691.00,0.88
5690.00,0.88
5689.00,0.88
5688.00,0.88
5687.00,0.88
5686.00,0.88
5685.00,0.87
5684.00,0.87
5683.00,0.87
5682.00,0.87
5681.00,0.87
5680.00,0.87
5679.00,0.87
5678.00,0.87
5677.00,0.87
5676.00,0.87
5675.00,0.87
5674.00,0.86
5673.00,0.86
5672.00,0.86
5671.00,0.86
5670.00,0.86
5669.00,0.86
5668.00,0.86
5667.00,0.86
5666.00,0.86
5665.00,0.86
5664.00,0.87
5663.00,0.87
5662.00,0.87
5661.00,0.87
5660.00,0.87
5659.00,0.87
5658.00,0.87
5657.00,0.87
5656.00,0.87
5655.00,0.87
5654.00,0.87
5653.00,0.87
5652.00,0.88
5651.00,0.88
5650.00,0.88
5649.00,0.88
5648.00,0.88
5647.00,0.88
5646.00,0.88
5645.00,0.88
5644.00,0.88
5643.00,0.89
5642.00,0.89
5641.00,0.89
5640.00,0.89
5639.00,0.89
5638.00,0.89
5637.00,0.89
5636.00,0.90
5635.00,0.90
5634.00,0.90
5633.00,0.90
5632.00,0.90
5631.00,0.90
5630.00,0.90
5629.00,0.90
5628.00,0.91
5627.00,0.91
5626.00,0.91
5625.00,0.91
5624.00,0.91
5623.00,0.91
5622.00,0.91
5621.00,0.91
5620.00,0.91
5619.00,0.91
5618.00,0.91
5617.00,0.91
5616.00,0.91
5615.00,0.91
5614.00,0.91
5613.00,0.91
5612.00,0.92
5611.00,0.92
5610.00,0.92
5609.00,0.92
5608.00,0.92
5607.00,0.92
5606.00,0.92
5605.00,0.92
5604.00,0.92
5603.00,0.92
5602.00,0.93
5601.00,0.93
5600.00,0.93
5599.00,0.93
5598.00,0.93
5597.00,0.93
5596.00,0.93
5595.00,0.93
5594.00,0.93
5593.00,0.94
5592.00,0.94
5591.00,0.94
5590.00,0.94
5589.00,0.94
5588.00,0.94
5587.00,0.94
5586.00,0.94
5585.00,0.94
5584.00,0.94
5583.00,0.94
5582.00,0.94
5581.00,0.94
5580.00,0.94
5579.00,0.94
5578.00,0.95
5577.00,0.95
5576.00,0.95
5575.00,0.95
5574.00,0.95
5573.00,0.95
5572.00,0.95
5571.00,0.95
5570.00,0.95
5569.00,0.95
5568.00,0.95
5567.00,0.95
5566.00,0.96
5565.00,0.96
5564.00,0.96
5563.00,0.96
5562.00,0.96
5561.00,0.96
5560.00,0.96
5559.00,0.96
5558.00,0.96
5557.00,0.96
5556.00,0.97
5555.00,0.97
5554.00,0.97
5553.00,0.97
5552.00,0.97
5551.00,0.97
5550.00,0.97
5549.00,0.97
5548.00,0.97
5547.00,0.97
5546.00,0.97
5545.00,0.97
5544.00,0.97
5543.00,0.97
5542.00,0.98
5541.00,0.98
5540.00,0.98
5539.00,0.98
5538.00,0.98
5537.00,0.98
5536.00,0.98
5535.00,0.98
5534.00,0.98
5533.00,0.98
5532.00,0.98
5531.00,0.98
5530.00,0.98
5529.00,0.98
5528.00,0.99
5527.00,0.99
5526.00,0.99
5525.00,0.99
5524.00,0.99
5523.00,0.99
5522.00,0.99
5521.00,0.99
5520.00,0.99
5519.00,0.99
5518.00,0.99
5517.00,0.99
5516.00,0.99
5515.00,0.99
5514.00,0.99
5513.00,1.00
5512.00,1.00
5511.00,1.00
5510.00,1.00
5509.00,1.00
5508.00,1.00
5507.00,1.00
5506.00,1.00
5505.00,1.00
5504.00,1.00
5503.00,1.00
5502.00,1.00
5501.00,1.00
5500.00,1.00
5499.00,1.00
5498.00,1.00
5497.00,1.00
5496.00,1.00
5495.00,1.00
5494.00,1.00
5493.00,1.00
5492.00,1.00
5491.00,1.00
5490.00,1.00
5489.00,1.00
5488.00,1.01
5487.00,1.01
5486.00,1.01
5485.00,1.01
5484.00,1.01
5483.00,1.01
5482.00,1.01
5481.00,1.01
5480.00,1.01
5479.00,1.01
5478.00,1.02
5477.00,1.02
5476.00,1.02
5475.00,1.02
5474.00,1.02
5473.00,1.02
5472.00,1.02
5471.00,1.02
5470.00,1.02
5469.00,1.02
5468.00,1.02
5467.00,1.02
5466.00,1.02
5465.00,1.03
5464.00,1.03
5463.00,1.03
5462.00,1.03
5461.00,1.03
5460.00,1.03
5459.00,1.03
5458.00,1.03
5457.00,1.03
5456.00,1.03
5455.00,1.03
5454.00,1.03
5453.00,1.03
5452.00,1.03
5451.00,1.03
5450.00,1.03
5449.00,1.03
5448.00,1.03
5447.00,1.03
5446.00,1.03
5445.00,1.03
5444.00,1.03
5443.00,1.03
5442.00,1.03
5441.00,1.03
5440.00,1.03
5439.00,1.03
5438.00,1.03
5437.00,1.03
5436.00,1.03
5435.00,1.03
5434.00,1.03
5433.00,1.03
5432.00,1.03
5431.00,1.03
5430.00,1.03
5429.00,1.03
5428.00,1.03
5427.00,1.03
5426.00,1.03
5425.00,1.03
5424.00,1.03
5423.00,1.03
5422.00,1.03
5421.00,1.03
5420.00,1.03
5419.00,1.03
5418.00,1.03
5417.00,1.03
5416.00,1.03
5415.00,1.03
5414.00,1.03
5413.00,1.02
5412.00,1.02
5411.00,1.02
5410.00,1.02
5409.00,1.02
5408.00,1.02
5407.00,1.02
5406.00,1.02
5405.00,1.02
5404.00,1.02
5403.00,1.02
5402.00,1.02
5401.00,1.02
5400.00,1.02
5399.00,1.02
5398.00,1.02
5397.00,1.01
5396.00,1.01
5395.00,1.01
5394.00,1.01
5393.00,1.01
5392.00,1.01
5391.00,1.01
5390.00,1.00
5389.00,1.00
5388.00,1.00
5387.00,1.00
5386.00,1.00
5385.00,0.99
5384.00,0.99
5383.00,0.99
5382.00,0.98
5381.00,0.98
5380.00,0.98
5379.00,0.97
5378.00,0.97
5377.00,0.97
5376.00,0.96
5375.00,0.96
5374.00,0.96
5373.00,0.95
5372.00,0.95
5371.00,0.94
5370.00,0.94
5369.00,0.94
5368.00,0.93
5367.00,0.93
5366.00,0.92
5365.00,0.92
5364.00,0.91
5363.00,0.91
5362.00,0.90
5361.00,0.90
5360.00,0.89
5359.00,0.89
5358.00,0.88
5357.00,0.88
5356.00,0.87
5355.00,0.86
5354.00,0.86
5353.00,0.85
5352.00,0.84
5351.00,0.84
5350.00,0.83
5349.00,0.82
5348.00,0.81
5347.00,0.81
5346.00,0.80
5345.00,0.79
5344.00,0.79
5343.00,0.78
5342.00,0.77
5341.00,0.76
5340.00,0.76
5339.00,0.75
5338.00,0.74
5337.00,0.74
5336.00,0.73
5335.00,0.72
5334.00,0.72
5333.00,0.71
5332.00,0.70
5331.00,0.70
5330.00,0.69
5329.00,0.68
5328.00,0.68
5327.00,0.67
5326.00,0.67
5325.00,0.66
5324.00,0.66
5323.00,0.65
5322.00,0.64
5321.00,0.64
5320.00,0.63
5319.00,0.63
5318.00,0.62
5317.00,0.62
5316.00,0.61
5315.00,0.60
5314.00,0.60
5313.00,0.59
5312.00,0.59
5311.00,0.58
5310.00,0.58
5309.00,0.57
5308.00,0.57
5307.00,0.57
5306.00,0.56
5305.00,0.56
5304.00,0.55
5303.00,0.55
5302.00,0.55
5301.00,0.54
5300.00,0.54
5299.00,0.54
5298.00,0.54
5297.00,0.53
5296.00,0.53
5295.00,0.53
5294.00,0.53
5293.00,0.53
5292.00,0.52
5291.00,0.52
5290.00,0.52
5289.00,0.52
5288.00,0.52
5287.00,0.52
5286.00,0.52
5285.00,0.52
5284.00,0.52
5283.00,0.52
5282.00,0.52
5281.00,0.52
5280.00,0.52
5279.00,0.52
5278.00,0.52
5277.00,0.52
5276.00,0.52
5275.00,0.52
5274.00,0.52
5273.00,0.52
5272.00,0.52
5271.00,0.52
5270.00,0.52
5269.00,0.52
5268.00,0.52
5267.00,0.52
5266.00,0.52
5265.00,0.52
5264.00,0.52
5263.00,0.52
5262.00,0.52
5261.00,0.52
5260.00,0.52
5259.00,0.52
5258.00,0.52
5257.00,0.52
5256.00,0.52
5255.00,0.52
5254.00,0.52
5253.00,0.52
5252.00,0.52
5251.00,0.52
5250.00,0.52
5249.00,0.52
5248.00,0.52
5247.00,0.51
5246.00,0.51
5245.00,0.51
5244.00,0.52
5243.00,0.52
5242.00,0.52
5241.00,0.52
5240.00,0.52
5239.00,0.52
5238.00,0.52
5237.00,0.52
5236.00,0.52
5235.00,0.52
5234.00,0.52
5233.00,0.52
5232.00,0.52
5231.00,0.52
5230.00,0.52
5229.00,0.52
5228.00,0.52
5227.00,0.52
5226.00,0.52
5225.00,0.52
5224.00,0.52
5223.00,0.52
5222.00,0.52
5221.00,0.52
5220.00,0.52
5219.00,0.52
5218.00,0.53
5217.00,0.53
5216.00,0.53
5215.00,0.53
5214.00,0.53
5213.00,0.53
5212.00,0.53
5211.00,0.53
5210.00,0.53
5209.00,0.53
5208.00,0.53
5207.00,0.53
5206.00,0.53
5205.00,0.53
5204.00,0.53
5203.00,0.53
5202.00,0.53
5201.00,0.53
5200.00,0.53
5199.00,0.53
5198.00,0.53
5197.00,0.53
5196.00,0.53
5195.00,0.53
5194.00,0.53
5193.00,0.53
5192.00,0.53
5191.00,0.53
5190.00,0.53
5189.00,0.53
5188.00,0.53
5187.00,0.54
5186.00,0.54
5185.00,0.54
5184.00,0.54
5183.00,0.54
5182.00,0.54
5181.00,0.54
5180.00,0.54
5179.00,0.54
5178.00,0.54
5177.00,0.54
5176.00,0.54
5175.00,0.54
5174.00,0.54
5173.00,0.54
5172.00,0.54
5171.00,0.54
5170.00,0.54
5169.00,0.54
5168.00,0.54
5167.00,0.54
5166.00,0.54
5165.00,0.54
5164.00,0.54
5163.00,0.54
5162.00,0.54
5161.00,0.54
5160.00,0.54
5159.00,0.54
5158.00,0.54
5157.00,0.54
5156.00,0.54
5155.00,0.54
5154.00,0.54
5153.00,0.54
5152.00,0.54
5151.00,0.54
5150.00,0.54
5149.00,0.55
5148.00,0.55
5147.00,0.55
5146.00,0.55
5145.00,0.55
5144.00,0.55
5143.00,0.55
5142.00,0.55
5141.00,0.55
5140.00,0.55
5139.00,0.55
5138.00,0.55
5137.00,0.55
5136.00,0.55
5135.00,0.55
5134.00,0.55
5133.00,0.55
5132.00,0.55
5131.00,0.55
5130.00,0.55
5129.00,0.55
5128.00,0.55
5127.00,0.55
5126.00,0.55
5125.00,0.55
5124.00,0.55
5123.00,0.55
5122.00,0.55
5121.00,0.55
5120.00,0.55
5119.00,0.55
5118.00,0.55
5117.00,0.55
5116.00,0.55
5115.00,0.55
5114.00,0.55
5113.00,0.55
5112.00,0.55
5111.00,0.55
5110.00,0.56
5109.00,0.56
5108.00,0.56
5107.00,0.56
5106.00,0.56
5105.00,0.56
5104.00,0.56
5103.00,0.56
5102.00,0.56
5101.00,0.56
5100.00,0.56
5099.00,0.56
5098.00,0.56
5097.00,0.56
5096.00,0.56
5095.00,0.56
5094.00,0.56
5093.00,0.56
5092.00,0.56
5091.00,0.56
5090.00,0.56
5089.00,0.56
5088.00,0.56
5087.00,0.56
5086.00,0.56
5085.00,0.56
5084.00,0.57
5083.00,0.57
5082.00,0.57
5081.00,0.57
5080.00,0.57
5079.00,0.57
5078.00,0.57
5077.00,0.57
5076.00,0.57
5075.00,0.57
5074.00,0.57
5073.00,0.57
5072.00,0.57
5071.00,0.57
5070.00,0.57
5069.00,0.57
5068.00,0.57
5067.00,0.57
5066.00,0.57
5065.00,0.57
5064.00,0.57
5063.00,0.57
5062.00,0.58
5061.00,0.58
5060.00,0.58
5059.00,0.58
5058.00,0.58
5057.00,0.58
5056.00,0.58
5055.00,0.58
5054.00,0.58
5053.00,0.58
5052.00,0.58
5051.00,0.58
5050.00,0.58
5049.00,0.58
5048.00,0.58
5047.00,0.58
5046.00,0.58
5045.00,0.58
5044.00,0.58
5043.00,0.58
5042.00,0.58
5041.00,0.58
5040.00,0.58
5039.00,0.59
5038.00,0.59
5037.00,0.59
5036.00,0.59
5035.00,0.59
5034.00,0.59
5033.00,0.59
5032.00,0.59
5031.00,0.59
5030.00,0.59
5029.00,0.59
5028.00,0.59
5027.00,0.59
5026.00,0.59
5025.00,0.59
5024.00,0.59
5023.00,0.60
5022.00,0.60
5021.00,0.60
5020.00,0.60
5019.00,0.60
5018.00,0.60
5017.00,0.60
5016.00,0.60
5015.00,0.60
5014.00,0.60
5013.00,0.60
5012.00,0.60
5011.00,0.60
5010.00,0.60
5009.00,0.60
5008.00,0.60
5007.00,0.61
5006.00,0.61
5005.00,0.61
5004.00,0.61
5003.00,0.61
5002.00,0.61
5001.00,0.61
5000.00,0.61
4999.00,0.61
4998.00,0.61
4997.00,0.61
4996.00,0.61
4995.00,0.61
4994.00,0.61
4993.00,0.61
4992.00,0.61
4991.00,0.61
4990.00,0.61
4989.00,0.61
4988.00,0.61
4987.00,0.61
4986.00,0.61
4985.00,0.61
4984.00,0.61
4983.00,0.61
4982.00,0.61
4981.00,0.62
4980.00,0.62
4979.00,0.62
4978.00,0.62
4977.00,0.62
4976.00,0.62
4975.00,0.62
4974.00,0.62
4973.00,0.62
4972.00,0.62
4971.00,0.62
4970.00,0.62
4969.00,0.62
4968.00,0.62
4967.00,0.62
4966.00,0.62
4965.00,0.62
4964.00,0.62
4963.00,0.62
4962.00,0.62
4961.00,0.62
4960.00,0.62
4959.00,0.62
4958.00,0.62
4957.00,0.62
4956.00,0.62
4955.00,0.62
4954.00,0.63
4953.00,0.63
4952.00,0.63
4951.00,0.63
4950.00,0.63
4949.00,0.63
4948.00,0.63
4947.00,0.63
4946.00,0.63
4945.00,0.63
4944.00,0.63
4943.00,0.63
4942.00,0.63
4941.00,0.63
4940.00,0.63
4939.00,0.63
4938.00,0.64
4937.00,0.64
4936.00,0.64
4935.00,0.64
4934.00,0.64
4933.00,0.64
4932.00,0.64
4931.00,0.64
4930.00,0.64
4929.00,0.64
4928.00,0.64
4927.00,0.64
4926.00,0.64
4925.00,0.64
4924.00,0.64
4923.00,0.64
4922.00,0.64
4921.00,0.64
4920.00,0.64
4919.00,0.64
4918.00,0.64
4917.00,0.64
4916.00,0.64
4915.00,0.65
4914.00,0.65
4913.00,0.65
4912.00,0.65
4911.00,0.65
4910.00,0.65
4909.00,0.65
4908.00,0.65
4907.00,0.65
4906.00,0.65
4905.00,0.65
4904.00,0.65
4903.00,0.65
4902.00,0.65
4901.00,0.66
4900.00,0.66
4899.00,0.66
4898.00,0.66
4897.00,0.66
4896.00,0.66
4895.00,0.66
4894.00,0.66
4893.00,0.66
4892.00,0.66
4891.00,0.66
4890.00,0.67
4889.00,0.67
4888.00,0.67
4887.00,0.67
4886.00,0.67
4885.00,0.67
4884.00,0.67
4883.00,0.67
4882.00,0.67
4881.00,0.67
4880.00,0.67
4879.00,0.67
4878.00,0.67
4877.00,0.67
4876.00,0.67
4875.00,0.67
4874.00,0.67
4873.00,0.67
4872.00,0.67
4871.00,0.67
4870.00,0.67
4869.00,0.67
4868.00,0.67
4867.00,0.67
4866.00,0.67
4865.00,0.67
4864.00,0.67
4863.00,0.67
4862.00,0.67
4861.00,0.67
4860.00,0.68
4859.00,0.68
4858.00,0.68
4857.00,0.68
4856.00,0.68
4855.00,0.68
4854.00,0.68
4853.00,0.68
4852.00,0.68
4851.00,0.69
4850.00,0.69
4849.00,0.69
4848.00,0.69
4847.00,0.69
4846.00,0.69
4845.00,0.69
4844.00,0.69
4843.00,0.69
4842.00,0.69
4841.00,0.69
4840.00,0.69
4839.00,0.69
4838.00,0.69
4837.00,0.69
4836.00,0.69
4835.00,0.69
4834.00,0.69
4833.00,0.69
4832.00,0.69
4831.00,0.69
4830.00,0.69
4829.00,0.69
4828.00,0.69
4827.00,0.70
4826.00,0.70
4825.00,0.70
4824.00,0.70
4823.00,0.70
4822.00,0.70
4821.00,0.70
4820.00,0.70
4819.00,0.70
4818.00,0.70
4817.00,0.70
4816.00,0.70
4815.00,0.70
4814.00,0.70
4813.00,0.70
4812.00,0.70
4811.00,0.70
4810.00,0.70
4809.00,0.71
4808.00,0.71
4807.00,0.71
4806.00,0.71
4805.00,0.71
4804.00,0.71
4803.00,0.71
4802.00,0.71
4801.00,0.71
4800.00,0.71
4799.00,0.72
4798.00,0.72
4797.00,0.72
4796.00,0.72
4795.00,0.72
4794.00,0.72
4793.00,0.72
4792.00,0.72
4791.00,0.72
4790.00,0.72
4789.00,0.72
4788.00,0.73
4787.00,0.73
4786.00,0.73
4785.00,0.73
4784.00,0.73
4783.00,0.73
4782.00,0.73
4781.00,0.73
4780.00,0.73
4779.00,0.73
4778.00,0.73
4777.00,0.73
4776.00,0.73
4775.00,0.73
4774.00,0.73
4773.00,0.74
4772.00,0.74
4771.00,0.74
4770.00,0.74
4769.00,0.74
4768.00,0.74
4767.00,0.74
4766.00,0.74
4765.00,0.74
4764.00,0.75
4763.00,0.75
4762.00,0.75
4761.00,0.75
4760.00,0.75
4759.00,0.75
4758.00,0.75
4757.00,0.75
4756.00,0.75
4755.00,0.75
4754.00,0.75
4753.00,0.75
4752.00,0.75
4751.00,0.75
4750.00,0.76
4749.00,0.76
4748.00,0.76
4747.00,0.76
4746.00,0.76
4745.00,0.76
4744.00,0.76
4743.00,0.76
4742.00,0.76
4741.00,0.76
4740.00,0.76
4739.00,0.77
4738.00,0.77
4737.00,0.77
4736.00,0.77
4735.00,0.77
4734.00,0.77
4733.00,0.77
4732.00,0.77
4731.00,0.77
4730.00,0.77
4729.00,0.78
4728.00,0.78
4727.00,0.78
4726.00,0.78
4725.00,0.78
4724.00,0.78
4723.00,0.78
4722.00,0.78
4721.00,0.78
4720.00,0.78
4719.00,0.78
4718.00,0.78
4717.00,0.79
4716.00,0.79
4715.00,0.79
4714.00,0.79
4713.00,0.79
4712.00,0.79
4711.00,0.79
4710.00,0.79
4709.00,0.79
4708.00,0.79
4707.00,0.79
4706.00,0.79
4705.00,0.80
4704.00,0.80
4703.00,0.80
4702.00,0.80
4701.00,0.80
4700.00,0.80
4699.00,0.80
4698.00,0.80
4697.00,0.80
4696.00,0.81
4695.00,0.81
4694.00,0.81
4693.00,0.81
4692.00,0.81
4691.00,0.81
4690.00,0.81
4689.00,0.82
4688.00,0.82
4687.00,0.82
4686.00,0.82
4685.00,0.82
4684.00,0.82
4683.00,0.82
4682.00,0.82
4681.00,0.83
4680.00,0.83
4679.00,0.83
4678.00,0.83
4677.00,0.83
4676.00,0.83
4675.00,0.83
4674.00,0.83
4673.00,0.83
4672.00,0.83
4671.00,0.83
4670.00,0.83
4669.00,0.84
4668.00,0.84
4667.00,0.84
4666.00,0.84
4665.00,0.84
4664.00,0.84
4663.00,0.84
4662.00,0.84
4661.00,0.84
4660.00,0.84
4659.00,0.84
4658.00,0.84
4657.00,0.85
4656.00,0.85
4655.00,0.85
4654.00,0.85
4653.00,0.85
4652.00,0.85
4651.00,0.85
4650.00,0.85
4649.00,0.86
4648.00,0.86
4647.00,0.86
4646.00,0.86
4645.00,0.86
4644.00,0.86
4643.00,0.86
4642.00,0.86
4641.00,0.86
4640.00,0.86
4639.00,0.86
4638.00,0.87
4637.00,0.87
4636.00,0.87
4635.00,0.87
4634.00,0.87
4633.00,0.87
4632.00,0.87
4631.00,0.87
4630.00,0.87
4629.00,0.87
4628.00,0.87
4627.00,0.88
4626.00,0.88
4625.00,0.88
4624.00,0.88
4623.00,0.88
4622.00,0.88
4621.00,0.88
4620.00,0.88
4619.00,0.88
4618.00,0.88
4617.00,0.88
4616.00,0.88
4615.00,0.89
4614.00,0.89
4613.00,0.89
4612.00,0.89
4611.00,0.89
4610.00,0.89
4609.00,0.89
4608.00,0.89
4607.00,0.89
4606.00,0.89
4605.00,0.89
4604.00,0.89
4603.00,0.89
4602.00,0.89
4601.00,0.89
4600.00,0.89
4599.00,0.89
4598.00,0.89
4597.00,0.89
4596.00,0.89
4595.00,0.89
4594.00,0.89
4593.00,0.90
4592.00,0.90
4591.00,0.90
4590.00,0.90
4589.00,0.90
4588.00,0.90
4587.00,0.90
4586.00,0.90
4585.00,0.90
4584.00,0.90
4583.00,0.90
4582.00,0.90
4581.00,0.90
4580.00,0.90
4579.00,0.90
4578.00,0.90
4577.00,0.90
4576.00,0.90
4575.00,0.90
4574.00,0.90
4573.00,0.90
4572.00,0.90
4571.00,0.90
4570.00,0.90
4569.00,0.90
4568.00,0.90
4567.00,0.90
4566.00,0.90
4565.00,0.90
4564.00,0.90
4563.00,0.90
4562.00,0.91
4561.00,0.91
4560.00,0.91
4559.00,0.91
4558.00,0.91
4557.00,0.91
4556.00,0.91
4555.00,0.91
4554.00,0.91
4553.00,0.91
4552.00,0.92
4551.00,0.92
4550.00,0.92
4549.00,0.92
4548.00,0.92
4547.00,0.92
4546.00,0.92
4545.00,0.92
4544.00,0.93
4543.00,0.93
4542.00,0.93
4541.00,0.93
4540.00,0.93
4539.00,0.93
4538.00,0.93
4537.00,0.93
4536.00,0.93
4535.00,0.93
4534.00,0.93
4533.00,0.93
4532.00,0.93
4531.00,0.93
4530.00,0.93
4529.00,0.93
4528.00,0.93
4527.00,0.93
4526.00,0.93
4525.00,0.93
4524.00,0.93
4523.00,0.93
4522.00,0.93
4521.00,0.93
4520.00,0.93
4519.00,0.93
4518.00,0.93
4517.00,0.93
4516.00,0.93
4515.00,0.93
4514.00,0.93
4513.00,0.93
4512.00,0.93
4511.00,0.93
4510.00,0.93
4509.00,0.93
4508.00,0.93
4507.00,0.93
4506.00,0.93
4505.00,0.93
4504.00,0.93
4503.00,0.93
4502.00,0.93
4501.00,0.93
4500.00,0.93
4499.00,0.93
4498.00,0.93
4497.00,0.93
4496.00,0.93
4495.00,0.93
4494.00,0.93
4493.00,0.93
4492.00,0.93
4491.00,0.93
4490.00,0.93
4489.00,0.93
4488.00,0.93
4487.00,0.93
4486.00,0.93
4485.00,0.93
4484.00,0.93
4483.00,0.93
4482.00,0.93
4481.00,0.93
4480.00,0.93
4479.00,0.93
4478.00,0.92
4477.00,0.92
4476.00,0.92
4475.00,0.92
4474.00,0.92
4473.00,0.92
4472.00,0.92
4471.00,0.91
4470.00,0.91
4469.00,0.91
4468.00,0.91
4467.00,0.91
4466.00,0.91
4465.00,0.91
4464.00,0.90
4463.00,0.90
4462.00,0.90
4461.00,0.90
4460.00,0.90
4459.00,0.90
4458.00,0.90
4457.00,0.90
4456.00,0.89
4455.00,0.89
4454.00,0.89
4453.00,0.89
4452.00,0.89
4451.00,0.89
4450.00,0.88
4449.00,0.88
4448.00,0.88
4447.00,0.88
4446.00,0.87
4445.00,0.87
4444.00,0.87
4443.00,0.87
4442.00,0.87
4441.00,0.86
4440.00,0.86
4439.00,0.86
4438.00,0.86
4437.00,0.85
4436.00,0.85
4435.00,0.85
4434.00,0.85
4433.00,0.85
4432.00,0.84
4431.00,0.84
4430.00,0.84
4429.00,0.84
4428.00,0.84
4427.00,0.84
4426.00,0.83
4425.00,0.83
4424.00,0.83
4423.00,0.83
4422.00,0.83
4421.00,0.83
4420.00,0.83
4419.00,0.83
4418.00,0.83
4417.00,0.83
4416.00,0.83
4415.00,0.83
4414.00,0.83
4413.00,0.83
4412.00,0.83
4411.00,0.83
4410.00,0.83
4409.00,0.83
4408.00,0.83
4407.00,0.83
4406.00,0.84
4405.00,0.84
4404.00,0.84
4403.00,0.84
4402.00,0.84
4401.00,0.84
4400.00,0.84
4399.00,0.84
4398.00,0.84
4397.00,0.84
4396.00,0.84
4395.00,0.84
4394.00,0.84
4393.00,0.84
4392.00,0.84
4391.00,0.84
4390.00,0.84
4389.00,0.84
4388.00,0.85
4387.00,0.85
4386.00,0.85
4385.00,0.85
4384.00,0.85
4383.00,0.85
4382.00,0.85
4381.00,0.85
4380.00,0.86
4379.00,0.86
4378.00,0.86
4377.00,0.86
4376.00,0.86
4375.00,0.86
4374.00,0.86
4373.00,0.86
4372.00,0.86
4371.00,0.86
4370.00,0.86
4369.00,0.86
4368.00,0.86
4367.00,0.86
4366.00,0.86
4365.00,0.86
4364.00,0.86
4363.00,0.87
4362.00,0.87
4361.00,0.87
4360.00,0.87
4359.00,0.87
4358.00,0.87
4357.00,0.87
4356.00,0.87
4355.00,0.87
4354.00,0.87
4353.00,0.87
4352.00,0.87
4351.00,0.87
4350.00,0.87
4349.00,0.87
4348.00,0.87
4347.00,0.87
4346.00,0.87
4345.00,0.87
4344.00,0.87
4343.00,0.86
4342.00,0.86
4341.00,0.86
4340.00,0.86
4339.00,0.86
4338.00,0.86
4337.00,0.86
4336.00,0.86
4335.00,0.86
4334.00,0.86
4333.00,0.86
4332.00,0.86
4331.00,0.87
4330.00,0.87
4329.00,0.87
4328.00,0.87
4327.00,0.87
4326.00,0.87
4325.00,0.87
4324.00,0.87
4323.00,0.87
4322.00,0.87
4321.00,0.87
4320.00,0.87
4319.00,0.88
4318.00,0.88
4317.00,0.88
4316.00,0.88
4315.00,0.88
4314.00,0.88
4313.00,0.88
4312.00,0.88
4311.00,0.89
4310.00,0.89
4309.00,0.89
4308.00,0.89
4307.00,0.89
4306.00,0.89
4305.00,0.90
4304.00,0.90
4303.00,0.90
4302.00,0.90
4301.00,0.90
4300.00,0.90
4299.00,0.90
4298.00,0.90
4297.00,0.91
4296.00,0.91
4295.00,0.91
4294.00,0.91
4293.00,0.91
4292.00,0.91
4291.00,0.91
4290.00,0.91
4289.00,0.91
4288.00,0.91
4287.00,0.91
4286.00,0.91
4285.00,0.91
4284.00,0.91
4283.00,0.91
4282.00,0.91
4281.00,0.91
4280.00,0.91
4279.00,0.91
4278.00,0.91
4277.00,0.91
4276.00,0.91
4275.00,0.91
4274.00,0.91
4273.00,0.91
4272.00,0.91
4271.00,0.91
4270.00,0.91
4269.00,0.91
4268.00,0.90
4267.00,0.90
4266.00,0.90
4265.00,0.90
4264.00,0.90
4263.00,0.90
4262.00,0.91
4261.00,0.91
4260.00,0.91
4259.00,0.91
4258.00,0.91
4257.00,0.91
4256.00,0.91
4255.00,0.91
4254.00,0.91
4253.00,0.92
4252.00,0.92
4251.00,0.92
4250.00,0.92
4249.00,0.92
4248.00,0.92
4247.00,0.92
4246.00,0.92
4245.00,0.92
4244.00,0.92
4243.00,0.93
4242.00,0.93
4241.00,0.93
4240.00,0.93
4239.00,0.93
4238.00,0.93
4237.00,0.93
4236.00,0.93
4235.00,0.94
4234.00,0.94
4233.00,0.94
4232.00,0.94
4231.00,0.94
4230.00,0.94
4229.00,0.94
4228.00,0.94
4227.00,0.94
4226.00,0.94
4225.00,0.94
4224.00,0.94
4223.00,0.94
4222.00,0.94
4221.00,0.94
4220.00,0.94
4219.00,0.94
4218.00,0.94
4217.00,0.94
4216.00,0.94
4215.00,0.94
4214.00,0.93
4213.00,0.93
4212.00,0.93
4211.00,0.93
4210.00,0.93
4209.00,0.93
4208.00,0.93
4207.00,0.93
4206.00,0.93
4205.00,0.93
4204.00,0.94
4203.00,0.94
4202.00,0.94
4201.00,0.94
4200.00,0.94
4199.00,0.95
4198.00,0.95
4197.00,0.95
4196.00,0.95
4195.00,0.95
4194.00,0.96
4193.00,0.96
4192.00,0.96
4191.00,0.96
4190.00,0.96
4189.00,0.96
4188.00,0.96
4187.00,0.96
4186.00,0.96
4185.00,0.96
4184.00,0.96
4183.00,0.96
4182.00,0.96
4181.00,0.96
4180.00,0.96
4179.00,0.96
4178.00,0.96
4177.00,0.96
4176.00,0.96
4175.00,0.96
4174.00,0.96
4173.00,0.96
4172.00,0.96
4171.00,0.96
4170.00,0.96
4169.00,0.96
4168.00,0.96
4167.00,0.96
4166.00,0.96
4165.00,0.96
4164.00,0.96
4163.00,0.96
4162.00,0.96
4161.00,0.96
4160.00,0.95
4159.00,0.95
4158.00,0.95
4157.00,0.95
4156.00,0.95
4155.00,0.95
4154.00,0.95
4153.00,0.95
4152.00,0.95
4151.00,0.95
4150.00,0.95
4149.00,0.95
4148.00,0.95
4147.00,0.95
4146.00,0.95
4145.00,0.95
4144.00,0.95
4143.00,0.95
4142.00,0.95
4141.00,0.96
4140.00,0.96
4139.00,0.96
4138.00,0.96
4137.00,0.96
4136.00,0.96
4135.00,0.96
4134.00,0.96
4133.00,0.96
4132.00,0.96
4131.00,0.96
4130.00,0.96
4129.00,0.96
4128.00,0.96
4127.00,0.96
4126.00,0.96
4125.00,0.96
4124.00,0.97
4123.00,0.97
4122.00,0.97
4121.00,0.97
4120.00,0.97
4119.00,0.97
4118.00,0.97
4117.00,0.97
4116.00,0.97
4115.00,0.97
4114.00,0.98
4113.00,0.98
4112.00,0.98
4111.00,0.98
4110.00,0.98
4109.00,0.98
4108.00,0.98
4107.00,0.98
4106.00,0.99
4105.00,0.99
4104.00,0.99
4103.00,0.99
4102.00,0.99
4101.00,0.99
4100.00,0.99
4099.00,0.99
4098.00,0.99
4097.00,0.99
4096.00,0.99
4095.00,0.99
4094.00,0.99
4093.00,0.99
4092.00,0.99
4091.00,0.99
4090.00,0.99
4089.00,0.99
4088.00,0.99
4087.00,0.99
4086.00,0.99
4085.00,0.99
4084.00,0.99
4083.00,0.99
4082.00,0.99
4081.00,0.99
4080.00,0.99
4079.00,0.99
4078.00,0.99
4077.00,0.99
4076.00,0.99
4075.00,0.99
4074.00,0.99
4073.00,0.99
4072.00,0.99
4071.00,0.99
4070.00,0.99
4069.00,0.99
4068.00,0.99
4067.00,0.99
4066.00,0.99
4065.00,0.99
4064.00,0.99
4063.00,0.99
4062.00,0.99
4061.00,0.99
4060.00,0.99
4059.00,0.99
4058.00,1.00
4057.00,1.00
4056.00,1.00
4055.00,1.00
4054.00,1.00
4053.00,1.00
4052.00,1.00
4051.00,1.00
4050.00,1.00
4049.00,1.00
4048.00,1.00
4047.00,1.00
4046.00,1.00
4045.00,1.00
4044.00,1.00
4043.00,1.00
4042.00,1.00
4041.00,1.00
4040.00,1.00
4039.00,1.00
4038.00,1.00
4037.00,1.00
4036.00,1.00
4035.00,1.00
4034.00,1.00
4033.00,1.00
4032.00,1.01
4031.00,1.01
4030.00,1.01
4029.00,1.01
4028.00,1.01
4027.00,1.01
4026.00,1.01
4025.00,1.01
4024.00,1.02
4023.00,1.02
4022.00,1.02
4021.00,1.02
4020.00,1.02
4019.00,1.02
4018.00,1.02
4017.00,1.03
4016.00,1.03
4015.00,1.03
4014.00,1.03
4013.00,1.03
4012.00,1.03
4011.00,1.03
4010.00,1.03
4009.00,1.03
4008.00,1.03
4007.00,1.03
4006.00,1.03
4005.00,1.03
4004.00,1.03
4003.00,1.03
4002.00,1.03
4001.00,1.03
4000.00,1.03
