创建为新数据集,样品 225 用户 Administrator 日期 星期六, 七月 21 2018
cm-1,%T
10000.00,0.80
9999.00,0.80
9998.00,0.80
9997.00,0.80
9996.00,0.79
9995.00,0.79
9994.00,0.79
9993.00,0.79
9992.00,0.79
9991.00,0.79
9990.00,0.79
9989.00,0.79
9988.00,0.79
9987.00,0.78
9986.00,0.78
9985.00,0.78
9984.00,0.78
9983.00,0.78
9982.00,0.78
9981.00,0.78
9980.00,0.78
9979.00,0.78
9978.00,0.77
9977.00,0.77
9976.00,0.77
9975.00,0.77
9974.00,0.77
9973.00,0.77
9972.00,0.77
9971.00,0.77
9970.00,0.77
9969.00,0.77
9968.00,0.77
9967.00,0.77
9966.00,0.77
9965.00,0.76
9964.00,0.76
9963.00,0.76
9962.00,0.76
9961.00,0.76
9960.00,0.76
9959.00,0.77
9958.00,0.77
9957.00,0.77
9956.00,0.77
9955.00,0.77
9954.00,0.78
9953.00,0.78
9952.00,0.78
9951.00,0.78
9950.00,0.79
9949.00,0.79
9948.00,0.79
9947.00,0.79
9946.00,0.79
9945.00,0.79
9944.00,0.79
9943.00,0.79
9942.00,0.79
9941.00,0.79
9940.00,0.79
9939.00,0.79
9938.00,0.78
9937.00,0.78
9936.00,0.78
9935.00,0.77
9934.00,0.77
9933.00,0.77
9932.00,0.77
9931.00,0.76
9930.00,0.76
9929.00,0.76
9928.00,0.76
9927.00,0.76
9926.00,0.76
9925.00,0.76
9924.00,0.76
9923.00,0.76
9922.00,0.76
9921.00,0.76
9920.00,0.76
9919.00,0.76
9918.00,0.76
9917.00,0.77
9916.00,0.77
9915.00,0.77
9914.00,0.77
9913.00,0.77
9912.00,0.77
9911.00,0.77
9910.00,0.77
9909.00,0.77
9908.00,0.77
9907.00,0.77
9906.00,0.77
9905.00,0.78
9904.00,0.78
9903.00,0.78
9902.00,0.78
9901.00,0.78
9900.00,0.78
9899.00,0.79
9898.00,0.79
9897.00,0.79
9896.00,0.79
9895.00,0.79
9894.00,0.79
9893.00,0.80
9892.00,0.80
9891.00,0.80
9890.00,0.80
9889.00,0.80
9888.00,0.80
9887.00,0.80
9886.00,0.80
9885.00,0.80
9884.00,0.80
9883.00,0.79
9882.00,0.79
9881.00,0.79
9880.00,0.79
9879.00,0.79
9878.00,0.78
9877.00,0.78
9876.00,0.78
9875.00,0.78
9874.00,0.78
9873.00,0.77
9872.00,0.77
9871.00,0.77
9870.00,0.77
9869.00,0.76
9868.00,0.76
9867.00,0.76
9866.00,0.76
9865.00,0.76
9864.00,0.75
9863.00,0.75
9862.00,0.75
9861.00,0.75
9860.00,0.75
9859.00,0.75
9858.00,0.75
9857.00,0.75
9856.00,0.75
9855.00,0.75
9854.00,0.75
9853.00,0.75
9852.00,0.75
9851.00,0.75
9850.00,0.74
9849.00,0.74
9848.00,0.74
9847.00,0.74
9846.00,0.74
9845.00,0.74
9844.00,0.74
9843.00,0.74
9842.00,0.74
9841.00,0.74
9840.00,0.75
9839.00,0.75
9838.00,0.75
9837.00,0.75
9836.00,0.75
9835.00,0.75
9834.00,0.76
9833.00,0.76
9832.00,0.76
9831.00,0.76
9830.00,0.76
9829.00,0.76
9828.00,0.76
9827.00,0.76
9826.00,0.76
9825.00,0.76
9824.00,0.76
9823.00,0.77
9822.00,0.77
9821.00,0.77
9820.00,0.77
9819.00,0.77
9818.00,0.77
9817.00,0.77
9816.00,0.77
9815.00,0.77
9814.00,0.77
9813.00,0.77
9812.00,0.77
9811.00,0.77
9810.00,0.77
9809.00,0.77
9808.00,0.77
9807.00,0.77
9806.00,0.76
9805.00,0.76
9804.00,0.76
9803.00,0.76
9802.00,0.76
9801.00,0.76
9800.00,0.76
9799.00,0.76
9798.00,0.76
9797.00,0.76
9796.00,0.76
9795.00,0.76
9794.00,0.76
9793.00,0.76
9792.00,0.76
9791.00,0.76
9790.00,0.76
9789.00,0.76
9788.00,0.76
9787.00,0.76
9786.00,0.76
9785.00,0.76
9784.00,0.76
9783.00,0.77
9782.00,0.77
9781.00,0.77
9780.00,0.77
9779.00,0.77
9778.00,0.77
9777.00,0.77
9776.00,0.77
9775.00,0.78
9774.00,0.78
9773.00,0.78
9772.00,0.78
9771.00,0.78
9770.00,0.78
9769.00,0.78
9768.00,0.79
9767.00,0.79
9766.00,0.79
9765.00,0.79
9764.00,0.79
9763.00,0.79
9762.00,0.79
9761.00,0.79
9760.00,0.79
9759.00,0.79
9758.00,0.79
9757.00,0.79
9756.00,0.79
9755.00,0.79
9754.00,0.79
9753.00,0.78
9752.00,0.78
9751.00,0.78
9750.00,0.78
9749.00,0.78
9748.00,0.78
9747.00,0.78
9746.00,0.78
9745.00,0.78
9744.00,0.78
9743.00,0.77
9742.00,0.77
9741.00,0.77
9740.00,0.77
9739.00,0.77
9738.00,0.77
9737.00,0.77
9736.00,0.77
9735.00,0.77
9734.00,0.77
9733.00,0.77
9732.00,0.77
9731.00,0.77
9730.00,0.77
9729.00,0.77
9728.00,0.77
9727.00,0.77
9726.00,0.77
9725.00,0.77
9724.00,0.77
9723.00,0.77
9722.00,0.77
9721.00,0.77
9720.00,0.77
9719.00,0.77
9718.00,0.77
9717.00,0.77
9716.00,0.77
9715.00,0.77
9714.00,0.77
9713.00,0.77
9712.00,0.77
9711.00,0.76
9710.00,0.76
9709.00,0.76
9708.00,0.76
9707.00,0.76
9706.00,0.75
9705.00,0.75
9704.00,0.75
9703.00,0.75
9702.00,0.75
9701.00,0.75
9700.00,0.75
9699.00,0.76
9698.00,0.76
9697.00,0.76
9696.00,0.76
9695.00,0.76
9694.00,0.77
9693.00,0.77
9692.00,0.77
9691.00,0.77
9690.00,0.77
9689.00,0.77
9688.00,0.77
9687.00,0.77
9686.00,0.77
9685.00,0.77
9684.00,0.77
9683.00,0.77
9682.00,0.77
9681.00,0.77
9680.00,0.77
9679.00,0.77
9678.00,0.76
9677.00,0.76
9676.00,0.76
9675.00,0.76
9674.00,0.76
9673.00,0.76
9672.00,0.76
9671.00,0.76
9670.00,0.76
9669.00,0.76
9668.00,0.76
9667.00,0.76
9666.00,0.76
9665.00,0.76
9664.00,0.76
9663.00,0.76
9662.00,0.76
9661.00,0.76
9660.00,0.76
9659.00,0.76
9658.00,0.76
9657.00,0.76
9656.00,0.77
9655.00,0.77
9654.00,0.77
9653.00,0.77
9652.00,0.78
9651.00,0.78
9650.00,0.78
9649.00,0.78
9648.00,0.79
9647.00,0.79
9646.00,0.79
9645.00,0.79
9644.00,0.79
9643.00,0.80
9642.00,0.80
9641.00,0.80
9640.00,0.80
9639.00,0.80
9638.00,0.80
9637.00,0.80
9636.00,0.80
9635.00,0.80
9634.00,0.79
9633.00,0.79
9632.00,0.79
9631.00,0.79
9630.00,0.79
9629.00,0.78
9628.00,0.78
9627.00,0.78
9626.00,0.78
9625.00,0.77
9624.00,0.77
9623.00,0.77
9622.00,0.76
9621.00,0.76
9620.00,0.76
9619.00,0.75
9618.00,0.75
9617.00,0.75
9616.00,0.75
9615.00,0.74
9614.00,0.74
9613.00,0.74
9612.00,0.74
9611.00,0.74
9610.00,0.74
9609.00,0.74
9608.00,0.74
9607.00,0.74
9606.00,0.74
9605.00,0.75
9604.00,0.75
9603.00,0.75
9602.00,0.75
9601.00,0.75
9600.00,0.76
9599.00,0.76
9598.00,0.76
9597.00,0.76
9596.00,0.76
9595.00,0.76
9594.00,0.76
9593.00,0.76
9592.00,0.76
9591.00,0.76
9590.00,0.76
9589.00,0.75
9588.00,0.75
9587.00,0.75
9586.00,0.75
9585.00,0.74
9584.00,0.74
9583.00,0.74
9582.00,0.73
9581.00,0.73
9580.00,0.73
9579.00,0.73
9578.00,0.73
9577.00,0.72
9576.00,0.72
9575.00,0.72
9574.00,0.72
9573.00,0.72
9572.00,0.73
9571.00,0.73
9570.00,0.73
9569.00,0.73
9568.00,0.74
9567.00,0.74
9566.00,0.74
9565.00,0.75
9564.00,0.75
9563.00,0.76
9562.00,0.76
9561.00,0.76
9560.00,0.77
9559.00,0.77
9558.00,0.77
9557.00,0.78
9556.00,0.78
9555.00,0.78
9554.00,0.78
9553.00,0.78
9552.00,0.78
9551.00,0.78
9550.00,0.78
9549.00,0.78
9548.00,0.78
9547.00,0.78
9546.00,0.78
9545.00,0.78
9544.00,0.78
9543.00,0.78
9542.00,0.78
9541.00,0.78
9540.00,0.78
9539.00,0.78
9538.00,0.78
9537.00,0.78
9536.00,0.78
9535.00,0.78
9534.00,0.78
9533.00,0.78
9532.00,0.78
9531.00,0.78
9530.00,0.78
9529.00,0.78
9528.00,0.78
9527.00,0.78
9526.00,0.78
9525.00,0.77
9524.00,0.77
9523.00,0.77
9522.00,0.77
9521.00,0.77
9520.00,0.77
9519.00,0.76
9518.00,0.76
9517.00,0.76
9516.00,0.76
9515.00,0.76
9514.00,0.76
9513.00,0.76
9512.00,0.76
9511.00,0.76
9510.00,0.76
9509.00,0.76
9508.00,0.76
9507.00,0.76
9506.00,0.77
9505.00,0.77
9504.00,0.77
9503.00,0.77
9502.00,0.77
9501.00,0.77
9500.00,0.77
9499.00,0.78
9498.00,0.78
9497.00,0.78
9496.00,0.78
9495.00,0.78
9494.00,0.78
9493.00,0.77
9492.00,0.77
9491.00,0.77
9490.00,0.77
9489.00,0.77
9488.00,0.77
9487.00,0.77
9486.00,0.76
9485.00,0.76
9484.00,0.76
9483.00,0.76
9482.00,0.76
9481.00,0.76
9480.00,0.76
9479.00,0.76
9478.00,0.76
9477.00,0.76
9476.00,0.76
9475.00,0.76
9474.00,0.76
9473.00,0.76
9472.00,0.76
9471.00,0.76
9470.00,0.77
9469.00,0.77
9468.00,0.77
9467.00,0.77
9466.00,0.77
9465.00,0.77
9464.00,0.78
9463.00,0.78
9462.00,0.78
9461.00,0.78
9460.00,0.78
9459.00,0.78
9458.00,0.78
9457.00,0.78
9456.00,0.78
9455.00,0.78
9454.00,0.78
9453.00,0.79
9452.00,0.79
9451.00,0.79
9450.00,0.79
9449.00,0.79
9448.00,0.79
9447.00,0.79
9446.00,0.79
9445.00,0.79
9444.00,0.79
9443.00,0.79
9442.00,0.79
9441.00,0.79
9440.00,0.79
9439.00,0.79
9438.00,0.79
9437.00,0.79
9436.00,0.79
9435.00,0.78
9434.00,0.78
9433.00,0.78
9432.00,0.78
9431.00,0.78
9430.00,0.78
9429.00,0.77
9428.00,0.77
9427.00,0.77
9426.00,0.77
9425.00,0.77
9424.00,0.77
9423.00,0.77
9422.00,0.77
9421.00,0.77
9420.00,0.77
9419.00,0.77
9418.00,0.77
9417.00,0.77
9416.00,0.77
9415.00,0.77
9414.00,0.76
9413.00,0.76
9412.00,0.76
9411.00,0.76
9410.00,0.76
9409.00,0.76
9408.00,0.76
9407.00,0.76
9406.00,0.76
9405.00,0.76
9404.00,0.76
9403.00,0.76
9402.00,0.76
9401.00,0.76
9400.00,0.76
9399.00,0.76
9398.00,0.75
9397.00,0.75
9396.00,0.75
9395.00,0.75
9394.00,0.75
9393.00,0.76
9392.00,0.76
9391.00,0.76
9390.00,0.76
9389.00,0.76
9388.00,0.76
9387.00,0.76
9386.00,0.76
9385.00,0.76
9384.00,0.76
9383.00,0.76
9382.00,0.76
9381.00,0.76
9380.00,0.76
9379.00,0.76
9378.00,0.76
9377.00,0.76
9376.00,0.76
9375.00,0.76
9374.00,0.76
9373.00,0.76
9372.00,0.77
9371.00,0.77
9370.00,0.77
9369.00,0.77
9368.00,0.77
9367.00,0.77
9366.00,0.77
9365.00,0.77
9364.00,0.77
9363.00,0.77
9362.00,0.77
9361.00,0.77
9360.00,0.77
9359.00,0.77
9358.00,0.77
9357.00,0.77
9356.00,0.77
9355.00,0.77
9354.00,0.77
9353.00,0.77
9352.00,0.77
9351.00,0.78
9350.00,0.78
9349.00,0.78
9348.00,0.78
9347.00,0.78
9346.00,0.78
9345.00,0.79
9344.00,0.79
9343.00,0.79
9342.00,0.79
9341.00,0.79
9340.00,0.79
9339.00,0.79
9338.00,0.79
9337.00,0.79
9336.00,0.79
9335.00,0.79
9334.00,0.79
9333.00,0.79
9332.00,0.79
9331.00,0.79
9330.00,0.79
9329.00,0.79
9328.00,0.78
9327.00,0.78
9326.00,0.78
9325.00,0.78
9324.00,0.78
9323.00,0.78
9322.00,0.78
9321.00,0.78
9320.00,0.78
9319.00,0.78
9318.00,0.78
9317.00,0.78
9316.00,0.78
9315.00,0.78
9314.00,0.78
9313.00,0.78
9312.00,0.77
9311.00,0.77
9310.00,0.77
9309.00,0.77
9308.00,0.77
9307.00,0.77
9306.00,0.77
9305.00,0.77
9304.00,0.77
9303.00,0.77
9302.00,0.77
9301.00,0.77
9300.00,0.76
9299.00,0.76
9298.00,0.76
9297.00,0.76
9296.00,0.76
9295.00,0.76
9294.00,0.76
9293.00,0.76
9292.00,0.76
9291.00,0.76
9290.00,0.77
9289.00,0.77
9288.00,0.77
9287.00,0.77
9286.00,0.77
9285.00,0.77
9284.00,0.78
9283.00,0.78
9282.00,0.78
9281.00,0.78
9280.00,0.78
9279.00,0.78
9278.00,0.78
9277.00,0.78
9276.00,0.78
9275.00,0.78
9274.00,0.78
9273.00,0.78
9272.00,0.78
9271.00,0.77
9270.00,0.77
9269.00,0.77
9268.00,0.77
9267.00,0.77
9266.00,0.76
9265.00,0.76
9264.00,0.76
9263.00,0.76
9262.00,0.76
9261.00,0.76
9260.00,0.76
9259.00,0.77
9258.00,0.77
9257.00,0.77
9256.00,0.77
9255.00,0.77
9254.00,0.77
9253.00,0.78
9252.00,0.78
9251.00,0.78
9250.00,0.78
9249.00,0.78
9248.00,0.78
9247.00,0.78
9246.00,0.78
9245.00,0.78
9244.00,0.77
9243.00,0.77
9242.00,0.77
9241.00,0.77
9240.00,0.77
9239.00,0.77
9238.00,0.77
9237.00,0.76
9236.00,0.76
9235.00,0.76
9234.00,0.76
9233.00,0.76
9232.00,0.76
9231.00,0.77
9230.00,0.77
9229.00,0.77
9228.00,0.77
9227.00,0.77
9226.00,0.77
9225.00,0.77
9224.00,0.77
9223.00,0.77
9222.00,0.77
9221.00,0.77
9220.00,0.77
9219.00,0.77
9218.00,0.77
9217.00,0.78
9216.00,0.78
9215.00,0.78
9214.00,0.78
9213.00,0.78
9212.00,0.78
9211.00,0.78
9210.00,0.78
9209.00,0.78
9208.00,0.78
9207.00,0.78
9206.00,0.78
9205.00,0.77
9204.00,0.77
9203.00,0.77
9202.00,0.77
9201.00,0.77
9200.00,0.77
9199.00,0.77
9198.00,0.77
9197.00,0.77
9196.00,0.77
9195.00,0.77
9194.00,0.77
9193.00,0.76
9192.00,0.76
9191.00,0.76
9190.00,0.76
9189.00,0.77
9188.00,0.77
9187.00,0.77
9186.00,0.77
9185.00,0.77
9184.00,0.77
9183.00,0.77
9182.00,0.78
9181.00,0.78
9180.00,0.78
9179.00,0.78
9178.00,0.78
9177.00,0.78
9176.00,0.78
9175.00,0.78
9174.00,0.79
9173.00,0.79
9172.00,0.79
9171.00,0.79
9170.00,0.78
9169.00,0.78
9168.00,0.78
9167.00,0.78
9166.00,0.78
9165.00,0.78
9164.00,0.78
9163.00,0.78
9162.00,0.77
9161.00,0.77
9160.00,0.77
9159.00,0.77
9158.00,0.77
9157.00,0.77
9156.00,0.77
9155.00,0.77
9154.00,0.77
9153.00,0.77
9152.00,0.77
9151.00,0.77
9150.00,0.77
9149.00,0.77
9148.00,0.78
9147.00,0.78
9146.00,0.78
9145.00,0.78
9144.00,0.78
9143.00,0.78
9142.00,0.78
9141.00,0.78
9140.00,0.78
9139.00,0.78
9138.00,0.78
9137.00,0.78
9136.00,0.78
9135.00,0.78
9134.00,0.78
9133.00,0.78
9132.00,0.78
9131.00,0.78
9130.00,0.78
9129.00,0.78
9128.00,0.78
9127.00,0.78
9126.00,0.77
9125.00,0.77
9124.00,0.77
9123.00,0.77
9122.00,0.77
9121.00,0.76
9120.00,0.76
9119.00,0.76
9118.00,0.76
9117.00,0.76
9116.00,0.75
9115.00,0.75
9114.00,0.75
9113.00,0.75
9112.00,0.75
9111.00,0.75
9110.00,0.75
9109.00,0.75
9108.00,0.75
9107.00,0.75
9106.00,0.75
9105.00,0.75
9104.00,0.75
9103.00,0.75
9102.00,0.76
9101.00,0.76
9100.00,0.76
9099.00,0.76
9098.00,0.76
9097.00,0.77
9096.00,0.77
9095.00,0.77
9094.00,0.77
9093.00,0.78
9092.00,0.78
9091.00,0.78
9090.00,0.78
9089.00,0.79
9088.00,0.79
9087.00,0.79
9086.00,0.79
9085.00,0.79
9084.00,0.80
9083.00,0.80
9082.00,0.80
9081.00,0.80
9080.00,0.80
9079.00,0.80
9078.00,0.80
9077.00,0.80
9076.00,0.80
9075.00,0.79
9074.00,0.79
9073.00,0.79
9072.00,0.79
9071.00,0.79
9070.00,0.79
9069.00,0.79
9068.00,0.78
9067.00,0.78
9066.00,0.78
9065.00,0.78
9064.00,0.78
9063.00,0.78
9062.00,0.78
9061.00,0.78
9060.00,0.78
9059.00,0.78
9058.00,0.78
9057.00,0.78
9056.00,0.78
9055.00,0.78
9054.00,0.78
9053.00,0.78
9052.00,0.78
9051.00,0.78
9050.00,0.78
9049.00,0.78
9048.00,0.78
9047.00,0.78
9046.00,0.78
9045.00,0.78
9044.00,0.78
9043.00,0.78
9042.00,0.78
9041.00,0.78
9040.00,0.78
9039.00,0.77
9038.00,0.77
9037.00,0.77
9036.00,0.77
9035.00,0.78
9034.00,0.78
9033.00,0.78
9032.00,0.78
9031.00,0.78
9030.00,0.78
9029.00,0.78
9028.00,0.78
9027.00,0.78
9026.00,0.78
9025.00,0.78
9024.00,0.78
9023.00,0.78
9022.00,0.78
9021.00,0.78
9020.00,0.78
9019.00,0.78
9018.00,0.78
9017.00,0.78
9016.00,0.78
9015.00,0.78
9014.00,0.78
9013.00,0.78
9012.00,0.78
9011.00,0.78
9010.00,0.78
9009.00,0.78
9008.00,0.78
9007.00,0.77
9006.00,0.77
9005.00,0.77
9004.00,0.77
9003.00,0.77
9002.00,0.77
9001.00,0.77
9000.00,0.77
8999.00,0.77
8998.00,0.77
8997.00,0.77
8996.00,0.77
8995.00,0.78
8994.00,0.78
8993.00,0.78
8992.00,0.78
8991.00,0.78
8990.00,0.78
8989.00,0.78
8988.00,0.78
8987.00,0.78
8986.00,0.78
8985.00,0.78
8984.00,0.78
8983.00,0.78
8982.00,0.78
8981.00,0.78
8980.00,0.78
8979.00,0.78
8978.00,0.78
8977.00,0.78
8976.00,0.78
8975.00,0.78
8974.00,0.78
8973.00,0.78
8972.00,0.78
8971.00,0.78
8970.00,0.78
8969.00,0.78
8968.00,0.78
8967.00,0.78
8966.00,0.78
8965.00,0.78
8964.00,0.78
8963.00,0.78
8962.00,0.78
8961.00,0.78
8960.00,0.78
8959.00,0.78
8958.00,0.78
8957.00,0.78
8956.00,0.78
8955.00,0.78
8954.00,0.78
8953.00,0.78
8952.00,0.78
8951.00,0.78
8950.00,0.78
8949.00,0.78
8948.00,0.78
8947.00,0.78
8946.00,0.78
8945.00,0.78
8944.00,0.78
8943.00,0.78
8942.00,0.78
8941.00,0.78
8940.00,0.78
8939.00,0.78
8938.00,0.78
8937.00,0.78
8936.00,0.78
8935.00,0.78
8934.00,0.78
8933.00,0.78
8932.00,0.78
8931.00,0.78
8930.00,0.78
8929.00,0.78
8928.00,0.78
8927.00,0.78
8926.00,0.78
8925.00,0.78
8924.00,0.78
8923.00,0.78
8922.00,0.78
8921.00,0.78
8920.00,0.78
8919.00,0.78
8918.00,0.78
8917.00,0.78
8916.00,0.78
8915.00,0.78
8914.00,0.78
8913.00,0.78
8912.00,0.78
8911.00,0.78
8910.00,0.78
8909.00,0.77
8908.00,0.77
8907.00,0.77
8906.00,0.77
8905.00,0.77
8904.00,0.77
8903.00,0.76
8902.00,0.76
8901.00,0.76
8900.00,0.76
8899.00,0.76
8898.00,0.76
8897.00,0.76
8896.00,0.76
8895.00,0.76
8894.00,0.75
8893.00,0.76
8892.00,0.76
8891.00,0.76
8890.00,0.76
8889.00,0.76
8888.00,0.76
8887.00,0.76
8886.00,0.76
8885.00,0.76
8884.00,0.77
8883.00,0.77
8882.00,0.77
8881.00,0.77
8880.00,0.77
8879.00,0.77
8878.00,0.78
8877.00,0.78
8876.00,0.78
8875.00,0.78
8874.00,0.78
8873.00,0.78
8872.00,0.78
8871.00,0.78
8870.00,0.78
8869.00,0.78
8868.00,0.78
8867.00,0.78
8866.00,0.78
8865.00,0.78
8864.00,0.78
8863.00,0.78
8862.00,0.78
8861.00,0.78
8860.00,0.78
8859.00,0.78
8858.00,0.78
8857.00,0.78
8856.00,0.78
8855.00,0.78
8854.00,0.78
8853.00,0.78
8852.00,0.78
8851.00,0.78
8850.00,0.78
8849.00,0.78
8848.00,0.78
8847.00,0.78
8846.00,0.78
8845.00,0.78
8844.00,0.78
8843.00,0.77
8842.00,0.77
8841.00,0.77
8840.00,0.77
8839.00,0.77
8838.00,0.77
8837.00,0.77
8836.00,0.77
8835.00,0.77
8834.00,0.77
8833.00,0.77
8832.00,0.77
8831.00,0.77
8830.00,0.77
8829.00,0.77
8828.00,0.77
8827.00,0.77
8826.00,0.77
8825.00,0.77
8824.00,0.77
8823.00,0.77
8822.00,0.77
8821.00,0.77
8820.00,0.77
8819.00,0.77
8818.00,0.77
8817.00,0.77
8816.00,0.77
8815.00,0.77
8814.00,0.77
8813.00,0.77
8812.00,0.76
8811.00,0.76
8810.00,0.76
8809.00,0.76
8808.00,0.76
8807.00,0.76
8806.00,0.76
8805.00,0.76
8804.00,0.76
8803.00,0.76
8802.00,0.76
8801.00,0.76
8800.00,0.76
8799.00,0.76
8798.00,0.76
8797.00,0.76
8796.00,0.76
8795.00,0.76
8794.00,0.76
8793.00,0.76
8792.00,0.76
8791.00,0.76
8790.00,0.76
8789.00,0.76
8788.00,0.76
8787.00,0.76
8786.00,0.76
8785.00,0.76
8784.00,0.76
8783.00,0.76
8782.00,0.76
8781.00,0.76
8780.00,0.76
8779.00,0.76
8778.00,0.76
8777.00,0.76
8776.00,0.76
8775.00,0.76
8774.00,0.76
8773.00,0.76
8772.00,0.76
8771.00,0.76
8770.00,0.76
8769.00,0.76
8768.00,0.76
8767.00,0.76
8766.00,0.76
8765.00,0.76
8764.00,0.76
8763.00,0.76
8762.00,0.76
8761.00,0.76
8760.00,0.76
8759.00,0.76
8758.00,0.76
8757.00,0.76
8756.00,0.76
8755.00,0.76
8754.00,0.76
8753.00,0.76
8752.00,0.76
8751.00,0.76
8750.00,0.76
8749.00,0.76
8748.00,0.76
8747.00,0.75
8746.00,0.75
8745.00,0.75
8744.00,0.75
8743.00,0.75
8742.00,0.75
8741.00,0.75
8740.00,0.74
8739.00,0.74
8738.00,0.74
8737.00,0.74
8736.00,0.74
8735.00,0.74
8734.00,0.75
8733.00,0.75
8732.00,0.75
8731.00,0.75
8730.00,0.75
8729.00,0.75
8728.00,0.75
8727.00,0.75
8726.00,0.76
8725.00,0.76
8724.00,0.76
8723.00,0.76
8722.00,0.76
8721.00,0.76
8720.00,0.76
8719.00,0.76
8718.00,0.76
8717.00,0.76
8716.00,0.76
8715.00,0.76
8714.00,0.76
8713.00,0.76
8712.00,0.76
8711.00,0.76
8710.00,0.76
8709.00,0.75
8708.00,0.75
8707.00,0.75
8706.00,0.75
8705.00,0.75
8704.00,0.75
8703.00,0.75
8702.00,0.74
8701.00,0.74
8700.00,0.74
8699.00,0.74
8698.00,0.74
8697.00,0.74
8696.00,0.74
8695.00,0.74
8694.00,0.74
8693.00,0.74
8692.00,0.74
8691.00,0.74
8690.00,0.74
8689.00,0.74
8688.00,0.74
8687.00,0.74
8686.00,0.74
8685.00,0.74
8684.00,0.74
8683.00,0.74
8682.00,0.74
8681.00,0.74
8680.00,0.74
8679.00,0.74
8678.00,0.74
8677.00,0.74
8676.00,0.74
8675.00,0.74
8674.00,0.74
8673.00,0.74
8672.00,0.74
8671.00,0.74
8670.00,0.73
8669.00,0.73
8668.00,0.73
8667.00,0.73
8666.00,0.73
8665.00,0.73
8664.00,0.73
8663.00,0.72
8662.00,0.72
8661.00,0.72
8660.00,0.72
8659.00,0.72
8658.00,0.72
8657.00,0.72
8656.00,0.72
8655.00,0.72
8654.00,0.72
8653.00,0.72
8652.00,0.72
8651.00,0.72
8650.00,0.72
8649.00,0.72
8648.00,0.73
8647.00,0.73
8646.00,0.73
8645.00,0.73
8644.00,0.73
8643.00,0.73
8642.00,0.73
8641.00,0.73
8640.00,0.73
8639.00,0.73
8638.00,0.73
8637.00,0.74
8636.00,0.74
8635.00,0.74
8634.00,0.74
8633.00,0.74
8632.00,0.74
8631.00,0.74
8630.00,0.74
8629.00,0.74
8628.00,0.74
8627.00,0.74
8626.00,0.74
8625.00,0.74
8624.00,0.74
8623.00,0.74
8622.00,0.74
8621.00,0.74
8620.00,0.74
8619.00,0.74
8618.00,0.74
8617.00,0.74
8616.00,0.74
8615.00,0.74
8614.00,0.74
8613.00,0.74
8612.00,0.74
8611.00,0.74
8610.00,0.74
8609.00,0.74
8608.00,0.74
8607.00,0.74
8606.00,0.74
8605.00,0.74
8604.00,0.74
8603.00,0.74
8602.00,0.73
8601.00,0.73
8600.00,0.73
8599.00,0.73
8598.00,0.73
8597.00,0.73
8596.00,0.73
8595.00,0.72
8594.00,0.72
8593.00,0.72
8592.00,0.72
8591.00,0.72
8590.00,0.72
8589.00,0.72
8588.00,0.72
8587.00,0.72
8586.00,0.72
8585.00,0.72
8584.00,0.72
8583.00,0.72
8582.00,0.72
8581.00,0.73
8580.00,0.73
8579.00,0.73
8578.00,0.73
8577.00,0.73
8576.00,0.73
8575.00,0.73
8574.00,0.73
8573.00,0.73
8572.00,0.73
8571.00,0.73
8570.00,0.73
8569.00,0.73
8568.00,0.73
8567.00,0.72
8566.00,0.72
8565.00,0.72
8564.00,0.72
8563.00,0.72
8562.00,0.72
8561.00,0.72
8560.00,0.72
8559.00,0.72
8558.00,0.72
8557.00,0.72
8556.00,0.72
8555.00,0.72
8554.00,0.72
8553.00,0.72
8552.00,0.72
8551.00,0.72
8550.00,0.72
8549.00,0.72
8548.00,0.72
8547.00,0.72
8546.00,0.72
8545.00,0.72
8544.00,0.72
8543.00,0.72
8542.00,0.72
8541.00,0.72
8540.00,0.72
8539.00,0.72
8538.00,0.72
8537.00,0.72
8536.00,0.72
8535.00,0.72
8534.00,0.72
8533.00,0.72
8532.00,0.71
8531.00,0.71
8530.00,0.71
8529.00,0.71
8528.00,0.71
8527.00,0.71
8526.00,0.71
8525.00,0.71
8524.00,0.71
8523.00,0.71
8522.00,0.71
8521.00,0.71
8520.00,0.71
8519.00,0.72
8518.00,0.72
8517.00,0.72
8516.00,0.72
8515.00,0.72
8514.00,0.72
8513.00,0.72
8512.00,0.72
8511.00,0.72
8510.00,0.72
8509.00,0.72
8508.00,0.72
8507.00,0.72
8506.00,0.72
8505.00,0.72
8504.00,0.72
8503.00,0.71
8502.00,0.71
8501.00,0.71
8500.00,0.71
8499.00,0.71
8498.00,0.71
8497.00,0.71
8496.00,0.70
8495.00,0.70
8494.00,0.70
8493.00,0.70
8492.00,0.70
8491.00,0.70
8490.00,0.70
8489.00,0.70
8488.00,0.70
8487.00,0.69
8486.00,0.69
8485.00,0.69
8484.00,0.69
8483.00,0.69
8482.00,0.69
8481.00,0.69
8480.00,0.69
8479.00,0.69
8478.00,0.69
8477.00,0.69
8476.00,0.69
8475.00,0.69
8474.00,0.69
8473.00,0.69
8472.00,0.69
8471.00,0.69
8470.00,0.69
8469.00,0.69
8468.00,0.69
8467.00,0.69
8466.00,0.69
8465.00,0.69
8464.00,0.69
8463.00,0.70
8462.00,0.70
8461.00,0.69
8460.00,0.69
8459.00,0.69
8458.00,0.69
8457.00,0.69
8456.00,0.69
8455.00,0.69
8454.00,0.69
8453.00,0.69
8452.00,0.69
8451.00,0.69
8450.00,0.69
8449.00,0.69
8448.00,0.69
8447.00,0.69
8446.00,0.69
8445.00,0.69
8444.00,0.69
8443.00,0.69
8442.00,0.69
8441.00,0.69
8440.00,0.69
8439.00,0.69
8438.00,0.69
8437.00,0.69
8436.00,0.69
8435.00,0.69
8434.00,0.69
8433.00,0.69
8432.00,0.69
8431.00,0.69
8430.00,0.69
8429.00,0.69
8428.00,0.69
8427.00,0.69
8426.00,0.69
8425.00,0.69
8424.00,0.69
8423.00,0.69
8422.00,0.69
8421.00,0.69
8420.00,0.70
8419.00,0.70
8418.00,0.70
8417.00,0.70
8416.00,0.70
8415.00,0.70
8414.00,0.70
8413.00,0.70
8412.00,0.70
8411.00,0.70
8410.00,0.70
8409.00,0.70
8408.00,0.70
8407.00,0.70
8406.00,0.70
8405.00,0.70
8404.00,0.70
8403.00,0.70
8402.00,0.70
8401.00,0.70
8400.00,0.70
8399.00,0.70
8398.00,0.70
8397.00,0.70
8396.00,0.70
8395.00,0.70
8394.00,0.69
8393.00,0.69
8392.00,0.69
8391.00,0.69
8390.00,0.69
8389.00,0.69
8388.00,0.69
8387.00,0.69
8386.00,0.69
8385.00,0.69
8384.00,0.69
8383.00,0.69
8382.00,0.69
8381.00,0.69
8380.00,0.70
8379.00,0.70
8378.00,0.70
8377.00,0.70
8376.00,0.70
8375.00,0.70
8374.00,0.70
8373.00,0.70
8372.00,0.70
8371.00,0.70
8370.00,0.71
8369.00,0.71
8368.00,0.71
8367.00,0.71
8366.00,0.71
8365.00,0.71
8364.00,0.71
8363.00,0.71
8362.00,0.71
8361.00,0.71
8360.00,0.71
8359.00,0.71
8358.00,0.71
8357.00,0.71
8356.00,0.71
8355.00,0.71
8354.00,0.72
8353.00,0.72
8352.00,0.72
8351.00,0.72
8350.00,0.72
8349.00,0.72
8348.00,0.72
8347.00,0.72
8346.00,0.72
8345.00,0.73
8344.00,0.73
8343.00,0.73
8342.00,0.73
8341.00,0.73
8340.00,0.73
8339.00,0.73
8338.00,0.73
8337.00,0.72
8336.00,0.72
8335.00,0.72
8334.00,0.72
8333.00,0.72
8332.00,0.72
8331.00,0.72
8330.00,0.72
8329.00,0.72
8328.00,0.72
8327.00,0.72
8326.00,0.72
8325.00,0.72
8324.00,0.73
8323.00,0.73
8322.00,0.73
8321.00,0.73
8320.00,0.73
8319.00,0.73
8318.00,0.73
8317.00,0.73
8316.00,0.73
8315.00,0.73
8314.00,0.73
8313.00,0.73
8312.00,0.73
8311.00,0.73
8310.00,0.72
8309.00,0.72
8308.00,0.72
8307.00,0.72
8306.00,0.72
8305.00,0.72
8304.00,0.72
8303.00,0.72
8302.00,0.72
8301.00,0.72
8300.00,0.72
8299.00,0.72
8298.00,0.72
8297.00,0.72
8296.00,0.72
8295.00,0.72
8294.00,0.72
8293.00,0.72
8292.00,0.72
8291.00,0.73
8290.00,0.73
8289.00,0.73
8288.00,0.73
8287.00,0.73
8286.00,0.73
8285.00,0.73
8284.00,0.73
8283.00,0.73
8282.00,0.73
8281.00,0.73
8280.00,0.73
8279.00,0.73
8278.00,0.73
8277.00,0.73
8276.00,0.73
8275.00,0.73
8274.00,0.73
8273.00,0.73
8272.00,0.73
8271.00,0.73
8270.00,0.73
8269.00,0.73
8268.00,0.73
8267.00,0.73
8266.00,0.73
8265.00,0.73
8264.00,0.73
8263.00,0.73
8262.00,0.73
8261.00,0.73
8260.00,0.73
8259.00,0.73
8258.00,0.73
8257.00,0.73
8256.00,0.73
8255.00,0.73
8254.00,0.73
8253.00,0.73
8252.00,0.73
8251.00,0.73
8250.00,0.73
8249.00,0.73
8248.00,0.73
8247.00,0.73
8246.00,0.73
8245.00,0.73
8244.00,0.73
8243.00,0.73
8242.00,0.73
8241.00,0.73
8240.00,0.73
8239.00,0.73
8238.00,0.73
8237.00,0.73
8236.00,0.73
8235.00,0.73
8234.00,0.73
8233.00,0.73
8232.00,0.73
8231.00,0.73
8230.00,0.73
8229.00,0.73
8228.00,0.73
8227.00,0.73
8226.00,0.73
8225.00,0.73
8224.00,0.73
8223.00,0.73
8222.00,0.73
8221.00,0.73
8220.00,0.73
8219.00,0.73
8218.00,0.73
8217.00,0.73
8216.00,0.73
8215.00,0.73
8214.00,0.73
8213.00,0.73
8212.00,0.73
8211.00,0.73
8210.00,0.73
8209.00,0.73
8208.00,0.73
8207.00,0.73
8206.00,0.73
8205.00,0.73
8204.00,0.73
8203.00,0.73
8202.00,0.73
8201.00,0.73
8200.00,0.73
8199.00,0.73
8198.00,0.74
8197.00,0.74
8196.00,0.74
8195.00,0.74
8194.00,0.74
8193.00,0.75
8192.00,0.75
8191.00,0.75
8190.00,0.75
8189.00,0.75
8188.00,0.75
8187.00,0.75
8186.00,0.75
8185.00,0.75
8184.00,0.75
8183.00,0.75
8182.00,0.75
8181.00,0.75
8180.00,0.75
8179.00,0.75
8178.00,0.75
8177.00,0.75
8176.00,0.75
8175.00,0.75
8174.00,0.75
8173.00,0.75
8172.00,0.75
8171.00,0.75
8170.00,0.75
8169.00,0.75
8168.00,0.75
8167.00,0.75
8166.00,0.75
8165.00,0.75
8164.00,0.75
8163.00,0.75
8162.00,0.74
8161.00,0.74
8160.00,0.74
8159.00,0.74
8158.00,0.74
8157.00,0.74
8156.00,0.74
8155.00,0.74
8154.00,0.75
8153.00,0.75
8152.00,0.75
8151.00,0.75
8150.00,0.75
8149.00,0.75
8148.00,0.75
8147.00,0.75
8146.00,0.75
8145.00,0.75
8144.00,0.75
8143.00,0.75
8142.00,0.75
8141.00,0.75
8140.00,0.75
8139.00,0.75
8138.00,0.75
8137.00,0.75
8136.00,0.75
8135.00,0.75
8134.00,0.75
8133.00,0.75
8132.00,0.75
8131.00,0.75
8130.00,0.75
8129.00,0.74
8128.00,0.74
8127.00,0.74
8126.00,0.74
8125.00,0.74
8124.00,0.74
8123.00,0.74
8122.00,0.74
8121.00,0.75
8120.00,0.75
8119.00,0.75
8118.00,0.75
8117.00,0.75
8116.00,0.75
8115.00,0.75
8114.00,0.75
8113.00,0.75
8112.00,0.75
8111.00,0.75
8110.00,0.76
8109.00,0.76
8108.00,0.76
8107.00,0.76
8106.00,0.76
8105.00,0.76
8104.00,0.76
8103.00,0.76
8102.00,0.76
8101.00,0.76
8100.00,0.76
8099.00,0.75
8098.00,0.75
8097.00,0.75
8096.00,0.75
8095.00,0.75
8094.00,0.75
8093.00,0.75
8092.00,0.75
8091.00,0.75
8090.00,0.75
8089.00,0.75
8088.00,0.76
8087.00,0.76
8086.00,0.76
8085.00,0.76
8084.00,0.76
8083.00,0.76
8082.00,0.76
8081.00,0.76
8080.00,0.76
8079.00,0.76
8078.00,0.76
8077.00,0.76
8076.00,0.76
8075.00,0.77
8074.00,0.77
8073.00,0.77
8072.00,0.77
8071.00,0.77
8070.00,0.77
8069.00,0.77
8068.00,0.77
8067.00,0.77
8066.00,0.77
8065.00,0.76
8064.00,0.76
8063.00,0.76
8062.00,0.76
8061.00,0.76
8060.00,0.76
8059.00,0.76
8058.00,0.76
8057.00,0.76
8056.00,0.76
8055.00,0.76
8054.00,0.76
8053.00,0.77
8052.00,0.77
8051.00,0.77
8050.00,0.77
8049.00,0.77
8048.00,0.77
8047.00,0.77
8046.00,0.77
8045.00,0.77
8044.00,0.77
8043.00,0.77
8042.00,0.77
8041.00,0.77
8040.00,0.77
8039.00,0.77
8038.00,0.77
8037.00,0.77
8036.00,0.77
8035.00,0.77
8034.00,0.77
8033.00,0.77
8032.00,0.77
8031.00,0.77
8030.00,0.77
8029.00,0.77
8028.00,0.77
8027.00,0.77
8026.00,0.77
8025.00,0.77
8024.00,0.77
8023.00,0.77
8022.00,0.77
8021.00,0.77
8020.00,0.77
8019.00,0.77
8018.00,0.77
8017.00,0.77
8016.00,0.77
8015.00,0.77
8014.00,0.77
8013.00,0.77
8012.00,0.77
8011.00,0.77
8010.00,0.77
8009.00,0.77
8008.00,0.77
8007.00,0.77
8006.00,0.77
8005.00,0.77
8004.00,0.77
8003.00,0.77
8002.00,0.77
8001.00,0.77
8000.00,0.77
7999.00,0.77
7998.00,0.77
7997.00,0.77
7996.00,0.77
7995.00,0.77
7994.00,0.77
7993.00,0.77
7992.00,0.78
7991.00,0.78
7990.00,0.78
7989.00,0.78
7988.00,0.78
7987.00,0.78
7986.00,0.78
7985.00,0.78
7984.00,0.78
7983.00,0.78
7982.00,0.78
7981.00,0.78
7980.00,0.78
7979.00,0.78
7978.00,0.78
7977.00,0.78
7976.00,0.78
7975.00,0.78
7974.00,0.78
7973.00,0.78
7972.00,0.78
7971.00,0.78
7970.00,0.78
7969.00,0.78
7968.00,0.78
7967.00,0.78
7966.00,0.77
7965.00,0.77
7964.00,0.77
7963.00,0.78
7962.00,0.78
7961.00,0.78
7960.00,0.78
7959.00,0.78
7958.00,0.78
7957.00,0.78
7956.00,0.78
7955.00,0.78
7954.00,0.78
7953.00,0.78
7952.00,0.78
7951.00,0.78
7950.00,0.78
7949.00,0.78
7948.00,0.78
7947.00,0.78
7946.00,0.78
7945.00,0.78
7944.00,0.78
7943.00,0.78
7942.00,0.78
7941.00,0.78
7940.00,0.78
7939.00,0.78
7938.00,0.78
7937.00,0.78
7936.00,0.78
7935.00,0.78
7934.00,0.78
7933.00,0.78
7932.00,0.78
7931.00,0.78
7930.00,0.78
7929.00,0.78
7928.00,0.78
7927.00,0.78
7926.00,0.78
7925.00,0.78
7924.00,0.78
7923.00,0.78
7922.00,0.78
7921.00,0.78
7920.00,0.78
7919.00,0.78
7918.00,0.78
7917.00,0.78
7916.00,0.78
7915.00,0.78
7914.00,0.78
7913.00,0.78
7912.00,0.78
7911.00,0.78
7910.00,0.78
7909.00,0.78
7908.00,0.78
7907.00,0.78
7906.00,0.78
7905.00,0.78
7904.00,0.78
7903.00,0.78
7902.00,0.78
7901.00,0.78
7900.00,0.78
7899.00,0.78
7898.00,0.78
7897.00,0.78
7896.00,0.78
7895.00,0.78
7894.00,0.78
7893.00,0.78
7892.00,0.78
7891.00,0.78
7890.00,0.78
7889.00,0.78
7888.00,0.78
7887.00,0.79
7886.00,0.79
7885.00,0.79
7884.00,0.79
7883.00,0.79
7882.00,0.79
7881.00,0.79
7880.00,0.79
7879.00,0.79
7878.00,0.79
7877.00,0.79
7876.00,0.79
7875.00,0.79
7874.00,0.79
7873.00,0.79
7872.00,0.80
7871.00,0.80
7870.00,0.80
7869.00,0.80
7868.00,0.80
7867.00,0.79
7866.00,0.79
7865.00,0.79
7864.00,0.79
7863.00,0.79
7862.00,0.79
7861.00,0.79
7860.00,0.79
7859.00,0.79
7858.00,0.79
7857.00,0.79
7856.00,0.79
7855.00,0.79
7854.00,0.79
7853.00,0.79
7852.00,0.79
7851.00,0.79
7850.00,0.79
7849.00,0.79
7848.00,0.79
7847.00,0.79
7846.00,0.79
7845.00,0.79
7844.00,0.79
7843.00,0.79
7842.00,0.79
7841.00,0.79
7840.00,0.79
7839.00,0.79
7838.00,0.79
7837.00,0.79
7836.00,0.79
7835.00,0.79
7834.00,0.79
7833.00,0.79
7832.00,0.79
7831.00,0.79
7830.00,0.79
7829.00,0.79
7828.00,0.79
7827.00,0.79
7826.00,0.79
7825.00,0.79
7824.00,0.79
7823.00,0.79
7822.00,0.79
7821.00,0.79
7820.00,0.79
7819.00,0.79
7818.00,0.79
7817.00,0.79
7816.00,0.79
7815.00,0.79
7814.00,0.79
7813.00,0.79
7812.00,0.79
7811.00,0.79
7810.00,0.79
7809.00,0.79
7808.00,0.79
7807.00,0.79
7806.00,0.79
7805.00,0.79
7804.00,0.79
7803.00,0.79
7802.00,0.79
7801.00,0.80
7800.00,0.80
7799.00,0.80
7798.00,0.80
7797.00,0.80
7796.00,0.80
7795.00,0.80
7794.00,0.79
7793.00,0.79
7792.00,0.79
7791.00,0.79
7790.00,0.79
7789.00,0.79
7788.00,0.79
7787.00,0.79
7786.00,0.79
7785.00,0.79
7784.00,0.79
7783.00,0.79
7782.00,0.79
7781.00,0.79
7780.00,0.79
7779.00,0.79
7778.00,0.79
7777.00,0.79
7776.00,0.79
7775.00,0.79
7774.00,0.79
7773.00,0.80
7772.00,0.80
7771.00,0.80
7770.00,0.80
7769.00,0.80
7768.00,0.80
7767.00,0.80
7766.00,0.80
7765.00,0.80
7764.00,0.80
7763.00,0.80
7762.00,0.80
7761.00,0.80
7760.00,0.80
7759.00,0.80
7758.00,0.80
7757.00,0.79
7756.00,0.79
7755.00,0.79
7754.00,0.79
7753.00,0.79
7752.00,0.79
7751.00,0.79
7750.00,0.79
7749.00,0.79
7748.00,0.79
7747.00,0.79
7746.00,0.79
7745.00,0.79
7744.00,0.79
7743.00,0.79
7742.00,0.79
7741.00,0.79
7740.00,0.79
7739.00,0.79
7738.00,0.79
7737.00,0.79
7736.00,0.79
7735.00,0.79
7734.00,0.79
7733.00,0.79
7732.00,0.79
7731.00,0.79
7730.00,0.79
7729.00,0.79
7728.00,0.79
7727.00,0.79
7726.00,0.79
7725.00,0.79
7724.00,0.79
7723.00,0.79
7722.00,0.79
7721.00,0.79
7720.00,0.79
7719.00,0.79
7718.00,0.79
7717.00,0.79
7716.00,0.79
7715.00,0.79
7714.00,0.79
7713.00,0.79
7712.00,0.79
7711.00,0.79
7710.00,0.79
7709.00,0.79
7708.00,0.79
7707.00,0.79
7706.00,0.79
7705.00,0.79
7704.00,0.79
7703.00,0.79
7702.00,0.79
7701.00,0.79
7700.00,0.79
7699.00,0.80
7698.00,0.80
7697.00,0.80
7696.00,0.80
7695.00,0.80
7694.00,0.80
7693.00,0.80
7692.00,0.80
7691.00,0.80
7690.00,0.80
7689.00,0.80
7688.00,0.80
7687.00,0.80
7686.00,0.80
7685.00,0.80
7684.00,0.80
7683.00,0.80
7682.00,0.80
7681.00,0.80
7680.00,0.80
7679.00,0.79
7678.00,0.79
7677.00,0.79
7676.00,0.79
7675.00,0.79
7674.00,0.79
7673.00,0.79
7672.00,0.79
7671.00,0.79
7670.00,0.79
7669.00,0.79
7668.00,0.79
7667.00,0.79
7666.00,0.79
7665.00,0.79
7664.00,0.79
7663.00,0.79
7662.00,0.79
7661.00,0.79
7660.00,0.79
7659.00,0.80
7658.00,0.80
7657.00,0.80
7656.00,0.80
7655.00,0.80
7654.00,0.80
7653.00,0.80
7652.00,0.80
7651.00,0.80
7650.00,0.80
7649.00,0.80
7648.00,0.79
7647.00,0.79
7646.00,0.79
7645.00,0.79
7644.00,0.79
7643.00,0.79
7642.00,0.79
7641.00,0.79
7640.00,0.79
7639.00,0.79
7638.00,0.79
7637.00,0.79
7636.00,0.79
7635.00,0.79
7634.00,0.79
7633.00,0.79
7632.00,0.79
7631.00,0.79
7630.00,0.79
7629.00,0.79
7628.00,0.79
7627.00,0.79
7626.00,0.79
7625.00,0.79
7624.00,0.79
7623.00,0.79
7622.00,0.79
7621.00,0.79
7620.00,0.79
7619.00,0.80
7618.00,0.80
7617.00,0.80
7616.00,0.80
7615.00,0.80
7614.00,0.80
7613.00,0.80
7612.00,0.80
7611.00,0.80
7610.00,0.80
7609.00,0.80
7608.00,0.80
7607.00,0.79
7606.00,0.79
7605.00,0.79
7604.00,0.79
7603.00,0.79
7602.00,0.79
7601.00,0.79
7600.00,0.79
7599.00,0.79
7598.00,0.79
7597.00,0.79
7596.00,0.79
7595.00,0.79
7594.00,0.79
7593.00,0.79
7592.00,0.79
7591.00,0.79
7590.00,0.79
7589.00,0.79
7588.00,0.79
7587.00,0.79
7586.00,0.79
7585.00,0.79
7584.00,0.79
7583.00,0.79
7582.00,0.79
7581.00,0.79
7580.00,0.79
7579.00,0.79
7578.00,0.79
7577.00,0.79
7576.00,0.79
7575.00,0.79
7574.00,0.79
7573.00,0.79
7572.00,0.79
7571.00,0.79
7570.00,0.79
7569.00,0.79
7568.00,0.79
7567.00,0.79
7566.00,0.79
7565.00,0.79
7564.00,0.79
7563.00,0.79
7562.00,0.79
7561.00,0.79
7560.00,0.79
7559.00,0.79
7558.00,0.79
7557.00,0.79
7556.00,0.79
7555.00,0.79
7554.00,0.79
7553.00,0.79
7552.00,0.79
7551.00,0.79
7550.00,0.79
7549.00,0.79
7548.00,0.79
7547.00,0.79
7546.00,0.79
7545.00,0.79
7544.00,0.79
7543.00,0.79
7542.00,0.79
7541.00,0.78
7540.00,0.78
7539.00,0.78
7538.00,0.78
7537.00,0.78
7536.00,0.78
7535.00,0.78
7534.00,0.78
7533.00,0.78
7532.00,0.78
7531.00,0.78
7530.00,0.78
7529.00,0.78
7528.00,0.78
7527.00,0.78
7526.00,0.79
7525.00,0.79
7524.00,0.79
7523.00,0.79
7522.00,0.79
7521.00,0.79
7520.00,0.79
7519.00,0.79
7518.00,0.79
7517.00,0.79
7516.00,0.79
7515.00,0.79
7514.00,0.79
7513.00,0.79
7512.00,0.79
7511.00,0.79
7510.00,0.79
7509.00,0.79
7508.00,0.79
7507.00,0.79
7506.00,0.79
7505.00,0.79
7504.00,0.79
7503.00,0.79
7502.00,0.79
7501.00,0.79
7500.00,0.79
7499.00,0.78
7498.00,0.78
7497.00,0.78
7496.00,0.78
7495.00,0.78
7494.00,0.78
7493.00,0.78
7492.00,0.78
7491.00,0.78
7490.00,0.78
7489.00,0.77
7488.00,0.77
7487.00,0.77
7486.00,0.77
7485.00,0.77
7484.00,0.77
7483.00,0.77
7482.00,0.77
7481.00,0.77
7480.00,0.76
7479.00,0.76
7478.00,0.76
7477.00,0.76
7476.00,0.76
7475.00,0.76
7474.00,0.76
7473.00,0.76
7472.00,0.76
7471.00,0.76
7470.00,0.76
7469.00,0.76
7468.00,0.76
7467.00,0.76
7466.00,0.76
7465.00,0.76
7464.00,0.76
7463.00,0.76
7462.00,0.76
7461.00,0.76
7460.00,0.76
7459.00,0.76
7458.00,0.76
7457.00,0.76
7456.00,0.76
7455.00,0.75
7454.00,0.75
7453.00,0.75
7452.00,0.75
7451.00,0.75
7450.00,0.75
7449.00,0.75
7448.00,0.75
7447.00,0.75
7446.00,0.76
7445.00,0.76
7444.00,0.76
7443.00,0.76
7442.00,0.76
7441.00,0.76
7440.00,0.76
7439.00,0.76
7438.00,0.76
7437.00,0.76
7436.00,0.76
7435.00,0.76
7434.00,0.76
7433.00,0.76
7432.00,0.76
7431.00,0.76
7430.00,0.76
7429.00,0.76
7428.00,0.76
7427.00,0.76
7426.00,0.76
7425.00,0.75
7424.00,0.75
7423.00,0.75
7422.00,0.75
7421.00,0.75
7420.00,0.75
7419.00,0.74
7418.00,0.74
7417.00,0.74
7416.00,0.74
7415.00,0.74
7414.00,0.74
7413.00,0.74
7412.00,0.74
7411.00,0.74
7410.00,0.74
7409.00,0.74
7408.00,0.74
7407.00,0.74
7406.00,0.74
7405.00,0.74
7404.00,0.74
7403.00,0.74
7402.00,0.74
7401.00,0.74
7400.00,0.74
7399.00,0.74
7398.00,0.74
7397.00,0.74
7396.00,0.74
7395.00,0.74
7394.00,0.73
7393.00,0.73
7392.00,0.73
7391.00,0.73
7390.00,0.73
7389.00,0.73
7388.00,0.73
7387.00,0.72
7386.00,0.72
7385.00,0.72
7384.00,0.72
7383.00,0.72
7382.00,0.72
7381.00,0.72
7380.00,0.72
7379.00,0.72
7378.00,0.72
7377.00,0.72
7376.00,0.72
7375.00,0.72
7374.00,0.72
7373.00,0.72
7372.00,0.72
7371.00,0.72
7370.00,0.72
7369.00,0.72
7368.00,0.72
7367.00,0.72
7366.00,0.72
7365.00,0.72
7364.00,0.72
7363.00,0.72
7362.00,0.72
7361.00,0.72
7360.00,0.72
7359.00,0.72
7358.00,0.72
7357.00,0.72
7356.00,0.72
7355.00,0.72
7354.00,0.72
7353.00,0.72
7352.00,0.72
7351.00,0.72
7350.00,0.72
7349.00,0.72
7348.00,0.72
7347.00,0.72
7346.00,0.72
7345.00,0.72
7344.00,0.72
7343.00,0.72
7342.00,0.72
7341.00,0.72
7340.00,0.72
7339.00,0.72
7338.00,0.72
7337.00,0.72
7336.00,0.72
7335.00,0.72
7334.00,0.72
7333.00,0.71
7332.00,0.71
7331.00,0.71
7330.00,0.71
7329.00,0.71
7328.00,0.71
7327.00,0.71
7326.00,0.71
7325.00,0.71
7324.00,0.71
7323.00,0.71
7322.00,0.71
7321.00,0.71
7320.00,0.71
7319.00,0.71
7318.00,0.71
7317.00,0.71
7316.00,0.71
7315.00,0.71
7314.00,0.71
7313.00,0.71
7312.00,0.71
7311.00,0.71
7310.00,0.71
7309.00,0.71
7308.00,0.71
7307.00,0.71
7306.00,0.71
7305.00,0.71
7304.00,0.71
7303.00,0.71
7302.00,0.70
7301.00,0.70
7300.00,0.70
7299.00,0.70
7298.00,0.70
7297.00,0.70
7296.00,0.70
7295.00,0.70
7294.00,0.70
7293.00,0.70
7292.00,0.70
7291.00,0.70
7290.00,0.70
7289.00,0.69
7288.00,0.69
7287.00,0.69
7286.00,0.69
7285.00,0.69
7284.00,0.69
7283.00,0.69
7282.00,0.69
7281.00,0.69
7280.00,0.69
7279.00,0.69
7278.00,0.68
7277.00,0.68
7276.00,0.68
7275.00,0.68
7274.00,0.68
7273.00,0.68
7272.00,0.68
7271.00,0.68
7270.00,0.67
7269.00,0.67
7268.00,0.67
7267.00,0.67
7266.00,0.67
7265.00,0.67
7264.00,0.67
7263.00,0.67
7262.00,0.66
7261.00,0.66
7260.00,0.66
7259.00,0.66
7258.00,0.66
7257.00,0.66
7256.00,0.66
7255.00,0.66
7254.00,0.66
7253.00,0.66
7252.00,0.66
7251.00,0.66
7250.00,0.66
7249.00,0.65
7248.00,0.65
7247.00,0.65
7246.00,0.65
7245.00,0.65
7244.00,0.65
7243.00,0.65
7242.00,0.65
7241.00,0.65
7240.00,0.64
7239.00,0.64
7238.00,0.64
7237.00,0.64
7236.00,0.64
7235.00,0.63
7234.00,0.63
7233.00,0.63
7232.00,0.63
7231.00,0.63
7230.00,0.62
7229.00,0.62
7228.00,0.62
7227.00,0.62
7226.00,0.61
7225.00,0.61
7224.00,0.61
7223.00,0.61
7222.00,0.60
7221.00,0.60
7220.00,0.60
7219.00,0.60
7218.00,0.59
7217.00,0.59
7216.00,0.59
7215.00,0.59
7214.00,0.58
7213.00,0.58
7212.00,0.58
7211.00,0.58
7210.00,0.58
7209.00,0.57
7208.00,0.57
7207.00,0.57
7206.00,0.57
7205.00,0.57
7204.00,0.56
7203.00,0.56
7202.00,0.56
7201.00,0.56
7200.00,0.56
7199.00,0.55
7198.00,0.55
7197.00,0.55
7196.00,0.55
7195.00,0.55
7194.00,0.55
7193.00,0.55
7192.00,0.54
7191.00,0.54
7190.00,0.54
7189.00,0.54
7188.00,0.54
7187.00,0.54
7186.00,0.54
7185.00,0.54
7184.00,0.54
7183.00,0.54
7182.00,0.53
7181.00,0.53
7180.00,0.53
7179.00,0.53
7178.00,0.53
7177.00,0.53
7176.00,0.52
7175.00,0.52
7174.00,0.52
7173.00,0.52
7172.00,0.52
7171.00,0.51
7170.00,0.51
7169.00,0.51
7168.00,0.51
7167.00,0.51
7166.00,0.50
7165.00,0.50
7164.00,0.50
7163.00,0.50
7162.00,0.49
7161.00,0.49
7160.00,0.49
7159.00,0.49
7158.00,0.48
7157.00,0.48
7156.00,0.48
7155.00,0.48
7154.00,0.48
7153.00,0.47
7152.00,0.47
7151.00,0.47
7150.00,0.47
7149.00,0.47
7148.00,0.46
7147.00,0.46
7146.00,0.46
7145.00,0.46
7144.00,0.46
7143.00,0.46
7142.00,0.46
7141.00,0.45
7140.00,0.45
7139.00,0.45
7138.00,0.45
7137.00,0.45
7136.00,0.45
7135.00,0.45
7134.00,0.44
7133.00,0.44
7132.00,0.44
7131.00,0.44
7130.00,0.44
7129.00,0.44
7128.00,0.44
7127.00,0.44
7126.00,0.44
7125.00,0.43
7124.00,0.43
7123.00,0.43
7122.00,0.43
7121.00,0.43
7120.00,0.43
7119.00,0.43
7118.00,0.43
7117.00,0.43
7116.00,0.43
7115.00,0.43
7114.00,0.43
7113.00,0.43
7112.00,0.42
7111.00,0.42
7110.00,0.42
7109.00,0.42
7108.00,0.42
7107.00,0.42
7106.00,0.42
7105.00,0.42
7104.00,0.42
7103.00,0.42
7102.00,0.41
7101.00,0.41
7100.00,0.41
7099.00,0.41
7098.00,0.41
7097.00,0.41
7096.00,0.40
7095.00,0.40
7094.00,0.40
7093.00,0.40
7092.00,0.40
7091.00,0.39
7090.00,0.39
7089.00,0.39
7088.00,0.39
7087.00,0.39
7086.00,0.39
7085.00,0.38
7084.00,0.38
7083.00,0.38
7082.00,0.38
7081.00,0.38
7080.00,0.38
7079.00,0.38
7078.00,0.38
7077.00,0.38
7076.00,0.38
7075.00,0.38
7074.00,0.38
7073.00,0.38
7072.00,0.38
7071.00,0.38
7070.00,0.37
7069.00,0.37
7068.00,0.37
7067.00,0.37
7066.00,0.37
7065.00,0.37
7064.00,0.37
7063.00,0.37
7062.00,0.37
7061.00,0.37
7060.00,0.37
7059.00,0.37
7058.00,0.37
7057.00,0.37
7056.00,0.36
7055.00,0.36
7054.00,0.36
7053.00,0.36
7052.00,0.36
7051.00,0.36
7050.00,0.36
7049.00,0.36
7048.00,0.36
7047.00,0.36
7046.00,0.36
7045.00,0.36
7044.00,0.36
7043.00,0.36
7042.00,0.36
7041.00,0.36
7040.00,0.36
7039.00,0.36
7038.00,0.36
7037.00,0.36
7036.00,0.36
7035.00,0.36
7034.00,0.36
7033.00,0.36
7032.00,0.36
7031.00,0.36
7030.00,0.36
7029.00,0.36
7028.00,0.36
7027.00,0.36
7026.00,0.36
7025.00,0.36
7024.00,0.36
7023.00,0.36
7022.00,0.36
7021.00,0.36
7020.00,0.36
7019.00,0.36
7018.00,0.35
7017.00,0.35
7016.00,0.35
7015.00,0.35
7014.00,0.35
7013.00,0.35
7012.00,0.35
7011.00,0.35
7010.00,0.35
7009.00,0.35
7008.00,0.35
7007.00,0.35
7006.00,0.35
7005.00,0.35
7004.00,0.35
7003.00,0.35
7002.00,0.35
7001.00,0.35
7000.00,0.35
6999.00,0.35
6998.00,0.35
6997.00,0.35
6996.00,0.35
6995.00,0.35
6994.00,0.35
6993.00,0.35
6992.00,0.35
6991.00,0.35
6990.00,0.35
6989.00,0.35
6988.00,0.35
6987.00,0.35
6986.00,0.35
6985.00,0.35
6984.00,0.35
6983.00,0.34
6982.00,0.34
6981.00,0.34
6980.00,0.34
6979.00,0.34
6978.00,0.34
6977.00,0.34
6976.00,0.34
6975.00,0.35
6974.00,0.35
6973.00,0.35
6972.00,0.35
6971.00,0.35
6970.00,0.35
6969.00,0.35
6968.00,0.35
6967.00,0.35
6966.00,0.35
6965.00,0.35
6964.00,0.35
6963.00,0.35
6962.00,0.35
6961.00,0.35
6960.00,0.35
6959.00,0.35
6958.00,0.35
6957.00,0.35
6956.00,0.34
6955.00,0.34
6954.00,0.34
6953.00,0.34
6952.00,0.34
6951.00,0.34
6950.00,0.34
6949.00,0.34
6948.00,0.34
6947.00,0.34
6946.00,0.34
6945.00,0.34
6944.00,0.34
6943.00,0.34
6942.00,0.34
6941.00,0.34
6940.00,0.34
6939.00,0.34
6938.00,0.34
6937.00,0.34
6936.00,0.35
6935.00,0.35
6934.00,0.35
6933.00,0.35
6932.00,0.35
6931.00,0.35
6930.00,0.35
6929.00,0.35
6928.00,0.35
6927.00,0.35
6926.00,0.35
6925.00,0.35
6924.00,0.35
6923.00,0.35
6922.00,0.35
6921.00,0.35
6920.00,0.35
6919.00,0.35
6918.00,0.34
6917.00,0.34
6916.00,0.34
6915.00,0.34
6914.00,0.34
6913.00,0.34
6912.00,0.34
6911.00,0.34
6910.00,0.34
6909.00,0.35
6908.00,0.35
6907.00,0.35
6906.00,0.35
6905.00,0.35
6904.00,0.35
6903.00,0.35
6902.00,0.35
6901.00,0.35
6900.00,0.35
6899.00,0.35
6898.00,0.35
6897.00,0.35
6896.00,0.35
6895.00,0.35
6894.00,0.35
6893.00,0.35
6892.00,0.35
6891.00,0.35
6890.00,0.34
6889.00,0.34
6888.00,0.34
6887.00,0.34
6886.00,0.34
6885.00,0.34
6884.00,0.34
6883.00,0.34
6882.00,0.34
6881.00,0.34
6880.00,0.34
6879.00,0.34
6878.00,0.34
6877.00,0.34
6876.00,0.34
6875.00,0.34
6874.00,0.34
6873.00,0.34
6872.00,0.34
6871.00,0.34
6870.00,0.34
6869.00,0.34
6868.00,0.34
6867.00,0.34
6866.00,0.34
6865.00,0.34
6864.00,0.34
6863.00,0.34
6862.00,0.34
6861.00,0.34
6860.00,0.34
6859.00,0.34
6858.00,0.34
6857.00,0.34
6856.00,0.34
6855.00,0.34
6854.00,0.34
6853.00,0.34
6852.00,0.34
6851.00,0.34
6850.00,0.34
6849.00,0.34
6848.00,0.35
6847.00,0.35
6846.00,0.35
6845.00,0.35
6844.00,0.35
6843.00,0.35
6842.00,0.35
6841.00,0.35
6840.00,0.35
6839.00,0.35
6838.00,0.35
6837.00,0.35
6836.00,0.35
6835.00,0.35
6834.00,0.35
6833.00,0.35
6832.00,0.35
6831.00,0.35
6830.00,0.35
6829.00,0.35
6828.00,0.35
6827.00,0.35
6826.00,0.35
6825.00,0.34
6824.00,0.34
6823.00,0.34
6822.00,0.34
6821.00,0.34
6820.00,0.34
6819.00,0.34
6818.00,0.34
6817.00,0.34
6816.00,0.34
6815.00,0.34
6814.00,0.34
6813.00,0.34
6812.00,0.34
6811.00,0.34
6810.00,0.34
6809.00,0.34
6808.00,0.34
6807.00,0.34
6806.00,0.34
6805.00,0.34
6804.00,0.34
6803.00,0.34
6802.00,0.34
6801.00,0.34
6800.00,0.34
6799.00,0.34
6798.00,0.34
6797.00,0.35
6796.00,0.35
6795.00,0.35
6794.00,0.35
6793.00,0.35
6792.00,0.35
6791.00,0.35
6790.00,0.35
6789.00,0.35
6788.00,0.35
6787.00,0.35
6786.00,0.35
6785.00,0.36
6784.00,0.36
6783.00,0.36
6782.00,0.36
6781.00,0.36
6780.00,0.36
6779.00,0.36
6778.00,0.36
6777.00,0.36
6776.00,0.36
6775.00,0.36
6774.00,0.36
6773.00,0.36
6772.00,0.36
6771.00,0.36
6770.00,0.36
6769.00,0.36
6768.00,0.36
6767.00,0.36
6766.00,0.36
6765.00,0.36
6764.00,0.36
6763.00,0.36
6762.00,0.36
6761.00,0.36
6760.00,0.36
6759.00,0.36
6758.00,0.36
6757.00,0.36
6756.00,0.36
6755.00,0.36
6754.00,0.36
6753.00,0.36
6752.00,0.36
6751.00,0.36
6750.00,0.36
6749.00,0.36
6748.00,0.36
6747.00,0.36
6746.00,0.36
6745.00,0.36
6744.00,0.36
6743.00,0.36
6742.00,0.36
6741.00,0.36
6740.00,0.36
6739.00,0.36
6738.00,0.36
6737.00,0.36
6736.00,0.36
6735.00,0.36
6734.00,0.36
6733.00,0.36
6732.00,0.36
6731.00,0.36
6730.00,0.36
6729.00,0.36
6728.00,0.36
6727.00,0.37
6726.00,0.37
6725.00,0.37
6724.00,0.37
6723.00,0.37
6722.00,0.37
6721.00,0.37
6720.00,0.37
6719.00,0.37
6718.00,0.37
6717.00,0.37
6716.00,0.37
6715.00,0.37
6714.00,0.37
6713.00,0.38
6712.00,0.38
6711.00,0.38
6710.00,0.38
6709.00,0.38
6708.00,0.38
6707.00,0.38
6706.00,0.38
6705.00,0.38
6704.00,0.38
6703.00,0.39
6702.00,0.39
6701.00,0.39
6700.00,0.39
6699.00,0.39
6698.00,0.39
6697.00,0.39
6696.00,0.39
6695.00,0.39
6694.00,0.39
6693.00,0.39
6692.00,0.39
6691.00,0.39
6690.00,0.39
6689.00,0.39
6688.00,0.39
6687.00,0.39
6686.00,0.39
6685.00,0.39
6684.00,0.39
6683.00,0.39
6682.00,0.39
6681.00,0.39
6680.00,0.39
6679.00,0.39
6678.00,0.39
6677.00,0.39
6676.00,0.39
6675.00,0.39
6674.00,0.39
6673.00,0.39
6672.00,0.39
6671.00,0.39
6670.00,0.39
6669.00,0.39
6668.00,0.39
6667.00,0.39
6666.00,0.39
6665.00,0.39
6664.00,0.39
6663.00,0.39
6662.00,0.39
6661.00,0.40
6660.00,0.40
6659.00,0.40
6658.00,0.40
6657.00,0.40
6656.00,0.40
6655.00,0.40
6654.00,0.40
6653.00,0.41
6652.00,0.41
6651.00,0.41
6650.00,0.41
6649.00,0.41
6648.00,0.41
6647.00,0.41
6646.00,0.41
6645.00,0.41
6644.00,0.41
6643.00,0.41
6642.00,0.41
6641.00,0.41
6640.00,0.41
6639.00,0.41
6638.00,0.41
6637.00,0.41
6636.00,0.41
6635.00,0.41
6634.00,0.41
6633.00,0.41
6632.00,0.41
6631.00,0.41
6630.00,0.41
6629.00,0.41
6628.00,0.41
6627.00,0.41
6626.00,0.41
6625.00,0.41
6624.00,0.41
6623.00,0.41
6622.00,0.41
6621.00,0.41
6620.00,0.42
6619.00,0.42
6618.00,0.42
6617.00,0.42
6616.00,0.42
6615.00,0.42
6614.00,0.42
6613.00,0.42
6612.00,0.42
6611.00,0.42
6610.00,0.42
6609.00,0.42
6608.00,0.42
6607.00,0.42
6606.00,0.42
6605.00,0.43
6604.00,0.43
6603.00,0.43
6602.00,0.43
6601.00,0.43
6600.00,0.43
6599.00,0.43
6598.00,0.43
6597.00,0.43
6596.00,0.43
6595.00,0.43
6594.00,0.43
6593.00,0.43
6592.00,0.43
6591.00,0.43
6590.00,0.44
6589.00,0.44
6588.00,0.44
6587.00,0.44
6586.00,0.44
6585.00,0.44
6584.00,0.44
6583.00,0.44
6582.00,0.44
6581.00,0.44
6580.00,0.44
6579.00,0.44
6578.00,0.44
6577.00,0.44
6576.00,0.44
6575.00,0.44
6574.00,0.44
6573.00,0.44
6572.00,0.44
6571.00,0.44
6570.00,0.44
6569.00,0.44
6568.00,0.44
6567.00,0.44
6566.00,0.44
6565.00,0.44
6564.00,0.44
6563.00,0.45
6562.00,0.45
6561.00,0.45
6560.00,0.45
6559.00,0.45
6558.00,0.45
6557.00,0.45
6556.00,0.45
6555.00,0.45
6554.00,0.45
6553.00,0.45
6552.00,0.46
6551.00,0.46
6550.00,0.46
6549.00,0.46
6548.00,0.46
6547.00,0.46
6546.00,0.46
6545.00,0.46
6544.00,0.46
6543.00,0.46
6542.00,0.46
6541.00,0.46
6540.00,0.46
6539.00,0.46
6538.00,0.46
6537.00,0.46
6536.00,0.46
6535.00,0.46
6534.00,0.46
6533.00,0.46
6532.00,0.46
6531.00,0.46
6530.00,0.46
6529.00,0.46
6528.00,0.46
6527.00,0.46
6526.00,0.46
6525.00,0.46
6524.00,0.46
6523.00,0.46
6522.00,0.46
6521.00,0.46
6520.00,0.46
6519.00,0.46
6518.00,0.46
6517.00,0.47
6516.00,0.47
6515.00,0.47
6514.00,0.47
6513.00,0.47
6512.00,0.47
6511.00,0.47
6510.00,0.47
6509.00,0.47
6508.00,0.47
6507.00,0.47
6506.00,0.47
6505.00,0.47
6504.00,0.47
6503.00,0.47
6502.00,0.47
6501.00,0.47
6500.00,0.47
6499.00,0.47
6498.00,0.47
6497.00,0.47
6496.00,0.47
6495.00,0.47
6494.00,0.48
6493.00,0.48
6492.00,0.48
6491.00,0.48
6490.00,0.48
6489.00,0.48
6488.00,0.48
6487.00,0.48
6486.00,0.48
6485.00,0.48
6484.00,0.48
6483.00,0.48
6482.00,0.49
6481.00,0.49
6480.00,0.49
6479.00,0.49
6478.00,0.49
6477.00,0.49
6476.00,0.49
6475.00,0.49
6474.00,0.49
6473.00,0.49
6472.00,0.49
6471.00,0.49
6470.00,0.49
6469.00,0.49
6468.00,0.49
6467.00,0.49
6466.00,0.49
6465.00,0.49
6464.00,0.49
6463.00,0.49
6462.00,0.49
6461.00,0.49
6460.00,0.49
6459.00,0.49
6458.00,0.49
6457.00,0.49
6456.00,0.49
6455.00,0.49
6454.00,0.49
6453.00,0.49
6452.00,0.49
6451.00,0.49
6450.00,0.49
6449.00,0.49
6448.00,0.49
6447.00,0.50
6446.00,0.50
6445.00,0.50
6444.00,0.50
6443.00,0.50
6442.00,0.50
6441.00,0.50
6440.00,0.50
6439.00,0.50
6438.00,0.50
6437.00,0.50
6436.00,0.50
6435.00,0.50
6434.00,0.50
6433.00,0.50
6432.00,0.50
6431.00,0.50
6430.00,0.50
6429.00,0.50
6428.00,0.50
6427.00,0.50
6426.00,0.50
6425.00,0.50
6424.00,0.50
6423.00,0.50
6422.00,0.50
6421.00,0.50
6420.00,0.50
6419.00,0.50
6418.00,0.50
6417.00,0.50
6416.00,0.50
6415.00,0.50
6414.00,0.50
6413.00,0.51
6412.00,0.51
6411.00,0.51
6410.00,0.51
6409.00,0.51
6408.00,0.51
6407.00,0.51
6406.00,0.51
6405.00,0.51
6404.00,0.51
6403.00,0.51
6402.00,0.51
6401.00,0.52
6400.00,0.52
6399.00,0.52
6398.00,0.52
6397.00,0.52
6396.00,0.52
6395.00,0.52
6394.00,0.52
6393.00,0.52
6392.00,0.52
6391.00,0.52
6390.00,0.52
6389.00,0.52
6388.00,0.52
6387.00,0.52
6386.00,0.52
6385.00,0.52
6384.00,0.52
6383.00,0.52
6382.00,0.52
6381.00,0.52
6380.00,0.52
6379.00,0.52
6378.00,0.53
6377.00,0.53
6376.00,0.53
6375.00,0.53
6374.00,0.53
6373.00,0.53
6372.00,0.53
6371.00,0.53
6370.00,0.53
6369.00,0.53
6368.00,0.53
6367.00,0.53
6366.00,0.53
6365.00,0.53
6364.00,0.53
6363.00,0.53
6362.00,0.53
6361.00,0.53
6360.00,0.53
6359.00,0.53
6358.00,0.53
6357.00,0.53
6356.00,0.53
6355.00,0.54
6354.00,0.54
6353.00,0.54
6352.00,0.54
6351.00,0.54
6350.00,0.54
6349.00,0.54
6348.00,0.54
6347.00,0.54
6346.00,0.54
6345.00,0.54
6344.00,0.54
6343.00,0.54
6342.00,0.55
6341.00,0.55
6340.00,0.55
6339.00,0.55
6338.00,0.55
6337.00,0.55
6336.00,0.55
6335.00,0.55
6334.00,0.55
6333.00,0.55
6332.00,0.55
6331.00,0.55
6330.00,0.55
6329.00,0.55
6328.00,0.56
6327.00,0.56
6326.00,0.56
6325.00,0.56
6324.00,0.56
6323.00,0.56
6322.00,0.56
6321.00,0.56
6320.00,0.56
6319.00,0.56
6318.00,0.56
6317.00,0.56
6316.00,0.56
6315.00,0.56
6314.00,0.56
6313.00,0.56
6312.00,0.56
6311.00,0.56
6310.00,0.56
6309.00,0.56
6308.00,0.56
6307.00,0.57
6306.00,0.57
6305.00,0.57
6304.00,0.57
6303.00,0.57
6302.00,0.57
6301.00,0.57
6300.00,0.57
6299.00,0.57
6298.00,0.57
6297.00,0.57
6296.00,0.57
6295.00,0.57
6294.00,0.57
6293.00,0.57
6292.00,0.57
6291.00,0.57
6290.00,0.57
6289.00,0.58
6288.00,0.58
6287.00,0.58
6286.00,0.58
6285.00,0.58
6284.00,0.58
6283.00,0.58
6282.00,0.58
6281.00,0.58
6280.00,0.58
6279.00,0.58
6278.00,0.58
6277.00,0.58
6276.00,0.58
6275.00,0.58
6274.00,0.58
6273.00,0.58
6272.00,0.59
6271.00,0.59
6270.00,0.59
6269.00,0.59
6268.00,0.59
6267.00,0.59
6266.00,0.59
6265.00,0.59
6264.00,0.59
6263.00,0.59
6262.00,0.59
6261.00,0.59
6260.00,0.59
6259.00,0.59
6258.00,0.59
6257.00,0.59
6256.00,0.59
6255.00,0.60
6254.00,0.60
6253.00,0.60
6252.00,0.60
6251.00,0.60
6250.00,0.60
6249.00,0.60
6248.00,0.60
6247.00,0.60
6246.00,0.60
6245.00,0.60
6244.00,0.61
6243.00,0.61
6242.00,0.61
6241.00,0.61
6240.00,0.61
6239.00,0.61
6238.00,0.61
6237.00,0.61
6236.00,0.61
6235.00,0.61
6234.00,0.61
6233.00,0.61
6232.00,0.61
6231.00,0.61
6230.00,0.61
6229.00,0.61
6228.00,0.61
6227.00,0.61
6226.00,0.62
6225.00,0.62
6224.00,0.62
6223.00,0.62
6222.00,0.62
6221.00,0.62
6220.00,0.62
6219.00,0.62
6218.00,0.62
6217.00,0.62
6216.00,0.62
6215.00,0.62
6214.00,0.62
6213.00,0.62
6212.00,0.62
6211.00,0.62
6210.00,0.63
6209.00,0.63
6208.00,0.63
6207.00,0.63
6206.00,0.63
6205.00,0.63
6204.00,0.63
6203.00,0.63
6202.00,0.63
6201.00,0.64
6200.00,0.64
6199.00,0.64
6198.00,0.64
6197.00,0.64
6196.00,0.64
6195.00,0.64
6194.00,0.64
6193.00,0.64
6192.00,0.65
6191.00,0.65
6190.00,0.65
6189.00,0.65
6188.00,0.65
6187.00,0.65
6186.00,0.65
6185.00,0.65
6184.00,0.65
6183.00,0.66
6182.00,0.66
6181.00,0.66
6180.00,0.66
6179.00,0.66
6178.00,0.66
6177.00,0.66
6176.00,0.66
6175.00,0.66
6174.00,0.66
6173.00,0.66
6172.00,0.66
6171.00,0.66
6170.00,0.66
6169.00,0.66
6168.00,0.66
6167.00,0.66
6166.00,0.66
6165.00,0.66
6164.00,0.67
6163.00,0.67
6162.00,0.67
6161.00,0.67
6160.00,0.67
6159.00,0.67
6158.00,0.67
6157.00,0.67
6156.00,0.67
6155.00,0.67
6154.00,0.67
6153.00,0.67
6152.00,0.67
6151.00,0.68
6150.00,0.68
6149.00,0.68
6148.00,0.68
6147.00,0.68
6146.00,0.68
6145.00,0.68
6144.00,0.68
6143.00,0.68
6142.00,0.68
6141.00,0.68
6140.00,0.68
6139.00,0.68
6138.00,0.68
6137.00,0.69
6136.00,0.69
6135.00,0.69
6134.00,0.69
6133.00,0.69
6132.00,0.69
6131.00,0.69
6130.00,0.69
6129.00,0.69
6128.00,0.69
6127.00,0.70
6126.00,0.70
6125.00,0.70
6124.00,0.70
6123.00,0.70
6122.00,0.70
6121.00,0.70
6120.00,0.70
6119.00,0.70
6118.00,0.70
6117.00,0.70
6116.00,0.70
6115.00,0.70
6114.00,0.70
6113.00,0.70
6112.00,0.70
6111.00,0.71
6110.00,0.71
6109.00,0.71
6108.00,0.71
6107.00,0.71
6106.00,0.71
6105.00,0.71
6104.00,0.71
6103.00,0.71
6102.00,0.71
6101.00,0.71
6100.00,0.71
6099.00,0.71
6098.00,0.71
6097.00,0.72
6096.00,0.72
6095.00,0.72
6094.00,0.72
6093.00,0.72
6092.00,0.72
6091.00,0.72
6090.00,0.72
6089.00,0.72
6088.00,0.72
6087.00,0.72
6086.00,0.73
6085.00,0.73
6084.00,0.73
6083.00,0.73
6082.00,0.73
6081.00,0.73
6080.00,0.73
6079.00,0.73
6078.00,0.73
6077.00,0.73
6076.00,0.73
6075.00,0.73
6074.00,0.73
6073.00,0.73
6072.00,0.73
6071.00,0.73
6070.00,0.73
6069.00,0.74
6068.00,0.74
6067.00,0.74
6066.00,0.74
6065.00,0.74
6064.00,0.74
6063.00,0.74
6062.00,0.74
6061.00,0.74
6060.00,0.74
6059.00,0.74
6058.00,0.74
6057.00,0.74
6056.00,0.74
6055.00,0.74
6054.00,0.75
6053.00,0.75
6052.00,0.75
6051.00,0.75
6050.00,0.75
6049.00,0.75
6048.00,0.75
6047.00,0.75
6046.00,0.75
6045.00,0.75
6044.00,0.75
6043.00,0.75
6042.00,0.75
6041.00,0.75
6040.00,0.75
6039.00,0.75
6038.00,0.76
6037.00,0.76
6036.00,0.76
6035.00,0.76
6034.00,0.76
6033.00,0.76
6032.00,0.76
6031.00,0.76
6030.00,0.76
6029.00,0.76
6028.00,0.76
6027.00,0.76
6026.00,0.76
6025.00,0.76
6024.00,0.76
6023.00,0.76
6022.00,0.76
6021.00,0.76
6020.00,0.76
6019.00,0.76
6018.00,0.76
6017.00,0.76
6016.00,0.76
6015.00,0.76
6014.00,0.76
6013.00,0.76
6012.00,0.76
6011.00,0.76
6010.00,0.76
6009.00,0.76
6008.00,0.76
6007.00,0.76
6006.00,0.76
6005.00,0.76
6004.00,0.76
6003.00,0.76
6002.00,0.76
6001.00,0.76
6000.00,0.76
5999.00,0.75
5998.00,0.75
5997.00,0.75
5996.00,0.75
5995.00,0.75
5994.00,0.75
5993.00,0.75
5992.00,0.75
5991.00,0.75
5990.00,0.75
5989.00,0.75
5988.00,0.75
5987.00,0.75
5986.00,0.75
5985.00,0.74
5984.00,0.74
5983.00,0.74
5982.00,0.74
5981.00,0.74
5980.00,0.74
5979.00,0.73
5978.00,0.73
5977.00,0.73
5976.00,0.73
5975.00,0.72
5974.00,0.72
5973.00,0.72
5972.00,0.71
5971.00,0.71
5970.00,0.71
5969.00,0.71
5968.00,0.70
5967.00,0.70
5966.00,0.70
5965.00,0.69
5964.00,0.69
5963.00,0.69
5962.00,0.68
5961.00,0.68
5960.00,0.68
5959.00,0.67
5958.00,0.67
5957.00,0.67
5956.00,0.67
5955.00,0.66
5954.00,0.66
5953.00,0.66
5952.00,0.66
5951.00,0.65
5950.00,0.65
5949.00,0.65
5948.00,0.65
5947.00,0.65
5946.00,0.64
5945.00,0.64
5944.00,0.64
5943.00,0.64
5942.00,0.64
5941.00,0.64
5940.00,0.64
5939.00,0.64
5938.00,0.63
5937.00,0.63
5936.00,0.63
5935.00,0.63
5934.00,0.63
5933.00,0.63
5932.00,0.63
5931.00,0.63
5930.00,0.63
5929.00,0.63
5928.00,0.63
5927.00,0.62
5926.00,0.62
5925.00,0.62
5924.00,0.62
5923.00,0.62
5922.00,0.62
5921.00,0.62
5920.00,0.62
5919.00,0.61
5918.00,0.61
5917.00,0.61
5916.00,0.61
5915.00,0.61
5914.00,0.61
5913.00,0.61
5912.00,0.61
5911.00,0.60
5910.00,0.60
5909.00,0.60
5908.00,0.60
5907.00,0.60
5906.00,0.60
5905.00,0.60
5904.00,0.60
5903.00,0.60
5902.00,0.60
5901.00,0.60
5900.00,0.60
5899.00,0.60
5898.00,0.61
5897.00,0.61
5896.00,0.61
5895.00,0.61
5894.00,0.61
5893.00,0.61
5892.00,0.61
5891.00,0.62
5890.00,0.62
5889.00,0.62
5888.00,0.62
5887.00,0.62
5886.00,0.62
5885.00,0.63
5884.00,0.63
5883.00,0.63
5882.00,0.63
5881.00,0.63
5880.00,0.63
5879.00,0.63
5878.00,0.64
5877.00,0.64
5876.00,0.64
5875.00,0.64
5874.00,0.64
5873.00,0.64
5872.00,0.64
5871.00,0.64
5870.00,0.64
5869.00,0.65
5868.00,0.65
5867.00,0.65
5866.00,0.65
5865.00,0.65
5864.00,0.65
5863.00,0.65
5862.00,0.65
5861.00,0.65
5860.00,0.65
5859.00,0.65
5858.00,0.65
5857.00,0.65
5856.00,0.65
5855.00,0.65
5854.00,0.66
5853.00,0.66
5852.00,0.66
5851.00,0.66
5850.00,0.66
5849.00,0.66
5848.00,0.66
5847.00,0.66
5846.00,0.66
5845.00,0.66
5844.00,0.66
5843.00,0.66
5842.00,0.66
5841.00,0.66
5840.00,0.66
5839.00,0.66
5838.00,0.66
5837.00,0.66
5836.00,0.66
5835.00,0.66
5834.00,0.66
5833.00,0.66
5832.00,0.66
5831.00,0.66
5830.00,0.66
5829.00,0.66
5828.00,0.66
5827.00,0.66
5826.00,0.66
5825.00,0.66
5824.00,0.66
5823.00,0.66
5822.00,0.66
5821.00,0.66
5820.00,0.66
5819.00,0.66
5818.00,0.66
5817.00,0.66
5816.00,0.66
5815.00,0.66
5814.00,0.66
5813.00,0.66
5812.00,0.66
5811.00,0.66
5810.00,0.66
5809.00,0.66
5808.00,0.66
5807.00,0.66
5806.00,0.66
5805.00,0.66
5804.00,0.65
5803.00,0.65
5802.00,0.65
5801.00,0.65
5800.00,0.65
5799.00,0.65
5798.00,0.65
5797.00,0.65
5796.00,0.65
5795.00,0.65
5794.00,0.65
5793.00,0.65
5792.00,0.65
5791.00,0.65
5790.00,0.65
5789.00,0.64
5788.00,0.64
5787.00,0.64
5786.00,0.64
5785.00,0.64
5784.00,0.64
5783.00,0.64
5782.00,0.64
5781.00,0.64
5780.00,0.64
5779.00,0.64
5778.00,0.64
5777.00,0.64
5776.00,0.63
5775.00,0.63
5774.00,0.63
5773.00,0.63
5772.00,0.63
5771.00,0.63
5770.00,0.63
5769.00,0.63
5768.00,0.63
5767.00,0.63
5766.00,0.63
5765.00,0.64
5764.00,0.64
5763.00,0.64
5762.00,0.64
5761.00,0.64
5760.00,0.64
5759.00,0.64
5758.00,0.65
5757.00,0.65
5756.00,0.65
5755.00,0.65
5754.00,0.65
5753.00,0.65
5752.00,0.66
5751.00,0.66
5750.00,0.66
5749.00,0.66
5748.00,0.66
5747.00,0.66
5746.00,0.66
5745.00,0.67
5744.00,0.67
5743.00,0.67
5742.00,0.67
5741.00,0.67
5740.00,0.67
5739.00,0.67
5738.00,0.67
5737.00,0.67
5736.00,0.68
5735.00,0.68
5734.00,0.68
5733.00,0.68
5732.00,0.68
5731.00,0.68
5730.00,0.68
5729.00,0.68
5728.00,0.68
5727.00,0.68
5726.00,0.68
5725.00,0.69
5724.00,0.69
5723.00,0.69
5722.00,0.69
5721.00,0.69
5720.00,0.69
5719.00,0.69
5718.00,0.69
5717.00,0.69
5716.00,0.69
5715.00,0.69
5714.00,0.69
5713.00,0.68
5712.00,0.68
5711.00,0.68
5710.00,0.68
5709.00,0.68
5708.00,0.68
5707.00,0.68
5706.00,0.68
5705.00,0.68
5704.00,0.68
5703.00,0.68
5702.00,0.68
5701.00,0.68
5700.00,0.68
5699.00,0.68
5698.00,0.68
5697.00,0.68
5696.00,0.68
5695.00,0.68
5694.00,0.68
5693.00,0.68
5692.00,0.68
5691.00,0.67
5690.00,0.67
5689.00,0.67
5688.00,0.67
5687.00,0.67
5686.00,0.67
5685.00,0.67
5684.00,0.67
5683.00,0.67
5682.00,0.66
5681.00,0.66
5680.00,0.66
5679.00,0.66
5678.00,0.66
5677.00,0.66
5676.00,0.66
5675.00,0.66
5674.00,0.66
5673.00,0.66
5672.00,0.66
5671.00,0.66
5670.00,0.66
5669.00,0.66
5668.00,0.66
5667.00,0.66
5666.00,0.66
5665.00,0.66
5664.00,0.66
5663.00,0.66
5662.00,0.66
5661.00,0.66
5660.00,0.66
5659.00,0.67
5658.00,0.67
5657.00,0.67
5656.00,0.67
5655.00,0.67
5654.00,0.67
5653.00,0.67
5652.00,0.67
5651.00,0.67
5650.00,0.67
5649.00,0.67
5648.00,0.67
5647.00,0.68
5646.00,0.68
5645.00,0.68
5644.00,0.68
5643.00,0.68
5642.00,0.68
5641.00,0.68
5640.00,0.68
5639.00,0.68
5638.00,0.68
5637.00,0.68
5636.00,0.69
5635.00,0.69
5634.00,0.69
5633.00,0.69
5632.00,0.69
5631.00,0.69
5630.00,0.69
5629.00,0.69
5628.00,0.69
5627.00,0.69
5626.00,0.70
5625.00,0.70
5624.00,0.70
5623.00,0.70
5622.00,0.70
5621.00,0.70
5620.00,0.70
5619.00,0.70
5618.00,0.70
5617.00,0.70
5616.00,0.70
5615.00,0.70
5614.00,0.70
5613.00,0.70
5612.00,0.70
5611.00,0.70
5610.00,0.70
5609.00,0.70
5608.00,0.70
5607.00,0.70
5606.00,0.70
5605.00,0.71
5604.00,0.71
5603.00,0.71
5602.00,0.71
5601.00,0.71
5600.00,0.71
5599.00,0.71
5598.00,0.71
5597.00,0.71
5596.00,0.71
5595.00,0.71
5594.00,0.72
5593.00,0.72
5592.00,0.72
5591.00,0.72
5590.00,0.72
5589.00,0.72
5588.00,0.72
5587.00,0.72
5586.00,0.72
5585.00,0.72
5584.00,0.72
5583.00,0.72
5582.00,0.72
5581.00,0.73
5580.00,0.73
5579.00,0.73
5578.00,0.73
5577.00,0.73
5576.00,0.73
5575.00,0.73
5574.00,0.73
5573.00,0.73
5572.00,0.73
5571.00,0.73
5570.00,0.73
5569.00,0.74
5568.00,0.74
5567.00,0.74
5566.00,0.74
5565.00,0.74
5564.00,0.74
5563.00,0.74
5562.00,0.74
5561.00,0.74
5560.00,0.74
5559.00,0.74
5558.00,0.74
5557.00,0.74
5556.00,0.74
5555.00,0.75
5554.00,0.75
5553.00,0.75
5552.00,0.75
5551.00,0.75
5550.00,0.75
5549.00,0.75
5548.00,0.75
5547.00,0.75
5546.00,0.75
5545.00,0.75
5544.00,0.75
5543.00,0.75
5542.00,0.75
5541.00,0.75
5540.00,0.75
5539.00,0.75
5538.00,0.75
5537.00,0.75
5536.00,0.75
5535.00,0.76
5534.00,0.76
5533.00,0.76
5532.00,0.76
5531.00,0.76
5530.00,0.76
5529.00,0.76
5528.00,0.76
5527.00,0.76
5526.00,0.76
5525.00,0.77
5524.00,0.77
5523.00,0.77
5522.00,0.77
5521.00,0.77
5520.00,0.77
5519.00,0.77
5518.00,0.77
5517.00,0.77
5516.00,0.77
5515.00,0.77
5514.00,0.77
5513.00,0.77
5512.00,0.77
5511.00,0.77
5510.00,0.77
5509.00,0.77
5508.00,0.77
5507.00,0.77
5506.00,0.77
5505.00,0.77
5504.00,0.77
5503.00,0.78
5502.00,0.78
5501.00,0.78
5500.00,0.78
5499.00,0.78
5498.00,0.78
5497.00,0.78
5496.00,0.78
5495.00,0.78
5494.00,0.78
5493.00,0.78
5492.00,0.78
5491.00,0.78
5490.00,0.78
5489.00,0.78
5488.00,0.78
5487.00,0.78
5486.00,0.78
5485.00,0.78
5484.00,0.78
5483.00,0.78
5482.00,0.79
5481.00,0.79
5480.00,0.79
5479.00,0.79
5478.00,0.79
5477.00,0.79
5476.00,0.79
5475.00,0.79
5474.00,0.79
5473.00,0.79
5472.00,0.79
5471.00,0.79
5470.00,0.79
5469.00,0.79
5468.00,0.79
5467.00,0.79
5466.00,0.79
5465.00,0.79
5464.00,0.79
5463.00,0.79
5462.00,0.79
5461.00,0.79
5460.00,0.79
5459.00,0.79
5458.00,0.79
5457.00,0.80
5456.00,0.80
5455.00,0.80
5454.00,0.80
5453.00,0.80
5452.00,0.80
5451.00,0.80
5450.00,0.80
5449.00,0.80
5448.00,0.80
5447.00,0.80
5446.00,0.80
5445.00,0.80
5444.00,0.80
5443.00,0.80
5442.00,0.80
5441.00,0.80
5440.00,0.80
5439.00,0.80
5438.00,0.80
5437.00,0.80
5436.00,0.80
5435.00,0.80
5434.00,0.80
5433.00,0.80
5432.00,0.80
5431.00,0.80
5430.00,0.80
5429.00,0.80
5428.00,0.80
5427.00,0.80
5426.00,0.80
5425.00,0.80
5424.00,0.80
5423.00,0.80
5422.00,0.80
5421.00,0.80
5420.00,0.80
5419.00,0.80
5418.00,0.80
5417.00,0.80
5416.00,0.80
5415.00,0.80
5414.00,0.80
5413.00,0.79
5412.00,0.79
5411.00,0.79
5410.00,0.79
5409.00,0.79
5408.00,0.79
5407.00,0.79
5406.00,0.79
5405.00,0.79
5404.00,0.79
5403.00,0.79
5402.00,0.79
5401.00,0.79
5400.00,0.79
5399.00,0.79
5398.00,0.79
5397.00,0.79
5396.00,0.78
5395.00,0.78
5394.00,0.78
5393.00,0.78
5392.00,0.78
5391.00,0.78
5390.00,0.78
5389.00,0.78
5388.00,0.77
5387.00,0.77
5386.00,0.77
5385.00,0.77
5384.00,0.77
5383.00,0.77
5382.00,0.76
5381.00,0.76
5380.00,0.76
5379.00,0.76
5378.00,0.76
5377.00,0.75
5376.00,0.75
5375.00,0.75
5374.00,0.75
5373.00,0.75
5372.00,0.74
5371.00,0.74
5370.00,0.74
5369.00,0.73
5368.00,0.73
5367.00,0.73
5366.00,0.73
5365.00,0.72
5364.00,0.72
5363.00,0.71
5362.00,0.71
5361.00,0.71
5360.00,0.70
5359.00,0.70
5358.00,0.69
5357.00,0.69
5356.00,0.68
5355.00,0.68
5354.00,0.67
5353.00,0.67
5352.00,0.66
5351.00,0.66
5350.00,0.66
5349.00,0.65
5348.00,0.65
5347.00,0.64
5346.00,0.64
5345.00,0.63
5344.00,0.63
5343.00,0.62
5342.00,0.62
5341.00,0.61
5340.00,0.61
5339.00,0.60
5338.00,0.60
5337.00,0.59
5336.00,0.59
5335.00,0.58
5334.00,0.58
5333.00,0.58
5332.00,0.57
5331.00,0.57
5330.00,0.56
5329.00,0.56
5328.00,0.56
5327.00,0.55
5326.00,0.55
5325.00,0.54
5324.00,0.54
5323.00,0.54
5322.00,0.53
5321.00,0.53
5320.00,0.52
5319.00,0.52
5318.00,0.52
5317.00,0.51
5316.00,0.51
5315.00,0.51
5314.00,0.50
5313.00,0.50
5312.00,0.50
5311.00,0.50
5310.00,0.49
5309.00,0.49
5308.00,0.49
5307.00,0.49
5306.00,0.48
5305.00,0.48
5304.00,0.48
5303.00,0.48
5302.00,0.48
5301.00,0.48
5300.00,0.48
5299.00,0.47
5298.00,0.47
5297.00,0.47
5296.00,0.47
5295.00,0.47
5294.00,0.47
5293.00,0.47
5292.00,0.47
5291.00,0.47
5290.00,0.47
5289.00,0.47
5288.00,0.47
5287.00,0.47
5286.00,0.46
5285.00,0.46
5284.00,0.46
5283.00,0.46
5282.00,0.46
5281.00,0.46
5280.00,0.46
5279.00,0.46
5278.00,0.46
5277.00,0.46
5276.00,0.46
5275.00,0.46
5274.00,0.46
5273.00,0.46
5272.00,0.46
5271.00,0.46
5270.00,0.46
5269.00,0.46
5268.00,0.46
5267.00,0.46
5266.00,0.46
5265.00,0.46
5264.00,0.46
5263.00,0.46
5262.00,0.46
5261.00,0.46
5260.00,0.46
5259.00,0.46
5258.00,0.46
5257.00,0.46
5256.00,0.46
5255.00,0.46
5254.00,0.46
5253.00,0.46
5252.00,0.46
5251.00,0.46
5250.00,0.46
5249.00,0.46
5248.00,0.46
5247.00,0.46
5246.00,0.46
5245.00,0.46
5244.00,0.46
5243.00,0.46
5242.00,0.46
5241.00,0.46
5240.00,0.46
5239.00,0.46
5238.00,0.46
5237.00,0.46
5236.00,0.46
5235.00,0.46
5234.00,0.46
5233.00,0.46
5232.00,0.46
5231.00,0.46
5230.00,0.46
5229.00,0.47
5228.00,0.47
5227.00,0.47
5226.00,0.47
5225.00,0.47
5224.00,0.47
5223.00,0.47
5222.00,0.47
5221.00,0.47
5220.00,0.47
5219.00,0.47
5218.00,0.47
5217.00,0.47
5216.00,0.47
5215.00,0.47
5214.00,0.47
5213.00,0.47
5212.00,0.47
5211.00,0.47
5210.00,0.47
5209.00,0.47
5208.00,0.47
5207.00,0.47
5206.00,0.47
5205.00,0.47
5204.00,0.47
5203.00,0.47
5202.00,0.47
5201.00,0.47
5200.00,0.47
5199.00,0.47
5198.00,0.47
5197.00,0.47
5196.00,0.47
5195.00,0.47
5194.00,0.47
5193.00,0.47
5192.00,0.47
5191.00,0.47
5190.00,0.47
5189.00,0.47
5188.00,0.47
5187.00,0.47
5186.00,0.47
5185.00,0.47
5184.00,0.47
5183.00,0.47
5182.00,0.47
5181.00,0.48
5180.00,0.48
5179.00,0.48
5178.00,0.48
5177.00,0.48
5176.00,0.48
5175.00,0.48
5174.00,0.48
5173.00,0.48
5172.00,0.48
5171.00,0.48
5170.00,0.48
5169.00,0.48
5168.00,0.48
5167.00,0.48
5166.00,0.48
5165.00,0.48
5164.00,0.48
5163.00,0.48
5162.00,0.48
5161.00,0.48
5160.00,0.48
5159.00,0.48
5158.00,0.48
5157.00,0.48
5156.00,0.48
5155.00,0.48
5154.00,0.48
5153.00,0.48
5152.00,0.48
5151.00,0.48
5150.00,0.48
5149.00,0.48
5148.00,0.48
5147.00,0.48
5146.00,0.48
5145.00,0.48
5144.00,0.48
5143.00,0.49
5142.00,0.49
5141.00,0.49
5140.00,0.49
5139.00,0.49
5138.00,0.49
5137.00,0.49
5136.00,0.49
5135.00,0.49
5134.00,0.49
5133.00,0.49
5132.00,0.49
5131.00,0.49
5130.00,0.49
5129.00,0.49
5128.00,0.49
5127.00,0.49
5126.00,0.49
5125.00,0.49
5124.00,0.49
5123.00,0.50
5122.00,0.50
5121.00,0.50
5120.00,0.50
5119.00,0.50
5118.00,0.50
5117.00,0.50
5116.00,0.50
5115.00,0.50
5114.00,0.50
5113.00,0.50
5112.00,0.50
5111.00,0.50
5110.00,0.50
5109.00,0.50
5108.00,0.50
5107.00,0.50
5106.00,0.50
5105.00,0.50
5104.00,0.50
5103.00,0.50
5102.00,0.50
5101.00,0.50
5100.00,0.50
5099.00,0.50
5098.00,0.50
5097.00,0.50
5096.00,0.50
5095.00,0.50
5094.00,0.50
5093.00,0.50
5092.00,0.50
5091.00,0.50
5090.00,0.50
5089.00,0.50
5088.00,0.50
5087.00,0.50
5086.00,0.50
5085.00,0.50
5084.00,0.50
5083.00,0.50
5082.00,0.50
5081.00,0.50
5080.00,0.50
5079.00,0.50
5078.00,0.50
5077.00,0.50
5076.00,0.50
5075.00,0.50
5074.00,0.50
5073.00,0.50
5072.00,0.50
5071.00,0.50
5070.00,0.51
5069.00,0.51
5068.00,0.51
5067.00,0.51
5066.00,0.51
5065.00,0.51
5064.00,0.51
5063.00,0.51
5062.00,0.51
5061.00,0.51
5060.00,0.51
5059.00,0.51
5058.00,0.51
5057.00,0.51
5056.00,0.51
5055.00,0.51
5054.00,0.51
5053.00,0.51
5052.00,0.51
5051.00,0.51
5050.00,0.51
5049.00,0.51
5048.00,0.51
5047.00,0.51
5046.00,0.51
5045.00,0.51
5044.00,0.51
5043.00,0.51
5042.00,0.51
5041.00,0.51
5040.00,0.51
5039.00,0.51
5038.00,0.51
5037.00,0.51
5036.00,0.51
5035.00,0.51
5034.00,0.51
5033.00,0.51
5032.00,0.51
5031.00,0.51
5030.00,0.51
5029.00,0.51
5028.00,0.51
5027.00,0.51
5026.00,0.52
5025.00,0.52
5024.00,0.52
5023.00,0.52
5022.00,0.52
5021.00,0.52
5020.00,0.52
5019.00,0.52
5018.00,0.52
5017.00,0.52
5016.00,0.52
5015.00,0.52
5014.00,0.52
5013.00,0.52
5012.00,0.52
5011.00,0.52
5010.00,0.52
5009.00,0.52
5008.00,0.52
5007.00,0.52
5006.00,0.52
5005.00,0.52
5004.00,0.52
5003.00,0.52
5002.00,0.52
5001.00,0.52
5000.00,0.52
4999.00,0.52
4998.00,0.52
4997.00,0.52
4996.00,0.52
4995.00,0.52
4994.00,0.52
4993.00,0.52
4992.00,0.52
4991.00,0.52
4990.00,0.52
4989.00,0.52
4988.00,0.52
4987.00,0.52
4986.00,0.52
4985.00,0.52
4984.00,0.53
4983.00,0.53
4982.00,0.53
4981.00,0.53
4980.00,0.53
4979.00,0.53
4978.00,0.53
4977.00,0.53
4976.00,0.53
4975.00,0.53
4974.00,0.53
4973.00,0.53
4972.00,0.53
4971.00,0.53
4970.00,0.53
4969.00,0.53
4968.00,0.53
4967.00,0.53
4966.00,0.53
4965.00,0.54
4964.00,0.54
4963.00,0.54
4962.00,0.54
4961.00,0.54
4960.00,0.54
4959.00,0.54
4958.00,0.54
4957.00,0.54
4956.00,0.54
4955.00,0.54
4954.00,0.54
4953.00,0.54
4952.00,0.54
4951.00,0.54
4950.00,0.54
4949.00,0.54
4948.00,0.54
4947.00,0.54
4946.00,0.54
4945.00,0.54
4944.00,0.54
4943.00,0.54
4942.00,0.54
4941.00,0.54
4940.00,0.54
4939.00,0.54
4938.00,0.54
4937.00,0.54
4936.00,0.54
4935.00,0.54
4934.00,0.54
4933.00,0.54
4932.00,0.54
4931.00,0.54
4930.00,0.54
4929.00,0.54
4928.00,0.54
4927.00,0.54
4926.00,0.54
4925.00,0.54
4924.00,0.54
4923.00,0.54
4922.00,0.54
4921.00,0.54
4920.00,0.54
4919.00,0.54
4918.00,0.55
4917.00,0.55
4916.00,0.55
4915.00,0.55
4914.00,0.55
4913.00,0.55
4912.00,0.55
4911.00,0.55
4910.00,0.55
4909.00,0.55
4908.00,0.55
4907.00,0.55
4906.00,0.55
4905.00,0.55
4904.00,0.55
4903.00,0.55
4902.00,0.55
4901.00,0.55
4900.00,0.55
4899.00,0.56
4898.00,0.56
4897.00,0.56
4896.00,0.56
4895.00,0.56
4894.00,0.56
4893.00,0.56
4892.00,0.56
4891.00,0.56
4890.00,0.56
4889.00,0.56
4888.00,0.56
4887.00,0.56
4886.00,0.56
4885.00,0.56
4884.00,0.56
4883.00,0.56
4882.00,0.56
4881.00,0.56
4880.00,0.56
4879.00,0.56
4878.00,0.56
4877.00,0.56
4876.00,0.56
4875.00,0.56
4874.00,0.56
4873.00,0.56
4872.00,0.56
4871.00,0.56
4870.00,0.56
4869.00,0.56
4868.00,0.56
4867.00,0.56
4866.00,0.56
4865.00,0.56
4864.00,0.56
4863.00,0.56
4862.00,0.56
4861.00,0.56
4860.00,0.56
4859.00,0.56
4858.00,0.56
4857.00,0.56
4856.00,0.57
4855.00,0.57
4854.00,0.57
4853.00,0.57
4852.00,0.57
4851.00,0.57
4850.00,0.57
4849.00,0.57
4848.00,0.57
4847.00,0.57
4846.00,0.57
4845.00,0.57
4844.00,0.57
4843.00,0.57
4842.00,0.57
4841.00,0.57
4840.00,0.57
4839.00,0.57
4838.00,0.57
4837.00,0.57
4836.00,0.57
4835.00,0.57
4834.00,0.57
4833.00,0.58
4832.00,0.58
4831.00,0.58
4830.00,0.58
4829.00,0.58
4828.00,0.58
4827.00,0.58
4826.00,0.58
4825.00,0.58
4824.00,0.58
4823.00,0.58
4822.00,0.58
4821.00,0.58
4820.00,0.58
4819.00,0.58
4818.00,0.59
4817.00,0.59
4816.00,0.59
4815.00,0.59
4814.00,0.59
4813.00,0.59
4812.00,0.59
4811.00,0.59
4810.00,0.59
4809.00,0.59
4808.00,0.59
4807.00,0.59
4806.00,0.59
4805.00,0.59
4804.00,0.59
4803.00,0.59
4802.00,0.59
4801.00,0.59
4800.00,0.59
4799.00,0.59
4798.00,0.59
4797.00,0.59
4796.00,0.59
4795.00,0.59
4794.00,0.59
4793.00,0.59
4792.00,0.59
4791.00,0.59
4790.00,0.59
4789.00,0.59
4788.00,0.59
4787.00,0.59
4786.00,0.60
4785.00,0.60
4784.00,0.60
4783.00,0.60
4782.00,0.60
4781.00,0.60
4780.00,0.60
4779.00,0.60
4778.00,0.60
4777.00,0.60
4776.00,0.60
4775.00,0.60
4774.00,0.61
4773.00,0.61
4772.00,0.61
4771.00,0.61
4770.00,0.61
4769.00,0.61
4768.00,0.61
4767.00,0.61
4766.00,0.61
4765.00,0.61
4764.00,0.61
4763.00,0.61
4762.00,0.61
4761.00,0.61
4760.00,0.61
4759.00,0.61
4758.00,0.61
4757.00,0.61
4756.00,0.61
4755.00,0.62
4754.00,0.62
4753.00,0.62
4752.00,0.62
4751.00,0.62
4750.00,0.62
4749.00,0.62
4748.00,0.62
4747.00,0.62
4746.00,0.62
4745.00,0.62
4744.00,0.62
4743.00,0.62
4742.00,0.62
4741.00,0.62
4740.00,0.62
4739.00,0.62
4738.00,0.62
4737.00,0.62
4736.00,0.62
4735.00,0.62
4734.00,0.62
4733.00,0.62
4732.00,0.62
4731.00,0.62
4730.00,0.63
4729.00,0.63
4728.00,0.63
4727.00,0.63
4726.00,0.63
4725.00,0.63
4724.00,0.63
4723.00,0.63
4722.00,0.63
4721.00,0.63
4720.00,0.63
4719.00,0.63
4718.00,0.63
4717.00,0.63
4716.00,0.63
4715.00,0.63
4714.00,0.64
4713.00,0.64
4712.00,0.64
4711.00,0.64
4710.00,0.64
4709.00,0.64
4708.00,0.64
4707.00,0.64
4706.00,0.64
4705.00,0.64
4704.00,0.64
4703.00,0.64
4702.00,0.64
4701.00,0.64
4700.00,0.65
4699.00,0.65
4698.00,0.65
4697.00,0.65
4696.00,0.65
4695.00,0.65
4694.00,0.65
4693.00,0.65
4692.00,0.65
4691.00,0.65
4690.00,0.65
4689.00,0.65
4688.00,0.65
4687.00,0.65
4686.00,0.65
4685.00,0.66
4684.00,0.66
4683.00,0.66
4682.00,0.66
4681.00,0.66
4680.00,0.66
4679.00,0.66
4678.00,0.66
4677.00,0.66
4676.00,0.66
4675.00,0.66
4674.00,0.66
4673.00,0.66
4672.00,0.66
4671.00,0.66
4670.00,0.66
4669.00,0.66
4668.00,0.66
4667.00,0.67
4666.00,0.67
4665.00,0.67
4664.00,0.67
4663.00,0.67
4662.00,0.67
4661.00,0.67
4660.00,0.67
4659.00,0.67
4658.00,0.67
4657.00,0.67
4656.00,0.67
4655.00,0.67
4654.00,0.67
4653.00,0.67
4652.00,0.67
4651.00,0.67
4650.00,0.67
4649.00,0.67
4648.00,0.67
4647.00,0.67
4646.00,0.67
4645.00,0.67
4644.00,0.67
4643.00,0.67
4642.00,0.67
4641.00,0.67
4640.00,0.67
4639.00,0.67
4638.00,0.67
4637.00,0.67
4636.00,0.67
4635.00,0.67
4634.00,0.68
4633.00,0.68
4632.00,0.68
4631.00,0.68
4630.00,0.68
4629.00,0.68
4628.00,0.68
4627.00,0.68
4626.00,0.68
4625.00,0.68
4624.00,0.68
4623.00,0.68
4622.00,0.68
4621.00,0.68
4620.00,0.68
4619.00,0.68
4618.00,0.68
4617.00,0.68
4616.00,0.68
4615.00,0.68
4614.00,0.68
4613.00,0.68
4612.00,0.68
4611.00,0.68
4610.00,0.69
4609.00,0.69
4608.00,0.69
4607.00,0.69
4606.00,0.69
4605.00,0.69
4604.00,0.69
4603.00,0.69
4602.00,0.69
4601.00,0.69
4600.00,0.69
4599.00,0.69
4598.00,0.69
4597.00,0.69
4596.00,0.69
4595.00,0.69
4594.00,0.69
4593.00,0.69
4592.00,0.69
4591.00,0.70
4590.00,0.70
4589.00,0.70
4588.00,0.70
4587.00,0.70
4586.00,0.70
4585.00,0.70
4584.00,0.70
4583.00,0.70
4582.00,0.70
4581.00,0.70
4580.00,0.70
4579.00,0.70
4578.00,0.70
4577.00,0.70
4576.00,0.70
4575.00,0.70
4574.00,0.70
4573.00,0.70
4572.00,0.70
4571.00,0.70
4570.00,0.70
4569.00,0.70
4568.00,0.70
4567.00,0.70
4566.00,0.70
4565.00,0.70
4564.00,0.70
4563.00,0.70
4562.00,0.70
4561.00,0.70
4560.00,0.70
4559.00,0.70
4558.00,0.70
4557.00,0.70
4556.00,0.70
4555.00,0.70
4554.00,0.70
4553.00,0.70
4552.00,0.70
4551.00,0.70
4550.00,0.70
4549.00,0.70
4548.00,0.71
4547.00,0.71
4546.00,0.71
4545.00,0.71
4544.00,0.71
4543.00,0.71
4542.00,0.71
4541.00,0.71
4540.00,0.71
4539.00,0.71
4538.00,0.71
4537.00,0.71
4536.00,0.71
4535.00,0.71
4534.00,0.71
4533.00,0.71
4532.00,0.72
4531.00,0.72
4530.00,0.72
4529.00,0.72
4528.00,0.72
4527.00,0.72
4526.00,0.72
4525.00,0.72
4524.00,0.72
4523.00,0.72
4522.00,0.72
4521.00,0.72
4520.00,0.71
4519.00,0.71
4518.00,0.71
4517.00,0.71
4516.00,0.71
4515.00,0.71
4514.00,0.71
4513.00,0.71
4512.00,0.71
4511.00,0.71
4510.00,0.71
4509.00,0.71
4508.00,0.71
4507.00,0.71
4506.00,0.71
4505.00,0.71
4504.00,0.71
4503.00,0.71
4502.00,0.71
4501.00,0.71
4500.00,0.71
4499.00,0.71
4498.00,0.71
4497.00,0.71
4496.00,0.71
4495.00,0.71
4494.00,0.71
4493.00,0.71
4492.00,0.71
4491.00,0.71
4490.00,0.71
4489.00,0.71
4488.00,0.71
4487.00,0.71
4486.00,0.71
4485.00,0.71
4484.00,0.71
4483.00,0.71
4482.00,0.71
4481.00,0.71
4480.00,0.71
4479.00,0.71
4478.00,0.71
4477.00,0.71
4476.00,0.71
4475.00,0.71
4474.00,0.71
4473.00,0.71
4472.00,0.71
4471.00,0.71
4470.00,0.71
4469.00,0.71
4468.00,0.70
4467.00,0.70
4466.00,0.70
4465.00,0.70
4464.00,0.70
4463.00,0.70
4462.00,0.70
4461.00,0.70
4460.00,0.70
4459.00,0.70
4458.00,0.70
4457.00,0.70
4456.00,0.70
4455.00,0.70
4454.00,0.69
4453.00,0.69
4452.00,0.69
4451.00,0.69
4450.00,0.69
4449.00,0.69
4448.00,0.69
4447.00,0.68
4446.00,0.68
4445.00,0.68
4444.00,0.68
4443.00,0.68
4442.00,0.68
4441.00,0.67
4440.00,0.67
4439.00,0.67
4438.00,0.67
4437.00,0.67
4436.00,0.67
4435.00,0.67
4434.00,0.67
4433.00,0.67
4432.00,0.67
4431.00,0.67
4430.00,0.67
4429.00,0.66
4428.00,0.66
4427.00,0.66
4426.00,0.66
4425.00,0.66
4424.00,0.66
4423.00,0.66
4422.00,0.66
4421.00,0.66
4420.00,0.66
4419.00,0.66
4418.00,0.66
4417.00,0.66
4416.00,0.66
4415.00,0.66
4414.00,0.66
4413.00,0.66
4412.00,0.66
4411.00,0.66
4410.00,0.66
4409.00,0.66
4408.00,0.66
4407.00,0.66
4406.00,0.66
4405.00,0.66
4404.00,0.66
4403.00,0.67
4402.00,0.67
4401.00,0.67
4400.00,0.67
4399.00,0.67
4398.00,0.67
4397.00,0.67
4396.00,0.67
4395.00,0.67
4394.00,0.67
4393.00,0.67
4392.00,0.67
4391.00,0.67
4390.00,0.68
4389.00,0.68
4388.00,0.68
4387.00,0.68
4386.00,0.68
4385.00,0.68
4384.00,0.68
4383.00,0.68
4382.00,0.68
4381.00,0.68
4380.00,0.68
4379.00,0.68
4378.00,0.68
4377.00,0.68
4376.00,0.68
4375.00,0.68
4374.00,0.68
4373.00,0.68
4372.00,0.68
4371.00,0.68
4370.00,0.68
4369.00,0.68
4368.00,0.68
4367.00,0.68
4366.00,0.68
4365.00,0.68
4364.00,0.68
4363.00,0.68
4362.00,0.68
4361.00,0.68
4360.00,0.68
4359.00,0.68
4358.00,0.68
4357.00,0.68
4356.00,0.68
4355.00,0.68
4354.00,0.68
4353.00,0.68
4352.00,0.68
4351.00,0.68
4350.00,0.68
4349.00,0.68
4348.00,0.68
4347.00,0.68
4346.00,0.68
4345.00,0.68
4344.00,0.68
4343.00,0.68
4342.00,0.68
4341.00,0.68
4340.00,0.68
4339.00,0.68
4338.00,0.68
4337.00,0.68
4336.00,0.68
4335.00,0.68
4334.00,0.69
4333.00,0.69
4332.00,0.69
4331.00,0.69
4330.00,0.69
4329.00,0.69
4328.00,0.69
4327.00,0.69
4326.00,0.69
4325.00,0.69
4324.00,0.69
4323.00,0.69
4322.00,0.70
4321.00,0.70
4320.00,0.70
4319.00,0.70
4318.00,0.70
4317.00,0.70
4316.00,0.70
4315.00,0.70
4314.00,0.70
4313.00,0.70
4312.00,0.70
4311.00,0.70
4310.00,0.70
4309.00,0.70
4308.00,0.70
4307.00,0.70
4306.00,0.71
4305.00,0.71
4304.00,0.71
4303.00,0.71
4302.00,0.71
4301.00,0.71
4300.00,0.71
4299.00,0.71
4298.00,0.71
4297.00,0.71
4296.00,0.71
4295.00,0.71
4294.00,0.71
4293.00,0.71
4292.00,0.71
4291.00,0.71
4290.00,0.71
4289.00,0.71
4288.00,0.71
4287.00,0.71
4286.00,0.71
4285.00,0.71
4284.00,0.71
4283.00,0.71
4282.00,0.71
4281.00,0.71
4280.00,0.71
4279.00,0.71
4278.00,0.71
4277.00,0.71
4276.00,0.71
4275.00,0.71
4274.00,0.71
4273.00,0.71
4272.00,0.71
4271.00,0.71
4270.00,0.71
4269.00,0.71
4268.00,0.71
4267.00,0.71
4266.00,0.71
4265.00,0.71
4264.00,0.72
4263.00,0.72
4262.00,0.72
4261.00,0.72
4260.00,0.72
4259.00,0.72
4258.00,0.72
4257.00,0.72
4256.00,0.72
4255.00,0.72
4254.00,0.72
4253.00,0.72
4252.00,0.72
4251.00,0.72
4250.00,0.72
4249.00,0.72
4248.00,0.72
4247.00,0.72
4246.00,0.72
4245.00,0.72
4244.00,0.72
4243.00,0.73
4242.00,0.73
4241.00,0.73
4240.00,0.73
4239.00,0.73
4238.00,0.73
4237.00,0.73
4236.00,0.73
4235.00,0.73
4234.00,0.73
4233.00,0.73
4232.00,0.73
4231.00,0.73
4230.00,0.73
4229.00,0.73
4228.00,0.73
4227.00,0.73
4226.00,0.73
4225.00,0.73
4224.00,0.73
4223.00,0.73
4222.00,0.73
4221.00,0.73
4220.00,0.73
4219.00,0.73
4218.00,0.73
4217.00,0.73
4216.00,0.73
4215.00,0.73
4214.00,0.73
4213.00,0.73
4212.00,0.73
4211.00,0.73
4210.00,0.73
4209.00,0.73
4208.00,0.73
4207.00,0.73
4206.00,0.73
4205.00,0.73
4204.00,0.73
4203.00,0.73
4202.00,0.73
4201.00,0.73
4200.00,0.73
4199.00,0.73
4198.00,0.74
4197.00,0.74
4196.00,0.74
4195.00,0.74
4194.00,0.74
4193.00,0.74
4192.00,0.74
4191.00,0.74
4190.00,0.74
4189.00,0.74
4188.00,0.74
4187.00,0.74
4186.00,0.74
4185.00,0.74
4184.00,0.74
4183.00,0.74
4182.00,0.74
4181.00,0.74
4180.00,0.74
4179.00,0.74
4178.00,0.74
4177.00,0.74
4176.00,0.74
4175.00,0.74
4174.00,0.74
4173.00,0.74
4172.00,0.74
4171.00,0.74
4170.00,0.74
4169.00,0.74
4168.00,0.74
4167.00,0.74
4166.00,0.74
4165.00,0.74
4164.00,0.74
4163.00,0.75
4162.00,0.75
4161.00,0.75
4160.00,0.75
4159.00,0.75
4158.00,0.75
4157.00,0.75
4156.00,0.75
4155.00,0.75
4154.00,0.75
4153.00,0.75
4152.00,0.75
4151.00,0.75
4150.00,0.75
4149.00,0.75
4148.00,0.75
4147.00,0.75
4146.00,0.75
4145.00,0.75
4144.00,0.75
4143.00,0.75
4142.00,0.75
4141.00,0.75
4140.00,0.75
4139.00,0.75
4138.00,0.75
4137.00,0.75
4136.00,0.75
4135.00,0.75
4134.00,0.75
4133.00,0.75
4132.00,0.75
4131.00,0.75
4130.00,0.75
4129.00,0.75
4128.00,0.75
4127.00,0.75
4126.00,0.75
4125.00,0.75
4124.00,0.75
4123.00,0.76
4122.00,0.76
4121.00,0.76
4120.00,0.76
4119.00,0.76
4118.00,0.76
4117.00,0.76
4116.00,0.76
4115.00,0.76
4114.00,0.76
4113.00,0.76
4112.00,0.76
4111.00,0.76
4110.00,0.76
4109.00,0.75
4108.00,0.75
4107.00,0.75
4106.00,0.75
4105.00,0.75
4104.00,0.75
4103.00,0.75
4102.00,0.75
4101.00,0.75
4100.00,0.75
4099.00,0.76
4098.00,0.76
4097.00,0.76
4096.00,0.76
4095.00,0.76
4094.00,0.76
4093.00,0.76
4092.00,0.76
4091.00,0.76
4090.00,0.76
4089.00,0.76
4088.00,0.76
4087.00,0.76
4086.00,0.77
4085.00,0.77
4084.00,0.77
4083.00,0.77
4082.00,0.77
4081.00,0.77
4080.00,0.77
4079.00,0.77
4078.00,0.77
4077.00,0.77
4076.00,0.77
4075.00,0.77
4074.00,0.77
4073.00,0.77
4072.00,0.77
4071.00,0.77
4070.00,0.77
4069.00,0.77
4068.00,0.77
4067.00,0.77
4066.00,0.77
4065.00,0.77
4064.00,0.77
4063.00,0.77
4062.00,0.77
4061.00,0.77
4060.00,0.76
4059.00,0.76
4058.00,0.76
4057.00,0.76
4056.00,0.76
4055.00,0.76
4054.00,0.76
4053.00,0.76
4052.00,0.76
4051.00,0.77
4050.00,0.77
4049.00,0.77
4048.00,0.77
4047.00,0.77
4046.00,0.77
4045.00,0.77
4044.00,0.77
4043.00,0.77
4042.00,0.77
4041.00,0.78
4040.00,0.78
4039.00,0.78
4038.00,0.78
4037.00,0.78
4036.00,0.78
4035.00,0.78
4034.00,0.78
4033.00,0.79
4032.00,0.79
4031.00,0.79
4030.00,0.79
4029.00,0.79
4028.00,0.79
4027.00,0.79
4026.00,0.79
4025.00,0.79
4024.00,0.79
4023.00,0.79
4022.00,0.79
4021.00,0.79
4020.00,0.79
4019.00,0.79
4018.00,0.79
4017.00,0.79
4016.00,0.79
4015.00,0.79
4014.00,0.79
4013.00,0.79
4012.00,0.79
4011.00,0.79
4010.00,0.79
4009.00,0.79
4008.00,0.79
4007.00,0.79
4006.00,0.79
4005.00,0.79
4004.00,0.79
4003.00,0.80
4002.00,0.80
4001.00,0.80
4000.00,0.80
