创建为新数据集,样品 240 用户 Administrator 日期 星期日, 七月 22 2018
cm-1,%T
10000.00,1.56
9999.00,1.56
9998.00,1.56
9997.00,1.55
9996.00,1.55
9995.00,1.55
9994.00,1.55
9993.00,1.55
9992.00,1.55
9991.00,1.55
9990.00,1.55
9989.00,1.55
9988.00,1.55
9987.00,1.55
9986.00,1.55
9985.00,1.55
9984.00,1.55
9983.00,1.54
9982.00,1.54
9981.00,1.54
9980.00,1.54
9979.00,1.54
9978.00,1.54
9977.00,1.54
9976.00,1.54
9975.00,1.54
9974.00,1.54
9973.00,1.53
9972.00,1.53
9971.00,1.53
9970.00,1.53
9969.00,1.53
9968.00,1.54
9967.00,1.54
9966.00,1.54
9965.00,1.54
9964.00,1.54
9963.00,1.54
9962.00,1.55
9961.00,1.55
9960.00,1.55
9959.00,1.55
9958.00,1.55
9957.00,1.55
9956.00,1.55
9955.00,1.56
9954.00,1.56
9953.00,1.56
9952.00,1.56
9951.00,1.55
9950.00,1.55
9949.00,1.55
9948.00,1.55
9947.00,1.55
9946.00,1.55
9945.00,1.55
9944.00,1.55
9943.00,1.55
9942.00,1.54
9941.00,1.54
9940.00,1.54
9939.00,1.54
9938.00,1.54
9937.00,1.54
9936.00,1.54
9935.00,1.54
9934.00,1.54
9933.00,1.54
9932.00,1.54
9931.00,1.54
9930.00,1.54
9929.00,1.54
9928.00,1.54
9927.00,1.54
9926.00,1.54
9925.00,1.54
9924.00,1.54
9923.00,1.54
9922.00,1.54
9921.00,1.54
9920.00,1.54
9919.00,1.54
9918.00,1.54
9917.00,1.54
9916.00,1.54
9915.00,1.54
9914.00,1.54
9913.00,1.53
9912.00,1.53
9911.00,1.53
9910.00,1.53
9909.00,1.53
9908.00,1.53
9907.00,1.53
9906.00,1.53
9905.00,1.52
9904.00,1.52
9903.00,1.52
9902.00,1.52
9901.00,1.52
9900.00,1.52
9899.00,1.51
9898.00,1.51
9897.00,1.51
9896.00,1.51
9895.00,1.51
9894.00,1.51
9893.00,1.51
9892.00,1.51
9891.00,1.51
9890.00,1.51
9889.00,1.51
9888.00,1.51
9887.00,1.51
9886.00,1.51
9885.00,1.51
9884.00,1.52
9883.00,1.52
9882.00,1.52
9881.00,1.52
9880.00,1.52
9879.00,1.52
9878.00,1.53
9877.00,1.53
9876.00,1.53
9875.00,1.53
9874.00,1.53
9873.00,1.53
9872.00,1.53
9871.00,1.53
9870.00,1.53
9869.00,1.53
9868.00,1.53
9867.00,1.53
9866.00,1.53
9865.00,1.53
9864.00,1.53
9863.00,1.52
9862.00,1.52
9861.00,1.52
9860.00,1.52
9859.00,1.52
9858.00,1.52
9857.00,1.51
9856.00,1.51
9855.00,1.51
9854.00,1.51
9853.00,1.51
9852.00,1.51
9851.00,1.50
9850.00,1.50
9849.00,1.50
9848.00,1.50
9847.00,1.50
9846.00,1.50
9845.00,1.50
9844.00,1.50
9843.00,1.50
9842.00,1.50
9841.00,1.50
9840.00,1.51
9839.00,1.51
9838.00,1.51
9837.00,1.51
9836.00,1.51
9835.00,1.51
9834.00,1.51
9833.00,1.52
9832.00,1.52
9831.00,1.52
9830.00,1.52
9829.00,1.52
9828.00,1.53
9827.00,1.53
9826.00,1.53
9825.00,1.53
9824.00,1.53
9823.00,1.54
9822.00,1.54
9821.00,1.54
9820.00,1.54
9819.00,1.54
9818.00,1.54
9817.00,1.54
9816.00,1.54
9815.00,1.54
9814.00,1.54
9813.00,1.54
9812.00,1.54
9811.00,1.54
9810.00,1.54
9809.00,1.54
9808.00,1.54
9807.00,1.54
9806.00,1.54
9805.00,1.54
9804.00,1.54
9803.00,1.54
9802.00,1.54
9801.00,1.54
9800.00,1.54
9799.00,1.54
9798.00,1.54
9797.00,1.54
9796.00,1.55
9795.00,1.55
9794.00,1.55
9793.00,1.55
9792.00,1.55
9791.00,1.55
9790.00,1.55
9789.00,1.55
9788.00,1.55
9787.00,1.55
9786.00,1.55
9785.00,1.55
9784.00,1.55
9783.00,1.54
9782.00,1.54
9781.00,1.54
9780.00,1.54
9779.00,1.53
9778.00,1.53
9777.00,1.53
9776.00,1.53
9775.00,1.53
9774.00,1.53
9773.00,1.53
9772.00,1.52
9771.00,1.52
9770.00,1.52
9769.00,1.52
9768.00,1.52
9767.00,1.52
9766.00,1.52
9765.00,1.53
9764.00,1.53
9763.00,1.53
9762.00,1.53
9761.00,1.53
9760.00,1.53
9759.00,1.53
9758.00,1.53
9757.00,1.53
9756.00,1.52
9755.00,1.52
9754.00,1.52
9753.00,1.52
9752.00,1.52
9751.00,1.52
9750.00,1.51
9749.00,1.51
9748.00,1.51
9747.00,1.51
9746.00,1.51
9745.00,1.50
9744.00,1.50
9743.00,1.50
9742.00,1.50
9741.00,1.50
9740.00,1.51
9739.00,1.51
9738.00,1.51
9737.00,1.51
9736.00,1.52
9735.00,1.52
9734.00,1.52
9733.00,1.53
9732.00,1.53
9731.00,1.53
9730.00,1.54
9729.00,1.54
9728.00,1.54
9727.00,1.55
9726.00,1.55
9725.00,1.55
9724.00,1.55
9723.00,1.55
9722.00,1.55
9721.00,1.55
9720.00,1.55
9719.00,1.55
9718.00,1.55
9717.00,1.55
9716.00,1.55
9715.00,1.55
9714.00,1.54
9713.00,1.54
9712.00,1.54
9711.00,1.54
9710.00,1.54
9709.00,1.54
9708.00,1.53
9707.00,1.53
9706.00,1.53
9705.00,1.53
9704.00,1.53
9703.00,1.53
9702.00,1.53
9701.00,1.53
9700.00,1.53
9699.00,1.53
9698.00,1.54
9697.00,1.54
9696.00,1.54
9695.00,1.54
9694.00,1.54
9693.00,1.54
9692.00,1.54
9691.00,1.55
9690.00,1.55
9689.00,1.55
9688.00,1.55
9687.00,1.55
9686.00,1.55
9685.00,1.55
9684.00,1.55
9683.00,1.55
9682.00,1.55
9681.00,1.55
9680.00,1.55
9679.00,1.55
9678.00,1.55
9677.00,1.54
9676.00,1.54
9675.00,1.54
9674.00,1.54
9673.00,1.54
9672.00,1.54
9671.00,1.54
9670.00,1.54
9669.00,1.54
9668.00,1.54
9667.00,1.54
9666.00,1.54
9665.00,1.54
9664.00,1.54
9663.00,1.54
9662.00,1.54
9661.00,1.54
9660.00,1.54
9659.00,1.54
9658.00,1.54
9657.00,1.54
9656.00,1.54
9655.00,1.54
9654.00,1.54
9653.00,1.54
9652.00,1.54
9651.00,1.54
9650.00,1.54
9649.00,1.54
9648.00,1.54
9647.00,1.54
9646.00,1.53
9645.00,1.53
9644.00,1.53
9643.00,1.53
9642.00,1.53
9641.00,1.53
9640.00,1.53
9639.00,1.53
9638.00,1.53
9637.00,1.53
9636.00,1.53
9635.00,1.53
9634.00,1.54
9633.00,1.54
9632.00,1.54
9631.00,1.54
9630.00,1.54
9629.00,1.55
9628.00,1.55
9627.00,1.55
9626.00,1.55
9625.00,1.55
9624.00,1.55
9623.00,1.55
9622.00,1.55
9621.00,1.55
9620.00,1.55
9619.00,1.55
9618.00,1.55
9617.00,1.55
9616.00,1.55
9615.00,1.55
9614.00,1.54
9613.00,1.54
9612.00,1.54
9611.00,1.54
9610.00,1.53
9609.00,1.53
9608.00,1.53
9607.00,1.53
9606.00,1.53
9605.00,1.52
9604.00,1.52
9603.00,1.52
9602.00,1.52
9601.00,1.52
9600.00,1.52
9599.00,1.52
9598.00,1.52
9597.00,1.52
9596.00,1.52
9595.00,1.52
9594.00,1.52
9593.00,1.52
9592.00,1.52
9591.00,1.52
9590.00,1.52
9589.00,1.52
9588.00,1.52
9587.00,1.52
9586.00,1.52
9585.00,1.52
9584.00,1.52
9583.00,1.52
9582.00,1.52
9581.00,1.52
9580.00,1.51
9579.00,1.51
9578.00,1.51
9577.00,1.51
9576.00,1.51
9575.00,1.51
9574.00,1.51
9573.00,1.51
9572.00,1.51
9571.00,1.51
9570.00,1.51
9569.00,1.51
9568.00,1.51
9567.00,1.51
9566.00,1.51
9565.00,1.51
9564.00,1.51
9563.00,1.51
9562.00,1.52
9561.00,1.52
9560.00,1.52
9559.00,1.52
9558.00,1.52
9557.00,1.52
9556.00,1.52
9555.00,1.52
9554.00,1.52
9553.00,1.52
9552.00,1.52
9551.00,1.52
9550.00,1.52
9549.00,1.52
9548.00,1.53
9547.00,1.53
9546.00,1.53
9545.00,1.52
9544.00,1.52
9543.00,1.52
9542.00,1.52
9541.00,1.52
9540.00,1.52
9539.00,1.52
9538.00,1.52
9537.00,1.52
9536.00,1.51
9535.00,1.51
9534.00,1.51
9533.00,1.51
9532.00,1.51
9531.00,1.51
9530.00,1.50
9529.00,1.50
9528.00,1.50
9527.00,1.50
9526.00,1.50
9525.00,1.50
9524.00,1.50
9523.00,1.50
9522.00,1.50
9521.00,1.50
9520.00,1.50
9519.00,1.50
9518.00,1.50
9517.00,1.50
9516.00,1.50
9515.00,1.50
9514.00,1.51
9513.00,1.51
9512.00,1.51
9511.00,1.51
9510.00,1.51
9509.00,1.51
9508.00,1.51
9507.00,1.51
9506.00,1.51
9505.00,1.51
9504.00,1.51
9503.00,1.51
9502.00,1.51
9501.00,1.52
9500.00,1.52
9499.00,1.52
9498.00,1.52
9497.00,1.52
9496.00,1.52
9495.00,1.52
9494.00,1.52
9493.00,1.52
9492.00,1.52
9491.00,1.52
9490.00,1.52
9489.00,1.52
9488.00,1.52
9487.00,1.52
9486.00,1.52
9485.00,1.52
9484.00,1.52
9483.00,1.52
9482.00,1.52
9481.00,1.52
9480.00,1.52
9479.00,1.52
9478.00,1.52
9477.00,1.52
9476.00,1.52
9475.00,1.52
9474.00,1.52
9473.00,1.52
9472.00,1.52
9471.00,1.52
9470.00,1.52
9469.00,1.52
9468.00,1.52
9467.00,1.52
9466.00,1.52
9465.00,1.52
9464.00,1.52
9463.00,1.52
9462.00,1.52
9461.00,1.52
9460.00,1.52
9459.00,1.52
9458.00,1.52
9457.00,1.52
9456.00,1.52
9455.00,1.52
9454.00,1.52
9453.00,1.52
9452.00,1.52
9451.00,1.52
9450.00,1.53
9449.00,1.53
9448.00,1.53
9447.00,1.53
9446.00,1.53
9445.00,1.53
9444.00,1.53
9443.00,1.53
9442.00,1.53
9441.00,1.53
9440.00,1.53
9439.00,1.54
9438.00,1.54
9437.00,1.54
9436.00,1.54
9435.00,1.54
9434.00,1.55
9433.00,1.55
9432.00,1.55
9431.00,1.55
9430.00,1.55
9429.00,1.55
9428.00,1.55
9427.00,1.55
9426.00,1.55
9425.00,1.55
9424.00,1.55
9423.00,1.55
9422.00,1.55
9421.00,1.55
9420.00,1.55
9419.00,1.54
9418.00,1.54
9417.00,1.54
9416.00,1.54
9415.00,1.54
9414.00,1.54
9413.00,1.53
9412.00,1.53
9411.00,1.53
9410.00,1.53
9409.00,1.53
9408.00,1.53
9407.00,1.53
9406.00,1.53
9405.00,1.53
9404.00,1.53
9403.00,1.53
9402.00,1.53
9401.00,1.53
9400.00,1.53
9399.00,1.53
9398.00,1.54
9397.00,1.54
9396.00,1.54
9395.00,1.54
9394.00,1.54
9393.00,1.55
9392.00,1.55
9391.00,1.55
9390.00,1.55
9389.00,1.55
9388.00,1.55
9387.00,1.55
9386.00,1.55
9385.00,1.55
9384.00,1.55
9383.00,1.55
9382.00,1.55
9381.00,1.54
9380.00,1.54
9379.00,1.54
9378.00,1.53
9377.00,1.53
9376.00,1.53
9375.00,1.52
9374.00,1.52
9373.00,1.52
9372.00,1.51
9371.00,1.51
9370.00,1.51
9369.00,1.51
9368.00,1.51
9367.00,1.51
9366.00,1.51
9365.00,1.51
9364.00,1.51
9363.00,1.51
9362.00,1.51
9361.00,1.51
9360.00,1.51
9359.00,1.51
9358.00,1.51
9357.00,1.51
9356.00,1.51
9355.00,1.51
9354.00,1.51
9353.00,1.51
9352.00,1.51
9351.00,1.52
9350.00,1.52
9349.00,1.52
9348.00,1.52
9347.00,1.52
9346.00,1.52
9345.00,1.52
9344.00,1.52
9343.00,1.52
9342.00,1.52
9341.00,1.52
9340.00,1.52
9339.00,1.52
9338.00,1.52
9337.00,1.52
9336.00,1.52
9335.00,1.52
9334.00,1.52
9333.00,1.53
9332.00,1.53
9331.00,1.53
9330.00,1.53
9329.00,1.53
9328.00,1.53
9327.00,1.53
9326.00,1.53
9325.00,1.53
9324.00,1.54
9323.00,1.54
9322.00,1.54
9321.00,1.54
9320.00,1.54
9319.00,1.55
9318.00,1.55
9317.00,1.55
9316.00,1.55
9315.00,1.55
9314.00,1.55
9313.00,1.55
9312.00,1.55
9311.00,1.55
9310.00,1.55
9309.00,1.55
9308.00,1.55
9307.00,1.55
9306.00,1.55
9305.00,1.55
9304.00,1.55
9303.00,1.55
9302.00,1.55
9301.00,1.55
9300.00,1.55
9299.00,1.55
9298.00,1.55
9297.00,1.55
9296.00,1.55
9295.00,1.55
9294.00,1.55
9293.00,1.55
9292.00,1.54
9291.00,1.54
9290.00,1.54
9289.00,1.54
9288.00,1.54
9287.00,1.54
9286.00,1.54
9285.00,1.54
9284.00,1.53
9283.00,1.53
9282.00,1.53
9281.00,1.53
9280.00,1.53
9279.00,1.53
9278.00,1.53
9277.00,1.53
9276.00,1.53
9275.00,1.53
9274.00,1.53
9273.00,1.53
9272.00,1.53
9271.00,1.53
9270.00,1.53
9269.00,1.54
9268.00,1.54
9267.00,1.54
9266.00,1.54
9265.00,1.54
9264.00,1.54
9263.00,1.54
9262.00,1.54
9261.00,1.54
9260.00,1.54
9259.00,1.54
9258.00,1.54
9257.00,1.54
9256.00,1.53
9255.00,1.53
9254.00,1.53
9253.00,1.53
9252.00,1.52
9251.00,1.52
9250.00,1.52
9249.00,1.51
9248.00,1.51
9247.00,1.51
9246.00,1.50
9245.00,1.50
9244.00,1.50
9243.00,1.50
9242.00,1.49
9241.00,1.49
9240.00,1.49
9239.00,1.49
9238.00,1.49
9237.00,1.49
9236.00,1.49
9235.00,1.50
9234.00,1.50
9233.00,1.50
9232.00,1.50
9231.00,1.50
9230.00,1.51
9229.00,1.51
9228.00,1.51
9227.00,1.51
9226.00,1.51
9225.00,1.52
9224.00,1.52
9223.00,1.52
9222.00,1.52
9221.00,1.53
9220.00,1.53
9219.00,1.53
9218.00,1.53
9217.00,1.54
9216.00,1.54
9215.00,1.54
9214.00,1.54
9213.00,1.54
9212.00,1.55
9211.00,1.55
9210.00,1.55
9209.00,1.55
9208.00,1.55
9207.00,1.55
9206.00,1.55
9205.00,1.55
9204.00,1.55
9203.00,1.55
9202.00,1.55
9201.00,1.55
9200.00,1.54
9199.00,1.54
9198.00,1.54
9197.00,1.54
9196.00,1.54
9195.00,1.53
9194.00,1.53
9193.00,1.53
9192.00,1.53
9191.00,1.52
9190.00,1.52
9189.00,1.52
9188.00,1.52
9187.00,1.52
9186.00,1.52
9185.00,1.52
9184.00,1.51
9183.00,1.51
9182.00,1.51
9181.00,1.51
9180.00,1.51
9179.00,1.51
9178.00,1.51
9177.00,1.51
9176.00,1.51
9175.00,1.52
9174.00,1.52
9173.00,1.52
9172.00,1.52
9171.00,1.52
9170.00,1.52
9169.00,1.52
9168.00,1.53
9167.00,1.53
9166.00,1.53
9165.00,1.53
9164.00,1.53
9163.00,1.53
9162.00,1.53
9161.00,1.53
9160.00,1.53
9159.00,1.53
9158.00,1.53
9157.00,1.53
9156.00,1.53
9155.00,1.52
9154.00,1.52
9153.00,1.52
9152.00,1.52
9151.00,1.52
9150.00,1.52
9149.00,1.52
9148.00,1.52
9147.00,1.52
9146.00,1.52
9145.00,1.52
9144.00,1.52
9143.00,1.52
9142.00,1.52
9141.00,1.52
9140.00,1.52
9139.00,1.52
9138.00,1.52
9137.00,1.53
9136.00,1.53
9135.00,1.53
9134.00,1.53
9133.00,1.53
9132.00,1.53
9131.00,1.53
9130.00,1.53
9129.00,1.54
9128.00,1.54
9127.00,1.54
9126.00,1.54
9125.00,1.54
9124.00,1.54
9123.00,1.55
9122.00,1.55
9121.00,1.55
9120.00,1.55
9119.00,1.55
9118.00,1.55
9117.00,1.55
9116.00,1.55
9115.00,1.55
9114.00,1.55
9113.00,1.55
9112.00,1.55
9111.00,1.55
9110.00,1.55
9109.00,1.55
9108.00,1.55
9107.00,1.55
9106.00,1.55
9105.00,1.55
9104.00,1.55
9103.00,1.55
9102.00,1.55
9101.00,1.55
9100.00,1.55
9099.00,1.54
9098.00,1.54
9097.00,1.54
9096.00,1.54
9095.00,1.54
9094.00,1.54
9093.00,1.54
9092.00,1.54
9091.00,1.54
9090.00,1.54
9089.00,1.54
9088.00,1.54
9087.00,1.54
9086.00,1.54
9085.00,1.54
9084.00,1.54
9083.00,1.54
9082.00,1.54
9081.00,1.54
9080.00,1.54
9079.00,1.54
9078.00,1.54
9077.00,1.55
9076.00,1.55
9075.00,1.55
9074.00,1.55
9073.00,1.55
9072.00,1.55
9071.00,1.55
9070.00,1.55
9069.00,1.55
9068.00,1.55
9067.00,1.55
9066.00,1.55
9065.00,1.55
9064.00,1.55
9063.00,1.55
9062.00,1.55
9061.00,1.55
9060.00,1.55
9059.00,1.55
9058.00,1.55
9057.00,1.55
9056.00,1.55
9055.00,1.55
9054.00,1.55
9053.00,1.55
9052.00,1.55
9051.00,1.55
9050.00,1.55
9049.00,1.55
9048.00,1.55
9047.00,1.55
9046.00,1.55
9045.00,1.55
9044.00,1.55
9043.00,1.55
9042.00,1.55
9041.00,1.55
9040.00,1.55
9039.00,1.55
9038.00,1.55
9037.00,1.55
9036.00,1.55
9035.00,1.55
9034.00,1.55
9033.00,1.54
9032.00,1.54
9031.00,1.54
9030.00,1.54
9029.00,1.54
9028.00,1.54
9027.00,1.54
9026.00,1.54
9025.00,1.54
9024.00,1.54
9023.00,1.54
9022.00,1.54
9021.00,1.54
9020.00,1.54
9019.00,1.54
9018.00,1.54
9017.00,1.54
9016.00,1.54
9015.00,1.54
9014.00,1.54
9013.00,1.54
9012.00,1.54
9011.00,1.55
9010.00,1.55
9009.00,1.55
9008.00,1.55
9007.00,1.55
9006.00,1.55
9005.00,1.55
9004.00,1.55
9003.00,1.55
9002.00,1.55
9001.00,1.54
9000.00,1.54
8999.00,1.54
8998.00,1.54
8997.00,1.54
8996.00,1.54
8995.00,1.54
8994.00,1.54
8993.00,1.54
8992.00,1.53
8991.00,1.53
8990.00,1.53
8989.00,1.53
8988.00,1.53
8987.00,1.53
8986.00,1.53
8985.00,1.53
8984.00,1.53
8983.00,1.53
8982.00,1.53
8981.00,1.53
8980.00,1.53
8979.00,1.53
8978.00,1.53
8977.00,1.53
8976.00,1.53
8975.00,1.53
8974.00,1.53
8973.00,1.53
8972.00,1.53
8971.00,1.54
8970.00,1.54
8969.00,1.54
8968.00,1.54
8967.00,1.54
8966.00,1.54
8965.00,1.54
8964.00,1.54
8963.00,1.55
8962.00,1.55
8961.00,1.55
8960.00,1.55
8959.00,1.55
8958.00,1.55
8957.00,1.55
8956.00,1.55
8955.00,1.55
8954.00,1.54
8953.00,1.54
8952.00,1.54
8951.00,1.54
8950.00,1.54
8949.00,1.54
8948.00,1.54
8947.00,1.54
8946.00,1.54
8945.00,1.53
8944.00,1.53
8943.00,1.53
8942.00,1.53
8941.00,1.53
8940.00,1.53
8939.00,1.53
8938.00,1.53
8937.00,1.53
8936.00,1.53
8935.00,1.53
8934.00,1.53
8933.00,1.53
8932.00,1.53
8931.00,1.53
8930.00,1.53
8929.00,1.53
8928.00,1.53
8927.00,1.54
8926.00,1.54
8925.00,1.54
8924.00,1.54
8923.00,1.54
8922.00,1.54
8921.00,1.54
8920.00,1.54
8919.00,1.54
8918.00,1.54
8917.00,1.54
8916.00,1.54
8915.00,1.54
8914.00,1.54
8913.00,1.54
8912.00,1.54
8911.00,1.54
8910.00,1.54
8909.00,1.54
8908.00,1.54
8907.00,1.54
8906.00,1.54
8905.00,1.54
8904.00,1.54
8903.00,1.54
8902.00,1.54
8901.00,1.54
8900.00,1.54
8899.00,1.54
8898.00,1.54
8897.00,1.54
8896.00,1.54
8895.00,1.54
8894.00,1.54
8893.00,1.55
8892.00,1.55
8891.00,1.55
8890.00,1.55
8889.00,1.55
8888.00,1.55
8887.00,1.55
8886.00,1.55
8885.00,1.55
8884.00,1.56
8883.00,1.56
8882.00,1.56
8881.00,1.56
8880.00,1.55
8879.00,1.55
8878.00,1.55
8877.00,1.55
8876.00,1.55
8875.00,1.55
8874.00,1.55
8873.00,1.55
8872.00,1.55
8871.00,1.55
8870.00,1.55
8869.00,1.55
8868.00,1.54
8867.00,1.54
8866.00,1.54
8865.00,1.54
8864.00,1.54
8863.00,1.54
8862.00,1.54
8861.00,1.54
8860.00,1.54
8859.00,1.54
8858.00,1.53
8857.00,1.53
8856.00,1.53
8855.00,1.53
8854.00,1.53
8853.00,1.53
8852.00,1.53
8851.00,1.53
8850.00,1.53
8849.00,1.53
8848.00,1.53
8847.00,1.53
8846.00,1.53
8845.00,1.53
8844.00,1.54
8843.00,1.54
8842.00,1.54
8841.00,1.54
8840.00,1.54
8839.00,1.54
8838.00,1.54
8837.00,1.54
8836.00,1.54
8835.00,1.54
8834.00,1.54
8833.00,1.54
8832.00,1.53
8831.00,1.53
8830.00,1.53
8829.00,1.53
8828.00,1.53
8827.00,1.53
8826.00,1.52
8825.00,1.52
8824.00,1.52
8823.00,1.52
8822.00,1.52
8821.00,1.51
8820.00,1.51
8819.00,1.51
8818.00,1.51
8817.00,1.51
8816.00,1.51
8815.00,1.51
8814.00,1.51
8813.00,1.51
8812.00,1.50
8811.00,1.50
8810.00,1.50
8809.00,1.50
8808.00,1.50
8807.00,1.50
8806.00,1.50
8805.00,1.50
8804.00,1.50
8803.00,1.50
8802.00,1.50
8801.00,1.50
8800.00,1.51
8799.00,1.51
8798.00,1.51
8797.00,1.51
8796.00,1.51
8795.00,1.51
8794.00,1.51
8793.00,1.51
8792.00,1.51
8791.00,1.51
8790.00,1.51
8789.00,1.51
8788.00,1.51
8787.00,1.51
8786.00,1.51
8785.00,1.50
8784.00,1.50
8783.00,1.50
8782.00,1.50
8781.00,1.50
8780.00,1.50
8779.00,1.50
8778.00,1.50
8777.00,1.50
8776.00,1.49
8775.00,1.49
8774.00,1.49
8773.00,1.49
8772.00,1.49
8771.00,1.49
8770.00,1.49
8769.00,1.49
8768.00,1.49
8767.00,1.49
8766.00,1.49
8765.00,1.49
8764.00,1.49
8763.00,1.49
8762.00,1.49
8761.00,1.49
8760.00,1.48
8759.00,1.48
8758.00,1.48
8757.00,1.48
8756.00,1.48
8755.00,1.47
8754.00,1.47
8753.00,1.47
8752.00,1.47
8751.00,1.47
8750.00,1.46
8749.00,1.46
8748.00,1.46
8747.00,1.46
8746.00,1.46
8745.00,1.46
8744.00,1.46
8743.00,1.46
8742.00,1.46
8741.00,1.46
8740.00,1.46
8739.00,1.46
8738.00,1.46
8737.00,1.46
8736.00,1.46
8735.00,1.46
8734.00,1.46
8733.00,1.46
8732.00,1.46
8731.00,1.46
8730.00,1.46
8729.00,1.46
8728.00,1.46
8727.00,1.46
8726.00,1.46
8725.00,1.46
8724.00,1.46
8723.00,1.46
8722.00,1.46
8721.00,1.46
8720.00,1.46
8719.00,1.45
8718.00,1.45
8717.00,1.45
8716.00,1.45
8715.00,1.45
8714.00,1.46
8713.00,1.46
8712.00,1.46
8711.00,1.46
8710.00,1.46
8709.00,1.46
8708.00,1.47
8707.00,1.47
8706.00,1.47
8705.00,1.47
8704.00,1.47
8703.00,1.47
8702.00,1.47
8701.00,1.47
8700.00,1.47
8699.00,1.47
8698.00,1.47
8697.00,1.47
8696.00,1.47
8695.00,1.47
8694.00,1.46
8693.00,1.46
8692.00,1.46
8691.00,1.46
8690.00,1.45
8689.00,1.45
8688.00,1.45
8687.00,1.45
8686.00,1.45
8685.00,1.45
8684.00,1.44
8683.00,1.44
8682.00,1.44
8681.00,1.44
8680.00,1.44
8679.00,1.44
8678.00,1.44
8677.00,1.44
8676.00,1.44
8675.00,1.44
8674.00,1.44
8673.00,1.44
8672.00,1.44
8671.00,1.44
8670.00,1.44
8669.00,1.44
8668.00,1.44
8667.00,1.44
8666.00,1.44
8665.00,1.45
8664.00,1.45
8663.00,1.45
8662.00,1.45
8661.00,1.45
8660.00,1.45
8659.00,1.45
8658.00,1.45
8657.00,1.45
8656.00,1.45
8655.00,1.45
8654.00,1.45
8653.00,1.46
8652.00,1.46
8651.00,1.46
8650.00,1.46
8649.00,1.46
8648.00,1.46
8647.00,1.46
8646.00,1.46
8645.00,1.46
8644.00,1.46
8643.00,1.45
8642.00,1.45
8641.00,1.45
8640.00,1.45
8639.00,1.45
8638.00,1.45
8637.00,1.45
8636.00,1.45
8635.00,1.45
8634.00,1.45
8633.00,1.45
8632.00,1.44
8631.00,1.44
8630.00,1.44
8629.00,1.44
8628.00,1.44
8627.00,1.44
8626.00,1.44
8625.00,1.44
8624.00,1.44
8623.00,1.44
8622.00,1.44
8621.00,1.44
8620.00,1.44
8619.00,1.44
8618.00,1.44
8617.00,1.44
8616.00,1.44
8615.00,1.44
8614.00,1.44
8613.00,1.44
8612.00,1.44
8611.00,1.43
8610.00,1.43
8609.00,1.43
8608.00,1.43
8607.00,1.43
8606.00,1.43
8605.00,1.43
8604.00,1.42
8603.00,1.42
8602.00,1.42
8601.00,1.42
8600.00,1.42
8599.00,1.42
8598.00,1.42
8597.00,1.41
8596.00,1.41
8595.00,1.41
8594.00,1.41
8593.00,1.41
8592.00,1.41
8591.00,1.41
8590.00,1.41
8589.00,1.41
8588.00,1.41
8587.00,1.41
8586.00,1.41
8585.00,1.41
8584.00,1.41
8583.00,1.41
8582.00,1.41
8581.00,1.41
8580.00,1.41
8579.00,1.41
8578.00,1.41
8577.00,1.41
8576.00,1.41
8575.00,1.41
8574.00,1.42
8573.00,1.42
8572.00,1.42
8571.00,1.42
8570.00,1.42
8569.00,1.42
8568.00,1.42
8567.00,1.42
8566.00,1.43
8565.00,1.43
8564.00,1.43
8563.00,1.43
8562.00,1.42
8561.00,1.42
8560.00,1.42
8559.00,1.42
8558.00,1.42
8557.00,1.42
8556.00,1.42
8555.00,1.41
8554.00,1.41
8553.00,1.41
8552.00,1.41
8551.00,1.41
8550.00,1.41
8549.00,1.41
8548.00,1.41
8547.00,1.40
8546.00,1.40
8545.00,1.40
8544.00,1.40
8543.00,1.40
8542.00,1.40
8541.00,1.40
8540.00,1.40
8539.00,1.40
8538.00,1.40
8537.00,1.39
8536.00,1.39
8535.00,1.39
8534.00,1.39
8533.00,1.38
8532.00,1.38
8531.00,1.38
8530.00,1.37
8529.00,1.37
8528.00,1.37
8527.00,1.37
8526.00,1.36
8525.00,1.36
8524.00,1.36
8523.00,1.36
8522.00,1.36
8521.00,1.36
8520.00,1.36
8519.00,1.36
8518.00,1.36
8517.00,1.36
8516.00,1.36
8515.00,1.36
8514.00,1.36
8513.00,1.37
8512.00,1.37
8511.00,1.37
8510.00,1.37
8509.00,1.37
8508.00,1.37
8507.00,1.38
8506.00,1.38
8505.00,1.38
8504.00,1.38
8503.00,1.38
8502.00,1.38
8501.00,1.38
8500.00,1.38
8499.00,1.38
8498.00,1.37
8497.00,1.37
8496.00,1.37
8495.00,1.37
8494.00,1.37
8493.00,1.36
8492.00,1.36
8491.00,1.36
8490.00,1.36
8489.00,1.36
8488.00,1.35
8487.00,1.35
8486.00,1.35
8485.00,1.35
8484.00,1.35
8483.00,1.35
8482.00,1.35
8481.00,1.35
8480.00,1.35
8479.00,1.35
8478.00,1.35
8477.00,1.35
8476.00,1.34
8475.00,1.34
8474.00,1.34
8473.00,1.34
8472.00,1.34
8471.00,1.34
8470.00,1.33
8469.00,1.33
8468.00,1.33
8467.00,1.33
8466.00,1.33
8465.00,1.33
8464.00,1.33
8463.00,1.32
8462.00,1.32
8461.00,1.32
8460.00,1.32
8459.00,1.32
8458.00,1.32
8457.00,1.32
8456.00,1.32
8455.00,1.31
8454.00,1.31
8453.00,1.31
8452.00,1.31
8451.00,1.31
8450.00,1.31
8449.00,1.31
8448.00,1.31
8447.00,1.30
8446.00,1.30
8445.00,1.30
8444.00,1.30
8443.00,1.30
8442.00,1.30
8441.00,1.30
8440.00,1.30
8439.00,1.30
8438.00,1.30
8437.00,1.30
8436.00,1.30
8435.00,1.30
8434.00,1.31
8433.00,1.31
8432.00,1.31
8431.00,1.31
8430.00,1.31
8429.00,1.31
8428.00,1.31
8427.00,1.31
8426.00,1.31
8425.00,1.31
8424.00,1.31
8423.00,1.31
8422.00,1.31
8421.00,1.31
8420.00,1.31
8419.00,1.31
8418.00,1.31
8417.00,1.31
8416.00,1.31
8415.00,1.31
8414.00,1.31
8413.00,1.31
8412.00,1.31
8411.00,1.32
8410.00,1.32
8409.00,1.32
8408.00,1.32
8407.00,1.32
8406.00,1.32
8405.00,1.32
8404.00,1.32
8403.00,1.32
8402.00,1.32
8401.00,1.32
8400.00,1.32
8399.00,1.32
8398.00,1.33
8397.00,1.33
8396.00,1.33
8395.00,1.33
8394.00,1.33
8393.00,1.33
8392.00,1.33
8391.00,1.33
8390.00,1.33
8389.00,1.33
8388.00,1.33
8387.00,1.34
8386.00,1.34
8385.00,1.34
8384.00,1.34
8383.00,1.34
8382.00,1.34
8381.00,1.34
8380.00,1.34
8379.00,1.35
8378.00,1.35
8377.00,1.35
8376.00,1.35
8375.00,1.35
8374.00,1.35
8373.00,1.35
8372.00,1.35
8371.00,1.35
8370.00,1.35
8369.00,1.35
8368.00,1.35
8367.00,1.35
8366.00,1.36
8365.00,1.36
8364.00,1.36
8363.00,1.36
8362.00,1.36
8361.00,1.36
8360.00,1.36
8359.00,1.37
8358.00,1.37
8357.00,1.37
8356.00,1.37
8355.00,1.37
8354.00,1.37
8353.00,1.37
8352.00,1.37
8351.00,1.37
8350.00,1.37
8349.00,1.37
8348.00,1.37
8347.00,1.37
8346.00,1.37
8345.00,1.37
8344.00,1.37
8343.00,1.37
8342.00,1.37
8341.00,1.37
8340.00,1.37
8339.00,1.37
8338.00,1.37
8337.00,1.37
8336.00,1.37
8335.00,1.37
8334.00,1.38
8333.00,1.38
8332.00,1.38
8331.00,1.38
8330.00,1.38
8329.00,1.38
8328.00,1.38
8327.00,1.38
8326.00,1.38
8325.00,1.38
8324.00,1.38
8323.00,1.38
8322.00,1.39
8321.00,1.39
8320.00,1.39
8319.00,1.39
8318.00,1.39
8317.00,1.39
8316.00,1.39
8315.00,1.39
8314.00,1.38
8313.00,1.38
8312.00,1.38
8311.00,1.38
8310.00,1.38
8309.00,1.38
8308.00,1.38
8307.00,1.38
8306.00,1.38
8305.00,1.38
8304.00,1.38
8303.00,1.38
8302.00,1.38
8301.00,1.38
8300.00,1.38
8299.00,1.38
8298.00,1.38
8297.00,1.38
8296.00,1.38
8295.00,1.38
8294.00,1.38
8293.00,1.38
8292.00,1.38
8291.00,1.38
8290.00,1.38
8289.00,1.38
8288.00,1.38
8287.00,1.38
8286.00,1.38
8285.00,1.38
8284.00,1.38
8283.00,1.37
8282.00,1.37
8281.00,1.37
8280.00,1.37
8279.00,1.37
8278.00,1.37
8277.00,1.37
8276.00,1.37
8275.00,1.37
8274.00,1.37
8273.00,1.37
8272.00,1.37
8271.00,1.37
8270.00,1.37
8269.00,1.38
8268.00,1.38
8267.00,1.38
8266.00,1.38
8265.00,1.38
8264.00,1.38
8263.00,1.39
8262.00,1.39
8261.00,1.39
8260.00,1.39
8259.00,1.39
8258.00,1.39
8257.00,1.39
8256.00,1.39
8255.00,1.40
8254.00,1.40
8253.00,1.40
8252.00,1.40
8251.00,1.40
8250.00,1.40
8249.00,1.40
8248.00,1.40
8247.00,1.40
8246.00,1.40
8245.00,1.40
8244.00,1.40
8243.00,1.40
8242.00,1.40
8241.00,1.40
8240.00,1.40
8239.00,1.40
8238.00,1.40
8237.00,1.41
8236.00,1.41
8235.00,1.41
8234.00,1.41
8233.00,1.41
8232.00,1.41
8231.00,1.41
8230.00,1.41
8229.00,1.41
8228.00,1.41
8227.00,1.42
8226.00,1.42
8225.00,1.42
8224.00,1.42
8223.00,1.42
8222.00,1.42
8221.00,1.42
8220.00,1.42
8219.00,1.42
8218.00,1.42
8217.00,1.42
8216.00,1.42
8215.00,1.42
8214.00,1.42
8213.00,1.42
8212.00,1.42
8211.00,1.42
8210.00,1.42
8209.00,1.42
8208.00,1.42
8207.00,1.42
8206.00,1.42
8205.00,1.42
8204.00,1.42
8203.00,1.43
8202.00,1.43
8201.00,1.43
8200.00,1.43
8199.00,1.43
8198.00,1.43
8197.00,1.43
8196.00,1.44
8195.00,1.44
8194.00,1.44
8193.00,1.44
8192.00,1.44
8191.00,1.44
8190.00,1.44
8189.00,1.44
8188.00,1.44
8187.00,1.45
8186.00,1.45
8185.00,1.45
8184.00,1.45
8183.00,1.45
8182.00,1.45
8181.00,1.45
8180.00,1.44
8179.00,1.44
8178.00,1.44
8177.00,1.44
8176.00,1.44
8175.00,1.44
8174.00,1.44
8173.00,1.44
8172.00,1.44
8171.00,1.44
8170.00,1.44
8169.00,1.44
8168.00,1.44
8167.00,1.44
8166.00,1.44
8165.00,1.44
8164.00,1.44
8163.00,1.44
8162.00,1.44
8161.00,1.44
8160.00,1.44
8159.00,1.44
8158.00,1.45
8157.00,1.45
8156.00,1.45
8155.00,1.45
8154.00,1.45
8153.00,1.45
8152.00,1.45
8151.00,1.45
8150.00,1.45
8149.00,1.46
8148.00,1.46
8147.00,1.46
8146.00,1.46
8145.00,1.46
8144.00,1.46
8143.00,1.46
8142.00,1.46
8141.00,1.46
8140.00,1.46
8139.00,1.46
8138.00,1.45
8137.00,1.45
8136.00,1.45
8135.00,1.45
8134.00,1.45
8133.00,1.45
8132.00,1.45
8131.00,1.45
8130.00,1.45
8129.00,1.45
8128.00,1.45
8127.00,1.45
8126.00,1.45
8125.00,1.45
8124.00,1.45
8123.00,1.45
8122.00,1.46
8121.00,1.46
8120.00,1.46
8119.00,1.46
8118.00,1.46
8117.00,1.46
8116.00,1.46
8115.00,1.46
8114.00,1.46
8113.00,1.46
8112.00,1.46
8111.00,1.46
8110.00,1.46
8109.00,1.46
8108.00,1.46
8107.00,1.46
8106.00,1.46
8105.00,1.46
8104.00,1.47
8103.00,1.47
8102.00,1.47
8101.00,1.47
8100.00,1.47
8099.00,1.47
8098.00,1.48
8097.00,1.48
8096.00,1.48
8095.00,1.48
8094.00,1.48
8093.00,1.48
8092.00,1.48
8091.00,1.48
8090.00,1.48
8089.00,1.48
8088.00,1.48
8087.00,1.48
8086.00,1.48
8085.00,1.48
8084.00,1.48
8083.00,1.48
8082.00,1.48
8081.00,1.48
8080.00,1.48
8079.00,1.48
8078.00,1.48
8077.00,1.48
8076.00,1.48
8075.00,1.48
8074.00,1.48
8073.00,1.48
8072.00,1.48
8071.00,1.48
8070.00,1.48
8069.00,1.48
8068.00,1.48
8067.00,1.48
8066.00,1.48
8065.00,1.49
8064.00,1.49
8063.00,1.49
8062.00,1.49
8061.00,1.49
8060.00,1.49
8059.00,1.49
8058.00,1.49
8057.00,1.49
8056.00,1.49
8055.00,1.49
8054.00,1.49
8053.00,1.49
8052.00,1.48
8051.00,1.48
8050.00,1.48
8049.00,1.48
8048.00,1.48
8047.00,1.48
8046.00,1.48
8045.00,1.48
8044.00,1.48
8043.00,1.49
8042.00,1.49
8041.00,1.49
8040.00,1.49
8039.00,1.49
8038.00,1.49
8037.00,1.49
8036.00,1.49
8035.00,1.49
8034.00,1.49
8033.00,1.49
8032.00,1.49
8031.00,1.49
8030.00,1.49
8029.00,1.49
8028.00,1.49
8027.00,1.49
8026.00,1.49
8025.00,1.49
8024.00,1.49
8023.00,1.50
8022.00,1.50
8021.00,1.50
8020.00,1.50
8019.00,1.50
8018.00,1.50
8017.00,1.50
8016.00,1.50
8015.00,1.50
8014.00,1.51
8013.00,1.51
8012.00,1.51
8011.00,1.51
8010.00,1.51
8009.00,1.51
8008.00,1.51
8007.00,1.51
8006.00,1.51
8005.00,1.51
8004.00,1.51
8003.00,1.51
8002.00,1.51
8001.00,1.51
8000.00,1.51
7999.00,1.51
7998.00,1.51
7997.00,1.51
7996.00,1.51
7995.00,1.50
7994.00,1.50
7993.00,1.50
7992.00,1.50
7991.00,1.50
7990.00,1.50
7989.00,1.50
7988.00,1.50
7987.00,1.50
7986.00,1.50
7985.00,1.50
7984.00,1.50
7983.00,1.50
7982.00,1.50
7981.00,1.50
7980.00,1.51
7979.00,1.51
7978.00,1.51
7977.00,1.51
7976.00,1.51
7975.00,1.51
7974.00,1.51
7973.00,1.51
7972.00,1.51
7971.00,1.51
7970.00,1.51
7969.00,1.51
7968.00,1.51
7967.00,1.51
7966.00,1.51
7965.00,1.51
7964.00,1.51
7963.00,1.51
7962.00,1.51
7961.00,1.51
7960.00,1.51
7959.00,1.51
7958.00,1.51
7957.00,1.52
7956.00,1.52
7955.00,1.52
7954.00,1.52
7953.00,1.52
7952.00,1.52
7951.00,1.52
7950.00,1.52
7949.00,1.52
7948.00,1.52
7947.00,1.52
7946.00,1.52
7945.00,1.52
7944.00,1.52
7943.00,1.52
7942.00,1.52
7941.00,1.53
7940.00,1.53
7939.00,1.53
7938.00,1.53
7937.00,1.53
7936.00,1.53
7935.00,1.53
7934.00,1.53
7933.00,1.53
7932.00,1.53
7931.00,1.53
7930.00,1.53
7929.00,1.53
7928.00,1.53
7927.00,1.53
7926.00,1.52
7925.00,1.52
7924.00,1.52
7923.00,1.52
7922.00,1.52
7921.00,1.52
7920.00,1.52
7919.00,1.52
7918.00,1.52
7917.00,1.52
7916.00,1.52
7915.00,1.52
7914.00,1.52
7913.00,1.52
7912.00,1.52
7911.00,1.52
7910.00,1.52
7909.00,1.52
7908.00,1.52
7907.00,1.52
7906.00,1.52
7905.00,1.52
7904.00,1.52
7903.00,1.52
7902.00,1.52
7901.00,1.52
7900.00,1.52
7899.00,1.53
7898.00,1.53
7897.00,1.53
7896.00,1.53
7895.00,1.53
7894.00,1.53
7893.00,1.53
7892.00,1.53
7891.00,1.53
7890.00,1.53
7889.00,1.53
7888.00,1.53
7887.00,1.53
7886.00,1.53
7885.00,1.53
7884.00,1.53
7883.00,1.53
7882.00,1.53
7881.00,1.53
7880.00,1.53
7879.00,1.53
7878.00,1.53
7877.00,1.53
7876.00,1.53
7875.00,1.53
7874.00,1.53
7873.00,1.53
7872.00,1.53
7871.00,1.53
7870.00,1.53
7869.00,1.53
7868.00,1.53
7867.00,1.53
7866.00,1.53
7865.00,1.53
7864.00,1.53
7863.00,1.53
7862.00,1.53
7861.00,1.53
7860.00,1.53
7859.00,1.53
7858.00,1.53
7857.00,1.53
7856.00,1.53
7855.00,1.53
7854.00,1.53
7853.00,1.54
7852.00,1.54
7851.00,1.54
7850.00,1.54
7849.00,1.54
7848.00,1.54
7847.00,1.54
7846.00,1.54
7845.00,1.54
7844.00,1.54
7843.00,1.54
7842.00,1.54
7841.00,1.54
7840.00,1.54
7839.00,1.54
7838.00,1.54
7837.00,1.54
7836.00,1.54
7835.00,1.54
7834.00,1.54
7833.00,1.54
7832.00,1.54
7831.00,1.54
7830.00,1.54
7829.00,1.54
7828.00,1.54
7827.00,1.54
7826.00,1.54
7825.00,1.54
7824.00,1.54
7823.00,1.54
7822.00,1.54
7821.00,1.54
7820.00,1.54
7819.00,1.54
7818.00,1.54
7817.00,1.54
7816.00,1.54
7815.00,1.54
7814.00,1.54
7813.00,1.54
7812.00,1.54
7811.00,1.54
7810.00,1.54
7809.00,1.54
7808.00,1.54
7807.00,1.54
7806.00,1.54
7805.00,1.54
7804.00,1.54
7803.00,1.54
7802.00,1.54
7801.00,1.54
7800.00,1.54
7799.00,1.54
7798.00,1.54
7797.00,1.54
7796.00,1.54
7795.00,1.54
7794.00,1.54
7793.00,1.54
7792.00,1.54
7791.00,1.54
7790.00,1.54
7789.00,1.54
7788.00,1.54
7787.00,1.54
7786.00,1.54
7785.00,1.54
7784.00,1.54
7783.00,1.54
7782.00,1.55
7781.00,1.55
7780.00,1.55
7779.00,1.55
7778.00,1.55
7777.00,1.55
7776.00,1.55
7775.00,1.55
7774.00,1.55
7773.00,1.55
7772.00,1.55
7771.00,1.55
7770.00,1.55
7769.00,1.55
7768.00,1.55
7767.00,1.55
7766.00,1.55
7765.00,1.55
7764.00,1.55
7763.00,1.55
7762.00,1.54
7761.00,1.54
7760.00,1.54
7759.00,1.54
7758.00,1.54
7757.00,1.54
7756.00,1.54
7755.00,1.54
7754.00,1.54
7753.00,1.54
7752.00,1.54
7751.00,1.54
7750.00,1.54
7749.00,1.54
7748.00,1.54
7747.00,1.54
7746.00,1.54
7745.00,1.54
7744.00,1.54
7743.00,1.55
7742.00,1.55
7741.00,1.55
7740.00,1.55
7739.00,1.55
7738.00,1.55
7737.00,1.55
7736.00,1.55
7735.00,1.55
7734.00,1.55
7733.00,1.55
7732.00,1.55
7731.00,1.55
7730.00,1.55
7729.00,1.55
7728.00,1.55
7727.00,1.55
7726.00,1.55
7725.00,1.55
7724.00,1.55
7723.00,1.55
7722.00,1.55
7721.00,1.55
7720.00,1.55
7719.00,1.55
7718.00,1.56
7717.00,1.56
7716.00,1.56
7715.00,1.56
7714.00,1.56
7713.00,1.56
7712.00,1.56
7711.00,1.56
7710.00,1.56
7709.00,1.56
7708.00,1.56
7707.00,1.56
7706.00,1.56
7705.00,1.56
7704.00,1.56
7703.00,1.56
7702.00,1.56
7701.00,1.56
7700.00,1.56
7699.00,1.56
7698.00,1.56
7697.00,1.55
7696.00,1.55
7695.00,1.55
7694.00,1.55
7693.00,1.55
7692.00,1.55
7691.00,1.55
7690.00,1.55
7689.00,1.55
7688.00,1.55
7687.00,1.55
7686.00,1.55
7685.00,1.55
7684.00,1.55
7683.00,1.55
7682.00,1.55
7681.00,1.55
7680.00,1.55
7679.00,1.55
7678.00,1.55
7677.00,1.55
7676.00,1.55
7675.00,1.55
7674.00,1.55
7673.00,1.55
7672.00,1.55
7671.00,1.55
7670.00,1.56
7669.00,1.56
7668.00,1.56
7667.00,1.56
7666.00,1.56
7665.00,1.56
7664.00,1.56
7663.00,1.56
7662.00,1.56
7661.00,1.56
7660.00,1.56
7659.00,1.56
7658.00,1.56
7657.00,1.56
7656.00,1.56
7655.00,1.56
7654.00,1.55
7653.00,1.55
7652.00,1.55
7651.00,1.55
7650.00,1.55
7649.00,1.55
7648.00,1.55
7647.00,1.55
7646.00,1.55
7645.00,1.55
7644.00,1.55
7643.00,1.55
7642.00,1.55
7641.00,1.55
7640.00,1.55
7639.00,1.55
7638.00,1.55
7637.00,1.55
7636.00,1.55
7635.00,1.55
7634.00,1.55
7633.00,1.55
7632.00,1.55
7631.00,1.56
7630.00,1.56
7629.00,1.56
7628.00,1.56
7627.00,1.56
7626.00,1.56
7625.00,1.56
7624.00,1.56
7623.00,1.56
7622.00,1.56
7621.00,1.55
7620.00,1.55
7619.00,1.55
7618.00,1.55
7617.00,1.55
7616.00,1.55
7615.00,1.55
7614.00,1.55
7613.00,1.55
7612.00,1.55
7611.00,1.55
7610.00,1.55
7609.00,1.55
7608.00,1.55
7607.00,1.55
7606.00,1.55
7605.00,1.55
7604.00,1.54
7603.00,1.54
7602.00,1.54
7601.00,1.54
7600.00,1.54
7599.00,1.54
7598.00,1.54
7597.00,1.54
7596.00,1.54
7595.00,1.54
7594.00,1.55
7593.00,1.55
7592.00,1.55
7591.00,1.55
7590.00,1.55
7589.00,1.55
7588.00,1.55
7587.00,1.55
7586.00,1.55
7585.00,1.55
7584.00,1.55
7583.00,1.55
7582.00,1.55
7581.00,1.55
7580.00,1.55
7579.00,1.55
7578.00,1.55
7577.00,1.55
7576.00,1.55
7575.00,1.55
7574.00,1.55
7573.00,1.55
7572.00,1.55
7571.00,1.55
7570.00,1.55
7569.00,1.55
7568.00,1.55
7567.00,1.55
7566.00,1.55
7565.00,1.55
7564.00,1.55
7563.00,1.55
7562.00,1.55
7561.00,1.55
7560.00,1.55
7559.00,1.55
7558.00,1.55
7557.00,1.55
7556.00,1.55
7555.00,1.55
7554.00,1.55
7553.00,1.55
7552.00,1.55
7551.00,1.55
7550.00,1.55
7549.00,1.55
7548.00,1.55
7547.00,1.54
7546.00,1.54
7545.00,1.54
7544.00,1.54
7543.00,1.54
7542.00,1.54
7541.00,1.54
7540.00,1.53
7539.00,1.53
7538.00,1.53
7537.00,1.53
7536.00,1.53
7535.00,1.53
7534.00,1.53
7533.00,1.53
7532.00,1.53
7531.00,1.53
7530.00,1.53
7529.00,1.53
7528.00,1.53
7527.00,1.53
7526.00,1.53
7525.00,1.53
7524.00,1.54
7523.00,1.54
7522.00,1.54
7521.00,1.54
7520.00,1.54
7519.00,1.54
7518.00,1.54
7517.00,1.54
7516.00,1.54
7515.00,1.54
7514.00,1.54
7513.00,1.54
7512.00,1.54
7511.00,1.54
7510.00,1.54
7509.00,1.54
7508.00,1.54
7507.00,1.54
7506.00,1.53
7505.00,1.53
7504.00,1.53
7503.00,1.53
7502.00,1.53
7501.00,1.53
7500.00,1.53
7499.00,1.53
7498.00,1.53
7497.00,1.53
7496.00,1.53
7495.00,1.52
7494.00,1.52
7493.00,1.52
7492.00,1.52
7491.00,1.52
7490.00,1.52
7489.00,1.52
7488.00,1.52
7487.00,1.52
7486.00,1.52
7485.00,1.51
7484.00,1.51
7483.00,1.51
7482.00,1.51
7481.00,1.51
7480.00,1.51
7479.00,1.51
7478.00,1.50
7477.00,1.50
7476.00,1.50
7475.00,1.50
7474.00,1.50
7473.00,1.50
7472.00,1.50
7471.00,1.50
7470.00,1.50
7469.00,1.50
7468.00,1.50
7467.00,1.50
7466.00,1.50
7465.00,1.50
7464.00,1.50
7463.00,1.50
7462.00,1.49
7461.00,1.49
7460.00,1.49
7459.00,1.49
7458.00,1.49
7457.00,1.49
7456.00,1.49
7455.00,1.49
7454.00,1.49
7453.00,1.49
7452.00,1.49
7451.00,1.49
7450.00,1.48
7449.00,1.48
7448.00,1.48
7447.00,1.48
7446.00,1.48
7445.00,1.48
7444.00,1.48
7443.00,1.48
7442.00,1.48
7441.00,1.48
7440.00,1.48
7439.00,1.47
7438.00,1.47
7437.00,1.47
7436.00,1.47
7435.00,1.47
7434.00,1.47
7433.00,1.47
7432.00,1.47
7431.00,1.47
7430.00,1.47
7429.00,1.47
7428.00,1.47
7427.00,1.47
7426.00,1.47
7425.00,1.47
7424.00,1.47
7423.00,1.47
7422.00,1.47
7421.00,1.47
7420.00,1.47
7419.00,1.47
7418.00,1.47
7417.00,1.47
7416.00,1.47
7415.00,1.47
7414.00,1.47
7413.00,1.47
7412.00,1.46
7411.00,1.46
7410.00,1.46
7409.00,1.46
7408.00,1.46
7407.00,1.45
7406.00,1.45
7405.00,1.45
7404.00,1.45
7403.00,1.44
7402.00,1.44
7401.00,1.44
7400.00,1.44
7399.00,1.44
7398.00,1.44
7397.00,1.43
7396.00,1.43
7395.00,1.43
7394.00,1.43
7393.00,1.43
7392.00,1.43
7391.00,1.43
7390.00,1.43
7389.00,1.43
7388.00,1.43
7387.00,1.43
7386.00,1.43
7385.00,1.43
7384.00,1.42
7383.00,1.42
7382.00,1.42
7381.00,1.42
7380.00,1.42
7379.00,1.42
7378.00,1.42
7377.00,1.42
7376.00,1.42
7375.00,1.42
7374.00,1.42
7373.00,1.42
7372.00,1.41
7371.00,1.41
7370.00,1.41
7369.00,1.41
7368.00,1.41
7367.00,1.41
7366.00,1.41
7365.00,1.41
7364.00,1.41
7363.00,1.41
7362.00,1.41
7361.00,1.41
7360.00,1.41
7359.00,1.41
7358.00,1.41
7357.00,1.41
7356.00,1.41
7355.00,1.41
7354.00,1.41
7353.00,1.41
7352.00,1.41
7351.00,1.41
7350.00,1.41
7349.00,1.41
7348.00,1.41
7347.00,1.40
7346.00,1.40
7345.00,1.40
7344.00,1.40
7343.00,1.40
7342.00,1.40
7341.00,1.40
7340.00,1.40
7339.00,1.40
7338.00,1.40
7337.00,1.40
7336.00,1.40
7335.00,1.40
7334.00,1.40
7333.00,1.40
7332.00,1.40
7331.00,1.40
7330.00,1.40
7329.00,1.40
7328.00,1.40
7327.00,1.39
7326.00,1.39
7325.00,1.39
7324.00,1.39
7323.00,1.39
7322.00,1.39
7321.00,1.39
7320.00,1.39
7319.00,1.39
7318.00,1.39
7317.00,1.39
7316.00,1.38
7315.00,1.38
7314.00,1.38
7313.00,1.38
7312.00,1.38
7311.00,1.38
7310.00,1.38
7309.00,1.37
7308.00,1.37
7307.00,1.37
7306.00,1.37
7305.00,1.37
7304.00,1.37
7303.00,1.36
7302.00,1.36
7301.00,1.36
7300.00,1.36
7299.00,1.36
7298.00,1.36
7297.00,1.36
7296.00,1.36
7295.00,1.36
7294.00,1.36
7293.00,1.35
7292.00,1.35
7291.00,1.35
7290.00,1.35
7289.00,1.35
7288.00,1.35
7287.00,1.35
7286.00,1.34
7285.00,1.34
7284.00,1.34
7283.00,1.34
7282.00,1.34
7281.00,1.33
7280.00,1.33
7279.00,1.33
7278.00,1.33
7277.00,1.33
7276.00,1.32
7275.00,1.32
7274.00,1.32
7273.00,1.32
7272.00,1.32
7271.00,1.31
7270.00,1.31
7269.00,1.31
7268.00,1.31
7267.00,1.31
7266.00,1.31
7265.00,1.31
7264.00,1.31
7263.00,1.30
7262.00,1.30
7261.00,1.30
7260.00,1.30
7259.00,1.30
7258.00,1.30
7257.00,1.30
7256.00,1.29
7255.00,1.29
7254.00,1.29
7253.00,1.29
7252.00,1.29
7251.00,1.29
7250.00,1.28
7249.00,1.28
7248.00,1.28
7247.00,1.28
7246.00,1.27
7245.00,1.27
7244.00,1.27
7243.00,1.26
7242.00,1.26
7241.00,1.26
7240.00,1.25
7239.00,1.25
7238.00,1.24
7237.00,1.24
7236.00,1.24
7235.00,1.23
7234.00,1.23
7233.00,1.22
7232.00,1.22
7231.00,1.22
7230.00,1.21
7229.00,1.21
7228.00,1.20
7227.00,1.20
7226.00,1.19
7225.00,1.19
7224.00,1.18
7223.00,1.18
7222.00,1.17
7221.00,1.17
7220.00,1.17
7219.00,1.16
7218.00,1.16
7217.00,1.15
7216.00,1.15
7215.00,1.14
7214.00,1.14
7213.00,1.13
7212.00,1.13
7211.00,1.12
7210.00,1.12
7209.00,1.11
7208.00,1.11
7207.00,1.10
7206.00,1.10
7205.00,1.09
7204.00,1.09
7203.00,1.08
7202.00,1.08
7201.00,1.08
7200.00,1.07
7199.00,1.07
7198.00,1.06
7197.00,1.06
7196.00,1.06
7195.00,1.05
7194.00,1.05
7193.00,1.04
7192.00,1.04
7191.00,1.04
7190.00,1.03
7189.00,1.03
7188.00,1.02
7187.00,1.02
7186.00,1.01
7185.00,1.01
7184.00,1.01
7183.00,1.00
7182.00,1.00
7181.00,0.99
7180.00,0.99
7179.00,0.99
7178.00,0.98
7177.00,0.98
7176.00,0.98
7175.00,0.97
7174.00,0.97
7173.00,0.97
7172.00,0.96
7171.00,0.96
7170.00,0.96
7169.00,0.95
7168.00,0.95
7167.00,0.95
7166.00,0.94
7165.00,0.94
7164.00,0.94
7163.00,0.93
7162.00,0.93
7161.00,0.93
7160.00,0.93
7159.00,0.92
7158.00,0.92
7157.00,0.92
7156.00,0.91
7155.00,0.91
7154.00,0.91
7153.00,0.91
7152.00,0.90
7151.00,0.90
7150.00,0.90
7149.00,0.89
7148.00,0.89
7147.00,0.89
7146.00,0.88
7145.00,0.88
7144.00,0.88
7143.00,0.87
7142.00,0.87
7141.00,0.87
7140.00,0.86
7139.00,0.86
7138.00,0.86
7137.00,0.85
7136.00,0.85
7135.00,0.85
7134.00,0.84
7133.00,0.84
7132.00,0.84
7131.00,0.83
7130.00,0.83
7129.00,0.82
7128.00,0.82
7127.00,0.82
7126.00,0.81
7125.00,0.81
7124.00,0.80
7123.00,0.80
7122.00,0.80
7121.00,0.79
7120.00,0.79
7119.00,0.79
7118.00,0.78
7117.00,0.78
7116.00,0.78
7115.00,0.78
7114.00,0.77
7113.00,0.77
7112.00,0.77
7111.00,0.76
7110.00,0.76
7109.00,0.76
7108.00,0.76
7107.00,0.75
7106.00,0.75
7105.00,0.75
7104.00,0.74
7103.00,0.74
7102.00,0.74
7101.00,0.73
7100.00,0.73
7099.00,0.73
7098.00,0.72
7097.00,0.72
7096.00,0.72
7095.00,0.72
7094.00,0.71
7093.00,0.71
7092.00,0.71
7091.00,0.71
7090.00,0.71
7089.00,0.70
7088.00,0.70
7087.00,0.70
7086.00,0.70
7085.00,0.70
7084.00,0.70
7083.00,0.69
7082.00,0.69
7081.00,0.69
7080.00,0.69
7079.00,0.69
7078.00,0.69
7077.00,0.68
7076.00,0.68
7075.00,0.68
7074.00,0.68
7073.00,0.68
7072.00,0.67
7071.00,0.67
7070.00,0.67
7069.00,0.67
7068.00,0.67
7067.00,0.67
7066.00,0.67
7065.00,0.66
7064.00,0.66
7063.00,0.66
7062.00,0.66
7061.00,0.66
7060.00,0.66
7059.00,0.66
7058.00,0.66
7057.00,0.66
7056.00,0.66
7055.00,0.66
7054.00,0.65
7053.00,0.65
7052.00,0.65
7051.00,0.65
7050.00,0.65
7049.00,0.65
7048.00,0.65
7047.00,0.65
7046.00,0.65
7045.00,0.65
7044.00,0.64
7043.00,0.64
7042.00,0.64
7041.00,0.64
7040.00,0.64
7039.00,0.64
7038.00,0.64
7037.00,0.64
7036.00,0.64
7035.00,0.63
7034.00,0.63
7033.00,0.63
7032.00,0.63
7031.00,0.63
7030.00,0.63
7029.00,0.62
7028.00,0.62
7027.00,0.62
7026.00,0.62
7025.00,0.62
7024.00,0.62
7023.00,0.61
7022.00,0.61
7021.00,0.61
7020.00,0.61
7019.00,0.61
7018.00,0.61
7017.00,0.61
7016.00,0.61
7015.00,0.60
7014.00,0.60
7013.00,0.60
7012.00,0.60
7011.00,0.60
7010.00,0.60
7009.00,0.60
7008.00,0.60
7007.00,0.60
7006.00,0.60
7005.00,0.60
7004.00,0.60
7003.00,0.60
7002.00,0.60
7001.00,0.59
7000.00,0.59
6999.00,0.59
6998.00,0.59
6997.00,0.59
6996.00,0.59
6995.00,0.59
6994.00,0.59
6993.00,0.59
6992.00,0.59
6991.00,0.59
6990.00,0.59
6989.00,0.59
6988.00,0.58
6987.00,0.58
6986.00,0.58
6985.00,0.58
6984.00,0.58
6983.00,0.58
6982.00,0.58
6981.00,0.58
6980.00,0.58
6979.00,0.58
6978.00,0.58
6977.00,0.58
6976.00,0.58
6975.00,0.58
6974.00,0.58
6973.00,0.58
6972.00,0.58
6971.00,0.58
6970.00,0.57
6969.00,0.57
6968.00,0.57
6967.00,0.57
6966.00,0.57
6965.00,0.57
6964.00,0.57
6963.00,0.57
6962.00,0.57
6961.00,0.57
6960.00,0.57
6959.00,0.57
6958.00,0.57
6957.00,0.57
6956.00,0.57
6955.00,0.57
6954.00,0.57
6953.00,0.57
6952.00,0.57
6951.00,0.57
6950.00,0.57
6949.00,0.57
6948.00,0.57
6947.00,0.57
6946.00,0.57
6945.00,0.57
6944.00,0.57
6943.00,0.57
6942.00,0.57
6941.00,0.57
6940.00,0.57
6939.00,0.57
6938.00,0.57
6937.00,0.57
6936.00,0.57
6935.00,0.57
6934.00,0.57
6933.00,0.57
6932.00,0.57
6931.00,0.57
6930.00,0.57
6929.00,0.57
6928.00,0.57
6927.00,0.56
6926.00,0.56
6925.00,0.56
6924.00,0.56
6923.00,0.56
6922.00,0.56
6921.00,0.56
6920.00,0.56
6919.00,0.56
6918.00,0.56
6917.00,0.56
6916.00,0.56
6915.00,0.56
6914.00,0.55
6913.00,0.55
6912.00,0.55
6911.00,0.55
6910.00,0.55
6909.00,0.55
6908.00,0.55
6907.00,0.55
6906.00,0.55
6905.00,0.55
6904.00,0.55
6903.00,0.55
6902.00,0.55
6901.00,0.55
6900.00,0.55
6899.00,0.55
6898.00,0.55
6897.00,0.55
6896.00,0.55
6895.00,0.55
6894.00,0.55
6893.00,0.55
6892.00,0.55
6891.00,0.55
6890.00,0.55
6889.00,0.55
6888.00,0.55
6887.00,0.55
6886.00,0.55
6885.00,0.55
6884.00,0.55
6883.00,0.55
6882.00,0.55
6881.00,0.55
6880.00,0.55
6879.00,0.55
6878.00,0.55
6877.00,0.55
6876.00,0.55
6875.00,0.55
6874.00,0.55
6873.00,0.55
6872.00,0.55
6871.00,0.56
6870.00,0.56
6869.00,0.56
6868.00,0.56
6867.00,0.56
6866.00,0.55
6865.00,0.55
6864.00,0.55
6863.00,0.55
6862.00,0.55
6861.00,0.55
6860.00,0.55
6859.00,0.55
6858.00,0.55
6857.00,0.55
6856.00,0.55
6855.00,0.55
6854.00,0.55
6853.00,0.55
6852.00,0.55
6851.00,0.55
6850.00,0.55
6849.00,0.55
6848.00,0.55
6847.00,0.55
6846.00,0.55
6845.00,0.55
6844.00,0.55
6843.00,0.55
6842.00,0.55
6841.00,0.55
6840.00,0.55
6839.00,0.55
6838.00,0.56
6837.00,0.56
6836.00,0.56
6835.00,0.56
6834.00,0.56
6833.00,0.56
6832.00,0.56
6831.00,0.56
6830.00,0.56
6829.00,0.56
6828.00,0.56
6827.00,0.56
6826.00,0.56
6825.00,0.56
6824.00,0.56
6823.00,0.56
6822.00,0.56
6821.00,0.56
6820.00,0.56
6819.00,0.56
6818.00,0.56
6817.00,0.56
6816.00,0.56
6815.00,0.56
6814.00,0.56
6813.00,0.56
6812.00,0.56
6811.00,0.56
6810.00,0.56
6809.00,0.56
6808.00,0.56
6807.00,0.57
6806.00,0.57
6805.00,0.57
6804.00,0.57
6803.00,0.57
6802.00,0.57
6801.00,0.57
6800.00,0.57
6799.00,0.57
6798.00,0.57
6797.00,0.58
6796.00,0.58
6795.00,0.58
6794.00,0.58
6793.00,0.58
6792.00,0.58
6791.00,0.58
6790.00,0.58
6789.00,0.58
6788.00,0.58
6787.00,0.58
6786.00,0.58
6785.00,0.58
6784.00,0.58
6783.00,0.58
6782.00,0.58
6781.00,0.58
6780.00,0.58
6779.00,0.58
6778.00,0.59
6777.00,0.59
6776.00,0.59
6775.00,0.59
6774.00,0.59
6773.00,0.59
6772.00,0.59
6771.00,0.59
6770.00,0.59
6769.00,0.59
6768.00,0.59
6767.00,0.59
6766.00,0.59
6765.00,0.59
6764.00,0.59
6763.00,0.59
6762.00,0.59
6761.00,0.59
6760.00,0.59
6759.00,0.60
6758.00,0.60
6757.00,0.60
6756.00,0.60
6755.00,0.60
6754.00,0.60
6753.00,0.60
6752.00,0.60
6751.00,0.60
6750.00,0.60
6749.00,0.60
6748.00,0.60
6747.00,0.60
6746.00,0.60
6745.00,0.60
6744.00,0.60
6743.00,0.60
6742.00,0.60
6741.00,0.61
6740.00,0.61
6739.00,0.61
6738.00,0.61
6737.00,0.61
6736.00,0.61
6735.00,0.61
6734.00,0.61
6733.00,0.61
6732.00,0.61
6731.00,0.62
6730.00,0.62
6729.00,0.62
6728.00,0.62
6727.00,0.62
6726.00,0.62
6725.00,0.62
6724.00,0.62
6723.00,0.62
6722.00,0.62
6721.00,0.62
6720.00,0.62
6719.00,0.62
6718.00,0.62
6717.00,0.63
6716.00,0.63
6715.00,0.63
6714.00,0.63
6713.00,0.63
6712.00,0.63
6711.00,0.63
6710.00,0.63
6709.00,0.64
6708.00,0.64
6707.00,0.64
6706.00,0.64
6705.00,0.64
6704.00,0.64
6703.00,0.64
6702.00,0.64
6701.00,0.64
6700.00,0.64
6699.00,0.64
6698.00,0.64
6697.00,0.65
6696.00,0.65
6695.00,0.65
6694.00,0.65
6693.00,0.65
6692.00,0.65
6691.00,0.65
6690.00,0.65
6689.00,0.65
6688.00,0.65
6687.00,0.65
6686.00,0.65
6685.00,0.65
6684.00,0.66
6683.00,0.66
6682.00,0.66
6681.00,0.66
6680.00,0.66
6679.00,0.66
6678.00,0.66
6677.00,0.66
6676.00,0.66
6675.00,0.66
6674.00,0.67
6673.00,0.67
6672.00,0.67
6671.00,0.67
6670.00,0.67
6669.00,0.67
6668.00,0.67
6667.00,0.67
6666.00,0.68
6665.00,0.68
6664.00,0.68
6663.00,0.68
6662.00,0.68
6661.00,0.68
6660.00,0.68
6659.00,0.68
6658.00,0.69
6657.00,0.69
6656.00,0.69
6655.00,0.69
6654.00,0.69
6653.00,0.69
6652.00,0.69
6651.00,0.70
6650.00,0.70
6649.00,0.70
6648.00,0.70
6647.00,0.70
6646.00,0.70
6645.00,0.70
6644.00,0.70
6643.00,0.70
6642.00,0.70
6641.00,0.70
6640.00,0.70
6639.00,0.71
6638.00,0.71
6637.00,0.71
6636.00,0.71
6635.00,0.71
6634.00,0.71
6633.00,0.71
6632.00,0.71
6631.00,0.71
6630.00,0.72
6629.00,0.72
6628.00,0.72
6627.00,0.72
6626.00,0.72
6625.00,0.72
6624.00,0.72
6623.00,0.72
6622.00,0.73
6621.00,0.73
6620.00,0.73
6619.00,0.73
6618.00,0.73
6617.00,0.73
6616.00,0.73
6615.00,0.73
6614.00,0.73
6613.00,0.73
6612.00,0.73
6611.00,0.73
6610.00,0.74
6609.00,0.74
6608.00,0.74
6607.00,0.74
6606.00,0.74
6605.00,0.74
6604.00,0.74
6603.00,0.74
6602.00,0.74
6601.00,0.74
6600.00,0.74
6599.00,0.74
6598.00,0.74
6597.00,0.75
6596.00,0.75
6595.00,0.75
6594.00,0.75
6593.00,0.75
6592.00,0.75
6591.00,0.75
6590.00,0.75
6589.00,0.75
6588.00,0.75
6587.00,0.75
6586.00,0.75
6585.00,0.75
6584.00,0.75
6583.00,0.76
6582.00,0.76
6581.00,0.76
6580.00,0.76
6579.00,0.76
6578.00,0.76
6577.00,0.76
6576.00,0.77
6575.00,0.77
6574.00,0.77
6573.00,0.77
6572.00,0.77
6571.00,0.78
6570.00,0.78
6569.00,0.78
6568.00,0.78
6567.00,0.78
6566.00,0.79
6565.00,0.79
6564.00,0.79
6563.00,0.79
6562.00,0.79
6561.00,0.79
6560.00,0.79
6559.00,0.79
6558.00,0.79
6557.00,0.79
6556.00,0.79
6555.00,0.79
6554.00,0.79
6553.00,0.80
6552.00,0.80
6551.00,0.80
6550.00,0.80
6549.00,0.80
6548.00,0.80
6547.00,0.80
6546.00,0.80
6545.00,0.80
6544.00,0.80
6543.00,0.80
6542.00,0.80
6541.00,0.81
6540.00,0.81
6539.00,0.81
6538.00,0.81
6537.00,0.81
6536.00,0.81
6535.00,0.82
6534.00,0.82
6533.00,0.82
6532.00,0.82
6531.00,0.82
6530.00,0.82
6529.00,0.83
6528.00,0.83
6527.00,0.83
6526.00,0.83
6525.00,0.83
6524.00,0.83
6523.00,0.83
6522.00,0.83
6521.00,0.83
6520.00,0.83
6519.00,0.84
6518.00,0.84
6517.00,0.84
6516.00,0.84
6515.00,0.84
6514.00,0.84
6513.00,0.84
6512.00,0.84
6511.00,0.84
6510.00,0.84
6509.00,0.84
6508.00,0.84
6507.00,0.84
6506.00,0.85
6505.00,0.85
6504.00,0.85
6503.00,0.85
6502.00,0.85
6501.00,0.85
6500.00,0.85
6499.00,0.85
6498.00,0.86
6497.00,0.86
6496.00,0.86
6495.00,0.86
6494.00,0.86
6493.00,0.86
6492.00,0.86
6491.00,0.86
6490.00,0.86
6489.00,0.86
6488.00,0.86
6487.00,0.86
6486.00,0.86
6485.00,0.86
6484.00,0.86
6483.00,0.86
6482.00,0.86
6481.00,0.86
6480.00,0.86
6479.00,0.86
6478.00,0.86
6477.00,0.86
6476.00,0.86
6475.00,0.86
6474.00,0.86
6473.00,0.86
6472.00,0.86
6471.00,0.87
6470.00,0.87
6469.00,0.87
6468.00,0.87
6467.00,0.87
6466.00,0.87
6465.00,0.87
6464.00,0.87
6463.00,0.87
6462.00,0.87
6461.00,0.87
6460.00,0.87
6459.00,0.87
6458.00,0.88
6457.00,0.88
6456.00,0.88
6455.00,0.88
6454.00,0.88
6453.00,0.88
6452.00,0.88
6451.00,0.88
6450.00,0.88
6449.00,0.88
6448.00,0.89
6447.00,0.89
6446.00,0.89
6445.00,0.89
6444.00,0.89
6443.00,0.89
6442.00,0.89
6441.00,0.89
6440.00,0.89
6439.00,0.89
6438.00,0.89
6437.00,0.89
6436.00,0.89
6435.00,0.89
6434.00,0.89
6433.00,0.89
6432.00,0.89
6431.00,0.89
6430.00,0.89
6429.00,0.90
6428.00,0.90
6427.00,0.90
6426.00,0.90
6425.00,0.90
6424.00,0.90
6423.00,0.90
6422.00,0.90
6421.00,0.90
6420.00,0.91
6419.00,0.91
6418.00,0.91
6417.00,0.91
6416.00,0.91
6415.00,0.91
6414.00,0.91
6413.00,0.91
6412.00,0.91
6411.00,0.92
6410.00,0.92
6409.00,0.92
6408.00,0.92
6407.00,0.92
6406.00,0.92
6405.00,0.92
6404.00,0.92
6403.00,0.92
6402.00,0.92
6401.00,0.92
6400.00,0.92
6399.00,0.92
6398.00,0.92
6397.00,0.92
6396.00,0.92
6395.00,0.93
6394.00,0.93
6393.00,0.93
6392.00,0.93
6391.00,0.93
6390.00,0.93
6389.00,0.93
6388.00,0.93
6387.00,0.93
6386.00,0.93
6385.00,0.93
6384.00,0.93
6383.00,0.94
6382.00,0.94
6381.00,0.94
6380.00,0.94
6379.00,0.94
6378.00,0.94
6377.00,0.94
6376.00,0.94
6375.00,0.94
6374.00,0.94
6373.00,0.95
6372.00,0.95
6371.00,0.95
6370.00,0.95
6369.00,0.95
6368.00,0.95
6367.00,0.95
6366.00,0.95
6365.00,0.95
6364.00,0.96
6363.00,0.96
6362.00,0.96
6361.00,0.96
6360.00,0.96
6359.00,0.96
6358.00,0.96
6357.00,0.96
6356.00,0.96
6355.00,0.96
6354.00,0.96
6353.00,0.96
6352.00,0.96
6351.00,0.96
6350.00,0.96
6349.00,0.96
6348.00,0.97
6347.00,0.97
6346.00,0.97
6345.00,0.97
6344.00,0.97
6343.00,0.97
6342.00,0.97
6341.00,0.97
6340.00,0.97
6339.00,0.98
6338.00,0.98
6337.00,0.98
6336.00,0.98
6335.00,0.98
6334.00,0.98
6333.00,0.98
6332.00,0.98
6331.00,0.99
6330.00,0.99
6329.00,0.99
6328.00,0.99
6327.00,0.99
6326.00,0.99
6325.00,0.99
6324.00,1.00
6323.00,1.00
6322.00,1.00
6321.00,1.00
6320.00,1.00
6319.00,1.00
6318.00,1.00
6317.00,1.01
6316.00,1.01
6315.00,1.01
6314.00,1.01
6313.00,1.01
6312.00,1.01
6311.00,1.01
6310.00,1.01
6309.00,1.02
6308.00,1.02
6307.00,1.02
6306.00,1.02
6305.00,1.02
6304.00,1.02
6303.00,1.02
6302.00,1.02
6301.00,1.02
6300.00,1.03
6299.00,1.03
6298.00,1.03
6297.00,1.03
6296.00,1.03
6295.00,1.03
6294.00,1.03
6293.00,1.03
6292.00,1.04
6291.00,1.04
6290.00,1.04
6289.00,1.04
6288.00,1.04
6287.00,1.04
6286.00,1.04
6285.00,1.04
6284.00,1.05
6283.00,1.05
6282.00,1.05
6281.00,1.05
6280.00,1.05
6279.00,1.05
6278.00,1.06
6277.00,1.06
6276.00,1.06
6275.00,1.06
6274.00,1.06
6273.00,1.06
6272.00,1.06
6271.00,1.07
6270.00,1.07
6269.00,1.07
6268.00,1.07
6267.00,1.07
6266.00,1.07
6265.00,1.07
6264.00,1.07
6263.00,1.08
6262.00,1.08
6261.00,1.08
6260.00,1.08
6259.00,1.08
6258.00,1.08
6257.00,1.08
6256.00,1.09
6255.00,1.09
6254.00,1.09
6253.00,1.09
6252.00,1.09
6251.00,1.10
6250.00,1.10
6249.00,1.10
6248.00,1.10
6247.00,1.10
6246.00,1.10
6245.00,1.11
6244.00,1.11
6243.00,1.11
6242.00,1.11
6241.00,1.11
6240.00,1.11
6239.00,1.11
6238.00,1.11
6237.00,1.12
6236.00,1.12
6235.00,1.12
6234.00,1.12
6233.00,1.12
6232.00,1.12
6231.00,1.12
6230.00,1.12
6229.00,1.13
6228.00,1.13
6227.00,1.13
6226.00,1.13
6225.00,1.13
6224.00,1.13
6223.00,1.13
6222.00,1.14
6221.00,1.14
6220.00,1.14
6219.00,1.14
6218.00,1.14
6217.00,1.14
6216.00,1.15
6215.00,1.15
6214.00,1.15
6213.00,1.15
6212.00,1.15
6211.00,1.16
6210.00,1.16
6209.00,1.16
6208.00,1.16
6207.00,1.16
6206.00,1.16
6205.00,1.17
6204.00,1.17
6203.00,1.17
6202.00,1.17
6201.00,1.17
6200.00,1.17
6199.00,1.18
6198.00,1.18
6197.00,1.18
6196.00,1.18
6195.00,1.18
6194.00,1.19
6193.00,1.19
6192.00,1.19
6191.00,1.19
6190.00,1.19
6189.00,1.19
6188.00,1.20
6187.00,1.20
6186.00,1.20
6185.00,1.20
6184.00,1.20
6183.00,1.21
6182.00,1.21
6181.00,1.21
6180.00,1.21
6179.00,1.21
6178.00,1.21
6177.00,1.22
6176.00,1.22
6175.00,1.22
6174.00,1.22
6173.00,1.22
6172.00,1.22
6171.00,1.22
6170.00,1.22
6169.00,1.23
6168.00,1.23
6167.00,1.23
6166.00,1.23
6165.00,1.23
6164.00,1.23
6163.00,1.23
6162.00,1.24
6161.00,1.24
6160.00,1.24
6159.00,1.24
6158.00,1.24
6157.00,1.25
6156.00,1.25
6155.00,1.25
6154.00,1.25
6153.00,1.26
6152.00,1.26
6151.00,1.26
6150.00,1.26
6149.00,1.26
6148.00,1.27
6147.00,1.27
6146.00,1.27
6145.00,1.27
6144.00,1.28
6143.00,1.28
6142.00,1.28
6141.00,1.28
6140.00,1.29
6139.00,1.29
6138.00,1.29
6137.00,1.29
6136.00,1.30
6135.00,1.30
6134.00,1.30
6133.00,1.30
6132.00,1.30
6131.00,1.30
6130.00,1.31
6129.00,1.31
6128.00,1.31
6127.00,1.31
6126.00,1.31
6125.00,1.31
6124.00,1.31
6123.00,1.32
6122.00,1.32
6121.00,1.32
6120.00,1.32
6119.00,1.32
6118.00,1.32
6117.00,1.32
6116.00,1.32
6115.00,1.33
6114.00,1.33
6113.00,1.33
6112.00,1.33
6111.00,1.33
6110.00,1.33
6109.00,1.34
6108.00,1.34
6107.00,1.34
6106.00,1.34
6105.00,1.34
6104.00,1.35
6103.00,1.35
6102.00,1.35
6101.00,1.35
6100.00,1.35
6099.00,1.35
6098.00,1.36
6097.00,1.36
6096.00,1.36
6095.00,1.36
6094.00,1.36
6093.00,1.36
6092.00,1.37
6091.00,1.37
6090.00,1.37
6089.00,1.37
6088.00,1.37
6087.00,1.38
6086.00,1.38
6085.00,1.38
6084.00,1.38
6083.00,1.38
6082.00,1.39
6081.00,1.39
6080.00,1.39
6079.00,1.39
6078.00,1.39
6077.00,1.40
6076.00,1.40
6075.00,1.40
6074.00,1.40
6073.00,1.40
6072.00,1.40
6071.00,1.40
6070.00,1.41
6069.00,1.41
6068.00,1.41
6067.00,1.41
6066.00,1.41
6065.00,1.41
6064.00,1.41
6063.00,1.41
6062.00,1.41
6061.00,1.42
6060.00,1.42
6059.00,1.42
6058.00,1.42
6057.00,1.42
6056.00,1.42
6055.00,1.42
6054.00,1.42
6053.00,1.42
6052.00,1.43
6051.00,1.43
6050.00,1.43
6049.00,1.43
6048.00,1.43
6047.00,1.43
6046.00,1.43
6045.00,1.43
6044.00,1.43
6043.00,1.43
6042.00,1.43
6041.00,1.43
6040.00,1.43
6039.00,1.44
6038.00,1.44
6037.00,1.44
6036.00,1.44
6035.00,1.44
6034.00,1.44
6033.00,1.44
6032.00,1.44
6031.00,1.44
6030.00,1.45
6029.00,1.45
6028.00,1.45
6027.00,1.45
6026.00,1.45
6025.00,1.45
6024.00,1.45
6023.00,1.45
6022.00,1.45
6021.00,1.45
6020.00,1.45
6019.00,1.45
6018.00,1.45
6017.00,1.45
6016.00,1.45
6015.00,1.45
6014.00,1.45
6013.00,1.45
6012.00,1.45
6011.00,1.45
6010.00,1.45
6009.00,1.45
6008.00,1.45
6007.00,1.45
6006.00,1.45
6005.00,1.44
6004.00,1.44
6003.00,1.44
6002.00,1.44
6001.00,1.44
6000.00,1.44
5999.00,1.44
5998.00,1.44
5997.00,1.43
5996.00,1.43
5995.00,1.43
5994.00,1.43
5993.00,1.43
5992.00,1.43
5991.00,1.42
5990.00,1.42
5989.00,1.42
5988.00,1.42
5987.00,1.41
5986.00,1.41
5985.00,1.41
5984.00,1.40
5983.00,1.40
5982.00,1.40
5981.00,1.39
5980.00,1.39
5979.00,1.38
5978.00,1.38
5977.00,1.37
5976.00,1.37
5975.00,1.36
5974.00,1.36
5973.00,1.35
5972.00,1.34
5971.00,1.34
5970.00,1.33
5969.00,1.32
5968.00,1.31
5967.00,1.30
5966.00,1.30
5965.00,1.29
5964.00,1.28
5963.00,1.27
5962.00,1.26
5961.00,1.25
5960.00,1.24
5959.00,1.23
5958.00,1.23
5957.00,1.22
5956.00,1.21
5955.00,1.20
5954.00,1.19
5953.00,1.19
5952.00,1.18
5951.00,1.17
5950.00,1.16
5949.00,1.16
5948.00,1.15
5947.00,1.15
5946.00,1.14
5945.00,1.14
5944.00,1.13
5943.00,1.13
5942.00,1.12
5941.00,1.12
5940.00,1.12
5939.00,1.12
5938.00,1.12
5937.00,1.11
5936.00,1.11
5935.00,1.11
5934.00,1.11
5933.00,1.11
5932.00,1.11
5931.00,1.11
5930.00,1.11
5929.00,1.11
5928.00,1.11
5927.00,1.11
5926.00,1.10
5925.00,1.10
5924.00,1.10
5923.00,1.10
5922.00,1.10
5921.00,1.09
5920.00,1.09
5919.00,1.09
5918.00,1.08
5917.00,1.08
5916.00,1.08
5915.00,1.07
5914.00,1.07
5913.00,1.06
5912.00,1.06
5911.00,1.06
5910.00,1.06
5909.00,1.05
5908.00,1.05
5907.00,1.05
5906.00,1.05
5905.00,1.04
5904.00,1.04
5903.00,1.04
5902.00,1.04
5901.00,1.04
5900.00,1.05
5899.00,1.05
5898.00,1.05
5897.00,1.05
5896.00,1.05
5895.00,1.05
5894.00,1.06
5893.00,1.06
5892.00,1.06
5891.00,1.07
5890.00,1.07
5889.00,1.07
5888.00,1.08
5887.00,1.08
5886.00,1.08
5885.00,1.09
5884.00,1.09
5883.00,1.09
5882.00,1.10
5881.00,1.10
5880.00,1.10
5879.00,1.11
5878.00,1.11
5877.00,1.11
5876.00,1.11
5875.00,1.12
5874.00,1.12
5873.00,1.12
5872.00,1.12
5871.00,1.13
5870.00,1.13
5869.00,1.13
5868.00,1.13
5867.00,1.13
5866.00,1.14
5865.00,1.14
5864.00,1.14
5863.00,1.14
5862.00,1.14
5861.00,1.15
5860.00,1.15
5859.00,1.15
5858.00,1.15
5857.00,1.15
5856.00,1.16
5855.00,1.16
5854.00,1.16
5853.00,1.16
5852.00,1.16
5851.00,1.17
5850.00,1.17
5849.00,1.17
5848.00,1.17
5847.00,1.17
5846.00,1.17
5845.00,1.17
5844.00,1.17
5843.00,1.17
5842.00,1.17
5841.00,1.17
5840.00,1.17
5839.00,1.17
5838.00,1.17
5837.00,1.17
5836.00,1.17
5835.00,1.17
5834.00,1.17
5833.00,1.17
5832.00,1.17
5831.00,1.17
5830.00,1.17
5829.00,1.17
5828.00,1.17
5827.00,1.17
5826.00,1.17
5825.00,1.17
5824.00,1.17
5823.00,1.17
5822.00,1.17
5821.00,1.17
5820.00,1.18
5819.00,1.18
5818.00,1.18
5817.00,1.18
5816.00,1.18
5815.00,1.18
5814.00,1.18
5813.00,1.18
5812.00,1.18
5811.00,1.18
5810.00,1.18
5809.00,1.18
5808.00,1.18
5807.00,1.17
5806.00,1.17
5805.00,1.17
5804.00,1.17
5803.00,1.17
5802.00,1.17
5801.00,1.16
5800.00,1.16
5799.00,1.16
5798.00,1.16
5797.00,1.15
5796.00,1.15
5795.00,1.15
5794.00,1.14
5793.00,1.14
5792.00,1.14
5791.00,1.14
5790.00,1.13
5789.00,1.13
5788.00,1.13
5787.00,1.13
5786.00,1.12
5785.00,1.12
5784.00,1.12
5783.00,1.12
5782.00,1.12
5781.00,1.11
5780.00,1.11
5779.00,1.11
5778.00,1.11
5777.00,1.11
5776.00,1.11
5775.00,1.11
5774.00,1.11
5773.00,1.11
5772.00,1.11
5771.00,1.10
5770.00,1.11
5769.00,1.11
5768.00,1.11
5767.00,1.11
5766.00,1.11
5765.00,1.11
5764.00,1.11
5763.00,1.11
5762.00,1.12
5761.00,1.12
5760.00,1.12
5759.00,1.13
5758.00,1.13
5757.00,1.14
5756.00,1.14
5755.00,1.14
5754.00,1.15
5753.00,1.15
5752.00,1.16
5751.00,1.16
5750.00,1.17
5749.00,1.17
5748.00,1.18
5747.00,1.18
5746.00,1.19
5745.00,1.19
5744.00,1.19
5743.00,1.20
5742.00,1.20
5741.00,1.21
5740.00,1.21
5739.00,1.21
5738.00,1.22
5737.00,1.22
5736.00,1.22
5735.00,1.22
5734.00,1.23
5733.00,1.23
5732.00,1.23
5731.00,1.23
5730.00,1.23
5729.00,1.24
5728.00,1.24
5727.00,1.24
5726.00,1.24
5725.00,1.24
5724.00,1.24
5723.00,1.24
5722.00,1.24
5721.00,1.24
5720.00,1.24
5719.00,1.24
5718.00,1.24
5717.00,1.24
5716.00,1.24
5715.00,1.24
5714.00,1.24
5713.00,1.24
5712.00,1.24
5711.00,1.24
5710.00,1.24
5709.00,1.24
5708.00,1.23
5707.00,1.23
5706.00,1.23
5705.00,1.23
5704.00,1.23
5703.00,1.23
5702.00,1.23
5701.00,1.22
5700.00,1.22
5699.00,1.22
5698.00,1.22
5697.00,1.22
5696.00,1.21
5695.00,1.21
5694.00,1.21
5693.00,1.21
5692.00,1.21
5691.00,1.21
5690.00,1.20
5689.00,1.20
5688.00,1.20
5687.00,1.20
5686.00,1.20
5685.00,1.20
5684.00,1.19
5683.00,1.19
5682.00,1.19
5681.00,1.19
5680.00,1.19
5679.00,1.19
5678.00,1.19
5677.00,1.19
5676.00,1.19
5675.00,1.19
5674.00,1.19
5673.00,1.19
5672.00,1.19
5671.00,1.19
5670.00,1.19
5669.00,1.19
5668.00,1.19
5667.00,1.19
5666.00,1.19
5665.00,1.19
5664.00,1.20
5663.00,1.20
5662.00,1.20
5661.00,1.20
5660.00,1.20
5659.00,1.20
5658.00,1.21
5657.00,1.21
5656.00,1.21
5655.00,1.21
5654.00,1.21
5653.00,1.21
5652.00,1.22
5651.00,1.22
5650.00,1.22
5649.00,1.22
5648.00,1.23
5647.00,1.23
5646.00,1.23
5645.00,1.23
5644.00,1.23
5643.00,1.24
5642.00,1.24
5641.00,1.24
5640.00,1.24
5639.00,1.25
5638.00,1.25
5637.00,1.25
5636.00,1.25
5635.00,1.26
5634.00,1.26
5633.00,1.26
5632.00,1.26
5631.00,1.27
5630.00,1.27
5629.00,1.27
5628.00,1.27
5627.00,1.28
5626.00,1.28
5625.00,1.28
5624.00,1.28
5623.00,1.28
5622.00,1.29
5621.00,1.29
5620.00,1.29
5619.00,1.29
5618.00,1.29
5617.00,1.29
5616.00,1.29
5615.00,1.30
5614.00,1.30
5613.00,1.30
5612.00,1.30
5611.00,1.30
5610.00,1.31
5609.00,1.31
5608.00,1.31
5607.00,1.31
5606.00,1.32
5605.00,1.32
5604.00,1.32
5603.00,1.32
5602.00,1.32
5601.00,1.33
5600.00,1.33
5599.00,1.33
5598.00,1.33
5597.00,1.33
5596.00,1.34
5595.00,1.34
5594.00,1.34
5593.00,1.34
5592.00,1.34
5591.00,1.34
5590.00,1.35
5589.00,1.35
5588.00,1.35
5587.00,1.35
5586.00,1.35
5585.00,1.36
5584.00,1.36
5583.00,1.36
5582.00,1.36
5581.00,1.36
5580.00,1.37
5579.00,1.37
5578.00,1.37
5577.00,1.37
5576.00,1.37
5575.00,1.38
5574.00,1.38
5573.00,1.38
5572.00,1.38
5571.00,1.38
5570.00,1.39
5569.00,1.39
5568.00,1.39
5567.00,1.39
5566.00,1.39
5565.00,1.39
5564.00,1.40
5563.00,1.40
5562.00,1.40
5561.00,1.40
5560.00,1.40
5559.00,1.40
5558.00,1.41
5557.00,1.41
5556.00,1.41
5555.00,1.41
5554.00,1.41
5553.00,1.42
5552.00,1.42
5551.00,1.42
5550.00,1.42
5549.00,1.42
5548.00,1.42
5547.00,1.43
5546.00,1.43
5545.00,1.43
5544.00,1.43
5543.00,1.43
5542.00,1.43
5541.00,1.43
5540.00,1.44
5539.00,1.44
5538.00,1.44
5537.00,1.44
5536.00,1.44
5535.00,1.44
5534.00,1.44
5533.00,1.45
5532.00,1.45
5531.00,1.45
5530.00,1.45
5529.00,1.45
5528.00,1.45
5527.00,1.45
5526.00,1.45
5525.00,1.46
5524.00,1.46
5523.00,1.46
5522.00,1.46
5521.00,1.46
5520.00,1.46
5519.00,1.46
5518.00,1.46
5517.00,1.46
5516.00,1.46
5515.00,1.46
5514.00,1.46
5513.00,1.47
5512.00,1.47
5511.00,1.47
5510.00,1.47
5509.00,1.47
5508.00,1.47
5507.00,1.47
5506.00,1.47
5505.00,1.47
5504.00,1.47
5503.00,1.47
5502.00,1.47
5501.00,1.48
5500.00,1.48
5499.00,1.48
5498.00,1.48
5497.00,1.48
5496.00,1.48
5495.00,1.48
5494.00,1.48
5493.00,1.49
5492.00,1.49
5491.00,1.49
5490.00,1.49
5489.00,1.49
5488.00,1.50
5487.00,1.50
5486.00,1.50
5485.00,1.50
5484.00,1.50
5483.00,1.50
5482.00,1.50
5481.00,1.51
5480.00,1.51
5479.00,1.51
5478.00,1.51
5477.00,1.51
5476.00,1.51
5475.00,1.51
5474.00,1.52
5473.00,1.52
5472.00,1.52
5471.00,1.52
5470.00,1.52
5469.00,1.52
5468.00,1.52
5467.00,1.52
5466.00,1.53
5465.00,1.53
5464.00,1.53
5463.00,1.53
5462.00,1.53
5461.00,1.53
5460.00,1.53
5459.00,1.54
5458.00,1.54
5457.00,1.54
5456.00,1.54
5455.00,1.54
5454.00,1.54
5453.00,1.54
5452.00,1.55
5451.00,1.55
5450.00,1.55
5449.00,1.55
5448.00,1.55
5447.00,1.55
5446.00,1.55
5445.00,1.55
5444.00,1.55
5443.00,1.55
5442.00,1.55
5441.00,1.56
5440.00,1.56
5439.00,1.56
5438.00,1.56
5437.00,1.56
5436.00,1.56
5435.00,1.56
5434.00,1.56
5433.00,1.56
5432.00,1.56
5431.00,1.56
5430.00,1.56
5429.00,1.56
5428.00,1.56
5427.00,1.56
5426.00,1.56
5425.00,1.56
5424.00,1.56
5423.00,1.56
5422.00,1.56
5421.00,1.56
5420.00,1.56
5419.00,1.56
5418.00,1.56
5417.00,1.56
5416.00,1.56
5415.00,1.56
5414.00,1.56
5413.00,1.56
5412.00,1.56
5411.00,1.56
5410.00,1.56
5409.00,1.55
5408.00,1.55
5407.00,1.55
5406.00,1.55
5405.00,1.55
5404.00,1.55
5403.00,1.55
5402.00,1.55
5401.00,1.55
5400.00,1.54
5399.00,1.54
5398.00,1.54
5397.00,1.54
5396.00,1.54
5395.00,1.54
5394.00,1.53
5393.00,1.53
5392.00,1.53
5391.00,1.53
5390.00,1.52
5389.00,1.52
5388.00,1.52
5387.00,1.52
5386.00,1.51
5385.00,1.51
5384.00,1.51
5383.00,1.50
5382.00,1.50
5381.00,1.50
5380.00,1.49
5379.00,1.49
5378.00,1.48
5377.00,1.48
5376.00,1.47
5375.00,1.47
5374.00,1.46
5373.00,1.46
5372.00,1.45
5371.00,1.44
5370.00,1.44
5369.00,1.43
5368.00,1.42
5367.00,1.42
5366.00,1.41
5365.00,1.40
5364.00,1.39
5363.00,1.39
5362.00,1.38
5361.00,1.37
5360.00,1.36
5359.00,1.35
5358.00,1.34
5357.00,1.33
5356.00,1.32
5355.00,1.32
5354.00,1.31
5353.00,1.29
5352.00,1.28
5351.00,1.27
5350.00,1.26
5349.00,1.25
5348.00,1.24
5347.00,1.23
5346.00,1.22
5345.00,1.21
5344.00,1.19
5343.00,1.18
5342.00,1.17
5341.00,1.16
5340.00,1.14
5339.00,1.13
5338.00,1.12
5337.00,1.11
5336.00,1.09
5335.00,1.08
5334.00,1.07
5333.00,1.06
5332.00,1.04
5331.00,1.03
5330.00,1.02
5329.00,1.01
5328.00,0.99
5327.00,0.98
5326.00,0.97
5325.00,0.96
5324.00,0.94
5323.00,0.93
5322.00,0.92
5321.00,0.91
5320.00,0.90
5319.00,0.89
5318.00,0.88
5317.00,0.87
5316.00,0.86
5315.00,0.85
5314.00,0.84
5313.00,0.83
5312.00,0.82
5311.00,0.81
5310.00,0.80
5309.00,0.79
5308.00,0.78
5307.00,0.78
5306.00,0.77
5305.00,0.76
5304.00,0.76
5303.00,0.75
5302.00,0.75
5301.00,0.74
5300.00,0.74
5299.00,0.73
5298.00,0.73
5297.00,0.72
5296.00,0.72
5295.00,0.72
5294.00,0.71
5293.00,0.71
5292.00,0.71
5291.00,0.71
5290.00,0.70
5289.00,0.70
5288.00,0.70
5287.00,0.70
5286.00,0.69
5285.00,0.69
5284.00,0.69
5283.00,0.69
5282.00,0.69
5281.00,0.69
5280.00,0.69
5279.00,0.69
5278.00,0.69
5277.00,0.69
5276.00,0.69
5275.00,0.68
5274.00,0.68
5273.00,0.68
5272.00,0.68
5271.00,0.68
5270.00,0.68
5269.00,0.68
5268.00,0.68
5267.00,0.68
5266.00,0.68
5265.00,0.68
5264.00,0.68
5263.00,0.68
5262.00,0.68
5261.00,0.68
5260.00,0.68
5259.00,0.68
5258.00,0.68
5257.00,0.68
5256.00,0.68
5255.00,0.68
5254.00,0.68
5253.00,0.68
5252.00,0.68
5251.00,0.68
5250.00,0.68
5249.00,0.68
5248.00,0.68
5247.00,0.68
5246.00,0.68
5245.00,0.68
5244.00,0.68
5243.00,0.68
5242.00,0.68
5241.00,0.68
5240.00,0.68
5239.00,0.68
5238.00,0.68
5237.00,0.68
5236.00,0.68
5235.00,0.68
5234.00,0.68
5233.00,0.68
5232.00,0.68
5231.00,0.68
5230.00,0.69
5229.00,0.69
5228.00,0.69
5227.00,0.69
5226.00,0.69
5225.00,0.69
5224.00,0.69
5223.00,0.69
5222.00,0.69
5221.00,0.69
5220.00,0.69
5219.00,0.69
5218.00,0.70
5217.00,0.70
5216.00,0.70
5215.00,0.70
5214.00,0.70
5213.00,0.70
5212.00,0.70
5211.00,0.70
5210.00,0.69
5209.00,0.69
5208.00,0.69
5207.00,0.69
5206.00,0.69
5205.00,0.69
5204.00,0.69
5203.00,0.69
5202.00,0.69
5201.00,0.69
5200.00,0.69
5199.00,0.69
5198.00,0.70
5197.00,0.70
5196.00,0.70
5195.00,0.70
5194.00,0.70
5193.00,0.70
5192.00,0.70
5191.00,0.70
5190.00,0.70
5189.00,0.70
5188.00,0.70
5187.00,0.70
5186.00,0.70
5185.00,0.70
5184.00,0.70
5183.00,0.70
5182.00,0.71
5181.00,0.71
5180.00,0.71
5179.00,0.71
5178.00,0.71
5177.00,0.71
5176.00,0.71
5175.00,0.71
5174.00,0.71
5173.00,0.71
5172.00,0.71
5171.00,0.71
5170.00,0.71
5169.00,0.72
5168.00,0.72
5167.00,0.72
5166.00,0.72
5165.00,0.72
5164.00,0.72
5163.00,0.72
5162.00,0.72
5161.00,0.72
5160.00,0.72
5159.00,0.72
5158.00,0.72
5157.00,0.72
5156.00,0.72
5155.00,0.72
5154.00,0.72
5153.00,0.72
5152.00,0.72
5151.00,0.72
5150.00,0.72
5149.00,0.72
5148.00,0.72
5147.00,0.72
5146.00,0.73
5145.00,0.73
5144.00,0.73
5143.00,0.73
5142.00,0.73
5141.00,0.73
5140.00,0.73
5139.00,0.73
5138.00,0.73
5137.00,0.73
5136.00,0.73
5135.00,0.73
5134.00,0.73
5133.00,0.73
5132.00,0.73
5131.00,0.73
5130.00,0.73
5129.00,0.73
5128.00,0.73
5127.00,0.74
5126.00,0.74
5125.00,0.74
5124.00,0.74
5123.00,0.74
5122.00,0.74
5121.00,0.74
5120.00,0.74
5119.00,0.74
5118.00,0.74
5117.00,0.74
5116.00,0.74
5115.00,0.75
5114.00,0.75
5113.00,0.75
5112.00,0.75
5111.00,0.75
5110.00,0.75
5109.00,0.75
5108.00,0.75
5107.00,0.75
5106.00,0.75
5105.00,0.75
5104.00,0.75
5103.00,0.75
5102.00,0.75
5101.00,0.75
5100.00,0.75
5099.00,0.75
5098.00,0.75
5097.00,0.76
5096.00,0.76
5095.00,0.76
5094.00,0.76
5093.00,0.76
5092.00,0.76
5091.00,0.76
5090.00,0.76
5089.00,0.76
5088.00,0.76
5087.00,0.76
5086.00,0.76
5085.00,0.76
5084.00,0.76
5083.00,0.76
5082.00,0.76
5081.00,0.76
5080.00,0.77
5079.00,0.77
5078.00,0.77
5077.00,0.77
5076.00,0.77
5075.00,0.77
5074.00,0.77
5073.00,0.77
5072.00,0.77
5071.00,0.77
5070.00,0.77
5069.00,0.77
5068.00,0.77
5067.00,0.77
5066.00,0.78
5065.00,0.78
5064.00,0.78
5063.00,0.78
5062.00,0.78
5061.00,0.78
5060.00,0.78
5059.00,0.78
5058.00,0.78
5057.00,0.78
5056.00,0.78
5055.00,0.78
5054.00,0.78
5053.00,0.78
5052.00,0.78
5051.00,0.78
5050.00,0.78
5049.00,0.78
5048.00,0.78
5047.00,0.78
5046.00,0.78
5045.00,0.78
5044.00,0.78
5043.00,0.78
5042.00,0.78
5041.00,0.79
5040.00,0.79
5039.00,0.79
5038.00,0.79
5037.00,0.79
5036.00,0.79
5035.00,0.79
5034.00,0.79
5033.00,0.80
5032.00,0.80
5031.00,0.80
5030.00,0.80
5029.00,0.80
5028.00,0.80
5027.00,0.80
5026.00,0.80
5025.00,0.80
5024.00,0.80
5023.00,0.80
5022.00,0.81
5021.00,0.81
5020.00,0.81
5019.00,0.81
5018.00,0.81
5017.00,0.81
5016.00,0.81
5015.00,0.81
5014.00,0.81
5013.00,0.81
5012.00,0.81
5011.00,0.81
5010.00,0.81
5009.00,0.81
5008.00,0.81
5007.00,0.81
5006.00,0.81
5005.00,0.82
5004.00,0.82
5003.00,0.82
5002.00,0.82
5001.00,0.82
5000.00,0.82
4999.00,0.82
4998.00,0.82
4997.00,0.82
4996.00,0.82
4995.00,0.83
4994.00,0.83
4993.00,0.83
4992.00,0.83
4991.00,0.83
4990.00,0.83
4989.00,0.83
4988.00,0.83
4987.00,0.83
4986.00,0.83
4985.00,0.83
4984.00,0.84
4983.00,0.84
4982.00,0.84
4981.00,0.84
4980.00,0.84
4979.00,0.84
4978.00,0.84
4977.00,0.84
4976.00,0.84
4975.00,0.85
4974.00,0.85
4973.00,0.85
4972.00,0.85
4971.00,0.85
4970.00,0.85
4969.00,0.85
4968.00,0.86
4967.00,0.86
4966.00,0.86
4965.00,0.86
4964.00,0.86
4963.00,0.86
4962.00,0.86
4961.00,0.86
4960.00,0.86
4959.00,0.87
4958.00,0.87
4957.00,0.87
4956.00,0.87
4955.00,0.87
4954.00,0.87
4953.00,0.87
4952.00,0.87
4951.00,0.87
4950.00,0.87
4949.00,0.87
4948.00,0.87
4947.00,0.87
4946.00,0.87
4945.00,0.87
4944.00,0.88
4943.00,0.88
4942.00,0.88
4941.00,0.88
4940.00,0.88
4939.00,0.88
4938.00,0.88
4937.00,0.88
4936.00,0.88
4935.00,0.88
4934.00,0.88
4933.00,0.88
4932.00,0.89
4931.00,0.89
4930.00,0.89
4929.00,0.89
4928.00,0.89
4927.00,0.89
4926.00,0.89
4925.00,0.89
4924.00,0.89
4923.00,0.89
4922.00,0.90
4921.00,0.90
4920.00,0.90
4919.00,0.90
4918.00,0.90
4917.00,0.90
4916.00,0.90
4915.00,0.90
4914.00,0.90
4913.00,0.90
4912.00,0.91
4911.00,0.91
4910.00,0.91
4909.00,0.91
4908.00,0.91
4907.00,0.91
4906.00,0.91
4905.00,0.91
4904.00,0.91
4903.00,0.91
4902.00,0.91
4901.00,0.91
4900.00,0.92
4899.00,0.92
4898.00,0.92
4897.00,0.92
4896.00,0.92
4895.00,0.92
4894.00,0.92
4893.00,0.92
4892.00,0.92
4891.00,0.92
4890.00,0.92
4889.00,0.92
4888.00,0.92
4887.00,0.92
4886.00,0.92
4885.00,0.92
4884.00,0.92
4883.00,0.92
4882.00,0.92
4881.00,0.92
4880.00,0.93
4879.00,0.93
4878.00,0.93
4877.00,0.93
4876.00,0.93
4875.00,0.93
4874.00,0.93
4873.00,0.93
4872.00,0.93
4871.00,0.93
4870.00,0.93
4869.00,0.94
4868.00,0.94
4867.00,0.94
4866.00,0.94
4865.00,0.94
4864.00,0.94
4863.00,0.94
4862.00,0.94
4861.00,0.94
4860.00,0.94
4859.00,0.94
4858.00,0.95
4857.00,0.95
4856.00,0.95
4855.00,0.95
4854.00,0.95
4853.00,0.95
4852.00,0.95
4851.00,0.95
4850.00,0.95
4849.00,0.95
4848.00,0.95
4847.00,0.95
4846.00,0.95
4845.00,0.95
4844.00,0.95
4843.00,0.95
4842.00,0.95
4841.00,0.95
4840.00,0.95
4839.00,0.95
4838.00,0.95
4837.00,0.95
4836.00,0.95
4835.00,0.96
4834.00,0.96
4833.00,0.96
4832.00,0.96
4831.00,0.96
4830.00,0.96
4829.00,0.96
4828.00,0.96
4827.00,0.96
4826.00,0.97
4825.00,0.97
4824.00,0.97
4823.00,0.97
4822.00,0.97
4821.00,0.97
4820.00,0.97
4819.00,0.97
4818.00,0.97
4817.00,0.98
4816.00,0.98
4815.00,0.98
4814.00,0.98
4813.00,0.98
4812.00,0.98
4811.00,0.98
4810.00,0.98
4809.00,0.98
4808.00,0.98
4807.00,0.98
4806.00,0.98
4805.00,0.98
4804.00,0.98
4803.00,0.99
4802.00,0.99
4801.00,0.99
4800.00,0.99
4799.00,0.99
4798.00,0.99
4797.00,0.99
4796.00,0.99
4795.00,1.00
4794.00,1.00
4793.00,1.00
4792.00,1.00
4791.00,1.00
4790.00,1.00
4789.00,1.01
4788.00,1.01
4787.00,1.01
4786.00,1.01
4785.00,1.01
4784.00,1.01
4783.00,1.02
4782.00,1.02
4781.00,1.02
4780.00,1.02
4779.00,1.02
4778.00,1.02
4777.00,1.02
4776.00,1.03
4775.00,1.03
4774.00,1.03
4773.00,1.03
4772.00,1.03
4771.00,1.03
4770.00,1.03
4769.00,1.04
4768.00,1.04
4767.00,1.04
4766.00,1.04
4765.00,1.04
4764.00,1.04
4763.00,1.05
4762.00,1.05
4761.00,1.05
4760.00,1.05
4759.00,1.05
4758.00,1.05
4757.00,1.06
4756.00,1.06
4755.00,1.06
4754.00,1.06
4753.00,1.06
4752.00,1.06
4751.00,1.06
4750.00,1.06
4749.00,1.07
4748.00,1.07
4747.00,1.07
4746.00,1.07
4745.00,1.07
4744.00,1.07
4743.00,1.08
4742.00,1.08
4741.00,1.08
4740.00,1.08
4739.00,1.08
4738.00,1.09
4737.00,1.09
4736.00,1.09
4735.00,1.09
4734.00,1.10
4733.00,1.10
4732.00,1.10
4731.00,1.10
4730.00,1.10
4729.00,1.10
4728.00,1.11
4727.00,1.11
4726.00,1.11
4725.00,1.11
4724.00,1.11
4723.00,1.11
4722.00,1.12
4721.00,1.12
4720.00,1.12
4719.00,1.12
4718.00,1.12
4717.00,1.13
4716.00,1.13
4715.00,1.13
4714.00,1.13
4713.00,1.14
4712.00,1.14
4711.00,1.14
4710.00,1.14
4709.00,1.15
4708.00,1.15
4707.00,1.15
4706.00,1.15
4705.00,1.16
4704.00,1.16
4703.00,1.16
4702.00,1.16
4701.00,1.16
4700.00,1.16
4699.00,1.17
4698.00,1.17
4697.00,1.17
4696.00,1.17
4695.00,1.17
4694.00,1.17
4693.00,1.17
4692.00,1.17
4691.00,1.18
4690.00,1.18
4689.00,1.18
4688.00,1.18
4687.00,1.19
4686.00,1.19
4685.00,1.19
4684.00,1.19
4683.00,1.20
4682.00,1.20
4681.00,1.20
4680.00,1.20
4679.00,1.21
4678.00,1.21
4677.00,1.21
4676.00,1.21
4675.00,1.22
4674.00,1.22
4673.00,1.22
4672.00,1.22
4671.00,1.22
4670.00,1.22
4669.00,1.23
4668.00,1.23
4667.00,1.23
4666.00,1.23
4665.00,1.23
4664.00,1.23
4663.00,1.23
4662.00,1.23
4661.00,1.24
4660.00,1.24
4659.00,1.24
4658.00,1.24
4657.00,1.24
4656.00,1.24
4655.00,1.24
4654.00,1.25
4653.00,1.25
4652.00,1.25
4651.00,1.25
4650.00,1.25
4649.00,1.25
4648.00,1.25
4647.00,1.26
4646.00,1.26
4645.00,1.26
4644.00,1.26
4643.00,1.26
4642.00,1.26
4641.00,1.26
4640.00,1.27
4639.00,1.27
4638.00,1.27
4637.00,1.27
4636.00,1.27
4635.00,1.27
4634.00,1.27
4633.00,1.27
4632.00,1.28
4631.00,1.28
4630.00,1.28
4629.00,1.28
4628.00,1.28
4627.00,1.28
4626.00,1.28
4625.00,1.28
4624.00,1.28
4623.00,1.28
4622.00,1.28
4621.00,1.29
4620.00,1.29
4619.00,1.29
4618.00,1.29
4617.00,1.29
4616.00,1.29
4615.00,1.29
4614.00,1.29
4613.00,1.30
4612.00,1.30
4611.00,1.30
4610.00,1.30
4609.00,1.30
4608.00,1.30
4607.00,1.31
4606.00,1.31
4605.00,1.31
4604.00,1.31
4603.00,1.31
4602.00,1.31
4601.00,1.31
4600.00,1.32
4599.00,1.32
4598.00,1.32
4597.00,1.32
4596.00,1.32
4595.00,1.32
4594.00,1.33
4593.00,1.33
4592.00,1.33
4591.00,1.33
4590.00,1.33
4589.00,1.33
4588.00,1.33
4587.00,1.34
4586.00,1.34
4585.00,1.34
4584.00,1.34
4583.00,1.34
4582.00,1.34
4581.00,1.34
4580.00,1.34
4579.00,1.34
4578.00,1.34
4577.00,1.34
4576.00,1.34
4575.00,1.35
4574.00,1.35
4573.00,1.35
4572.00,1.35
4571.00,1.35
4570.00,1.35
4569.00,1.35
4568.00,1.35
4567.00,1.35
4566.00,1.35
4565.00,1.35
4564.00,1.35
4563.00,1.35
4562.00,1.36
4561.00,1.36
4560.00,1.36
4559.00,1.36
4558.00,1.36
4557.00,1.36
4556.00,1.36
4555.00,1.36
4554.00,1.36
4553.00,1.36
4552.00,1.36
4551.00,1.37
4550.00,1.37
4549.00,1.37
4548.00,1.37
4547.00,1.37
4546.00,1.37
4545.00,1.37
4544.00,1.37
4543.00,1.37
4542.00,1.37
4541.00,1.38
4540.00,1.38
4539.00,1.38
4538.00,1.38
4537.00,1.38
4536.00,1.38
4535.00,1.38
4534.00,1.38
4533.00,1.38
4532.00,1.38
4531.00,1.39
4530.00,1.39
4529.00,1.39
4528.00,1.39
4527.00,1.39
4526.00,1.39
4525.00,1.39
4524.00,1.39
4523.00,1.39
4522.00,1.39
4521.00,1.39
4520.00,1.39
4519.00,1.40
4518.00,1.40
4517.00,1.40
4516.00,1.40
4515.00,1.40
4514.00,1.40
4513.00,1.40
4512.00,1.40
4511.00,1.40
4510.00,1.40
4509.00,1.40
4508.00,1.40
4507.00,1.40
4506.00,1.40
4505.00,1.40
4504.00,1.40
4503.00,1.40
4502.00,1.40
4501.00,1.39
4500.00,1.39
4499.00,1.39
4498.00,1.39
4497.00,1.39
4496.00,1.39
4495.00,1.39
4494.00,1.39
4493.00,1.39
4492.00,1.39
4491.00,1.39
4490.00,1.38
4489.00,1.38
4488.00,1.38
4487.00,1.38
4486.00,1.38
4485.00,1.38
4484.00,1.38
4483.00,1.38
4482.00,1.38
4481.00,1.37
4480.00,1.37
4479.00,1.37
4478.00,1.37
4477.00,1.37
4476.00,1.37
4475.00,1.36
4474.00,1.36
4473.00,1.36
4472.00,1.36
4471.00,1.35
4470.00,1.35
4469.00,1.35
4468.00,1.34
4467.00,1.34
4466.00,1.34
4465.00,1.33
4464.00,1.33
4463.00,1.33
4462.00,1.32
4461.00,1.32
4460.00,1.32
4459.00,1.31
4458.00,1.31
4457.00,1.31
4456.00,1.30
4455.00,1.30
4454.00,1.30
4453.00,1.29
4452.00,1.29
4451.00,1.28
4450.00,1.28
4449.00,1.27
4448.00,1.27
4447.00,1.26
4446.00,1.26
4445.00,1.25
4444.00,1.25
4443.00,1.24
4442.00,1.24
4441.00,1.23
4440.00,1.23
4439.00,1.23
4438.00,1.22
4437.00,1.22
4436.00,1.21
4435.00,1.21
4434.00,1.21
4433.00,1.21
4432.00,1.20
4431.00,1.20
4430.00,1.20
4429.00,1.20
4428.00,1.20
4427.00,1.20
4426.00,1.20
4425.00,1.20
4424.00,1.20
4423.00,1.20
4422.00,1.20
4421.00,1.20
4420.00,1.20
4419.00,1.20
4418.00,1.20
4417.00,1.20
4416.00,1.20
4415.00,1.20
4414.00,1.20
4413.00,1.20
4412.00,1.20
4411.00,1.20
4410.00,1.20
4409.00,1.20
4408.00,1.20
4407.00,1.20
4406.00,1.20
4405.00,1.20
4404.00,1.20
4403.00,1.20
4402.00,1.21
4401.00,1.21
4400.00,1.21
4399.00,1.21
4398.00,1.21
4397.00,1.21
4396.00,1.21
4395.00,1.21
4394.00,1.22
4393.00,1.22
4392.00,1.22
4391.00,1.22
4390.00,1.22
4389.00,1.22
4388.00,1.22
4387.00,1.23
4386.00,1.23
4385.00,1.23
4384.00,1.23
4383.00,1.23
4382.00,1.23
4381.00,1.23
4380.00,1.24
4379.00,1.24
4378.00,1.24
4377.00,1.24
4376.00,1.24
4375.00,1.24
4374.00,1.24
4373.00,1.24
4372.00,1.24
4371.00,1.24
4370.00,1.24
4369.00,1.24
4368.00,1.24
4367.00,1.24
4366.00,1.24
4365.00,1.24
4364.00,1.24
4363.00,1.24
4362.00,1.24
4361.00,1.24
4360.00,1.24
4359.00,1.24
4358.00,1.24
4357.00,1.24
4356.00,1.24
4355.00,1.24
4354.00,1.25
4353.00,1.25
4352.00,1.25
4351.00,1.25
4350.00,1.25
4349.00,1.25
4348.00,1.25
4347.00,1.25
4346.00,1.25
4345.00,1.25
4344.00,1.25
4343.00,1.26
4342.00,1.26
4341.00,1.26
4340.00,1.26
4339.00,1.26
4338.00,1.26
4337.00,1.26
4336.00,1.26
4335.00,1.27
4334.00,1.27
4333.00,1.27
4332.00,1.27
4331.00,1.27
4330.00,1.27
4329.00,1.28
4328.00,1.28
4327.00,1.28
4326.00,1.28
4325.00,1.28
4324.00,1.29
4323.00,1.29
4322.00,1.29
4321.00,1.29
4320.00,1.29
4319.00,1.29
4318.00,1.29
4317.00,1.29
4316.00,1.30
4315.00,1.30
4314.00,1.30
4313.00,1.30
4312.00,1.30
4311.00,1.30
4310.00,1.30
4309.00,1.30
4308.00,1.30
4307.00,1.30
4306.00,1.31
4305.00,1.31
4304.00,1.31
4303.00,1.31
4302.00,1.31
4301.00,1.31
4300.00,1.32
4299.00,1.32
4298.00,1.32
4297.00,1.32
4296.00,1.32
4295.00,1.32
4294.00,1.32
4293.00,1.33
4292.00,1.33
4291.00,1.33
4290.00,1.33
4289.00,1.33
4288.00,1.33
4287.00,1.33
4286.00,1.33
4285.00,1.33
4284.00,1.33
4283.00,1.34
4282.00,1.34
4281.00,1.34
4280.00,1.34
4279.00,1.34
4278.00,1.35
4277.00,1.35
4276.00,1.35
4275.00,1.35
4274.00,1.35
4273.00,1.35
4272.00,1.35
4271.00,1.36
4270.00,1.36
4269.00,1.36
4268.00,1.36
4267.00,1.36
4266.00,1.36
4265.00,1.35
4264.00,1.35
4263.00,1.35
4262.00,1.35
4261.00,1.35
4260.00,1.35
4259.00,1.35
4258.00,1.35
4257.00,1.35
4256.00,1.35
4255.00,1.35
4254.00,1.35
4253.00,1.35
4252.00,1.35
4251.00,1.35
4250.00,1.35
4249.00,1.35
4248.00,1.35
4247.00,1.35
4246.00,1.35
4245.00,1.35
4244.00,1.35
4243.00,1.35
4242.00,1.35
4241.00,1.36
4240.00,1.36
4239.00,1.36
4238.00,1.36
4237.00,1.36
4236.00,1.36
4235.00,1.36
4234.00,1.36
4233.00,1.36
4232.00,1.37
4231.00,1.37
4230.00,1.37
4229.00,1.37
4228.00,1.37
4227.00,1.38
4226.00,1.38
4225.00,1.38
4224.00,1.38
4223.00,1.39
4222.00,1.39
4221.00,1.39
4220.00,1.39
4219.00,1.39
4218.00,1.39
4217.00,1.39
4216.00,1.40
4215.00,1.40
4214.00,1.40
4213.00,1.40
4212.00,1.40
4211.00,1.40
4210.00,1.40
4209.00,1.40
4208.00,1.40
4207.00,1.40
4206.00,1.40
4205.00,1.40
4204.00,1.40
4203.00,1.40
4202.00,1.41
4201.00,1.41
4200.00,1.41
4199.00,1.41
4198.00,1.41
4197.00,1.41
4196.00,1.42
4195.00,1.42
4194.00,1.42
4193.00,1.42
4192.00,1.42
4191.00,1.42
4190.00,1.43
4189.00,1.43
4188.00,1.43
4187.00,1.43
4186.00,1.43
4185.00,1.43
4184.00,1.43
4183.00,1.43
4182.00,1.43
4181.00,1.43
4180.00,1.43
4179.00,1.43
4178.00,1.43
4177.00,1.43
4176.00,1.43
4175.00,1.43
4174.00,1.43
4173.00,1.43
4172.00,1.43
4171.00,1.43
4170.00,1.43
4169.00,1.43
4168.00,1.43
4167.00,1.43
4166.00,1.43
4165.00,1.43
4164.00,1.43
4163.00,1.43
4162.00,1.43
4161.00,1.43
4160.00,1.43
4159.00,1.43
4158.00,1.43
4157.00,1.43
4156.00,1.43
4155.00,1.43
4154.00,1.43
4153.00,1.43
4152.00,1.43
4151.00,1.42
4150.00,1.42
4149.00,1.42
4148.00,1.42
4147.00,1.42
4146.00,1.42
4145.00,1.42
4144.00,1.42
4143.00,1.42
4142.00,1.42
4141.00,1.42
4140.00,1.42
4139.00,1.42
4138.00,1.42
4137.00,1.42
4136.00,1.42
4135.00,1.43
4134.00,1.43
4133.00,1.43
4132.00,1.43
4131.00,1.44
4130.00,1.44
4129.00,1.44
4128.00,1.45
4127.00,1.45
4126.00,1.45
4125.00,1.46
4124.00,1.46
4123.00,1.46
4122.00,1.46
4121.00,1.47
4120.00,1.47
4119.00,1.47
4118.00,1.47
4117.00,1.47
4116.00,1.47
4115.00,1.47
4114.00,1.47
4113.00,1.47
4112.00,1.47
4111.00,1.47
4110.00,1.47
4109.00,1.47
4108.00,1.47
4107.00,1.47
4106.00,1.47
4105.00,1.46
4104.00,1.46
4103.00,1.46
4102.00,1.46
4101.00,1.46
4100.00,1.47
4099.00,1.47
4098.00,1.47
4097.00,1.47
4096.00,1.47
4095.00,1.47
4094.00,1.47
4093.00,1.47
4092.00,1.47
4091.00,1.47
4090.00,1.47
4089.00,1.47
4088.00,1.47
4087.00,1.47
4086.00,1.47
4085.00,1.48
4084.00,1.48
4083.00,1.48
4082.00,1.48
4081.00,1.48
4080.00,1.48
4079.00,1.48
4078.00,1.48
4077.00,1.48
4076.00,1.48
4075.00,1.49
4074.00,1.49
4073.00,1.49
4072.00,1.49
4071.00,1.49
4070.00,1.50
4069.00,1.50
4068.00,1.50
4067.00,1.50
4066.00,1.50
4065.00,1.50
4064.00,1.51
4063.00,1.51
4062.00,1.51
4061.00,1.51
4060.00,1.51
4059.00,1.51
4058.00,1.51
4057.00,1.51
4056.00,1.51
4055.00,1.51
4054.00,1.51
4053.00,1.51
4052.00,1.51
4051.00,1.51
4050.00,1.51
4049.00,1.51
4048.00,1.51
4047.00,1.51
4046.00,1.51
4045.00,1.52
4044.00,1.52
4043.00,1.52
4042.00,1.52
4041.00,1.53
4040.00,1.53
4039.00,1.53
4038.00,1.53
4037.00,1.54
4036.00,1.54
4035.00,1.54
4034.00,1.54
4033.00,1.54
4032.00,1.55
4031.00,1.55
4030.00,1.55
4029.00,1.55
4028.00,1.55
4027.00,1.55
4026.00,1.55
4025.00,1.55
4024.00,1.55
4023.00,1.56
4022.00,1.56
4021.00,1.56
4020.00,1.56
4019.00,1.56
4018.00,1.56
4017.00,1.56
4016.00,1.56
4015.00,1.55
4014.00,1.55
4013.00,1.55
4012.00,1.55
4011.00,1.55
4010.00,1.55
4009.00,1.55
4008.00,1.55
4007.00,1.55
4006.00,1.55
4005.00,1.55
4004.00,1.55
4003.00,1.55
4002.00,1.56
4001.00,1.56
4000.00,1.56
