创建为新数据集,样品 258 用户 Administrator 日期 星期日, 七月 22 2018
cm-1,%T
10000.00,1.62
9999.00,1.62
9998.00,1.62
9997.00,1.62
9996.00,1.62
9995.00,1.62
9994.00,1.62
9993.00,1.62
9992.00,1.62
9991.00,1.62
9990.00,1.62
9989.00,1.61
9988.00,1.61
9987.00,1.61
9986.00,1.61
9985.00,1.60
9984.00,1.60
9983.00,1.60
9982.00,1.59
9981.00,1.59
9980.00,1.59
9979.00,1.58
9978.00,1.58
9977.00,1.57
9976.00,1.57
9975.00,1.57
9974.00,1.57
9973.00,1.56
9972.00,1.56
9971.00,1.56
9970.00,1.56
9969.00,1.56
9968.00,1.56
9967.00,1.56
9966.00,1.56
9965.00,1.56
9964.00,1.57
9963.00,1.57
9962.00,1.57
9961.00,1.57
9960.00,1.58
9959.00,1.58
9958.00,1.58
9957.00,1.58
9956.00,1.59
9955.00,1.59
9954.00,1.59
9953.00,1.59
9952.00,1.59
9951.00,1.59
9950.00,1.60
9949.00,1.60
9948.00,1.60
9947.00,1.60
9946.00,1.60
9945.00,1.60
9944.00,1.60
9943.00,1.60
9942.00,1.60
9941.00,1.61
9940.00,1.61
9939.00,1.61
9938.00,1.61
9937.00,1.61
9936.00,1.61
9935.00,1.62
9934.00,1.62
9933.00,1.62
9932.00,1.62
9931.00,1.62
9930.00,1.62
9929.00,1.62
9928.00,1.61
9927.00,1.61
9926.00,1.61
9925.00,1.61
9924.00,1.60
9923.00,1.60
9922.00,1.60
9921.00,1.59
9920.00,1.59
9919.00,1.59
9918.00,1.58
9917.00,1.58
9916.00,1.58
9915.00,1.57
9914.00,1.57
9913.00,1.57
9912.00,1.57
9911.00,1.57
9910.00,1.57
9909.00,1.58
9908.00,1.58
9907.00,1.58
9906.00,1.58
9905.00,1.58
9904.00,1.58
9903.00,1.59
9902.00,1.59
9901.00,1.59
9900.00,1.59
9899.00,1.59
9898.00,1.59
9897.00,1.59
9896.00,1.59
9895.00,1.59
9894.00,1.59
9893.00,1.59
9892.00,1.59
9891.00,1.59
9890.00,1.59
9889.00,1.58
9888.00,1.58
9887.00,1.58
9886.00,1.58
9885.00,1.58
9884.00,1.57
9883.00,1.57
9882.00,1.57
9881.00,1.57
9880.00,1.57
9879.00,1.57
9878.00,1.56
9877.00,1.56
9876.00,1.56
9875.00,1.56
9874.00,1.56
9873.00,1.56
9872.00,1.56
9871.00,1.56
9870.00,1.56
9869.00,1.56
9868.00,1.56
9867.00,1.56
9866.00,1.56
9865.00,1.56
9864.00,1.56
9863.00,1.57
9862.00,1.57
9861.00,1.57
9860.00,1.57
9859.00,1.57
9858.00,1.57
9857.00,1.57
9856.00,1.57
9855.00,1.57
9854.00,1.57
9853.00,1.57
9852.00,1.57
9851.00,1.57
9850.00,1.57
9849.00,1.57
9848.00,1.57
9847.00,1.57
9846.00,1.57
9845.00,1.57
9844.00,1.57
9843.00,1.57
9842.00,1.57
9841.00,1.57
9840.00,1.57
9839.00,1.57
9838.00,1.56
9837.00,1.56
9836.00,1.56
9835.00,1.56
9834.00,1.56
9833.00,1.56
9832.00,1.56
9831.00,1.56
9830.00,1.56
9829.00,1.56
9828.00,1.56
9827.00,1.56
9826.00,1.56
9825.00,1.56
9824.00,1.57
9823.00,1.57
9822.00,1.57
9821.00,1.57
9820.00,1.57
9819.00,1.58
9818.00,1.58
9817.00,1.58
9816.00,1.58
9815.00,1.59
9814.00,1.59
9813.00,1.59
9812.00,1.59
9811.00,1.59
9810.00,1.60
9809.00,1.60
9808.00,1.60
9807.00,1.60
9806.00,1.60
9805.00,1.60
9804.00,1.60
9803.00,1.60
9802.00,1.60
9801.00,1.60
9800.00,1.60
9799.00,1.59
9798.00,1.59
9797.00,1.59
9796.00,1.59
9795.00,1.59
9794.00,1.59
9793.00,1.59
9792.00,1.59
9791.00,1.59
9790.00,1.59
9789.00,1.59
9788.00,1.59
9787.00,1.59
9786.00,1.59
9785.00,1.59
9784.00,1.59
9783.00,1.59
9782.00,1.59
9781.00,1.59
9780.00,1.59
9779.00,1.59
9778.00,1.59
9777.00,1.59
9776.00,1.60
9775.00,1.60
9774.00,1.60
9773.00,1.60
9772.00,1.60
9771.00,1.61
9770.00,1.61
9769.00,1.61
9768.00,1.61
9767.00,1.61
9766.00,1.62
9765.00,1.62
9764.00,1.62
9763.00,1.62
9762.00,1.62
9761.00,1.62
9760.00,1.62
9759.00,1.61
9758.00,1.61
9757.00,1.61
9756.00,1.61
9755.00,1.61
9754.00,1.61
9753.00,1.61
9752.00,1.60
9751.00,1.60
9750.00,1.60
9749.00,1.60
9748.00,1.60
9747.00,1.60
9746.00,1.60
9745.00,1.60
9744.00,1.60
9743.00,1.60
9742.00,1.59
9741.00,1.59
9740.00,1.59
9739.00,1.59
9738.00,1.59
9737.00,1.59
9736.00,1.58
9735.00,1.58
9734.00,1.58
9733.00,1.58
9732.00,1.58
9731.00,1.57
9730.00,1.57
9729.00,1.57
9728.00,1.57
9727.00,1.56
9726.00,1.56
9725.00,1.56
9724.00,1.56
9723.00,1.55
9722.00,1.55
9721.00,1.55
9720.00,1.55
9719.00,1.55
9718.00,1.55
9717.00,1.56
9716.00,1.56
9715.00,1.56
9714.00,1.56
9713.00,1.57
9712.00,1.57
9711.00,1.57
9710.00,1.58
9709.00,1.58
9708.00,1.58
9707.00,1.59
9706.00,1.59
9705.00,1.59
9704.00,1.59
9703.00,1.59
9702.00,1.60
9701.00,1.60
9700.00,1.60
9699.00,1.60
9698.00,1.60
9697.00,1.60
9696.00,1.60
9695.00,1.60
9694.00,1.60
9693.00,1.60
9692.00,1.60
9691.00,1.60
9690.00,1.60
9689.00,1.60
9688.00,1.60
9687.00,1.60
9686.00,1.60
9685.00,1.60
9684.00,1.60
9683.00,1.60
9682.00,1.60
9681.00,1.60
9680.00,1.60
9679.00,1.60
9678.00,1.60
9677.00,1.60
9676.00,1.60
9675.00,1.60
9674.00,1.60
9673.00,1.60
9672.00,1.60
9671.00,1.60
9670.00,1.60
9669.00,1.60
9668.00,1.60
9667.00,1.60
9666.00,1.60
9665.00,1.60
9664.00,1.60
9663.00,1.60
9662.00,1.59
9661.00,1.59
9660.00,1.59
9659.00,1.59
9658.00,1.58
9657.00,1.58
9656.00,1.58
9655.00,1.58
9654.00,1.58
9653.00,1.58
9652.00,1.57
9651.00,1.57
9650.00,1.57
9649.00,1.58
9648.00,1.58
9647.00,1.58
9646.00,1.58
9645.00,1.58
9644.00,1.58
9643.00,1.58
9642.00,1.58
9641.00,1.58
9640.00,1.58
9639.00,1.59
9638.00,1.59
9637.00,1.59
9636.00,1.59
9635.00,1.59
9634.00,1.59
9633.00,1.59
9632.00,1.59
9631.00,1.59
9630.00,1.59
9629.00,1.59
9628.00,1.59
9627.00,1.59
9626.00,1.59
9625.00,1.59
9624.00,1.59
9623.00,1.59
9622.00,1.59
9621.00,1.59
9620.00,1.59
9619.00,1.59
9618.00,1.58
9617.00,1.58
9616.00,1.58
9615.00,1.58
9614.00,1.58
9613.00,1.58
9612.00,1.58
9611.00,1.58
9610.00,1.58
9609.00,1.58
9608.00,1.58
9607.00,1.59
9606.00,1.59
9605.00,1.59
9604.00,1.59
9603.00,1.59
9602.00,1.59
9601.00,1.60
9600.00,1.60
9599.00,1.60
9598.00,1.60
9597.00,1.60
9596.00,1.60
9595.00,1.60
9594.00,1.60
9593.00,1.60
9592.00,1.60
9591.00,1.60
9590.00,1.60
9589.00,1.59
9588.00,1.59
9587.00,1.59
9586.00,1.59
9585.00,1.59
9584.00,1.58
9583.00,1.58
9582.00,1.58
9581.00,1.58
9580.00,1.58
9579.00,1.58
9578.00,1.58
9577.00,1.58
9576.00,1.58
9575.00,1.58
9574.00,1.58
9573.00,1.58
9572.00,1.58
9571.00,1.59
9570.00,1.59
9569.00,1.59
9568.00,1.59
9567.00,1.59
9566.00,1.59
9565.00,1.60
9564.00,1.60
9563.00,1.60
9562.00,1.60
9561.00,1.60
9560.00,1.60
9559.00,1.60
9558.00,1.61
9557.00,1.61
9556.00,1.61
9555.00,1.61
9554.00,1.61
9553.00,1.61
9552.00,1.61
9551.00,1.61
9550.00,1.61
9549.00,1.61
9548.00,1.61
9547.00,1.61
9546.00,1.61
9545.00,1.61
9544.00,1.61
9543.00,1.61
9542.00,1.61
9541.00,1.61
9540.00,1.61
9539.00,1.61
9538.00,1.61
9537.00,1.61
9536.00,1.60
9535.00,1.60
9534.00,1.60
9533.00,1.60
9532.00,1.59
9531.00,1.59
9530.00,1.59
9529.00,1.59
9528.00,1.58
9527.00,1.58
9526.00,1.58
9525.00,1.58
9524.00,1.58
9523.00,1.58
9522.00,1.58
9521.00,1.57
9520.00,1.58
9519.00,1.58
9518.00,1.58
9517.00,1.58
9516.00,1.58
9515.00,1.58
9514.00,1.59
9513.00,1.59
9512.00,1.59
9511.00,1.59
9510.00,1.60
9509.00,1.60
9508.00,1.60
9507.00,1.60
9506.00,1.60
9505.00,1.60
9504.00,1.60
9503.00,1.60
9502.00,1.60
9501.00,1.60
9500.00,1.60
9499.00,1.60
9498.00,1.60
9497.00,1.60
9496.00,1.60
9495.00,1.60
9494.00,1.60
9493.00,1.60
9492.00,1.60
9491.00,1.60
9490.00,1.60
9489.00,1.60
9488.00,1.60
9487.00,1.60
9486.00,1.60
9485.00,1.60
9484.00,1.60
9483.00,1.60
9482.00,1.60
9481.00,1.60
9480.00,1.60
9479.00,1.60
9478.00,1.59
9477.00,1.59
9476.00,1.59
9475.00,1.59
9474.00,1.59
9473.00,1.59
9472.00,1.59
9471.00,1.59
9470.00,1.60
9469.00,1.60
9468.00,1.60
9467.00,1.60
9466.00,1.60
9465.00,1.60
9464.00,1.60
9463.00,1.60
9462.00,1.60
9461.00,1.60
9460.00,1.60
9459.00,1.60
9458.00,1.60
9457.00,1.60
9456.00,1.60
9455.00,1.59
9454.00,1.59
9453.00,1.59
9452.00,1.58
9451.00,1.58
9450.00,1.58
9449.00,1.58
9448.00,1.57
9447.00,1.57
9446.00,1.57
9445.00,1.57
9444.00,1.57
9443.00,1.56
9442.00,1.56
9441.00,1.56
9440.00,1.56
9439.00,1.56
9438.00,1.56
9437.00,1.56
9436.00,1.56
9435.00,1.57
9434.00,1.57
9433.00,1.57
9432.00,1.57
9431.00,1.57
9430.00,1.57
9429.00,1.57
9428.00,1.57
9427.00,1.57
9426.00,1.57
9425.00,1.57
9424.00,1.57
9423.00,1.57
9422.00,1.57
9421.00,1.57
9420.00,1.57
9419.00,1.58
9418.00,1.58
9417.00,1.58
9416.00,1.58
9415.00,1.58
9414.00,1.58
9413.00,1.58
9412.00,1.58
9411.00,1.58
9410.00,1.58
9409.00,1.58
9408.00,1.58
9407.00,1.58
9406.00,1.58
9405.00,1.58
9404.00,1.58
9403.00,1.58
9402.00,1.58
9401.00,1.58
9400.00,1.58
9399.00,1.58
9398.00,1.58
9397.00,1.58
9396.00,1.58
9395.00,1.58
9394.00,1.58
9393.00,1.59
9392.00,1.59
9391.00,1.59
9390.00,1.59
9389.00,1.59
9388.00,1.59
9387.00,1.59
9386.00,1.59
9385.00,1.60
9384.00,1.60
9383.00,1.60
9382.00,1.60
9381.00,1.60
9380.00,1.60
9379.00,1.60
9378.00,1.60
9377.00,1.60
9376.00,1.60
9375.00,1.60
9374.00,1.60
9373.00,1.60
9372.00,1.60
9371.00,1.60
9370.00,1.60
9369.00,1.60
9368.00,1.60
9367.00,1.61
9366.00,1.61
9365.00,1.61
9364.00,1.61
9363.00,1.61
9362.00,1.61
9361.00,1.61
9360.00,1.61
9359.00,1.61
9358.00,1.61
9357.00,1.61
9356.00,1.61
9355.00,1.61
9354.00,1.61
9353.00,1.61
9352.00,1.61
9351.00,1.61
9350.00,1.61
9349.00,1.61
9348.00,1.61
9347.00,1.61
9346.00,1.61
9345.00,1.61
9344.00,1.61
9343.00,1.61
9342.00,1.61
9341.00,1.61
9340.00,1.61
9339.00,1.61
9338.00,1.61
9337.00,1.60
9336.00,1.60
9335.00,1.60
9334.00,1.60
9333.00,1.60
9332.00,1.60
9331.00,1.60
9330.00,1.60
9329.00,1.60
9328.00,1.60
9327.00,1.59
9326.00,1.59
9325.00,1.59
9324.00,1.59
9323.00,1.59
9322.00,1.59
9321.00,1.59
9320.00,1.59
9319.00,1.59
9318.00,1.59
9317.00,1.59
9316.00,1.59
9315.00,1.59
9314.00,1.59
9313.00,1.59
9312.00,1.59
9311.00,1.59
9310.00,1.59
9309.00,1.59
9308.00,1.59
9307.00,1.59
9306.00,1.59
9305.00,1.59
9304.00,1.59
9303.00,1.59
9302.00,1.59
9301.00,1.59
9300.00,1.59
9299.00,1.59
9298.00,1.59
9297.00,1.59
9296.00,1.59
9295.00,1.59
9294.00,1.59
9293.00,1.59
9292.00,1.59
9291.00,1.59
9290.00,1.59
9289.00,1.59
9288.00,1.59
9287.00,1.59
9286.00,1.59
9285.00,1.59
9284.00,1.59
9283.00,1.59
9282.00,1.59
9281.00,1.59
9280.00,1.59
9279.00,1.59
9278.00,1.59
9277.00,1.59
9276.00,1.59
9275.00,1.59
9274.00,1.59
9273.00,1.59
9272.00,1.59
9271.00,1.59
9270.00,1.59
9269.00,1.59
9268.00,1.59
9267.00,1.59
9266.00,1.59
9265.00,1.59
9264.00,1.59
9263.00,1.59
9262.00,1.59
9261.00,1.59
9260.00,1.59
9259.00,1.59
9258.00,1.59
9257.00,1.59
9256.00,1.59
9255.00,1.59
9254.00,1.59
9253.00,1.59
9252.00,1.59
9251.00,1.59
9250.00,1.59
9249.00,1.60
9248.00,1.60
9247.00,1.60
9246.00,1.60
9245.00,1.60
9244.00,1.60
9243.00,1.60
9242.00,1.61
9241.00,1.61
9240.00,1.61
9239.00,1.61
9238.00,1.61
9237.00,1.61
9236.00,1.61
9235.00,1.61
9234.00,1.61
9233.00,1.61
9232.00,1.62
9231.00,1.62
9230.00,1.62
9229.00,1.62
9228.00,1.62
9227.00,1.62
9226.00,1.62
9225.00,1.62
9224.00,1.62
9223.00,1.62
9222.00,1.61
9221.00,1.61
9220.00,1.61
9219.00,1.61
9218.00,1.61
9217.00,1.61
9216.00,1.61
9215.00,1.60
9214.00,1.60
9213.00,1.60
9212.00,1.60
9211.00,1.60
9210.00,1.60
9209.00,1.60
9208.00,1.59
9207.00,1.59
9206.00,1.59
9205.00,1.59
9204.00,1.59
9203.00,1.59
9202.00,1.59
9201.00,1.59
9200.00,1.59
9199.00,1.60
9198.00,1.60
9197.00,1.60
9196.00,1.60
9195.00,1.60
9194.00,1.60
9193.00,1.60
9192.00,1.60
9191.00,1.60
9190.00,1.60
9189.00,1.60
9188.00,1.60
9187.00,1.59
9186.00,1.59
9185.00,1.59
9184.00,1.59
9183.00,1.59
9182.00,1.59
9181.00,1.59
9180.00,1.59
9179.00,1.59
9178.00,1.59
9177.00,1.59
9176.00,1.59
9175.00,1.60
9174.00,1.60
9173.00,1.60
9172.00,1.60
9171.00,1.60
9170.00,1.60
9169.00,1.60
9168.00,1.61
9167.00,1.61
9166.00,1.61
9165.00,1.61
9164.00,1.61
9163.00,1.61
9162.00,1.61
9161.00,1.61
9160.00,1.61
9159.00,1.61
9158.00,1.61
9157.00,1.61
9156.00,1.61
9155.00,1.61
9154.00,1.60
9153.00,1.60
9152.00,1.60
9151.00,1.60
9150.00,1.60
9149.00,1.60
9148.00,1.60
9147.00,1.60
9146.00,1.59
9145.00,1.59
9144.00,1.59
9143.00,1.59
9142.00,1.59
9141.00,1.59
9140.00,1.60
9139.00,1.60
9138.00,1.60
9137.00,1.60
9136.00,1.60
9135.00,1.60
9134.00,1.60
9133.00,1.60
9132.00,1.60
9131.00,1.60
9130.00,1.60
9129.00,1.60
9128.00,1.60
9127.00,1.60
9126.00,1.60
9125.00,1.60
9124.00,1.60
9123.00,1.60
9122.00,1.60
9121.00,1.60
9120.00,1.60
9119.00,1.60
9118.00,1.60
9117.00,1.59
9116.00,1.59
9115.00,1.59
9114.00,1.59
9113.00,1.59
9112.00,1.59
9111.00,1.59
9110.00,1.59
9109.00,1.59
9108.00,1.59
9107.00,1.59
9106.00,1.58
9105.00,1.58
9104.00,1.58
9103.00,1.58
9102.00,1.58
9101.00,1.58
9100.00,1.58
9099.00,1.58
9098.00,1.58
9097.00,1.57
9096.00,1.57
9095.00,1.57
9094.00,1.57
9093.00,1.57
9092.00,1.57
9091.00,1.57
9090.00,1.57
9089.00,1.58
9088.00,1.58
9087.00,1.58
9086.00,1.58
9085.00,1.58
9084.00,1.58
9083.00,1.58
9082.00,1.58
9081.00,1.59
9080.00,1.59
9079.00,1.59
9078.00,1.59
9077.00,1.59
9076.00,1.59
9075.00,1.59
9074.00,1.59
9073.00,1.60
9072.00,1.60
9071.00,1.60
9070.00,1.60
9069.00,1.60
9068.00,1.60
9067.00,1.60
9066.00,1.60
9065.00,1.60
9064.00,1.60
9063.00,1.60
9062.00,1.60
9061.00,1.60
9060.00,1.60
9059.00,1.60
9058.00,1.60
9057.00,1.60
9056.00,1.60
9055.00,1.60
9054.00,1.60
9053.00,1.60
9052.00,1.60
9051.00,1.60
9050.00,1.60
9049.00,1.60
9048.00,1.60
9047.00,1.60
9046.00,1.60
9045.00,1.60
9044.00,1.60
9043.00,1.60
9042.00,1.60
9041.00,1.60
9040.00,1.60
9039.00,1.60
9038.00,1.60
9037.00,1.60
9036.00,1.60
9035.00,1.60
9034.00,1.60
9033.00,1.60
9032.00,1.60
9031.00,1.60
9030.00,1.60
9029.00,1.60
9028.00,1.60
9027.00,1.60
9026.00,1.60
9025.00,1.60
9024.00,1.60
9023.00,1.60
9022.00,1.61
9021.00,1.61
9020.00,1.61
9019.00,1.61
9018.00,1.61
9017.00,1.61
9016.00,1.61
9015.00,1.61
9014.00,1.61
9013.00,1.61
9012.00,1.62
9011.00,1.62
9010.00,1.62
9009.00,1.62
9008.00,1.62
9007.00,1.62
9006.00,1.62
9005.00,1.62
9004.00,1.62
9003.00,1.62
9002.00,1.62
9001.00,1.62
9000.00,1.62
8999.00,1.61
8998.00,1.61
8997.00,1.61
8996.00,1.61
8995.00,1.61
8994.00,1.61
8993.00,1.61
8992.00,1.61
8991.00,1.60
8990.00,1.60
8989.00,1.60
8988.00,1.60
8987.00,1.60
8986.00,1.60
8985.00,1.60
8984.00,1.60
8983.00,1.60
8982.00,1.60
8981.00,1.60
8980.00,1.60
8979.00,1.60
8978.00,1.60
8977.00,1.60
8976.00,1.60
8975.00,1.60
8974.00,1.60
8973.00,1.60
8972.00,1.61
8971.00,1.61
8970.00,1.61
8969.00,1.61
8968.00,1.61
8967.00,1.61
8966.00,1.61
8965.00,1.61
8964.00,1.61
8963.00,1.61
8962.00,1.61
8961.00,1.61
8960.00,1.61
8959.00,1.61
8958.00,1.61
8957.00,1.61
8956.00,1.61
8955.00,1.61
8954.00,1.61
8953.00,1.61
8952.00,1.61
8951.00,1.61
8950.00,1.61
8949.00,1.60
8948.00,1.60
8947.00,1.60
8946.00,1.60
8945.00,1.60
8944.00,1.60
8943.00,1.60
8942.00,1.60
8941.00,1.60
8940.00,1.60
8939.00,1.60
8938.00,1.60
8937.00,1.60
8936.00,1.60
8935.00,1.60
8934.00,1.60
8933.00,1.60
8932.00,1.60
8931.00,1.60
8930.00,1.61
8929.00,1.61
8928.00,1.61
8927.00,1.61
8926.00,1.61
8925.00,1.61
8924.00,1.61
8923.00,1.61
8922.00,1.61
8921.00,1.61
8920.00,1.61
8919.00,1.61
8918.00,1.61
8917.00,1.61
8916.00,1.61
8915.00,1.61
8914.00,1.61
8913.00,1.61
8912.00,1.61
8911.00,1.61
8910.00,1.61
8909.00,1.61
8908.00,1.61
8907.00,1.61
8906.00,1.61
8905.00,1.61
8904.00,1.61
8903.00,1.61
8902.00,1.61
8901.00,1.61
8900.00,1.61
8899.00,1.61
8898.00,1.61
8897.00,1.61
8896.00,1.61
8895.00,1.61
8894.00,1.61
8893.00,1.61
8892.00,1.61
8891.00,1.61
8890.00,1.61
8889.00,1.61
8888.00,1.61
8887.00,1.61
8886.00,1.61
8885.00,1.61
8884.00,1.61
8883.00,1.61
8882.00,1.61
8881.00,1.61
8880.00,1.61
8879.00,1.61
8878.00,1.61
8877.00,1.61
8876.00,1.61
8875.00,1.61
8874.00,1.61
8873.00,1.61
8872.00,1.61
8871.00,1.61
8870.00,1.61
8869.00,1.61
8868.00,1.61
8867.00,1.61
8866.00,1.61
8865.00,1.61
8864.00,1.61
8863.00,1.61
8862.00,1.61
8861.00,1.61
8860.00,1.61
8859.00,1.61
8858.00,1.61
8857.00,1.61
8856.00,1.61
8855.00,1.61
8854.00,1.61
8853.00,1.62
8852.00,1.62
8851.00,1.62
8850.00,1.62
8849.00,1.62
8848.00,1.62
8847.00,1.62
8846.00,1.62
8845.00,1.62
8844.00,1.62
8843.00,1.62
8842.00,1.61
8841.00,1.61
8840.00,1.61
8839.00,1.61
8838.00,1.61
8837.00,1.61
8836.00,1.60
8835.00,1.60
8834.00,1.60
8833.00,1.59
8832.00,1.59
8831.00,1.59
8830.00,1.59
8829.00,1.59
8828.00,1.58
8827.00,1.58
8826.00,1.58
8825.00,1.58
8824.00,1.58
8823.00,1.58
8822.00,1.58
8821.00,1.58
8820.00,1.57
8819.00,1.57
8818.00,1.57
8817.00,1.57
8816.00,1.57
8815.00,1.57
8814.00,1.57
8813.00,1.57
8812.00,1.58
8811.00,1.58
8810.00,1.58
8809.00,1.58
8808.00,1.58
8807.00,1.58
8806.00,1.58
8805.00,1.58
8804.00,1.58
8803.00,1.58
8802.00,1.59
8801.00,1.59
8800.00,1.59
8799.00,1.59
8798.00,1.59
8797.00,1.59
8796.00,1.59
8795.00,1.59
8794.00,1.59
8793.00,1.59
8792.00,1.58
8791.00,1.58
8790.00,1.58
8789.00,1.58
8788.00,1.58
8787.00,1.58
8786.00,1.58
8785.00,1.58
8784.00,1.58
8783.00,1.58
8782.00,1.58
8781.00,1.58
8780.00,1.58
8779.00,1.57
8778.00,1.57
8777.00,1.57
8776.00,1.57
8775.00,1.57
8774.00,1.57
8773.00,1.57
8772.00,1.57
8771.00,1.57
8770.00,1.57
8769.00,1.57
8768.00,1.57
8767.00,1.57
8766.00,1.57
8765.00,1.57
8764.00,1.57
8763.00,1.57
8762.00,1.57
8761.00,1.57
8760.00,1.57
8759.00,1.57
8758.00,1.58
8757.00,1.58
8756.00,1.58
8755.00,1.58
8754.00,1.58
8753.00,1.58
8752.00,1.58
8751.00,1.58
8750.00,1.58
8749.00,1.58
8748.00,1.58
8747.00,1.58
8746.00,1.58
8745.00,1.58
8744.00,1.58
8743.00,1.57
8742.00,1.57
8741.00,1.57
8740.00,1.57
8739.00,1.57
8738.00,1.56
8737.00,1.56
8736.00,1.56
8735.00,1.56
8734.00,1.56
8733.00,1.56
8732.00,1.56
8731.00,1.55
8730.00,1.55
8729.00,1.55
8728.00,1.55
8727.00,1.55
8726.00,1.55
8725.00,1.55
8724.00,1.55
8723.00,1.55
8722.00,1.55
8721.00,1.55
8720.00,1.55
8719.00,1.55
8718.00,1.55
8717.00,1.55
8716.00,1.55
8715.00,1.55
8714.00,1.55
8713.00,1.55
8712.00,1.55
8711.00,1.55
8710.00,1.55
8709.00,1.55
8708.00,1.55
8707.00,1.55
8706.00,1.55
8705.00,1.55
8704.00,1.55
8703.00,1.55
8702.00,1.55
8701.00,1.55
8700.00,1.55
8699.00,1.55
8698.00,1.54
8697.00,1.54
8696.00,1.54
8695.00,1.54
8694.00,1.54
8693.00,1.54
8692.00,1.54
8691.00,1.54
8690.00,1.54
8689.00,1.54
8688.00,1.54
8687.00,1.54
8686.00,1.54
8685.00,1.54
8684.00,1.54
8683.00,1.54
8682.00,1.54
8681.00,1.53
8680.00,1.53
8679.00,1.53
8678.00,1.53
8677.00,1.53
8676.00,1.53
8675.00,1.53
8674.00,1.53
8673.00,1.53
8672.00,1.53
8671.00,1.52
8670.00,1.52
8669.00,1.53
8668.00,1.53
8667.00,1.53
8666.00,1.53
8665.00,1.53
8664.00,1.53
8663.00,1.53
8662.00,1.53
8661.00,1.53
8660.00,1.53
8659.00,1.53
8658.00,1.53
8657.00,1.53
8656.00,1.53
8655.00,1.53
8654.00,1.53
8653.00,1.53
8652.00,1.53
8651.00,1.52
8650.00,1.52
8649.00,1.52
8648.00,1.52
8647.00,1.52
8646.00,1.52
8645.00,1.52
8644.00,1.52
8643.00,1.52
8642.00,1.52
8641.00,1.52
8640.00,1.52
8639.00,1.52
8638.00,1.52
8637.00,1.52
8636.00,1.52
8635.00,1.52
8634.00,1.52
8633.00,1.52
8632.00,1.52
8631.00,1.52
8630.00,1.52
8629.00,1.52
8628.00,1.52
8627.00,1.52
8626.00,1.52
8625.00,1.52
8624.00,1.52
8623.00,1.52
8622.00,1.52
8621.00,1.51
8620.00,1.51
8619.00,1.51
8618.00,1.51
8617.00,1.51
8616.00,1.51
8615.00,1.51
8614.00,1.51
8613.00,1.51
8612.00,1.51
8611.00,1.51
8610.00,1.51
8609.00,1.51
8608.00,1.51
8607.00,1.51
8606.00,1.51
8605.00,1.51
8604.00,1.51
8603.00,1.51
8602.00,1.51
8601.00,1.51
8600.00,1.52
8599.00,1.52
8598.00,1.52
8597.00,1.52
8596.00,1.52
8595.00,1.52
8594.00,1.52
8593.00,1.53
8592.00,1.53
8591.00,1.53
8590.00,1.52
8589.00,1.52
8588.00,1.52
8587.00,1.52
8586.00,1.52
8585.00,1.52
8584.00,1.52
8583.00,1.51
8582.00,1.51
8581.00,1.51
8580.00,1.51
8579.00,1.50
8578.00,1.50
8577.00,1.50
8576.00,1.50
8575.00,1.50
8574.00,1.49
8573.00,1.49
8572.00,1.49
8571.00,1.49
8570.00,1.49
8569.00,1.49
8568.00,1.49
8567.00,1.49
8566.00,1.49
8565.00,1.49
8564.00,1.49
8563.00,1.50
8562.00,1.50
8561.00,1.50
8560.00,1.50
8559.00,1.50
8558.00,1.50
8557.00,1.50
8556.00,1.50
8555.00,1.50
8554.00,1.49
8553.00,1.49
8552.00,1.49
8551.00,1.49
8550.00,1.49
8549.00,1.49
8548.00,1.49
8547.00,1.49
8546.00,1.49
8545.00,1.49
8544.00,1.49
8543.00,1.49
8542.00,1.49
8541.00,1.49
8540.00,1.49
8539.00,1.49
8538.00,1.49
8537.00,1.49
8536.00,1.49
8535.00,1.49
8534.00,1.48
8533.00,1.48
8532.00,1.48
8531.00,1.48
8530.00,1.48
8529.00,1.48
8528.00,1.48
8527.00,1.48
8526.00,1.48
8525.00,1.48
8524.00,1.48
8523.00,1.47
8522.00,1.47
8521.00,1.47
8520.00,1.47
8519.00,1.47
8518.00,1.47
8517.00,1.47
8516.00,1.47
8515.00,1.47
8514.00,1.46
8513.00,1.46
8512.00,1.46
8511.00,1.46
8510.00,1.46
8509.00,1.46
8508.00,1.46
8507.00,1.46
8506.00,1.46
8505.00,1.47
8504.00,1.47
8503.00,1.47
8502.00,1.47
8501.00,1.47
8500.00,1.47
8499.00,1.47
8498.00,1.47
8497.00,1.47
8496.00,1.47
8495.00,1.47
8494.00,1.47
8493.00,1.47
8492.00,1.47
8491.00,1.47
8490.00,1.47
8489.00,1.47
8488.00,1.47
8487.00,1.47
8486.00,1.47
8485.00,1.46
8484.00,1.46
8483.00,1.46
8482.00,1.46
8481.00,1.46
8480.00,1.46
8479.00,1.45
8478.00,1.45
8477.00,1.45
8476.00,1.45
8475.00,1.45
8474.00,1.45
8473.00,1.45
8472.00,1.45
8471.00,1.44
8470.00,1.44
8469.00,1.44
8468.00,1.44
8467.00,1.44
8466.00,1.44
8465.00,1.44
8464.00,1.44
8463.00,1.44
8462.00,1.43
8461.00,1.43
8460.00,1.43
8459.00,1.43
8458.00,1.43
8457.00,1.43
8456.00,1.43
8455.00,1.42
8454.00,1.42
8453.00,1.42
8452.00,1.42
8451.00,1.42
8450.00,1.42
8449.00,1.42
8448.00,1.42
8447.00,1.42
8446.00,1.42
8445.00,1.42
8444.00,1.42
8443.00,1.42
8442.00,1.42
8441.00,1.42
8440.00,1.42
8439.00,1.42
8438.00,1.42
8437.00,1.42
8436.00,1.42
8435.00,1.42
8434.00,1.42
8433.00,1.42
8432.00,1.42
8431.00,1.42
8430.00,1.42
8429.00,1.42
8428.00,1.42
8427.00,1.42
8426.00,1.42
8425.00,1.42
8424.00,1.41
8423.00,1.41
8422.00,1.41
8421.00,1.41
8420.00,1.41
8419.00,1.41
8418.00,1.41
8417.00,1.41
8416.00,1.41
8415.00,1.41
8414.00,1.41
8413.00,1.42
8412.00,1.42
8411.00,1.42
8410.00,1.42
8409.00,1.42
8408.00,1.43
8407.00,1.43
8406.00,1.43
8405.00,1.43
8404.00,1.43
8403.00,1.43
8402.00,1.44
8401.00,1.44
8400.00,1.44
8399.00,1.44
8398.00,1.44
8397.00,1.44
8396.00,1.44
8395.00,1.44
8394.00,1.44
8393.00,1.44
8392.00,1.45
8391.00,1.45
8390.00,1.45
8389.00,1.45
8388.00,1.45
8387.00,1.45
8386.00,1.45
8385.00,1.45
8384.00,1.45
8383.00,1.46
8382.00,1.46
8381.00,1.46
8380.00,1.46
8379.00,1.46
8378.00,1.46
8377.00,1.46
8376.00,1.46
8375.00,1.46
8374.00,1.46
8373.00,1.47
8372.00,1.47
8371.00,1.47
8370.00,1.47
8369.00,1.47
8368.00,1.47
8367.00,1.47
8366.00,1.47
8365.00,1.47
8364.00,1.47
8363.00,1.47
8362.00,1.47
8361.00,1.47
8360.00,1.47
8359.00,1.47
8358.00,1.46
8357.00,1.46
8356.00,1.46
8355.00,1.46
8354.00,1.46
8353.00,1.46
8352.00,1.46
8351.00,1.46
8350.00,1.46
8349.00,1.46
8348.00,1.46
8347.00,1.46
8346.00,1.46
8345.00,1.45
8344.00,1.45
8343.00,1.45
8342.00,1.45
8341.00,1.45
8340.00,1.46
8339.00,1.46
8338.00,1.46
8337.00,1.46
8336.00,1.46
8335.00,1.46
8334.00,1.46
8333.00,1.46
8332.00,1.46
8331.00,1.46
8330.00,1.46
8329.00,1.47
8328.00,1.47
8327.00,1.47
8326.00,1.47
8325.00,1.47
8324.00,1.47
8323.00,1.47
8322.00,1.47
8321.00,1.48
8320.00,1.48
8319.00,1.48
8318.00,1.48
8317.00,1.48
8316.00,1.48
8315.00,1.48
8314.00,1.48
8313.00,1.48
8312.00,1.48
8311.00,1.48
8310.00,1.48
8309.00,1.48
8308.00,1.48
8307.00,1.48
8306.00,1.48
8305.00,1.48
8304.00,1.48
8303.00,1.48
8302.00,1.48
8301.00,1.48
8300.00,1.48
8299.00,1.48
8298.00,1.48
8297.00,1.48
8296.00,1.48
8295.00,1.48
8294.00,1.48
8293.00,1.47
8292.00,1.47
8291.00,1.47
8290.00,1.47
8289.00,1.47
8288.00,1.47
8287.00,1.47
8286.00,1.47
8285.00,1.47
8284.00,1.47
8283.00,1.47
8282.00,1.47
8281.00,1.47
8280.00,1.48
8279.00,1.48
8278.00,1.48
8277.00,1.48
8276.00,1.48
8275.00,1.48
8274.00,1.48
8273.00,1.48
8272.00,1.48
8271.00,1.48
8270.00,1.48
8269.00,1.48
8268.00,1.48
8267.00,1.48
8266.00,1.48
8265.00,1.48
8264.00,1.48
8263.00,1.48
8262.00,1.48
8261.00,1.48
8260.00,1.48
8259.00,1.48
8258.00,1.48
8257.00,1.48
8256.00,1.49
8255.00,1.49
8254.00,1.49
8253.00,1.49
8252.00,1.49
8251.00,1.49
8250.00,1.49
8249.00,1.49
8248.00,1.49
8247.00,1.49
8246.00,1.49
8245.00,1.49
8244.00,1.49
8243.00,1.49
8242.00,1.49
8241.00,1.49
8240.00,1.49
8239.00,1.49
8238.00,1.49
8237.00,1.49
8236.00,1.49
8235.00,1.49
8234.00,1.49
8233.00,1.49
8232.00,1.49
8231.00,1.49
8230.00,1.49
8229.00,1.49
8228.00,1.50
8227.00,1.50
8226.00,1.50
8225.00,1.50
8224.00,1.50
8223.00,1.50
8222.00,1.50
8221.00,1.50
8220.00,1.50
8219.00,1.50
8218.00,1.50
8217.00,1.50
8216.00,1.50
8215.00,1.50
8214.00,1.50
8213.00,1.50
8212.00,1.50
8211.00,1.50
8210.00,1.50
8209.00,1.50
8208.00,1.50
8207.00,1.50
8206.00,1.50
8205.00,1.50
8204.00,1.50
8203.00,1.50
8202.00,1.50
8201.00,1.50
8200.00,1.50
8199.00,1.50
8198.00,1.50
8197.00,1.50
8196.00,1.50
8195.00,1.51
8194.00,1.51
8193.00,1.51
8192.00,1.51
8191.00,1.51
8190.00,1.51
8189.00,1.51
8188.00,1.51
8187.00,1.51
8186.00,1.51
8185.00,1.51
8184.00,1.51
8183.00,1.51
8182.00,1.51
8181.00,1.51
8180.00,1.51
8179.00,1.51
8178.00,1.51
8177.00,1.51
8176.00,1.51
8175.00,1.51
8174.00,1.51
8173.00,1.51
8172.00,1.51
8171.00,1.51
8170.00,1.51
8169.00,1.51
8168.00,1.51
8167.00,1.51
8166.00,1.51
8165.00,1.51
8164.00,1.52
8163.00,1.52
8162.00,1.52
8161.00,1.52
8160.00,1.52
8159.00,1.52
8158.00,1.52
8157.00,1.52
8156.00,1.52
8155.00,1.52
8154.00,1.52
8153.00,1.52
8152.00,1.52
8151.00,1.52
8150.00,1.52
8149.00,1.53
8148.00,1.53
8147.00,1.53
8146.00,1.53
8145.00,1.53
8144.00,1.53
8143.00,1.53
8142.00,1.53
8141.00,1.53
8140.00,1.53
8139.00,1.53
8138.00,1.53
8137.00,1.53
8136.00,1.53
8135.00,1.53
8134.00,1.54
8133.00,1.54
8132.00,1.54
8131.00,1.54
8130.00,1.54
8129.00,1.54
8128.00,1.54
8127.00,1.54
8126.00,1.54
8125.00,1.54
8124.00,1.54
8123.00,1.54
8122.00,1.54
8121.00,1.54
8120.00,1.54
8119.00,1.54
8118.00,1.54
8117.00,1.54
8116.00,1.54
8115.00,1.54
8114.00,1.54
8113.00,1.54
8112.00,1.54
8111.00,1.54
8110.00,1.54
8109.00,1.54
8108.00,1.54
8107.00,1.54
8106.00,1.54
8105.00,1.54
8104.00,1.54
8103.00,1.54
8102.00,1.54
8101.00,1.54
8100.00,1.54
8099.00,1.54
8098.00,1.54
8097.00,1.54
8096.00,1.54
8095.00,1.54
8094.00,1.54
8093.00,1.54
8092.00,1.54
8091.00,1.54
8090.00,1.54
8089.00,1.55
8088.00,1.55
8087.00,1.55
8086.00,1.55
8085.00,1.55
8084.00,1.55
8083.00,1.55
8082.00,1.55
8081.00,1.55
8080.00,1.55
8079.00,1.55
8078.00,1.55
8077.00,1.55
8076.00,1.55
8075.00,1.55
8074.00,1.55
8073.00,1.55
8072.00,1.55
8071.00,1.56
8070.00,1.56
8069.00,1.56
8068.00,1.56
8067.00,1.56
8066.00,1.56
8065.00,1.56
8064.00,1.56
8063.00,1.56
8062.00,1.56
8061.00,1.56
8060.00,1.56
8059.00,1.56
8058.00,1.56
8057.00,1.56
8056.00,1.56
8055.00,1.56
8054.00,1.56
8053.00,1.56
8052.00,1.56
8051.00,1.56
8050.00,1.56
8049.00,1.57
8048.00,1.57
8047.00,1.57
8046.00,1.57
8045.00,1.57
8044.00,1.57
8043.00,1.57
8042.00,1.57
8041.00,1.57
8040.00,1.57
8039.00,1.57
8038.00,1.57
8037.00,1.57
8036.00,1.57
8035.00,1.57
8034.00,1.57
8033.00,1.57
8032.00,1.56
8031.00,1.56
8030.00,1.56
8029.00,1.56
8028.00,1.56
8027.00,1.56
8026.00,1.56
8025.00,1.56
8024.00,1.56
8023.00,1.56
8022.00,1.56
8021.00,1.56
8020.00,1.56
8019.00,1.56
8018.00,1.56
8017.00,1.57
8016.00,1.57
8015.00,1.57
8014.00,1.57
8013.00,1.57
8012.00,1.57
8011.00,1.57
8010.00,1.57
8009.00,1.57
8008.00,1.57
8007.00,1.57
8006.00,1.57
8005.00,1.57
8004.00,1.57
8003.00,1.58
8002.00,1.58
8001.00,1.58
8000.00,1.58
7999.00,1.58
7998.00,1.58
7997.00,1.58
7996.00,1.58
7995.00,1.58
7994.00,1.58
7993.00,1.58
7992.00,1.58
7991.00,1.58
7990.00,1.57
7989.00,1.57
7988.00,1.57
7987.00,1.57
7986.00,1.57
7985.00,1.57
7984.00,1.57
7983.00,1.57
7982.00,1.57
7981.00,1.57
7980.00,1.57
7979.00,1.57
7978.00,1.57
7977.00,1.57
7976.00,1.57
7975.00,1.57
7974.00,1.57
7973.00,1.57
7972.00,1.57
7971.00,1.57
7970.00,1.57
7969.00,1.57
7968.00,1.57
7967.00,1.57
7966.00,1.57
7965.00,1.57
7964.00,1.57
7963.00,1.57
7962.00,1.57
7961.00,1.57
7960.00,1.57
7959.00,1.57
7958.00,1.57
7957.00,1.57
7956.00,1.57
7955.00,1.57
7954.00,1.57
7953.00,1.58
7952.00,1.58
7951.00,1.58
7950.00,1.58
7949.00,1.58
7948.00,1.58
7947.00,1.58
7946.00,1.58
7945.00,1.58
7944.00,1.58
7943.00,1.58
7942.00,1.58
7941.00,1.58
7940.00,1.58
7939.00,1.58
7938.00,1.58
7937.00,1.58
7936.00,1.58
7935.00,1.58
7934.00,1.58
7933.00,1.58
7932.00,1.58
7931.00,1.58
7930.00,1.58
7929.00,1.58
7928.00,1.58
7927.00,1.58
7926.00,1.58
7925.00,1.58
7924.00,1.58
7923.00,1.59
7922.00,1.59
7921.00,1.59
7920.00,1.59
7919.00,1.59
7918.00,1.59
7917.00,1.59
7916.00,1.59
7915.00,1.59
7914.00,1.59
7913.00,1.59
7912.00,1.59
7911.00,1.59
7910.00,1.59
7909.00,1.59
7908.00,1.59
7907.00,1.59
7906.00,1.59
7905.00,1.59
7904.00,1.59
7903.00,1.59
7902.00,1.59
7901.00,1.59
7900.00,1.59
7899.00,1.59
7898.00,1.60
7897.00,1.60
7896.00,1.60
7895.00,1.60
7894.00,1.60
7893.00,1.60
7892.00,1.60
7891.00,1.60
7890.00,1.60
7889.00,1.60
7888.00,1.60
7887.00,1.60
7886.00,1.60
7885.00,1.60
7884.00,1.60
7883.00,1.60
7882.00,1.60
7881.00,1.60
7880.00,1.60
7879.00,1.60
7878.00,1.60
7877.00,1.60
7876.00,1.60
7875.00,1.60
7874.00,1.60
7873.00,1.59
7872.00,1.59
7871.00,1.59
7870.00,1.59
7869.00,1.59
7868.00,1.59
7867.00,1.59
7866.00,1.59
7865.00,1.60
7864.00,1.60
7863.00,1.60
7862.00,1.60
7861.00,1.60
7860.00,1.60
7859.00,1.60
7858.00,1.60
7857.00,1.60
7856.00,1.60
7855.00,1.60
7854.00,1.60
7853.00,1.60
7852.00,1.60
7851.00,1.60
7850.00,1.59
7849.00,1.59
7848.00,1.59
7847.00,1.59
7846.00,1.59
7845.00,1.59
7844.00,1.59
7843.00,1.59
7842.00,1.59
7841.00,1.59
7840.00,1.59
7839.00,1.59
7838.00,1.59
7837.00,1.59
7836.00,1.59
7835.00,1.59
7834.00,1.59
7833.00,1.59
7832.00,1.59
7831.00,1.59
7830.00,1.59
7829.00,1.59
7828.00,1.59
7827.00,1.60
7826.00,1.60
7825.00,1.60
7824.00,1.60
7823.00,1.60
7822.00,1.60
7821.00,1.60
7820.00,1.60
7819.00,1.60
7818.00,1.60
7817.00,1.60
7816.00,1.60
7815.00,1.60
7814.00,1.60
7813.00,1.60
7812.00,1.60
7811.00,1.61
7810.00,1.61
7809.00,1.61
7808.00,1.61
7807.00,1.61
7806.00,1.61
7805.00,1.61
7804.00,1.61
7803.00,1.61
7802.00,1.61
7801.00,1.61
7800.00,1.61
7799.00,1.61
7798.00,1.61
7797.00,1.61
7796.00,1.61
7795.00,1.61
7794.00,1.61
7793.00,1.61
7792.00,1.61
7791.00,1.61
7790.00,1.61
7789.00,1.61
7788.00,1.61
7787.00,1.61
7786.00,1.61
7785.00,1.61
7784.00,1.61
7783.00,1.61
7782.00,1.61
7781.00,1.61
7780.00,1.61
7779.00,1.61
7778.00,1.61
7777.00,1.61
7776.00,1.61
7775.00,1.61
7774.00,1.61
7773.00,1.61
7772.00,1.61
7771.00,1.61
7770.00,1.62
7769.00,1.62
7768.00,1.62
7767.00,1.62
7766.00,1.62
7765.00,1.62
7764.00,1.62
7763.00,1.62
7762.00,1.62
7761.00,1.62
7760.00,1.62
7759.00,1.62
7758.00,1.62
7757.00,1.62
7756.00,1.62
7755.00,1.62
7754.00,1.62
7753.00,1.62
7752.00,1.62
7751.00,1.62
7750.00,1.62
7749.00,1.62
7748.00,1.62
7747.00,1.62
7746.00,1.61
7745.00,1.61
7744.00,1.61
7743.00,1.61
7742.00,1.61
7741.00,1.61
7740.00,1.61
7739.00,1.61
7738.00,1.61
7737.00,1.61
7736.00,1.61
7735.00,1.61
7734.00,1.61
7733.00,1.61
7732.00,1.61
7731.00,1.61
7730.00,1.61
7729.00,1.61
7728.00,1.61
7727.00,1.61
7726.00,1.61
7725.00,1.61
7724.00,1.61
7723.00,1.61
7722.00,1.61
7721.00,1.61
7720.00,1.61
7719.00,1.61
7718.00,1.61
7717.00,1.61
7716.00,1.61
7715.00,1.61
7714.00,1.61
7713.00,1.61
7712.00,1.61
7711.00,1.61
7710.00,1.61
7709.00,1.61
7708.00,1.61
7707.00,1.61
7706.00,1.61
7705.00,1.61
7704.00,1.61
7703.00,1.61
7702.00,1.61
7701.00,1.61
7700.00,1.61
7699.00,1.61
7698.00,1.61
7697.00,1.61
7696.00,1.61
7695.00,1.61
7694.00,1.61
7693.00,1.61
7692.00,1.61
7691.00,1.61
7690.00,1.61
7689.00,1.61
7688.00,1.61
7687.00,1.61
7686.00,1.61
7685.00,1.62
7684.00,1.62
7683.00,1.62
7682.00,1.62
7681.00,1.62
7680.00,1.62
7679.00,1.62
7678.00,1.62
7677.00,1.62
7676.00,1.62
7675.00,1.62
7674.00,1.62
7673.00,1.62
7672.00,1.62
7671.00,1.62
7670.00,1.62
7669.00,1.62
7668.00,1.62
7667.00,1.61
7666.00,1.61
7665.00,1.61
7664.00,1.61
7663.00,1.61
7662.00,1.61
7661.00,1.61
7660.00,1.61
7659.00,1.61
7658.00,1.61
7657.00,1.61
7656.00,1.61
7655.00,1.61
7654.00,1.62
7653.00,1.62
7652.00,1.62
7651.00,1.62
7650.00,1.62
7649.00,1.62
7648.00,1.62
7647.00,1.62
7646.00,1.62
7645.00,1.62
7644.00,1.62
7643.00,1.62
7642.00,1.62
7641.00,1.62
7640.00,1.62
7639.00,1.62
7638.00,1.62
7637.00,1.62
7636.00,1.62
7635.00,1.62
7634.00,1.62
7633.00,1.62
7632.00,1.61
7631.00,1.61
7630.00,1.61
7629.00,1.61
7628.00,1.61
7627.00,1.61
7626.00,1.62
7625.00,1.62
7624.00,1.62
7623.00,1.62
7622.00,1.62
7621.00,1.62
7620.00,1.62
7619.00,1.62
7618.00,1.62
7617.00,1.62
7616.00,1.62
7615.00,1.62
7614.00,1.62
7613.00,1.62
7612.00,1.62
7611.00,1.62
7610.00,1.62
7609.00,1.62
7608.00,1.62
7607.00,1.62
7606.00,1.62
7605.00,1.62
7604.00,1.62
7603.00,1.62
7602.00,1.61
7601.00,1.61
7600.00,1.61
7599.00,1.61
7598.00,1.61
7597.00,1.61
7596.00,1.61
7595.00,1.61
7594.00,1.61
7593.00,1.61
7592.00,1.61
7591.00,1.61
7590.00,1.61
7589.00,1.61
7588.00,1.61
7587.00,1.61
7586.00,1.61
7585.00,1.61
7584.00,1.61
7583.00,1.61
7582.00,1.61
7581.00,1.61
7580.00,1.61
7579.00,1.61
7578.00,1.61
7577.00,1.61
7576.00,1.62
7575.00,1.62
7574.00,1.62
7573.00,1.62
7572.00,1.62
7571.00,1.62
7570.00,1.62
7569.00,1.62
7568.00,1.62
7567.00,1.62
7566.00,1.62
7565.00,1.62
7564.00,1.62
7563.00,1.62
7562.00,1.62
7561.00,1.62
7560.00,1.62
7559.00,1.62
7558.00,1.62
7557.00,1.62
7556.00,1.62
7555.00,1.62
7554.00,1.62
7553.00,1.62
7552.00,1.62
7551.00,1.62
7550.00,1.62
7549.00,1.62
7548.00,1.62
7547.00,1.62
7546.00,1.62
7545.00,1.62
7544.00,1.62
7543.00,1.62
7542.00,1.62
7541.00,1.62
7540.00,1.62
7539.00,1.62
7538.00,1.62
7537.00,1.62
7536.00,1.62
7535.00,1.62
7534.00,1.62
7533.00,1.62
7532.00,1.62
7531.00,1.62
7530.00,1.62
7529.00,1.62
7528.00,1.62
7527.00,1.62
7526.00,1.62
7525.00,1.62
7524.00,1.61
7523.00,1.61
7522.00,1.61
7521.00,1.61
7520.00,1.61
7519.00,1.61
7518.00,1.61
7517.00,1.61
7516.00,1.61
7515.00,1.61
7514.00,1.61
7513.00,1.61
7512.00,1.61
7511.00,1.61
7510.00,1.61
7509.00,1.61
7508.00,1.61
7507.00,1.61
7506.00,1.61
7505.00,1.61
7504.00,1.61
7503.00,1.61
7502.00,1.61
7501.00,1.61
7500.00,1.61
7499.00,1.61
7498.00,1.61
7497.00,1.61
7496.00,1.61
7495.00,1.61
7494.00,1.60
7493.00,1.60
7492.00,1.60
7491.00,1.60
7490.00,1.60
7489.00,1.60
7488.00,1.60
7487.00,1.60
7486.00,1.60
7485.00,1.60
7484.00,1.60
7483.00,1.60
7482.00,1.60
7481.00,1.60
7480.00,1.60
7479.00,1.60
7478.00,1.60
7477.00,1.60
7476.00,1.60
7475.00,1.60
7474.00,1.60
7473.00,1.60
7472.00,1.60
7471.00,1.60
7470.00,1.60
7469.00,1.60
7468.00,1.59
7467.00,1.59
7466.00,1.59
7465.00,1.59
7464.00,1.59
7463.00,1.59
7462.00,1.59
7461.00,1.59
7460.00,1.59
7459.00,1.59
7458.00,1.59
7457.00,1.59
7456.00,1.59
7455.00,1.59
7454.00,1.59
7453.00,1.58
7452.00,1.58
7451.00,1.58
7450.00,1.58
7449.00,1.58
7448.00,1.58
7447.00,1.58
7446.00,1.58
7445.00,1.58
7444.00,1.58
7443.00,1.58
7442.00,1.58
7441.00,1.58
7440.00,1.58
7439.00,1.59
7438.00,1.59
7437.00,1.59
7436.00,1.59
7435.00,1.59
7434.00,1.59
7433.00,1.59
7432.00,1.58
7431.00,1.58
7430.00,1.58
7429.00,1.58
7428.00,1.58
7427.00,1.58
7426.00,1.58
7425.00,1.58
7424.00,1.58
7423.00,1.57
7422.00,1.57
7421.00,1.57
7420.00,1.57
7419.00,1.57
7418.00,1.57
7417.00,1.57
7416.00,1.56
7415.00,1.56
7414.00,1.56
7413.00,1.56
7412.00,1.56
7411.00,1.56
7410.00,1.56
7409.00,1.55
7408.00,1.55
7407.00,1.55
7406.00,1.55
7405.00,1.55
7404.00,1.55
7403.00,1.54
7402.00,1.54
7401.00,1.54
7400.00,1.54
7399.00,1.54
7398.00,1.54
7397.00,1.53
7396.00,1.53
7395.00,1.53
7394.00,1.53
7393.00,1.53
7392.00,1.53
7391.00,1.53
7390.00,1.53
7389.00,1.52
7388.00,1.52
7387.00,1.52
7386.00,1.52
7385.00,1.52
7384.00,1.52
7383.00,1.52
7382.00,1.52
7381.00,1.52
7380.00,1.52
7379.00,1.52
7378.00,1.52
7377.00,1.52
7376.00,1.52
7375.00,1.52
7374.00,1.52
7373.00,1.52
7372.00,1.52
7371.00,1.52
7370.00,1.52
7369.00,1.52
7368.00,1.52
7367.00,1.52
7366.00,1.52
7365.00,1.52
7364.00,1.52
7363.00,1.51
7362.00,1.51
7361.00,1.51
7360.00,1.51
7359.00,1.51
7358.00,1.51
7357.00,1.51
7356.00,1.51
7355.00,1.51
7354.00,1.51
7353.00,1.51
7352.00,1.51
7351.00,1.51
7350.00,1.51
7349.00,1.51
7348.00,1.51
7347.00,1.51
7346.00,1.51
7345.00,1.51
7344.00,1.50
7343.00,1.50
7342.00,1.50
7341.00,1.50
7340.00,1.50
7339.00,1.50
7338.00,1.50
7337.00,1.50
7336.00,1.50
7335.00,1.50
7334.00,1.51
7333.00,1.51
7332.00,1.51
7331.00,1.51
7330.00,1.51
7329.00,1.51
7328.00,1.51
7327.00,1.51
7326.00,1.51
7325.00,1.51
7324.00,1.51
7323.00,1.51
7322.00,1.52
7321.00,1.52
7320.00,1.51
7319.00,1.51
7318.00,1.51
7317.00,1.51
7316.00,1.51
7315.00,1.51
7314.00,1.51
7313.00,1.51
7312.00,1.50
7311.00,1.50
7310.00,1.50
7309.00,1.50
7308.00,1.50
7307.00,1.49
7306.00,1.49
7305.00,1.49
7304.00,1.49
7303.00,1.49
7302.00,1.49
7301.00,1.49
7300.00,1.48
7299.00,1.48
7298.00,1.48
7297.00,1.48
7296.00,1.48
7295.00,1.48
7294.00,1.48
7293.00,1.48
7292.00,1.48
7291.00,1.48
7290.00,1.47
7289.00,1.47
7288.00,1.47
7287.00,1.47
7286.00,1.47
7285.00,1.47
7284.00,1.47
7283.00,1.47
7282.00,1.46
7281.00,1.46
7280.00,1.46
7279.00,1.46
7278.00,1.46
7277.00,1.46
7276.00,1.45
7275.00,1.45
7274.00,1.45
7273.00,1.45
7272.00,1.45
7271.00,1.45
7270.00,1.45
7269.00,1.44
7268.00,1.44
7267.00,1.44
7266.00,1.44
7265.00,1.44
7264.00,1.44
7263.00,1.44
7262.00,1.44
7261.00,1.43
7260.00,1.43
7259.00,1.43
7258.00,1.43
7257.00,1.43
7256.00,1.43
7255.00,1.42
7254.00,1.42
7253.00,1.42
7252.00,1.42
7251.00,1.42
7250.00,1.41
7249.00,1.41
7248.00,1.41
7247.00,1.41
7246.00,1.41
7245.00,1.40
7244.00,1.40
7243.00,1.40
7242.00,1.40
7241.00,1.39
7240.00,1.39
7239.00,1.39
7238.00,1.39
7237.00,1.38
7236.00,1.38
7235.00,1.38
7234.00,1.37
7233.00,1.37
7232.00,1.37
7231.00,1.36
7230.00,1.36
7229.00,1.36
7228.00,1.35
7227.00,1.35
7226.00,1.35
7225.00,1.34
7224.00,1.34
7223.00,1.34
7222.00,1.33
7221.00,1.33
7220.00,1.33
7219.00,1.32
7218.00,1.32
7217.00,1.32
7216.00,1.31
7215.00,1.31
7214.00,1.31
7213.00,1.30
7212.00,1.30
7211.00,1.30
7210.00,1.29
7209.00,1.29
7208.00,1.29
7207.00,1.28
7206.00,1.28
7205.00,1.28
7204.00,1.27
7203.00,1.27
7202.00,1.27
7201.00,1.26
7200.00,1.26
7199.00,1.26
7198.00,1.25
7197.00,1.25
7196.00,1.25
7195.00,1.24
7194.00,1.24
7193.00,1.24
7192.00,1.23
7191.00,1.23
7190.00,1.23
7189.00,1.22
7188.00,1.22
7187.00,1.21
7186.00,1.21
7185.00,1.21
7184.00,1.20
7183.00,1.20
7182.00,1.19
7181.00,1.19
7180.00,1.18
7179.00,1.18
7178.00,1.18
7177.00,1.17
7176.00,1.17
7175.00,1.17
7174.00,1.16
7173.00,1.16
7172.00,1.16
7171.00,1.15
7170.00,1.15
7169.00,1.15
7168.00,1.15
7167.00,1.14
7166.00,1.14
7165.00,1.14
7164.00,1.14
7163.00,1.14
7162.00,1.13
7161.00,1.13
7160.00,1.13
7159.00,1.13
7158.00,1.12
7157.00,1.12
7156.00,1.12
7155.00,1.11
7154.00,1.11
7153.00,1.11
7152.00,1.10
7151.00,1.10
7150.00,1.10
7149.00,1.10
7148.00,1.09
7147.00,1.09
7146.00,1.09
7145.00,1.08
7144.00,1.08
7143.00,1.08
7142.00,1.07
7141.00,1.07
7140.00,1.07
7139.00,1.07
7138.00,1.06
7137.00,1.06
7136.00,1.06
7135.00,1.06
7134.00,1.05
7133.00,1.05
7132.00,1.05
7131.00,1.04
7130.00,1.04
7129.00,1.04
7128.00,1.03
7127.00,1.03
7126.00,1.03
7125.00,1.02
7124.00,1.02
7123.00,1.02
7122.00,1.01
7121.00,1.01
7120.00,1.01
7119.00,1.00
7118.00,1.00
7117.00,1.00
7116.00,0.99
7115.00,0.99
7114.00,0.99
7113.00,0.98
7112.00,0.98
7111.00,0.98
7110.00,0.97
7109.00,0.97
7108.00,0.97
7107.00,0.96
7106.00,0.96
7105.00,0.96
7104.00,0.95
7103.00,0.95
7102.00,0.95
7101.00,0.94
7100.00,0.94
7099.00,0.94
7098.00,0.94
7097.00,0.93
7096.00,0.93
7095.00,0.93
7094.00,0.93
7093.00,0.92
7092.00,0.92
7091.00,0.92
7090.00,0.92
7089.00,0.92
7088.00,0.92
7087.00,0.91
7086.00,0.91
7085.00,0.91
7084.00,0.91
7083.00,0.91
7082.00,0.91
7081.00,0.90
7080.00,0.90
7079.00,0.90
7078.00,0.90
7077.00,0.90
7076.00,0.89
7075.00,0.89
7074.00,0.89
7073.00,0.89
7072.00,0.88
7071.00,0.88
7070.00,0.88
7069.00,0.88
7068.00,0.88
7067.00,0.87
7066.00,0.87
7065.00,0.87
7064.00,0.87
7063.00,0.87
7062.00,0.86
7061.00,0.86
7060.00,0.86
7059.00,0.86
7058.00,0.86
7057.00,0.86
7056.00,0.85
7055.00,0.85
7054.00,0.85
7053.00,0.85
7052.00,0.85
7051.00,0.85
7050.00,0.85
7049.00,0.85
7048.00,0.84
7047.00,0.84
7046.00,0.84
7045.00,0.84
7044.00,0.84
7043.00,0.84
7042.00,0.84
7041.00,0.84
7040.00,0.83
7039.00,0.83
7038.00,0.83
7037.00,0.83
7036.00,0.83
7035.00,0.82
7034.00,0.82
7033.00,0.82
7032.00,0.82
7031.00,0.82
7030.00,0.81
7029.00,0.81
7028.00,0.81
7027.00,0.81
7026.00,0.81
7025.00,0.81
7024.00,0.80
7023.00,0.80
7022.00,0.80
7021.00,0.80
7020.00,0.80
7019.00,0.80
7018.00,0.79
7017.00,0.79
7016.00,0.79
7015.00,0.79
7014.00,0.79
7013.00,0.79
7012.00,0.79
7011.00,0.79
7010.00,0.79
7009.00,0.79
7008.00,0.78
7007.00,0.78
7006.00,0.78
7005.00,0.78
7004.00,0.78
7003.00,0.78
7002.00,0.78
7001.00,0.78
7000.00,0.78
6999.00,0.78
6998.00,0.78
6997.00,0.78
6996.00,0.77
6995.00,0.77
6994.00,0.77
6993.00,0.77
6992.00,0.77
6991.00,0.77
6990.00,0.77
6989.00,0.77
6988.00,0.77
6987.00,0.77
6986.00,0.77
6985.00,0.76
6984.00,0.76
6983.00,0.76
6982.00,0.76
6981.00,0.76
6980.00,0.76
6979.00,0.76
6978.00,0.76
6977.00,0.76
6976.00,0.76
6975.00,0.75
6974.00,0.75
6973.00,0.75
6972.00,0.75
6971.00,0.75
6970.00,0.75
6969.00,0.75
6968.00,0.75
6967.00,0.75
6966.00,0.74
6965.00,0.74
6964.00,0.74
6963.00,0.74
6962.00,0.74
6961.00,0.74
6960.00,0.74
6959.00,0.74
6958.00,0.74
6957.00,0.74
6956.00,0.74
6955.00,0.74
6954.00,0.74
6953.00,0.74
6952.00,0.74
6951.00,0.74
6950.00,0.74
6949.00,0.74
6948.00,0.74
6947.00,0.74
6946.00,0.74
6945.00,0.74
6944.00,0.74
6943.00,0.73
6942.00,0.73
6941.00,0.73
6940.00,0.73
6939.00,0.73
6938.00,0.73
6937.00,0.73
6936.00,0.73
6935.00,0.72
6934.00,0.72
6933.00,0.72
6932.00,0.72
6931.00,0.72
6930.00,0.72
6929.00,0.72
6928.00,0.72
6927.00,0.72
6926.00,0.72
6925.00,0.72
6924.00,0.72
6923.00,0.72
6922.00,0.72
6921.00,0.72
6920.00,0.72
6919.00,0.72
6918.00,0.71
6917.00,0.71
6916.00,0.71
6915.00,0.71
6914.00,0.71
6913.00,0.71
6912.00,0.72
6911.00,0.72
6910.00,0.72
6909.00,0.72
6908.00,0.72
6907.00,0.72
6906.00,0.72
6905.00,0.72
6904.00,0.72
6903.00,0.72
6902.00,0.72
6901.00,0.72
6900.00,0.72
6899.00,0.72
6898.00,0.72
6897.00,0.72
6896.00,0.72
6895.00,0.72
6894.00,0.72
6893.00,0.72
6892.00,0.72
6891.00,0.72
6890.00,0.72
6889.00,0.71
6888.00,0.71
6887.00,0.71
6886.00,0.71
6885.00,0.71
6884.00,0.71
6883.00,0.71
6882.00,0.71
6881.00,0.71
6880.00,0.71
6879.00,0.70
6878.00,0.70
6877.00,0.70
6876.00,0.70
6875.00,0.70
6874.00,0.70
6873.00,0.70
6872.00,0.70
6871.00,0.70
6870.00,0.70
6869.00,0.70
6868.00,0.70
6867.00,0.70
6866.00,0.71
6865.00,0.71
6864.00,0.71
6863.00,0.71
6862.00,0.71
6861.00,0.71
6860.00,0.71
6859.00,0.71
6858.00,0.71
6857.00,0.71
6856.00,0.71
6855.00,0.71
6854.00,0.71
6853.00,0.71
6852.00,0.71
6851.00,0.71
6850.00,0.71
6849.00,0.71
6848.00,0.71
6847.00,0.71
6846.00,0.71
6845.00,0.71
6844.00,0.71
6843.00,0.71
6842.00,0.71
6841.00,0.71
6840.00,0.71
6839.00,0.71
6838.00,0.71
6837.00,0.71
6836.00,0.71
6835.00,0.71
6834.00,0.71
6833.00,0.71
6832.00,0.71
6831.00,0.71
6830.00,0.71
6829.00,0.71
6828.00,0.71
6827.00,0.71
6826.00,0.71
6825.00,0.71
6824.00,0.71
6823.00,0.72
6822.00,0.72
6821.00,0.72
6820.00,0.72
6819.00,0.72
6818.00,0.72
6817.00,0.72
6816.00,0.72
6815.00,0.72
6814.00,0.72
6813.00,0.72
6812.00,0.72
6811.00,0.72
6810.00,0.72
6809.00,0.72
6808.00,0.72
6807.00,0.72
6806.00,0.73
6805.00,0.73
6804.00,0.73
6803.00,0.73
6802.00,0.73
6801.00,0.73
6800.00,0.73
6799.00,0.73
6798.00,0.73
6797.00,0.73
6796.00,0.73
6795.00,0.73
6794.00,0.73
6793.00,0.73
6792.00,0.73
6791.00,0.73
6790.00,0.74
6789.00,0.74
6788.00,0.74
6787.00,0.74
6786.00,0.74
6785.00,0.74
6784.00,0.74
6783.00,0.74
6782.00,0.74
6781.00,0.74
6780.00,0.74
6779.00,0.74
6778.00,0.74
6777.00,0.74
6776.00,0.74
6775.00,0.74
6774.00,0.74
6773.00,0.74
6772.00,0.74
6771.00,0.75
6770.00,0.75
6769.00,0.75
6768.00,0.75
6767.00,0.75
6766.00,0.75
6765.00,0.75
6764.00,0.75
6763.00,0.75
6762.00,0.75
6761.00,0.75
6760.00,0.75
6759.00,0.76
6758.00,0.76
6757.00,0.76
6756.00,0.76
6755.00,0.76
6754.00,0.76
6753.00,0.77
6752.00,0.77
6751.00,0.77
6750.00,0.77
6749.00,0.77
6748.00,0.77
6747.00,0.77
6746.00,0.77
6745.00,0.77
6744.00,0.78
6743.00,0.78
6742.00,0.78
6741.00,0.78
6740.00,0.78
6739.00,0.78
6738.00,0.78
6737.00,0.78
6736.00,0.78
6735.00,0.78
6734.00,0.78
6733.00,0.79
6732.00,0.79
6731.00,0.79
6730.00,0.79
6729.00,0.79
6728.00,0.79
6727.00,0.79
6726.00,0.79
6725.00,0.79
6724.00,0.80
6723.00,0.80
6722.00,0.80
6721.00,0.80
6720.00,0.80
6719.00,0.80
6718.00,0.80
6717.00,0.80
6716.00,0.81
6715.00,0.81
6714.00,0.81
6713.00,0.81
6712.00,0.81
6711.00,0.81
6710.00,0.81
6709.00,0.81
6708.00,0.81
6707.00,0.81
6706.00,0.81
6705.00,0.82
6704.00,0.82
6703.00,0.82
6702.00,0.82
6701.00,0.82
6700.00,0.82
6699.00,0.82
6698.00,0.82
6697.00,0.82
6696.00,0.83
6695.00,0.83
6694.00,0.83
6693.00,0.83
6692.00,0.83
6691.00,0.83
6690.00,0.83
6689.00,0.83
6688.00,0.83
6687.00,0.84
6686.00,0.84
6685.00,0.84
6684.00,0.84
6683.00,0.84
6682.00,0.84
6681.00,0.84
6680.00,0.84
6679.00,0.84
6678.00,0.85
6677.00,0.85
6676.00,0.85
6675.00,0.85
6674.00,0.85
6673.00,0.85
6672.00,0.85
6671.00,0.85
6670.00,0.86
6669.00,0.86
6668.00,0.86
6667.00,0.86
6666.00,0.86
6665.00,0.86
6664.00,0.86
6663.00,0.86
6662.00,0.87
6661.00,0.87
6660.00,0.87
6659.00,0.87
6658.00,0.87
6657.00,0.87
6656.00,0.87
6655.00,0.87
6654.00,0.87
6653.00,0.88
6652.00,0.88
6651.00,0.88
6650.00,0.88
6649.00,0.88
6648.00,0.88
6647.00,0.88
6646.00,0.88
6645.00,0.88
6644.00,0.89
6643.00,0.89
6642.00,0.89
6641.00,0.89
6640.00,0.89
6639.00,0.89
6638.00,0.89
6637.00,0.89
6636.00,0.90
6635.00,0.90
6634.00,0.90
6633.00,0.90
6632.00,0.90
6631.00,0.90
6630.00,0.90
6629.00,0.91
6628.00,0.91
6627.00,0.91
6626.00,0.91
6625.00,0.91
6624.00,0.91
6623.00,0.91
6622.00,0.92
6621.00,0.92
6620.00,0.92
6619.00,0.92
6618.00,0.92
6617.00,0.92
6616.00,0.92
6615.00,0.92
6614.00,0.93
6613.00,0.93
6612.00,0.93
6611.00,0.93
6610.00,0.93
6609.00,0.93
6608.00,0.93
6607.00,0.93
6606.00,0.94
6605.00,0.94
6604.00,0.94
6603.00,0.94
6602.00,0.94
6601.00,0.94
6600.00,0.94
6599.00,0.94
6598.00,0.95
6597.00,0.95
6596.00,0.95
6595.00,0.95
6594.00,0.95
6593.00,0.95
6592.00,0.95
6591.00,0.95
6590.00,0.96
6589.00,0.96
6588.00,0.96
6587.00,0.96
6586.00,0.96
6585.00,0.96
6584.00,0.96
6583.00,0.96
6582.00,0.97
6581.00,0.97
6580.00,0.97
6579.00,0.97
6578.00,0.97
6577.00,0.97
6576.00,0.97
6575.00,0.98
6574.00,0.98
6573.00,0.98
6572.00,0.98
6571.00,0.98
6570.00,0.98
6569.00,0.98
6568.00,0.98
6567.00,0.98
6566.00,0.99
6565.00,0.99
6564.00,0.99
6563.00,0.99
6562.00,0.99
6561.00,0.99
6560.00,0.99
6559.00,0.99
6558.00,0.99
6557.00,0.99
6556.00,0.99
6555.00,1.00
6554.00,1.00
6553.00,1.00
6552.00,1.00
6551.00,1.00
6550.00,1.00
6549.00,1.00
6548.00,1.00
6547.00,1.00
6546.00,1.01
6545.00,1.01
6544.00,1.01
6543.00,1.01
6542.00,1.01
6541.00,1.01
6540.00,1.01
6539.00,1.01
6538.00,1.01
6537.00,1.02
6536.00,1.02
6535.00,1.02
6534.00,1.02
6533.00,1.02
6532.00,1.02
6531.00,1.02
6530.00,1.02
6529.00,1.02
6528.00,1.02
6527.00,1.02
6526.00,1.02
6525.00,1.03
6524.00,1.03
6523.00,1.03
6522.00,1.03
6521.00,1.03
6520.00,1.03
6519.00,1.03
6518.00,1.03
6517.00,1.03
6516.00,1.03
6515.00,1.03
6514.00,1.03
6513.00,1.03
6512.00,1.03
6511.00,1.03
6510.00,1.03
6509.00,1.03
6508.00,1.03
6507.00,1.04
6506.00,1.04
6505.00,1.04
6504.00,1.04
6503.00,1.04
6502.00,1.04
6501.00,1.04
6500.00,1.04
6499.00,1.04
6498.00,1.05
6497.00,1.05
6496.00,1.05
6495.00,1.05
6494.00,1.05
6493.00,1.05
6492.00,1.05
6491.00,1.05
6490.00,1.05
6489.00,1.05
6488.00,1.06
6487.00,1.06
6486.00,1.06
6485.00,1.06
6484.00,1.06
6483.00,1.06
6482.00,1.06
6481.00,1.06
6480.00,1.06
6479.00,1.06
6478.00,1.06
6477.00,1.06
6476.00,1.06
6475.00,1.06
6474.00,1.06
6473.00,1.06
6472.00,1.06
6471.00,1.06
6470.00,1.06
6469.00,1.06
6468.00,1.07
6467.00,1.07
6466.00,1.07
6465.00,1.07
6464.00,1.07
6463.00,1.07
6462.00,1.07
6461.00,1.07
6460.00,1.07
6459.00,1.07
6458.00,1.07
6457.00,1.07
6456.00,1.07
6455.00,1.07
6454.00,1.07
6453.00,1.07
6452.00,1.07
6451.00,1.07
6450.00,1.07
6449.00,1.07
6448.00,1.07
6447.00,1.08
6446.00,1.08
6445.00,1.08
6444.00,1.08
6443.00,1.08
6442.00,1.08
6441.00,1.08
6440.00,1.08
6439.00,1.08
6438.00,1.08
6437.00,1.08
6436.00,1.08
6435.00,1.08
6434.00,1.08
6433.00,1.08
6432.00,1.08
6431.00,1.08
6430.00,1.08
6429.00,1.08
6428.00,1.08
6427.00,1.08
6426.00,1.09
6425.00,1.09
6424.00,1.09
6423.00,1.09
6422.00,1.09
6421.00,1.09
6420.00,1.09
6419.00,1.09
6418.00,1.09
6417.00,1.09
6416.00,1.09
6415.00,1.09
6414.00,1.09
6413.00,1.09
6412.00,1.10
6411.00,1.10
6410.00,1.10
6409.00,1.10
6408.00,1.10
6407.00,1.10
6406.00,1.10
6405.00,1.10
6404.00,1.10
6403.00,1.10
6402.00,1.10
6401.00,1.11
6400.00,1.11
6399.00,1.11
6398.00,1.11
6397.00,1.11
6396.00,1.11
6395.00,1.11
6394.00,1.11
6393.00,1.11
6392.00,1.11
6391.00,1.11
6390.00,1.11
6389.00,1.12
6388.00,1.12
6387.00,1.12
6386.00,1.12
6385.00,1.12
6384.00,1.12
6383.00,1.12
6382.00,1.12
6381.00,1.12
6380.00,1.12
6379.00,1.12
6378.00,1.12
6377.00,1.12
6376.00,1.12
6375.00,1.12
6374.00,1.12
6373.00,1.12
6372.00,1.12
6371.00,1.12
6370.00,1.12
6369.00,1.12
6368.00,1.12
6367.00,1.12
6366.00,1.12
6365.00,1.12
6364.00,1.12
6363.00,1.12
6362.00,1.13
6361.00,1.13
6360.00,1.13
6359.00,1.13
6358.00,1.13
6357.00,1.13
6356.00,1.13
6355.00,1.13
6354.00,1.13
6353.00,1.14
6352.00,1.14
6351.00,1.14
6350.00,1.14
6349.00,1.14
6348.00,1.14
6347.00,1.14
6346.00,1.14
6345.00,1.14
6344.00,1.15
6343.00,1.15
6342.00,1.15
6341.00,1.15
6340.00,1.15
6339.00,1.15
6338.00,1.15
6337.00,1.16
6336.00,1.16
6335.00,1.16
6334.00,1.16
6333.00,1.16
6332.00,1.16
6331.00,1.16
6330.00,1.16
6329.00,1.16
6328.00,1.17
6327.00,1.17
6326.00,1.17
6325.00,1.17
6324.00,1.17
6323.00,1.17
6322.00,1.17
6321.00,1.17
6320.00,1.17
6319.00,1.17
6318.00,1.17
6317.00,1.17
6316.00,1.17
6315.00,1.17
6314.00,1.17
6313.00,1.18
6312.00,1.18
6311.00,1.18
6310.00,1.18
6309.00,1.18
6308.00,1.18
6307.00,1.18
6306.00,1.18
6305.00,1.19
6304.00,1.19
6303.00,1.19
6302.00,1.19
6301.00,1.19
6300.00,1.19
6299.00,1.19
6298.00,1.20
6297.00,1.20
6296.00,1.20
6295.00,1.20
6294.00,1.20
6293.00,1.20
6292.00,1.20
6291.00,1.20
6290.00,1.20
6289.00,1.20
6288.00,1.21
6287.00,1.21
6286.00,1.21
6285.00,1.21
6284.00,1.21
6283.00,1.21
6282.00,1.21
6281.00,1.21
6280.00,1.21
6279.00,1.22
6278.00,1.22
6277.00,1.22
6276.00,1.22
6275.00,1.22
6274.00,1.22
6273.00,1.22
6272.00,1.22
6271.00,1.23
6270.00,1.23
6269.00,1.23
6268.00,1.23
6267.00,1.23
6266.00,1.23
6265.00,1.23
6264.00,1.23
6263.00,1.23
6262.00,1.24
6261.00,1.24
6260.00,1.24
6259.00,1.24
6258.00,1.24
6257.00,1.24
6256.00,1.24
6255.00,1.24
6254.00,1.25
6253.00,1.25
6252.00,1.25
6251.00,1.25
6250.00,1.25
6249.00,1.25
6248.00,1.26
6247.00,1.26
6246.00,1.26
6245.00,1.26
6244.00,1.26
6243.00,1.26
6242.00,1.27
6241.00,1.27
6240.00,1.27
6239.00,1.27
6238.00,1.27
6237.00,1.27
6236.00,1.27
6235.00,1.27
6234.00,1.28
6233.00,1.28
6232.00,1.28
6231.00,1.28
6230.00,1.28
6229.00,1.28
6228.00,1.28
6227.00,1.28
6226.00,1.28
6225.00,1.28
6224.00,1.29
6223.00,1.29
6222.00,1.29
6221.00,1.29
6220.00,1.29
6219.00,1.29
6218.00,1.29
6217.00,1.29
6216.00,1.29
6215.00,1.30
6214.00,1.30
6213.00,1.30
6212.00,1.30
6211.00,1.30
6210.00,1.30
6209.00,1.30
6208.00,1.31
6207.00,1.31
6206.00,1.31
6205.00,1.31
6204.00,1.31
6203.00,1.31
6202.00,1.32
6201.00,1.32
6200.00,1.32
6199.00,1.32
6198.00,1.32
6197.00,1.32
6196.00,1.33
6195.00,1.33
6194.00,1.33
6193.00,1.33
6192.00,1.33
6191.00,1.33
6190.00,1.34
6189.00,1.34
6188.00,1.34
6187.00,1.34
6186.00,1.34
6185.00,1.34
6184.00,1.35
6183.00,1.35
6182.00,1.35
6181.00,1.35
6180.00,1.35
6179.00,1.35
6178.00,1.35
6177.00,1.36
6176.00,1.36
6175.00,1.36
6174.00,1.36
6173.00,1.36
6172.00,1.36
6171.00,1.36
6170.00,1.37
6169.00,1.37
6168.00,1.37
6167.00,1.37
6166.00,1.37
6165.00,1.37
6164.00,1.37
6163.00,1.38
6162.00,1.38
6161.00,1.38
6160.00,1.38
6159.00,1.38
6158.00,1.38
6157.00,1.39
6156.00,1.39
6155.00,1.39
6154.00,1.39
6153.00,1.39
6152.00,1.39
6151.00,1.39
6150.00,1.40
6149.00,1.40
6148.00,1.40
6147.00,1.40
6146.00,1.40
6145.00,1.40
6144.00,1.40
6143.00,1.40
6142.00,1.41
6141.00,1.41
6140.00,1.41
6139.00,1.41
6138.00,1.41
6137.00,1.41
6136.00,1.41
6135.00,1.42
6134.00,1.42
6133.00,1.42
6132.00,1.42
6131.00,1.42
6130.00,1.42
6129.00,1.42
6128.00,1.42
6127.00,1.43
6126.00,1.43
6125.00,1.43
6124.00,1.43
6123.00,1.43
6122.00,1.43
6121.00,1.43
6120.00,1.44
6119.00,1.44
6118.00,1.44
6117.00,1.44
6116.00,1.44
6115.00,1.44
6114.00,1.44
6113.00,1.45
6112.00,1.45
6111.00,1.45
6110.00,1.45
6109.00,1.45
6108.00,1.45
6107.00,1.46
6106.00,1.46
6105.00,1.46
6104.00,1.46
6103.00,1.46
6102.00,1.46
6101.00,1.47
6100.00,1.47
6099.00,1.47
6098.00,1.47
6097.00,1.47
6096.00,1.47
6095.00,1.47
6094.00,1.48
6093.00,1.48
6092.00,1.48
6091.00,1.48
6090.00,1.48
6089.00,1.48
6088.00,1.49
6087.00,1.49
6086.00,1.49
6085.00,1.49
6084.00,1.49
6083.00,1.49
6082.00,1.50
6081.00,1.50
6080.00,1.50
6079.00,1.50
6078.00,1.50
6077.00,1.50
6076.00,1.51
6075.00,1.51
6074.00,1.51
6073.00,1.51
6072.00,1.51
6071.00,1.51
6070.00,1.51
6069.00,1.51
6068.00,1.51
6067.00,1.52
6066.00,1.52
6065.00,1.52
6064.00,1.52
6063.00,1.52
6062.00,1.52
6061.00,1.52
6060.00,1.52
6059.00,1.52
6058.00,1.52
6057.00,1.52
6056.00,1.52
6055.00,1.52
6054.00,1.52
6053.00,1.53
6052.00,1.53
6051.00,1.53
6050.00,1.53
6049.00,1.53
6048.00,1.53
6047.00,1.53
6046.00,1.53
6045.00,1.53
6044.00,1.53
6043.00,1.53
6042.00,1.53
6041.00,1.53
6040.00,1.53
6039.00,1.53
6038.00,1.53
6037.00,1.53
6036.00,1.53
6035.00,1.53
6034.00,1.53
6033.00,1.54
6032.00,1.54
6031.00,1.54
6030.00,1.54
6029.00,1.54
6028.00,1.54
6027.00,1.54
6026.00,1.54
6025.00,1.54
6024.00,1.54
6023.00,1.54
6022.00,1.54
6021.00,1.54
6020.00,1.54
6019.00,1.54
6018.00,1.54
6017.00,1.54
6016.00,1.54
6015.00,1.54
6014.00,1.54
6013.00,1.54
6012.00,1.54
6011.00,1.54
6010.00,1.54
6009.00,1.54
6008.00,1.54
6007.00,1.54
6006.00,1.54
6005.00,1.54
6004.00,1.54
6003.00,1.54
6002.00,1.53
6001.00,1.53
6000.00,1.53
5999.00,1.53
5998.00,1.53
5997.00,1.53
5996.00,1.53
5995.00,1.53
5994.00,1.53
5993.00,1.52
5992.00,1.52
5991.00,1.52
5990.00,1.52
5989.00,1.52
5988.00,1.51
5987.00,1.51
5986.00,1.51
5985.00,1.51
5984.00,1.50
5983.00,1.50
5982.00,1.50
5981.00,1.49
5980.00,1.49
5979.00,1.49
5978.00,1.48
5977.00,1.48
5976.00,1.47
5975.00,1.47
5974.00,1.46
5973.00,1.45
5972.00,1.45
5971.00,1.44
5970.00,1.43
5969.00,1.43
5968.00,1.42
5967.00,1.41
5966.00,1.40
5965.00,1.39
5964.00,1.39
5963.00,1.38
5962.00,1.37
5961.00,1.36
5960.00,1.35
5959.00,1.34
5958.00,1.34
5957.00,1.33
5956.00,1.32
5955.00,1.31
5954.00,1.30
5953.00,1.29
5952.00,1.29
5951.00,1.28
5950.00,1.27
5949.00,1.27
5948.00,1.26
5947.00,1.25
5946.00,1.25
5945.00,1.24
5944.00,1.24
5943.00,1.24
5942.00,1.23
5941.00,1.23
5940.00,1.23
5939.00,1.22
5938.00,1.22
5937.00,1.22
5936.00,1.22
5935.00,1.22
5934.00,1.22
5933.00,1.22
5932.00,1.21
5931.00,1.21
5930.00,1.21
5929.00,1.21
5928.00,1.21
5927.00,1.21
5926.00,1.21
5925.00,1.20
5924.00,1.20
5923.00,1.20
5922.00,1.20
5921.00,1.19
5920.00,1.19
5919.00,1.19
5918.00,1.19
5917.00,1.18
5916.00,1.18
5915.00,1.17
5914.00,1.17
5913.00,1.17
5912.00,1.16
5911.00,1.16
5910.00,1.16
5909.00,1.15
5908.00,1.15
5907.00,1.15
5906.00,1.15
5905.00,1.14
5904.00,1.14
5903.00,1.14
5902.00,1.14
5901.00,1.14
5900.00,1.14
5899.00,1.14
5898.00,1.14
5897.00,1.14
5896.00,1.14
5895.00,1.15
5894.00,1.15
5893.00,1.15
5892.00,1.15
5891.00,1.16
5890.00,1.16
5889.00,1.16
5888.00,1.17
5887.00,1.17
5886.00,1.17
5885.00,1.18
5884.00,1.18
5883.00,1.18
5882.00,1.19
5881.00,1.19
5880.00,1.20
5879.00,1.20
5878.00,1.20
5877.00,1.21
5876.00,1.21
5875.00,1.21
5874.00,1.21
5873.00,1.22
5872.00,1.22
5871.00,1.22
5870.00,1.22
5869.00,1.23
5868.00,1.23
5867.00,1.23
5866.00,1.23
5865.00,1.23
5864.00,1.24
5863.00,1.24
5862.00,1.24
5861.00,1.24
5860.00,1.24
5859.00,1.24
5858.00,1.24
5857.00,1.25
5856.00,1.25
5855.00,1.25
5854.00,1.25
5853.00,1.25
5852.00,1.25
5851.00,1.25
5850.00,1.25
5849.00,1.25
5848.00,1.26
5847.00,1.26
5846.00,1.26
5845.00,1.26
5844.00,1.26
5843.00,1.26
5842.00,1.26
5841.00,1.26
5840.00,1.26
5839.00,1.26
5838.00,1.26
5837.00,1.26
5836.00,1.26
5835.00,1.26
5834.00,1.26
5833.00,1.26
5832.00,1.26
5831.00,1.26
5830.00,1.26
5829.00,1.26
5828.00,1.26
5827.00,1.26
5826.00,1.26
5825.00,1.26
5824.00,1.26
5823.00,1.26
5822.00,1.26
5821.00,1.26
5820.00,1.26
5819.00,1.26
5818.00,1.26
5817.00,1.26
5816.00,1.26
5815.00,1.26
5814.00,1.26
5813.00,1.26
5812.00,1.26
5811.00,1.26
5810.00,1.26
5809.00,1.26
5808.00,1.26
5807.00,1.26
5806.00,1.26
5805.00,1.26
5804.00,1.25
5803.00,1.25
5802.00,1.25
5801.00,1.25
5800.00,1.25
5799.00,1.25
5798.00,1.25
5797.00,1.24
5796.00,1.24
5795.00,1.24
5794.00,1.24
5793.00,1.23
5792.00,1.23
5791.00,1.23
5790.00,1.23
5789.00,1.22
5788.00,1.22
5787.00,1.22
5786.00,1.22
5785.00,1.21
5784.00,1.21
5783.00,1.21
5782.00,1.21
5781.00,1.20
5780.00,1.20
5779.00,1.20
5778.00,1.20
5777.00,1.20
5776.00,1.20
5775.00,1.19
5774.00,1.19
5773.00,1.19
5772.00,1.19
5771.00,1.19
5770.00,1.19
5769.00,1.19
5768.00,1.19
5767.00,1.20
5766.00,1.20
5765.00,1.20
5764.00,1.20
5763.00,1.20
5762.00,1.21
5761.00,1.21
5760.00,1.21
5759.00,1.22
5758.00,1.22
5757.00,1.22
5756.00,1.23
5755.00,1.23
5754.00,1.24
5753.00,1.24
5752.00,1.24
5751.00,1.25
5750.00,1.25
5749.00,1.26
5748.00,1.26
5747.00,1.27
5746.00,1.27
5745.00,1.27
5744.00,1.28
5743.00,1.28
5742.00,1.28
5741.00,1.29
5740.00,1.29
5739.00,1.29
5738.00,1.30
5737.00,1.30
5736.00,1.30
5735.00,1.31
5734.00,1.31
5733.00,1.31
5732.00,1.31
5731.00,1.32
5730.00,1.32
5729.00,1.32
5728.00,1.32
5727.00,1.32
5726.00,1.33
5725.00,1.33
5724.00,1.33
5723.00,1.33
5722.00,1.33
5721.00,1.33
5720.00,1.33
5719.00,1.33
5718.00,1.34
5717.00,1.34
5716.00,1.34
5715.00,1.34
5714.00,1.34
5713.00,1.34
5712.00,1.34
5711.00,1.33
5710.00,1.33
5709.00,1.33
5708.00,1.33
5707.00,1.33
5706.00,1.33
5705.00,1.33
5704.00,1.33
5703.00,1.33
5702.00,1.33
5701.00,1.32
5700.00,1.32
5699.00,1.32
5698.00,1.32
5697.00,1.32
5696.00,1.32
5695.00,1.32
5694.00,1.31
5693.00,1.31
5692.00,1.31
5691.00,1.31
5690.00,1.31
5689.00,1.31
5688.00,1.30
5687.00,1.30
5686.00,1.30
5685.00,1.30
5684.00,1.30
5683.00,1.30
5682.00,1.29
5681.00,1.29
5680.00,1.29
5679.00,1.29
5678.00,1.29
5677.00,1.29
5676.00,1.29
5675.00,1.29
5674.00,1.29
5673.00,1.29
5672.00,1.29
5671.00,1.29
5670.00,1.29
5669.00,1.29
5668.00,1.29
5667.00,1.29
5666.00,1.29
5665.00,1.29
5664.00,1.30
5663.00,1.30
5662.00,1.30
5661.00,1.30
5660.00,1.30
5659.00,1.30
5658.00,1.31
5657.00,1.31
5656.00,1.31
5655.00,1.31
5654.00,1.31
5653.00,1.32
5652.00,1.32
5651.00,1.32
5650.00,1.32
5649.00,1.32
5648.00,1.33
5647.00,1.33
5646.00,1.33
5645.00,1.33
5644.00,1.34
5643.00,1.34
5642.00,1.34
5641.00,1.34
5640.00,1.35
5639.00,1.35
5638.00,1.35
5637.00,1.35
5636.00,1.36
5635.00,1.36
5634.00,1.36
5633.00,1.36
5632.00,1.36
5631.00,1.37
5630.00,1.37
5629.00,1.37
5628.00,1.37
5627.00,1.37
5626.00,1.37
5625.00,1.38
5624.00,1.38
5623.00,1.38
5622.00,1.38
5621.00,1.38
5620.00,1.39
5619.00,1.39
5618.00,1.39
5617.00,1.39
5616.00,1.39
5615.00,1.39
5614.00,1.40
5613.00,1.40
5612.00,1.40
5611.00,1.40
5610.00,1.40
5609.00,1.40
5608.00,1.41
5607.00,1.41
5606.00,1.41
5605.00,1.41
5604.00,1.41
5603.00,1.41
5602.00,1.42
5601.00,1.42
5600.00,1.42
5599.00,1.42
5598.00,1.43
5597.00,1.43
5596.00,1.43
5595.00,1.43
5594.00,1.43
5593.00,1.44
5592.00,1.44
5591.00,1.44
5590.00,1.44
5589.00,1.44
5588.00,1.45
5587.00,1.45
5586.00,1.45
5585.00,1.45
5584.00,1.45
5583.00,1.46
5582.00,1.46
5581.00,1.46
5580.00,1.46
5579.00,1.46
5578.00,1.47
5577.00,1.47
5576.00,1.47
5575.00,1.47
5574.00,1.47
5573.00,1.47
5572.00,1.48
5571.00,1.48
5570.00,1.48
5569.00,1.48
5568.00,1.48
5567.00,1.48
5566.00,1.49
5565.00,1.49
5564.00,1.49
5563.00,1.49
5562.00,1.49
5561.00,1.49
5560.00,1.49
5559.00,1.49
5558.00,1.49
5557.00,1.50
5556.00,1.50
5555.00,1.50
5554.00,1.50
5553.00,1.50
5552.00,1.50
5551.00,1.50
5550.00,1.50
5549.00,1.50
5548.00,1.50
5547.00,1.51
5546.00,1.51
5545.00,1.51
5544.00,1.51
5543.00,1.51
5542.00,1.51
5541.00,1.51
5540.00,1.52
5539.00,1.52
5538.00,1.52
5537.00,1.52
5536.00,1.52
5535.00,1.52
5534.00,1.52
5533.00,1.52
5532.00,1.53
5531.00,1.53
5530.00,1.53
5529.00,1.53
5528.00,1.53
5527.00,1.53
5526.00,1.53
5525.00,1.53
5524.00,1.53
5523.00,1.53
5522.00,1.53
5521.00,1.53
5520.00,1.54
5519.00,1.54
5518.00,1.54
5517.00,1.54
5516.00,1.54
5515.00,1.54
5514.00,1.54
5513.00,1.54
5512.00,1.54
5511.00,1.54
5510.00,1.54
5509.00,1.54
5508.00,1.54
5507.00,1.55
5506.00,1.55
5505.00,1.55
5504.00,1.55
5503.00,1.55
5502.00,1.55
5501.00,1.55
5500.00,1.55
5499.00,1.55
5498.00,1.55
5497.00,1.55
5496.00,1.55
5495.00,1.55
5494.00,1.56
5493.00,1.56
5492.00,1.56
5491.00,1.56
5490.00,1.56
5489.00,1.56
5488.00,1.56
5487.00,1.56
5486.00,1.56
5485.00,1.56
5484.00,1.57
5483.00,1.57
5482.00,1.57
5481.00,1.57
5480.00,1.57
5479.00,1.57
5478.00,1.57
5477.00,1.57
5476.00,1.57
5475.00,1.57
5474.00,1.58
5473.00,1.58
5472.00,1.58
5471.00,1.58
5470.00,1.58
5469.00,1.58
5468.00,1.58
5467.00,1.58
5466.00,1.59
5465.00,1.59
5464.00,1.59
5463.00,1.59
5462.00,1.59
5461.00,1.59
5460.00,1.60
5459.00,1.60
5458.00,1.60
5457.00,1.60
5456.00,1.60
5455.00,1.60
5454.00,1.60
5453.00,1.60
5452.00,1.61
5451.00,1.61
5450.00,1.61
5449.00,1.61
5448.00,1.61
5447.00,1.61
5446.00,1.61
5445.00,1.61
5444.00,1.61
5443.00,1.61
5442.00,1.61
5441.00,1.61
5440.00,1.61
5439.00,1.61
5438.00,1.61
5437.00,1.62
5436.00,1.62
5435.00,1.62
5434.00,1.62
5433.00,1.62
5432.00,1.62
5431.00,1.62
5430.00,1.62
5429.00,1.62
5428.00,1.62
5427.00,1.62
5426.00,1.62
5425.00,1.62
5424.00,1.62
5423.00,1.62
5422.00,1.62
5421.00,1.62
5420.00,1.62
5419.00,1.62
5418.00,1.62
5417.00,1.62
5416.00,1.62
5415.00,1.62
5414.00,1.62
5413.00,1.62
5412.00,1.62
5411.00,1.62
5410.00,1.62
5409.00,1.62
5408.00,1.62
5407.00,1.62
5406.00,1.62
5405.00,1.62
5404.00,1.62
5403.00,1.62
5402.00,1.62
5401.00,1.62
5400.00,1.62
5399.00,1.62
5398.00,1.62
5397.00,1.62
5396.00,1.62
5395.00,1.62
5394.00,1.62
5393.00,1.62
5392.00,1.62
5391.00,1.62
5390.00,1.61
5389.00,1.61
5388.00,1.61
5387.00,1.61
5386.00,1.61
5385.00,1.61
5384.00,1.61
5383.00,1.60
5382.00,1.60
5381.00,1.60
5380.00,1.60
5379.00,1.59
5378.00,1.59
5377.00,1.59
5376.00,1.59
5375.00,1.58
5374.00,1.58
5373.00,1.58
5372.00,1.57
5371.00,1.57
5370.00,1.56
5369.00,1.56
5368.00,1.56
5367.00,1.55
5366.00,1.55
5365.00,1.54
5364.00,1.53
5363.00,1.53
5362.00,1.52
5361.00,1.52
5360.00,1.51
5359.00,1.50
5358.00,1.50
5357.00,1.49
5356.00,1.48
5355.00,1.47
5354.00,1.46
5353.00,1.46
5352.00,1.45
5351.00,1.44
5350.00,1.43
5349.00,1.42
5348.00,1.41
5347.00,1.40
5346.00,1.39
5345.00,1.38
5344.00,1.37
5343.00,1.36
5342.00,1.35
5341.00,1.33
5340.00,1.32
5339.00,1.31
5338.00,1.30
5337.00,1.29
5336.00,1.27
5335.00,1.26
5334.00,1.25
5333.00,1.23
5332.00,1.22
5331.00,1.21
5330.00,1.19
5329.00,1.18
5328.00,1.16
5327.00,1.15
5326.00,1.14
5325.00,1.12
5324.00,1.11
5323.00,1.09
5322.00,1.08
5321.00,1.06
5320.00,1.05
5319.00,1.03
5318.00,1.02
5317.00,1.00
5316.00,0.99
5315.00,0.97
5314.00,0.96
5313.00,0.94
5312.00,0.93
5311.00,0.92
5310.00,0.90
5309.00,0.89
5308.00,0.88
5307.00,0.87
5306.00,0.85
5305.00,0.84
5304.00,0.83
5303.00,0.82
5302.00,0.81
5301.00,0.80
5300.00,0.79
5299.00,0.78
5298.00,0.77
5297.00,0.76
5296.00,0.76
5295.00,0.75
5294.00,0.74
5293.00,0.73
5292.00,0.73
5291.00,0.72
5290.00,0.71
5289.00,0.71
5288.00,0.70
5287.00,0.70
5286.00,0.69
5285.00,0.69
5284.00,0.68
5283.00,0.68
5282.00,0.67
5281.00,0.67
5280.00,0.67
5279.00,0.66
5278.00,0.66
5277.00,0.65
5276.00,0.65
5275.00,0.65
5274.00,0.65
5273.00,0.64
5272.00,0.64
5271.00,0.64
5270.00,0.63
5269.00,0.63
5268.00,0.63
5267.00,0.63
5266.00,0.62
5265.00,0.62
5264.00,0.62
5263.00,0.62
5262.00,0.62
5261.00,0.61
5260.00,0.61
5259.00,0.61
5258.00,0.61
5257.00,0.61
5256.00,0.61
5255.00,0.60
5254.00,0.60
5253.00,0.60
5252.00,0.60
5251.00,0.60
5250.00,0.60
5249.00,0.60
5248.00,0.60
5247.00,0.59
5246.00,0.59
5245.00,0.59
5244.00,0.59
5243.00,0.59
5242.00,0.59
5241.00,0.59
5240.00,0.59
5239.00,0.59
5238.00,0.59
5237.00,0.58
5236.00,0.58
5235.00,0.58
5234.00,0.58
5233.00,0.58
5232.00,0.58
5231.00,0.58
5230.00,0.58
5229.00,0.58
5228.00,0.58
5227.00,0.58
5226.00,0.58
5225.00,0.57
5224.00,0.57
5223.00,0.57
5222.00,0.57
5221.00,0.57
5220.00,0.57
5219.00,0.57
5218.00,0.58
5217.00,0.58
5216.00,0.58
5215.00,0.58
5214.00,0.58
5213.00,0.58
5212.00,0.58
5211.00,0.58
5210.00,0.58
5209.00,0.58
5208.00,0.58
5207.00,0.58
5206.00,0.57
5205.00,0.57
5204.00,0.57
5203.00,0.57
5202.00,0.57
5201.00,0.57
5200.00,0.57
5199.00,0.58
5198.00,0.58
5197.00,0.58
5196.00,0.58
5195.00,0.58
5194.00,0.58
5193.00,0.58
5192.00,0.58
5191.00,0.58
5190.00,0.58
5189.00,0.58
5188.00,0.58
5187.00,0.58
5186.00,0.58
5185.00,0.58
5184.00,0.58
5183.00,0.58
5182.00,0.58
5181.00,0.58
5180.00,0.58
5179.00,0.58
5178.00,0.58
5177.00,0.58
5176.00,0.58
5175.00,0.58
5174.00,0.58
5173.00,0.59
5172.00,0.59
5171.00,0.59
5170.00,0.59
5169.00,0.59
5168.00,0.59
5167.00,0.59
5166.00,0.59
5165.00,0.59
5164.00,0.59
5163.00,0.59
5162.00,0.59
5161.00,0.59
5160.00,0.60
5159.00,0.60
5158.00,0.60
5157.00,0.60
5156.00,0.60
5155.00,0.60
5154.00,0.60
5153.00,0.60
5152.00,0.60
5151.00,0.60
5150.00,0.60
5149.00,0.60
5148.00,0.60
5147.00,0.60
5146.00,0.60
5145.00,0.60
5144.00,0.60
5143.00,0.60
5142.00,0.60
5141.00,0.60
5140.00,0.60
5139.00,0.61
5138.00,0.61
5137.00,0.61
5136.00,0.61
5135.00,0.61
5134.00,0.61
5133.00,0.61
5132.00,0.61
5131.00,0.61
5130.00,0.61
5129.00,0.61
5128.00,0.61
5127.00,0.61
5126.00,0.62
5125.00,0.62
5124.00,0.62
5123.00,0.62
5122.00,0.62
5121.00,0.62
5120.00,0.62
5119.00,0.62
5118.00,0.62
5117.00,0.62
5116.00,0.62
5115.00,0.63
5114.00,0.63
5113.00,0.63
5112.00,0.63
5111.00,0.63
5110.00,0.63
5109.00,0.63
5108.00,0.63
5107.00,0.63
5106.00,0.63
5105.00,0.64
5104.00,0.64
5103.00,0.64
5102.00,0.64
5101.00,0.64
5100.00,0.64
5099.00,0.64
5098.00,0.64
5097.00,0.64
5096.00,0.64
5095.00,0.65
5094.00,0.65
5093.00,0.65
5092.00,0.65
5091.00,0.65
5090.00,0.65
5089.00,0.65
5088.00,0.65
5087.00,0.65
5086.00,0.65
5085.00,0.66
5084.00,0.66
5083.00,0.66
5082.00,0.66
5081.00,0.66
5080.00,0.66
5079.00,0.66
5078.00,0.67
5077.00,0.67
5076.00,0.67
5075.00,0.67
5074.00,0.67
5073.00,0.67
5072.00,0.67
5071.00,0.68
5070.00,0.68
5069.00,0.68
5068.00,0.68
5067.00,0.68
5066.00,0.68
5065.00,0.68
5064.00,0.69
5063.00,0.69
5062.00,0.69
5061.00,0.69
5060.00,0.69
5059.00,0.69
5058.00,0.69
5057.00,0.70
5056.00,0.70
5055.00,0.70
5054.00,0.70
5053.00,0.70
5052.00,0.70
5051.00,0.70
5050.00,0.71
5049.00,0.71
5048.00,0.71
5047.00,0.71
5046.00,0.71
5045.00,0.71
5044.00,0.72
5043.00,0.72
5042.00,0.72
5041.00,0.72
5040.00,0.72
5039.00,0.73
5038.00,0.73
5037.00,0.73
5036.00,0.73
5035.00,0.73
5034.00,0.73
5033.00,0.74
5032.00,0.74
5031.00,0.74
5030.00,0.74
5029.00,0.74
5028.00,0.74
5027.00,0.74
5026.00,0.75
5025.00,0.75
5024.00,0.75
5023.00,0.75
5022.00,0.75
5021.00,0.75
5020.00,0.75
5019.00,0.76
5018.00,0.76
5017.00,0.76
5016.00,0.76
5015.00,0.76
5014.00,0.77
5013.00,0.77
5012.00,0.77
5011.00,0.77
5010.00,0.77
5009.00,0.78
5008.00,0.78
5007.00,0.78
5006.00,0.78
5005.00,0.78
5004.00,0.79
5003.00,0.79
5002.00,0.79
5001.00,0.79
5000.00,0.80
4999.00,0.80
4998.00,0.80
4997.00,0.80
4996.00,0.80
4995.00,0.80
4994.00,0.81
4993.00,0.81
4992.00,0.81
4991.00,0.81
4990.00,0.81
4989.00,0.82
4988.00,0.82
4987.00,0.82
4986.00,0.82
4985.00,0.82
4984.00,0.82
4983.00,0.83
4982.00,0.83
4981.00,0.83
4980.00,0.83
4979.00,0.83
4978.00,0.83
4977.00,0.84
4976.00,0.84
4975.00,0.84
4974.00,0.84
4973.00,0.84
4972.00,0.84
4971.00,0.85
4970.00,0.85
4969.00,0.85
4968.00,0.85
4967.00,0.85
4966.00,0.85
4965.00,0.85
4964.00,0.86
4963.00,0.86
4962.00,0.86
4961.00,0.86
4960.00,0.86
4959.00,0.86
4958.00,0.86
4957.00,0.87
4956.00,0.87
4955.00,0.87
4954.00,0.87
4953.00,0.87
4952.00,0.88
4951.00,0.88
4950.00,0.88
4949.00,0.88
4948.00,0.88
4947.00,0.89
4946.00,0.89
4945.00,0.89
4944.00,0.89
4943.00,0.89
4942.00,0.90
4941.00,0.90
4940.00,0.90
4939.00,0.90
4938.00,0.90
4937.00,0.90
4936.00,0.90
4935.00,0.90
4934.00,0.90
4933.00,0.91
4932.00,0.91
4931.00,0.91
4930.00,0.91
4929.00,0.91
4928.00,0.91
4927.00,0.91
4926.00,0.91
4925.00,0.91
4924.00,0.91
4923.00,0.92
4922.00,0.92
4921.00,0.92
4920.00,0.92
4919.00,0.92
4918.00,0.92
4917.00,0.92
4916.00,0.92
4915.00,0.92
4914.00,0.92
4913.00,0.93
4912.00,0.93
4911.00,0.93
4910.00,0.93
4909.00,0.93
4908.00,0.93
4907.00,0.93
4906.00,0.93
4905.00,0.93
4904.00,0.93
4903.00,0.93
4902.00,0.93
4901.00,0.93
4900.00,0.93
4899.00,0.94
4898.00,0.94
4897.00,0.94
4896.00,0.94
4895.00,0.94
4894.00,0.94
4893.00,0.94
4892.00,0.94
4891.00,0.94
4890.00,0.94
4889.00,0.94
4888.00,0.94
4887.00,0.94
4886.00,0.94
4885.00,0.94
4884.00,0.94
4883.00,0.94
4882.00,0.94
4881.00,0.95
4880.00,0.95
4879.00,0.95
4878.00,0.95
4877.00,0.95
4876.00,0.95
4875.00,0.95
4874.00,0.95
4873.00,0.95
4872.00,0.95
4871.00,0.95
4870.00,0.95
4869.00,0.95
4868.00,0.95
4867.00,0.96
4866.00,0.96
4865.00,0.96
4864.00,0.96
4863.00,0.96
4862.00,0.96
4861.00,0.96
4860.00,0.96
4859.00,0.96
4858.00,0.96
4857.00,0.96
4856.00,0.96
4855.00,0.96
4854.00,0.97
4853.00,0.97
4852.00,0.97
4851.00,0.97
4850.00,0.97
4849.00,0.97
4848.00,0.97
4847.00,0.97
4846.00,0.97
4845.00,0.97
4844.00,0.97
4843.00,0.97
4842.00,0.98
4841.00,0.98
4840.00,0.98
4839.00,0.98
4838.00,0.98
4837.00,0.98
4836.00,0.98
4835.00,0.98
4834.00,0.99
4833.00,0.99
4832.00,0.99
4831.00,0.99
4830.00,0.99
4829.00,0.99
4828.00,0.99
4827.00,0.99
4826.00,0.99
4825.00,0.99
4824.00,0.99
4823.00,1.00
4822.00,1.00
4821.00,1.00
4820.00,1.00
4819.00,1.00
4818.00,1.00
4817.00,1.00
4816.00,1.00
4815.00,1.00
4814.00,1.00
4813.00,1.01
4812.00,1.01
4811.00,1.01
4810.00,1.01
4809.00,1.01
4808.00,1.01
4807.00,1.02
4806.00,1.02
4805.00,1.02
4804.00,1.02
4803.00,1.02
4802.00,1.03
4801.00,1.03
4800.00,1.03
4799.00,1.03
4798.00,1.03
4797.00,1.04
4796.00,1.04
4795.00,1.04
4794.00,1.04
4793.00,1.04
4792.00,1.05
4791.00,1.05
4790.00,1.05
4789.00,1.05
4788.00,1.05
4787.00,1.06
4786.00,1.06
4785.00,1.06
4784.00,1.07
4783.00,1.07
4782.00,1.07
4781.00,1.08
4780.00,1.08
4779.00,1.08
4778.00,1.09
4777.00,1.09
4776.00,1.09
4775.00,1.10
4774.00,1.10
4773.00,1.10
4772.00,1.10
4771.00,1.11
4770.00,1.11
4769.00,1.11
4768.00,1.11
4767.00,1.12
4766.00,1.12
4765.00,1.12
4764.00,1.12
4763.00,1.13
4762.00,1.13
4761.00,1.13
4760.00,1.13
4759.00,1.13
4758.00,1.14
4757.00,1.14
4756.00,1.14
4755.00,1.14
4754.00,1.15
4753.00,1.15
4752.00,1.15
4751.00,1.15
4750.00,1.16
4749.00,1.16
4748.00,1.16
4747.00,1.16
4746.00,1.17
4745.00,1.17
4744.00,1.17
4743.00,1.18
4742.00,1.18
4741.00,1.18
4740.00,1.19
4739.00,1.19
4738.00,1.19
4737.00,1.19
4736.00,1.20
4735.00,1.20
4734.00,1.20
4733.00,1.21
4732.00,1.21
4731.00,1.21
4730.00,1.22
4729.00,1.22
4728.00,1.22
4727.00,1.23
4726.00,1.23
4725.00,1.23
4724.00,1.23
4723.00,1.24
4722.00,1.24
4721.00,1.25
4720.00,1.25
4719.00,1.25
4718.00,1.26
4717.00,1.26
4716.00,1.26
4715.00,1.27
4714.00,1.27
4713.00,1.27
4712.00,1.28
4711.00,1.28
4710.00,1.28
4709.00,1.29
4708.00,1.29
4707.00,1.29
4706.00,1.30
4705.00,1.30
4704.00,1.30
4703.00,1.31
4702.00,1.31
4701.00,1.31
4700.00,1.32
4699.00,1.32
4698.00,1.32
4697.00,1.32
4696.00,1.33
4695.00,1.33
4694.00,1.33
4693.00,1.33
4692.00,1.34
4691.00,1.34
4690.00,1.34
4689.00,1.34
4688.00,1.35
4687.00,1.35
4686.00,1.35
4685.00,1.35
4684.00,1.35
4683.00,1.36
4682.00,1.36
4681.00,1.36
4680.00,1.36
4679.00,1.37
4678.00,1.37
4677.00,1.37
4676.00,1.38
4675.00,1.38
4674.00,1.38
4673.00,1.39
4672.00,1.39
4671.00,1.39
4670.00,1.39
4669.00,1.40
4668.00,1.40
4667.00,1.40
4666.00,1.41
4665.00,1.41
4664.00,1.41
4663.00,1.41
4662.00,1.42
4661.00,1.42
4660.00,1.42
4659.00,1.42
4658.00,1.43
4657.00,1.43
4656.00,1.43
4655.00,1.43
4654.00,1.43
4653.00,1.44
4652.00,1.44
4651.00,1.44
4650.00,1.44
4649.00,1.44
4648.00,1.45
4647.00,1.45
4646.00,1.45
4645.00,1.46
4644.00,1.46
4643.00,1.46
4642.00,1.46
4641.00,1.47
4640.00,1.47
4639.00,1.47
4638.00,1.48
4637.00,1.48
4636.00,1.48
4635.00,1.48
4634.00,1.49
4633.00,1.49
4632.00,1.49
4631.00,1.49
4630.00,1.49
4629.00,1.49
4628.00,1.50
4627.00,1.50
4626.00,1.50
4625.00,1.50
4624.00,1.50
4623.00,1.50
4622.00,1.50
4621.00,1.50
4620.00,1.51
4619.00,1.51
4618.00,1.51
4617.00,1.51
4616.00,1.51
4615.00,1.51
4614.00,1.51
4613.00,1.52
4612.00,1.52
4611.00,1.52
4610.00,1.52
4609.00,1.52
4608.00,1.52
4607.00,1.52
4606.00,1.52
4605.00,1.53
4604.00,1.53
4603.00,1.53
4602.00,1.53
4601.00,1.53
4600.00,1.53
4599.00,1.53
4598.00,1.53
4597.00,1.53
4596.00,1.54
4595.00,1.54
4594.00,1.54
4593.00,1.54
4592.00,1.54
4591.00,1.54
4590.00,1.54
4589.00,1.55
4588.00,1.55
4587.00,1.55
4586.00,1.55
4585.00,1.55
4584.00,1.55
4583.00,1.56
4582.00,1.56
4581.00,1.56
4580.00,1.56
4579.00,1.56
4578.00,1.56
4577.00,1.56
4576.00,1.57
4575.00,1.57
4574.00,1.57
4573.00,1.57
4572.00,1.57
4571.00,1.57
4570.00,1.57
4569.00,1.57
4568.00,1.58
4567.00,1.58
4566.00,1.58
4565.00,1.58
4564.00,1.58
4563.00,1.58
4562.00,1.58
4561.00,1.59
4560.00,1.59
4559.00,1.59
4558.00,1.59
4557.00,1.59
4556.00,1.59
4555.00,1.60
4554.00,1.60
4553.00,1.60
4552.00,1.60
4551.00,1.60
4550.00,1.60
4549.00,1.60
4548.00,1.61
4547.00,1.61
4546.00,1.61
4545.00,1.61
4544.00,1.61
4543.00,1.61
4542.00,1.61
4541.00,1.61
4540.00,1.61
4539.00,1.61
4538.00,1.61
4537.00,1.62
4536.00,1.62
4535.00,1.62
4534.00,1.62
4533.00,1.62
4532.00,1.62
4531.00,1.62
4530.00,1.62
4529.00,1.62
4528.00,1.62
4527.00,1.62
4526.00,1.62
4525.00,1.62
4524.00,1.62
4523.00,1.62
4522.00,1.62
4521.00,1.62
4520.00,1.62
4519.00,1.62
4518.00,1.62
4517.00,1.62
4516.00,1.62
4515.00,1.62
4514.00,1.62
4513.00,1.62
4512.00,1.62
4511.00,1.62
4510.00,1.62
4509.00,1.62
4508.00,1.62
4507.00,1.62
4506.00,1.62
4505.00,1.62
4504.00,1.62
4503.00,1.62
4502.00,1.62
4501.00,1.62
4500.00,1.62
4499.00,1.62
4498.00,1.62
4497.00,1.62
4496.00,1.62
4495.00,1.61
4494.00,1.61
4493.00,1.61
4492.00,1.61
4491.00,1.61
4490.00,1.61
4489.00,1.61
4488.00,1.60
4487.00,1.60
4486.00,1.60
4485.00,1.60
4484.00,1.59
4483.00,1.59
4482.00,1.59
4481.00,1.58
4480.00,1.58
4479.00,1.57
4478.00,1.57
4477.00,1.57
4476.00,1.56
4475.00,1.56
4474.00,1.55
4473.00,1.55
4472.00,1.54
4471.00,1.54
4470.00,1.53
4469.00,1.53
4468.00,1.52
4467.00,1.51
4466.00,1.51
4465.00,1.50
4464.00,1.50
4463.00,1.49
4462.00,1.49
4461.00,1.48
4460.00,1.47
4459.00,1.47
4458.00,1.46
4457.00,1.45
4456.00,1.44
4455.00,1.44
4454.00,1.43
4453.00,1.42
4452.00,1.41
4451.00,1.40
4450.00,1.39
4449.00,1.38
4448.00,1.37
4447.00,1.36
4446.00,1.35
4445.00,1.34
4444.00,1.33
4443.00,1.32
4442.00,1.31
4441.00,1.30
4440.00,1.29
4439.00,1.28
4438.00,1.27
4437.00,1.26
4436.00,1.25
4435.00,1.24
4434.00,1.23
4433.00,1.22
4432.00,1.21
4431.00,1.20
4430.00,1.19
4429.00,1.19
4428.00,1.18
4427.00,1.17
4426.00,1.16
4425.00,1.16
4424.00,1.15
4423.00,1.14
4422.00,1.14
4421.00,1.13
4420.00,1.13
4419.00,1.12
4418.00,1.12
4417.00,1.12
4416.00,1.11
4415.00,1.11
4414.00,1.11
4413.00,1.11
4412.00,1.11
4411.00,1.11
4410.00,1.11
4409.00,1.11
4408.00,1.11
4407.00,1.11
4406.00,1.11
4405.00,1.11
4404.00,1.11
4403.00,1.12
4402.00,1.12
4401.00,1.12
4400.00,1.12
4399.00,1.13
4398.00,1.13
4397.00,1.13
4396.00,1.13
4395.00,1.14
4394.00,1.14
4393.00,1.14
4392.00,1.15
4391.00,1.15
4390.00,1.15
4389.00,1.15
4388.00,1.16
4387.00,1.16
4386.00,1.16
4385.00,1.17
4384.00,1.17
4383.00,1.17
4382.00,1.17
4381.00,1.18
4380.00,1.18
4379.00,1.18
4378.00,1.18
4377.00,1.18
4376.00,1.19
4375.00,1.19
4374.00,1.19
4373.00,1.19
4372.00,1.19
4371.00,1.20
4370.00,1.20
4369.00,1.20
4368.00,1.20
4367.00,1.20
4366.00,1.20
4365.00,1.20
4364.00,1.20
4363.00,1.20
4362.00,1.20
4361.00,1.20
4360.00,1.20
4359.00,1.20
4358.00,1.20
4357.00,1.19
4356.00,1.19
4355.00,1.19
4354.00,1.19
4353.00,1.19
4352.00,1.19
4351.00,1.19
4350.00,1.18
4349.00,1.18
4348.00,1.18
4347.00,1.18
4346.00,1.18
4345.00,1.18
4344.00,1.18
4343.00,1.18
4342.00,1.18
4341.00,1.18
4340.00,1.18
4339.00,1.18
4338.00,1.18
4337.00,1.18
4336.00,1.18
4335.00,1.19
4334.00,1.19
4333.00,1.19
4332.00,1.19
4331.00,1.20
4330.00,1.20
4329.00,1.20
4328.00,1.21
4327.00,1.21
4326.00,1.21
4325.00,1.22
4324.00,1.22
4323.00,1.22
4322.00,1.23
4321.00,1.23
4320.00,1.24
4319.00,1.24
4318.00,1.24
4317.00,1.25
4316.00,1.25
4315.00,1.26
4314.00,1.26
4313.00,1.27
4312.00,1.27
4311.00,1.28
4310.00,1.28
4309.00,1.29
4308.00,1.29
4307.00,1.30
4306.00,1.30
4305.00,1.31
4304.00,1.31
4303.00,1.32
4302.00,1.32
4301.00,1.33
4300.00,1.33
4299.00,1.34
4298.00,1.34
4297.00,1.35
4296.00,1.35
4295.00,1.36
4294.00,1.36
4293.00,1.36
4292.00,1.37
4291.00,1.37
4290.00,1.38
4289.00,1.38
4288.00,1.38
4287.00,1.38
4286.00,1.39
4285.00,1.39
4284.00,1.39
4283.00,1.39
4282.00,1.40
4281.00,1.40
4280.00,1.40
4279.00,1.40
4278.00,1.40
4277.00,1.40
4276.00,1.40
4275.00,1.40
4274.00,1.39
4273.00,1.39
4272.00,1.39
4271.00,1.39
4270.00,1.39
4269.00,1.38
4268.00,1.38
4267.00,1.38
4266.00,1.37
4265.00,1.37
4264.00,1.37
4263.00,1.36
4262.00,1.36
4261.00,1.36
4260.00,1.35
4259.00,1.35
4258.00,1.35
4257.00,1.35
4256.00,1.35
4255.00,1.35
4254.00,1.35
4253.00,1.35
4252.00,1.35
4251.00,1.35
4250.00,1.35
4249.00,1.35
4248.00,1.35
4247.00,1.36
4246.00,1.36
4245.00,1.36
4244.00,1.37
4243.00,1.37
4242.00,1.38
4241.00,1.38
4240.00,1.39
4239.00,1.39
4238.00,1.40
4237.00,1.40
4236.00,1.41
4235.00,1.41
4234.00,1.42
4233.00,1.42
4232.00,1.43
4231.00,1.43
4230.00,1.44
4229.00,1.44
4228.00,1.44
4227.00,1.45
4226.00,1.45
4225.00,1.45
4224.00,1.46
4223.00,1.46
4222.00,1.46
4221.00,1.46
4220.00,1.46
4219.00,1.47
4218.00,1.47
4217.00,1.47
4216.00,1.47
4215.00,1.47
4214.00,1.47
4213.00,1.47
4212.00,1.47
4211.00,1.47
4210.00,1.47
4209.00,1.47
4208.00,1.47
4207.00,1.47
4206.00,1.47
4205.00,1.47
4204.00,1.47
4203.00,1.47
4202.00,1.47
4201.00,1.47
4200.00,1.47
4199.00,1.48
4198.00,1.48
4197.00,1.48
4196.00,1.48
4195.00,1.48
4194.00,1.48
4193.00,1.48
4192.00,1.49
4191.00,1.49
4190.00,1.49
4189.00,1.49
4188.00,1.49
4187.00,1.49
4186.00,1.49
4185.00,1.49
4184.00,1.49
4183.00,1.49
4182.00,1.49
4181.00,1.49
4180.00,1.49
4179.00,1.49
4178.00,1.49
4177.00,1.49
4176.00,1.49
4175.00,1.49
4174.00,1.49
4173.00,1.49
4172.00,1.49
4171.00,1.49
4170.00,1.49
4169.00,1.49
4168.00,1.49
4167.00,1.49
4166.00,1.49
4165.00,1.49
4164.00,1.49
4163.00,1.49
4162.00,1.49
4161.00,1.49
4160.00,1.49
4159.00,1.49
4158.00,1.48
4157.00,1.48
4156.00,1.48
4155.00,1.48
4154.00,1.48
4153.00,1.48
4152.00,1.48
4151.00,1.48
4150.00,1.48
4149.00,1.48
4148.00,1.48
4147.00,1.48
4146.00,1.48
4145.00,1.48
4144.00,1.48
4143.00,1.47
4142.00,1.47
4141.00,1.47
4140.00,1.47
4139.00,1.48
4138.00,1.48
4137.00,1.48
4136.00,1.48
4135.00,1.48
4134.00,1.48
4133.00,1.48
4132.00,1.48
4131.00,1.48
4130.00,1.48
4129.00,1.48
4128.00,1.48
4127.00,1.48
4126.00,1.48
4125.00,1.48
4124.00,1.48
4123.00,1.49
4122.00,1.49
4121.00,1.49
4120.00,1.49
4119.00,1.49
4118.00,1.49
4117.00,1.49
4116.00,1.49
4115.00,1.49
4114.00,1.49
4113.00,1.50
4112.00,1.50
4111.00,1.50
4110.00,1.50
4109.00,1.50
4108.00,1.50
4107.00,1.50
4106.00,1.50
4105.00,1.50
4104.00,1.50
4103.00,1.50
4102.00,1.50
4101.00,1.50
4100.00,1.50
4099.00,1.50
4098.00,1.50
4097.00,1.50
4096.00,1.50
4095.00,1.49
4094.00,1.49
4093.00,1.49
4092.00,1.49
4091.00,1.49
4090.00,1.49
4089.00,1.49
4088.00,1.49
4087.00,1.49
4086.00,1.49
4085.00,1.49
4084.00,1.49
4083.00,1.50
4082.00,1.50
4081.00,1.50
4080.00,1.50
4079.00,1.50
4078.00,1.50
4077.00,1.50
4076.00,1.50
4075.00,1.50
4074.00,1.50
4073.00,1.50
4072.00,1.50
4071.00,1.50
4070.00,1.51
4069.00,1.51
4068.00,1.51
4067.00,1.51
4066.00,1.51
4065.00,1.51
4064.00,1.52
4063.00,1.52
4062.00,1.52
4061.00,1.52
4060.00,1.52
4059.00,1.52
4058.00,1.52
4057.00,1.52
4056.00,1.53
4055.00,1.53
4054.00,1.53
4053.00,1.53
4052.00,1.53
4051.00,1.53
4050.00,1.53
4049.00,1.53
4048.00,1.54
4047.00,1.54
4046.00,1.54
4045.00,1.54
4044.00,1.54
4043.00,1.54
4042.00,1.54
4041.00,1.54
4040.00,1.54
4039.00,1.55
4038.00,1.55
4037.00,1.55
4036.00,1.55
4035.00,1.55
4034.00,1.55
4033.00,1.55
4032.00,1.55
4031.00,1.55
4030.00,1.55
4029.00,1.55
4028.00,1.55
4027.00,1.56
4026.00,1.56
4025.00,1.56
4024.00,1.57
4023.00,1.57
4022.00,1.57
4021.00,1.58
4020.00,1.58
4019.00,1.59
4018.00,1.59
4017.00,1.59
4016.00,1.60
4015.00,1.60
4014.00,1.60
4013.00,1.61
4012.00,1.61
4011.00,1.61
4010.00,1.61
4009.00,1.62
4008.00,1.62
4007.00,1.62
4006.00,1.62
4005.00,1.62
4004.00,1.62
4003.00,1.62
4002.00,1.62
4001.00,1.62
4000.00,1.61
