创建为新数据集,样品 267 用户 Administrator 日期 星期日, 七月 22 2018
cm-1,%T
10000.00,1.25
9999.00,1.25
9998.00,1.25
9997.00,1.25
9996.00,1.25
9995.00,1.25
9994.00,1.25
9993.00,1.25
9992.00,1.25
9991.00,1.24
9990.00,1.24
9989.00,1.24
9988.00,1.24
9987.00,1.24
9986.00,1.24
9985.00,1.24
9984.00,1.24
9983.00,1.24
9982.00,1.24
9981.00,1.23
9980.00,1.23
9979.00,1.23
9978.00,1.23
9977.00,1.23
9976.00,1.23
9975.00,1.23
9974.00,1.23
9973.00,1.23
9972.00,1.23
9971.00,1.23
9970.00,1.23
9969.00,1.23
9968.00,1.22
9967.00,1.22
9966.00,1.22
9965.00,1.22
9964.00,1.22
9963.00,1.22
9962.00,1.22
9961.00,1.22
9960.00,1.22
9959.00,1.22
9958.00,1.22
9957.00,1.22
9956.00,1.22
9955.00,1.22
9954.00,1.21
9953.00,1.21
9952.00,1.21
9951.00,1.21
9950.00,1.21
9949.00,1.21
9948.00,1.21
9947.00,1.21
9946.00,1.21
9945.00,1.21
9944.00,1.22
9943.00,1.22
9942.00,1.22
9941.00,1.22
9940.00,1.22
9939.00,1.23
9938.00,1.23
9937.00,1.23
9936.00,1.24
9935.00,1.24
9934.00,1.24
9933.00,1.24
9932.00,1.24
9931.00,1.25
9930.00,1.25
9929.00,1.25
9928.00,1.25
9927.00,1.25
9926.00,1.25
9925.00,1.25
9924.00,1.25
9923.00,1.24
9922.00,1.24
9921.00,1.24
9920.00,1.24
9919.00,1.24
9918.00,1.23
9917.00,1.23
9916.00,1.23
9915.00,1.23
9914.00,1.23
9913.00,1.22
9912.00,1.22
9911.00,1.22
9910.00,1.22
9909.00,1.22
9908.00,1.22
9907.00,1.22
9906.00,1.22
9905.00,1.22
9904.00,1.22
9903.00,1.22
9902.00,1.23
9901.00,1.23
9900.00,1.23
9899.00,1.23
9898.00,1.23
9897.00,1.23
9896.00,1.23
9895.00,1.23
9894.00,1.23
9893.00,1.23
9892.00,1.23
9891.00,1.23
9890.00,1.23
9889.00,1.23
9888.00,1.24
9887.00,1.24
9886.00,1.24
9885.00,1.24
9884.00,1.24
9883.00,1.24
9882.00,1.24
9881.00,1.24
9880.00,1.24
9879.00,1.24
9878.00,1.23
9877.00,1.23
9876.00,1.23
9875.00,1.23
9874.00,1.23
9873.00,1.23
9872.00,1.23
9871.00,1.22
9870.00,1.22
9869.00,1.22
9868.00,1.22
9867.00,1.22
9866.00,1.21
9865.00,1.21
9864.00,1.21
9863.00,1.21
9862.00,1.21
9861.00,1.21
9860.00,1.21
9859.00,1.20
9858.00,1.20
9857.00,1.20
9856.00,1.20
9855.00,1.20
9854.00,1.20
9853.00,1.20
9852.00,1.21
9851.00,1.21
9850.00,1.21
9849.00,1.21
9848.00,1.21
9847.00,1.21
9846.00,1.22
9845.00,1.22
9844.00,1.22
9843.00,1.22
9842.00,1.23
9841.00,1.23
9840.00,1.23
9839.00,1.23
9838.00,1.24
9837.00,1.24
9836.00,1.24
9835.00,1.24
9834.00,1.24
9833.00,1.24
9832.00,1.24
9831.00,1.24
9830.00,1.24
9829.00,1.24
9828.00,1.24
9827.00,1.24
9826.00,1.24
9825.00,1.24
9824.00,1.24
9823.00,1.24
9822.00,1.24
9821.00,1.24
9820.00,1.24
9819.00,1.24
9818.00,1.24
9817.00,1.24
9816.00,1.24
9815.00,1.24
9814.00,1.24
9813.00,1.24
9812.00,1.24
9811.00,1.25
9810.00,1.25
9809.00,1.25
9808.00,1.25
9807.00,1.25
9806.00,1.25
9805.00,1.24
9804.00,1.24
9803.00,1.24
9802.00,1.24
9801.00,1.24
9800.00,1.24
9799.00,1.24
9798.00,1.24
9797.00,1.23
9796.00,1.23
9795.00,1.23
9794.00,1.23
9793.00,1.23
9792.00,1.23
9791.00,1.23
9790.00,1.22
9789.00,1.22
9788.00,1.22
9787.00,1.22
9786.00,1.22
9785.00,1.23
9784.00,1.23
9783.00,1.23
9782.00,1.23
9781.00,1.23
9780.00,1.23
9779.00,1.23
9778.00,1.23
9777.00,1.24
9776.00,1.24
9775.00,1.24
9774.00,1.24
9773.00,1.24
9772.00,1.24
9771.00,1.25
9770.00,1.25
9769.00,1.25
9768.00,1.25
9767.00,1.25
9766.00,1.25
9765.00,1.25
9764.00,1.25
9763.00,1.24
9762.00,1.24
9761.00,1.24
9760.00,1.24
9759.00,1.24
9758.00,1.23
9757.00,1.23
9756.00,1.23
9755.00,1.23
9754.00,1.23
9753.00,1.22
9752.00,1.22
9751.00,1.22
9750.00,1.21
9749.00,1.21
9748.00,1.21
9747.00,1.21
9746.00,1.20
9745.00,1.20
9744.00,1.20
9743.00,1.20
9742.00,1.20
9741.00,1.20
9740.00,1.19
9739.00,1.19
9738.00,1.19
9737.00,1.19
9736.00,1.19
9735.00,1.20
9734.00,1.20
9733.00,1.20
9732.00,1.20
9731.00,1.20
9730.00,1.21
9729.00,1.21
9728.00,1.21
9727.00,1.21
9726.00,1.22
9725.00,1.22
9724.00,1.22
9723.00,1.23
9722.00,1.23
9721.00,1.23
9720.00,1.23
9719.00,1.23
9718.00,1.24
9717.00,1.24
9716.00,1.24
9715.00,1.24
9714.00,1.24
9713.00,1.24
9712.00,1.24
9711.00,1.23
9710.00,1.23
9709.00,1.23
9708.00,1.23
9707.00,1.23
9706.00,1.22
9705.00,1.22
9704.00,1.22
9703.00,1.22
9702.00,1.22
9701.00,1.21
9700.00,1.21
9699.00,1.21
9698.00,1.21
9697.00,1.21
9696.00,1.21
9695.00,1.21
9694.00,1.21
9693.00,1.21
9692.00,1.21
9691.00,1.21
9690.00,1.21
9689.00,1.21
9688.00,1.21
9687.00,1.21
9686.00,1.21
9685.00,1.21
9684.00,1.21
9683.00,1.21
9682.00,1.21
9681.00,1.21
9680.00,1.21
9679.00,1.21
9678.00,1.21
9677.00,1.21
9676.00,1.21
9675.00,1.21
9674.00,1.21
9673.00,1.21
9672.00,1.21
9671.00,1.21
9670.00,1.21
9669.00,1.21
9668.00,1.21
9667.00,1.21
9666.00,1.22
9665.00,1.22
9664.00,1.22
9663.00,1.22
9662.00,1.22
9661.00,1.22
9660.00,1.22
9659.00,1.22
9658.00,1.22
9657.00,1.22
9656.00,1.22
9655.00,1.22
9654.00,1.22
9653.00,1.22
9652.00,1.22
9651.00,1.22
9650.00,1.22
9649.00,1.22
9648.00,1.22
9647.00,1.22
9646.00,1.22
9645.00,1.22
9644.00,1.22
9643.00,1.22
9642.00,1.22
9641.00,1.22
9640.00,1.22
9639.00,1.22
9638.00,1.22
9637.00,1.22
9636.00,1.22
9635.00,1.22
9634.00,1.22
9633.00,1.22
9632.00,1.22
9631.00,1.22
9630.00,1.22
9629.00,1.22
9628.00,1.22
9627.00,1.23
9626.00,1.23
9625.00,1.23
9624.00,1.23
9623.00,1.23
9622.00,1.23
9621.00,1.23
9620.00,1.23
9619.00,1.23
9618.00,1.23
9617.00,1.23
9616.00,1.23
9615.00,1.23
9614.00,1.23
9613.00,1.23
9612.00,1.23
9611.00,1.23
9610.00,1.23
9609.00,1.23
9608.00,1.23
9607.00,1.23
9606.00,1.23
9605.00,1.23
9604.00,1.23
9603.00,1.23
9602.00,1.23
9601.00,1.23
9600.00,1.23
9599.00,1.22
9598.00,1.22
9597.00,1.22
9596.00,1.22
9595.00,1.22
9594.00,1.22
9593.00,1.22
9592.00,1.22
9591.00,1.22
9590.00,1.22
9589.00,1.22
9588.00,1.21
9587.00,1.21
9586.00,1.21
9585.00,1.21
9584.00,1.21
9583.00,1.21
9582.00,1.21
9581.00,1.21
9580.00,1.21
9579.00,1.21
9578.00,1.21
9577.00,1.21
9576.00,1.21
9575.00,1.21
9574.00,1.21
9573.00,1.21
9572.00,1.21
9571.00,1.21
9570.00,1.21
9569.00,1.21
9568.00,1.21
9567.00,1.21
9566.00,1.21
9565.00,1.21
9564.00,1.21
9563.00,1.21
9562.00,1.21
9561.00,1.21
9560.00,1.22
9559.00,1.22
9558.00,1.22
9557.00,1.22
9556.00,1.22
9555.00,1.22
9554.00,1.22
9553.00,1.22
9552.00,1.22
9551.00,1.23
9550.00,1.23
9549.00,1.23
9548.00,1.23
9547.00,1.23
9546.00,1.23
9545.00,1.23
9544.00,1.23
9543.00,1.23
9542.00,1.24
9541.00,1.23
9540.00,1.23
9539.00,1.23
9538.00,1.23
9537.00,1.23
9536.00,1.23
9535.00,1.23
9534.00,1.23
9533.00,1.23
9532.00,1.23
9531.00,1.23
9530.00,1.23
9529.00,1.23
9528.00,1.23
9527.00,1.23
9526.00,1.23
9525.00,1.23
9524.00,1.23
9523.00,1.23
9522.00,1.23
9521.00,1.24
9520.00,1.24
9519.00,1.24
9518.00,1.24
9517.00,1.24
9516.00,1.25
9515.00,1.25
9514.00,1.25
9513.00,1.25
9512.00,1.25
9511.00,1.25
9510.00,1.25
9509.00,1.25
9508.00,1.24
9507.00,1.24
9506.00,1.24
9505.00,1.24
9504.00,1.24
9503.00,1.24
9502.00,1.24
9501.00,1.24
9500.00,1.23
9499.00,1.23
9498.00,1.23
9497.00,1.23
9496.00,1.23
9495.00,1.23
9494.00,1.23
9493.00,1.22
9492.00,1.22
9491.00,1.22
9490.00,1.22
9489.00,1.22
9488.00,1.22
9487.00,1.22
9486.00,1.22
9485.00,1.22
9484.00,1.22
9483.00,1.22
9482.00,1.22
9481.00,1.22
9480.00,1.22
9479.00,1.23
9478.00,1.23
9477.00,1.23
9476.00,1.23
9475.00,1.23
9474.00,1.23
9473.00,1.23
9472.00,1.23
9471.00,1.24
9470.00,1.24
9469.00,1.24
9468.00,1.24
9467.00,1.24
9466.00,1.24
9465.00,1.24
9464.00,1.24
9463.00,1.24
9462.00,1.24
9461.00,1.24
9460.00,1.24
9459.00,1.24
9458.00,1.24
9457.00,1.24
9456.00,1.24
9455.00,1.24
9454.00,1.24
9453.00,1.24
9452.00,1.24
9451.00,1.24
9450.00,1.24
9449.00,1.24
9448.00,1.24
9447.00,1.24
9446.00,1.24
9445.00,1.24
9444.00,1.24
9443.00,1.24
9442.00,1.24
9441.00,1.23
9440.00,1.23
9439.00,1.23
9438.00,1.23
9437.00,1.23
9436.00,1.23
9435.00,1.24
9434.00,1.24
9433.00,1.24
9432.00,1.24
9431.00,1.24
9430.00,1.24
9429.00,1.24
9428.00,1.24
9427.00,1.24
9426.00,1.24
9425.00,1.24
9424.00,1.24
9423.00,1.24
9422.00,1.24
9421.00,1.24
9420.00,1.24
9419.00,1.24
9418.00,1.24
9417.00,1.24
9416.00,1.24
9415.00,1.24
9414.00,1.24
9413.00,1.24
9412.00,1.24
9411.00,1.24
9410.00,1.24
9409.00,1.24
9408.00,1.24
9407.00,1.24
9406.00,1.23
9405.00,1.23
9404.00,1.23
9403.00,1.23
9402.00,1.23
9401.00,1.23
9400.00,1.23
9399.00,1.23
9398.00,1.23
9397.00,1.23
9396.00,1.23
9395.00,1.23
9394.00,1.23
9393.00,1.23
9392.00,1.23
9391.00,1.23
9390.00,1.23
9389.00,1.24
9388.00,1.24
9387.00,1.24
9386.00,1.24
9385.00,1.24
9384.00,1.24
9383.00,1.24
9382.00,1.24
9381.00,1.24
9380.00,1.24
9379.00,1.24
9378.00,1.24
9377.00,1.24
9376.00,1.24
9375.00,1.24
9374.00,1.23
9373.00,1.23
9372.00,1.23
9371.00,1.23
9370.00,1.22
9369.00,1.22
9368.00,1.22
9367.00,1.22
9366.00,1.22
9365.00,1.22
9364.00,1.22
9363.00,1.22
9362.00,1.22
9361.00,1.22
9360.00,1.22
9359.00,1.22
9358.00,1.22
9357.00,1.22
9356.00,1.22
9355.00,1.22
9354.00,1.23
9353.00,1.23
9352.00,1.23
9351.00,1.23
9350.00,1.23
9349.00,1.23
9348.00,1.22
9347.00,1.22
9346.00,1.22
9345.00,1.22
9344.00,1.22
9343.00,1.22
9342.00,1.22
9341.00,1.21
9340.00,1.21
9339.00,1.21
9338.00,1.21
9337.00,1.21
9336.00,1.21
9335.00,1.21
9334.00,1.21
9333.00,1.21
9332.00,1.21
9331.00,1.21
9330.00,1.21
9329.00,1.21
9328.00,1.21
9327.00,1.21
9326.00,1.22
9325.00,1.22
9324.00,1.22
9323.00,1.22
9322.00,1.22
9321.00,1.22
9320.00,1.22
9319.00,1.22
9318.00,1.23
9317.00,1.23
9316.00,1.23
9315.00,1.23
9314.00,1.23
9313.00,1.23
9312.00,1.23
9311.00,1.23
9310.00,1.23
9309.00,1.23
9308.00,1.23
9307.00,1.23
9306.00,1.23
9305.00,1.23
9304.00,1.23
9303.00,1.22
9302.00,1.22
9301.00,1.22
9300.00,1.22
9299.00,1.22
9298.00,1.22
9297.00,1.22
9296.00,1.22
9295.00,1.22
9294.00,1.22
9293.00,1.22
9292.00,1.22
9291.00,1.22
9290.00,1.22
9289.00,1.22
9288.00,1.22
9287.00,1.22
9286.00,1.22
9285.00,1.23
9284.00,1.23
9283.00,1.23
9282.00,1.23
9281.00,1.23
9280.00,1.23
9279.00,1.23
9278.00,1.23
9277.00,1.23
9276.00,1.23
9275.00,1.23
9274.00,1.23
9273.00,1.23
9272.00,1.23
9271.00,1.23
9270.00,1.23
9269.00,1.23
9268.00,1.23
9267.00,1.24
9266.00,1.24
9265.00,1.24
9264.00,1.24
9263.00,1.24
9262.00,1.24
9261.00,1.24
9260.00,1.24
9259.00,1.24
9258.00,1.24
9257.00,1.24
9256.00,1.24
9255.00,1.24
9254.00,1.24
9253.00,1.24
9252.00,1.24
9251.00,1.24
9250.00,1.24
9249.00,1.24
9248.00,1.23
9247.00,1.23
9246.00,1.23
9245.00,1.23
9244.00,1.22
9243.00,1.22
9242.00,1.22
9241.00,1.22
9240.00,1.22
9239.00,1.22
9238.00,1.22
9237.00,1.22
9236.00,1.22
9235.00,1.22
9234.00,1.22
9233.00,1.22
9232.00,1.22
9231.00,1.23
9230.00,1.23
9229.00,1.23
9228.00,1.23
9227.00,1.23
9226.00,1.23
9225.00,1.23
9224.00,1.23
9223.00,1.23
9222.00,1.23
9221.00,1.23
9220.00,1.23
9219.00,1.23
9218.00,1.22
9217.00,1.22
9216.00,1.22
9215.00,1.22
9214.00,1.22
9213.00,1.21
9212.00,1.21
9211.00,1.21
9210.00,1.21
9209.00,1.21
9208.00,1.21
9207.00,1.21
9206.00,1.21
9205.00,1.21
9204.00,1.21
9203.00,1.21
9202.00,1.21
9201.00,1.21
9200.00,1.22
9199.00,1.22
9198.00,1.22
9197.00,1.22
9196.00,1.22
9195.00,1.22
9194.00,1.23
9193.00,1.23
9192.00,1.23
9191.00,1.23
9190.00,1.23
9189.00,1.23
9188.00,1.23
9187.00,1.23
9186.00,1.23
9185.00,1.23
9184.00,1.23
9183.00,1.23
9182.00,1.23
9181.00,1.23
9180.00,1.23
9179.00,1.23
9178.00,1.23
9177.00,1.23
9176.00,1.23
9175.00,1.23
9174.00,1.23
9173.00,1.23
9172.00,1.23
9171.00,1.23
9170.00,1.23
9169.00,1.23
9168.00,1.23
9167.00,1.23
9166.00,1.23
9165.00,1.23
9164.00,1.23
9163.00,1.23
9162.00,1.23
9161.00,1.22
9160.00,1.22
9159.00,1.22
9158.00,1.22
9157.00,1.22
9156.00,1.22
9155.00,1.22
9154.00,1.23
9153.00,1.23
9152.00,1.23
9151.00,1.23
9150.00,1.23
9149.00,1.23
9148.00,1.23
9147.00,1.23
9146.00,1.23
9145.00,1.24
9144.00,1.24
9143.00,1.24
9142.00,1.24
9141.00,1.24
9140.00,1.24
9139.00,1.24
9138.00,1.24
9137.00,1.24
9136.00,1.24
9135.00,1.24
9134.00,1.24
9133.00,1.24
9132.00,1.24
9131.00,1.24
9130.00,1.24
9129.00,1.24
9128.00,1.24
9127.00,1.24
9126.00,1.24
9125.00,1.24
9124.00,1.24
9123.00,1.24
9122.00,1.24
9121.00,1.23
9120.00,1.23
9119.00,1.23
9118.00,1.23
9117.00,1.23
9116.00,1.23
9115.00,1.23
9114.00,1.23
9113.00,1.23
9112.00,1.22
9111.00,1.22
9110.00,1.22
9109.00,1.22
9108.00,1.23
9107.00,1.23
9106.00,1.23
9105.00,1.23
9104.00,1.23
9103.00,1.23
9102.00,1.24
9101.00,1.24
9100.00,1.24
9099.00,1.24
9098.00,1.24
9097.00,1.24
9096.00,1.25
9095.00,1.25
9094.00,1.25
9093.00,1.25
9092.00,1.25
9091.00,1.25
9090.00,1.25
9089.00,1.25
9088.00,1.25
9087.00,1.24
9086.00,1.24
9085.00,1.24
9084.00,1.24
9083.00,1.24
9082.00,1.24
9081.00,1.24
9080.00,1.23
9079.00,1.23
9078.00,1.23
9077.00,1.23
9076.00,1.23
9075.00,1.23
9074.00,1.23
9073.00,1.23
9072.00,1.23
9071.00,1.23
9070.00,1.23
9069.00,1.23
9068.00,1.23
9067.00,1.23
9066.00,1.23
9065.00,1.23
9064.00,1.23
9063.00,1.23
9062.00,1.23
9061.00,1.23
9060.00,1.23
9059.00,1.23
9058.00,1.23
9057.00,1.23
9056.00,1.24
9055.00,1.24
9054.00,1.24
9053.00,1.24
9052.00,1.24
9051.00,1.24
9050.00,1.24
9049.00,1.24
9048.00,1.24
9047.00,1.24
9046.00,1.24
9045.00,1.24
9044.00,1.24
9043.00,1.24
9042.00,1.24
9041.00,1.24
9040.00,1.23
9039.00,1.23
9038.00,1.23
9037.00,1.23
9036.00,1.23
9035.00,1.23
9034.00,1.23
9033.00,1.23
9032.00,1.23
9031.00,1.23
9030.00,1.23
9029.00,1.23
9028.00,1.23
9027.00,1.23
9026.00,1.23
9025.00,1.23
9024.00,1.23
9023.00,1.23
9022.00,1.23
9021.00,1.23
9020.00,1.23
9019.00,1.23
9018.00,1.23
9017.00,1.23
9016.00,1.24
9015.00,1.24
9014.00,1.24
9013.00,1.24
9012.00,1.24
9011.00,1.24
9010.00,1.24
9009.00,1.24
9008.00,1.24
9007.00,1.24
9006.00,1.24
9005.00,1.24
9004.00,1.24
9003.00,1.24
9002.00,1.24
9001.00,1.24
9000.00,1.24
8999.00,1.24
8998.00,1.24
8997.00,1.24
8996.00,1.24
8995.00,1.24
8994.00,1.25
8993.00,1.25
8992.00,1.25
8991.00,1.25
8990.00,1.25
8989.00,1.25
8988.00,1.25
8987.00,1.25
8986.00,1.25
8985.00,1.25
8984.00,1.25
8983.00,1.25
8982.00,1.25
8981.00,1.25
8980.00,1.25
8979.00,1.25
8978.00,1.25
8977.00,1.25
8976.00,1.25
8975.00,1.25
8974.00,1.25
8973.00,1.25
8972.00,1.25
8971.00,1.25
8970.00,1.25
8969.00,1.25
8968.00,1.25
8967.00,1.25
8966.00,1.25
8965.00,1.25
8964.00,1.25
8963.00,1.25
8962.00,1.25
8961.00,1.25
8960.00,1.25
8959.00,1.25
8958.00,1.25
8957.00,1.25
8956.00,1.25
8955.00,1.25
8954.00,1.25
8953.00,1.25
8952.00,1.24
8951.00,1.24
8950.00,1.24
8949.00,1.24
8948.00,1.24
8947.00,1.24
8946.00,1.24
8945.00,1.24
8944.00,1.24
8943.00,1.23
8942.00,1.23
8941.00,1.23
8940.00,1.23
8939.00,1.23
8938.00,1.23
8937.00,1.23
8936.00,1.22
8935.00,1.22
8934.00,1.22
8933.00,1.22
8932.00,1.22
8931.00,1.22
8930.00,1.22
8929.00,1.22
8928.00,1.22
8927.00,1.23
8926.00,1.23
8925.00,1.23
8924.00,1.23
8923.00,1.23
8922.00,1.23
8921.00,1.23
8920.00,1.23
8919.00,1.23
8918.00,1.23
8917.00,1.23
8916.00,1.24
8915.00,1.24
8914.00,1.24
8913.00,1.24
8912.00,1.23
8911.00,1.23
8910.00,1.23
8909.00,1.23
8908.00,1.23
8907.00,1.23
8906.00,1.23
8905.00,1.23
8904.00,1.23
8903.00,1.22
8902.00,1.22
8901.00,1.22
8900.00,1.22
8899.00,1.22
8898.00,1.22
8897.00,1.22
8896.00,1.22
8895.00,1.22
8894.00,1.22
8893.00,1.22
8892.00,1.22
8891.00,1.23
8890.00,1.23
8889.00,1.23
8888.00,1.23
8887.00,1.23
8886.00,1.23
8885.00,1.23
8884.00,1.23
8883.00,1.24
8882.00,1.24
8881.00,1.24
8880.00,1.24
8879.00,1.24
8878.00,1.24
8877.00,1.24
8876.00,1.24
8875.00,1.24
8874.00,1.24
8873.00,1.24
8872.00,1.24
8871.00,1.24
8870.00,1.24
8869.00,1.24
8868.00,1.24
8867.00,1.24
8866.00,1.24
8865.00,1.24
8864.00,1.24
8863.00,1.24
8862.00,1.24
8861.00,1.23
8860.00,1.23
8859.00,1.23
8858.00,1.23
8857.00,1.23
8856.00,1.23
8855.00,1.23
8854.00,1.23
8853.00,1.23
8852.00,1.23
8851.00,1.23
8850.00,1.23
8849.00,1.23
8848.00,1.23
8847.00,1.23
8846.00,1.23
8845.00,1.23
8844.00,1.23
8843.00,1.23
8842.00,1.23
8841.00,1.23
8840.00,1.23
8839.00,1.23
8838.00,1.23
8837.00,1.23
8836.00,1.23
8835.00,1.23
8834.00,1.23
8833.00,1.22
8832.00,1.22
8831.00,1.22
8830.00,1.22
8829.00,1.22
8828.00,1.22
8827.00,1.22
8826.00,1.22
8825.00,1.22
8824.00,1.22
8823.00,1.23
8822.00,1.23
8821.00,1.23
8820.00,1.23
8819.00,1.23
8818.00,1.23
8817.00,1.23
8816.00,1.23
8815.00,1.23
8814.00,1.23
8813.00,1.23
8812.00,1.23
8811.00,1.23
8810.00,1.23
8809.00,1.23
8808.00,1.23
8807.00,1.23
8806.00,1.23
8805.00,1.23
8804.00,1.23
8803.00,1.23
8802.00,1.22
8801.00,1.22
8800.00,1.22
8799.00,1.22
8798.00,1.22
8797.00,1.22
8796.00,1.22
8795.00,1.21
8794.00,1.21
8793.00,1.21
8792.00,1.21
8791.00,1.21
8790.00,1.21
8789.00,1.21
8788.00,1.21
8787.00,1.20
8786.00,1.20
8785.00,1.20
8784.00,1.20
8783.00,1.20
8782.00,1.20
8781.00,1.20
8780.00,1.20
8779.00,1.20
8778.00,1.20
8777.00,1.20
8776.00,1.20
8775.00,1.20
8774.00,1.20
8773.00,1.20
8772.00,1.20
8771.00,1.20
8770.00,1.20
8769.00,1.20
8768.00,1.20
8767.00,1.20
8766.00,1.21
8765.00,1.21
8764.00,1.21
8763.00,1.21
8762.00,1.21
8761.00,1.21
8760.00,1.21
8759.00,1.21
8758.00,1.20
8757.00,1.20
8756.00,1.20
8755.00,1.20
8754.00,1.20
8753.00,1.20
8752.00,1.20
8751.00,1.20
8750.00,1.20
8749.00,1.20
8748.00,1.20
8747.00,1.20
8746.00,1.20
8745.00,1.20
8744.00,1.20
8743.00,1.20
8742.00,1.19
8741.00,1.19
8740.00,1.19
8739.00,1.19
8738.00,1.19
8737.00,1.18
8736.00,1.18
8735.00,1.18
8734.00,1.18
8733.00,1.18
8732.00,1.17
8731.00,1.17
8730.00,1.17
8729.00,1.17
8728.00,1.17
8727.00,1.17
8726.00,1.17
8725.00,1.17
8724.00,1.17
8723.00,1.17
8722.00,1.17
8721.00,1.18
8720.00,1.18
8719.00,1.18
8718.00,1.18
8717.00,1.18
8716.00,1.18
8715.00,1.19
8714.00,1.19
8713.00,1.19
8712.00,1.19
8711.00,1.19
8710.00,1.19
8709.00,1.19
8708.00,1.19
8707.00,1.19
8706.00,1.19
8705.00,1.19
8704.00,1.19
8703.00,1.19
8702.00,1.19
8701.00,1.19
8700.00,1.19
8699.00,1.19
8698.00,1.19
8697.00,1.19
8696.00,1.19
8695.00,1.19
8694.00,1.19
8693.00,1.19
8692.00,1.19
8691.00,1.18
8690.00,1.18
8689.00,1.18
8688.00,1.18
8687.00,1.18
8686.00,1.19
8685.00,1.19
8684.00,1.19
8683.00,1.19
8682.00,1.19
8681.00,1.19
8680.00,1.19
8679.00,1.19
8678.00,1.20
8677.00,1.20
8676.00,1.20
8675.00,1.20
8674.00,1.20
8673.00,1.20
8672.00,1.20
8671.00,1.20
8670.00,1.20
8669.00,1.20
8668.00,1.20
8667.00,1.20
8666.00,1.20
8665.00,1.20
8664.00,1.20
8663.00,1.20
8662.00,1.20
8661.00,1.20
8660.00,1.19
8659.00,1.19
8658.00,1.19
8657.00,1.19
8656.00,1.19
8655.00,1.19
8654.00,1.19
8653.00,1.19
8652.00,1.19
8651.00,1.19
8650.00,1.19
8649.00,1.19
8648.00,1.19
8647.00,1.19
8646.00,1.19
8645.00,1.19
8644.00,1.18
8643.00,1.18
8642.00,1.18
8641.00,1.18
8640.00,1.18
8639.00,1.17
8638.00,1.17
8637.00,1.17
8636.00,1.17
8635.00,1.17
8634.00,1.16
8633.00,1.16
8632.00,1.16
8631.00,1.16
8630.00,1.16
8629.00,1.16
8628.00,1.16
8627.00,1.16
8626.00,1.16
8625.00,1.16
8624.00,1.16
8623.00,1.16
8622.00,1.16
8621.00,1.16
8620.00,1.16
8619.00,1.16
8618.00,1.16
8617.00,1.16
8616.00,1.16
8615.00,1.17
8614.00,1.17
8613.00,1.17
8612.00,1.17
8611.00,1.17
8610.00,1.17
8609.00,1.17
8608.00,1.17
8607.00,1.17
8606.00,1.17
8605.00,1.17
8604.00,1.17
8603.00,1.17
8602.00,1.17
8601.00,1.17
8600.00,1.17
8599.00,1.17
8598.00,1.17
8597.00,1.17
8596.00,1.17
8595.00,1.17
8594.00,1.17
8593.00,1.17
8592.00,1.17
8591.00,1.17
8590.00,1.17
8589.00,1.17
8588.00,1.17
8587.00,1.17
8586.00,1.17
8585.00,1.17
8584.00,1.17
8583.00,1.17
8582.00,1.17
8581.00,1.17
8580.00,1.17
8579.00,1.17
8578.00,1.17
8577.00,1.16
8576.00,1.16
8575.00,1.16
8574.00,1.16
8573.00,1.16
8572.00,1.16
8571.00,1.15
8570.00,1.15
8569.00,1.15
8568.00,1.15
8567.00,1.15
8566.00,1.14
8565.00,1.14
8564.00,1.14
8563.00,1.14
8562.00,1.14
8561.00,1.14
8560.00,1.14
8559.00,1.14
8558.00,1.14
8557.00,1.14
8556.00,1.14
8555.00,1.14
8554.00,1.14
8553.00,1.14
8552.00,1.14
8551.00,1.14
8550.00,1.14
8549.00,1.14
8548.00,1.14
8547.00,1.14
8546.00,1.14
8545.00,1.15
8544.00,1.15
8543.00,1.15
8542.00,1.15
8541.00,1.15
8540.00,1.15
8539.00,1.14
8538.00,1.14
8537.00,1.14
8536.00,1.14
8535.00,1.14
8534.00,1.14
8533.00,1.14
8532.00,1.14
8531.00,1.14
8530.00,1.14
8529.00,1.14
8528.00,1.13
8527.00,1.13
8526.00,1.13
8525.00,1.13
8524.00,1.13
8523.00,1.13
8522.00,1.13
8521.00,1.14
8520.00,1.14
8519.00,1.14
8518.00,1.14
8517.00,1.14
8516.00,1.14
8515.00,1.14
8514.00,1.14
8513.00,1.13
8512.00,1.13
8511.00,1.13
8510.00,1.13
8509.00,1.13
8508.00,1.13
8507.00,1.13
8506.00,1.13
8505.00,1.13
8504.00,1.13
8503.00,1.12
8502.00,1.12
8501.00,1.12
8500.00,1.12
8499.00,1.12
8498.00,1.12
8497.00,1.12
8496.00,1.12
8495.00,1.12
8494.00,1.12
8493.00,1.12
8492.00,1.12
8491.00,1.12
8490.00,1.12
8489.00,1.12
8488.00,1.12
8487.00,1.12
8486.00,1.12
8485.00,1.12
8484.00,1.12
8483.00,1.11
8482.00,1.11
8481.00,1.11
8480.00,1.11
8479.00,1.11
8478.00,1.11
8477.00,1.11
8476.00,1.11
8475.00,1.11
8474.00,1.11
8473.00,1.11
8472.00,1.10
8471.00,1.10
8470.00,1.10
8469.00,1.10
8468.00,1.10
8467.00,1.10
8466.00,1.10
8465.00,1.10
8464.00,1.10
8463.00,1.10
8462.00,1.10
8461.00,1.10
8460.00,1.10
8459.00,1.10
8458.00,1.10
8457.00,1.10
8456.00,1.10
8455.00,1.10
8454.00,1.09
8453.00,1.09
8452.00,1.09
8451.00,1.09
8450.00,1.09
8449.00,1.09
8448.00,1.09
8447.00,1.09
8446.00,1.09
8445.00,1.08
8444.00,1.08
8443.00,1.08
8442.00,1.08
8441.00,1.08
8440.00,1.08
8439.00,1.08
8438.00,1.08
8437.00,1.08
8436.00,1.08
8435.00,1.08
8434.00,1.08
8433.00,1.08
8432.00,1.08
8431.00,1.08
8430.00,1.08
8429.00,1.08
8428.00,1.08
8427.00,1.08
8426.00,1.08
8425.00,1.09
8424.00,1.09
8423.00,1.09
8422.00,1.09
8421.00,1.09
8420.00,1.09
8419.00,1.09
8418.00,1.10
8417.00,1.10
8416.00,1.10
8415.00,1.10
8414.00,1.10
8413.00,1.10
8412.00,1.10
8411.00,1.10
8410.00,1.10
8409.00,1.11
8408.00,1.11
8407.00,1.11
8406.00,1.11
8405.00,1.11
8404.00,1.11
8403.00,1.11
8402.00,1.11
8401.00,1.11
8400.00,1.11
8399.00,1.11
8398.00,1.11
8397.00,1.11
8396.00,1.12
8395.00,1.12
8394.00,1.12
8393.00,1.12
8392.00,1.12
8391.00,1.12
8390.00,1.12
8389.00,1.12
8388.00,1.12
8387.00,1.12
8386.00,1.12
8385.00,1.12
8384.00,1.12
8383.00,1.12
8382.00,1.12
8381.00,1.12
8380.00,1.12
8379.00,1.12
8378.00,1.12
8377.00,1.13
8376.00,1.13
8375.00,1.13
8374.00,1.13
8373.00,1.13
8372.00,1.13
8371.00,1.13
8370.00,1.13
8369.00,1.13
8368.00,1.13
8367.00,1.13
8366.00,1.13
8365.00,1.13
8364.00,1.13
8363.00,1.13
8362.00,1.12
8361.00,1.12
8360.00,1.12
8359.00,1.12
8358.00,1.13
8357.00,1.13
8356.00,1.13
8355.00,1.13
8354.00,1.13
8353.00,1.13
8352.00,1.13
8351.00,1.13
8350.00,1.13
8349.00,1.13
8348.00,1.13
8347.00,1.13
8346.00,1.13
8345.00,1.14
8344.00,1.14
8343.00,1.14
8342.00,1.14
8341.00,1.13
8340.00,1.13
8339.00,1.13
8338.00,1.13
8337.00,1.13
8336.00,1.13
8335.00,1.13
8334.00,1.13
8333.00,1.13
8332.00,1.13
8331.00,1.13
8330.00,1.12
8329.00,1.12
8328.00,1.12
8327.00,1.12
8326.00,1.12
8325.00,1.13
8324.00,1.13
8323.00,1.13
8322.00,1.13
8321.00,1.13
8320.00,1.13
8319.00,1.13
8318.00,1.14
8317.00,1.14
8316.00,1.14
8315.00,1.14
8314.00,1.14
8313.00,1.14
8312.00,1.15
8311.00,1.15
8310.00,1.15
8309.00,1.15
8308.00,1.15
8307.00,1.15
8306.00,1.15
8305.00,1.15
8304.00,1.15
8303.00,1.15
8302.00,1.15
8301.00,1.15
8300.00,1.15
8299.00,1.15
8298.00,1.15
8297.00,1.14
8296.00,1.14
8295.00,1.14
8294.00,1.14
8293.00,1.14
8292.00,1.14
8291.00,1.14
8290.00,1.14
8289.00,1.14
8288.00,1.14
8287.00,1.14
8286.00,1.14
8285.00,1.14
8284.00,1.14
8283.00,1.14
8282.00,1.14
8281.00,1.14
8280.00,1.14
8279.00,1.14
8278.00,1.14
8277.00,1.14
8276.00,1.14
8275.00,1.14
8274.00,1.14
8273.00,1.14
8272.00,1.14
8271.00,1.15
8270.00,1.15
8269.00,1.15
8268.00,1.15
8267.00,1.15
8266.00,1.15
8265.00,1.15
8264.00,1.15
8263.00,1.16
8262.00,1.16
8261.00,1.16
8260.00,1.16
8259.00,1.16
8258.00,1.16
8257.00,1.16
8256.00,1.16
8255.00,1.16
8254.00,1.16
8253.00,1.15
8252.00,1.15
8251.00,1.15
8250.00,1.15
8249.00,1.15
8248.00,1.15
8247.00,1.16
8246.00,1.16
8245.00,1.16
8244.00,1.16
8243.00,1.16
8242.00,1.16
8241.00,1.16
8240.00,1.16
8239.00,1.16
8238.00,1.16
8237.00,1.16
8236.00,1.16
8235.00,1.16
8234.00,1.16
8233.00,1.16
8232.00,1.16
8231.00,1.16
8230.00,1.16
8229.00,1.16
8228.00,1.16
8227.00,1.16
8226.00,1.16
8225.00,1.16
8224.00,1.16
8223.00,1.16
8222.00,1.16
8221.00,1.16
8220.00,1.16
8219.00,1.16
8218.00,1.16
8217.00,1.16
8216.00,1.16
8215.00,1.17
8214.00,1.17
8213.00,1.17
8212.00,1.17
8211.00,1.17
8210.00,1.17
8209.00,1.17
8208.00,1.17
8207.00,1.17
8206.00,1.17
8205.00,1.17
8204.00,1.17
8203.00,1.17
8202.00,1.17
8201.00,1.16
8200.00,1.16
8199.00,1.16
8198.00,1.16
8197.00,1.16
8196.00,1.16
8195.00,1.16
8194.00,1.16
8193.00,1.16
8192.00,1.16
8191.00,1.16
8190.00,1.17
8189.00,1.17
8188.00,1.17
8187.00,1.17
8186.00,1.17
8185.00,1.17
8184.00,1.17
8183.00,1.18
8182.00,1.18
8181.00,1.18
8180.00,1.18
8179.00,1.18
8178.00,1.18
8177.00,1.18
8176.00,1.18
8175.00,1.18
8174.00,1.18
8173.00,1.18
8172.00,1.18
8171.00,1.18
8170.00,1.18
8169.00,1.18
8168.00,1.18
8167.00,1.18
8166.00,1.18
8165.00,1.18
8164.00,1.18
8163.00,1.18
8162.00,1.18
8161.00,1.17
8160.00,1.17
8159.00,1.17
8158.00,1.17
8157.00,1.17
8156.00,1.17
8155.00,1.17
8154.00,1.17
8153.00,1.17
8152.00,1.17
8151.00,1.18
8150.00,1.18
8149.00,1.18
8148.00,1.18
8147.00,1.18
8146.00,1.18
8145.00,1.18
8144.00,1.18
8143.00,1.19
8142.00,1.19
8141.00,1.19
8140.00,1.19
8139.00,1.19
8138.00,1.19
8137.00,1.19
8136.00,1.19
8135.00,1.19
8134.00,1.19
8133.00,1.19
8132.00,1.19
8131.00,1.19
8130.00,1.19
8129.00,1.19
8128.00,1.19
8127.00,1.19
8126.00,1.19
8125.00,1.19
8124.00,1.19
8123.00,1.19
8122.00,1.19
8121.00,1.19
8120.00,1.19
8119.00,1.19
8118.00,1.19
8117.00,1.19
8116.00,1.19
8115.00,1.19
8114.00,1.20
8113.00,1.20
8112.00,1.20
8111.00,1.20
8110.00,1.20
8109.00,1.20
8108.00,1.20
8107.00,1.20
8106.00,1.20
8105.00,1.20
8104.00,1.20
8103.00,1.20
8102.00,1.20
8101.00,1.20
8100.00,1.20
8099.00,1.20
8098.00,1.20
8097.00,1.20
8096.00,1.20
8095.00,1.20
8094.00,1.20
8093.00,1.20
8092.00,1.20
8091.00,1.20
8090.00,1.20
8089.00,1.20
8088.00,1.20
8087.00,1.20
8086.00,1.20
8085.00,1.20
8084.00,1.20
8083.00,1.20
8082.00,1.20
8081.00,1.20
8080.00,1.20
8079.00,1.20
8078.00,1.20
8077.00,1.20
8076.00,1.20
8075.00,1.20
8074.00,1.20
8073.00,1.20
8072.00,1.20
8071.00,1.20
8070.00,1.20
8069.00,1.20
8068.00,1.20
8067.00,1.20
8066.00,1.20
8065.00,1.20
8064.00,1.20
8063.00,1.20
8062.00,1.20
8061.00,1.20
8060.00,1.20
8059.00,1.20
8058.00,1.20
8057.00,1.20
8056.00,1.20
8055.00,1.20
8054.00,1.20
8053.00,1.20
8052.00,1.20
8051.00,1.20
8050.00,1.20
8049.00,1.20
8048.00,1.20
8047.00,1.20
8046.00,1.20
8045.00,1.20
8044.00,1.20
8043.00,1.21
8042.00,1.21
8041.00,1.21
8040.00,1.21
8039.00,1.21
8038.00,1.21
8037.00,1.21
8036.00,1.21
8035.00,1.21
8034.00,1.21
8033.00,1.21
8032.00,1.21
8031.00,1.21
8030.00,1.21
8029.00,1.21
8028.00,1.21
8027.00,1.21
8026.00,1.21
8025.00,1.21
8024.00,1.21
8023.00,1.21
8022.00,1.21
8021.00,1.21
8020.00,1.21
8019.00,1.21
8018.00,1.21
8017.00,1.22
8016.00,1.22
8015.00,1.22
8014.00,1.22
8013.00,1.22
8012.00,1.22
8011.00,1.22
8010.00,1.22
8009.00,1.22
8008.00,1.22
8007.00,1.22
8006.00,1.22
8005.00,1.22
8004.00,1.21
8003.00,1.21
8002.00,1.21
8001.00,1.21
8000.00,1.21
7999.00,1.21
7998.00,1.21
7997.00,1.21
7996.00,1.21
7995.00,1.21
7994.00,1.21
7993.00,1.21
7992.00,1.21
7991.00,1.22
7990.00,1.22
7989.00,1.22
7988.00,1.22
7987.00,1.22
7986.00,1.22
7985.00,1.22
7984.00,1.22
7983.00,1.22
7982.00,1.22
7981.00,1.21
7980.00,1.21
7979.00,1.21
7978.00,1.21
7977.00,1.21
7976.00,1.21
7975.00,1.21
7974.00,1.21
7973.00,1.21
7972.00,1.21
7971.00,1.21
7970.00,1.21
7969.00,1.21
7968.00,1.21
7967.00,1.21
7966.00,1.21
7965.00,1.21
7964.00,1.21
7963.00,1.21
7962.00,1.21
7961.00,1.21
7960.00,1.21
7959.00,1.21
7958.00,1.22
7957.00,1.22
7956.00,1.22
7955.00,1.22
7954.00,1.22
7953.00,1.22
7952.00,1.22
7951.00,1.22
7950.00,1.22
7949.00,1.22
7948.00,1.22
7947.00,1.22
7946.00,1.22
7945.00,1.22
7944.00,1.22
7943.00,1.22
7942.00,1.22
7941.00,1.22
7940.00,1.22
7939.00,1.22
7938.00,1.22
7937.00,1.22
7936.00,1.22
7935.00,1.22
7934.00,1.22
7933.00,1.22
7932.00,1.22
7931.00,1.22
7930.00,1.22
7929.00,1.22
7928.00,1.22
7927.00,1.22
7926.00,1.22
7925.00,1.22
7924.00,1.22
7923.00,1.22
7922.00,1.22
7921.00,1.22
7920.00,1.22
7919.00,1.22
7918.00,1.22
7917.00,1.22
7916.00,1.22
7915.00,1.22
7914.00,1.22
7913.00,1.22
7912.00,1.22
7911.00,1.22
7910.00,1.22
7909.00,1.22
7908.00,1.22
7907.00,1.22
7906.00,1.22
7905.00,1.23
7904.00,1.23
7903.00,1.23
7902.00,1.23
7901.00,1.23
7900.00,1.23
7899.00,1.23
7898.00,1.23
7897.00,1.23
7896.00,1.23
7895.00,1.23
7894.00,1.23
7893.00,1.23
7892.00,1.23
7891.00,1.23
7890.00,1.22
7889.00,1.22
7888.00,1.22
7887.00,1.22
7886.00,1.22
7885.00,1.22
7884.00,1.22
7883.00,1.22
7882.00,1.22
7881.00,1.22
7880.00,1.23
7879.00,1.23
7878.00,1.23
7877.00,1.23
7876.00,1.23
7875.00,1.23
7874.00,1.23
7873.00,1.23
7872.00,1.23
7871.00,1.23
7870.00,1.23
7869.00,1.23
7868.00,1.23
7867.00,1.23
7866.00,1.23
7865.00,1.22
7864.00,1.22
7863.00,1.22
7862.00,1.22
7861.00,1.22
7860.00,1.22
7859.00,1.22
7858.00,1.22
7857.00,1.23
7856.00,1.23
7855.00,1.23
7854.00,1.23
7853.00,1.23
7852.00,1.23
7851.00,1.23
7850.00,1.23
7849.00,1.23
7848.00,1.23
7847.00,1.23
7846.00,1.23
7845.00,1.23
7844.00,1.23
7843.00,1.23
7842.00,1.23
7841.00,1.23
7840.00,1.23
7839.00,1.23
7838.00,1.23
7837.00,1.23
7836.00,1.23
7835.00,1.23
7834.00,1.23
7833.00,1.23
7832.00,1.23
7831.00,1.23
7830.00,1.23
7829.00,1.23
7828.00,1.22
7827.00,1.22
7826.00,1.22
7825.00,1.22
7824.00,1.22
7823.00,1.22
7822.00,1.22
7821.00,1.22
7820.00,1.22
7819.00,1.22
7818.00,1.22
7817.00,1.22
7816.00,1.22
7815.00,1.22
7814.00,1.22
7813.00,1.22
7812.00,1.23
7811.00,1.23
7810.00,1.23
7809.00,1.23
7808.00,1.23
7807.00,1.23
7806.00,1.23
7805.00,1.24
7804.00,1.24
7803.00,1.24
7802.00,1.24
7801.00,1.24
7800.00,1.24
7799.00,1.24
7798.00,1.24
7797.00,1.24
7796.00,1.24
7795.00,1.24
7794.00,1.24
7793.00,1.24
7792.00,1.24
7791.00,1.24
7790.00,1.23
7789.00,1.23
7788.00,1.23
7787.00,1.23
7786.00,1.23
7785.00,1.23
7784.00,1.23
7783.00,1.23
7782.00,1.23
7781.00,1.23
7780.00,1.23
7779.00,1.23
7778.00,1.23
7777.00,1.23
7776.00,1.23
7775.00,1.23
7774.00,1.23
7773.00,1.23
7772.00,1.23
7771.00,1.23
7770.00,1.23
7769.00,1.23
7768.00,1.23
7767.00,1.23
7766.00,1.23
7765.00,1.23
7764.00,1.23
7763.00,1.23
7762.00,1.23
7761.00,1.23
7760.00,1.23
7759.00,1.23
7758.00,1.23
7757.00,1.23
7756.00,1.23
7755.00,1.23
7754.00,1.23
7753.00,1.23
7752.00,1.23
7751.00,1.23
7750.00,1.23
7749.00,1.23
7748.00,1.23
7747.00,1.23
7746.00,1.23
7745.00,1.23
7744.00,1.23
7743.00,1.23
7742.00,1.23
7741.00,1.23
7740.00,1.23
7739.00,1.23
7738.00,1.23
7737.00,1.23
7736.00,1.23
7735.00,1.23
7734.00,1.23
7733.00,1.23
7732.00,1.23
7731.00,1.23
7730.00,1.23
7729.00,1.23
7728.00,1.23
7727.00,1.24
7726.00,1.24
7725.00,1.24
7724.00,1.24
7723.00,1.24
7722.00,1.24
7721.00,1.24
7720.00,1.24
7719.00,1.24
7718.00,1.24
7717.00,1.24
7716.00,1.24
7715.00,1.24
7714.00,1.24
7713.00,1.24
7712.00,1.24
7711.00,1.24
7710.00,1.24
7709.00,1.24
7708.00,1.24
7707.00,1.24
7706.00,1.24
7705.00,1.24
7704.00,1.24
7703.00,1.24
7702.00,1.24
7701.00,1.24
7700.00,1.24
7699.00,1.24
7698.00,1.24
7697.00,1.24
7696.00,1.24
7695.00,1.24
7694.00,1.24
7693.00,1.24
7692.00,1.24
7691.00,1.24
7690.00,1.24
7689.00,1.24
7688.00,1.24
7687.00,1.24
7686.00,1.24
7685.00,1.24
7684.00,1.25
7683.00,1.25
7682.00,1.25
7681.00,1.25
7680.00,1.25
7679.00,1.25
7678.00,1.25
7677.00,1.25
7676.00,1.25
7675.00,1.25
7674.00,1.25
7673.00,1.25
7672.00,1.25
7671.00,1.25
7670.00,1.25
7669.00,1.25
7668.00,1.25
7667.00,1.25
7666.00,1.25
7665.00,1.25
7664.00,1.25
7663.00,1.25
7662.00,1.24
7661.00,1.24
7660.00,1.24
7659.00,1.24
7658.00,1.24
7657.00,1.24
7656.00,1.24
7655.00,1.24
7654.00,1.24
7653.00,1.24
7652.00,1.24
7651.00,1.24
7650.00,1.24
7649.00,1.24
7648.00,1.24
7647.00,1.24
7646.00,1.24
7645.00,1.24
7644.00,1.24
7643.00,1.24
7642.00,1.24
7641.00,1.24
7640.00,1.24
7639.00,1.24
7638.00,1.24
7637.00,1.24
7636.00,1.24
7635.00,1.24
7634.00,1.24
7633.00,1.25
7632.00,1.25
7631.00,1.25
7630.00,1.25
7629.00,1.25
7628.00,1.25
7627.00,1.25
7626.00,1.25
7625.00,1.25
7624.00,1.25
7623.00,1.25
7622.00,1.25
7621.00,1.25
7620.00,1.25
7619.00,1.25
7618.00,1.25
7617.00,1.25
7616.00,1.25
7615.00,1.25
7614.00,1.25
7613.00,1.25
7612.00,1.25
7611.00,1.25
7610.00,1.25
7609.00,1.25
7608.00,1.25
7607.00,1.25
7606.00,1.25
7605.00,1.24
7604.00,1.24
7603.00,1.24
7602.00,1.24
7601.00,1.24
7600.00,1.24
7599.00,1.24
7598.00,1.24
7597.00,1.24
7596.00,1.24
7595.00,1.24
7594.00,1.24
7593.00,1.24
7592.00,1.24
7591.00,1.24
7590.00,1.24
7589.00,1.24
7588.00,1.24
7587.00,1.24
7586.00,1.24
7585.00,1.24
7584.00,1.25
7583.00,1.25
7582.00,1.25
7581.00,1.25
7580.00,1.25
7579.00,1.25
7578.00,1.25
7577.00,1.25
7576.00,1.25
7575.00,1.25
7574.00,1.25
7573.00,1.25
7572.00,1.25
7571.00,1.25
7570.00,1.24
7569.00,1.24
7568.00,1.24
7567.00,1.24
7566.00,1.24
7565.00,1.24
7564.00,1.24
7563.00,1.24
7562.00,1.24
7561.00,1.24
7560.00,1.24
7559.00,1.24
7558.00,1.23
7557.00,1.23
7556.00,1.23
7555.00,1.23
7554.00,1.23
7553.00,1.23
7552.00,1.23
7551.00,1.23
7550.00,1.23
7549.00,1.23
7548.00,1.23
7547.00,1.23
7546.00,1.23
7545.00,1.23
7544.00,1.23
7543.00,1.23
7542.00,1.23
7541.00,1.23
7540.00,1.23
7539.00,1.23
7538.00,1.23
7537.00,1.23
7536.00,1.23
7535.00,1.23
7534.00,1.23
7533.00,1.23
7532.00,1.23
7531.00,1.23
7530.00,1.23
7529.00,1.23
7528.00,1.23
7527.00,1.23
7526.00,1.23
7525.00,1.23
7524.00,1.23
7523.00,1.23
7522.00,1.23
7521.00,1.23
7520.00,1.23
7519.00,1.23
7518.00,1.23
7517.00,1.23
7516.00,1.23
7515.00,1.23
7514.00,1.23
7513.00,1.23
7512.00,1.23
7511.00,1.23
7510.00,1.23
7509.00,1.23
7508.00,1.23
7507.00,1.23
7506.00,1.23
7505.00,1.23
7504.00,1.23
7503.00,1.23
7502.00,1.22
7501.00,1.22
7500.00,1.22
7499.00,1.22
7498.00,1.22
7497.00,1.22
7496.00,1.22
7495.00,1.22
7494.00,1.22
7493.00,1.22
7492.00,1.22
7491.00,1.22
7490.00,1.22
7489.00,1.22
7488.00,1.22
7487.00,1.22
7486.00,1.22
7485.00,1.22
7484.00,1.22
7483.00,1.22
7482.00,1.22
7481.00,1.22
7480.00,1.22
7479.00,1.22
7478.00,1.22
7477.00,1.22
7476.00,1.22
7475.00,1.22
7474.00,1.22
7473.00,1.22
7472.00,1.22
7471.00,1.22
7470.00,1.22
7469.00,1.22
7468.00,1.22
7467.00,1.22
7466.00,1.21
7465.00,1.21
7464.00,1.21
7463.00,1.21
7462.00,1.21
7461.00,1.21
7460.00,1.21
7459.00,1.21
7458.00,1.21
7457.00,1.21
7456.00,1.21
7455.00,1.21
7454.00,1.21
7453.00,1.21
7452.00,1.21
7451.00,1.21
7450.00,1.21
7449.00,1.20
7448.00,1.20
7447.00,1.20
7446.00,1.20
7445.00,1.20
7444.00,1.20
7443.00,1.20
7442.00,1.20
7441.00,1.20
7440.00,1.20
7439.00,1.20
7438.00,1.20
7437.00,1.20
7436.00,1.20
7435.00,1.20
7434.00,1.20
7433.00,1.20
7432.00,1.20
7431.00,1.20
7430.00,1.20
7429.00,1.20
7428.00,1.20
7427.00,1.20
7426.00,1.20
7425.00,1.20
7424.00,1.20
7423.00,1.20
7422.00,1.20
7421.00,1.20
7420.00,1.19
7419.00,1.19
7418.00,1.19
7417.00,1.19
7416.00,1.19
7415.00,1.19
7414.00,1.19
7413.00,1.19
7412.00,1.19
7411.00,1.19
7410.00,1.19
7409.00,1.19
7408.00,1.19
7407.00,1.18
7406.00,1.18
7405.00,1.18
7404.00,1.18
7403.00,1.18
7402.00,1.18
7401.00,1.18
7400.00,1.18
7399.00,1.18
7398.00,1.17
7397.00,1.17
7396.00,1.17
7395.00,1.17
7394.00,1.17
7393.00,1.17
7392.00,1.17
7391.00,1.16
7390.00,1.16
7389.00,1.16
7388.00,1.16
7387.00,1.16
7386.00,1.16
7385.00,1.15
7384.00,1.15
7383.00,1.15
7382.00,1.15
7381.00,1.15
7380.00,1.15
7379.00,1.15
7378.00,1.15
7377.00,1.15
7376.00,1.15
7375.00,1.15
7374.00,1.15
7373.00,1.15
7372.00,1.15
7371.00,1.15
7370.00,1.15
7369.00,1.15
7368.00,1.15
7367.00,1.15
7366.00,1.15
7365.00,1.15
7364.00,1.15
7363.00,1.15
7362.00,1.15
7361.00,1.15
7360.00,1.15
7359.00,1.15
7358.00,1.15
7357.00,1.15
7356.00,1.15
7355.00,1.15
7354.00,1.15
7353.00,1.15
7352.00,1.15
7351.00,1.15
7350.00,1.14
7349.00,1.14
7348.00,1.14
7347.00,1.14
7346.00,1.14
7345.00,1.14
7344.00,1.14
7343.00,1.14
7342.00,1.14
7341.00,1.14
7340.00,1.13
7339.00,1.13
7338.00,1.13
7337.00,1.13
7336.00,1.13
7335.00,1.14
7334.00,1.14
7333.00,1.14
7332.00,1.14
7331.00,1.14
7330.00,1.14
7329.00,1.14
7328.00,1.14
7327.00,1.14
7326.00,1.14
7325.00,1.14
7324.00,1.14
7323.00,1.14
7322.00,1.14
7321.00,1.14
7320.00,1.14
7319.00,1.14
7318.00,1.14
7317.00,1.14
7316.00,1.14
7315.00,1.14
7314.00,1.13
7313.00,1.13
7312.00,1.13
7311.00,1.13
7310.00,1.13
7309.00,1.13
7308.00,1.13
7307.00,1.13
7306.00,1.13
7305.00,1.13
7304.00,1.13
7303.00,1.13
7302.00,1.13
7301.00,1.13
7300.00,1.13
7299.00,1.13
7298.00,1.13
7297.00,1.13
7296.00,1.13
7295.00,1.13
7294.00,1.13
7293.00,1.13
7292.00,1.13
7291.00,1.13
7290.00,1.13
7289.00,1.12
7288.00,1.12
7287.00,1.12
7286.00,1.12
7285.00,1.12
7284.00,1.12
7283.00,1.12
7282.00,1.11
7281.00,1.11
7280.00,1.11
7279.00,1.11
7278.00,1.11
7277.00,1.11
7276.00,1.10
7275.00,1.10
7274.00,1.10
7273.00,1.10
7272.00,1.10
7271.00,1.10
7270.00,1.10
7269.00,1.10
7268.00,1.10
7267.00,1.10
7266.00,1.10
7265.00,1.10
7264.00,1.09
7263.00,1.09
7262.00,1.09
7261.00,1.09
7260.00,1.09
7259.00,1.09
7258.00,1.09
7257.00,1.09
7256.00,1.08
7255.00,1.08
7254.00,1.08
7253.00,1.08
7252.00,1.07
7251.00,1.07
7250.00,1.07
7249.00,1.07
7248.00,1.06
7247.00,1.06
7246.00,1.06
7245.00,1.05
7244.00,1.05
7243.00,1.05
7242.00,1.05
7241.00,1.05
7240.00,1.05
7239.00,1.04
7238.00,1.04
7237.00,1.04
7236.00,1.04
7235.00,1.04
7234.00,1.04
7233.00,1.04
7232.00,1.04
7231.00,1.03
7230.00,1.03
7229.00,1.03
7228.00,1.03
7227.00,1.03
7226.00,1.02
7225.00,1.02
7224.00,1.02
7223.00,1.01
7222.00,1.01
7221.00,1.01
7220.00,1.00
7219.00,1.00
7218.00,1.00
7217.00,0.99
7216.00,0.99
7215.00,0.99
7214.00,0.99
7213.00,0.98
7212.00,0.98
7211.00,0.98
7210.00,0.97
7209.00,0.97
7208.00,0.97
7207.00,0.97
7206.00,0.96
7205.00,0.96
7204.00,0.96
7203.00,0.96
7202.00,0.95
7201.00,0.95
7200.00,0.95
7199.00,0.95
7198.00,0.95
7197.00,0.95
7196.00,0.94
7195.00,0.94
7194.00,0.94
7193.00,0.94
7192.00,0.94
7191.00,0.94
7190.00,0.93
7189.00,0.93
7188.00,0.93
7187.00,0.93
7186.00,0.93
7185.00,0.93
7184.00,0.92
7183.00,0.92
7182.00,0.92
7181.00,0.92
7180.00,0.91
7179.00,0.91
7178.00,0.91
7177.00,0.91
7176.00,0.91
7175.00,0.90
7174.00,0.90
7173.00,0.90
7172.00,0.90
7171.00,0.89
7170.00,0.89
7169.00,0.89
7168.00,0.89
7167.00,0.89
7166.00,0.89
7165.00,0.88
7164.00,0.88
7163.00,0.88
7162.00,0.88
7161.00,0.88
7160.00,0.88
7159.00,0.87
7158.00,0.87
7157.00,0.87
7156.00,0.87
7155.00,0.87
7154.00,0.87
7153.00,0.87
7152.00,0.86
7151.00,0.86
7150.00,0.86
7149.00,0.86
7148.00,0.86
7147.00,0.85
7146.00,0.85
7145.00,0.85
7144.00,0.85
7143.00,0.84
7142.00,0.84
7141.00,0.84
7140.00,0.83
7139.00,0.83
7138.00,0.83
7137.00,0.83
7136.00,0.82
7135.00,0.82
7134.00,0.82
7133.00,0.82
7132.00,0.82
7131.00,0.81
7130.00,0.81
7129.00,0.81
7128.00,0.81
7127.00,0.81
7126.00,0.80
7125.00,0.80
7124.00,0.80
7123.00,0.80
7122.00,0.80
7121.00,0.79
7120.00,0.79
7119.00,0.79
7118.00,0.79
7117.00,0.79
7116.00,0.78
7115.00,0.78
7114.00,0.78
7113.00,0.78
7112.00,0.78
7111.00,0.77
7110.00,0.77
7109.00,0.77
7108.00,0.77
7107.00,0.77
7106.00,0.77
7105.00,0.77
7104.00,0.76
7103.00,0.76
7102.00,0.76
7101.00,0.76
7100.00,0.75
7099.00,0.75
7098.00,0.75
7097.00,0.75
7096.00,0.75
7095.00,0.74
7094.00,0.74
7093.00,0.74
7092.00,0.74
7091.00,0.73
7090.00,0.73
7089.00,0.73
7088.00,0.73
7087.00,0.73
7086.00,0.72
7085.00,0.72
7084.00,0.72
7083.00,0.72
7082.00,0.72
7081.00,0.72
7080.00,0.72
7079.00,0.71
7078.00,0.71
7077.00,0.71
7076.00,0.71
7075.00,0.71
7074.00,0.71
7073.00,0.71
7072.00,0.71
7071.00,0.71
7070.00,0.71
7069.00,0.71
7068.00,0.70
7067.00,0.70
7066.00,0.70
7065.00,0.70
7064.00,0.70
7063.00,0.70
7062.00,0.70
7061.00,0.70
7060.00,0.70
7059.00,0.70
7058.00,0.70
7057.00,0.70
7056.00,0.70
7055.00,0.70
7054.00,0.70
7053.00,0.70
7052.00,0.70
7051.00,0.70
7050.00,0.70
7049.00,0.70
7048.00,0.70
7047.00,0.70
7046.00,0.69
7045.00,0.69
7044.00,0.69
7043.00,0.69
7042.00,0.69
7041.00,0.69
7040.00,0.69
7039.00,0.68
7038.00,0.68
7037.00,0.68
7036.00,0.68
7035.00,0.68
7034.00,0.68
7033.00,0.68
7032.00,0.68
7031.00,0.68
7030.00,0.68
7029.00,0.68
7028.00,0.68
7027.00,0.67
7026.00,0.67
7025.00,0.67
7024.00,0.67
7023.00,0.67
7022.00,0.67
7021.00,0.67
7020.00,0.67
7019.00,0.67
7018.00,0.67
7017.00,0.67
7016.00,0.67
7015.00,0.66
7014.00,0.66
7013.00,0.66
7012.00,0.66
7011.00,0.66
7010.00,0.66
7009.00,0.66
7008.00,0.66
7007.00,0.66
7006.00,0.66
7005.00,0.66
7004.00,0.66
7003.00,0.66
7002.00,0.66
7001.00,0.66
7000.00,0.66
6999.00,0.66
6998.00,0.66
6997.00,0.66
6996.00,0.66
6995.00,0.66
6994.00,0.66
6993.00,0.66
6992.00,0.66
6991.00,0.66
6990.00,0.66
6989.00,0.66
6988.00,0.66
6987.00,0.65
6986.00,0.65
6985.00,0.65
6984.00,0.65
6983.00,0.65
6982.00,0.65
6981.00,0.65
6980.00,0.65
6979.00,0.65
6978.00,0.65
6977.00,0.65
6976.00,0.64
6975.00,0.64
6974.00,0.64
6973.00,0.64
6972.00,0.64
6971.00,0.64
6970.00,0.64
6969.00,0.64
6968.00,0.64
6967.00,0.64
6966.00,0.64
6965.00,0.64
6964.00,0.64
6963.00,0.64
6962.00,0.64
6961.00,0.64
6960.00,0.63
6959.00,0.63
6958.00,0.63
6957.00,0.63
6956.00,0.63
6955.00,0.63
6954.00,0.63
6953.00,0.63
6952.00,0.63
6951.00,0.63
6950.00,0.63
6949.00,0.63
6948.00,0.63
6947.00,0.63
6946.00,0.63
6945.00,0.63
6944.00,0.63
6943.00,0.63
6942.00,0.64
6941.00,0.64
6940.00,0.64
6939.00,0.64
6938.00,0.64
6937.00,0.64
6936.00,0.64
6935.00,0.64
6934.00,0.64
6933.00,0.64
6932.00,0.64
6931.00,0.64
6930.00,0.64
6929.00,0.64
6928.00,0.64
6927.00,0.63
6926.00,0.63
6925.00,0.63
6924.00,0.63
6923.00,0.63
6922.00,0.63
6921.00,0.63
6920.00,0.63
6919.00,0.63
6918.00,0.63
6917.00,0.63
6916.00,0.63
6915.00,0.63
6914.00,0.63
6913.00,0.63
6912.00,0.63
6911.00,0.63
6910.00,0.63
6909.00,0.63
6908.00,0.63
6907.00,0.63
6906.00,0.63
6905.00,0.63
6904.00,0.63
6903.00,0.63
6902.00,0.63
6901.00,0.63
6900.00,0.62
6899.00,0.62
6898.00,0.62
6897.00,0.62
6896.00,0.62
6895.00,0.62
6894.00,0.62
6893.00,0.62
6892.00,0.62
6891.00,0.62
6890.00,0.62
6889.00,0.62
6888.00,0.62
6887.00,0.62
6886.00,0.62
6885.00,0.62
6884.00,0.62
6883.00,0.62
6882.00,0.62
6881.00,0.62
6880.00,0.63
6879.00,0.63
6878.00,0.63
6877.00,0.63
6876.00,0.63
6875.00,0.63
6874.00,0.63
6873.00,0.63
6872.00,0.63
6871.00,0.63
6870.00,0.63
6869.00,0.63
6868.00,0.63
6867.00,0.63
6866.00,0.63
6865.00,0.63
6864.00,0.63
6863.00,0.63
6862.00,0.63
6861.00,0.63
6860.00,0.63
6859.00,0.63
6858.00,0.63
6857.00,0.63
6856.00,0.63
6855.00,0.62
6854.00,0.62
6853.00,0.62
6852.00,0.62
6851.00,0.62
6850.00,0.62
6849.00,0.62
6848.00,0.62
6847.00,0.62
6846.00,0.62
6845.00,0.62
6844.00,0.62
6843.00,0.62
6842.00,0.62
6841.00,0.62
6840.00,0.62
6839.00,0.62
6838.00,0.62
6837.00,0.62
6836.00,0.62
6835.00,0.62
6834.00,0.62
6833.00,0.62
6832.00,0.62
6831.00,0.62
6830.00,0.62
6829.00,0.63
6828.00,0.63
6827.00,0.63
6826.00,0.63
6825.00,0.63
6824.00,0.63
6823.00,0.63
6822.00,0.63
6821.00,0.64
6820.00,0.64
6819.00,0.64
6818.00,0.64
6817.00,0.64
6816.00,0.64
6815.00,0.64
6814.00,0.64
6813.00,0.64
6812.00,0.64
6811.00,0.64
6810.00,0.64
6809.00,0.64
6808.00,0.64
6807.00,0.64
6806.00,0.64
6805.00,0.64
6804.00,0.64
6803.00,0.64
6802.00,0.64
6801.00,0.64
6800.00,0.64
6799.00,0.64
6798.00,0.64
6797.00,0.64
6796.00,0.64
6795.00,0.64
6794.00,0.64
6793.00,0.64
6792.00,0.64
6791.00,0.64
6790.00,0.64
6789.00,0.64
6788.00,0.64
6787.00,0.64
6786.00,0.64
6785.00,0.65
6784.00,0.65
6783.00,0.65
6782.00,0.65
6781.00,0.65
6780.00,0.65
6779.00,0.65
6778.00,0.65
6777.00,0.65
6776.00,0.65
6775.00,0.65
6774.00,0.65
6773.00,0.65
6772.00,0.65
6771.00,0.65
6770.00,0.65
6769.00,0.65
6768.00,0.65
6767.00,0.65
6766.00,0.65
6765.00,0.65
6764.00,0.65
6763.00,0.65
6762.00,0.65
6761.00,0.65
6760.00,0.65
6759.00,0.65
6758.00,0.65
6757.00,0.65
6756.00,0.65
6755.00,0.65
6754.00,0.66
6753.00,0.66
6752.00,0.66
6751.00,0.66
6750.00,0.66
6749.00,0.66
6748.00,0.66
6747.00,0.66
6746.00,0.66
6745.00,0.66
6744.00,0.66
6743.00,0.66
6742.00,0.66
6741.00,0.66
6740.00,0.66
6739.00,0.66
6738.00,0.66
6737.00,0.66
6736.00,0.67
6735.00,0.67
6734.00,0.67
6733.00,0.67
6732.00,0.67
6731.00,0.67
6730.00,0.67
6729.00,0.67
6728.00,0.67
6727.00,0.67
6726.00,0.67
6725.00,0.67
6724.00,0.67
6723.00,0.67
6722.00,0.67
6721.00,0.67
6720.00,0.67
6719.00,0.67
6718.00,0.67
6717.00,0.68
6716.00,0.68
6715.00,0.68
6714.00,0.68
6713.00,0.68
6712.00,0.68
6711.00,0.68
6710.00,0.68
6709.00,0.68
6708.00,0.68
6707.00,0.68
6706.00,0.69
6705.00,0.69
6704.00,0.69
6703.00,0.69
6702.00,0.69
6701.00,0.69
6700.00,0.69
6699.00,0.69
6698.00,0.69
6697.00,0.69
6696.00,0.69
6695.00,0.69
6694.00,0.69
6693.00,0.69
6692.00,0.69
6691.00,0.69
6690.00,0.69
6689.00,0.69
6688.00,0.69
6687.00,0.69
6686.00,0.69
6685.00,0.69
6684.00,0.69
6683.00,0.69
6682.00,0.69
6681.00,0.69
6680.00,0.69
6679.00,0.70
6678.00,0.70
6677.00,0.70
6676.00,0.70
6675.00,0.70
6674.00,0.70
6673.00,0.70
6672.00,0.70
6671.00,0.71
6670.00,0.71
6669.00,0.71
6668.00,0.71
6667.00,0.71
6666.00,0.71
6665.00,0.71
6664.00,0.71
6663.00,0.72
6662.00,0.72
6661.00,0.72
6660.00,0.72
6659.00,0.72
6658.00,0.72
6657.00,0.72
6656.00,0.72
6655.00,0.72
6654.00,0.72
6653.00,0.72
6652.00,0.72
6651.00,0.72
6650.00,0.72
6649.00,0.72
6648.00,0.72
6647.00,0.72
6646.00,0.72
6645.00,0.72
6644.00,0.72
6643.00,0.72
6642.00,0.72
6641.00,0.72
6640.00,0.72
6639.00,0.72
6638.00,0.72
6637.00,0.73
6636.00,0.73
6635.00,0.73
6634.00,0.73
6633.00,0.73
6632.00,0.73
6631.00,0.73
6630.00,0.73
6629.00,0.73
6628.00,0.73
6627.00,0.73
6626.00,0.74
6625.00,0.74
6624.00,0.74
6623.00,0.74
6622.00,0.74
6621.00,0.74
6620.00,0.74
6619.00,0.74
6618.00,0.75
6617.00,0.75
6616.00,0.75
6615.00,0.75
6614.00,0.75
6613.00,0.75
6612.00,0.75
6611.00,0.75
6610.00,0.75
6609.00,0.75
6608.00,0.76
6607.00,0.76
6606.00,0.76
6605.00,0.76
6604.00,0.76
6603.00,0.76
6602.00,0.76
6601.00,0.76
6600.00,0.76
6599.00,0.76
6598.00,0.76
6597.00,0.77
6596.00,0.77
6595.00,0.77
6594.00,0.77
6593.00,0.77
6592.00,0.77
6591.00,0.77
6590.00,0.77
6589.00,0.77
6588.00,0.77
6587.00,0.77
6586.00,0.77
6585.00,0.77
6584.00,0.77
6583.00,0.77
6582.00,0.77
6581.00,0.78
6580.00,0.78
6579.00,0.78
6578.00,0.78
6577.00,0.78
6576.00,0.78
6575.00,0.78
6574.00,0.78
6573.00,0.78
6572.00,0.78
6571.00,0.78
6570.00,0.78
6569.00,0.78
6568.00,0.78
6567.00,0.78
6566.00,0.78
6565.00,0.78
6564.00,0.78
6563.00,0.78
6562.00,0.78
6561.00,0.78
6560.00,0.78
6559.00,0.78
6558.00,0.78
6557.00,0.78
6556.00,0.78
6555.00,0.78
6554.00,0.78
6553.00,0.78
6552.00,0.79
6551.00,0.79
6550.00,0.79
6549.00,0.79
6548.00,0.79
6547.00,0.79
6546.00,0.79
6545.00,0.79
6544.00,0.79
6543.00,0.79
6542.00,0.80
6541.00,0.80
6540.00,0.80
6539.00,0.80
6538.00,0.80
6537.00,0.80
6536.00,0.80
6535.00,0.80
6534.00,0.80
6533.00,0.80
6532.00,0.81
6531.00,0.81
6530.00,0.81
6529.00,0.81
6528.00,0.81
6527.00,0.81
6526.00,0.81
6525.00,0.81
6524.00,0.81
6523.00,0.81
6522.00,0.81
6521.00,0.81
6520.00,0.81
6519.00,0.81
6518.00,0.81
6517.00,0.81
6516.00,0.81
6515.00,0.81
6514.00,0.81
6513.00,0.81
6512.00,0.81
6511.00,0.81
6510.00,0.81
6509.00,0.81
6508.00,0.81
6507.00,0.81
6506.00,0.81
6505.00,0.81
6504.00,0.81
6503.00,0.81
6502.00,0.81
6501.00,0.81
6500.00,0.81
6499.00,0.81
6498.00,0.81
6497.00,0.81
6496.00,0.81
6495.00,0.82
6494.00,0.82
6493.00,0.82
6492.00,0.82
6491.00,0.82
6490.00,0.82
6489.00,0.82
6488.00,0.82
6487.00,0.82
6486.00,0.82
6485.00,0.82
6484.00,0.82
6483.00,0.82
6482.00,0.82
6481.00,0.82
6480.00,0.82
6479.00,0.83
6478.00,0.83
6477.00,0.83
6476.00,0.83
6475.00,0.83
6474.00,0.83
6473.00,0.83
6472.00,0.83
6471.00,0.83
6470.00,0.83
6469.00,0.83
6468.00,0.83
6467.00,0.83
6466.00,0.83
6465.00,0.83
6464.00,0.83
6463.00,0.83
6462.00,0.83
6461.00,0.83
6460.00,0.84
6459.00,0.84
6458.00,0.84
6457.00,0.84
6456.00,0.84
6455.00,0.84
6454.00,0.84
6453.00,0.84
6452.00,0.84
6451.00,0.84
6450.00,0.84
6449.00,0.84
6448.00,0.84
6447.00,0.84
6446.00,0.84
6445.00,0.84
6444.00,0.84
6443.00,0.84
6442.00,0.84
6441.00,0.84
6440.00,0.84
6439.00,0.84
6438.00,0.84
6437.00,0.84
6436.00,0.84
6435.00,0.84
6434.00,0.84
6433.00,0.84
6432.00,0.84
6431.00,0.84
6430.00,0.85
6429.00,0.85
6428.00,0.85
6427.00,0.85
6426.00,0.85
6425.00,0.85
6424.00,0.85
6423.00,0.85
6422.00,0.85
6421.00,0.85
6420.00,0.85
6419.00,0.85
6418.00,0.85
6417.00,0.85
6416.00,0.85
6415.00,0.85
6414.00,0.85
6413.00,0.85
6412.00,0.85
6411.00,0.85
6410.00,0.85
6409.00,0.85
6408.00,0.85
6407.00,0.85
6406.00,0.85
6405.00,0.85
6404.00,0.85
6403.00,0.85
6402.00,0.85
6401.00,0.85
6400.00,0.85
6399.00,0.85
6398.00,0.86
6397.00,0.86
6396.00,0.86
6395.00,0.86
6394.00,0.86
6393.00,0.86
6392.00,0.86
6391.00,0.86
6390.00,0.86
6389.00,0.86
6388.00,0.86
6387.00,0.86
6386.00,0.86
6385.00,0.86
6384.00,0.86
6383.00,0.86
6382.00,0.86
6381.00,0.86
6380.00,0.87
6379.00,0.87
6378.00,0.87
6377.00,0.87
6376.00,0.87
6375.00,0.87
6374.00,0.87
6373.00,0.87
6372.00,0.87
6371.00,0.87
6370.00,0.87
6369.00,0.87
6368.00,0.87
6367.00,0.88
6366.00,0.88
6365.00,0.88
6364.00,0.88
6363.00,0.88
6362.00,0.88
6361.00,0.88
6360.00,0.88
6359.00,0.88
6358.00,0.88
6357.00,0.88
6356.00,0.88
6355.00,0.88
6354.00,0.88
6353.00,0.88
6352.00,0.88
6351.00,0.88
6350.00,0.88
6349.00,0.88
6348.00,0.88
6347.00,0.88
6346.00,0.88
6345.00,0.88
6344.00,0.88
6343.00,0.88
6342.00,0.88
6341.00,0.88
6340.00,0.88
6339.00,0.88
6338.00,0.88
6337.00,0.88
6336.00,0.88
6335.00,0.88
6334.00,0.88
6333.00,0.89
6332.00,0.89
6331.00,0.89
6330.00,0.89
6329.00,0.89
6328.00,0.89
6327.00,0.89
6326.00,0.89
6325.00,0.89
6324.00,0.89
6323.00,0.89
6322.00,0.89
6321.00,0.90
6320.00,0.90
6319.00,0.90
6318.00,0.90
6317.00,0.90
6316.00,0.90
6315.00,0.90
6314.00,0.91
6313.00,0.91
6312.00,0.91
6311.00,0.91
6310.00,0.91
6309.00,0.91
6308.00,0.91
6307.00,0.91
6306.00,0.91
6305.00,0.91
6304.00,0.91
6303.00,0.91
6302.00,0.91
6301.00,0.91
6300.00,0.92
6299.00,0.92
6298.00,0.92
6297.00,0.92
6296.00,0.92
6295.00,0.92
6294.00,0.92
6293.00,0.92
6292.00,0.92
6291.00,0.92
6290.00,0.92
6289.00,0.92
6288.00,0.92
6287.00,0.93
6286.00,0.93
6285.00,0.93
6284.00,0.93
6283.00,0.93
6282.00,0.93
6281.00,0.93
6280.00,0.93
6279.00,0.93
6278.00,0.93
6277.00,0.93
6276.00,0.94
6275.00,0.94
6274.00,0.94
6273.00,0.94
6272.00,0.94
6271.00,0.94
6270.00,0.94
6269.00,0.94
6268.00,0.94
6267.00,0.94
6266.00,0.94
6265.00,0.94
6264.00,0.94
6263.00,0.94
6262.00,0.94
6261.00,0.94
6260.00,0.94
6259.00,0.94
6258.00,0.95
6257.00,0.95
6256.00,0.95
6255.00,0.95
6254.00,0.95
6253.00,0.95
6252.00,0.95
6251.00,0.95
6250.00,0.96
6249.00,0.96
6248.00,0.96
6247.00,0.96
6246.00,0.96
6245.00,0.96
6244.00,0.97
6243.00,0.97
6242.00,0.97
6241.00,0.97
6240.00,0.97
6239.00,0.97
6238.00,0.97
6237.00,0.97
6236.00,0.97
6235.00,0.97
6234.00,0.97
6233.00,0.97
6232.00,0.97
6231.00,0.97
6230.00,0.98
6229.00,0.98
6228.00,0.98
6227.00,0.98
6226.00,0.98
6225.00,0.98
6224.00,0.98
6223.00,0.98
6222.00,0.98
6221.00,0.98
6220.00,0.98
6219.00,0.99
6218.00,0.99
6217.00,0.99
6216.00,0.99
6215.00,0.99
6214.00,0.99
6213.00,0.99
6212.00,0.99
6211.00,0.99
6210.00,0.99
6209.00,0.99
6208.00,0.99
6207.00,0.99
6206.00,1.00
6205.00,1.00
6204.00,1.00
6203.00,1.00
6202.00,1.00
6201.00,1.00
6200.00,1.00
6199.00,1.00
6198.00,1.00
6197.00,1.00
6196.00,1.00
6195.00,1.01
6194.00,1.01
6193.00,1.01
6192.00,1.01
6191.00,1.01
6190.00,1.01
6189.00,1.01
6188.00,1.01
6187.00,1.01
6186.00,1.01
6185.00,1.02
6184.00,1.02
6183.00,1.02
6182.00,1.02
6181.00,1.02
6180.00,1.02
6179.00,1.02
6178.00,1.03
6177.00,1.03
6176.00,1.03
6175.00,1.03
6174.00,1.03
6173.00,1.03
6172.00,1.03
6171.00,1.03
6170.00,1.03
6169.00,1.04
6168.00,1.04
6167.00,1.04
6166.00,1.04
6165.00,1.04
6164.00,1.04
6163.00,1.04
6162.00,1.04
6161.00,1.04
6160.00,1.05
6159.00,1.05
6158.00,1.05
6157.00,1.05
6156.00,1.05
6155.00,1.05
6154.00,1.05
6153.00,1.05
6152.00,1.05
6151.00,1.06
6150.00,1.06
6149.00,1.06
6148.00,1.06
6147.00,1.06
6146.00,1.06
6145.00,1.06
6144.00,1.06
6143.00,1.07
6142.00,1.07
6141.00,1.07
6140.00,1.07
6139.00,1.07
6138.00,1.07
6137.00,1.07
6136.00,1.08
6135.00,1.08
6134.00,1.08
6133.00,1.08
6132.00,1.08
6131.00,1.08
6130.00,1.08
6129.00,1.08
6128.00,1.09
6127.00,1.09
6126.00,1.09
6125.00,1.09
6124.00,1.09
6123.00,1.09
6122.00,1.09
6121.00,1.09
6120.00,1.09
6119.00,1.09
6118.00,1.09
6117.00,1.09
6116.00,1.10
6115.00,1.10
6114.00,1.10
6113.00,1.10
6112.00,1.10
6111.00,1.10
6110.00,1.10
6109.00,1.10
6108.00,1.10
6107.00,1.10
6106.00,1.11
6105.00,1.11
6104.00,1.11
6103.00,1.11
6102.00,1.11
6101.00,1.11
6100.00,1.11
6099.00,1.11
6098.00,1.11
6097.00,1.12
6096.00,1.12
6095.00,1.12
6094.00,1.12
6093.00,1.12
6092.00,1.12
6091.00,1.13
6090.00,1.13
6089.00,1.13
6088.00,1.13
6087.00,1.13
6086.00,1.13
6085.00,1.13
6084.00,1.13
6083.00,1.14
6082.00,1.14
6081.00,1.14
6080.00,1.14
6079.00,1.14
6078.00,1.14
6077.00,1.14
6076.00,1.14
6075.00,1.14
6074.00,1.14
6073.00,1.14
6072.00,1.14
6071.00,1.14
6070.00,1.14
6069.00,1.14
6068.00,1.14
6067.00,1.14
6066.00,1.14
6065.00,1.14
6064.00,1.14
6063.00,1.14
6062.00,1.14
6061.00,1.14
6060.00,1.14
6059.00,1.14
6058.00,1.15
6057.00,1.15
6056.00,1.15
6055.00,1.15
6054.00,1.15
6053.00,1.15
6052.00,1.15
6051.00,1.15
6050.00,1.15
6049.00,1.15
6048.00,1.15
6047.00,1.16
6046.00,1.16
6045.00,1.16
6044.00,1.16
6043.00,1.16
6042.00,1.16
6041.00,1.16
6040.00,1.16
6039.00,1.16
6038.00,1.16
6037.00,1.16
6036.00,1.16
6035.00,1.16
6034.00,1.16
6033.00,1.16
6032.00,1.17
6031.00,1.17
6030.00,1.17
6029.00,1.17
6028.00,1.17
6027.00,1.17
6026.00,1.17
6025.00,1.17
6024.00,1.17
6023.00,1.17
6022.00,1.17
6021.00,1.17
6020.00,1.17
6019.00,1.17
6018.00,1.17
6017.00,1.17
6016.00,1.17
6015.00,1.17
6014.00,1.17
6013.00,1.17
6012.00,1.17
6011.00,1.17
6010.00,1.17
6009.00,1.17
6008.00,1.17
6007.00,1.17
6006.00,1.17
6005.00,1.17
6004.00,1.17
6003.00,1.17
6002.00,1.17
6001.00,1.17
6000.00,1.17
5999.00,1.16
5998.00,1.16
5997.00,1.16
5996.00,1.16
5995.00,1.16
5994.00,1.16
5993.00,1.16
5992.00,1.15
5991.00,1.15
5990.00,1.15
5989.00,1.15
5988.00,1.15
5987.00,1.15
5986.00,1.14
5985.00,1.14
5984.00,1.14
5983.00,1.14
5982.00,1.13
5981.00,1.13
5980.00,1.13
5979.00,1.13
5978.00,1.12
5977.00,1.12
5976.00,1.12
5975.00,1.11
5974.00,1.11
5973.00,1.11
5972.00,1.10
5971.00,1.10
5970.00,1.09
5969.00,1.09
5968.00,1.08
5967.00,1.08
5966.00,1.07
5965.00,1.07
5964.00,1.06
5963.00,1.06
5962.00,1.05
5961.00,1.04
5960.00,1.04
5959.00,1.03
5958.00,1.03
5957.00,1.02
5956.00,1.01
5955.00,1.01
5954.00,1.00
5953.00,1.00
5952.00,0.99
5951.00,0.99
5950.00,0.98
5949.00,0.98
5948.00,0.98
5947.00,0.97
5946.00,0.97
5945.00,0.97
5944.00,0.96
5943.00,0.96
5942.00,0.96
5941.00,0.96
5940.00,0.96
5939.00,0.96
5938.00,0.96
5937.00,0.95
5936.00,0.95
5935.00,0.95
5934.00,0.95
5933.00,0.95
5932.00,0.95
5931.00,0.95
5930.00,0.95
5929.00,0.95
5928.00,0.95
5927.00,0.95
5926.00,0.95
5925.00,0.95
5924.00,0.94
5923.00,0.94
5922.00,0.94
5921.00,0.94
5920.00,0.94
5919.00,0.93
5918.00,0.93
5917.00,0.93
5916.00,0.93
5915.00,0.93
5914.00,0.92
5913.00,0.92
5912.00,0.92
5911.00,0.92
5910.00,0.92
5909.00,0.91
5908.00,0.91
5907.00,0.91
5906.00,0.91
5905.00,0.91
5904.00,0.91
5903.00,0.91
5902.00,0.91
5901.00,0.91
5900.00,0.91
5899.00,0.91
5898.00,0.91
5897.00,0.91
5896.00,0.91
5895.00,0.92
5894.00,0.92
5893.00,0.92
5892.00,0.92
5891.00,0.92
5890.00,0.92
5889.00,0.93
5888.00,0.93
5887.00,0.93
5886.00,0.93
5885.00,0.93
5884.00,0.94
5883.00,0.94
5882.00,0.94
5881.00,0.94
5880.00,0.94
5879.00,0.95
5878.00,0.95
5877.00,0.95
5876.00,0.95
5875.00,0.96
5874.00,0.96
5873.00,0.96
5872.00,0.96
5871.00,0.96
5870.00,0.96
5869.00,0.97
5868.00,0.97
5867.00,0.97
5866.00,0.97
5865.00,0.97
5864.00,0.97
5863.00,0.97
5862.00,0.97
5861.00,0.97
5860.00,0.98
5859.00,0.98
5858.00,0.98
5857.00,0.98
5856.00,0.98
5855.00,0.98
5854.00,0.98
5853.00,0.98
5852.00,0.98
5851.00,0.98
5850.00,0.98
5849.00,0.98
5848.00,0.98
5847.00,0.98
5846.00,0.98
5845.00,0.98
5844.00,0.98
5843.00,0.98
5842.00,0.98
5841.00,0.99
5840.00,0.99
5839.00,0.99
5838.00,0.99
5837.00,0.99
5836.00,0.99
5835.00,0.99
5834.00,0.99
5833.00,0.99
5832.00,0.99
5831.00,0.99
5830.00,0.99
5829.00,0.99
5828.00,0.99
5827.00,0.99
5826.00,0.99
5825.00,0.99
5824.00,0.99
5823.00,0.99
5822.00,0.99
5821.00,0.99
5820.00,0.99
5819.00,0.99
5818.00,0.99
5817.00,0.99
5816.00,0.99
5815.00,0.99
5814.00,0.99
5813.00,0.99
5812.00,0.99
5811.00,0.99
5810.00,0.99
5809.00,0.99
5808.00,0.99
5807.00,0.99
5806.00,0.99
5805.00,0.99
5804.00,0.99
5803.00,0.99
5802.00,0.99
5801.00,0.99
5800.00,0.99
5799.00,0.98
5798.00,0.98
5797.00,0.98
5796.00,0.98
5795.00,0.98
5794.00,0.98
5793.00,0.97
5792.00,0.97
5791.00,0.97
5790.00,0.97
5789.00,0.97
5788.00,0.96
5787.00,0.96
5786.00,0.96
5785.00,0.96
5784.00,0.96
5783.00,0.96
5782.00,0.95
5781.00,0.95
5780.00,0.95
5779.00,0.95
5778.00,0.95
5777.00,0.95
5776.00,0.95
5775.00,0.95
5774.00,0.95
5773.00,0.95
5772.00,0.95
5771.00,0.95
5770.00,0.95
5769.00,0.95
5768.00,0.95
5767.00,0.95
5766.00,0.95
5765.00,0.95
5764.00,0.95
5763.00,0.95
5762.00,0.96
5761.00,0.96
5760.00,0.96
5759.00,0.96
5758.00,0.96
5757.00,0.97
5756.00,0.97
5755.00,0.97
5754.00,0.97
5753.00,0.98
5752.00,0.98
5751.00,0.98
5750.00,0.98
5749.00,0.99
5748.00,0.99
5747.00,0.99
5746.00,1.00
5745.00,1.00
5744.00,1.00
5743.00,1.01
5742.00,1.01
5741.00,1.01
5740.00,1.02
5739.00,1.02
5738.00,1.02
5737.00,1.03
5736.00,1.03
5735.00,1.03
5734.00,1.03
5733.00,1.03
5732.00,1.04
5731.00,1.04
5730.00,1.04
5729.00,1.04
5728.00,1.04
5727.00,1.04
5726.00,1.04
5725.00,1.04
5724.00,1.04
5723.00,1.04
5722.00,1.04
5721.00,1.04
5720.00,1.04
5719.00,1.04
5718.00,1.04
5717.00,1.04
5716.00,1.04
5715.00,1.04
5714.00,1.04
5713.00,1.04
5712.00,1.04
5711.00,1.04
5710.00,1.04
5709.00,1.04
5708.00,1.04
5707.00,1.04
5706.00,1.04
5705.00,1.04
5704.00,1.04
5703.00,1.04
5702.00,1.04
5701.00,1.04
5700.00,1.04
5699.00,1.04
5698.00,1.04
5697.00,1.04
5696.00,1.04
5695.00,1.04
5694.00,1.03
5693.00,1.03
5692.00,1.03
5691.00,1.03
5690.00,1.03
5689.00,1.03
5688.00,1.03
5687.00,1.03
5686.00,1.03
5685.00,1.02
5684.00,1.02
5683.00,1.02
5682.00,1.02
5681.00,1.02
5680.00,1.02
5679.00,1.02
5678.00,1.02
5677.00,1.02
5676.00,1.02
5675.00,1.02
5674.00,1.01
5673.00,1.01
5672.00,1.01
5671.00,1.01
5670.00,1.01
5669.00,1.01
5668.00,1.02
5667.00,1.02
5666.00,1.02
5665.00,1.02
5664.00,1.02
5663.00,1.02
5662.00,1.02
5661.00,1.02
5660.00,1.02
5659.00,1.03
5658.00,1.03
5657.00,1.03
5656.00,1.03
5655.00,1.03
5654.00,1.04
5653.00,1.04
5652.00,1.04
5651.00,1.04
5650.00,1.04
5649.00,1.04
5648.00,1.05
5647.00,1.05
5646.00,1.05
5645.00,1.05
5644.00,1.05
5643.00,1.05
5642.00,1.06
5641.00,1.06
5640.00,1.06
5639.00,1.06
5638.00,1.06
5637.00,1.06
5636.00,1.06
5635.00,1.06
5634.00,1.07
5633.00,1.07
5632.00,1.07
5631.00,1.07
5630.00,1.07
5629.00,1.07
5628.00,1.07
5627.00,1.08
5626.00,1.08
5625.00,1.08
5624.00,1.08
5623.00,1.08
5622.00,1.08
5621.00,1.09
5620.00,1.09
5619.00,1.09
5618.00,1.09
5617.00,1.09
5616.00,1.09
5615.00,1.09
5614.00,1.09
5613.00,1.10
5612.00,1.10
5611.00,1.10
5610.00,1.10
5609.00,1.10
5608.00,1.10
5607.00,1.10
5606.00,1.10
5605.00,1.11
5604.00,1.11
5603.00,1.11
5602.00,1.11
5601.00,1.11
5600.00,1.11
5599.00,1.11
5598.00,1.12
5597.00,1.12
5596.00,1.12
5595.00,1.12
5594.00,1.12
5593.00,1.12
5592.00,1.12
5591.00,1.12
5590.00,1.13
5589.00,1.13
5588.00,1.13
5587.00,1.13
5586.00,1.13
5585.00,1.13
5584.00,1.13
5583.00,1.13
5582.00,1.13
5581.00,1.14
5580.00,1.14
5579.00,1.14
5578.00,1.14
5577.00,1.14
5576.00,1.14
5575.00,1.14
5574.00,1.14
5573.00,1.15
5572.00,1.15
5571.00,1.15
5570.00,1.15
5569.00,1.15
5568.00,1.15
5567.00,1.15
5566.00,1.15
5565.00,1.15
5564.00,1.16
5563.00,1.16
5562.00,1.16
5561.00,1.16
5560.00,1.16
5559.00,1.16
5558.00,1.16
5557.00,1.16
5556.00,1.16
5555.00,1.16
5554.00,1.17
5553.00,1.17
5552.00,1.17
5551.00,1.17
5550.00,1.17
5549.00,1.17
5548.00,1.17
5547.00,1.17
5546.00,1.17
5545.00,1.17
5544.00,1.18
5543.00,1.18
5542.00,1.18
5541.00,1.18
5540.00,1.18
5539.00,1.18
5538.00,1.18
5537.00,1.18
5536.00,1.18
5535.00,1.18
5534.00,1.18
5533.00,1.18
5532.00,1.18
5531.00,1.18
5530.00,1.18
5529.00,1.19
5528.00,1.19
5527.00,1.19
5526.00,1.19
5525.00,1.19
5524.00,1.19
5523.00,1.19
5522.00,1.19
5521.00,1.19
5520.00,1.19
5519.00,1.19
5518.00,1.19
5517.00,1.19
5516.00,1.19
5515.00,1.20
5514.00,1.20
5513.00,1.20
5512.00,1.20
5511.00,1.20
5510.00,1.20
5509.00,1.20
5508.00,1.20
5507.00,1.20
5506.00,1.20
5505.00,1.20
5504.00,1.20
5503.00,1.20
5502.00,1.20
5501.00,1.20
5500.00,1.20
5499.00,1.20
5498.00,1.20
5497.00,1.20
5496.00,1.20
5495.00,1.20
5494.00,1.20
5493.00,1.20
5492.00,1.20
5491.00,1.20
5490.00,1.21
5489.00,1.21
5488.00,1.21
5487.00,1.21
5486.00,1.21
5485.00,1.21
5484.00,1.21
5483.00,1.21
5482.00,1.21
5481.00,1.22
5480.00,1.22
5479.00,1.22
5478.00,1.22
5477.00,1.22
5476.00,1.22
5475.00,1.22
5474.00,1.22
5473.00,1.22
5472.00,1.22
5471.00,1.23
5470.00,1.23
5469.00,1.23
5468.00,1.23
5467.00,1.23
5466.00,1.23
5465.00,1.23
5464.00,1.23
5463.00,1.23
5462.00,1.23
5461.00,1.23
5460.00,1.23
5459.00,1.24
5458.00,1.24
5457.00,1.24
5456.00,1.24
5455.00,1.24
5454.00,1.24
5453.00,1.24
5452.00,1.24
5451.00,1.24
5450.00,1.24
5449.00,1.24
5448.00,1.24
5447.00,1.24
5446.00,1.24
5445.00,1.24
5444.00,1.24
5443.00,1.24
5442.00,1.24
5441.00,1.24
5440.00,1.24
5439.00,1.24
5438.00,1.24
5437.00,1.24
5436.00,1.24
5435.00,1.24
5434.00,1.24
5433.00,1.24
5432.00,1.24
5431.00,1.24
5430.00,1.24
5429.00,1.24
5428.00,1.24
5427.00,1.24
5426.00,1.24
5425.00,1.24
5424.00,1.24
5423.00,1.24
5422.00,1.25
5421.00,1.25
5420.00,1.25
5419.00,1.25
5418.00,1.25
5417.00,1.25
5416.00,1.25
5415.00,1.25
5414.00,1.25
5413.00,1.25
5412.00,1.25
5411.00,1.25
5410.00,1.25
5409.00,1.25
5408.00,1.25
5407.00,1.25
5406.00,1.25
5405.00,1.25
5404.00,1.25
5403.00,1.25
5402.00,1.25
5401.00,1.25
5400.00,1.25
5399.00,1.25
5398.00,1.25
5397.00,1.25
5396.00,1.25
5395.00,1.24
5394.00,1.24
5393.00,1.24
5392.00,1.24
5391.00,1.24
5390.00,1.24
5389.00,1.24
5388.00,1.24
5387.00,1.23
5386.00,1.23
5385.00,1.23
5384.00,1.23
5383.00,1.23
5382.00,1.23
5381.00,1.22
5380.00,1.22
5379.00,1.22
5378.00,1.22
5377.00,1.22
5376.00,1.22
5375.00,1.21
5374.00,1.21
5373.00,1.21
5372.00,1.21
5371.00,1.20
5370.00,1.20
5369.00,1.20
5368.00,1.19
5367.00,1.19
5366.00,1.19
5365.00,1.18
5364.00,1.18
5363.00,1.17
5362.00,1.17
5361.00,1.17
5360.00,1.16
5359.00,1.15
5358.00,1.15
5357.00,1.14
5356.00,1.14
5355.00,1.13
5354.00,1.13
5353.00,1.12
5352.00,1.11
5351.00,1.11
5350.00,1.10
5349.00,1.09
5348.00,1.08
5347.00,1.08
5346.00,1.07
5345.00,1.06
5344.00,1.06
5343.00,1.05
5342.00,1.04
5341.00,1.03
5340.00,1.03
5339.00,1.02
5338.00,1.01
5337.00,1.01
5336.00,1.00
5335.00,0.99
5334.00,0.98
5333.00,0.98
5332.00,0.97
5331.00,0.96
5330.00,0.95
5329.00,0.94
5328.00,0.94
5327.00,0.93
5326.00,0.92
5325.00,0.91
5324.00,0.91
5323.00,0.90
5322.00,0.89
5321.00,0.88
5320.00,0.88
5319.00,0.87
5318.00,0.86
5317.00,0.85
5316.00,0.85
5315.00,0.84
5314.00,0.83
5313.00,0.83
5312.00,0.82
5311.00,0.81
5310.00,0.81
5309.00,0.80
5308.00,0.80
5307.00,0.79
5306.00,0.79
5305.00,0.78
5304.00,0.78
5303.00,0.77
5302.00,0.77
5301.00,0.76
5300.00,0.76
5299.00,0.76
5298.00,0.75
5297.00,0.75
5296.00,0.75
5295.00,0.75
5294.00,0.74
5293.00,0.74
5292.00,0.74
5291.00,0.74
5290.00,0.74
5289.00,0.73
5288.00,0.73
5287.00,0.73
5286.00,0.73
5285.00,0.73
5284.00,0.72
5283.00,0.72
5282.00,0.72
5281.00,0.72
5280.00,0.72
5279.00,0.72
5278.00,0.72
5277.00,0.71
5276.00,0.71
5275.00,0.71
5274.00,0.71
5273.00,0.71
5272.00,0.71
5271.00,0.71
5270.00,0.71
5269.00,0.71
5268.00,0.71
5267.00,0.71
5266.00,0.71
5265.00,0.71
5264.00,0.71
5263.00,0.71
5262.00,0.70
5261.00,0.70
5260.00,0.70
5259.00,0.70
5258.00,0.70
5257.00,0.70
5256.00,0.70
5255.00,0.70
5254.00,0.70
5253.00,0.71
5252.00,0.71
5251.00,0.71
5250.00,0.71
5249.00,0.71
5248.00,0.71
5247.00,0.71
5246.00,0.71
5245.00,0.71
5244.00,0.71
5243.00,0.71
5242.00,0.71
5241.00,0.71
5240.00,0.71
5239.00,0.71
5238.00,0.71
5237.00,0.71
5236.00,0.71
5235.00,0.71
5234.00,0.71
5233.00,0.71
5232.00,0.71
5231.00,0.71
5230.00,0.71
5229.00,0.71
5228.00,0.71
5227.00,0.71
5226.00,0.71
5225.00,0.71
5224.00,0.71
5223.00,0.71
5222.00,0.71
5221.00,0.71
5220.00,0.71
5219.00,0.71
5218.00,0.71
5217.00,0.71
5216.00,0.71
5215.00,0.71
5214.00,0.71
5213.00,0.71
5212.00,0.71
5211.00,0.71
5210.00,0.71
5209.00,0.71
5208.00,0.71
5207.00,0.71
5206.00,0.71
5205.00,0.71
5204.00,0.71
5203.00,0.71
5202.00,0.72
5201.00,0.72
5200.00,0.72
5199.00,0.72
5198.00,0.72
5197.00,0.72
5196.00,0.72
5195.00,0.72
5194.00,0.72
5193.00,0.72
5192.00,0.72
5191.00,0.72
5190.00,0.72
5189.00,0.72
5188.00,0.72
5187.00,0.72
5186.00,0.72
5185.00,0.72
5184.00,0.72
5183.00,0.72
5182.00,0.72
5181.00,0.73
5180.00,0.73
5179.00,0.73
5178.00,0.73
5177.00,0.73
5176.00,0.73
5175.00,0.73
5174.00,0.73
5173.00,0.73
5172.00,0.73
5171.00,0.73
5170.00,0.73
5169.00,0.73
5168.00,0.73
5167.00,0.73
5166.00,0.73
5165.00,0.73
5164.00,0.73
5163.00,0.73
5162.00,0.73
5161.00,0.73
5160.00,0.73
5159.00,0.73
5158.00,0.73
5157.00,0.73
5156.00,0.73
5155.00,0.73
5154.00,0.73
5153.00,0.73
5152.00,0.74
5151.00,0.74
5150.00,0.74
5149.00,0.74
5148.00,0.74
5147.00,0.74
5146.00,0.74
5145.00,0.74
5144.00,0.74
5143.00,0.74
5142.00,0.74
5141.00,0.74
5140.00,0.74
5139.00,0.74
5138.00,0.74
5137.00,0.74
5136.00,0.74
5135.00,0.74
5134.00,0.74
5133.00,0.74
5132.00,0.74
5131.00,0.74
5130.00,0.74
5129.00,0.74
5128.00,0.74
5127.00,0.74
5126.00,0.74
5125.00,0.74
5124.00,0.74
5123.00,0.75
5122.00,0.75
5121.00,0.75
5120.00,0.75
5119.00,0.75
5118.00,0.75
5117.00,0.75
5116.00,0.75
5115.00,0.75
5114.00,0.75
5113.00,0.75
5112.00,0.75
5111.00,0.75
5110.00,0.75
5109.00,0.75
5108.00,0.75
5107.00,0.75
5106.00,0.75
5105.00,0.75
5104.00,0.75
5103.00,0.75
5102.00,0.76
5101.00,0.76
5100.00,0.76
5099.00,0.76
5098.00,0.76
5097.00,0.76
5096.00,0.76
5095.00,0.76
5094.00,0.76
5093.00,0.76
5092.00,0.76
5091.00,0.76
5090.00,0.76
5089.00,0.76
5088.00,0.77
5087.00,0.77
5086.00,0.77
5085.00,0.77
5084.00,0.77
5083.00,0.77
5082.00,0.77
5081.00,0.77
5080.00,0.77
5079.00,0.77
5078.00,0.77
5077.00,0.77
5076.00,0.77
5075.00,0.77
5074.00,0.77
5073.00,0.77
5072.00,0.77
5071.00,0.77
5070.00,0.77
5069.00,0.77
5068.00,0.77
5067.00,0.77
5066.00,0.77
5065.00,0.77
5064.00,0.77
5063.00,0.77
5062.00,0.77
5061.00,0.77
5060.00,0.77
5059.00,0.77
5058.00,0.77
5057.00,0.78
5056.00,0.78
5055.00,0.78
5054.00,0.78
5053.00,0.78
5052.00,0.78
5051.00,0.78
5050.00,0.78
5049.00,0.78
5048.00,0.78
5047.00,0.78
5046.00,0.79
5045.00,0.79
5044.00,0.79
5043.00,0.79
5042.00,0.79
5041.00,0.79
5040.00,0.79
5039.00,0.79
5038.00,0.79
5037.00,0.79
5036.00,0.79
5035.00,0.79
5034.00,0.79
5033.00,0.79
5032.00,0.79
5031.00,0.79
5030.00,0.79
5029.00,0.79
5028.00,0.79
5027.00,0.79
5026.00,0.79
5025.00,0.80
5024.00,0.80
5023.00,0.80
5022.00,0.80
5021.00,0.80
5020.00,0.80
5019.00,0.80
5018.00,0.80
5017.00,0.80
5016.00,0.80
5015.00,0.80
5014.00,0.80
5013.00,0.80
5012.00,0.80
5011.00,0.80
5010.00,0.81
5009.00,0.81
5008.00,0.81
5007.00,0.81
5006.00,0.81
5005.00,0.81
5004.00,0.81
5003.00,0.81
5002.00,0.81
5001.00,0.81
5000.00,0.81
4999.00,0.81
4998.00,0.81
4997.00,0.81
4996.00,0.81
4995.00,0.81
4994.00,0.82
4993.00,0.82
4992.00,0.82
4991.00,0.82
4990.00,0.82
4989.00,0.82
4988.00,0.82
4987.00,0.82
4986.00,0.82
4985.00,0.82
4984.00,0.83
4983.00,0.83
4982.00,0.83
4981.00,0.83
4980.00,0.83
4979.00,0.83
4978.00,0.83
4977.00,0.83
4976.00,0.83
4975.00,0.83
4974.00,0.83
4973.00,0.83
4972.00,0.83
4971.00,0.83
4970.00,0.83
4969.00,0.83
4968.00,0.84
4967.00,0.84
4966.00,0.84
4965.00,0.84
4964.00,0.84
4963.00,0.84
4962.00,0.84
4961.00,0.84
4960.00,0.84
4959.00,0.84
4958.00,0.84
4957.00,0.84
4956.00,0.85
4955.00,0.85
4954.00,0.85
4953.00,0.85
4952.00,0.85
4951.00,0.85
4950.00,0.85
4949.00,0.85
4948.00,0.85
4947.00,0.85
4946.00,0.85
4945.00,0.85
4944.00,0.85
4943.00,0.85
4942.00,0.85
4941.00,0.85
4940.00,0.85
4939.00,0.86
4938.00,0.86
4937.00,0.86
4936.00,0.86
4935.00,0.86
4934.00,0.86
4933.00,0.86
4932.00,0.86
4931.00,0.86
4930.00,0.87
4929.00,0.87
4928.00,0.87
4927.00,0.87
4926.00,0.87
4925.00,0.87
4924.00,0.87
4923.00,0.87
4922.00,0.87
4921.00,0.87
4920.00,0.87
4919.00,0.87
4918.00,0.87
4917.00,0.87
4916.00,0.87
4915.00,0.87
4914.00,0.87
4913.00,0.87
4912.00,0.87
4911.00,0.87
4910.00,0.87
4909.00,0.87
4908.00,0.87
4907.00,0.87
4906.00,0.87
4905.00,0.87
4904.00,0.87
4903.00,0.87
4902.00,0.87
4901.00,0.87
4900.00,0.87
4899.00,0.87
4898.00,0.88
4897.00,0.88
4896.00,0.88
4895.00,0.88
4894.00,0.88
4893.00,0.88
4892.00,0.88
4891.00,0.88
4890.00,0.88
4889.00,0.88
4888.00,0.88
4887.00,0.88
4886.00,0.88
4885.00,0.88
4884.00,0.88
4883.00,0.88
4882.00,0.88
4881.00,0.88
4880.00,0.88
4879.00,0.88
4878.00,0.88
4877.00,0.88
4876.00,0.88
4875.00,0.88
4874.00,0.88
4873.00,0.88
4872.00,0.88
4871.00,0.88
4870.00,0.88
4869.00,0.88
4868.00,0.89
4867.00,0.89
4866.00,0.89
4865.00,0.89
4864.00,0.89
4863.00,0.89
4862.00,0.89
4861.00,0.89
4860.00,0.89
4859.00,0.89
4858.00,0.89
4857.00,0.89
4856.00,0.89
4855.00,0.89
4854.00,0.89
4853.00,0.89
4852.00,0.90
4851.00,0.90
4850.00,0.90
4849.00,0.90
4848.00,0.90
4847.00,0.90
4846.00,0.90
4845.00,0.90
4844.00,0.90
4843.00,0.90
4842.00,0.90
4841.00,0.90
4840.00,0.90
4839.00,0.90
4838.00,0.90
4837.00,0.90
4836.00,0.90
4835.00,0.90
4834.00,0.90
4833.00,0.90
4832.00,0.90
4831.00,0.90
4830.00,0.91
4829.00,0.91
4828.00,0.91
4827.00,0.91
4826.00,0.91
4825.00,0.91
4824.00,0.91
4823.00,0.91
4822.00,0.91
4821.00,0.91
4820.00,0.91
4819.00,0.91
4818.00,0.91
4817.00,0.91
4816.00,0.92
4815.00,0.92
4814.00,0.92
4813.00,0.92
4812.00,0.92
4811.00,0.92
4810.00,0.92
4809.00,0.92
4808.00,0.92
4807.00,0.92
4806.00,0.93
4805.00,0.93
4804.00,0.93
4803.00,0.93
4802.00,0.93
4801.00,0.93
4800.00,0.93
4799.00,0.93
4798.00,0.93
4797.00,0.93
4796.00,0.93
4795.00,0.93
4794.00,0.94
4793.00,0.94
4792.00,0.94
4791.00,0.94
4790.00,0.94
4789.00,0.94
4788.00,0.94
4787.00,0.94
4786.00,0.94
4785.00,0.94
4784.00,0.94
4783.00,0.94
4782.00,0.94
4781.00,0.94
4780.00,0.94
4779.00,0.94
4778.00,0.94
4777.00,0.94
4776.00,0.95
4775.00,0.95
4774.00,0.95
4773.00,0.95
4772.00,0.95
4771.00,0.95
4770.00,0.95
4769.00,0.95
4768.00,0.95
4767.00,0.96
4766.00,0.96
4765.00,0.96
4764.00,0.96
4763.00,0.96
4762.00,0.96
4761.00,0.97
4760.00,0.97
4759.00,0.97
4758.00,0.97
4757.00,0.97
4756.00,0.97
4755.00,0.97
4754.00,0.97
4753.00,0.97
4752.00,0.97
4751.00,0.98
4750.00,0.98
4749.00,0.98
4748.00,0.98
4747.00,0.98
4746.00,0.98
4745.00,0.98
4744.00,0.98
4743.00,0.98
4742.00,0.99
4741.00,0.99
4740.00,0.99
4739.00,0.99
4738.00,0.99
4737.00,0.99
4736.00,0.99
4735.00,1.00
4734.00,1.00
4733.00,1.00
4732.00,1.00
4731.00,1.00
4730.00,1.00
4729.00,1.00
4728.00,1.00
4727.00,1.00
4726.00,1.01
4725.00,1.01
4724.00,1.01
4723.00,1.01
4722.00,1.01
4721.00,1.01
4720.00,1.01
4719.00,1.01
4718.00,1.01
4717.00,1.01
4716.00,1.02
4715.00,1.02
4714.00,1.02
4713.00,1.02
4712.00,1.02
4711.00,1.02
4710.00,1.03
4709.00,1.03
4708.00,1.03
4707.00,1.03
4706.00,1.03
4705.00,1.03
4704.00,1.04
4703.00,1.04
4702.00,1.04
4701.00,1.04
4700.00,1.04
4699.00,1.04
4698.00,1.04
4697.00,1.04
4696.00,1.04
4695.00,1.04
4694.00,1.04
4693.00,1.04
4692.00,1.04
4691.00,1.04
4690.00,1.04
4689.00,1.04
4688.00,1.04
4687.00,1.04
4686.00,1.04
4685.00,1.04
4684.00,1.05
4683.00,1.05
4682.00,1.05
4681.00,1.05
4680.00,1.05
4679.00,1.05
4678.00,1.05
4677.00,1.05
4676.00,1.05
4675.00,1.06
4674.00,1.06
4673.00,1.06
4672.00,1.06
4671.00,1.06
4670.00,1.06
4669.00,1.07
4668.00,1.07
4667.00,1.07
4666.00,1.07
4665.00,1.07
4664.00,1.08
4663.00,1.08
4662.00,1.08
4661.00,1.08
4660.00,1.08
4659.00,1.08
4658.00,1.09
4657.00,1.09
4656.00,1.09
4655.00,1.09
4654.00,1.09
4653.00,1.09
4652.00,1.10
4651.00,1.10
4650.00,1.10
4649.00,1.10
4648.00,1.10
4647.00,1.10
4646.00,1.10
4645.00,1.10
4644.00,1.10
4643.00,1.10
4642.00,1.10
4641.00,1.10
4640.00,1.10
4639.00,1.10
4638.00,1.10
4637.00,1.10
4636.00,1.10
4635.00,1.10
4634.00,1.10
4633.00,1.10
4632.00,1.10
4631.00,1.10
4630.00,1.10
4629.00,1.10
4628.00,1.11
4627.00,1.11
4626.00,1.11
4625.00,1.11
4624.00,1.11
4623.00,1.11
4622.00,1.11
4621.00,1.11
4620.00,1.11
4619.00,1.11
4618.00,1.11
4617.00,1.12
4616.00,1.12
4615.00,1.12
4614.00,1.12
4613.00,1.12
4612.00,1.12
4611.00,1.12
4610.00,1.12
4609.00,1.12
4608.00,1.12
4607.00,1.12
4606.00,1.12
4605.00,1.12
4604.00,1.12
4603.00,1.12
4602.00,1.12
4601.00,1.12
4600.00,1.12
4599.00,1.12
4598.00,1.12
4597.00,1.12
4596.00,1.12
4595.00,1.12
4594.00,1.12
4593.00,1.12
4592.00,1.12
4591.00,1.13
4590.00,1.13
4589.00,1.13
4588.00,1.13
4587.00,1.13
4586.00,1.13
4585.00,1.13
4584.00,1.13
4583.00,1.14
4582.00,1.14
4581.00,1.14
4580.00,1.14
4579.00,1.14
4578.00,1.14
4577.00,1.14
4576.00,1.14
4575.00,1.14
4574.00,1.14
4573.00,1.15
4572.00,1.15
4571.00,1.15
4570.00,1.15
4569.00,1.15
4568.00,1.15
4567.00,1.15
4566.00,1.15
4565.00,1.15
4564.00,1.15
4563.00,1.15
4562.00,1.15
4561.00,1.15
4560.00,1.15
4559.00,1.15
4558.00,1.16
4557.00,1.16
4556.00,1.16
4555.00,1.16
4554.00,1.16
4553.00,1.16
4552.00,1.16
4551.00,1.16
4550.00,1.17
4549.00,1.17
4548.00,1.17
4547.00,1.17
4546.00,1.17
4545.00,1.17
4544.00,1.17
4543.00,1.17
4542.00,1.17
4541.00,1.18
4540.00,1.18
4539.00,1.18
4538.00,1.18
4537.00,1.18
4536.00,1.18
4535.00,1.18
4534.00,1.18
4533.00,1.18
4532.00,1.18
4531.00,1.18
4530.00,1.18
4529.00,1.18
4528.00,1.18
4527.00,1.18
4526.00,1.18
4525.00,1.18
4524.00,1.18
4523.00,1.18
4522.00,1.18
4521.00,1.18
4520.00,1.18
4519.00,1.18
4518.00,1.18
4517.00,1.18
4516.00,1.18
4515.00,1.18
4514.00,1.18
4513.00,1.18
4512.00,1.18
4511.00,1.18
4510.00,1.18
4509.00,1.18
4508.00,1.18
4507.00,1.18
4506.00,1.18
4505.00,1.18
4504.00,1.18
4503.00,1.18
4502.00,1.18
4501.00,1.18
4500.00,1.18
4499.00,1.18
4498.00,1.18
4497.00,1.17
4496.00,1.17
4495.00,1.17
4494.00,1.17
4493.00,1.17
4492.00,1.17
4491.00,1.17
4490.00,1.17
4489.00,1.17
4488.00,1.17
4487.00,1.17
4486.00,1.17
4485.00,1.16
4484.00,1.16
4483.00,1.16
4482.00,1.16
4481.00,1.16
4480.00,1.16
4479.00,1.16
4478.00,1.16
4477.00,1.16
4476.00,1.16
4475.00,1.15
4474.00,1.15
4473.00,1.15
4472.00,1.15
4471.00,1.15
4470.00,1.15
4469.00,1.14
4468.00,1.14
4467.00,1.14
4466.00,1.14
4465.00,1.14
4464.00,1.13
4463.00,1.13
4462.00,1.13
4461.00,1.13
4460.00,1.12
4459.00,1.12
4458.00,1.12
4457.00,1.12
4456.00,1.11
4455.00,1.11
4454.00,1.11
4453.00,1.11
4452.00,1.10
4451.00,1.10
4450.00,1.10
4449.00,1.10
4448.00,1.09
4447.00,1.09
4446.00,1.09
4445.00,1.08
4444.00,1.08
4443.00,1.08
4442.00,1.08
4441.00,1.07
4440.00,1.07
4439.00,1.07
4438.00,1.07
4437.00,1.06
4436.00,1.06
4435.00,1.06
4434.00,1.06
4433.00,1.06
4432.00,1.05
4431.00,1.05
4430.00,1.05
4429.00,1.05
4428.00,1.05
4427.00,1.05
4426.00,1.05
4425.00,1.05
4424.00,1.05
4423.00,1.05
4422.00,1.05
4421.00,1.05
4420.00,1.05
4419.00,1.05
4418.00,1.05
4417.00,1.05
4416.00,1.05
4415.00,1.05
4414.00,1.05
4413.00,1.05
4412.00,1.05
4411.00,1.05
4410.00,1.05
4409.00,1.05
4408.00,1.05
4407.00,1.05
4406.00,1.05
4405.00,1.05
4404.00,1.05
4403.00,1.05
4402.00,1.05
4401.00,1.05
4400.00,1.05
4399.00,1.05
4398.00,1.05
4397.00,1.05
4396.00,1.05
4395.00,1.06
4394.00,1.06
4393.00,1.06
4392.00,1.06
4391.00,1.06
4390.00,1.06
4389.00,1.06
4388.00,1.06
4387.00,1.06
4386.00,1.06
4385.00,1.07
4384.00,1.07
4383.00,1.07
4382.00,1.07
4381.00,1.07
4380.00,1.07
4379.00,1.07
4378.00,1.07
4377.00,1.07
4376.00,1.07
4375.00,1.07
4374.00,1.07
4373.00,1.07
4372.00,1.07
4371.00,1.07
4370.00,1.07
4369.00,1.06
4368.00,1.06
4367.00,1.06
4366.00,1.06
4365.00,1.06
4364.00,1.06
4363.00,1.07
4362.00,1.07
4361.00,1.07
4360.00,1.07
4359.00,1.07
4358.00,1.07
4357.00,1.07
4356.00,1.07
4355.00,1.07
4354.00,1.07
4353.00,1.07
4352.00,1.07
4351.00,1.07
4350.00,1.07
4349.00,1.07
4348.00,1.08
4347.00,1.08
4346.00,1.08
4345.00,1.08
4344.00,1.08
4343.00,1.08
4342.00,1.08
4341.00,1.08
4340.00,1.08
4339.00,1.08
4338.00,1.08
4337.00,1.08
4336.00,1.09
4335.00,1.09
4334.00,1.09
4333.00,1.09
4332.00,1.09
4331.00,1.09
4330.00,1.09
4329.00,1.09
4328.00,1.09
4327.00,1.09
4326.00,1.09
4325.00,1.09
4324.00,1.09
4323.00,1.09
4322.00,1.09
4321.00,1.10
4320.00,1.10
4319.00,1.10
4318.00,1.10
4317.00,1.10
4316.00,1.10
4315.00,1.10
4314.00,1.10
4313.00,1.11
4312.00,1.11
4311.00,1.11
4310.00,1.11
4309.00,1.11
4308.00,1.11
4307.00,1.11
4306.00,1.11
4305.00,1.11
4304.00,1.11
4303.00,1.11
4302.00,1.11
4301.00,1.11
4300.00,1.11
4299.00,1.11
4298.00,1.11
4297.00,1.11
4296.00,1.11
4295.00,1.12
4294.00,1.12
4293.00,1.12
4292.00,1.12
4291.00,1.12
4290.00,1.12
4289.00,1.12
4288.00,1.12
4287.00,1.13
4286.00,1.13
4285.00,1.13
4284.00,1.13
4283.00,1.13
4282.00,1.13
4281.00,1.13
4280.00,1.13
4279.00,1.13
4278.00,1.13
4277.00,1.13
4276.00,1.13
4275.00,1.13
4274.00,1.13
4273.00,1.13
4272.00,1.13
4271.00,1.13
4270.00,1.13
4269.00,1.13
4268.00,1.13
4267.00,1.13
4266.00,1.13
4265.00,1.13
4264.00,1.13
4263.00,1.13
4262.00,1.13
4261.00,1.13
4260.00,1.13
4259.00,1.13
4258.00,1.13
4257.00,1.13
4256.00,1.13
4255.00,1.13
4254.00,1.13
4253.00,1.13
4252.00,1.13
4251.00,1.13
4250.00,1.13
4249.00,1.13
4248.00,1.13
4247.00,1.13
4246.00,1.13
4245.00,1.13
4244.00,1.13
4243.00,1.13
4242.00,1.13
4241.00,1.13
4240.00,1.14
4239.00,1.14
4238.00,1.14
4237.00,1.14
4236.00,1.14
4235.00,1.14
4234.00,1.14
4233.00,1.14
4232.00,1.14
4231.00,1.15
4230.00,1.15
4229.00,1.15
4228.00,1.15
4227.00,1.15
4226.00,1.15
4225.00,1.15
4224.00,1.15
4223.00,1.15
4222.00,1.15
4221.00,1.15
4220.00,1.15
4219.00,1.15
4218.00,1.15
4217.00,1.16
4216.00,1.16
4215.00,1.16
4214.00,1.16
4213.00,1.16
4212.00,1.16
4211.00,1.16
4210.00,1.16
4209.00,1.16
4208.00,1.16
4207.00,1.16
4206.00,1.17
4205.00,1.17
4204.00,1.17
4203.00,1.17
4202.00,1.17
4201.00,1.17
4200.00,1.17
4199.00,1.17
4198.00,1.17
4197.00,1.17
4196.00,1.17
4195.00,1.17
4194.00,1.17
4193.00,1.17
4192.00,1.17
4191.00,1.17
4190.00,1.17
4189.00,1.17
4188.00,1.17
4187.00,1.17
4186.00,1.17
4185.00,1.17
4184.00,1.17
4183.00,1.17
4182.00,1.17
4181.00,1.17
4180.00,1.17
4179.00,1.17
4178.00,1.17
4177.00,1.17
4176.00,1.17
4175.00,1.17
4174.00,1.17
4173.00,1.17
4172.00,1.17
4171.00,1.17
4170.00,1.17
4169.00,1.17
4168.00,1.17
4167.00,1.17
4166.00,1.17
4165.00,1.17
4164.00,1.17
4163.00,1.17
4162.00,1.17
4161.00,1.18
4160.00,1.18
4159.00,1.18
4158.00,1.18
4157.00,1.18
4156.00,1.18
4155.00,1.18
4154.00,1.18
4153.00,1.18
4152.00,1.18
4151.00,1.18
4150.00,1.18
4149.00,1.18
4148.00,1.18
4147.00,1.18
4146.00,1.18
4145.00,1.18
4144.00,1.18
4143.00,1.18
4142.00,1.18
4141.00,1.18
4140.00,1.18
4139.00,1.18
4138.00,1.18
4137.00,1.18
4136.00,1.18
4135.00,1.18
4134.00,1.18
4133.00,1.18
4132.00,1.19
4131.00,1.19
4130.00,1.19
4129.00,1.19
4128.00,1.19
4127.00,1.19
4126.00,1.19
4125.00,1.19
4124.00,1.19
4123.00,1.20
4122.00,1.20
4121.00,1.20
4120.00,1.20
4119.00,1.20
4118.00,1.20
4117.00,1.21
4116.00,1.21
4115.00,1.21
4114.00,1.21
4113.00,1.21
4112.00,1.21
4111.00,1.21
4110.00,1.21
4109.00,1.21
4108.00,1.21
4107.00,1.21
4106.00,1.21
4105.00,1.21
4104.00,1.21
4103.00,1.21
4102.00,1.20
4101.00,1.20
4100.00,1.20
4099.00,1.20
4098.00,1.20
4097.00,1.20
4096.00,1.20
4095.00,1.20
4094.00,1.20
4093.00,1.20
4092.00,1.21
4091.00,1.21
4090.00,1.21
4089.00,1.21
4088.00,1.21
4087.00,1.21
4086.00,1.21
4085.00,1.21
4084.00,1.21
4083.00,1.21
4082.00,1.21
4081.00,1.21
4080.00,1.21
4079.00,1.21
4078.00,1.21
4077.00,1.21
4076.00,1.20
4075.00,1.20
4074.00,1.20
4073.00,1.20
4072.00,1.20
4071.00,1.20
4070.00,1.20
4069.00,1.20
4068.00,1.20
4067.00,1.21
4066.00,1.21
4065.00,1.21
4064.00,1.21
4063.00,1.21
4062.00,1.21
4061.00,1.22
4060.00,1.22
4059.00,1.22
4058.00,1.22
4057.00,1.23
4056.00,1.23
4055.00,1.23
4054.00,1.23
4053.00,1.23
4052.00,1.23
4051.00,1.24
4050.00,1.24
4049.00,1.24
4048.00,1.24
4047.00,1.24
4046.00,1.24
4045.00,1.24
4044.00,1.24
4043.00,1.24
4042.00,1.24
4041.00,1.24
4040.00,1.24
4039.00,1.24
4038.00,1.24
4037.00,1.24
4036.00,1.24
4035.00,1.24
4034.00,1.24
4033.00,1.24
4032.00,1.24
4031.00,1.25
4030.00,1.25
4029.00,1.25
4028.00,1.25
4027.00,1.25
4026.00,1.25
4025.00,1.25
4024.00,1.25
4023.00,1.25
4022.00,1.25
4021.00,1.25
4020.00,1.25
4019.00,1.24
4018.00,1.24
4017.00,1.24
4016.00,1.24
4015.00,1.24
4014.00,1.24
4013.00,1.24
4012.00,1.24
4011.00,1.24
4010.00,1.24
4009.00,1.24
4008.00,1.24
4007.00,1.24
4006.00,1.24
4005.00,1.24
4004.00,1.24
4003.00,1.24
4002.00,1.25
4001.00,1.25
4000.00,1.25
