创建为新数据集,样品 294 用户 Administrator 日期 星期日, 七月 22 2018
cm-1,%T
10000.00,1.53
9999.00,1.52
9998.00,1.52
9997.00,1.52
9996.00,1.52
9995.00,1.51
9994.00,1.51
9993.00,1.51
9992.00,1.51
9991.00,1.51
9990.00,1.51
9989.00,1.51
9988.00,1.52
9987.00,1.52
9986.00,1.52
9985.00,1.52
9984.00,1.52
9983.00,1.52
9982.00,1.52
9981.00,1.52
9980.00,1.52
9979.00,1.52
9978.00,1.52
9977.00,1.52
9976.00,1.52
9975.00,1.52
9974.00,1.52
9973.00,1.52
9972.00,1.52
9971.00,1.52
9970.00,1.51
9969.00,1.51
9968.00,1.51
9967.00,1.51
9966.00,1.51
9965.00,1.51
9964.00,1.51
9963.00,1.51
9962.00,1.51
9961.00,1.51
9960.00,1.51
9959.00,1.51
9958.00,1.51
9957.00,1.51
9956.00,1.51
9955.00,1.51
9954.00,1.50
9953.00,1.50
9952.00,1.50
9951.00,1.50
9950.00,1.50
9949.00,1.50
9948.00,1.49
9947.00,1.49
9946.00,1.49
9945.00,1.49
9944.00,1.49
9943.00,1.49
9942.00,1.49
9941.00,1.49
9940.00,1.49
9939.00,1.49
9938.00,1.49
9937.00,1.49
9936.00,1.49
9935.00,1.49
9934.00,1.50
9933.00,1.50
9932.00,1.50
9931.00,1.50
9930.00,1.51
9929.00,1.51
9928.00,1.51
9927.00,1.51
9926.00,1.52
9925.00,1.52
9924.00,1.52
9923.00,1.52
9922.00,1.52
9921.00,1.52
9920.00,1.52
9919.00,1.51
9918.00,1.51
9917.00,1.51
9916.00,1.51
9915.00,1.51
9914.00,1.50
9913.00,1.50
9912.00,1.50
9911.00,1.50
9910.00,1.50
9909.00,1.50
9908.00,1.50
9907.00,1.50
9906.00,1.50
9905.00,1.50
9904.00,1.50
9903.00,1.50
9902.00,1.50
9901.00,1.50
9900.00,1.50
9899.00,1.50
9898.00,1.50
9897.00,1.50
9896.00,1.50
9895.00,1.50
9894.00,1.51
9893.00,1.50
9892.00,1.50
9891.00,1.50
9890.00,1.50
9889.00,1.50
9888.00,1.50
9887.00,1.50
9886.00,1.50
9885.00,1.50
9884.00,1.50
9883.00,1.50
9882.00,1.50
9881.00,1.50
9880.00,1.50
9879.00,1.50
9878.00,1.50
9877.00,1.51
9876.00,1.51
9875.00,1.51
9874.00,1.51
9873.00,1.51
9872.00,1.51
9871.00,1.51
9870.00,1.51
9869.00,1.51
9868.00,1.51
9867.00,1.51
9866.00,1.50
9865.00,1.50
9864.00,1.50
9863.00,1.50
9862.00,1.50
9861.00,1.49
9860.00,1.49
9859.00,1.49
9858.00,1.49
9857.00,1.48
9856.00,1.48
9855.00,1.48
9854.00,1.48
9853.00,1.48
9852.00,1.48
9851.00,1.48
9850.00,1.48
9849.00,1.48
9848.00,1.48
9847.00,1.48
9846.00,1.48
9845.00,1.48
9844.00,1.49
9843.00,1.49
9842.00,1.49
9841.00,1.49
9840.00,1.49
9839.00,1.49
9838.00,1.49
9837.00,1.49
9836.00,1.49
9835.00,1.49
9834.00,1.49
9833.00,1.49
9832.00,1.49
9831.00,1.49
9830.00,1.49
9829.00,1.49
9828.00,1.49
9827.00,1.49
9826.00,1.49
9825.00,1.49
9824.00,1.49
9823.00,1.49
9822.00,1.49
9821.00,1.49
9820.00,1.49
9819.00,1.49
9818.00,1.49
9817.00,1.50
9816.00,1.50
9815.00,1.50
9814.00,1.50
9813.00,1.50
9812.00,1.51
9811.00,1.51
9810.00,1.51
9809.00,1.51
9808.00,1.51
9807.00,1.51
9806.00,1.51
9805.00,1.51
9804.00,1.51
9803.00,1.51
9802.00,1.51
9801.00,1.51
9800.00,1.51
9799.00,1.51
9798.00,1.51
9797.00,1.51
9796.00,1.51
9795.00,1.51
9794.00,1.51
9793.00,1.50
9792.00,1.50
9791.00,1.50
9790.00,1.50
9789.00,1.50
9788.00,1.50
9787.00,1.50
9786.00,1.50
9785.00,1.50
9784.00,1.50
9783.00,1.50
9782.00,1.50
9781.00,1.50
9780.00,1.50
9779.00,1.50
9778.00,1.50
9777.00,1.50
9776.00,1.50
9775.00,1.50
9774.00,1.50
9773.00,1.50
9772.00,1.50
9771.00,1.50
9770.00,1.50
9769.00,1.50
9768.00,1.50
9767.00,1.50
9766.00,1.49
9765.00,1.49
9764.00,1.49
9763.00,1.49
9762.00,1.49
9761.00,1.49
9760.00,1.49
9759.00,1.49
9758.00,1.49
9757.00,1.49
9756.00,1.49
9755.00,1.49
9754.00,1.49
9753.00,1.49
9752.00,1.49
9751.00,1.49
9750.00,1.49
9749.00,1.49
9748.00,1.49
9747.00,1.49
9746.00,1.49
9745.00,1.49
9744.00,1.49
9743.00,1.49
9742.00,1.49
9741.00,1.49
9740.00,1.49
9739.00,1.49
9738.00,1.49
9737.00,1.49
9736.00,1.50
9735.00,1.50
9734.00,1.50
9733.00,1.50
9732.00,1.50
9731.00,1.50
9730.00,1.50
9729.00,1.50
9728.00,1.51
9727.00,1.51
9726.00,1.51
9725.00,1.51
9724.00,1.51
9723.00,1.51
9722.00,1.51
9721.00,1.51
9720.00,1.51
9719.00,1.51
9718.00,1.51
9717.00,1.51
9716.00,1.51
9715.00,1.51
9714.00,1.51
9713.00,1.51
9712.00,1.51
9711.00,1.51
9710.00,1.51
9709.00,1.51
9708.00,1.51
9707.00,1.51
9706.00,1.51
9705.00,1.50
9704.00,1.50
9703.00,1.50
9702.00,1.50
9701.00,1.50
9700.00,1.50
9699.00,1.50
9698.00,1.50
9697.00,1.50
9696.00,1.50
9695.00,1.50
9694.00,1.50
9693.00,1.50
9692.00,1.50
9691.00,1.50
9690.00,1.50
9689.00,1.50
9688.00,1.50
9687.00,1.50
9686.00,1.50
9685.00,1.50
9684.00,1.50
9683.00,1.50
9682.00,1.49
9681.00,1.49
9680.00,1.49
9679.00,1.49
9678.00,1.49
9677.00,1.49
9676.00,1.49
9675.00,1.49
9674.00,1.49
9673.00,1.49
9672.00,1.49
9671.00,1.49
9670.00,1.49
9669.00,1.49
9668.00,1.49
9667.00,1.49
9666.00,1.49
9665.00,1.49
9664.00,1.50
9663.00,1.50
9662.00,1.50
9661.00,1.50
9660.00,1.50
9659.00,1.50
9658.00,1.50
9657.00,1.50
9656.00,1.50
9655.00,1.50
9654.00,1.50
9653.00,1.50
9652.00,1.51
9651.00,1.51
9650.00,1.51
9649.00,1.51
9648.00,1.51
9647.00,1.51
9646.00,1.51
9645.00,1.51
9644.00,1.52
9643.00,1.52
9642.00,1.52
9641.00,1.52
9640.00,1.52
9639.00,1.52
9638.00,1.52
9637.00,1.52
9636.00,1.52
9635.00,1.52
9634.00,1.52
9633.00,1.52
9632.00,1.52
9631.00,1.52
9630.00,1.51
9629.00,1.51
9628.00,1.51
9627.00,1.50
9626.00,1.50
9625.00,1.50
9624.00,1.49
9623.00,1.49
9622.00,1.49
9621.00,1.49
9620.00,1.48
9619.00,1.48
9618.00,1.48
9617.00,1.48
9616.00,1.48
9615.00,1.48
9614.00,1.48
9613.00,1.48
9612.00,1.48
9611.00,1.48
9610.00,1.48
9609.00,1.48
9608.00,1.48
9607.00,1.48
9606.00,1.49
9605.00,1.49
9604.00,1.49
9603.00,1.49
9602.00,1.49
9601.00,1.49
9600.00,1.49
9599.00,1.49
9598.00,1.49
9597.00,1.49
9596.00,1.49
9595.00,1.49
9594.00,1.50
9593.00,1.50
9592.00,1.50
9591.00,1.50
9590.00,1.50
9589.00,1.50
9588.00,1.50
9587.00,1.50
9586.00,1.50
9585.00,1.50
9584.00,1.50
9583.00,1.50
9582.00,1.51
9581.00,1.51
9580.00,1.51
9579.00,1.51
9578.00,1.51
9577.00,1.50
9576.00,1.50
9575.00,1.50
9574.00,1.50
9573.00,1.50
9572.00,1.50
9571.00,1.50
9570.00,1.50
9569.00,1.49
9568.00,1.49
9567.00,1.49
9566.00,1.49
9565.00,1.49
9564.00,1.49
9563.00,1.48
9562.00,1.48
9561.00,1.48
9560.00,1.48
9559.00,1.48
9558.00,1.48
9557.00,1.48
9556.00,1.48
9555.00,1.48
9554.00,1.48
9553.00,1.48
9552.00,1.48
9551.00,1.48
9550.00,1.48
9549.00,1.48
9548.00,1.48
9547.00,1.48
9546.00,1.48
9545.00,1.48
9544.00,1.48
9543.00,1.48
9542.00,1.48
9541.00,1.48
9540.00,1.48
9539.00,1.48
9538.00,1.48
9537.00,1.47
9536.00,1.47
9535.00,1.47
9534.00,1.47
9533.00,1.47
9532.00,1.47
9531.00,1.47
9530.00,1.46
9529.00,1.46
9528.00,1.46
9527.00,1.46
9526.00,1.46
9525.00,1.46
9524.00,1.46
9523.00,1.47
9522.00,1.47
9521.00,1.47
9520.00,1.47
9519.00,1.47
9518.00,1.48
9517.00,1.48
9516.00,1.48
9515.00,1.49
9514.00,1.49
9513.00,1.49
9512.00,1.49
9511.00,1.50
9510.00,1.50
9509.00,1.50
9508.00,1.50
9507.00,1.50
9506.00,1.50
9505.00,1.50
9504.00,1.50
9503.00,1.51
9502.00,1.51
9501.00,1.51
9500.00,1.51
9499.00,1.50
9498.00,1.50
9497.00,1.50
9496.00,1.50
9495.00,1.50
9494.00,1.50
9493.00,1.50
9492.00,1.50
9491.00,1.49
9490.00,1.49
9489.00,1.49
9488.00,1.49
9487.00,1.49
9486.00,1.49
9485.00,1.49
9484.00,1.49
9483.00,1.49
9482.00,1.49
9481.00,1.49
9480.00,1.49
9479.00,1.49
9478.00,1.49
9477.00,1.49
9476.00,1.49
9475.00,1.49
9474.00,1.49
9473.00,1.49
9472.00,1.49
9471.00,1.49
9470.00,1.49
9469.00,1.49
9468.00,1.49
9467.00,1.48
9466.00,1.48
9465.00,1.48
9464.00,1.48
9463.00,1.48
9462.00,1.48
9461.00,1.48
9460.00,1.49
9459.00,1.49
9458.00,1.49
9457.00,1.49
9456.00,1.50
9455.00,1.50
9454.00,1.50
9453.00,1.50
9452.00,1.50
9451.00,1.51
9450.00,1.51
9449.00,1.51
9448.00,1.51
9447.00,1.51
9446.00,1.51
9445.00,1.51
9444.00,1.51
9443.00,1.51
9442.00,1.51
9441.00,1.51
9440.00,1.51
9439.00,1.50
9438.00,1.50
9437.00,1.50
9436.00,1.50
9435.00,1.50
9434.00,1.50
9433.00,1.49
9432.00,1.49
9431.00,1.49
9430.00,1.49
9429.00,1.49
9428.00,1.48
9427.00,1.48
9426.00,1.48
9425.00,1.48
9424.00,1.48
9423.00,1.48
9422.00,1.48
9421.00,1.48
9420.00,1.48
9419.00,1.48
9418.00,1.48
9417.00,1.48
9416.00,1.48
9415.00,1.49
9414.00,1.49
9413.00,1.49
9412.00,1.49
9411.00,1.50
9410.00,1.50
9409.00,1.50
9408.00,1.50
9407.00,1.50
9406.00,1.50
9405.00,1.50
9404.00,1.50
9403.00,1.50
9402.00,1.50
9401.00,1.50
9400.00,1.50
9399.00,1.50
9398.00,1.50
9397.00,1.50
9396.00,1.50
9395.00,1.49
9394.00,1.49
9393.00,1.49
9392.00,1.49
9391.00,1.48
9390.00,1.48
9389.00,1.48
9388.00,1.48
9387.00,1.48
9386.00,1.47
9385.00,1.47
9384.00,1.47
9383.00,1.47
9382.00,1.47
9381.00,1.47
9380.00,1.47
9379.00,1.47
9378.00,1.47
9377.00,1.47
9376.00,1.47
9375.00,1.47
9374.00,1.47
9373.00,1.47
9372.00,1.47
9371.00,1.48
9370.00,1.48
9369.00,1.48
9368.00,1.48
9367.00,1.48
9366.00,1.48
9365.00,1.48
9364.00,1.48
9363.00,1.48
9362.00,1.48
9361.00,1.48
9360.00,1.48
9359.00,1.48
9358.00,1.48
9357.00,1.48
9356.00,1.48
9355.00,1.48
9354.00,1.48
9353.00,1.48
9352.00,1.48
9351.00,1.48
9350.00,1.48
9349.00,1.48
9348.00,1.48
9347.00,1.49
9346.00,1.49
9345.00,1.49
9344.00,1.49
9343.00,1.50
9342.00,1.50
9341.00,1.50
9340.00,1.50
9339.00,1.51
9338.00,1.51
9337.00,1.51
9336.00,1.51
9335.00,1.51
9334.00,1.51
9333.00,1.51
9332.00,1.51
9331.00,1.51
9330.00,1.51
9329.00,1.51
9328.00,1.51
9327.00,1.50
9326.00,1.50
9325.00,1.50
9324.00,1.50
9323.00,1.50
9322.00,1.49
9321.00,1.49
9320.00,1.49
9319.00,1.49
9318.00,1.49
9317.00,1.49
9316.00,1.49
9315.00,1.49
9314.00,1.49
9313.00,1.49
9312.00,1.49
9311.00,1.49
9310.00,1.49
9309.00,1.49
9308.00,1.49
9307.00,1.49
9306.00,1.49
9305.00,1.49
9304.00,1.49
9303.00,1.49
9302.00,1.49
9301.00,1.49
9300.00,1.49
9299.00,1.49
9298.00,1.49
9297.00,1.49
9296.00,1.50
9295.00,1.50
9294.00,1.50
9293.00,1.50
9292.00,1.50
9291.00,1.50
9290.00,1.50
9289.00,1.50
9288.00,1.50
9287.00,1.51
9286.00,1.51
9285.00,1.51
9284.00,1.51
9283.00,1.51
9282.00,1.51
9281.00,1.51
9280.00,1.51
9279.00,1.50
9278.00,1.50
9277.00,1.50
9276.00,1.50
9275.00,1.50
9274.00,1.50
9273.00,1.50
9272.00,1.50
9271.00,1.50
9270.00,1.50
9269.00,1.50
9268.00,1.50
9267.00,1.50
9266.00,1.50
9265.00,1.49
9264.00,1.49
9263.00,1.49
9262.00,1.49
9261.00,1.49
9260.00,1.49
9259.00,1.49
9258.00,1.49
9257.00,1.49
9256.00,1.49
9255.00,1.49
9254.00,1.49
9253.00,1.49
9252.00,1.49
9251.00,1.49
9250.00,1.49
9249.00,1.49
9248.00,1.49
9247.00,1.49
9246.00,1.49
9245.00,1.49
9244.00,1.49
9243.00,1.49
9242.00,1.49
9241.00,1.48
9240.00,1.48
9239.00,1.48
9238.00,1.48
9237.00,1.48
9236.00,1.48
9235.00,1.48
9234.00,1.48
9233.00,1.48
9232.00,1.48
9231.00,1.48
9230.00,1.48
9229.00,1.48
9228.00,1.48
9227.00,1.48
9226.00,1.49
9225.00,1.49
9224.00,1.49
9223.00,1.49
9222.00,1.49
9221.00,1.49
9220.00,1.49
9219.00,1.49
9218.00,1.49
9217.00,1.49
9216.00,1.49
9215.00,1.49
9214.00,1.49
9213.00,1.49
9212.00,1.49
9211.00,1.49
9210.00,1.49
9209.00,1.49
9208.00,1.48
9207.00,1.48
9206.00,1.48
9205.00,1.48
9204.00,1.48
9203.00,1.48
9202.00,1.47
9201.00,1.47
9200.00,1.47
9199.00,1.47
9198.00,1.47
9197.00,1.47
9196.00,1.47
9195.00,1.47
9194.00,1.47
9193.00,1.47
9192.00,1.47
9191.00,1.47
9190.00,1.47
9189.00,1.48
9188.00,1.48
9187.00,1.48
9186.00,1.48
9185.00,1.48
9184.00,1.48
9183.00,1.48
9182.00,1.48
9181.00,1.48
9180.00,1.48
9179.00,1.49
9178.00,1.49
9177.00,1.49
9176.00,1.49
9175.00,1.49
9174.00,1.49
9173.00,1.49
9172.00,1.49
9171.00,1.49
9170.00,1.49
9169.00,1.49
9168.00,1.49
9167.00,1.49
9166.00,1.50
9165.00,1.50
9164.00,1.50
9163.00,1.50
9162.00,1.50
9161.00,1.50
9160.00,1.50
9159.00,1.50
9158.00,1.50
9157.00,1.50
9156.00,1.50
9155.00,1.50
9154.00,1.50
9153.00,1.51
9152.00,1.51
9151.00,1.51
9150.00,1.51
9149.00,1.51
9148.00,1.51
9147.00,1.51
9146.00,1.51
9145.00,1.51
9144.00,1.51
9143.00,1.51
9142.00,1.51
9141.00,1.51
9140.00,1.52
9139.00,1.52
9138.00,1.52
9137.00,1.52
9136.00,1.52
9135.00,1.52
9134.00,1.52
9133.00,1.52
9132.00,1.52
9131.00,1.52
9130.00,1.52
9129.00,1.52
9128.00,1.52
9127.00,1.52
9126.00,1.52
9125.00,1.52
9124.00,1.51
9123.00,1.51
9122.00,1.51
9121.00,1.51
9120.00,1.51
9119.00,1.51
9118.00,1.51
9117.00,1.51
9116.00,1.50
9115.00,1.50
9114.00,1.50
9113.00,1.50
9112.00,1.50
9111.00,1.50
9110.00,1.49
9109.00,1.49
9108.00,1.49
9107.00,1.49
9106.00,1.49
9105.00,1.49
9104.00,1.49
9103.00,1.49
9102.00,1.48
9101.00,1.48
9100.00,1.48
9099.00,1.48
9098.00,1.48
9097.00,1.48
9096.00,1.48
9095.00,1.48
9094.00,1.48
9093.00,1.48
9092.00,1.48
9091.00,1.48
9090.00,1.48
9089.00,1.48
9088.00,1.49
9087.00,1.49
9086.00,1.49
9085.00,1.49
9084.00,1.49
9083.00,1.48
9082.00,1.48
9081.00,1.48
9080.00,1.48
9079.00,1.48
9078.00,1.48
9077.00,1.48
9076.00,1.48
9075.00,1.48
9074.00,1.49
9073.00,1.49
9072.00,1.49
9071.00,1.49
9070.00,1.49
9069.00,1.49
9068.00,1.49
9067.00,1.49
9066.00,1.49
9065.00,1.50
9064.00,1.50
9063.00,1.50
9062.00,1.50
9061.00,1.50
9060.00,1.50
9059.00,1.50
9058.00,1.50
9057.00,1.50
9056.00,1.50
9055.00,1.49
9054.00,1.49
9053.00,1.49
9052.00,1.49
9051.00,1.49
9050.00,1.49
9049.00,1.49
9048.00,1.49
9047.00,1.49
9046.00,1.49
9045.00,1.49
9044.00,1.49
9043.00,1.49
9042.00,1.49
9041.00,1.49
9040.00,1.49
9039.00,1.49
9038.00,1.49
9037.00,1.49
9036.00,1.49
9035.00,1.49
9034.00,1.49
9033.00,1.49
9032.00,1.49
9031.00,1.49
9030.00,1.49
9029.00,1.49
9028.00,1.49
9027.00,1.49
9026.00,1.49
9025.00,1.49
9024.00,1.49
9023.00,1.49
9022.00,1.50
9021.00,1.50
9020.00,1.50
9019.00,1.50
9018.00,1.50
9017.00,1.50
9016.00,1.50
9015.00,1.50
9014.00,1.51
9013.00,1.51
9012.00,1.51
9011.00,1.51
9010.00,1.51
9009.00,1.51
9008.00,1.52
9007.00,1.52
9006.00,1.52
9005.00,1.52
9004.00,1.52
9003.00,1.52
9002.00,1.52
9001.00,1.52
9000.00,1.52
8999.00,1.52
8998.00,1.52
8997.00,1.52
8996.00,1.52
8995.00,1.52
8994.00,1.51
8993.00,1.51
8992.00,1.51
8991.00,1.51
8990.00,1.51
8989.00,1.50
8988.00,1.50
8987.00,1.50
8986.00,1.50
8985.00,1.50
8984.00,1.49
8983.00,1.49
8982.00,1.49
8981.00,1.49
8980.00,1.49
8979.00,1.49
8978.00,1.49
8977.00,1.49
8976.00,1.49
8975.00,1.49
8974.00,1.49
8973.00,1.49
8972.00,1.49
8971.00,1.49
8970.00,1.49
8969.00,1.48
8968.00,1.48
8967.00,1.48
8966.00,1.48
8965.00,1.48
8964.00,1.48
8963.00,1.48
8962.00,1.48
8961.00,1.48
8960.00,1.48
8959.00,1.48
8958.00,1.48
8957.00,1.48
8956.00,1.48
8955.00,1.49
8954.00,1.49
8953.00,1.49
8952.00,1.49
8951.00,1.49
8950.00,1.49
8949.00,1.49
8948.00,1.49
8947.00,1.49
8946.00,1.49
8945.00,1.49
8944.00,1.49
8943.00,1.49
8942.00,1.49
8941.00,1.49
8940.00,1.49
8939.00,1.49
8938.00,1.49
8937.00,1.49
8936.00,1.49
8935.00,1.49
8934.00,1.49
8933.00,1.49
8932.00,1.50
8931.00,1.50
8930.00,1.50
8929.00,1.50
8928.00,1.50
8927.00,1.50
8926.00,1.50
8925.00,1.51
8924.00,1.51
8923.00,1.51
8922.00,1.51
8921.00,1.51
8920.00,1.51
8919.00,1.51
8918.00,1.51
8917.00,1.51
8916.00,1.51
8915.00,1.51
8914.00,1.51
8913.00,1.51
8912.00,1.51
8911.00,1.51
8910.00,1.51
8909.00,1.51
8908.00,1.51
8907.00,1.51
8906.00,1.50
8905.00,1.50
8904.00,1.50
8903.00,1.50
8902.00,1.50
8901.00,1.50
8900.00,1.50
8899.00,1.50
8898.00,1.49
8897.00,1.49
8896.00,1.49
8895.00,1.49
8894.00,1.49
8893.00,1.49
8892.00,1.49
8891.00,1.49
8890.00,1.49
8889.00,1.49
8888.00,1.49
8887.00,1.49
8886.00,1.49
8885.00,1.49
8884.00,1.49
8883.00,1.49
8882.00,1.49
8881.00,1.49
8880.00,1.49
8879.00,1.49
8878.00,1.49
8877.00,1.49
8876.00,1.49
8875.00,1.49
8874.00,1.48
8873.00,1.48
8872.00,1.48
8871.00,1.48
8870.00,1.48
8869.00,1.48
8868.00,1.48
8867.00,1.48
8866.00,1.48
8865.00,1.48
8864.00,1.48
8863.00,1.48
8862.00,1.48
8861.00,1.48
8860.00,1.49
8859.00,1.49
8858.00,1.49
8857.00,1.49
8856.00,1.49
8855.00,1.49
8854.00,1.49
8853.00,1.49
8852.00,1.49
8851.00,1.49
8850.00,1.49
8849.00,1.49
8848.00,1.49
8847.00,1.49
8846.00,1.48
8845.00,1.48
8844.00,1.48
8843.00,1.48
8842.00,1.48
8841.00,1.48
8840.00,1.48
8839.00,1.48
8838.00,1.48
8837.00,1.48
8836.00,1.48
8835.00,1.48
8834.00,1.48
8833.00,1.48
8832.00,1.48
8831.00,1.48
8830.00,1.48
8829.00,1.48
8828.00,1.48
8827.00,1.48
8826.00,1.48
8825.00,1.48
8824.00,1.48
8823.00,1.48
8822.00,1.48
8821.00,1.47
8820.00,1.47
8819.00,1.47
8818.00,1.47
8817.00,1.47
8816.00,1.46
8815.00,1.46
8814.00,1.46
8813.00,1.46
8812.00,1.46
8811.00,1.46
8810.00,1.45
8809.00,1.45
8808.00,1.45
8807.00,1.45
8806.00,1.45
8805.00,1.45
8804.00,1.45
8803.00,1.45
8802.00,1.45
8801.00,1.45
8800.00,1.45
8799.00,1.45
8798.00,1.45
8797.00,1.45
8796.00,1.45
8795.00,1.45
8794.00,1.45
8793.00,1.45
8792.00,1.44
8791.00,1.44
8790.00,1.44
8789.00,1.44
8788.00,1.44
8787.00,1.44
8786.00,1.44
8785.00,1.44
8784.00,1.43
8783.00,1.43
8782.00,1.43
8781.00,1.43
8780.00,1.43
8779.00,1.43
8778.00,1.43
8777.00,1.43
8776.00,1.43
8775.00,1.43
8774.00,1.43
8773.00,1.43
8772.00,1.43
8771.00,1.42
8770.00,1.42
8769.00,1.42
8768.00,1.42
8767.00,1.42
8766.00,1.42
8765.00,1.42
8764.00,1.42
8763.00,1.42
8762.00,1.42
8761.00,1.42
8760.00,1.42
8759.00,1.42
8758.00,1.42
8757.00,1.42
8756.00,1.42
8755.00,1.42
8754.00,1.43
8753.00,1.43
8752.00,1.43
8751.00,1.43
8750.00,1.43
8749.00,1.42
8748.00,1.42
8747.00,1.42
8746.00,1.42
8745.00,1.42
8744.00,1.42
8743.00,1.42
8742.00,1.42
8741.00,1.41
8740.00,1.41
8739.00,1.41
8738.00,1.41
8737.00,1.41
8736.00,1.41
8735.00,1.41
8734.00,1.41
8733.00,1.40
8732.00,1.40
8731.00,1.40
8730.00,1.40
8729.00,1.40
8728.00,1.40
8727.00,1.40
8726.00,1.40
8725.00,1.40
8724.00,1.40
8723.00,1.40
8722.00,1.40
8721.00,1.40
8720.00,1.40
8719.00,1.40
8718.00,1.40
8717.00,1.40
8716.00,1.40
8715.00,1.40
8714.00,1.40
8713.00,1.40
8712.00,1.40
8711.00,1.40
8710.00,1.40
8709.00,1.40
8708.00,1.40
8707.00,1.40
8706.00,1.40
8705.00,1.40
8704.00,1.40
8703.00,1.40
8702.00,1.40
8701.00,1.40
8700.00,1.39
8699.00,1.39
8698.00,1.39
8697.00,1.39
8696.00,1.39
8695.00,1.39
8694.00,1.39
8693.00,1.39
8692.00,1.39
8691.00,1.39
8690.00,1.39
8689.00,1.39
8688.00,1.39
8687.00,1.39
8686.00,1.39
8685.00,1.39
8684.00,1.39
8683.00,1.38
8682.00,1.38
8681.00,1.38
8680.00,1.38
8679.00,1.38
8678.00,1.38
8677.00,1.38
8676.00,1.38
8675.00,1.38
8674.00,1.38
8673.00,1.38
8672.00,1.37
8671.00,1.37
8670.00,1.37
8669.00,1.37
8668.00,1.37
8667.00,1.37
8666.00,1.37
8665.00,1.37
8664.00,1.37
8663.00,1.37
8662.00,1.37
8661.00,1.37
8660.00,1.37
8659.00,1.37
8658.00,1.37
8657.00,1.37
8656.00,1.37
8655.00,1.37
8654.00,1.37
8653.00,1.37
8652.00,1.37
8651.00,1.37
8650.00,1.38
8649.00,1.38
8648.00,1.38
8647.00,1.38
8646.00,1.38
8645.00,1.38
8644.00,1.38
8643.00,1.38
8642.00,1.38
8641.00,1.38
8640.00,1.38
8639.00,1.39
8638.00,1.39
8637.00,1.39
8636.00,1.39
8635.00,1.39
8634.00,1.39
8633.00,1.39
8632.00,1.39
8631.00,1.39
8630.00,1.39
8629.00,1.39
8628.00,1.39
8627.00,1.39
8626.00,1.39
8625.00,1.38
8624.00,1.38
8623.00,1.38
8622.00,1.38
8621.00,1.38
8620.00,1.38
8619.00,1.38
8618.00,1.37
8617.00,1.37
8616.00,1.37
8615.00,1.37
8614.00,1.37
8613.00,1.36
8612.00,1.36
8611.00,1.36
8610.00,1.36
8609.00,1.35
8608.00,1.35
8607.00,1.35
8606.00,1.34
8605.00,1.34
8604.00,1.34
8603.00,1.34
8602.00,1.33
8601.00,1.33
8600.00,1.33
8599.00,1.33
8598.00,1.33
8597.00,1.33
8596.00,1.32
8595.00,1.32
8594.00,1.32
8593.00,1.32
8592.00,1.32
8591.00,1.32
8590.00,1.32
8589.00,1.32
8588.00,1.33
8587.00,1.33
8586.00,1.33
8585.00,1.33
8584.00,1.33
8583.00,1.33
8582.00,1.33
8581.00,1.33
8580.00,1.33
8579.00,1.33
8578.00,1.32
8577.00,1.32
8576.00,1.32
8575.00,1.32
8574.00,1.32
8573.00,1.32
8572.00,1.32
8571.00,1.32
8570.00,1.31
8569.00,1.31
8568.00,1.31
8567.00,1.31
8566.00,1.31
8565.00,1.31
8564.00,1.31
8563.00,1.31
8562.00,1.31
8561.00,1.31
8560.00,1.31
8559.00,1.31
8558.00,1.31
8557.00,1.31
8556.00,1.31
8555.00,1.31
8554.00,1.31
8553.00,1.31
8552.00,1.31
8551.00,1.31
8550.00,1.31
8549.00,1.31
8548.00,1.31
8547.00,1.31
8546.00,1.31
8545.00,1.31
8544.00,1.31
8543.00,1.31
8542.00,1.30
8541.00,1.30
8540.00,1.30
8539.00,1.30
8538.00,1.30
8537.00,1.30
8536.00,1.30
8535.00,1.30
8534.00,1.30
8533.00,1.30
8532.00,1.30
8531.00,1.30
8530.00,1.30
8529.00,1.30
8528.00,1.30
8527.00,1.30
8526.00,1.30
8525.00,1.30
8524.00,1.30
8523.00,1.29
8522.00,1.29
8521.00,1.29
8520.00,1.29
8519.00,1.29
8518.00,1.28
8517.00,1.28
8516.00,1.28
8515.00,1.28
8514.00,1.28
8513.00,1.28
8512.00,1.28
8511.00,1.27
8510.00,1.27
8509.00,1.27
8508.00,1.27
8507.00,1.27
8506.00,1.27
8505.00,1.27
8504.00,1.27
8503.00,1.27
8502.00,1.27
8501.00,1.27
8500.00,1.27
8499.00,1.27
8498.00,1.27
8497.00,1.27
8496.00,1.27
8495.00,1.26
8494.00,1.26
8493.00,1.26
8492.00,1.26
8491.00,1.26
8490.00,1.26
8489.00,1.26
8488.00,1.26
8487.00,1.26
8486.00,1.25
8485.00,1.25
8484.00,1.25
8483.00,1.25
8482.00,1.25
8481.00,1.25
8480.00,1.25
8479.00,1.24
8478.00,1.24
8477.00,1.24
8476.00,1.24
8475.00,1.24
8474.00,1.24
8473.00,1.23
8472.00,1.23
8471.00,1.23
8470.00,1.23
8469.00,1.23
8468.00,1.22
8467.00,1.22
8466.00,1.22
8465.00,1.22
8464.00,1.22
8463.00,1.22
8462.00,1.21
8461.00,1.21
8460.00,1.21
8459.00,1.21
8458.00,1.21
8457.00,1.21
8456.00,1.21
8455.00,1.21
8454.00,1.21
8453.00,1.21
8452.00,1.21
8451.00,1.21
8450.00,1.21
8449.00,1.21
8448.00,1.21
8447.00,1.21
8446.00,1.21
8445.00,1.21
8444.00,1.21
8443.00,1.21
8442.00,1.21
8441.00,1.21
8440.00,1.21
8439.00,1.21
8438.00,1.21
8437.00,1.21
8436.00,1.21
8435.00,1.21
8434.00,1.21
8433.00,1.21
8432.00,1.21
8431.00,1.21
8430.00,1.21
8429.00,1.21
8428.00,1.21
8427.00,1.21
8426.00,1.21
8425.00,1.21
8424.00,1.21
8423.00,1.21
8422.00,1.21
8421.00,1.21
8420.00,1.21
8419.00,1.21
8418.00,1.21
8417.00,1.21
8416.00,1.21
8415.00,1.21
8414.00,1.21
8413.00,1.21
8412.00,1.21
8411.00,1.21
8410.00,1.22
8409.00,1.22
8408.00,1.22
8407.00,1.22
8406.00,1.22
8405.00,1.22
8404.00,1.22
8403.00,1.22
8402.00,1.22
8401.00,1.23
8400.00,1.23
8399.00,1.23
8398.00,1.23
8397.00,1.23
8396.00,1.23
8395.00,1.24
8394.00,1.24
8393.00,1.24
8392.00,1.24
8391.00,1.25
8390.00,1.25
8389.00,1.25
8388.00,1.25
8387.00,1.25
8386.00,1.25
8385.00,1.26
8384.00,1.26
8383.00,1.26
8382.00,1.26
8381.00,1.26
8380.00,1.27
8379.00,1.27
8378.00,1.27
8377.00,1.27
8376.00,1.27
8375.00,1.27
8374.00,1.28
8373.00,1.28
8372.00,1.28
8371.00,1.28
8370.00,1.28
8369.00,1.28
8368.00,1.28
8367.00,1.28
8366.00,1.28
8365.00,1.28
8364.00,1.28
8363.00,1.28
8362.00,1.28
8361.00,1.28
8360.00,1.27
8359.00,1.27
8358.00,1.27
8357.00,1.27
8356.00,1.27
8355.00,1.27
8354.00,1.28
8353.00,1.28
8352.00,1.28
8351.00,1.28
8350.00,1.28
8349.00,1.28
8348.00,1.28
8347.00,1.28
8346.00,1.28
8345.00,1.28
8344.00,1.28
8343.00,1.28
8342.00,1.28
8341.00,1.28
8340.00,1.28
8339.00,1.28
8338.00,1.28
8337.00,1.28
8336.00,1.28
8335.00,1.28
8334.00,1.28
8333.00,1.28
8332.00,1.28
8331.00,1.28
8330.00,1.28
8329.00,1.28
8328.00,1.28
8327.00,1.28
8326.00,1.28
8325.00,1.29
8324.00,1.29
8323.00,1.29
8322.00,1.29
8321.00,1.29
8320.00,1.29
8319.00,1.29
8318.00,1.29
8317.00,1.29
8316.00,1.29
8315.00,1.29
8314.00,1.29
8313.00,1.29
8312.00,1.29
8311.00,1.29
8310.00,1.29
8309.00,1.29
8308.00,1.29
8307.00,1.29
8306.00,1.28
8305.00,1.28
8304.00,1.28
8303.00,1.28
8302.00,1.28
8301.00,1.28
8300.00,1.28
8299.00,1.28
8298.00,1.28
8297.00,1.28
8296.00,1.28
8295.00,1.28
8294.00,1.29
8293.00,1.29
8292.00,1.29
8291.00,1.29
8290.00,1.29
8289.00,1.29
8288.00,1.30
8287.00,1.30
8286.00,1.30
8285.00,1.30
8284.00,1.30
8283.00,1.30
8282.00,1.30
8281.00,1.30
8280.00,1.30
8279.00,1.30
8278.00,1.30
8277.00,1.30
8276.00,1.30
8275.00,1.30
8274.00,1.30
8273.00,1.30
8272.00,1.30
8271.00,1.30
8270.00,1.30
8269.00,1.30
8268.00,1.30
8267.00,1.30
8266.00,1.30
8265.00,1.30
8264.00,1.30
8263.00,1.30
8262.00,1.30
8261.00,1.30
8260.00,1.30
8259.00,1.30
8258.00,1.30
8257.00,1.30
8256.00,1.30
8255.00,1.30
8254.00,1.30
8253.00,1.30
8252.00,1.31
8251.00,1.31
8250.00,1.31
8249.00,1.31
8248.00,1.31
8247.00,1.31
8246.00,1.32
8245.00,1.32
8244.00,1.32
8243.00,1.32
8242.00,1.32
8241.00,1.32
8240.00,1.33
8239.00,1.33
8238.00,1.33
8237.00,1.33
8236.00,1.33
8235.00,1.33
8234.00,1.33
8233.00,1.33
8232.00,1.33
8231.00,1.33
8230.00,1.33
8229.00,1.33
8228.00,1.33
8227.00,1.33
8226.00,1.33
8225.00,1.33
8224.00,1.33
8223.00,1.33
8222.00,1.33
8221.00,1.33
8220.00,1.33
8219.00,1.33
8218.00,1.33
8217.00,1.33
8216.00,1.33
8215.00,1.33
8214.00,1.33
8213.00,1.33
8212.00,1.33
8211.00,1.33
8210.00,1.33
8209.00,1.34
8208.00,1.34
8207.00,1.34
8206.00,1.34
8205.00,1.34
8204.00,1.34
8203.00,1.34
8202.00,1.34
8201.00,1.35
8200.00,1.35
8199.00,1.35
8198.00,1.35
8197.00,1.35
8196.00,1.35
8195.00,1.35
8194.00,1.35
8193.00,1.35
8192.00,1.36
8191.00,1.36
8190.00,1.36
8189.00,1.35
8188.00,1.35
8187.00,1.35
8186.00,1.35
8185.00,1.35
8184.00,1.35
8183.00,1.35
8182.00,1.35
8181.00,1.35
8180.00,1.35
8179.00,1.35
8178.00,1.35
8177.00,1.35
8176.00,1.35
8175.00,1.35
8174.00,1.35
8173.00,1.35
8172.00,1.35
8171.00,1.35
8170.00,1.35
8169.00,1.36
8168.00,1.36
8167.00,1.36
8166.00,1.36
8165.00,1.36
8164.00,1.37
8163.00,1.37
8162.00,1.37
8161.00,1.37
8160.00,1.37
8159.00,1.37
8158.00,1.37
8157.00,1.37
8156.00,1.37
8155.00,1.38
8154.00,1.38
8153.00,1.38
8152.00,1.38
8151.00,1.38
8150.00,1.38
8149.00,1.38
8148.00,1.38
8147.00,1.38
8146.00,1.38
8145.00,1.38
8144.00,1.38
8143.00,1.38
8142.00,1.39
8141.00,1.39
8140.00,1.39
8139.00,1.39
8138.00,1.39
8137.00,1.39
8136.00,1.39
8135.00,1.39
8134.00,1.39
8133.00,1.39
8132.00,1.39
8131.00,1.39
8130.00,1.39
8129.00,1.39
8128.00,1.39
8127.00,1.39
8126.00,1.39
8125.00,1.39
8124.00,1.39
8123.00,1.39
8122.00,1.39
8121.00,1.39
8120.00,1.39
8119.00,1.39
8118.00,1.39
8117.00,1.39
8116.00,1.39
8115.00,1.39
8114.00,1.40
8113.00,1.40
8112.00,1.40
8111.00,1.40
8110.00,1.40
8109.00,1.40
8108.00,1.40
8107.00,1.40
8106.00,1.41
8105.00,1.41
8104.00,1.41
8103.00,1.41
8102.00,1.41
8101.00,1.41
8100.00,1.41
8099.00,1.41
8098.00,1.41
8097.00,1.41
8096.00,1.41
8095.00,1.41
8094.00,1.41
8093.00,1.41
8092.00,1.41
8091.00,1.41
8090.00,1.41
8089.00,1.41
8088.00,1.41
8087.00,1.41
8086.00,1.42
8085.00,1.42
8084.00,1.42
8083.00,1.42
8082.00,1.42
8081.00,1.42
8080.00,1.42
8079.00,1.42
8078.00,1.42
8077.00,1.42
8076.00,1.42
8075.00,1.42
8074.00,1.42
8073.00,1.42
8072.00,1.42
8071.00,1.43
8070.00,1.42
8069.00,1.42
8068.00,1.42
8067.00,1.42
8066.00,1.42
8065.00,1.43
8064.00,1.43
8063.00,1.43
8062.00,1.43
8061.00,1.43
8060.00,1.43
8059.00,1.43
8058.00,1.43
8057.00,1.43
8056.00,1.43
8055.00,1.43
8054.00,1.43
8053.00,1.43
8052.00,1.44
8051.00,1.44
8050.00,1.44
8049.00,1.44
8048.00,1.44
8047.00,1.44
8046.00,1.44
8045.00,1.44
8044.00,1.44
8043.00,1.44
8042.00,1.44
8041.00,1.44
8040.00,1.44
8039.00,1.43
8038.00,1.43
8037.00,1.43
8036.00,1.43
8035.00,1.43
8034.00,1.43
8033.00,1.44
8032.00,1.44
8031.00,1.44
8030.00,1.44
8029.00,1.44
8028.00,1.44
8027.00,1.44
8026.00,1.44
8025.00,1.44
8024.00,1.44
8023.00,1.44
8022.00,1.44
8021.00,1.44
8020.00,1.45
8019.00,1.45
8018.00,1.45
8017.00,1.45
8016.00,1.45
8015.00,1.45
8014.00,1.45
8013.00,1.45
8012.00,1.45
8011.00,1.45
8010.00,1.45
8009.00,1.45
8008.00,1.45
8007.00,1.45
8006.00,1.45
8005.00,1.45
8004.00,1.45
8003.00,1.45
8002.00,1.45
8001.00,1.45
8000.00,1.45
7999.00,1.45
7998.00,1.45
7997.00,1.45
7996.00,1.45
7995.00,1.45
7994.00,1.46
7993.00,1.46
7992.00,1.46
7991.00,1.46
7990.00,1.46
7989.00,1.46
7988.00,1.46
7987.00,1.46
7986.00,1.46
7985.00,1.46
7984.00,1.46
7983.00,1.47
7982.00,1.47
7981.00,1.47
7980.00,1.47
7979.00,1.47
7978.00,1.47
7977.00,1.47
7976.00,1.47
7975.00,1.47
7974.00,1.47
7973.00,1.47
7972.00,1.47
7971.00,1.47
7970.00,1.47
7969.00,1.47
7968.00,1.47
7967.00,1.47
7966.00,1.47
7965.00,1.47
7964.00,1.47
7963.00,1.48
7962.00,1.48
7961.00,1.48
7960.00,1.48
7959.00,1.47
7958.00,1.47
7957.00,1.47
7956.00,1.47
7955.00,1.47
7954.00,1.47
7953.00,1.47
7952.00,1.47
7951.00,1.47
7950.00,1.46
7949.00,1.46
7948.00,1.46
7947.00,1.46
7946.00,1.46
7945.00,1.46
7944.00,1.46
7943.00,1.46
7942.00,1.46
7941.00,1.46
7940.00,1.46
7939.00,1.46
7938.00,1.46
7937.00,1.46
7936.00,1.46
7935.00,1.46
7934.00,1.46
7933.00,1.46
7932.00,1.46
7931.00,1.46
7930.00,1.46
7929.00,1.46
7928.00,1.46
7927.00,1.46
7926.00,1.46
7925.00,1.46
7924.00,1.46
7923.00,1.46
7922.00,1.46
7921.00,1.46
7920.00,1.46
7919.00,1.46
7918.00,1.47
7917.00,1.47
7916.00,1.47
7915.00,1.47
7914.00,1.47
7913.00,1.47
7912.00,1.47
7911.00,1.47
7910.00,1.47
7909.00,1.47
7908.00,1.47
7907.00,1.47
7906.00,1.47
7905.00,1.47
7904.00,1.48
7903.00,1.48
7902.00,1.48
7901.00,1.48
7900.00,1.48
7899.00,1.48
7898.00,1.48
7897.00,1.48
7896.00,1.48
7895.00,1.48
7894.00,1.48
7893.00,1.48
7892.00,1.48
7891.00,1.48
7890.00,1.48
7889.00,1.48
7888.00,1.48
7887.00,1.49
7886.00,1.49
7885.00,1.49
7884.00,1.49
7883.00,1.49
7882.00,1.49
7881.00,1.49
7880.00,1.49
7879.00,1.49
7878.00,1.49
7877.00,1.49
7876.00,1.49
7875.00,1.49
7874.00,1.49
7873.00,1.49
7872.00,1.49
7871.00,1.49
7870.00,1.49
7869.00,1.49
7868.00,1.49
7867.00,1.49
7866.00,1.49
7865.00,1.49
7864.00,1.49
7863.00,1.49
7862.00,1.49
7861.00,1.49
7860.00,1.49
7859.00,1.49
7858.00,1.49
7857.00,1.50
7856.00,1.50
7855.00,1.50
7854.00,1.50
7853.00,1.50
7852.00,1.50
7851.00,1.50
7850.00,1.50
7849.00,1.50
7848.00,1.50
7847.00,1.50
7846.00,1.50
7845.00,1.50
7844.00,1.50
7843.00,1.50
7842.00,1.50
7841.00,1.50
7840.00,1.50
7839.00,1.50
7838.00,1.50
7837.00,1.50
7836.00,1.50
7835.00,1.50
7834.00,1.50
7833.00,1.50
7832.00,1.50
7831.00,1.50
7830.00,1.50
7829.00,1.50
7828.00,1.50
7827.00,1.50
7826.00,1.50
7825.00,1.50
7824.00,1.50
7823.00,1.51
7822.00,1.51
7821.00,1.51
7820.00,1.51
7819.00,1.51
7818.00,1.51
7817.00,1.51
7816.00,1.51
7815.00,1.51
7814.00,1.52
7813.00,1.52
7812.00,1.51
7811.00,1.51
7810.00,1.51
7809.00,1.51
7808.00,1.51
7807.00,1.51
7806.00,1.51
7805.00,1.51
7804.00,1.51
7803.00,1.51
7802.00,1.51
7801.00,1.51
7800.00,1.51
7799.00,1.50
7798.00,1.50
7797.00,1.50
7796.00,1.50
7795.00,1.50
7794.00,1.50
7793.00,1.50
7792.00,1.50
7791.00,1.50
7790.00,1.50
7789.00,1.50
7788.00,1.50
7787.00,1.50
7786.00,1.50
7785.00,1.50
7784.00,1.51
7783.00,1.51
7782.00,1.51
7781.00,1.51
7780.00,1.51
7779.00,1.51
7778.00,1.51
7777.00,1.51
7776.00,1.51
7775.00,1.51
7774.00,1.51
7773.00,1.51
7772.00,1.51
7771.00,1.52
7770.00,1.52
7769.00,1.52
7768.00,1.52
7767.00,1.52
7766.00,1.52
7765.00,1.52
7764.00,1.52
7763.00,1.52
7762.00,1.52
7761.00,1.52
7760.00,1.52
7759.00,1.52
7758.00,1.52
7757.00,1.52
7756.00,1.52
7755.00,1.52
7754.00,1.52
7753.00,1.52
7752.00,1.52
7751.00,1.52
7750.00,1.52
7749.00,1.52
7748.00,1.52
7747.00,1.52
7746.00,1.52
7745.00,1.52
7744.00,1.52
7743.00,1.52
7742.00,1.52
7741.00,1.52
7740.00,1.52
7739.00,1.52
7738.00,1.52
7737.00,1.52
7736.00,1.52
7735.00,1.52
7734.00,1.52
7733.00,1.52
7732.00,1.52
7731.00,1.52
7730.00,1.52
7729.00,1.52
7728.00,1.52
7727.00,1.52
7726.00,1.52
7725.00,1.52
7724.00,1.52
7723.00,1.52
7722.00,1.52
7721.00,1.52
7720.00,1.52
7719.00,1.52
7718.00,1.52
7717.00,1.52
7716.00,1.52
7715.00,1.52
7714.00,1.52
7713.00,1.52
7712.00,1.52
7711.00,1.52
7710.00,1.52
7709.00,1.52
7708.00,1.52
7707.00,1.52
7706.00,1.52
7705.00,1.52
7704.00,1.52
7703.00,1.52
7702.00,1.52
7701.00,1.52
7700.00,1.52
7699.00,1.52
7698.00,1.52
7697.00,1.52
7696.00,1.52
7695.00,1.52
7694.00,1.52
7693.00,1.52
7692.00,1.52
7691.00,1.52
7690.00,1.52
7689.00,1.52
7688.00,1.51
7687.00,1.51
7686.00,1.51
7685.00,1.51
7684.00,1.51
7683.00,1.51
7682.00,1.51
7681.00,1.51
7680.00,1.51
7679.00,1.51
7678.00,1.51
7677.00,1.52
7676.00,1.52
7675.00,1.52
7674.00,1.52
7673.00,1.52
7672.00,1.52
7671.00,1.52
7670.00,1.52
7669.00,1.52
7668.00,1.52
7667.00,1.52
7666.00,1.52
7665.00,1.52
7664.00,1.52
7663.00,1.52
7662.00,1.52
7661.00,1.52
7660.00,1.52
7659.00,1.52
7658.00,1.52
7657.00,1.52
7656.00,1.52
7655.00,1.52
7654.00,1.52
7653.00,1.52
7652.00,1.52
7651.00,1.52
7650.00,1.52
7649.00,1.52
7648.00,1.52
7647.00,1.52
7646.00,1.52
7645.00,1.52
7644.00,1.52
7643.00,1.52
7642.00,1.52
7641.00,1.52
7640.00,1.52
7639.00,1.52
7638.00,1.52
7637.00,1.52
7636.00,1.52
7635.00,1.52
7634.00,1.52
7633.00,1.52
7632.00,1.52
7631.00,1.52
7630.00,1.52
7629.00,1.52
7628.00,1.52
7627.00,1.52
7626.00,1.51
7625.00,1.51
7624.00,1.51
7623.00,1.51
7622.00,1.51
7621.00,1.51
7620.00,1.51
7619.00,1.51
7618.00,1.51
7617.00,1.51
7616.00,1.51
7615.00,1.51
7614.00,1.51
7613.00,1.51
7612.00,1.51
7611.00,1.51
7610.00,1.51
7609.00,1.52
7608.00,1.52
7607.00,1.52
7606.00,1.52
7605.00,1.52
7604.00,1.52
7603.00,1.52
7602.00,1.52
7601.00,1.52
7600.00,1.52
7599.00,1.52
7598.00,1.52
7597.00,1.52
7596.00,1.52
7595.00,1.52
7594.00,1.52
7593.00,1.52
7592.00,1.52
7591.00,1.52
7590.00,1.52
7589.00,1.52
7588.00,1.52
7587.00,1.52
7586.00,1.52
7585.00,1.52
7584.00,1.52
7583.00,1.52
7582.00,1.52
7581.00,1.52
7580.00,1.52
7579.00,1.52
7578.00,1.52
7577.00,1.52
7576.00,1.52
7575.00,1.52
7574.00,1.52
7573.00,1.52
7572.00,1.52
7571.00,1.52
7570.00,1.52
7569.00,1.52
7568.00,1.51
7567.00,1.51
7566.00,1.51
7565.00,1.51
7564.00,1.51
7563.00,1.51
7562.00,1.51
7561.00,1.51
7560.00,1.51
7559.00,1.51
7558.00,1.51
7557.00,1.51
7556.00,1.51
7555.00,1.51
7554.00,1.51
7553.00,1.51
7552.00,1.51
7551.00,1.51
7550.00,1.51
7549.00,1.51
7548.00,1.51
7547.00,1.51
7546.00,1.51
7545.00,1.51
7544.00,1.51
7543.00,1.51
7542.00,1.51
7541.00,1.51
7540.00,1.51
7539.00,1.51
7538.00,1.51
7537.00,1.51
7536.00,1.51
7535.00,1.50
7534.00,1.50
7533.00,1.50
7532.00,1.50
7531.00,1.50
7530.00,1.50
7529.00,1.50
7528.00,1.50
7527.00,1.50
7526.00,1.50
7525.00,1.50
7524.00,1.50
7523.00,1.50
7522.00,1.50
7521.00,1.50
7520.00,1.50
7519.00,1.50
7518.00,1.50
7517.00,1.50
7516.00,1.49
7515.00,1.49
7514.00,1.49
7513.00,1.49
7512.00,1.49
7511.00,1.49
7510.00,1.49
7509.00,1.49
7508.00,1.49
7507.00,1.49
7506.00,1.49
7505.00,1.49
7504.00,1.49
7503.00,1.48
7502.00,1.48
7501.00,1.48
7500.00,1.48
7499.00,1.48
7498.00,1.48
7497.00,1.47
7496.00,1.47
7495.00,1.47
7494.00,1.47
7493.00,1.47
7492.00,1.47
7491.00,1.46
7490.00,1.46
7489.00,1.46
7488.00,1.46
7487.00,1.46
7486.00,1.46
7485.00,1.46
7484.00,1.46
7483.00,1.45
7482.00,1.45
7481.00,1.45
7480.00,1.45
7479.00,1.45
7478.00,1.45
7477.00,1.45
7476.00,1.45
7475.00,1.45
7474.00,1.45
7473.00,1.45
7472.00,1.44
7471.00,1.44
7470.00,1.44
7469.00,1.44
7468.00,1.44
7467.00,1.44
7466.00,1.44
7465.00,1.44
7464.00,1.44
7463.00,1.44
7462.00,1.44
7461.00,1.44
7460.00,1.44
7459.00,1.43
7458.00,1.43
7457.00,1.43
7456.00,1.43
7455.00,1.43
7454.00,1.43
7453.00,1.43
7452.00,1.43
7451.00,1.43
7450.00,1.43
7449.00,1.43
7448.00,1.43
7447.00,1.42
7446.00,1.42
7445.00,1.42
7444.00,1.42
7443.00,1.42
7442.00,1.42
7441.00,1.42
7440.00,1.42
7439.00,1.42
7438.00,1.42
7437.00,1.42
7436.00,1.42
7435.00,1.42
7434.00,1.42
7433.00,1.42
7432.00,1.42
7431.00,1.42
7430.00,1.42
7429.00,1.42
7428.00,1.42
7427.00,1.41
7426.00,1.41
7425.00,1.41
7424.00,1.41
7423.00,1.41
7422.00,1.41
7421.00,1.41
7420.00,1.41
7419.00,1.41
7418.00,1.40
7417.00,1.40
7416.00,1.40
7415.00,1.40
7414.00,1.40
7413.00,1.40
7412.00,1.39
7411.00,1.39
7410.00,1.39
7409.00,1.39
7408.00,1.38
7407.00,1.38
7406.00,1.38
7405.00,1.38
7404.00,1.38
7403.00,1.37
7402.00,1.37
7401.00,1.37
7400.00,1.37
7399.00,1.37
7398.00,1.36
7397.00,1.36
7396.00,1.36
7395.00,1.36
7394.00,1.36
7393.00,1.36
7392.00,1.35
7391.00,1.35
7390.00,1.35
7389.00,1.35
7388.00,1.35
7387.00,1.35
7386.00,1.34
7385.00,1.34
7384.00,1.34
7383.00,1.34
7382.00,1.34
7381.00,1.33
7380.00,1.33
7379.00,1.33
7378.00,1.33
7377.00,1.33
7376.00,1.33
7375.00,1.32
7374.00,1.32
7373.00,1.32
7372.00,1.32
7371.00,1.32
7370.00,1.32
7369.00,1.32
7368.00,1.32
7367.00,1.32
7366.00,1.32
7365.00,1.32
7364.00,1.32
7363.00,1.32
7362.00,1.31
7361.00,1.31
7360.00,1.31
7359.00,1.31
7358.00,1.31
7357.00,1.31
7356.00,1.31
7355.00,1.30
7354.00,1.30
7353.00,1.30
7352.00,1.30
7351.00,1.30
7350.00,1.30
7349.00,1.29
7348.00,1.29
7347.00,1.29
7346.00,1.29
7345.00,1.29
7344.00,1.29
7343.00,1.29
7342.00,1.29
7341.00,1.29
7340.00,1.29
7339.00,1.29
7338.00,1.29
7337.00,1.29
7336.00,1.29
7335.00,1.29
7334.00,1.29
7333.00,1.29
7332.00,1.29
7331.00,1.29
7330.00,1.29
7329.00,1.29
7328.00,1.29
7327.00,1.29
7326.00,1.29
7325.00,1.29
7324.00,1.29
7323.00,1.29
7322.00,1.29
7321.00,1.29
7320.00,1.29
7319.00,1.29
7318.00,1.29
7317.00,1.29
7316.00,1.29
7315.00,1.29
7314.00,1.28
7313.00,1.28
7312.00,1.28
7311.00,1.28
7310.00,1.28
7309.00,1.28
7308.00,1.27
7307.00,1.27
7306.00,1.27
7305.00,1.27
7304.00,1.27
7303.00,1.27
7302.00,1.26
7301.00,1.26
7300.00,1.26
7299.00,1.26
7298.00,1.26
7297.00,1.26
7296.00,1.26
7295.00,1.25
7294.00,1.25
7293.00,1.25
7292.00,1.25
7291.00,1.25
7290.00,1.25
7289.00,1.24
7288.00,1.24
7287.00,1.24
7286.00,1.24
7285.00,1.24
7284.00,1.24
7283.00,1.23
7282.00,1.23
7281.00,1.23
7280.00,1.23
7279.00,1.23
7278.00,1.23
7277.00,1.22
7276.00,1.22
7275.00,1.22
7274.00,1.22
7273.00,1.22
7272.00,1.22
7271.00,1.21
7270.00,1.21
7269.00,1.21
7268.00,1.21
7267.00,1.21
7266.00,1.21
7265.00,1.20
7264.00,1.20
7263.00,1.20
7262.00,1.20
7261.00,1.19
7260.00,1.19
7259.00,1.19
7258.00,1.19
7257.00,1.18
7256.00,1.18
7255.00,1.18
7254.00,1.17
7253.00,1.17
7252.00,1.17
7251.00,1.16
7250.00,1.16
7249.00,1.16
7248.00,1.15
7247.00,1.15
7246.00,1.15
7245.00,1.14
7244.00,1.14
7243.00,1.14
7242.00,1.13
7241.00,1.13
7240.00,1.13
7239.00,1.12
7238.00,1.12
7237.00,1.12
7236.00,1.11
7235.00,1.11
7234.00,1.11
7233.00,1.10
7232.00,1.10
7231.00,1.09
7230.00,1.09
7229.00,1.08
7228.00,1.08
7227.00,1.07
7226.00,1.07
7225.00,1.06
7224.00,1.06
7223.00,1.05
7222.00,1.05
7221.00,1.04
7220.00,1.04
7219.00,1.04
7218.00,1.03
7217.00,1.03
7216.00,1.02
7215.00,1.02
7214.00,1.02
7213.00,1.01
7212.00,1.01
7211.00,1.00
7210.00,1.00
7209.00,0.99
7208.00,0.99
7207.00,0.99
7206.00,0.98
7205.00,0.98
7204.00,0.97
7203.00,0.97
7202.00,0.97
7201.00,0.96
7200.00,0.96
7199.00,0.95
7198.00,0.95
7197.00,0.95
7196.00,0.94
7195.00,0.94
7194.00,0.93
7193.00,0.93
7192.00,0.93
7191.00,0.92
7190.00,0.92
7189.00,0.91
7188.00,0.91
7187.00,0.90
7186.00,0.90
7185.00,0.89
7184.00,0.89
7183.00,0.89
7182.00,0.88
7181.00,0.88
7180.00,0.87
7179.00,0.87
7178.00,0.86
7177.00,0.86
7176.00,0.86
7175.00,0.85
7174.00,0.85
7173.00,0.85
7172.00,0.85
7171.00,0.84
7170.00,0.84
7169.00,0.84
7168.00,0.84
7167.00,0.83
7166.00,0.83
7165.00,0.83
7164.00,0.83
7163.00,0.82
7162.00,0.82
7161.00,0.82
7160.00,0.82
7159.00,0.81
7158.00,0.81
7157.00,0.81
7156.00,0.81
7155.00,0.80
7154.00,0.80
7153.00,0.80
7152.00,0.80
7151.00,0.79
7150.00,0.79
7149.00,0.79
7148.00,0.79
7147.00,0.78
7146.00,0.78
7145.00,0.78
7144.00,0.77
7143.00,0.77
7142.00,0.77
7141.00,0.77
7140.00,0.76
7139.00,0.76
7138.00,0.76
7137.00,0.76
7136.00,0.75
7135.00,0.75
7134.00,0.75
7133.00,0.75
7132.00,0.74
7131.00,0.74
7130.00,0.74
7129.00,0.74
7128.00,0.73
7127.00,0.73
7126.00,0.73
7125.00,0.73
7124.00,0.72
7123.00,0.72
7122.00,0.72
7121.00,0.71
7120.00,0.71
7119.00,0.71
7118.00,0.70
7117.00,0.70
7116.00,0.70
7115.00,0.70
7114.00,0.69
7113.00,0.69
7112.00,0.69
7111.00,0.68
7110.00,0.68
7109.00,0.68
7108.00,0.68
7107.00,0.67
7106.00,0.67
7105.00,0.67
7104.00,0.67
7103.00,0.66
7102.00,0.66
7101.00,0.66
7100.00,0.66
7099.00,0.66
7098.00,0.65
7097.00,0.65
7096.00,0.65
7095.00,0.65
7094.00,0.65
7093.00,0.65
7092.00,0.65
7091.00,0.65
7090.00,0.65
7089.00,0.64
7088.00,0.64
7087.00,0.64
7086.00,0.64
7085.00,0.64
7084.00,0.64
7083.00,0.64
7082.00,0.64
7081.00,0.63
7080.00,0.63
7079.00,0.63
7078.00,0.63
7077.00,0.63
7076.00,0.63
7075.00,0.63
7074.00,0.63
7073.00,0.63
7072.00,0.63
7071.00,0.62
7070.00,0.62
7069.00,0.62
7068.00,0.62
7067.00,0.62
7066.00,0.62
7065.00,0.62
7064.00,0.62
7063.00,0.62
7062.00,0.61
7061.00,0.61
7060.00,0.61
7059.00,0.61
7058.00,0.61
7057.00,0.61
7056.00,0.61
7055.00,0.61
7054.00,0.60
7053.00,0.60
7052.00,0.60
7051.00,0.60
7050.00,0.60
7049.00,0.60
7048.00,0.59
7047.00,0.59
7046.00,0.59
7045.00,0.59
7044.00,0.59
7043.00,0.59
7042.00,0.59
7041.00,0.59
7040.00,0.59
7039.00,0.59
7038.00,0.59
7037.00,0.58
7036.00,0.58
7035.00,0.58
7034.00,0.58
7033.00,0.58
7032.00,0.58
7031.00,0.59
7030.00,0.59
7029.00,0.59
7028.00,0.59
7027.00,0.59
7026.00,0.59
7025.00,0.59
7024.00,0.59
7023.00,0.59
7022.00,0.59
7021.00,0.59
7020.00,0.59
7019.00,0.59
7018.00,0.59
7017.00,0.59
7016.00,0.59
7015.00,0.59
7014.00,0.58
7013.00,0.58
7012.00,0.58
7011.00,0.58
7010.00,0.58
7009.00,0.58
7008.00,0.58
7007.00,0.58
7006.00,0.58
7005.00,0.58
7004.00,0.58
7003.00,0.58
7002.00,0.58
7001.00,0.58
7000.00,0.58
6999.00,0.58
6998.00,0.58
6997.00,0.58
6996.00,0.57
6995.00,0.57
6994.00,0.57
6993.00,0.57
6992.00,0.57
6991.00,0.57
6990.00,0.57
6989.00,0.57
6988.00,0.57
6987.00,0.57
6986.00,0.56
6985.00,0.56
6984.00,0.56
6983.00,0.56
6982.00,0.56
6981.00,0.56
6980.00,0.56
6979.00,0.56
6978.00,0.56
6977.00,0.56
6976.00,0.56
6975.00,0.56
6974.00,0.56
6973.00,0.56
6972.00,0.56
6971.00,0.56
6970.00,0.56
6969.00,0.56
6968.00,0.56
6967.00,0.56
6966.00,0.56
6965.00,0.55
6964.00,0.55
6963.00,0.55
6962.00,0.55
6961.00,0.55
6960.00,0.55
6959.00,0.55
6958.00,0.55
6957.00,0.55
6956.00,0.55
6955.00,0.55
6954.00,0.55
6953.00,0.55
6952.00,0.55
6951.00,0.55
6950.00,0.55
6949.00,0.55
6948.00,0.55
6947.00,0.55
6946.00,0.55
6945.00,0.55
6944.00,0.55
6943.00,0.55
6942.00,0.55
6941.00,0.55
6940.00,0.55
6939.00,0.55
6938.00,0.55
6937.00,0.55
6936.00,0.55
6935.00,0.55
6934.00,0.55
6933.00,0.55
6932.00,0.55
6931.00,0.55
6930.00,0.55
6929.00,0.55
6928.00,0.55
6927.00,0.55
6926.00,0.55
6925.00,0.55
6924.00,0.55
6923.00,0.55
6922.00,0.55
6921.00,0.55
6920.00,0.55
6919.00,0.55
6918.00,0.55
6917.00,0.55
6916.00,0.55
6915.00,0.55
6914.00,0.55
6913.00,0.55
6912.00,0.55
6911.00,0.55
6910.00,0.55
6909.00,0.55
6908.00,0.55
6907.00,0.55
6906.00,0.55
6905.00,0.55
6904.00,0.55
6903.00,0.55
6902.00,0.55
6901.00,0.55
6900.00,0.55
6899.00,0.55
6898.00,0.55
6897.00,0.55
6896.00,0.55
6895.00,0.55
6894.00,0.55
6893.00,0.55
6892.00,0.55
6891.00,0.55
6890.00,0.55
6889.00,0.55
6888.00,0.55
6887.00,0.55
6886.00,0.55
6885.00,0.55
6884.00,0.55
6883.00,0.55
6882.00,0.55
6881.00,0.55
6880.00,0.55
6879.00,0.55
6878.00,0.55
6877.00,0.55
6876.00,0.55
6875.00,0.55
6874.00,0.55
6873.00,0.56
6872.00,0.56
6871.00,0.56
6870.00,0.56
6869.00,0.56
6868.00,0.56
6867.00,0.56
6866.00,0.56
6865.00,0.55
6864.00,0.55
6863.00,0.55
6862.00,0.55
6861.00,0.55
6860.00,0.55
6859.00,0.55
6858.00,0.55
6857.00,0.55
6856.00,0.55
6855.00,0.55
6854.00,0.55
6853.00,0.55
6852.00,0.55
6851.00,0.56
6850.00,0.56
6849.00,0.56
6848.00,0.56
6847.00,0.56
6846.00,0.56
6845.00,0.56
6844.00,0.56
6843.00,0.56
6842.00,0.56
6841.00,0.56
6840.00,0.56
6839.00,0.57
6838.00,0.57
6837.00,0.57
6836.00,0.57
6835.00,0.57
6834.00,0.57
6833.00,0.57
6832.00,0.57
6831.00,0.57
6830.00,0.57
6829.00,0.57
6828.00,0.57
6827.00,0.56
6826.00,0.56
6825.00,0.56
6824.00,0.56
6823.00,0.56
6822.00,0.56
6821.00,0.56
6820.00,0.56
6819.00,0.56
6818.00,0.56
6817.00,0.56
6816.00,0.56
6815.00,0.56
6814.00,0.56
6813.00,0.56
6812.00,0.56
6811.00,0.56
6810.00,0.56
6809.00,0.56
6808.00,0.56
6807.00,0.56
6806.00,0.56
6805.00,0.56
6804.00,0.57
6803.00,0.57
6802.00,0.57
6801.00,0.57
6800.00,0.57
6799.00,0.57
6798.00,0.57
6797.00,0.57
6796.00,0.57
6795.00,0.57
6794.00,0.57
6793.00,0.57
6792.00,0.57
6791.00,0.57
6790.00,0.57
6789.00,0.57
6788.00,0.57
6787.00,0.57
6786.00,0.57
6785.00,0.57
6784.00,0.57
6783.00,0.58
6782.00,0.58
6781.00,0.58
6780.00,0.58
6779.00,0.58
6778.00,0.58
6777.00,0.58
6776.00,0.58
6775.00,0.58
6774.00,0.58
6773.00,0.58
6772.00,0.58
6771.00,0.58
6770.00,0.58
6769.00,0.58
6768.00,0.58
6767.00,0.58
6766.00,0.58
6765.00,0.58
6764.00,0.58
6763.00,0.58
6762.00,0.58
6761.00,0.58
6760.00,0.59
6759.00,0.59
6758.00,0.59
6757.00,0.59
6756.00,0.59
6755.00,0.59
6754.00,0.59
6753.00,0.59
6752.00,0.59
6751.00,0.59
6750.00,0.59
6749.00,0.59
6748.00,0.59
6747.00,0.60
6746.00,0.60
6745.00,0.60
6744.00,0.60
6743.00,0.60
6742.00,0.60
6741.00,0.60
6740.00,0.60
6739.00,0.60
6738.00,0.60
6737.00,0.60
6736.00,0.60
6735.00,0.60
6734.00,0.60
6733.00,0.60
6732.00,0.60
6731.00,0.60
6730.00,0.60
6729.00,0.60
6728.00,0.60
6727.00,0.60
6726.00,0.60
6725.00,0.60
6724.00,0.60
6723.00,0.60
6722.00,0.60
6721.00,0.60
6720.00,0.60
6719.00,0.60
6718.00,0.60
6717.00,0.60
6716.00,0.60
6715.00,0.61
6714.00,0.61
6713.00,0.61
6712.00,0.61
6711.00,0.61
6710.00,0.61
6709.00,0.61
6708.00,0.61
6707.00,0.61
6706.00,0.61
6705.00,0.61
6704.00,0.61
6703.00,0.61
6702.00,0.61
6701.00,0.61
6700.00,0.61
6699.00,0.61
6698.00,0.61
6697.00,0.61
6696.00,0.61
6695.00,0.62
6694.00,0.62
6693.00,0.62
6692.00,0.62
6691.00,0.62
6690.00,0.62
6689.00,0.62
6688.00,0.62
6687.00,0.62
6686.00,0.62
6685.00,0.62
6684.00,0.62
6683.00,0.62
6682.00,0.62
6681.00,0.62
6680.00,0.62
6679.00,0.63
6678.00,0.63
6677.00,0.63
6676.00,0.63
6675.00,0.63
6674.00,0.63
6673.00,0.63
6672.00,0.63
6671.00,0.63
6670.00,0.63
6669.00,0.63
6668.00,0.63
6667.00,0.63
6666.00,0.63
6665.00,0.63
6664.00,0.63
6663.00,0.64
6662.00,0.64
6661.00,0.64
6660.00,0.64
6659.00,0.64
6658.00,0.64
6657.00,0.64
6656.00,0.65
6655.00,0.65
6654.00,0.65
6653.00,0.65
6652.00,0.65
6651.00,0.65
6650.00,0.66
6649.00,0.66
6648.00,0.66
6647.00,0.66
6646.00,0.66
6645.00,0.66
6644.00,0.66
6643.00,0.66
6642.00,0.66
6641.00,0.66
6640.00,0.66
6639.00,0.66
6638.00,0.66
6637.00,0.66
6636.00,0.66
6635.00,0.66
6634.00,0.66
6633.00,0.66
6632.00,0.66
6631.00,0.66
6630.00,0.66
6629.00,0.67
6628.00,0.67
6627.00,0.67
6626.00,0.67
6625.00,0.67
6624.00,0.67
6623.00,0.67
6622.00,0.67
6621.00,0.67
6620.00,0.67
6619.00,0.68
6618.00,0.68
6617.00,0.68
6616.00,0.68
6615.00,0.68
6614.00,0.68
6613.00,0.68
6612.00,0.68
6611.00,0.69
6610.00,0.69
6609.00,0.69
6608.00,0.69
6607.00,0.69
6606.00,0.69
6605.00,0.69
6604.00,0.69
6603.00,0.69
6602.00,0.69
6601.00,0.70
6600.00,0.70
6599.00,0.70
6598.00,0.70
6597.00,0.70
6596.00,0.70
6595.00,0.70
6594.00,0.70
6593.00,0.71
6592.00,0.71
6591.00,0.71
6590.00,0.71
6589.00,0.71
6588.00,0.71
6587.00,0.71
6586.00,0.71
6585.00,0.72
6584.00,0.72
6583.00,0.72
6582.00,0.72
6581.00,0.72
6580.00,0.72
6579.00,0.72
6578.00,0.72
6577.00,0.72
6576.00,0.72
6575.00,0.72
6574.00,0.72
6573.00,0.72
6572.00,0.72
6571.00,0.72
6570.00,0.73
6569.00,0.73
6568.00,0.73
6567.00,0.73
6566.00,0.73
6565.00,0.73
6564.00,0.73
6563.00,0.73
6562.00,0.73
6561.00,0.73
6560.00,0.73
6559.00,0.73
6558.00,0.73
6557.00,0.73
6556.00,0.73
6555.00,0.73
6554.00,0.73
6553.00,0.73
6552.00,0.73
6551.00,0.73
6550.00,0.73
6549.00,0.73
6548.00,0.73
6547.00,0.73
6546.00,0.73
6545.00,0.73
6544.00,0.73
6543.00,0.73
6542.00,0.74
6541.00,0.74
6540.00,0.74
6539.00,0.74
6538.00,0.74
6537.00,0.74
6536.00,0.74
6535.00,0.74
6534.00,0.74
6533.00,0.75
6532.00,0.75
6531.00,0.75
6530.00,0.75
6529.00,0.75
6528.00,0.75
6527.00,0.75
6526.00,0.75
6525.00,0.76
6524.00,0.76
6523.00,0.76
6522.00,0.76
6521.00,0.76
6520.00,0.76
6519.00,0.76
6518.00,0.76
6517.00,0.77
6516.00,0.77
6515.00,0.77
6514.00,0.77
6513.00,0.77
6512.00,0.77
6511.00,0.77
6510.00,0.77
6509.00,0.77
6508.00,0.78
6507.00,0.78
6506.00,0.78
6505.00,0.78
6504.00,0.78
6503.00,0.78
6502.00,0.78
6501.00,0.78
6500.00,0.78
6499.00,0.78
6498.00,0.78
6497.00,0.78
6496.00,0.78
6495.00,0.78
6494.00,0.78
6493.00,0.78
6492.00,0.78
6491.00,0.78
6490.00,0.78
6489.00,0.78
6488.00,0.78
6487.00,0.78
6486.00,0.78
6485.00,0.78
6484.00,0.78
6483.00,0.78
6482.00,0.78
6481.00,0.79
6480.00,0.79
6479.00,0.79
6478.00,0.79
6477.00,0.79
6476.00,0.79
6475.00,0.79
6474.00,0.79
6473.00,0.79
6472.00,0.79
6471.00,0.79
6470.00,0.79
6469.00,0.79
6468.00,0.79
6467.00,0.79
6466.00,0.79
6465.00,0.79
6464.00,0.79
6463.00,0.79
6462.00,0.79
6461.00,0.80
6460.00,0.80
6459.00,0.80
6458.00,0.80
6457.00,0.80
6456.00,0.80
6455.00,0.80
6454.00,0.80
6453.00,0.80
6452.00,0.81
6451.00,0.81
6450.00,0.81
6449.00,0.81
6448.00,0.81
6447.00,0.81
6446.00,0.81
6445.00,0.82
6444.00,0.82
6443.00,0.82
6442.00,0.82
6441.00,0.82
6440.00,0.82
6439.00,0.82
6438.00,0.82
6437.00,0.82
6436.00,0.82
6435.00,0.82
6434.00,0.82
6433.00,0.82
6432.00,0.82
6431.00,0.82
6430.00,0.82
6429.00,0.82
6428.00,0.82
6427.00,0.82
6426.00,0.83
6425.00,0.83
6424.00,0.83
6423.00,0.83
6422.00,0.83
6421.00,0.83
6420.00,0.83
6419.00,0.83
6418.00,0.83
6417.00,0.83
6416.00,0.83
6415.00,0.83
6414.00,0.83
6413.00,0.83
6412.00,0.83
6411.00,0.83
6410.00,0.83
6409.00,0.84
6408.00,0.84
6407.00,0.84
6406.00,0.84
6405.00,0.84
6404.00,0.84
6403.00,0.84
6402.00,0.84
6401.00,0.84
6400.00,0.84
6399.00,0.84
6398.00,0.84
6397.00,0.84
6396.00,0.84
6395.00,0.84
6394.00,0.84
6393.00,0.84
6392.00,0.84
6391.00,0.84
6390.00,0.84
6389.00,0.84
6388.00,0.84
6387.00,0.85
6386.00,0.85
6385.00,0.85
6384.00,0.85
6383.00,0.85
6382.00,0.85
6381.00,0.85
6380.00,0.85
6379.00,0.85
6378.00,0.85
6377.00,0.85
6376.00,0.85
6375.00,0.86
6374.00,0.86
6373.00,0.86
6372.00,0.86
6371.00,0.86
6370.00,0.86
6369.00,0.86
6368.00,0.86
6367.00,0.86
6366.00,0.86
6365.00,0.86
6364.00,0.86
6363.00,0.86
6362.00,0.86
6361.00,0.86
6360.00,0.86
6359.00,0.86
6358.00,0.87
6357.00,0.87
6356.00,0.87
6355.00,0.87
6354.00,0.87
6353.00,0.87
6352.00,0.87
6351.00,0.87
6350.00,0.87
6349.00,0.87
6348.00,0.88
6347.00,0.88
6346.00,0.88
6345.00,0.88
6344.00,0.88
6343.00,0.88
6342.00,0.88
6341.00,0.88
6340.00,0.89
6339.00,0.89
6338.00,0.89
6337.00,0.89
6336.00,0.89
6335.00,0.89
6334.00,0.89
6333.00,0.89
6332.00,0.89
6331.00,0.89
6330.00,0.90
6329.00,0.90
6328.00,0.90
6327.00,0.90
6326.00,0.90
6325.00,0.90
6324.00,0.90
6323.00,0.90
6322.00,0.90
6321.00,0.90
6320.00,0.90
6319.00,0.91
6318.00,0.91
6317.00,0.91
6316.00,0.91
6315.00,0.91
6314.00,0.91
6313.00,0.91
6312.00,0.91
6311.00,0.91
6310.00,0.91
6309.00,0.91
6308.00,0.91
6307.00,0.91
6306.00,0.92
6305.00,0.92
6304.00,0.92
6303.00,0.92
6302.00,0.92
6301.00,0.92
6300.00,0.92
6299.00,0.92
6298.00,0.92
6297.00,0.92
6296.00,0.93
6295.00,0.93
6294.00,0.93
6293.00,0.93
6292.00,0.93
6291.00,0.93
6290.00,0.93
6289.00,0.93
6288.00,0.94
6287.00,0.94
6286.00,0.94
6285.00,0.94
6284.00,0.94
6283.00,0.94
6282.00,0.95
6281.00,0.95
6280.00,0.95
6279.00,0.95
6278.00,0.95
6277.00,0.95
6276.00,0.96
6275.00,0.96
6274.00,0.96
6273.00,0.96
6272.00,0.96
6271.00,0.97
6270.00,0.97
6269.00,0.97
6268.00,0.97
6267.00,0.97
6266.00,0.97
6265.00,0.97
6264.00,0.98
6263.00,0.98
6262.00,0.98
6261.00,0.98
6260.00,0.98
6259.00,0.98
6258.00,0.98
6257.00,0.98
6256.00,0.98
6255.00,0.98
6254.00,0.99
6253.00,0.99
6252.00,0.99
6251.00,0.99
6250.00,0.99
6249.00,0.99
6248.00,0.99
6247.00,1.00
6246.00,1.00
6245.00,1.00
6244.00,1.00
6243.00,1.00
6242.00,1.00
6241.00,1.00
6240.00,1.01
6239.00,1.01
6238.00,1.01
6237.00,1.01
6236.00,1.01
6235.00,1.01
6234.00,1.01
6233.00,1.01
6232.00,1.01
6231.00,1.02
6230.00,1.02
6229.00,1.02
6228.00,1.02
6227.00,1.02
6226.00,1.02
6225.00,1.02
6224.00,1.02
6223.00,1.02
6222.00,1.03
6221.00,1.03
6220.00,1.03
6219.00,1.03
6218.00,1.03
6217.00,1.03
6216.00,1.03
6215.00,1.04
6214.00,1.04
6213.00,1.04
6212.00,1.04
6211.00,1.04
6210.00,1.04
6209.00,1.05
6208.00,1.05
6207.00,1.05
6206.00,1.05
6205.00,1.05
6204.00,1.06
6203.00,1.06
6202.00,1.06
6201.00,1.06
6200.00,1.06
6199.00,1.07
6198.00,1.07
6197.00,1.07
6196.00,1.07
6195.00,1.07
6194.00,1.08
6193.00,1.08
6192.00,1.08
6191.00,1.08
6190.00,1.08
6189.00,1.09
6188.00,1.09
6187.00,1.09
6186.00,1.09
6185.00,1.09
6184.00,1.10
6183.00,1.10
6182.00,1.10
6181.00,1.10
6180.00,1.10
6179.00,1.10
6178.00,1.10
6177.00,1.10
6176.00,1.11
6175.00,1.11
6174.00,1.11
6173.00,1.11
6172.00,1.11
6171.00,1.11
6170.00,1.11
6169.00,1.11
6168.00,1.12
6167.00,1.12
6166.00,1.12
6165.00,1.12
6164.00,1.12
6163.00,1.13
6162.00,1.13
6161.00,1.13
6160.00,1.13
6159.00,1.14
6158.00,1.14
6157.00,1.14
6156.00,1.14
6155.00,1.15
6154.00,1.15
6153.00,1.15
6152.00,1.15
6151.00,1.16
6150.00,1.16
6149.00,1.16
6148.00,1.16
6147.00,1.16
6146.00,1.16
6145.00,1.17
6144.00,1.17
6143.00,1.17
6142.00,1.17
6141.00,1.17
6140.00,1.18
6139.00,1.18
6138.00,1.18
6137.00,1.18
6136.00,1.18
6135.00,1.19
6134.00,1.19
6133.00,1.19
6132.00,1.19
6131.00,1.19
6130.00,1.19
6129.00,1.19
6128.00,1.20
6127.00,1.20
6126.00,1.20
6125.00,1.20
6124.00,1.20
6123.00,1.21
6122.00,1.21
6121.00,1.21
6120.00,1.21
6119.00,1.22
6118.00,1.22
6117.00,1.22
6116.00,1.22
6115.00,1.23
6114.00,1.23
6113.00,1.23
6112.00,1.24
6111.00,1.24
6110.00,1.24
6109.00,1.24
6108.00,1.25
6107.00,1.25
6106.00,1.25
6105.00,1.25
6104.00,1.25
6103.00,1.26
6102.00,1.26
6101.00,1.26
6100.00,1.26
6099.00,1.26
6098.00,1.26
6097.00,1.26
6096.00,1.26
6095.00,1.26
6094.00,1.26
6093.00,1.27
6092.00,1.27
6091.00,1.27
6090.00,1.27
6089.00,1.27
6088.00,1.27
6087.00,1.27
6086.00,1.28
6085.00,1.28
6084.00,1.28
6083.00,1.28
6082.00,1.28
6081.00,1.29
6080.00,1.29
6079.00,1.29
6078.00,1.29
6077.00,1.30
6076.00,1.30
6075.00,1.30
6074.00,1.30
6073.00,1.30
6072.00,1.31
6071.00,1.31
6070.00,1.31
6069.00,1.31
6068.00,1.31
6067.00,1.31
6066.00,1.32
6065.00,1.32
6064.00,1.32
6063.00,1.32
6062.00,1.32
6061.00,1.32
6060.00,1.32
6059.00,1.33
6058.00,1.33
6057.00,1.33
6056.00,1.33
6055.00,1.33
6054.00,1.33
6053.00,1.33
6052.00,1.34
6051.00,1.34
6050.00,1.34
6049.00,1.34
6048.00,1.34
6047.00,1.34
6046.00,1.34
6045.00,1.35
6044.00,1.35
6043.00,1.35
6042.00,1.35
6041.00,1.35
6040.00,1.35
6039.00,1.35
6038.00,1.35
6037.00,1.35
6036.00,1.35
6035.00,1.35
6034.00,1.35
6033.00,1.36
6032.00,1.36
6031.00,1.36
6030.00,1.36
6029.00,1.36
6028.00,1.36
6027.00,1.36
6026.00,1.36
6025.00,1.36
6024.00,1.36
6023.00,1.36
6022.00,1.36
6021.00,1.36
6020.00,1.36
6019.00,1.36
6018.00,1.36
6017.00,1.36
6016.00,1.36
6015.00,1.36
6014.00,1.36
6013.00,1.36
6012.00,1.36
6011.00,1.36
6010.00,1.36
6009.00,1.36
6008.00,1.36
6007.00,1.36
6006.00,1.35
6005.00,1.35
6004.00,1.35
6003.00,1.35
6002.00,1.35
6001.00,1.35
6000.00,1.35
5999.00,1.35
5998.00,1.35
5997.00,1.35
5996.00,1.35
5995.00,1.35
5994.00,1.35
5993.00,1.34
5992.00,1.34
5991.00,1.34
5990.00,1.34
5989.00,1.33
5988.00,1.33
5987.00,1.33
5986.00,1.33
5985.00,1.32
5984.00,1.32
5983.00,1.31
5982.00,1.31
5981.00,1.31
5980.00,1.30
5979.00,1.30
5978.00,1.29
5977.00,1.29
5976.00,1.28
5975.00,1.27
5974.00,1.27
5973.00,1.26
5972.00,1.25
5971.00,1.25
5970.00,1.24
5969.00,1.23
5968.00,1.22
5967.00,1.21
5966.00,1.20
5965.00,1.20
5964.00,1.19
5963.00,1.18
5962.00,1.17
5961.00,1.16
5960.00,1.15
5959.00,1.14
5958.00,1.13
5957.00,1.12
5956.00,1.11
5955.00,1.10
5954.00,1.09
5953.00,1.08
5952.00,1.08
5951.00,1.07
5950.00,1.06
5949.00,1.05
5948.00,1.05
5947.00,1.04
5946.00,1.04
5945.00,1.03
5944.00,1.03
5943.00,1.03
5942.00,1.02
5941.00,1.02
5940.00,1.02
5939.00,1.02
5938.00,1.02
5937.00,1.01
5936.00,1.01
5935.00,1.01
5934.00,1.01
5933.00,1.01
5932.00,1.01
5931.00,1.01
5930.00,1.01
5929.00,1.01
5928.00,1.01
5927.00,1.01
5926.00,1.01
5925.00,1.00
5924.00,1.00
5923.00,1.00
5922.00,1.00
5921.00,1.00
5920.00,0.99
5919.00,0.99
5918.00,0.99
5917.00,0.99
5916.00,0.98
5915.00,0.98
5914.00,0.98
5913.00,0.98
5912.00,0.98
5911.00,0.97
5910.00,0.97
5909.00,0.97
5908.00,0.97
5907.00,0.96
5906.00,0.96
5905.00,0.96
5904.00,0.96
5903.00,0.96
5902.00,0.96
5901.00,0.96
5900.00,0.96
5899.00,0.96
5898.00,0.96
5897.00,0.96
5896.00,0.96
5895.00,0.96
5894.00,0.96
5893.00,0.96
5892.00,0.96
5891.00,0.96
5890.00,0.97
5889.00,0.97
5888.00,0.97
5887.00,0.98
5886.00,0.98
5885.00,0.98
5884.00,0.99
5883.00,0.99
5882.00,0.99
5881.00,0.99
5880.00,1.00
5879.00,1.00
5878.00,1.00
5877.00,1.01
5876.00,1.01
5875.00,1.01
5874.00,1.02
5873.00,1.02
5872.00,1.02
5871.00,1.02
5870.00,1.03
5869.00,1.03
5868.00,1.03
5867.00,1.03
5866.00,1.03
5865.00,1.04
5864.00,1.04
5863.00,1.04
5862.00,1.04
5861.00,1.05
5860.00,1.05
5859.00,1.05
5858.00,1.05
5857.00,1.05
5856.00,1.05
5855.00,1.06
5854.00,1.06
5853.00,1.06
5852.00,1.06
5851.00,1.06
5850.00,1.06
5849.00,1.06
5848.00,1.06
5847.00,1.06
5846.00,1.06
5845.00,1.06
5844.00,1.07
5843.00,1.07
5842.00,1.07
5841.00,1.07
5840.00,1.07
5839.00,1.07
5838.00,1.07
5837.00,1.07
5836.00,1.07
5835.00,1.07
5834.00,1.06
5833.00,1.06
5832.00,1.06
5831.00,1.06
5830.00,1.06
5829.00,1.06
5828.00,1.06
5827.00,1.06
5826.00,1.07
5825.00,1.07
5824.00,1.07
5823.00,1.07
5822.00,1.07
5821.00,1.07
5820.00,1.07
5819.00,1.07
5818.00,1.07
5817.00,1.07
5816.00,1.07
5815.00,1.07
5814.00,1.07
5813.00,1.07
5812.00,1.08
5811.00,1.08
5810.00,1.08
5809.00,1.08
5808.00,1.08
5807.00,1.07
5806.00,1.07
5805.00,1.07
5804.00,1.07
5803.00,1.07
5802.00,1.07
5801.00,1.07
5800.00,1.07
5799.00,1.06
5798.00,1.06
5797.00,1.06
5796.00,1.06
5795.00,1.06
5794.00,1.05
5793.00,1.05
5792.00,1.05
5791.00,1.05
5790.00,1.05
5789.00,1.04
5788.00,1.04
5787.00,1.04
5786.00,1.04
5785.00,1.04
5784.00,1.03
5783.00,1.03
5782.00,1.03
5781.00,1.03
5780.00,1.03
5779.00,1.02
5778.00,1.02
5777.00,1.02
5776.00,1.02
5775.00,1.02
5774.00,1.02
5773.00,1.02
5772.00,1.01
5771.00,1.01
5770.00,1.01
5769.00,1.02
5768.00,1.02
5767.00,1.02
5766.00,1.02
5765.00,1.02
5764.00,1.02
5763.00,1.03
5762.00,1.03
5761.00,1.03
5760.00,1.04
5759.00,1.04
5758.00,1.04
5757.00,1.05
5756.00,1.05
5755.00,1.06
5754.00,1.06
5753.00,1.06
5752.00,1.07
5751.00,1.07
5750.00,1.08
5749.00,1.08
5748.00,1.09
5747.00,1.09
5746.00,1.09
5745.00,1.10
5744.00,1.10
5743.00,1.11
5742.00,1.11
5741.00,1.12
5740.00,1.12
5739.00,1.12
5738.00,1.13
5737.00,1.13
5736.00,1.13
5735.00,1.13
5734.00,1.14
5733.00,1.14
5732.00,1.14
5731.00,1.14
5730.00,1.14
5729.00,1.15
5728.00,1.15
5727.00,1.15
5726.00,1.15
5725.00,1.15
5724.00,1.15
5723.00,1.15
5722.00,1.15
5721.00,1.15
5720.00,1.15
5719.00,1.15
5718.00,1.15
5717.00,1.15
5716.00,1.15
5715.00,1.15
5714.00,1.15
5713.00,1.15
5712.00,1.15
5711.00,1.15
5710.00,1.15
5709.00,1.15
5708.00,1.15
5707.00,1.15
5706.00,1.15
5705.00,1.15
5704.00,1.15
5703.00,1.15
5702.00,1.15
5701.00,1.15
5700.00,1.15
5699.00,1.14
5698.00,1.14
5697.00,1.14
5696.00,1.14
5695.00,1.14
5694.00,1.14
5693.00,1.13
5692.00,1.13
5691.00,1.13
5690.00,1.13
5689.00,1.13
5688.00,1.12
5687.00,1.12
5686.00,1.12
5685.00,1.12
5684.00,1.12
5683.00,1.11
5682.00,1.11
5681.00,1.11
5680.00,1.11
5679.00,1.11
5678.00,1.11
5677.00,1.11
5676.00,1.11
5675.00,1.11
5674.00,1.11
5673.00,1.11
5672.00,1.11
5671.00,1.11
5670.00,1.11
5669.00,1.11
5668.00,1.11
5667.00,1.12
5666.00,1.12
5665.00,1.12
5664.00,1.12
5663.00,1.12
5662.00,1.12
5661.00,1.13
5660.00,1.13
5659.00,1.13
5658.00,1.13
5657.00,1.14
5656.00,1.14
5655.00,1.14
5654.00,1.14
5653.00,1.14
5652.00,1.15
5651.00,1.15
5650.00,1.15
5649.00,1.16
5648.00,1.16
5647.00,1.16
5646.00,1.16
5645.00,1.17
5644.00,1.17
5643.00,1.17
5642.00,1.17
5641.00,1.18
5640.00,1.18
5639.00,1.18
5638.00,1.18
5637.00,1.19
5636.00,1.19
5635.00,1.19
5634.00,1.19
5633.00,1.20
5632.00,1.20
5631.00,1.20
5630.00,1.20
5629.00,1.21
5628.00,1.21
5627.00,1.21
5626.00,1.21
5625.00,1.22
5624.00,1.22
5623.00,1.22
5622.00,1.22
5621.00,1.23
5620.00,1.23
5619.00,1.23
5618.00,1.23
5617.00,1.23
5616.00,1.24
5615.00,1.24
5614.00,1.24
5613.00,1.24
5612.00,1.24
5611.00,1.25
5610.00,1.25
5609.00,1.25
5608.00,1.25
5607.00,1.25
5606.00,1.26
5605.00,1.26
5604.00,1.26
5603.00,1.26
5602.00,1.27
5601.00,1.27
5600.00,1.27
5599.00,1.28
5598.00,1.28
5597.00,1.28
5596.00,1.28
5595.00,1.29
5594.00,1.29
5593.00,1.29
5592.00,1.29
5591.00,1.30
5590.00,1.30
5589.00,1.30
5588.00,1.30
5587.00,1.31
5586.00,1.31
5585.00,1.31
5584.00,1.31
5583.00,1.32
5582.00,1.32
5581.00,1.32
5580.00,1.32
5579.00,1.32
5578.00,1.33
5577.00,1.33
5576.00,1.33
5575.00,1.33
5574.00,1.33
5573.00,1.34
5572.00,1.34
5571.00,1.34
5570.00,1.34
5569.00,1.34
5568.00,1.34
5567.00,1.35
5566.00,1.35
5565.00,1.35
5564.00,1.35
5563.00,1.35
5562.00,1.36
5561.00,1.36
5560.00,1.36
5559.00,1.36
5558.00,1.36
5557.00,1.37
5556.00,1.37
5555.00,1.37
5554.00,1.37
5553.00,1.37
5552.00,1.37
5551.00,1.38
5550.00,1.38
5549.00,1.38
5548.00,1.38
5547.00,1.38
5546.00,1.38
5545.00,1.38
5544.00,1.39
5543.00,1.39
5542.00,1.39
5541.00,1.39
5540.00,1.39
5539.00,1.40
5538.00,1.40
5537.00,1.40
5536.00,1.40
5535.00,1.40
5534.00,1.40
5533.00,1.40
5532.00,1.41
5531.00,1.41
5530.00,1.41
5529.00,1.41
5528.00,1.41
5527.00,1.41
5526.00,1.41
5525.00,1.41
5524.00,1.41
5523.00,1.41
5522.00,1.42
5521.00,1.42
5520.00,1.42
5519.00,1.42
5518.00,1.42
5517.00,1.42
5516.00,1.42
5515.00,1.42
5514.00,1.42
5513.00,1.43
5512.00,1.43
5511.00,1.43
5510.00,1.43
5509.00,1.43
5508.00,1.43
5507.00,1.43
5506.00,1.43
5505.00,1.44
5504.00,1.44
5503.00,1.44
5502.00,1.44
5501.00,1.44
5500.00,1.44
5499.00,1.44
5498.00,1.44
5497.00,1.44
5496.00,1.44
5495.00,1.44
5494.00,1.44
5493.00,1.44
5492.00,1.44
5491.00,1.44
5490.00,1.44
5489.00,1.44
5488.00,1.44
5487.00,1.45
5486.00,1.45
5485.00,1.45
5484.00,1.45
5483.00,1.45
5482.00,1.46
5481.00,1.46
5480.00,1.46
5479.00,1.46
5478.00,1.46
5477.00,1.47
5476.00,1.47
5475.00,1.47
5474.00,1.47
5473.00,1.48
5472.00,1.48
5471.00,1.48
5470.00,1.48
5469.00,1.48
5468.00,1.49
5467.00,1.49
5466.00,1.49
5465.00,1.49
5464.00,1.49
5463.00,1.50
5462.00,1.50
5461.00,1.50
5460.00,1.50
5459.00,1.50
5458.00,1.50
5457.00,1.50
5456.00,1.51
5455.00,1.51
5454.00,1.51
5453.00,1.51
5452.00,1.51
5451.00,1.51
5450.00,1.51
5449.00,1.51
5448.00,1.51
5447.00,1.51
5446.00,1.51
5445.00,1.51
5444.00,1.51
5443.00,1.51
5442.00,1.51
5441.00,1.51
5440.00,1.51
5439.00,1.51
5438.00,1.51
5437.00,1.51
5436.00,1.51
5435.00,1.52
5434.00,1.52
5433.00,1.52
5432.00,1.52
5431.00,1.52
5430.00,1.52
5429.00,1.52
5428.00,1.52
5427.00,1.52
5426.00,1.52
5425.00,1.52
5424.00,1.52
5423.00,1.52
5422.00,1.52
5421.00,1.52
5420.00,1.52
5419.00,1.52
5418.00,1.52
5417.00,1.52
5416.00,1.52
5415.00,1.52
5414.00,1.52
5413.00,1.52
5412.00,1.52
5411.00,1.52
5410.00,1.52
5409.00,1.52
5408.00,1.52
5407.00,1.52
5406.00,1.52
5405.00,1.52
5404.00,1.52
5403.00,1.52
5402.00,1.52
5401.00,1.52
5400.00,1.52
5399.00,1.52
5398.00,1.52
5397.00,1.52
5396.00,1.51
5395.00,1.51
5394.00,1.51
5393.00,1.51
5392.00,1.51
5391.00,1.50
5390.00,1.50
5389.00,1.50
5388.00,1.49
5387.00,1.49
5386.00,1.49
5385.00,1.48
5384.00,1.48
5383.00,1.48
5382.00,1.47
5381.00,1.47
5380.00,1.46
5379.00,1.46
5378.00,1.46
5377.00,1.45
5376.00,1.45
5375.00,1.44
5374.00,1.44
5373.00,1.43
5372.00,1.43
5371.00,1.42
5370.00,1.41
5369.00,1.41
5368.00,1.40
5367.00,1.40
5366.00,1.39
5365.00,1.38
5364.00,1.37
5363.00,1.37
5362.00,1.36
5361.00,1.35
5360.00,1.34
5359.00,1.33
5358.00,1.32
5357.00,1.31
5356.00,1.30
5355.00,1.29
5354.00,1.28
5353.00,1.27
5352.00,1.26
5351.00,1.25
5350.00,1.24
5349.00,1.23
5348.00,1.22
5347.00,1.21
5346.00,1.20
5345.00,1.19
5344.00,1.18
5343.00,1.16
5342.00,1.15
5341.00,1.14
5340.00,1.13
5339.00,1.12
5338.00,1.11
5337.00,1.10
5336.00,1.09
5335.00,1.08
5334.00,1.07
5333.00,1.06
5332.00,1.05
5331.00,1.04
5330.00,1.03
5329.00,1.02
5328.00,1.01
5327.00,1.00
5326.00,0.99
5325.00,0.99
5324.00,0.98
5323.00,0.97
5322.00,0.96
5321.00,0.95
5320.00,0.95
5319.00,0.94
5318.00,0.93
5317.00,0.92
5316.00,0.92
5315.00,0.91
5314.00,0.91
5313.00,0.90
5312.00,0.89
5311.00,0.89
5310.00,0.88
5309.00,0.88
5308.00,0.87
5307.00,0.87
5306.00,0.87
5305.00,0.86
5304.00,0.86
5303.00,0.86
5302.00,0.85
5301.00,0.85
5300.00,0.85
5299.00,0.84
5298.00,0.84
5297.00,0.84
5296.00,0.84
5295.00,0.84
5294.00,0.83
5293.00,0.83
5292.00,0.83
5291.00,0.83
5290.00,0.83
5289.00,0.83
5288.00,0.83
5287.00,0.83
5286.00,0.83
5285.00,0.83
5284.00,0.83
5283.00,0.82
5282.00,0.82
5281.00,0.82
5280.00,0.82
5279.00,0.82
5278.00,0.82
5277.00,0.82
5276.00,0.82
5275.00,0.82
5274.00,0.82
5273.00,0.82
5272.00,0.82
5271.00,0.82
5270.00,0.82
5269.00,0.82
5268.00,0.82
5267.00,0.82
5266.00,0.81
5265.00,0.81
5264.00,0.81
5263.00,0.81
5262.00,0.81
5261.00,0.81
5260.00,0.81
5259.00,0.81
5258.00,0.81
5257.00,0.81
5256.00,0.81
5255.00,0.82
5254.00,0.82
5253.00,0.82
5252.00,0.82
5251.00,0.82
5250.00,0.82
5249.00,0.82
5248.00,0.82
5247.00,0.82
5246.00,0.82
5245.00,0.82
5244.00,0.82
5243.00,0.82
5242.00,0.82
5241.00,0.82
5240.00,0.82
5239.00,0.82
5238.00,0.82
5237.00,0.82
5236.00,0.82
5235.00,0.82
5234.00,0.82
5233.00,0.82
5232.00,0.82
5231.00,0.82
5230.00,0.82
5229.00,0.82
5228.00,0.82
5227.00,0.83
5226.00,0.83
5225.00,0.83
5224.00,0.83
5223.00,0.83
5222.00,0.83
5221.00,0.83
5220.00,0.83
5219.00,0.83
5218.00,0.83
5217.00,0.83
5216.00,0.83
5215.00,0.83
5214.00,0.83
5213.00,0.83
5212.00,0.84
5211.00,0.84
5210.00,0.84
5209.00,0.84
5208.00,0.84
5207.00,0.84
5206.00,0.84
5205.00,0.84
5204.00,0.84
5203.00,0.84
5202.00,0.84
5201.00,0.84
5200.00,0.84
5199.00,0.84
5198.00,0.84
5197.00,0.84
5196.00,0.83
5195.00,0.83
5194.00,0.83
5193.00,0.83
5192.00,0.83
5191.00,0.84
5190.00,0.84
5189.00,0.84
5188.00,0.84
5187.00,0.84
5186.00,0.84
5185.00,0.84
5184.00,0.84
5183.00,0.84
5182.00,0.84
5181.00,0.84
5180.00,0.84
5179.00,0.84
5178.00,0.84
5177.00,0.84
5176.00,0.84
5175.00,0.85
5174.00,0.85
5173.00,0.85
5172.00,0.85
5171.00,0.85
5170.00,0.85
5169.00,0.85
5168.00,0.85
5167.00,0.85
5166.00,0.85
5165.00,0.85
5164.00,0.85
5163.00,0.86
5162.00,0.86
5161.00,0.86
5160.00,0.86
5159.00,0.86
5158.00,0.86
5157.00,0.86
5156.00,0.86
5155.00,0.87
5154.00,0.87
5153.00,0.87
5152.00,0.87
5151.00,0.87
5150.00,0.87
5149.00,0.87
5148.00,0.88
5147.00,0.88
5146.00,0.88
5145.00,0.88
5144.00,0.88
5143.00,0.88
5142.00,0.88
5141.00,0.88
5140.00,0.88
5139.00,0.88
5138.00,0.88
5137.00,0.88
5136.00,0.88
5135.00,0.88
5134.00,0.88
5133.00,0.88
5132.00,0.88
5131.00,0.88
5130.00,0.88
5129.00,0.88
5128.00,0.88
5127.00,0.88
5126.00,0.87
5125.00,0.87
5124.00,0.87
5123.00,0.87
5122.00,0.87
5121.00,0.87
5120.00,0.87
5119.00,0.87
5118.00,0.87
5117.00,0.87
5116.00,0.88
5115.00,0.88
5114.00,0.88
5113.00,0.88
5112.00,0.88
5111.00,0.88
5110.00,0.88
5109.00,0.88
5108.00,0.88
5107.00,0.88
5106.00,0.88
5105.00,0.88
5104.00,0.89
5103.00,0.89
5102.00,0.89
5101.00,0.89
5100.00,0.89
5099.00,0.89
5098.00,0.89
5097.00,0.89
5096.00,0.89
5095.00,0.89
5094.00,0.89
5093.00,0.89
5092.00,0.89
5091.00,0.89
5090.00,0.89
5089.00,0.89
5088.00,0.89
5087.00,0.89
5086.00,0.90
5085.00,0.90
5084.00,0.90
5083.00,0.90
5082.00,0.90
5081.00,0.90
5080.00,0.90
5079.00,0.90
5078.00,0.90
5077.00,0.90
5076.00,0.90
5075.00,0.90
5074.00,0.90
5073.00,0.90
5072.00,0.90
5071.00,0.90
5070.00,0.90
5069.00,0.90
5068.00,0.90
5067.00,0.90
5066.00,0.90
5065.00,0.90
5064.00,0.91
5063.00,0.91
5062.00,0.91
5061.00,0.91
5060.00,0.91
5059.00,0.91
5058.00,0.91
5057.00,0.91
5056.00,0.91
5055.00,0.91
5054.00,0.91
5053.00,0.91
5052.00,0.91
5051.00,0.91
5050.00,0.91
5049.00,0.91
5048.00,0.92
5047.00,0.92
5046.00,0.92
5045.00,0.92
5044.00,0.92
5043.00,0.92
5042.00,0.92
5041.00,0.92
5040.00,0.92
5039.00,0.92
5038.00,0.92
5037.00,0.92
5036.00,0.92
5035.00,0.92
5034.00,0.92
5033.00,0.92
5032.00,0.92
5031.00,0.92
5030.00,0.92
5029.00,0.92
5028.00,0.92
5027.00,0.92
5026.00,0.92
5025.00,0.93
5024.00,0.93
5023.00,0.93
5022.00,0.93
5021.00,0.93
5020.00,0.93
5019.00,0.93
5018.00,0.93
5017.00,0.93
5016.00,0.93
5015.00,0.93
5014.00,0.93
5013.00,0.93
5012.00,0.93
5011.00,0.93
5010.00,0.93
5009.00,0.93
5008.00,0.93
5007.00,0.93
5006.00,0.94
5005.00,0.94
5004.00,0.94
5003.00,0.94
5002.00,0.94
5001.00,0.94
5000.00,0.94
4999.00,0.94
4998.00,0.94
4997.00,0.94
4996.00,0.94
4995.00,0.94
4994.00,0.94
4993.00,0.94
4992.00,0.95
4991.00,0.95
4990.00,0.95
4989.00,0.95
4988.00,0.95
4987.00,0.95
4986.00,0.95
4985.00,0.95
4984.00,0.95
4983.00,0.95
4982.00,0.95
4981.00,0.95
4980.00,0.95
4979.00,0.95
4978.00,0.95
4977.00,0.95
4976.00,0.95
4975.00,0.95
4974.00,0.95
4973.00,0.95
4972.00,0.95
4971.00,0.95
4970.00,0.95
4969.00,0.95
4968.00,0.95
4967.00,0.95
4966.00,0.95
4965.00,0.95
4964.00,0.95
4963.00,0.95
4962.00,0.95
4961.00,0.96
4960.00,0.96
4959.00,0.96
4958.00,0.96
4957.00,0.96
4956.00,0.96
4955.00,0.97
4954.00,0.97
4953.00,0.97
4952.00,0.97
4951.00,0.97
4950.00,0.98
4949.00,0.98
4948.00,0.98
4947.00,0.98
4946.00,0.98
4945.00,0.98
4944.00,0.99
4943.00,0.99
4942.00,0.99
4941.00,0.99
4940.00,0.99
4939.00,0.99
4938.00,0.99
4937.00,0.99
4936.00,0.99
4935.00,0.99
4934.00,0.99
4933.00,0.99
4932.00,0.99
4931.00,0.99
4930.00,0.99
4929.00,0.99
4928.00,0.99
4927.00,0.99
4926.00,0.99
4925.00,0.99
4924.00,0.99
4923.00,0.99
4922.00,0.99
4921.00,0.99
4920.00,0.99
4919.00,0.99
4918.00,0.99
4917.00,0.99
4916.00,0.99
4915.00,0.99
4914.00,0.99
4913.00,0.99
4912.00,0.99
4911.00,0.99
4910.00,0.99
4909.00,0.99
4908.00,0.99
4907.00,1.00
4906.00,1.00
4905.00,1.00
4904.00,1.00
4903.00,1.00
4902.00,1.00
4901.00,1.00
4900.00,1.00
4899.00,1.00
4898.00,1.00
4897.00,1.00
4896.00,1.00
4895.00,1.00
4894.00,1.00
4893.00,1.00
4892.00,1.00
4891.00,1.00
4890.00,1.00
4889.00,1.00
4888.00,1.00
4887.00,1.00
4886.00,1.00
4885.00,1.00
4884.00,1.00
4883.00,1.00
4882.00,1.00
4881.00,1.00
4880.00,1.00
4879.00,1.01
4878.00,1.01
4877.00,1.01
4876.00,1.01
4875.00,1.01
4874.00,1.01
4873.00,1.01
4872.00,1.01
4871.00,1.01
4870.00,1.01
4869.00,1.01
4868.00,1.01
4867.00,1.01
4866.00,1.01
4865.00,1.01
4864.00,1.01
4863.00,1.01
4862.00,1.01
4861.00,1.01
4860.00,1.01
4859.00,1.02
4858.00,1.02
4857.00,1.02
4856.00,1.02
4855.00,1.02
4854.00,1.02
4853.00,1.02
4852.00,1.02
4851.00,1.02
4850.00,1.02
4849.00,1.02
4848.00,1.02
4847.00,1.02
4846.00,1.03
4845.00,1.03
4844.00,1.03
4843.00,1.03
4842.00,1.03
4841.00,1.03
4840.00,1.03
4839.00,1.03
4838.00,1.03
4837.00,1.03
4836.00,1.04
4835.00,1.04
4834.00,1.04
4833.00,1.04
4832.00,1.04
4831.00,1.04
4830.00,1.04
4829.00,1.04
4828.00,1.04
4827.00,1.05
4826.00,1.05
4825.00,1.05
4824.00,1.05
4823.00,1.05
4822.00,1.05
4821.00,1.05
4820.00,1.05
4819.00,1.05
4818.00,1.05
4817.00,1.05
4816.00,1.05
4815.00,1.05
4814.00,1.05
4813.00,1.05
4812.00,1.05
4811.00,1.05
4810.00,1.05
4809.00,1.05
4808.00,1.05
4807.00,1.05
4806.00,1.05
4805.00,1.05
4804.00,1.05
4803.00,1.05
4802.00,1.05
4801.00,1.06
4800.00,1.06
4799.00,1.06
4798.00,1.06
4797.00,1.06
4796.00,1.06
4795.00,1.06
4794.00,1.06
4793.00,1.06
4792.00,1.06
4791.00,1.07
4790.00,1.07
4789.00,1.07
4788.00,1.07
4787.00,1.07
4786.00,1.07
4785.00,1.07
4784.00,1.07
4783.00,1.07
4782.00,1.07
4781.00,1.07
4780.00,1.07
4779.00,1.07
4778.00,1.07
4777.00,1.07
4776.00,1.07
4775.00,1.07
4774.00,1.07
4773.00,1.07
4772.00,1.07
4771.00,1.07
4770.00,1.07
4769.00,1.07
4768.00,1.07
4767.00,1.07
4766.00,1.08
4765.00,1.08
4764.00,1.08
4763.00,1.08
4762.00,1.08
4761.00,1.08
4760.00,1.08
4759.00,1.08
4758.00,1.08
4757.00,1.08
4756.00,1.08
4755.00,1.09
4754.00,1.09
4753.00,1.09
4752.00,1.09
4751.00,1.09
4750.00,1.09
4749.00,1.10
4748.00,1.10
4747.00,1.10
4746.00,1.10
4745.00,1.10
4744.00,1.10
4743.00,1.10
4742.00,1.11
4741.00,1.11
4740.00,1.11
4739.00,1.11
4738.00,1.11
4737.00,1.11
4736.00,1.11
4735.00,1.11
4734.00,1.11
4733.00,1.11
4732.00,1.11
4731.00,1.11
4730.00,1.11
4729.00,1.11
4728.00,1.11
4727.00,1.11
4726.00,1.11
4725.00,1.12
4724.00,1.12
4723.00,1.12
4722.00,1.12
4721.00,1.12
4720.00,1.12
4719.00,1.12
4718.00,1.12
4717.00,1.13
4716.00,1.13
4715.00,1.13
4714.00,1.13
4713.00,1.13
4712.00,1.13
4711.00,1.13
4710.00,1.14
4709.00,1.14
4708.00,1.14
4707.00,1.14
4706.00,1.14
4705.00,1.14
4704.00,1.14
4703.00,1.14
4702.00,1.14
4701.00,1.15
4700.00,1.15
4699.00,1.15
4698.00,1.15
4697.00,1.15
4696.00,1.15
4695.00,1.15
4694.00,1.15
4693.00,1.15
4692.00,1.15
4691.00,1.15
4690.00,1.16
4689.00,1.16
4688.00,1.16
4687.00,1.16
4686.00,1.16
4685.00,1.16
4684.00,1.16
4683.00,1.16
4682.00,1.16
4681.00,1.16
4680.00,1.16
4679.00,1.17
4678.00,1.17
4677.00,1.17
4676.00,1.17
4675.00,1.17
4674.00,1.17
4673.00,1.17
4672.00,1.17
4671.00,1.17
4670.00,1.17
4669.00,1.17
4668.00,1.17
4667.00,1.17
4666.00,1.17
4665.00,1.17
4664.00,1.18
4663.00,1.18
4662.00,1.18
4661.00,1.18
4660.00,1.18
4659.00,1.18
4658.00,1.19
4657.00,1.19
4656.00,1.19
4655.00,1.19
4654.00,1.19
4653.00,1.19
4652.00,1.20
4651.00,1.20
4650.00,1.20
4649.00,1.20
4648.00,1.20
4647.00,1.20
4646.00,1.20
4645.00,1.20
4644.00,1.20
4643.00,1.20
4642.00,1.20
4641.00,1.20
4640.00,1.20
4639.00,1.21
4638.00,1.21
4637.00,1.21
4636.00,1.21
4635.00,1.21
4634.00,1.21
4633.00,1.21
4632.00,1.21
4631.00,1.21
4630.00,1.22
4629.00,1.22
4628.00,1.22
4627.00,1.22
4626.00,1.22
4625.00,1.22
4624.00,1.22
4623.00,1.22
4622.00,1.22
4621.00,1.23
4620.00,1.23
4619.00,1.23
4618.00,1.23
4617.00,1.23
4616.00,1.23
4615.00,1.23
4614.00,1.23
4613.00,1.23
4612.00,1.23
4611.00,1.23
4610.00,1.23
4609.00,1.23
4608.00,1.23
4607.00,1.23
4606.00,1.23
4605.00,1.23
4604.00,1.23
4603.00,1.23
4602.00,1.23
4601.00,1.23
4600.00,1.23
4599.00,1.24
4598.00,1.24
4597.00,1.24
4596.00,1.24
4595.00,1.24
4594.00,1.24
4593.00,1.24
4592.00,1.24
4591.00,1.24
4590.00,1.24
4589.00,1.24
4588.00,1.24
4587.00,1.24
4586.00,1.24
4585.00,1.24
4584.00,1.24
4583.00,1.24
4582.00,1.24
4581.00,1.24
4580.00,1.24
4579.00,1.25
4578.00,1.25
4577.00,1.25
4576.00,1.25
4575.00,1.25
4574.00,1.25
4573.00,1.25
4572.00,1.25
4571.00,1.25
4570.00,1.25
4569.00,1.26
4568.00,1.26
4567.00,1.26
4566.00,1.26
4565.00,1.26
4564.00,1.26
4563.00,1.27
4562.00,1.27
4561.00,1.27
4560.00,1.27
4559.00,1.27
4558.00,1.27
4557.00,1.27
4556.00,1.27
4555.00,1.27
4554.00,1.28
4553.00,1.28
4552.00,1.28
4551.00,1.28
4550.00,1.28
4549.00,1.28
4548.00,1.28
4547.00,1.28
4546.00,1.28
4545.00,1.28
4544.00,1.28
4543.00,1.28
4542.00,1.28
4541.00,1.28
4540.00,1.28
4539.00,1.28
4538.00,1.28
4537.00,1.28
4536.00,1.28
4535.00,1.28
4534.00,1.28
4533.00,1.28
4532.00,1.28
4531.00,1.28
4530.00,1.28
4529.00,1.28
4528.00,1.28
4527.00,1.28
4526.00,1.28
4525.00,1.28
4524.00,1.28
4523.00,1.29
4522.00,1.29
4521.00,1.29
4520.00,1.29
4519.00,1.29
4518.00,1.29
4517.00,1.29
4516.00,1.29
4515.00,1.29
4514.00,1.29
4513.00,1.29
4512.00,1.29
4511.00,1.28
4510.00,1.28
4509.00,1.28
4508.00,1.28
4507.00,1.28
4506.00,1.28
4505.00,1.28
4504.00,1.28
4503.00,1.28
4502.00,1.29
4501.00,1.29
4500.00,1.29
4499.00,1.29
4498.00,1.29
4497.00,1.29
4496.00,1.29
4495.00,1.29
4494.00,1.29
4493.00,1.29
4492.00,1.29
4491.00,1.29
4490.00,1.29
4489.00,1.29
4488.00,1.28
4487.00,1.28
4486.00,1.28
4485.00,1.28
4484.00,1.28
4483.00,1.28
4482.00,1.28
4481.00,1.28
4480.00,1.27
4479.00,1.27
4478.00,1.27
4477.00,1.27
4476.00,1.27
4475.00,1.27
4474.00,1.27
4473.00,1.27
4472.00,1.27
4471.00,1.27
4470.00,1.27
4469.00,1.26
4468.00,1.26
4467.00,1.26
4466.00,1.26
4465.00,1.26
4464.00,1.26
4463.00,1.26
4462.00,1.26
4461.00,1.26
4460.00,1.26
4459.00,1.26
4458.00,1.26
4457.00,1.26
4456.00,1.26
4455.00,1.26
4454.00,1.25
4453.00,1.25
4452.00,1.25
4451.00,1.25
4450.00,1.25
4449.00,1.24
4448.00,1.24
4447.00,1.24
4446.00,1.24
4445.00,1.24
4444.00,1.24
4443.00,1.23
4442.00,1.23
4441.00,1.23
4440.00,1.23
4439.00,1.23
4438.00,1.23
4437.00,1.23
4436.00,1.23
4435.00,1.23
4434.00,1.23
4433.00,1.23
4432.00,1.23
4431.00,1.23
4430.00,1.23
4429.00,1.23
4428.00,1.23
4427.00,1.23
4426.00,1.23
4425.00,1.23
4424.00,1.23
4423.00,1.23
4422.00,1.23
4421.00,1.23
4420.00,1.23
4419.00,1.23
4418.00,1.23
4417.00,1.23
4416.00,1.23
4415.00,1.23
4414.00,1.23
4413.00,1.23
4412.00,1.23
4411.00,1.23
4410.00,1.23
4409.00,1.23
4408.00,1.23
4407.00,1.23
4406.00,1.24
4405.00,1.24
4404.00,1.24
4403.00,1.24
4402.00,1.24
4401.00,1.24
4400.00,1.24
4399.00,1.24
4398.00,1.24
4397.00,1.24
4396.00,1.24
4395.00,1.24
4394.00,1.24
4393.00,1.24
4392.00,1.24
4391.00,1.24
4390.00,1.24
4389.00,1.24
4388.00,1.24
4387.00,1.24
4386.00,1.24
4385.00,1.24
4384.00,1.24
4383.00,1.25
4382.00,1.25
4381.00,1.25
4380.00,1.25
4379.00,1.25
4378.00,1.25
4377.00,1.25
4376.00,1.25
4375.00,1.26
4374.00,1.26
4373.00,1.26
4372.00,1.26
4371.00,1.26
4370.00,1.26
4369.00,1.26
4368.00,1.27
4367.00,1.27
4366.00,1.27
4365.00,1.27
4364.00,1.27
4363.00,1.27
4362.00,1.27
4361.00,1.27
4360.00,1.27
4359.00,1.28
4358.00,1.28
4357.00,1.28
4356.00,1.28
4355.00,1.28
4354.00,1.28
4353.00,1.28
4352.00,1.28
4351.00,1.28
4350.00,1.28
4349.00,1.28
4348.00,1.28
4347.00,1.27
4346.00,1.27
4345.00,1.27
4344.00,1.27
4343.00,1.27
4342.00,1.27
4341.00,1.27
4340.00,1.27
4339.00,1.27
4338.00,1.27
4337.00,1.27
4336.00,1.27
4335.00,1.27
4334.00,1.28
4333.00,1.28
4332.00,1.28
4331.00,1.28
4330.00,1.28
4329.00,1.28
4328.00,1.29
4327.00,1.29
4326.00,1.29
4325.00,1.29
4324.00,1.29
4323.00,1.29
4322.00,1.29
4321.00,1.30
4320.00,1.30
4319.00,1.30
4318.00,1.30
4317.00,1.30
4316.00,1.30
4315.00,1.30
4314.00,1.30
4313.00,1.30
4312.00,1.30
4311.00,1.30
4310.00,1.31
4309.00,1.31
4308.00,1.31
4307.00,1.31
4306.00,1.31
4305.00,1.31
4304.00,1.31
4303.00,1.31
4302.00,1.32
4301.00,1.32
4300.00,1.32
4299.00,1.32
4298.00,1.32
4297.00,1.32
4296.00,1.32
4295.00,1.32
4294.00,1.32
4293.00,1.32
4292.00,1.32
4291.00,1.32
4290.00,1.32
4289.00,1.32
4288.00,1.33
4287.00,1.33
4286.00,1.33
4285.00,1.33
4284.00,1.33
4283.00,1.33
4282.00,1.33
4281.00,1.33
4280.00,1.33
4279.00,1.34
4278.00,1.34
4277.00,1.34
4276.00,1.34
4275.00,1.34
4274.00,1.34
4273.00,1.34
4272.00,1.34
4271.00,1.34
4270.00,1.35
4269.00,1.35
4268.00,1.35
4267.00,1.35
4266.00,1.35
4265.00,1.35
4264.00,1.35
4263.00,1.35
4262.00,1.35
4261.00,1.35
4260.00,1.35
4259.00,1.35
4258.00,1.35
4257.00,1.35
4256.00,1.35
4255.00,1.35
4254.00,1.35
4253.00,1.35
4252.00,1.35
4251.00,1.35
4250.00,1.35
4249.00,1.35
4248.00,1.35
4247.00,1.35
4246.00,1.35
4245.00,1.35
4244.00,1.35
4243.00,1.36
4242.00,1.36
4241.00,1.36
4240.00,1.36
4239.00,1.36
4238.00,1.36
4237.00,1.36
4236.00,1.36
4235.00,1.36
4234.00,1.37
4233.00,1.37
4232.00,1.36
4231.00,1.36
4230.00,1.36
4229.00,1.36
4228.00,1.36
4227.00,1.36
4226.00,1.36
4225.00,1.36
4224.00,1.37
4223.00,1.37
4222.00,1.37
4221.00,1.37
4220.00,1.37
4219.00,1.37
4218.00,1.37
4217.00,1.37
4216.00,1.37
4215.00,1.37
4214.00,1.37
4213.00,1.37
4212.00,1.37
4211.00,1.38
4210.00,1.38
4209.00,1.38
4208.00,1.38
4207.00,1.38
4206.00,1.38
4205.00,1.38
4204.00,1.38
4203.00,1.38
4202.00,1.38
4201.00,1.38
4200.00,1.39
4199.00,1.39
4198.00,1.39
4197.00,1.39
4196.00,1.39
4195.00,1.39
4194.00,1.39
4193.00,1.39
4192.00,1.39
4191.00,1.39
4190.00,1.39
4189.00,1.39
4188.00,1.39
4187.00,1.39
4186.00,1.39
4185.00,1.39
4184.00,1.40
4183.00,1.40
4182.00,1.40
4181.00,1.40
4180.00,1.40
4179.00,1.40
4178.00,1.41
4177.00,1.41
4176.00,1.41
4175.00,1.41
4174.00,1.41
4173.00,1.42
4172.00,1.42
4171.00,1.42
4170.00,1.42
4169.00,1.42
4168.00,1.42
4167.00,1.42
4166.00,1.43
4165.00,1.43
4164.00,1.43
4163.00,1.43
4162.00,1.43
4161.00,1.43
4160.00,1.43
4159.00,1.43
4158.00,1.43
4157.00,1.43
4156.00,1.43
4155.00,1.42
4154.00,1.42
4153.00,1.42
4152.00,1.42
4151.00,1.42
4150.00,1.42
4149.00,1.42
4148.00,1.42
4147.00,1.42
4146.00,1.42
4145.00,1.41
4144.00,1.41
4143.00,1.41
4142.00,1.41
4141.00,1.41
4140.00,1.41
4139.00,1.41
4138.00,1.42
4137.00,1.42
4136.00,1.42
4135.00,1.42
4134.00,1.42
4133.00,1.42
4132.00,1.42
4131.00,1.42
4130.00,1.43
4129.00,1.43
4128.00,1.43
4127.00,1.43
4126.00,1.44
4125.00,1.44
4124.00,1.44
4123.00,1.44
4122.00,1.44
4121.00,1.44
4120.00,1.45
4119.00,1.45
4118.00,1.45
4117.00,1.45
4116.00,1.45
4115.00,1.45
4114.00,1.45
4113.00,1.45
4112.00,1.45
4111.00,1.45
4110.00,1.45
4109.00,1.44
4108.00,1.44
4107.00,1.44
4106.00,1.44
4105.00,1.44
4104.00,1.44
4103.00,1.44
4102.00,1.43
4101.00,1.43
4100.00,1.43
4099.00,1.43
4098.00,1.43
4097.00,1.43
4096.00,1.43
4095.00,1.43
4094.00,1.43
4093.00,1.43
4092.00,1.43
4091.00,1.43
4090.00,1.44
4089.00,1.44
4088.00,1.44
4087.00,1.44
4086.00,1.44
4085.00,1.44
4084.00,1.45
4083.00,1.45
4082.00,1.45
4081.00,1.45
4080.00,1.45
4079.00,1.45
4078.00,1.46
4077.00,1.46
4076.00,1.46
4075.00,1.46
4074.00,1.46
4073.00,1.46
4072.00,1.46
4071.00,1.46
4070.00,1.46
4069.00,1.46
4068.00,1.46
4067.00,1.47
4066.00,1.47
4065.00,1.47
4064.00,1.47
4063.00,1.47
4062.00,1.47
4061.00,1.47
4060.00,1.48
4059.00,1.48
4058.00,1.48
4057.00,1.48
4056.00,1.49
4055.00,1.49
4054.00,1.49
4053.00,1.49
4052.00,1.50
4051.00,1.50
4050.00,1.50
4049.00,1.50
4048.00,1.51
4047.00,1.51
4046.00,1.51
4045.00,1.51
4044.00,1.51
4043.00,1.51
4042.00,1.51
4041.00,1.51
4040.00,1.51
4039.00,1.51
4038.00,1.50
4037.00,1.50
4036.00,1.50
4035.00,1.50
4034.00,1.49
4033.00,1.49
4032.00,1.49
4031.00,1.49
4030.00,1.49
4029.00,1.49
4028.00,1.49
4027.00,1.49
4026.00,1.49
4025.00,1.50
4024.00,1.50
4023.00,1.50
4022.00,1.51
4021.00,1.51
4020.00,1.51
4019.00,1.52
4018.00,1.52
4017.00,1.52
4016.00,1.52
4015.00,1.52
4014.00,1.53
4013.00,1.53
4012.00,1.53
4011.00,1.53
4010.00,1.53
4009.00,1.53
4008.00,1.53
4007.00,1.52
4006.00,1.52
4005.00,1.52
4004.00,1.52
4003.00,1.52
4002.00,1.52
4001.00,1.52
4000.00,1.52
