创建为新数据集,样品 297 用户 Administrator 日期 星期日, 七月 22 2018
cm-1,%T
10000.00,1.53
9999.00,1.52
9998.00,1.52
9997.00,1.51
9996.00,1.51
9995.00,1.51
9994.00,1.50
9993.00,1.50
9992.00,1.50
9991.00,1.49
9990.00,1.49
9989.00,1.49
9988.00,1.48
9987.00,1.48
9986.00,1.48
9985.00,1.48
9984.00,1.48
9983.00,1.48
9982.00,1.47
9981.00,1.47
9980.00,1.47
9979.00,1.47
9978.00,1.47
9977.00,1.47
9976.00,1.47
9975.00,1.47
9974.00,1.47
9973.00,1.47
9972.00,1.47
9971.00,1.47
9970.00,1.47
9969.00,1.47
9968.00,1.47
9967.00,1.47
9966.00,1.47
9965.00,1.47
9964.00,1.47
9963.00,1.47
9962.00,1.47
9961.00,1.47
9960.00,1.47
9959.00,1.47
9958.00,1.47
9957.00,1.47
9956.00,1.46
9955.00,1.46
9954.00,1.46
9953.00,1.46
9952.00,1.46
9951.00,1.46
9950.00,1.46
9949.00,1.46
9948.00,1.46
9947.00,1.46
9946.00,1.46
9945.00,1.46
9944.00,1.46
9943.00,1.46
9942.00,1.46
9941.00,1.46
9940.00,1.47
9939.00,1.47
9938.00,1.47
9937.00,1.47
9936.00,1.47
9935.00,1.47
9934.00,1.47
9933.00,1.47
9932.00,1.47
9931.00,1.47
9930.00,1.47
9929.00,1.47
9928.00,1.47
9927.00,1.47
9926.00,1.47
9925.00,1.46
9924.00,1.46
9923.00,1.46
9922.00,1.46
9921.00,1.46
9920.00,1.45
9919.00,1.45
9918.00,1.45
9917.00,1.45
9916.00,1.45
9915.00,1.45
9914.00,1.45
9913.00,1.45
9912.00,1.45
9911.00,1.45
9910.00,1.45
9909.00,1.45
9908.00,1.45
9907.00,1.46
9906.00,1.46
9905.00,1.46
9904.00,1.46
9903.00,1.46
9902.00,1.46
9901.00,1.46
9900.00,1.46
9899.00,1.46
9898.00,1.46
9897.00,1.46
9896.00,1.45
9895.00,1.45
9894.00,1.45
9893.00,1.45
9892.00,1.45
9891.00,1.45
9890.00,1.45
9889.00,1.45
9888.00,1.45
9887.00,1.45
9886.00,1.45
9885.00,1.45
9884.00,1.45
9883.00,1.45
9882.00,1.45
9881.00,1.45
9880.00,1.45
9879.00,1.45
9878.00,1.45
9877.00,1.45
9876.00,1.45
9875.00,1.45
9874.00,1.44
9873.00,1.44
9872.00,1.44
9871.00,1.44
9870.00,1.44
9869.00,1.44
9868.00,1.44
9867.00,1.44
9866.00,1.44
9865.00,1.44
9864.00,1.44
9863.00,1.44
9862.00,1.44
9861.00,1.44
9860.00,1.44
9859.00,1.44
9858.00,1.44
9857.00,1.44
9856.00,1.44
9855.00,1.44
9854.00,1.44
9853.00,1.45
9852.00,1.45
9851.00,1.45
9850.00,1.45
9849.00,1.45
9848.00,1.46
9847.00,1.46
9846.00,1.46
9845.00,1.46
9844.00,1.46
9843.00,1.47
9842.00,1.47
9841.00,1.47
9840.00,1.47
9839.00,1.47
9838.00,1.47
9837.00,1.47
9836.00,1.47
9835.00,1.47
9834.00,1.47
9833.00,1.47
9832.00,1.47
9831.00,1.47
9830.00,1.46
9829.00,1.46
9828.00,1.46
9827.00,1.46
9826.00,1.45
9825.00,1.45
9824.00,1.45
9823.00,1.45
9822.00,1.45
9821.00,1.45
9820.00,1.45
9819.00,1.45
9818.00,1.45
9817.00,1.45
9816.00,1.45
9815.00,1.45
9814.00,1.45
9813.00,1.45
9812.00,1.46
9811.00,1.46
9810.00,1.46
9809.00,1.46
9808.00,1.46
9807.00,1.46
9806.00,1.46
9805.00,1.46
9804.00,1.46
9803.00,1.46
9802.00,1.46
9801.00,1.46
9800.00,1.45
9799.00,1.45
9798.00,1.45
9797.00,1.45
9796.00,1.45
9795.00,1.44
9794.00,1.44
9793.00,1.44
9792.00,1.44
9791.00,1.44
9790.00,1.44
9789.00,1.44
9788.00,1.44
9787.00,1.44
9786.00,1.44
9785.00,1.44
9784.00,1.44
9783.00,1.44
9782.00,1.44
9781.00,1.44
9780.00,1.45
9779.00,1.45
9778.00,1.45
9777.00,1.44
9776.00,1.44
9775.00,1.44
9774.00,1.44
9773.00,1.44
9772.00,1.43
9771.00,1.43
9770.00,1.43
9769.00,1.42
9768.00,1.42
9767.00,1.42
9766.00,1.41
9765.00,1.41
9764.00,1.41
9763.00,1.41
9762.00,1.40
9761.00,1.40
9760.00,1.40
9759.00,1.40
9758.00,1.40
9757.00,1.41
9756.00,1.41
9755.00,1.41
9754.00,1.41
9753.00,1.42
9752.00,1.42
9751.00,1.42
9750.00,1.42
9749.00,1.43
9748.00,1.43
9747.00,1.43
9746.00,1.43
9745.00,1.43
9744.00,1.43
9743.00,1.44
9742.00,1.44
9741.00,1.44
9740.00,1.44
9739.00,1.44
9738.00,1.44
9737.00,1.44
9736.00,1.44
9735.00,1.44
9734.00,1.44
9733.00,1.44
9732.00,1.44
9731.00,1.44
9730.00,1.44
9729.00,1.44
9728.00,1.44
9727.00,1.44
9726.00,1.44
9725.00,1.44
9724.00,1.44
9723.00,1.43
9722.00,1.43
9721.00,1.43
9720.00,1.43
9719.00,1.42
9718.00,1.42
9717.00,1.42
9716.00,1.42
9715.00,1.42
9714.00,1.42
9713.00,1.42
9712.00,1.42
9711.00,1.42
9710.00,1.42
9709.00,1.42
9708.00,1.42
9707.00,1.42
9706.00,1.43
9705.00,1.43
9704.00,1.43
9703.00,1.43
9702.00,1.43
9701.00,1.43
9700.00,1.44
9699.00,1.44
9698.00,1.44
9697.00,1.44
9696.00,1.44
9695.00,1.44
9694.00,1.45
9693.00,1.45
9692.00,1.45
9691.00,1.45
9690.00,1.45
9689.00,1.45
9688.00,1.45
9687.00,1.45
9686.00,1.45
9685.00,1.45
9684.00,1.45
9683.00,1.45
9682.00,1.45
9681.00,1.45
9680.00,1.45
9679.00,1.44
9678.00,1.44
9677.00,1.44
9676.00,1.44
9675.00,1.43
9674.00,1.43
9673.00,1.43
9672.00,1.43
9671.00,1.42
9670.00,1.42
9669.00,1.42
9668.00,1.42
9667.00,1.42
9666.00,1.42
9665.00,1.42
9664.00,1.42
9663.00,1.43
9662.00,1.43
9661.00,1.43
9660.00,1.43
9659.00,1.43
9658.00,1.44
9657.00,1.44
9656.00,1.44
9655.00,1.44
9654.00,1.45
9653.00,1.45
9652.00,1.45
9651.00,1.45
9650.00,1.45
9649.00,1.45
9648.00,1.45
9647.00,1.46
9646.00,1.46
9645.00,1.46
9644.00,1.46
9643.00,1.46
9642.00,1.46
9641.00,1.46
9640.00,1.47
9639.00,1.47
9638.00,1.47
9637.00,1.47
9636.00,1.47
9635.00,1.47
9634.00,1.47
9633.00,1.47
9632.00,1.47
9631.00,1.47
9630.00,1.47
9629.00,1.47
9628.00,1.47
9627.00,1.47
9626.00,1.47
9625.00,1.47
9624.00,1.46
9623.00,1.46
9622.00,1.46
9621.00,1.46
9620.00,1.46
9619.00,1.46
9618.00,1.45
9617.00,1.45
9616.00,1.45
9615.00,1.45
9614.00,1.45
9613.00,1.45
9612.00,1.45
9611.00,1.45
9610.00,1.45
9609.00,1.45
9608.00,1.45
9607.00,1.45
9606.00,1.45
9605.00,1.45
9604.00,1.45
9603.00,1.45
9602.00,1.45
9601.00,1.45
9600.00,1.45
9599.00,1.45
9598.00,1.45
9597.00,1.45
9596.00,1.45
9595.00,1.45
9594.00,1.45
9593.00,1.45
9592.00,1.45
9591.00,1.45
9590.00,1.45
9589.00,1.45
9588.00,1.45
9587.00,1.44
9586.00,1.44
9585.00,1.44
9584.00,1.44
9583.00,1.44
9582.00,1.44
9581.00,1.44
9580.00,1.43
9579.00,1.43
9578.00,1.43
9577.00,1.43
9576.00,1.43
9575.00,1.43
9574.00,1.43
9573.00,1.43
9572.00,1.43
9571.00,1.43
9570.00,1.43
9569.00,1.43
9568.00,1.43
9567.00,1.43
9566.00,1.44
9565.00,1.44
9564.00,1.44
9563.00,1.44
9562.00,1.44
9561.00,1.45
9560.00,1.45
9559.00,1.45
9558.00,1.45
9557.00,1.45
9556.00,1.45
9555.00,1.45
9554.00,1.46
9553.00,1.46
9552.00,1.46
9551.00,1.46
9550.00,1.45
9549.00,1.45
9548.00,1.45
9547.00,1.45
9546.00,1.45
9545.00,1.45
9544.00,1.45
9543.00,1.45
9542.00,1.45
9541.00,1.45
9540.00,1.45
9539.00,1.45
9538.00,1.45
9537.00,1.45
9536.00,1.45
9535.00,1.45
9534.00,1.45
9533.00,1.45
9532.00,1.45
9531.00,1.45
9530.00,1.45
9529.00,1.46
9528.00,1.46
9527.00,1.46
9526.00,1.46
9525.00,1.46
9524.00,1.46
9523.00,1.46
9522.00,1.47
9521.00,1.47
9520.00,1.47
9519.00,1.47
9518.00,1.47
9517.00,1.47
9516.00,1.47
9515.00,1.47
9514.00,1.47
9513.00,1.47
9512.00,1.47
9511.00,1.47
9510.00,1.47
9509.00,1.47
9508.00,1.47
9507.00,1.47
9506.00,1.47
9505.00,1.47
9504.00,1.47
9503.00,1.47
9502.00,1.47
9501.00,1.47
9500.00,1.47
9499.00,1.47
9498.00,1.47
9497.00,1.47
9496.00,1.46
9495.00,1.46
9494.00,1.46
9493.00,1.46
9492.00,1.46
9491.00,1.46
9490.00,1.46
9489.00,1.46
9488.00,1.46
9487.00,1.46
9486.00,1.46
9485.00,1.46
9484.00,1.45
9483.00,1.45
9482.00,1.45
9481.00,1.45
9480.00,1.45
9479.00,1.45
9478.00,1.45
9477.00,1.45
9476.00,1.45
9475.00,1.45
9474.00,1.45
9473.00,1.45
9472.00,1.45
9471.00,1.45
9470.00,1.45
9469.00,1.45
9468.00,1.45
9467.00,1.46
9466.00,1.46
9465.00,1.46
9464.00,1.46
9463.00,1.46
9462.00,1.46
9461.00,1.46
9460.00,1.47
9459.00,1.47
9458.00,1.47
9457.00,1.47
9456.00,1.46
9455.00,1.46
9454.00,1.46
9453.00,1.46
9452.00,1.46
9451.00,1.46
9450.00,1.46
9449.00,1.46
9448.00,1.45
9447.00,1.45
9446.00,1.45
9445.00,1.45
9444.00,1.45
9443.00,1.45
9442.00,1.45
9441.00,1.46
9440.00,1.46
9439.00,1.46
9438.00,1.46
9437.00,1.46
9436.00,1.46
9435.00,1.46
9434.00,1.47
9433.00,1.47
9432.00,1.47
9431.00,1.47
9430.00,1.47
9429.00,1.47
9428.00,1.47
9427.00,1.47
9426.00,1.47
9425.00,1.47
9424.00,1.47
9423.00,1.47
9422.00,1.46
9421.00,1.46
9420.00,1.46
9419.00,1.46
9418.00,1.46
9417.00,1.46
9416.00,1.46
9415.00,1.46
9414.00,1.45
9413.00,1.45
9412.00,1.45
9411.00,1.45
9410.00,1.45
9409.00,1.45
9408.00,1.45
9407.00,1.45
9406.00,1.45
9405.00,1.45
9404.00,1.45
9403.00,1.45
9402.00,1.45
9401.00,1.45
9400.00,1.45
9399.00,1.45
9398.00,1.45
9397.00,1.45
9396.00,1.45
9395.00,1.45
9394.00,1.45
9393.00,1.45
9392.00,1.45
9391.00,1.45
9390.00,1.45
9389.00,1.45
9388.00,1.45
9387.00,1.45
9386.00,1.45
9385.00,1.46
9384.00,1.46
9383.00,1.46
9382.00,1.46
9381.00,1.46
9380.00,1.46
9379.00,1.46
9378.00,1.46
9377.00,1.46
9376.00,1.46
9375.00,1.46
9374.00,1.46
9373.00,1.46
9372.00,1.46
9371.00,1.46
9370.00,1.46
9369.00,1.46
9368.00,1.46
9367.00,1.46
9366.00,1.46
9365.00,1.46
9364.00,1.46
9363.00,1.47
9362.00,1.47
9361.00,1.47
9360.00,1.47
9359.00,1.47
9358.00,1.47
9357.00,1.47
9356.00,1.47
9355.00,1.47
9354.00,1.47
9353.00,1.47
9352.00,1.47
9351.00,1.47
9350.00,1.47
9349.00,1.47
9348.00,1.47
9347.00,1.47
9346.00,1.47
9345.00,1.47
9344.00,1.47
9343.00,1.47
9342.00,1.47
9341.00,1.47
9340.00,1.47
9339.00,1.46
9338.00,1.46
9337.00,1.46
9336.00,1.46
9335.00,1.45
9334.00,1.45
9333.00,1.45
9332.00,1.44
9331.00,1.44
9330.00,1.44
9329.00,1.43
9328.00,1.43
9327.00,1.43
9326.00,1.43
9325.00,1.43
9324.00,1.43
9323.00,1.43
9322.00,1.43
9321.00,1.43
9320.00,1.43
9319.00,1.43
9318.00,1.43
9317.00,1.43
9316.00,1.44
9315.00,1.44
9314.00,1.44
9313.00,1.44
9312.00,1.44
9311.00,1.44
9310.00,1.44
9309.00,1.44
9308.00,1.44
9307.00,1.44
9306.00,1.43
9305.00,1.43
9304.00,1.43
9303.00,1.43
9302.00,1.43
9301.00,1.43
9300.00,1.43
9299.00,1.43
9298.00,1.43
9297.00,1.43
9296.00,1.43
9295.00,1.43
9294.00,1.43
9293.00,1.43
9292.00,1.43
9291.00,1.43
9290.00,1.43
9289.00,1.43
9288.00,1.44
9287.00,1.44
9286.00,1.44
9285.00,1.44
9284.00,1.44
9283.00,1.44
9282.00,1.44
9281.00,1.44
9280.00,1.44
9279.00,1.44
9278.00,1.44
9277.00,1.44
9276.00,1.44
9275.00,1.44
9274.00,1.44
9273.00,1.44
9272.00,1.45
9271.00,1.45
9270.00,1.45
9269.00,1.45
9268.00,1.45
9267.00,1.45
9266.00,1.46
9265.00,1.46
9264.00,1.46
9263.00,1.46
9262.00,1.46
9261.00,1.46
9260.00,1.47
9259.00,1.47
9258.00,1.47
9257.00,1.47
9256.00,1.47
9255.00,1.47
9254.00,1.47
9253.00,1.47
9252.00,1.47
9251.00,1.47
9250.00,1.47
9249.00,1.47
9248.00,1.47
9247.00,1.47
9246.00,1.46
9245.00,1.46
9244.00,1.46
9243.00,1.46
9242.00,1.46
9241.00,1.46
9240.00,1.46
9239.00,1.46
9238.00,1.45
9237.00,1.45
9236.00,1.45
9235.00,1.45
9234.00,1.45
9233.00,1.45
9232.00,1.45
9231.00,1.45
9230.00,1.45
9229.00,1.45
9228.00,1.44
9227.00,1.44
9226.00,1.44
9225.00,1.44
9224.00,1.44
9223.00,1.44
9222.00,1.45
9221.00,1.45
9220.00,1.45
9219.00,1.45
9218.00,1.45
9217.00,1.45
9216.00,1.45
9215.00,1.45
9214.00,1.45
9213.00,1.45
9212.00,1.45
9211.00,1.45
9210.00,1.46
9209.00,1.46
9208.00,1.46
9207.00,1.46
9206.00,1.45
9205.00,1.45
9204.00,1.45
9203.00,1.45
9202.00,1.45
9201.00,1.45
9200.00,1.45
9199.00,1.45
9198.00,1.45
9197.00,1.45
9196.00,1.45
9195.00,1.45
9194.00,1.45
9193.00,1.45
9192.00,1.45
9191.00,1.45
9190.00,1.45
9189.00,1.45
9188.00,1.45
9187.00,1.45
9186.00,1.45
9185.00,1.45
9184.00,1.46
9183.00,1.46
9182.00,1.46
9181.00,1.46
9180.00,1.46
9179.00,1.46
9178.00,1.45
9177.00,1.45
9176.00,1.45
9175.00,1.45
9174.00,1.45
9173.00,1.45
9172.00,1.45
9171.00,1.45
9170.00,1.45
9169.00,1.45
9168.00,1.45
9167.00,1.44
9166.00,1.44
9165.00,1.44
9164.00,1.44
9163.00,1.45
9162.00,1.45
9161.00,1.45
9160.00,1.45
9159.00,1.45
9158.00,1.45
9157.00,1.45
9156.00,1.45
9155.00,1.45
9154.00,1.45
9153.00,1.46
9152.00,1.46
9151.00,1.46
9150.00,1.46
9149.00,1.46
9148.00,1.46
9147.00,1.46
9146.00,1.46
9145.00,1.46
9144.00,1.46
9143.00,1.46
9142.00,1.46
9141.00,1.46
9140.00,1.46
9139.00,1.46
9138.00,1.46
9137.00,1.46
9136.00,1.46
9135.00,1.46
9134.00,1.45
9133.00,1.45
9132.00,1.45
9131.00,1.45
9130.00,1.45
9129.00,1.45
9128.00,1.45
9127.00,1.45
9126.00,1.45
9125.00,1.44
9124.00,1.44
9123.00,1.44
9122.00,1.44
9121.00,1.44
9120.00,1.44
9119.00,1.44
9118.00,1.44
9117.00,1.44
9116.00,1.44
9115.00,1.44
9114.00,1.44
9113.00,1.44
9112.00,1.44
9111.00,1.45
9110.00,1.45
9109.00,1.45
9108.00,1.45
9107.00,1.45
9106.00,1.45
9105.00,1.45
9104.00,1.45
9103.00,1.45
9102.00,1.45
9101.00,1.46
9100.00,1.46
9099.00,1.46
9098.00,1.46
9097.00,1.46
9096.00,1.46
9095.00,1.46
9094.00,1.46
9093.00,1.46
9092.00,1.46
9091.00,1.47
9090.00,1.47
9089.00,1.46
9088.00,1.46
9087.00,1.46
9086.00,1.46
9085.00,1.46
9084.00,1.46
9083.00,1.46
9082.00,1.46
9081.00,1.45
9080.00,1.45
9079.00,1.45
9078.00,1.45
9077.00,1.45
9076.00,1.45
9075.00,1.45
9074.00,1.45
9073.00,1.45
9072.00,1.45
9071.00,1.45
9070.00,1.45
9069.00,1.44
9068.00,1.44
9067.00,1.44
9066.00,1.44
9065.00,1.44
9064.00,1.44
9063.00,1.44
9062.00,1.44
9061.00,1.44
9060.00,1.44
9059.00,1.44
9058.00,1.43
9057.00,1.43
9056.00,1.43
9055.00,1.43
9054.00,1.43
9053.00,1.43
9052.00,1.43
9051.00,1.43
9050.00,1.44
9049.00,1.44
9048.00,1.44
9047.00,1.44
9046.00,1.44
9045.00,1.45
9044.00,1.45
9043.00,1.45
9042.00,1.45
9041.00,1.45
9040.00,1.46
9039.00,1.46
9038.00,1.46
9037.00,1.46
9036.00,1.46
9035.00,1.46
9034.00,1.46
9033.00,1.46
9032.00,1.46
9031.00,1.45
9030.00,1.45
9029.00,1.45
9028.00,1.45
9027.00,1.45
9026.00,1.45
9025.00,1.45
9024.00,1.45
9023.00,1.45
9022.00,1.45
9021.00,1.45
9020.00,1.45
9019.00,1.45
9018.00,1.45
9017.00,1.45
9016.00,1.45
9015.00,1.45
9014.00,1.45
9013.00,1.45
9012.00,1.46
9011.00,1.46
9010.00,1.46
9009.00,1.46
9008.00,1.46
9007.00,1.46
9006.00,1.47
9005.00,1.47
9004.00,1.47
9003.00,1.47
9002.00,1.47
9001.00,1.47
9000.00,1.47
8999.00,1.47
8998.00,1.47
8997.00,1.47
8996.00,1.47
8995.00,1.47
8994.00,1.47
8993.00,1.47
8992.00,1.47
8991.00,1.47
8990.00,1.47
8989.00,1.47
8988.00,1.47
8987.00,1.47
8986.00,1.47
8985.00,1.46
8984.00,1.46
8983.00,1.46
8982.00,1.46
8981.00,1.46
8980.00,1.46
8979.00,1.46
8978.00,1.46
8977.00,1.46
8976.00,1.46
8975.00,1.45
8974.00,1.45
8973.00,1.45
8972.00,1.45
8971.00,1.45
8970.00,1.45
8969.00,1.45
8968.00,1.45
8967.00,1.45
8966.00,1.45
8965.00,1.45
8964.00,1.45
8963.00,1.45
8962.00,1.45
8961.00,1.45
8960.00,1.45
8959.00,1.45
8958.00,1.45
8957.00,1.45
8956.00,1.45
8955.00,1.45
8954.00,1.45
8953.00,1.45
8952.00,1.45
8951.00,1.45
8950.00,1.45
8949.00,1.45
8948.00,1.45
8947.00,1.45
8946.00,1.45
8945.00,1.44
8944.00,1.44
8943.00,1.44
8942.00,1.44
8941.00,1.44
8940.00,1.44
8939.00,1.44
8938.00,1.44
8937.00,1.44
8936.00,1.44
8935.00,1.44
8934.00,1.44
8933.00,1.44
8932.00,1.44
8931.00,1.44
8930.00,1.44
8929.00,1.44
8928.00,1.44
8927.00,1.44
8926.00,1.45
8925.00,1.45
8924.00,1.45
8923.00,1.45
8922.00,1.45
8921.00,1.45
8920.00,1.45
8919.00,1.45
8918.00,1.45
8917.00,1.45
8916.00,1.45
8915.00,1.45
8914.00,1.45
8913.00,1.45
8912.00,1.45
8911.00,1.45
8910.00,1.45
8909.00,1.45
8908.00,1.45
8907.00,1.45
8906.00,1.45
8905.00,1.45
8904.00,1.45
8903.00,1.45
8902.00,1.45
8901.00,1.45
8900.00,1.45
8899.00,1.45
8898.00,1.45
8897.00,1.45
8896.00,1.45
8895.00,1.45
8894.00,1.45
8893.00,1.44
8892.00,1.44
8891.00,1.44
8890.00,1.44
8889.00,1.44
8888.00,1.44
8887.00,1.44
8886.00,1.44
8885.00,1.44
8884.00,1.44
8883.00,1.44
8882.00,1.44
8881.00,1.44
8880.00,1.44
8879.00,1.44
8878.00,1.44
8877.00,1.44
8876.00,1.44
8875.00,1.44
8874.00,1.44
8873.00,1.44
8872.00,1.44
8871.00,1.44
8870.00,1.44
8869.00,1.44
8868.00,1.44
8867.00,1.45
8866.00,1.45
8865.00,1.45
8864.00,1.45
8863.00,1.45
8862.00,1.45
8861.00,1.45
8860.00,1.45
8859.00,1.45
8858.00,1.45
8857.00,1.45
8856.00,1.45
8855.00,1.45
8854.00,1.45
8853.00,1.45
8852.00,1.45
8851.00,1.45
8850.00,1.45
8849.00,1.45
8848.00,1.45
8847.00,1.44
8846.00,1.44
8845.00,1.44
8844.00,1.44
8843.00,1.44
8842.00,1.44
8841.00,1.44
8840.00,1.44
8839.00,1.44
8838.00,1.44
8837.00,1.44
8836.00,1.44
8835.00,1.44
8834.00,1.44
8833.00,1.44
8832.00,1.44
8831.00,1.44
8830.00,1.44
8829.00,1.44
8828.00,1.44
8827.00,1.44
8826.00,1.44
8825.00,1.44
8824.00,1.44
8823.00,1.44
8822.00,1.44
8821.00,1.43
8820.00,1.43
8819.00,1.43
8818.00,1.43
8817.00,1.43
8816.00,1.43
8815.00,1.42
8814.00,1.42
8813.00,1.42
8812.00,1.42
8811.00,1.41
8810.00,1.41
8809.00,1.41
8808.00,1.41
8807.00,1.40
8806.00,1.40
8805.00,1.40
8804.00,1.40
8803.00,1.40
8802.00,1.40
8801.00,1.39
8800.00,1.39
8799.00,1.39
8798.00,1.39
8797.00,1.39
8796.00,1.39
8795.00,1.39
8794.00,1.39
8793.00,1.39
8792.00,1.39
8791.00,1.39
8790.00,1.39
8789.00,1.39
8788.00,1.39
8787.00,1.39
8786.00,1.39
8785.00,1.39
8784.00,1.39
8783.00,1.39
8782.00,1.39
8781.00,1.39
8780.00,1.39
8779.00,1.38
8778.00,1.38
8777.00,1.38
8776.00,1.38
8775.00,1.38
8774.00,1.38
8773.00,1.38
8772.00,1.38
8771.00,1.38
8770.00,1.38
8769.00,1.38
8768.00,1.38
8767.00,1.38
8766.00,1.38
8765.00,1.38
8764.00,1.38
8763.00,1.38
8762.00,1.38
8761.00,1.38
8760.00,1.38
8759.00,1.38
8758.00,1.38
8757.00,1.38
8756.00,1.38
8755.00,1.38
8754.00,1.38
8753.00,1.38
8752.00,1.38
8751.00,1.38
8750.00,1.38
8749.00,1.38
8748.00,1.38
8747.00,1.38
8746.00,1.38
8745.00,1.38
8744.00,1.38
8743.00,1.38
8742.00,1.38
8741.00,1.38
8740.00,1.38
8739.00,1.38
8738.00,1.38
8737.00,1.38
8736.00,1.38
8735.00,1.38
8734.00,1.38
8733.00,1.38
8732.00,1.38
8731.00,1.37
8730.00,1.37
8729.00,1.37
8728.00,1.37
8727.00,1.37
8726.00,1.36
8725.00,1.36
8724.00,1.36
8723.00,1.36
8722.00,1.36
8721.00,1.35
8720.00,1.35
8719.00,1.35
8718.00,1.35
8717.00,1.35
8716.00,1.35
8715.00,1.35
8714.00,1.35
8713.00,1.35
8712.00,1.35
8711.00,1.35
8710.00,1.35
8709.00,1.35
8708.00,1.35
8707.00,1.35
8706.00,1.35
8705.00,1.35
8704.00,1.35
8703.00,1.35
8702.00,1.35
8701.00,1.35
8700.00,1.35
8699.00,1.35
8698.00,1.35
8697.00,1.35
8696.00,1.35
8695.00,1.35
8694.00,1.35
8693.00,1.35
8692.00,1.35
8691.00,1.35
8690.00,1.35
8689.00,1.35
8688.00,1.35
8687.00,1.35
8686.00,1.35
8685.00,1.35
8684.00,1.35
8683.00,1.35
8682.00,1.35
8681.00,1.35
8680.00,1.35
8679.00,1.35
8678.00,1.35
8677.00,1.35
8676.00,1.35
8675.00,1.35
8674.00,1.35
8673.00,1.35
8672.00,1.35
8671.00,1.35
8670.00,1.35
8669.00,1.35
8668.00,1.35
8667.00,1.34
8666.00,1.34
8665.00,1.34
8664.00,1.34
8663.00,1.34
8662.00,1.34
8661.00,1.34
8660.00,1.34
8659.00,1.34
8658.00,1.34
8657.00,1.34
8656.00,1.34
8655.00,1.34
8654.00,1.34
8653.00,1.34
8652.00,1.34
8651.00,1.34
8650.00,1.34
8649.00,1.34
8648.00,1.34
8647.00,1.34
8646.00,1.33
8645.00,1.33
8644.00,1.33
8643.00,1.33
8642.00,1.33
8641.00,1.33
8640.00,1.33
8639.00,1.33
8638.00,1.33
8637.00,1.33
8636.00,1.33
8635.00,1.33
8634.00,1.33
8633.00,1.33
8632.00,1.33
8631.00,1.33
8630.00,1.33
8629.00,1.32
8628.00,1.32
8627.00,1.32
8626.00,1.32
8625.00,1.32
8624.00,1.32
8623.00,1.32
8622.00,1.32
8621.00,1.32
8620.00,1.32
8619.00,1.32
8618.00,1.32
8617.00,1.32
8616.00,1.32
8615.00,1.32
8614.00,1.32
8613.00,1.32
8612.00,1.31
8611.00,1.31
8610.00,1.31
8609.00,1.31
8608.00,1.31
8607.00,1.31
8606.00,1.31
8605.00,1.31
8604.00,1.31
8603.00,1.30
8602.00,1.30
8601.00,1.30
8600.00,1.30
8599.00,1.30
8598.00,1.30
8597.00,1.30
8596.00,1.30
8595.00,1.30
8594.00,1.29
8593.00,1.29
8592.00,1.29
8591.00,1.29
8590.00,1.29
8589.00,1.29
8588.00,1.29
8587.00,1.29
8586.00,1.29
8585.00,1.28
8584.00,1.28
8583.00,1.28
8582.00,1.28
8581.00,1.28
8580.00,1.28
8579.00,1.28
8578.00,1.28
8577.00,1.28
8576.00,1.27
8575.00,1.27
8574.00,1.27
8573.00,1.27
8572.00,1.27
8571.00,1.27
8570.00,1.27
8569.00,1.26
8568.00,1.26
8567.00,1.26
8566.00,1.26
8565.00,1.26
8564.00,1.26
8563.00,1.26
8562.00,1.26
8561.00,1.26
8560.00,1.26
8559.00,1.26
8558.00,1.26
8557.00,1.26
8556.00,1.26
8555.00,1.26
8554.00,1.26
8553.00,1.26
8552.00,1.25
8551.00,1.25
8550.00,1.25
8549.00,1.25
8548.00,1.25
8547.00,1.25
8546.00,1.25
8545.00,1.25
8544.00,1.25
8543.00,1.25
8542.00,1.25
8541.00,1.25
8540.00,1.25
8539.00,1.25
8538.00,1.25
8537.00,1.25
8536.00,1.25
8535.00,1.25
8534.00,1.25
8533.00,1.25
8532.00,1.25
8531.00,1.25
8530.00,1.25
8529.00,1.25
8528.00,1.25
8527.00,1.25
8526.00,1.25
8525.00,1.25
8524.00,1.25
8523.00,1.25
8522.00,1.25
8521.00,1.25
8520.00,1.25
8519.00,1.25
8518.00,1.25
8517.00,1.25
8516.00,1.25
8515.00,1.25
8514.00,1.25
8513.00,1.25
8512.00,1.25
8511.00,1.25
8510.00,1.25
8509.00,1.25
8508.00,1.25
8507.00,1.25
8506.00,1.25
8505.00,1.25
8504.00,1.24
8503.00,1.24
8502.00,1.24
8501.00,1.24
8500.00,1.24
8499.00,1.24
8498.00,1.23
8497.00,1.23
8496.00,1.23
8495.00,1.23
8494.00,1.23
8493.00,1.22
8492.00,1.22
8491.00,1.22
8490.00,1.22
8489.00,1.22
8488.00,1.21
8487.00,1.21
8486.00,1.21
8485.00,1.21
8484.00,1.21
8483.00,1.21
8482.00,1.20
8481.00,1.20
8480.00,1.20
8479.00,1.20
8478.00,1.20
8477.00,1.19
8476.00,1.19
8475.00,1.19
8474.00,1.19
8473.00,1.19
8472.00,1.19
8471.00,1.18
8470.00,1.18
8469.00,1.18
8468.00,1.18
8467.00,1.18
8466.00,1.18
8465.00,1.17
8464.00,1.17
8463.00,1.17
8462.00,1.17
8461.00,1.17
8460.00,1.17
8459.00,1.17
8458.00,1.17
8457.00,1.17
8456.00,1.17
8455.00,1.17
8454.00,1.16
8453.00,1.16
8452.00,1.16
8451.00,1.16
8450.00,1.16
8449.00,1.16
8448.00,1.16
8447.00,1.16
8446.00,1.16
8445.00,1.16
8444.00,1.16
8443.00,1.16
8442.00,1.16
8441.00,1.16
8440.00,1.16
8439.00,1.16
8438.00,1.16
8437.00,1.16
8436.00,1.16
8435.00,1.16
8434.00,1.16
8433.00,1.16
8432.00,1.16
8431.00,1.16
8430.00,1.16
8429.00,1.16
8428.00,1.16
8427.00,1.16
8426.00,1.17
8425.00,1.17
8424.00,1.17
8423.00,1.17
8422.00,1.17
8421.00,1.17
8420.00,1.17
8419.00,1.18
8418.00,1.18
8417.00,1.18
8416.00,1.18
8415.00,1.18
8414.00,1.18
8413.00,1.18
8412.00,1.18
8411.00,1.18
8410.00,1.18
8409.00,1.18
8408.00,1.18
8407.00,1.18
8406.00,1.18
8405.00,1.19
8404.00,1.19
8403.00,1.19
8402.00,1.19
8401.00,1.19
8400.00,1.19
8399.00,1.19
8398.00,1.19
8397.00,1.20
8396.00,1.20
8395.00,1.20
8394.00,1.20
8393.00,1.20
8392.00,1.21
8391.00,1.21
8390.00,1.21
8389.00,1.21
8388.00,1.21
8387.00,1.21
8386.00,1.22
8385.00,1.22
8384.00,1.22
8383.00,1.22
8382.00,1.22
8381.00,1.22
8380.00,1.22
8379.00,1.22
8378.00,1.22
8377.00,1.22
8376.00,1.22
8375.00,1.22
8374.00,1.23
8373.00,1.23
8372.00,1.23
8371.00,1.23
8370.00,1.23
8369.00,1.23
8368.00,1.23
8367.00,1.23
8366.00,1.23
8365.00,1.23
8364.00,1.23
8363.00,1.23
8362.00,1.23
8361.00,1.23
8360.00,1.23
8359.00,1.23
8358.00,1.23
8357.00,1.23
8356.00,1.23
8355.00,1.23
8354.00,1.23
8353.00,1.23
8352.00,1.23
8351.00,1.23
8350.00,1.24
8349.00,1.24
8348.00,1.24
8347.00,1.24
8346.00,1.24
8345.00,1.24
8344.00,1.25
8343.00,1.25
8342.00,1.25
8341.00,1.25
8340.00,1.25
8339.00,1.25
8338.00,1.26
8337.00,1.26
8336.00,1.26
8335.00,1.26
8334.00,1.26
8333.00,1.26
8332.00,1.26
8331.00,1.26
8330.00,1.25
8329.00,1.25
8328.00,1.25
8327.00,1.25
8326.00,1.25
8325.00,1.25
8324.00,1.25
8323.00,1.25
8322.00,1.25
8321.00,1.25
8320.00,1.24
8319.00,1.24
8318.00,1.24
8317.00,1.24
8316.00,1.24
8315.00,1.24
8314.00,1.24
8313.00,1.24
8312.00,1.24
8311.00,1.24
8310.00,1.23
8309.00,1.23
8308.00,1.23
8307.00,1.23
8306.00,1.23
8305.00,1.23
8304.00,1.23
8303.00,1.24
8302.00,1.24
8301.00,1.24
8300.00,1.24
8299.00,1.24
8298.00,1.24
8297.00,1.24
8296.00,1.24
8295.00,1.24
8294.00,1.24
8293.00,1.24
8292.00,1.25
8291.00,1.25
8290.00,1.25
8289.00,1.25
8288.00,1.25
8287.00,1.25
8286.00,1.25
8285.00,1.25
8284.00,1.25
8283.00,1.25
8282.00,1.25
8281.00,1.25
8280.00,1.25
8279.00,1.25
8278.00,1.25
8277.00,1.25
8276.00,1.25
8275.00,1.25
8274.00,1.25
8273.00,1.25
8272.00,1.25
8271.00,1.26
8270.00,1.26
8269.00,1.26
8268.00,1.26
8267.00,1.26
8266.00,1.26
8265.00,1.26
8264.00,1.26
8263.00,1.26
8262.00,1.26
8261.00,1.26
8260.00,1.26
8259.00,1.26
8258.00,1.26
8257.00,1.26
8256.00,1.26
8255.00,1.26
8254.00,1.26
8253.00,1.27
8252.00,1.27
8251.00,1.27
8250.00,1.27
8249.00,1.27
8248.00,1.27
8247.00,1.27
8246.00,1.27
8245.00,1.27
8244.00,1.27
8243.00,1.27
8242.00,1.27
8241.00,1.27
8240.00,1.27
8239.00,1.27
8238.00,1.27
8237.00,1.27
8236.00,1.27
8235.00,1.27
8234.00,1.27
8233.00,1.27
8232.00,1.27
8231.00,1.27
8230.00,1.27
8229.00,1.27
8228.00,1.27
8227.00,1.28
8226.00,1.28
8225.00,1.28
8224.00,1.28
8223.00,1.28
8222.00,1.29
8221.00,1.29
8220.00,1.29
8219.00,1.29
8218.00,1.29
8217.00,1.29
8216.00,1.30
8215.00,1.30
8214.00,1.30
8213.00,1.30
8212.00,1.30
8211.00,1.30
8210.00,1.30
8209.00,1.30
8208.00,1.30
8207.00,1.30
8206.00,1.30
8205.00,1.30
8204.00,1.30
8203.00,1.30
8202.00,1.31
8201.00,1.31
8200.00,1.31
8199.00,1.31
8198.00,1.31
8197.00,1.31
8196.00,1.31
8195.00,1.31
8194.00,1.31
8193.00,1.31
8192.00,1.31
8191.00,1.31
8190.00,1.31
8189.00,1.32
8188.00,1.32
8187.00,1.32
8186.00,1.32
8185.00,1.32
8184.00,1.32
8183.00,1.32
8182.00,1.32
8181.00,1.32
8180.00,1.33
8179.00,1.33
8178.00,1.33
8177.00,1.33
8176.00,1.33
8175.00,1.33
8174.00,1.33
8173.00,1.33
8172.00,1.33
8171.00,1.33
8170.00,1.33
8169.00,1.33
8168.00,1.33
8167.00,1.33
8166.00,1.33
8165.00,1.33
8164.00,1.33
8163.00,1.33
8162.00,1.34
8161.00,1.34
8160.00,1.34
8159.00,1.34
8158.00,1.34
8157.00,1.34
8156.00,1.34
8155.00,1.34
8154.00,1.34
8153.00,1.34
8152.00,1.34
8151.00,1.34
8150.00,1.34
8149.00,1.34
8148.00,1.34
8147.00,1.34
8146.00,1.34
8145.00,1.34
8144.00,1.34
8143.00,1.34
8142.00,1.34
8141.00,1.34
8140.00,1.34
8139.00,1.34
8138.00,1.34
8137.00,1.34
8136.00,1.34
8135.00,1.34
8134.00,1.34
8133.00,1.34
8132.00,1.34
8131.00,1.34
8130.00,1.34
8129.00,1.34
8128.00,1.34
8127.00,1.34
8126.00,1.34
8125.00,1.34
8124.00,1.34
8123.00,1.34
8122.00,1.34
8121.00,1.35
8120.00,1.35
8119.00,1.35
8118.00,1.35
8117.00,1.35
8116.00,1.35
8115.00,1.35
8114.00,1.35
8113.00,1.36
8112.00,1.36
8111.00,1.36
8110.00,1.36
8109.00,1.36
8108.00,1.36
8107.00,1.36
8106.00,1.36
8105.00,1.36
8104.00,1.36
8103.00,1.36
8102.00,1.36
8101.00,1.36
8100.00,1.36
8099.00,1.36
8098.00,1.36
8097.00,1.36
8096.00,1.36
8095.00,1.35
8094.00,1.35
8093.00,1.36
8092.00,1.36
8091.00,1.36
8090.00,1.36
8089.00,1.36
8088.00,1.36
8087.00,1.36
8086.00,1.36
8085.00,1.36
8084.00,1.36
8083.00,1.36
8082.00,1.36
8081.00,1.37
8080.00,1.37
8079.00,1.37
8078.00,1.37
8077.00,1.37
8076.00,1.37
8075.00,1.38
8074.00,1.38
8073.00,1.38
8072.00,1.38
8071.00,1.38
8070.00,1.38
8069.00,1.38
8068.00,1.39
8067.00,1.39
8066.00,1.39
8065.00,1.39
8064.00,1.39
8063.00,1.39
8062.00,1.39
8061.00,1.39
8060.00,1.39
8059.00,1.39
8058.00,1.39
8057.00,1.39
8056.00,1.39
8055.00,1.39
8054.00,1.39
8053.00,1.39
8052.00,1.39
8051.00,1.39
8050.00,1.39
8049.00,1.39
8048.00,1.39
8047.00,1.39
8046.00,1.40
8045.00,1.40
8044.00,1.40
8043.00,1.40
8042.00,1.40
8041.00,1.39
8040.00,1.39
8039.00,1.39
8038.00,1.39
8037.00,1.39
8036.00,1.39
8035.00,1.39
8034.00,1.39
8033.00,1.39
8032.00,1.39
8031.00,1.39
8030.00,1.39
8029.00,1.39
8028.00,1.39
8027.00,1.39
8026.00,1.39
8025.00,1.39
8024.00,1.39
8023.00,1.39
8022.00,1.39
8021.00,1.39
8020.00,1.39
8019.00,1.39
8018.00,1.39
8017.00,1.39
8016.00,1.40
8015.00,1.40
8014.00,1.40
8013.00,1.40
8012.00,1.40
8011.00,1.40
8010.00,1.40
8009.00,1.40
8008.00,1.40
8007.00,1.40
8006.00,1.40
8005.00,1.40
8004.00,1.40
8003.00,1.40
8002.00,1.41
8001.00,1.41
8000.00,1.41
7999.00,1.41
7998.00,1.41
7997.00,1.41
7996.00,1.41
7995.00,1.41
7994.00,1.41
7993.00,1.41
7992.00,1.41
7991.00,1.41
7990.00,1.41
7989.00,1.41
7988.00,1.41
7987.00,1.41
7986.00,1.41
7985.00,1.41
7984.00,1.41
7983.00,1.41
7982.00,1.41
7981.00,1.41
7980.00,1.41
7979.00,1.41
7978.00,1.41
7977.00,1.41
7976.00,1.41
7975.00,1.41
7974.00,1.41
7973.00,1.41
7972.00,1.41
7971.00,1.41
7970.00,1.42
7969.00,1.42
7968.00,1.42
7967.00,1.42
7966.00,1.42
7965.00,1.42
7964.00,1.42
7963.00,1.42
7962.00,1.42
7961.00,1.42
7960.00,1.42
7959.00,1.42
7958.00,1.43
7957.00,1.43
7956.00,1.43
7955.00,1.43
7954.00,1.43
7953.00,1.43
7952.00,1.43
7951.00,1.43
7950.00,1.43
7949.00,1.43
7948.00,1.43
7947.00,1.43
7946.00,1.43
7945.00,1.43
7944.00,1.42
7943.00,1.42
7942.00,1.42
7941.00,1.42
7940.00,1.42
7939.00,1.42
7938.00,1.42
7937.00,1.42
7936.00,1.42
7935.00,1.42
7934.00,1.42
7933.00,1.42
7932.00,1.42
7931.00,1.42
7930.00,1.42
7929.00,1.42
7928.00,1.42
7927.00,1.42
7926.00,1.42
7925.00,1.42
7924.00,1.42
7923.00,1.42
7922.00,1.42
7921.00,1.42
7920.00,1.42
7919.00,1.42
7918.00,1.42
7917.00,1.42
7916.00,1.42
7915.00,1.42
7914.00,1.42
7913.00,1.42
7912.00,1.42
7911.00,1.42
7910.00,1.42
7909.00,1.42
7908.00,1.42
7907.00,1.43
7906.00,1.43
7905.00,1.43
7904.00,1.43
7903.00,1.43
7902.00,1.43
7901.00,1.43
7900.00,1.43
7899.00,1.43
7898.00,1.44
7897.00,1.44
7896.00,1.44
7895.00,1.44
7894.00,1.44
7893.00,1.44
7892.00,1.44
7891.00,1.44
7890.00,1.44
7889.00,1.44
7888.00,1.44
7887.00,1.44
7886.00,1.44
7885.00,1.44
7884.00,1.44
7883.00,1.44
7882.00,1.44
7881.00,1.44
7880.00,1.44
7879.00,1.44
7878.00,1.44
7877.00,1.44
7876.00,1.44
7875.00,1.44
7874.00,1.44
7873.00,1.44
7872.00,1.45
7871.00,1.45
7870.00,1.45
7869.00,1.45
7868.00,1.45
7867.00,1.45
7866.00,1.45
7865.00,1.45
7864.00,1.45
7863.00,1.45
7862.00,1.45
7861.00,1.45
7860.00,1.46
7859.00,1.46
7858.00,1.46
7857.00,1.46
7856.00,1.46
7855.00,1.46
7854.00,1.46
7853.00,1.46
7852.00,1.46
7851.00,1.46
7850.00,1.45
7849.00,1.45
7848.00,1.45
7847.00,1.45
7846.00,1.45
7845.00,1.45
7844.00,1.45
7843.00,1.45
7842.00,1.45
7841.00,1.45
7840.00,1.45
7839.00,1.45
7838.00,1.45
7837.00,1.45
7836.00,1.45
7835.00,1.45
7834.00,1.45
7833.00,1.45
7832.00,1.45
7831.00,1.45
7830.00,1.45
7829.00,1.45
7828.00,1.45
7827.00,1.45
7826.00,1.45
7825.00,1.45
7824.00,1.46
7823.00,1.46
7822.00,1.46
7821.00,1.46
7820.00,1.46
7819.00,1.46
7818.00,1.46
7817.00,1.46
7816.00,1.46
7815.00,1.46
7814.00,1.46
7813.00,1.46
7812.00,1.46
7811.00,1.46
7810.00,1.46
7809.00,1.46
7808.00,1.46
7807.00,1.46
7806.00,1.46
7805.00,1.45
7804.00,1.45
7803.00,1.45
7802.00,1.45
7801.00,1.45
7800.00,1.45
7799.00,1.45
7798.00,1.45
7797.00,1.45
7796.00,1.45
7795.00,1.45
7794.00,1.45
7793.00,1.45
7792.00,1.45
7791.00,1.45
7790.00,1.45
7789.00,1.45
7788.00,1.45
7787.00,1.46
7786.00,1.46
7785.00,1.46
7784.00,1.46
7783.00,1.46
7782.00,1.46
7781.00,1.46
7780.00,1.46
7779.00,1.46
7778.00,1.46
7777.00,1.46
7776.00,1.46
7775.00,1.46
7774.00,1.46
7773.00,1.46
7772.00,1.46
7771.00,1.46
7770.00,1.46
7769.00,1.46
7768.00,1.46
7767.00,1.46
7766.00,1.46
7765.00,1.46
7764.00,1.46
7763.00,1.46
7762.00,1.46
7761.00,1.46
7760.00,1.46
7759.00,1.46
7758.00,1.46
7757.00,1.46
7756.00,1.46
7755.00,1.46
7754.00,1.46
7753.00,1.46
7752.00,1.46
7751.00,1.46
7750.00,1.46
7749.00,1.46
7748.00,1.46
7747.00,1.46
7746.00,1.46
7745.00,1.46
7744.00,1.46
7743.00,1.46
7742.00,1.46
7741.00,1.46
7740.00,1.46
7739.00,1.46
7738.00,1.46
7737.00,1.46
7736.00,1.46
7735.00,1.46
7734.00,1.46
7733.00,1.46
7732.00,1.46
7731.00,1.46
7730.00,1.46
7729.00,1.47
7728.00,1.47
7727.00,1.47
7726.00,1.47
7725.00,1.47
7724.00,1.47
7723.00,1.47
7722.00,1.47
7721.00,1.47
7720.00,1.47
7719.00,1.47
7718.00,1.47
7717.00,1.47
7716.00,1.47
7715.00,1.47
7714.00,1.47
7713.00,1.47
7712.00,1.47
7711.00,1.47
7710.00,1.47
7709.00,1.47
7708.00,1.47
7707.00,1.47
7706.00,1.47
7705.00,1.47
7704.00,1.47
7703.00,1.47
7702.00,1.47
7701.00,1.47
7700.00,1.47
7699.00,1.47
7698.00,1.47
7697.00,1.47
7696.00,1.47
7695.00,1.47
7694.00,1.47
7693.00,1.47
7692.00,1.47
7691.00,1.47
7690.00,1.47
7689.00,1.47
7688.00,1.47
7687.00,1.47
7686.00,1.47
7685.00,1.47
7684.00,1.47
7683.00,1.47
7682.00,1.47
7681.00,1.47
7680.00,1.47
7679.00,1.47
7678.00,1.47
7677.00,1.47
7676.00,1.47
7675.00,1.47
7674.00,1.47
7673.00,1.47
7672.00,1.47
7671.00,1.47
7670.00,1.47
7669.00,1.47
7668.00,1.47
7667.00,1.47
7666.00,1.47
7665.00,1.47
7664.00,1.47
7663.00,1.47
7662.00,1.47
7661.00,1.47
7660.00,1.47
7659.00,1.47
7658.00,1.47
7657.00,1.47
7656.00,1.47
7655.00,1.47
7654.00,1.47
7653.00,1.47
7652.00,1.47
7651.00,1.47
7650.00,1.47
7649.00,1.47
7648.00,1.47
7647.00,1.47
7646.00,1.47
7645.00,1.47
7644.00,1.47
7643.00,1.47
7642.00,1.47
7641.00,1.47
7640.00,1.47
7639.00,1.47
7638.00,1.47
7637.00,1.47
7636.00,1.47
7635.00,1.47
7634.00,1.47
7633.00,1.47
7632.00,1.47
7631.00,1.47
7630.00,1.47
7629.00,1.47
7628.00,1.47
7627.00,1.47
7626.00,1.47
7625.00,1.47
7624.00,1.47
7623.00,1.47
7622.00,1.47
7621.00,1.47
7620.00,1.47
7619.00,1.47
7618.00,1.47
7617.00,1.47
7616.00,1.47
7615.00,1.47
7614.00,1.47
7613.00,1.47
7612.00,1.47
7611.00,1.47
7610.00,1.47
7609.00,1.47
7608.00,1.47
7607.00,1.47
7606.00,1.47
7605.00,1.47
7604.00,1.47
7603.00,1.47
7602.00,1.47
7601.00,1.47
7600.00,1.47
7599.00,1.47
7598.00,1.47
7597.00,1.47
7596.00,1.47
7595.00,1.47
7594.00,1.47
7593.00,1.47
7592.00,1.47
7591.00,1.47
7590.00,1.47
7589.00,1.47
7588.00,1.47
7587.00,1.47
7586.00,1.47
7585.00,1.47
7584.00,1.47
7583.00,1.47
7582.00,1.47
7581.00,1.47
7580.00,1.47
7579.00,1.47
7578.00,1.47
7577.00,1.47
7576.00,1.47
7575.00,1.47
7574.00,1.47
7573.00,1.47
7572.00,1.47
7571.00,1.47
7570.00,1.47
7569.00,1.47
7568.00,1.47
7567.00,1.47
7566.00,1.47
7565.00,1.47
7564.00,1.47
7563.00,1.47
7562.00,1.47
7561.00,1.47
7560.00,1.47
7559.00,1.47
7558.00,1.47
7557.00,1.47
7556.00,1.47
7555.00,1.47
7554.00,1.47
7553.00,1.46
7552.00,1.46
7551.00,1.46
7550.00,1.46
7549.00,1.46
7548.00,1.46
7547.00,1.46
7546.00,1.46
7545.00,1.45
7544.00,1.45
7543.00,1.45
7542.00,1.45
7541.00,1.45
7540.00,1.45
7539.00,1.45
7538.00,1.45
7537.00,1.45
7536.00,1.45
7535.00,1.45
7534.00,1.45
7533.00,1.45
7532.00,1.45
7531.00,1.45
7530.00,1.45
7529.00,1.45
7528.00,1.45
7527.00,1.45
7526.00,1.44
7525.00,1.44
7524.00,1.44
7523.00,1.44
7522.00,1.44
7521.00,1.44
7520.00,1.44
7519.00,1.44
7518.00,1.44
7517.00,1.44
7516.00,1.44
7515.00,1.44
7514.00,1.44
7513.00,1.43
7512.00,1.43
7511.00,1.43
7510.00,1.43
7509.00,1.43
7508.00,1.43
7507.00,1.43
7506.00,1.43
7505.00,1.43
7504.00,1.43
7503.00,1.43
7502.00,1.43
7501.00,1.43
7500.00,1.43
7499.00,1.43
7498.00,1.43
7497.00,1.43
7496.00,1.43
7495.00,1.43
7494.00,1.43
7493.00,1.43
7492.00,1.43
7491.00,1.43
7490.00,1.43
7489.00,1.43
7488.00,1.43
7487.00,1.43
7486.00,1.43
7485.00,1.43
7484.00,1.43
7483.00,1.42
7482.00,1.42
7481.00,1.42
7480.00,1.42
7479.00,1.42
7478.00,1.42
7477.00,1.42
7476.00,1.42
7475.00,1.41
7474.00,1.41
7473.00,1.41
7472.00,1.41
7471.00,1.41
7470.00,1.41
7469.00,1.40
7468.00,1.40
7467.00,1.40
7466.00,1.40
7465.00,1.40
7464.00,1.40
7463.00,1.40
7462.00,1.39
7461.00,1.39
7460.00,1.39
7459.00,1.39
7458.00,1.39
7457.00,1.39
7456.00,1.39
7455.00,1.39
7454.00,1.39
7453.00,1.39
7452.00,1.39
7451.00,1.39
7450.00,1.39
7449.00,1.39
7448.00,1.39
7447.00,1.39
7446.00,1.39
7445.00,1.39
7444.00,1.39
7443.00,1.39
7442.00,1.39
7441.00,1.39
7440.00,1.39
7439.00,1.39
7438.00,1.39
7437.00,1.39
7436.00,1.39
7435.00,1.39
7434.00,1.38
7433.00,1.38
7432.00,1.38
7431.00,1.38
7430.00,1.38
7429.00,1.37
7428.00,1.37
7427.00,1.37
7426.00,1.37
7425.00,1.37
7424.00,1.36
7423.00,1.36
7422.00,1.36
7421.00,1.36
7420.00,1.36
7419.00,1.36
7418.00,1.36
7417.00,1.35
7416.00,1.35
7415.00,1.35
7414.00,1.35
7413.00,1.35
7412.00,1.35
7411.00,1.35
7410.00,1.35
7409.00,1.34
7408.00,1.34
7407.00,1.34
7406.00,1.34
7405.00,1.34
7404.00,1.33
7403.00,1.33
7402.00,1.33
7401.00,1.33
7400.00,1.33
7399.00,1.32
7398.00,1.32
7397.00,1.32
7396.00,1.32
7395.00,1.32
7394.00,1.32
7393.00,1.32
7392.00,1.31
7391.00,1.31
7390.00,1.31
7389.00,1.31
7388.00,1.31
7387.00,1.31
7386.00,1.30
7385.00,1.30
7384.00,1.30
7383.00,1.30
7382.00,1.30
7381.00,1.29
7380.00,1.29
7379.00,1.29
7378.00,1.29
7377.00,1.28
7376.00,1.28
7375.00,1.28
7374.00,1.28
7373.00,1.28
7372.00,1.28
7371.00,1.27
7370.00,1.27
7369.00,1.27
7368.00,1.27
7367.00,1.27
7366.00,1.27
7365.00,1.27
7364.00,1.27
7363.00,1.27
7362.00,1.27
7361.00,1.27
7360.00,1.27
7359.00,1.27
7358.00,1.27
7357.00,1.27
7356.00,1.27
7355.00,1.27
7354.00,1.27
7353.00,1.27
7352.00,1.27
7351.00,1.27
7350.00,1.27
7349.00,1.27
7348.00,1.26
7347.00,1.26
7346.00,1.26
7345.00,1.26
7344.00,1.26
7343.00,1.26
7342.00,1.26
7341.00,1.26
7340.00,1.26
7339.00,1.26
7338.00,1.25
7337.00,1.25
7336.00,1.25
7335.00,1.25
7334.00,1.25
7333.00,1.25
7332.00,1.25
7331.00,1.25
7330.00,1.24
7329.00,1.24
7328.00,1.24
7327.00,1.24
7326.00,1.24
7325.00,1.24
7324.00,1.24
7323.00,1.24
7322.00,1.24
7321.00,1.24
7320.00,1.24
7319.00,1.24
7318.00,1.24
7317.00,1.24
7316.00,1.24
7315.00,1.24
7314.00,1.24
7313.00,1.24
7312.00,1.24
7311.00,1.24
7310.00,1.24
7309.00,1.24
7308.00,1.24
7307.00,1.23
7306.00,1.23
7305.00,1.23
7304.00,1.23
7303.00,1.23
7302.00,1.23
7301.00,1.23
7300.00,1.23
7299.00,1.23
7298.00,1.23
7297.00,1.23
7296.00,1.22
7295.00,1.22
7294.00,1.22
7293.00,1.22
7292.00,1.22
7291.00,1.22
7290.00,1.22
7289.00,1.21
7288.00,1.21
7287.00,1.21
7286.00,1.21
7285.00,1.21
7284.00,1.21
7283.00,1.21
7282.00,1.21
7281.00,1.20
7280.00,1.20
7279.00,1.20
7278.00,1.20
7277.00,1.20
7276.00,1.20
7275.00,1.19
7274.00,1.19
7273.00,1.19
7272.00,1.19
7271.00,1.19
7270.00,1.19
7269.00,1.18
7268.00,1.18
7267.00,1.18
7266.00,1.18
7265.00,1.17
7264.00,1.17
7263.00,1.17
7262.00,1.17
7261.00,1.17
7260.00,1.16
7259.00,1.16
7258.00,1.16
7257.00,1.15
7256.00,1.15
7255.00,1.15
7254.00,1.15
7253.00,1.14
7252.00,1.14
7251.00,1.14
7250.00,1.13
7249.00,1.13
7248.00,1.13
7247.00,1.12
7246.00,1.12
7245.00,1.11
7244.00,1.11
7243.00,1.11
7242.00,1.10
7241.00,1.10
7240.00,1.09
7239.00,1.09
7238.00,1.08
7237.00,1.08
7236.00,1.08
7235.00,1.07
7234.00,1.07
7233.00,1.06
7232.00,1.06
7231.00,1.05
7230.00,1.05
7229.00,1.05
7228.00,1.04
7227.00,1.04
7226.00,1.03
7225.00,1.03
7224.00,1.03
7223.00,1.02
7222.00,1.02
7221.00,1.02
7220.00,1.02
7219.00,1.01
7218.00,1.01
7217.00,1.01
7216.00,1.00
7215.00,1.00
7214.00,1.00
7213.00,1.00
7212.00,0.99
7211.00,0.99
7210.00,0.99
7209.00,0.98
7208.00,0.98
7207.00,0.98
7206.00,0.97
7205.00,0.97
7204.00,0.97
7203.00,0.97
7202.00,0.96
7201.00,0.96
7200.00,0.96
7199.00,0.95
7198.00,0.95
7197.00,0.95
7196.00,0.94
7195.00,0.94
7194.00,0.94
7193.00,0.94
7192.00,0.93
7191.00,0.93
7190.00,0.93
7189.00,0.92
7188.00,0.92
7187.00,0.92
7186.00,0.91
7185.00,0.91
7184.00,0.91
7183.00,0.90
7182.00,0.90
7181.00,0.90
7180.00,0.89
7179.00,0.89
7178.00,0.89
7177.00,0.88
7176.00,0.88
7175.00,0.88
7174.00,0.88
7173.00,0.87
7172.00,0.87
7171.00,0.87
7170.00,0.87
7169.00,0.86
7168.00,0.86
7167.00,0.86
7166.00,0.85
7165.00,0.85
7164.00,0.85
7163.00,0.85
7162.00,0.84
7161.00,0.84
7160.00,0.84
7159.00,0.84
7158.00,0.83
7157.00,0.83
7156.00,0.83
7155.00,0.82
7154.00,0.82
7153.00,0.82
7152.00,0.82
7151.00,0.81
7150.00,0.81
7149.00,0.81
7148.00,0.81
7147.00,0.80
7146.00,0.80
7145.00,0.80
7144.00,0.80
7143.00,0.79
7142.00,0.79
7141.00,0.79
7140.00,0.79
7139.00,0.78
7138.00,0.78
7137.00,0.78
7136.00,0.78
7135.00,0.78
7134.00,0.78
7133.00,0.77
7132.00,0.77
7131.00,0.77
7130.00,0.77
7129.00,0.77
7128.00,0.77
7127.00,0.77
7126.00,0.76
7125.00,0.76
7124.00,0.76
7123.00,0.76
7122.00,0.75
7121.00,0.75
7120.00,0.75
7119.00,0.75
7118.00,0.74
7117.00,0.74
7116.00,0.74
7115.00,0.74
7114.00,0.73
7113.00,0.73
7112.00,0.73
7111.00,0.73
7110.00,0.72
7109.00,0.72
7108.00,0.72
7107.00,0.72
7106.00,0.72
7105.00,0.71
7104.00,0.71
7103.00,0.71
7102.00,0.71
7101.00,0.71
7100.00,0.71
7099.00,0.70
7098.00,0.70
7097.00,0.70
7096.00,0.70
7095.00,0.70
7094.00,0.69
7093.00,0.69
7092.00,0.69
7091.00,0.69
7090.00,0.69
7089.00,0.69
7088.00,0.69
7087.00,0.68
7086.00,0.68
7085.00,0.68
7084.00,0.68
7083.00,0.68
7082.00,0.68
7081.00,0.68
7080.00,0.68
7079.00,0.67
7078.00,0.67
7077.00,0.67
7076.00,0.67
7075.00,0.67
7074.00,0.67
7073.00,0.67
7072.00,0.67
7071.00,0.66
7070.00,0.66
7069.00,0.66
7068.00,0.66
7067.00,0.66
7066.00,0.66
7065.00,0.66
7064.00,0.66
7063.00,0.66
7062.00,0.66
7061.00,0.66
7060.00,0.65
7059.00,0.65
7058.00,0.65
7057.00,0.65
7056.00,0.65
7055.00,0.65
7054.00,0.65
7053.00,0.65
7052.00,0.65
7051.00,0.65
7050.00,0.65
7049.00,0.65
7048.00,0.65
7047.00,0.64
7046.00,0.64
7045.00,0.64
7044.00,0.64
7043.00,0.64
7042.00,0.64
7041.00,0.64
7040.00,0.64
7039.00,0.64
7038.00,0.64
7037.00,0.64
7036.00,0.64
7035.00,0.64
7034.00,0.64
7033.00,0.63
7032.00,0.63
7031.00,0.63
7030.00,0.63
7029.00,0.63
7028.00,0.63
7027.00,0.62
7026.00,0.62
7025.00,0.62
7024.00,0.62
7023.00,0.62
7022.00,0.62
7021.00,0.62
7020.00,0.62
7019.00,0.62
7018.00,0.62
7017.00,0.62
7016.00,0.61
7015.00,0.61
7014.00,0.61
7013.00,0.61
7012.00,0.61
7011.00,0.61
7010.00,0.61
7009.00,0.61
7008.00,0.61
7007.00,0.61
7006.00,0.61
7005.00,0.61
7004.00,0.61
7003.00,0.61
7002.00,0.61
7001.00,0.61
7000.00,0.61
6999.00,0.61
6998.00,0.61
6997.00,0.61
6996.00,0.61
6995.00,0.61
6994.00,0.61
6993.00,0.61
6992.00,0.61
6991.00,0.61
6990.00,0.60
6989.00,0.60
6988.00,0.60
6987.00,0.60
6986.00,0.60
6985.00,0.60
6984.00,0.60
6983.00,0.60
6982.00,0.60
6981.00,0.60
6980.00,0.60
6979.00,0.60
6978.00,0.60
6977.00,0.60
6976.00,0.60
6975.00,0.60
6974.00,0.60
6973.00,0.60
6972.00,0.60
6971.00,0.60
6970.00,0.60
6969.00,0.60
6968.00,0.60
6967.00,0.60
6966.00,0.60
6965.00,0.60
6964.00,0.60
6963.00,0.60
6962.00,0.60
6961.00,0.60
6960.00,0.60
6959.00,0.60
6958.00,0.60
6957.00,0.60
6956.00,0.60
6955.00,0.60
6954.00,0.60
6953.00,0.60
6952.00,0.60
6951.00,0.60
6950.00,0.60
6949.00,0.60
6948.00,0.60
6947.00,0.60
6946.00,0.60
6945.00,0.60
6944.00,0.60
6943.00,0.60
6942.00,0.60
6941.00,0.60
6940.00,0.60
6939.00,0.60
6938.00,0.60
6937.00,0.60
6936.00,0.60
6935.00,0.60
6934.00,0.60
6933.00,0.60
6932.00,0.60
6931.00,0.60
6930.00,0.60
6929.00,0.60
6928.00,0.60
6927.00,0.60
6926.00,0.60
6925.00,0.60
6924.00,0.60
6923.00,0.60
6922.00,0.60
6921.00,0.60
6920.00,0.60
6919.00,0.60
6918.00,0.60
6917.00,0.61
6916.00,0.61
6915.00,0.61
6914.00,0.61
6913.00,0.61
6912.00,0.61
6911.00,0.61
6910.00,0.61
6909.00,0.60
6908.00,0.60
6907.00,0.60
6906.00,0.60
6905.00,0.60
6904.00,0.60
6903.00,0.60
6902.00,0.60
6901.00,0.60
6900.00,0.60
6899.00,0.60
6898.00,0.60
6897.00,0.59
6896.00,0.59
6895.00,0.59
6894.00,0.59
6893.00,0.59
6892.00,0.59
6891.00,0.59
6890.00,0.59
6889.00,0.59
6888.00,0.59
6887.00,0.59
6886.00,0.59
6885.00,0.59
6884.00,0.59
6883.00,0.59
6882.00,0.59
6881.00,0.59
6880.00,0.59
6879.00,0.59
6878.00,0.59
6877.00,0.59
6876.00,0.59
6875.00,0.59
6874.00,0.59
6873.00,0.59
6872.00,0.59
6871.00,0.59
6870.00,0.60
6869.00,0.60
6868.00,0.60
6867.00,0.60
6866.00,0.60
6865.00,0.60
6864.00,0.60
6863.00,0.60
6862.00,0.60
6861.00,0.60
6860.00,0.61
6859.00,0.61
6858.00,0.61
6857.00,0.61
6856.00,0.61
6855.00,0.61
6854.00,0.61
6853.00,0.61
6852.00,0.61
6851.00,0.61
6850.00,0.60
6849.00,0.60
6848.00,0.60
6847.00,0.60
6846.00,0.60
6845.00,0.60
6844.00,0.60
6843.00,0.60
6842.00,0.60
6841.00,0.60
6840.00,0.60
6839.00,0.60
6838.00,0.60
6837.00,0.60
6836.00,0.60
6835.00,0.60
6834.00,0.60
6833.00,0.60
6832.00,0.60
6831.00,0.60
6830.00,0.60
6829.00,0.60
6828.00,0.60
6827.00,0.60
6826.00,0.60
6825.00,0.60
6824.00,0.60
6823.00,0.61
6822.00,0.61
6821.00,0.61
6820.00,0.61
6819.00,0.61
6818.00,0.61
6817.00,0.61
6816.00,0.61
6815.00,0.61
6814.00,0.61
6813.00,0.61
6812.00,0.61
6811.00,0.61
6810.00,0.61
6809.00,0.61
6808.00,0.61
6807.00,0.61
6806.00,0.61
6805.00,0.61
6804.00,0.61
6803.00,0.61
6802.00,0.61
6801.00,0.61
6800.00,0.61
6799.00,0.61
6798.00,0.61
6797.00,0.61
6796.00,0.61
6795.00,0.61
6794.00,0.61
6793.00,0.61
6792.00,0.61
6791.00,0.61
6790.00,0.62
6789.00,0.62
6788.00,0.62
6787.00,0.62
6786.00,0.62
6785.00,0.62
6784.00,0.62
6783.00,0.62
6782.00,0.62
6781.00,0.62
6780.00,0.62
6779.00,0.62
6778.00,0.62
6777.00,0.62
6776.00,0.62
6775.00,0.62
6774.00,0.62
6773.00,0.62
6772.00,0.62
6771.00,0.62
6770.00,0.62
6769.00,0.62
6768.00,0.62
6767.00,0.62
6766.00,0.63
6765.00,0.63
6764.00,0.63
6763.00,0.63
6762.00,0.63
6761.00,0.63
6760.00,0.63
6759.00,0.63
6758.00,0.63
6757.00,0.63
6756.00,0.63
6755.00,0.63
6754.00,0.64
6753.00,0.64
6752.00,0.64
6751.00,0.64
6750.00,0.64
6749.00,0.64
6748.00,0.64
6747.00,0.64
6746.00,0.64
6745.00,0.64
6744.00,0.64
6743.00,0.64
6742.00,0.64
6741.00,0.64
6740.00,0.64
6739.00,0.64
6738.00,0.65
6737.00,0.65
6736.00,0.65
6735.00,0.65
6734.00,0.65
6733.00,0.65
6732.00,0.65
6731.00,0.65
6730.00,0.65
6729.00,0.65
6728.00,0.65
6727.00,0.65
6726.00,0.65
6725.00,0.65
6724.00,0.65
6723.00,0.65
6722.00,0.65
6721.00,0.65
6720.00,0.65
6719.00,0.65
6718.00,0.65
6717.00,0.65
6716.00,0.65
6715.00,0.65
6714.00,0.65
6713.00,0.65
6712.00,0.65
6711.00,0.65
6710.00,0.65
6709.00,0.65
6708.00,0.65
6707.00,0.65
6706.00,0.65
6705.00,0.65
6704.00,0.65
6703.00,0.65
6702.00,0.66
6701.00,0.66
6700.00,0.66
6699.00,0.66
6698.00,0.66
6697.00,0.66
6696.00,0.66
6695.00,0.66
6694.00,0.66
6693.00,0.66
6692.00,0.66
6691.00,0.66
6690.00,0.66
6689.00,0.67
6688.00,0.67
6687.00,0.67
6686.00,0.67
6685.00,0.67
6684.00,0.67
6683.00,0.67
6682.00,0.67
6681.00,0.67
6680.00,0.67
6679.00,0.67
6678.00,0.67
6677.00,0.67
6676.00,0.67
6675.00,0.67
6674.00,0.67
6673.00,0.67
6672.00,0.67
6671.00,0.67
6670.00,0.67
6669.00,0.67
6668.00,0.67
6667.00,0.68
6666.00,0.68
6665.00,0.68
6664.00,0.68
6663.00,0.68
6662.00,0.68
6661.00,0.68
6660.00,0.68
6659.00,0.68
6658.00,0.68
6657.00,0.68
6656.00,0.69
6655.00,0.69
6654.00,0.69
6653.00,0.69
6652.00,0.69
6651.00,0.69
6650.00,0.69
6649.00,0.69
6648.00,0.69
6647.00,0.69
6646.00,0.69
6645.00,0.69
6644.00,0.69
6643.00,0.69
6642.00,0.69
6641.00,0.69
6640.00,0.69
6639.00,0.69
6638.00,0.70
6637.00,0.70
6636.00,0.70
6635.00,0.70
6634.00,0.70
6633.00,0.70
6632.00,0.70
6631.00,0.70
6630.00,0.70
6629.00,0.70
6628.00,0.70
6627.00,0.70
6626.00,0.70
6625.00,0.71
6624.00,0.71
6623.00,0.71
6622.00,0.71
6621.00,0.71
6620.00,0.71
6619.00,0.71
6618.00,0.71
6617.00,0.71
6616.00,0.71
6615.00,0.71
6614.00,0.71
6613.00,0.72
6612.00,0.72
6611.00,0.72
6610.00,0.72
6609.00,0.72
6608.00,0.72
6607.00,0.72
6606.00,0.72
6605.00,0.72
6604.00,0.72
6603.00,0.72
6602.00,0.72
6601.00,0.72
6600.00,0.72
6599.00,0.72
6598.00,0.72
6597.00,0.72
6596.00,0.73
6595.00,0.73
6594.00,0.73
6593.00,0.73
6592.00,0.73
6591.00,0.73
6590.00,0.73
6589.00,0.73
6588.00,0.73
6587.00,0.73
6586.00,0.73
6585.00,0.73
6584.00,0.73
6583.00,0.73
6582.00,0.73
6581.00,0.74
6580.00,0.74
6579.00,0.74
6578.00,0.74
6577.00,0.74
6576.00,0.74
6575.00,0.74
6574.00,0.74
6573.00,0.74
6572.00,0.74
6571.00,0.75
6570.00,0.75
6569.00,0.75
6568.00,0.75
6567.00,0.75
6566.00,0.75
6565.00,0.75
6564.00,0.75
6563.00,0.75
6562.00,0.76
6561.00,0.76
6560.00,0.76
6559.00,0.76
6558.00,0.76
6557.00,0.76
6556.00,0.76
6555.00,0.76
6554.00,0.76
6553.00,0.76
6552.00,0.76
6551.00,0.76
6550.00,0.76
6549.00,0.76
6548.00,0.76
6547.00,0.76
6546.00,0.76
6545.00,0.76
6544.00,0.76
6543.00,0.76
6542.00,0.76
6541.00,0.76
6540.00,0.76
6539.00,0.76
6538.00,0.76
6537.00,0.76
6536.00,0.76
6535.00,0.76
6534.00,0.76
6533.00,0.76
6532.00,0.76
6531.00,0.76
6530.00,0.76
6529.00,0.77
6528.00,0.77
6527.00,0.77
6526.00,0.77
6525.00,0.77
6524.00,0.77
6523.00,0.77
6522.00,0.77
6521.00,0.78
6520.00,0.78
6519.00,0.78
6518.00,0.78
6517.00,0.78
6516.00,0.78
6515.00,0.78
6514.00,0.79
6513.00,0.79
6512.00,0.79
6511.00,0.79
6510.00,0.79
6509.00,0.79
6508.00,0.79
6507.00,0.79
6506.00,0.79
6505.00,0.79
6504.00,0.79
6503.00,0.79
6502.00,0.79
6501.00,0.79
6500.00,0.79
6499.00,0.79
6498.00,0.79
6497.00,0.79
6496.00,0.79
6495.00,0.79
6494.00,0.80
6493.00,0.80
6492.00,0.80
6491.00,0.80
6490.00,0.80
6489.00,0.80
6488.00,0.80
6487.00,0.80
6486.00,0.80
6485.00,0.80
6484.00,0.80
6483.00,0.80
6482.00,0.80
6481.00,0.80
6480.00,0.80
6479.00,0.80
6478.00,0.80
6477.00,0.81
6476.00,0.81
6475.00,0.81
6474.00,0.81
6473.00,0.81
6472.00,0.81
6471.00,0.81
6470.00,0.81
6469.00,0.81
6468.00,0.81
6467.00,0.81
6466.00,0.81
6465.00,0.81
6464.00,0.81
6463.00,0.81
6462.00,0.81
6461.00,0.81
6460.00,0.81
6459.00,0.81
6458.00,0.81
6457.00,0.81
6456.00,0.81
6455.00,0.81
6454.00,0.81
6453.00,0.82
6452.00,0.82
6451.00,0.82
6450.00,0.82
6449.00,0.82
6448.00,0.82
6447.00,0.82
6446.00,0.82
6445.00,0.82
6444.00,0.82
6443.00,0.82
6442.00,0.82
6441.00,0.82
6440.00,0.82
6439.00,0.82
6438.00,0.82
6437.00,0.82
6436.00,0.82
6435.00,0.82
6434.00,0.82
6433.00,0.82
6432.00,0.82
6431.00,0.82
6430.00,0.83
6429.00,0.83
6428.00,0.83
6427.00,0.83
6426.00,0.83
6425.00,0.83
6424.00,0.83
6423.00,0.83
6422.00,0.83
6421.00,0.83
6420.00,0.83
6419.00,0.83
6418.00,0.83
6417.00,0.83
6416.00,0.83
6415.00,0.83
6414.00,0.84
6413.00,0.84
6412.00,0.84
6411.00,0.84
6410.00,0.84
6409.00,0.84
6408.00,0.84
6407.00,0.84
6406.00,0.84
6405.00,0.84
6404.00,0.84
6403.00,0.84
6402.00,0.84
6401.00,0.84
6400.00,0.84
6399.00,0.84
6398.00,0.84
6397.00,0.84
6396.00,0.84
6395.00,0.84
6394.00,0.84
6393.00,0.84
6392.00,0.84
6391.00,0.84
6390.00,0.84
6389.00,0.84
6388.00,0.84
6387.00,0.84
6386.00,0.84
6385.00,0.84
6384.00,0.84
6383.00,0.84
6382.00,0.84
6381.00,0.84
6380.00,0.84
6379.00,0.85
6378.00,0.85
6377.00,0.85
6376.00,0.85
6375.00,0.85
6374.00,0.85
6373.00,0.85
6372.00,0.85
6371.00,0.85
6370.00,0.86
6369.00,0.86
6368.00,0.86
6367.00,0.86
6366.00,0.86
6365.00,0.86
6364.00,0.86
6363.00,0.86
6362.00,0.86
6361.00,0.86
6360.00,0.86
6359.00,0.86
6358.00,0.86
6357.00,0.86
6356.00,0.86
6355.00,0.86
6354.00,0.86
6353.00,0.86
6352.00,0.86
6351.00,0.86
6350.00,0.86
6349.00,0.86
6348.00,0.86
6347.00,0.86
6346.00,0.86
6345.00,0.86
6344.00,0.87
6343.00,0.87
6342.00,0.87
6341.00,0.87
6340.00,0.87
6339.00,0.87
6338.00,0.87
6337.00,0.87
6336.00,0.87
6335.00,0.87
6334.00,0.87
6333.00,0.87
6332.00,0.88
6331.00,0.88
6330.00,0.88
6329.00,0.88
6328.00,0.88
6327.00,0.88
6326.00,0.88
6325.00,0.89
6324.00,0.89
6323.00,0.89
6322.00,0.89
6321.00,0.89
6320.00,0.89
6319.00,0.89
6318.00,0.89
6317.00,0.89
6316.00,0.89
6315.00,0.89
6314.00,0.89
6313.00,0.89
6312.00,0.90
6311.00,0.90
6310.00,0.90
6309.00,0.90
6308.00,0.90
6307.00,0.90
6306.00,0.90
6305.00,0.90
6304.00,0.90
6303.00,0.90
6302.00,0.90
6301.00,0.91
6300.00,0.91
6299.00,0.91
6298.00,0.91
6297.00,0.91
6296.00,0.91
6295.00,0.91
6294.00,0.91
6293.00,0.92
6292.00,0.92
6291.00,0.92
6290.00,0.92
6289.00,0.92
6288.00,0.92
6287.00,0.92
6286.00,0.92
6285.00,0.92
6284.00,0.93
6283.00,0.93
6282.00,0.93
6281.00,0.93
6280.00,0.93
6279.00,0.93
6278.00,0.93
6277.00,0.93
6276.00,0.93
6275.00,0.93
6274.00,0.93
6273.00,0.93
6272.00,0.93
6271.00,0.93
6270.00,0.94
6269.00,0.94
6268.00,0.94
6267.00,0.94
6266.00,0.94
6265.00,0.94
6264.00,0.94
6263.00,0.94
6262.00,0.94
6261.00,0.95
6260.00,0.95
6259.00,0.95
6258.00,0.95
6257.00,0.95
6256.00,0.95
6255.00,0.95
6254.00,0.95
6253.00,0.96
6252.00,0.96
6251.00,0.96
6250.00,0.96
6249.00,0.96
6248.00,0.96
6247.00,0.96
6246.00,0.96
6245.00,0.96
6244.00,0.96
6243.00,0.97
6242.00,0.97
6241.00,0.97
6240.00,0.97
6239.00,0.97
6238.00,0.97
6237.00,0.97
6236.00,0.97
6235.00,0.97
6234.00,0.98
6233.00,0.98
6232.00,0.98
6231.00,0.98
6230.00,0.98
6229.00,0.99
6228.00,0.99
6227.00,0.99
6226.00,0.99
6225.00,0.99
6224.00,1.00
6223.00,1.00
6222.00,1.00
6221.00,1.00
6220.00,1.00
6219.00,1.00
6218.00,1.01
6217.00,1.01
6216.00,1.01
6215.00,1.01
6214.00,1.01
6213.00,1.01
6212.00,1.01
6211.00,1.01
6210.00,1.02
6209.00,1.02
6208.00,1.02
6207.00,1.02
6206.00,1.02
6205.00,1.02
6204.00,1.02
6203.00,1.02
6202.00,1.02
6201.00,1.03
6200.00,1.03
6199.00,1.03
6198.00,1.03
6197.00,1.03
6196.00,1.03
6195.00,1.03
6194.00,1.04
6193.00,1.04
6192.00,1.04
6191.00,1.04
6190.00,1.04
6189.00,1.04
6188.00,1.04
6187.00,1.05
6186.00,1.05
6185.00,1.05
6184.00,1.05
6183.00,1.05
6182.00,1.05
6181.00,1.06
6180.00,1.06
6179.00,1.06
6178.00,1.06
6177.00,1.06
6176.00,1.07
6175.00,1.07
6174.00,1.07
6173.00,1.07
6172.00,1.07
6171.00,1.08
6170.00,1.08
6169.00,1.08
6168.00,1.08
6167.00,1.08
6166.00,1.08
6165.00,1.08
6164.00,1.09
6163.00,1.09
6162.00,1.09
6161.00,1.09
6160.00,1.09
6159.00,1.09
6158.00,1.09
6157.00,1.10
6156.00,1.10
6155.00,1.10
6154.00,1.10
6153.00,1.10
6152.00,1.10
6151.00,1.11
6150.00,1.11
6149.00,1.11
6148.00,1.11
6147.00,1.11
6146.00,1.11
6145.00,1.12
6144.00,1.12
6143.00,1.12
6142.00,1.12
6141.00,1.12
6140.00,1.13
6139.00,1.13
6138.00,1.13
6137.00,1.13
6136.00,1.13
6135.00,1.13
6134.00,1.14
6133.00,1.14
6132.00,1.14
6131.00,1.14
6130.00,1.14
6129.00,1.14
6128.00,1.15
6127.00,1.15
6126.00,1.15
6125.00,1.15
6124.00,1.15
6123.00,1.16
6122.00,1.16
6121.00,1.16
6120.00,1.16
6119.00,1.16
6118.00,1.17
6117.00,1.17
6116.00,1.17
6115.00,1.17
6114.00,1.17
6113.00,1.17
6112.00,1.18
6111.00,1.18
6110.00,1.18
6109.00,1.18
6108.00,1.18
6107.00,1.18
6106.00,1.19
6105.00,1.19
6104.00,1.19
6103.00,1.19
6102.00,1.19
6101.00,1.19
6100.00,1.19
6099.00,1.20
6098.00,1.20
6097.00,1.20
6096.00,1.20
6095.00,1.20
6094.00,1.20
6093.00,1.21
6092.00,1.21
6091.00,1.21
6090.00,1.21
6089.00,1.21
6088.00,1.21
6087.00,1.21
6086.00,1.22
6085.00,1.22
6084.00,1.22
6083.00,1.22
6082.00,1.22
6081.00,1.22
6080.00,1.22
6079.00,1.23
6078.00,1.23
6077.00,1.23
6076.00,1.23
6075.00,1.23
6074.00,1.23
6073.00,1.23
6072.00,1.23
6071.00,1.23
6070.00,1.24
6069.00,1.24
6068.00,1.24
6067.00,1.24
6066.00,1.24
6065.00,1.24
6064.00,1.24
6063.00,1.24
6062.00,1.25
6061.00,1.25
6060.00,1.25
6059.00,1.25
6058.00,1.25
6057.00,1.26
6056.00,1.26
6055.00,1.26
6054.00,1.26
6053.00,1.26
6052.00,1.26
6051.00,1.27
6050.00,1.27
6049.00,1.27
6048.00,1.27
6047.00,1.27
6046.00,1.27
6045.00,1.27
6044.00,1.27
6043.00,1.28
6042.00,1.28
6041.00,1.28
6040.00,1.28
6039.00,1.28
6038.00,1.28
6037.00,1.28
6036.00,1.28
6035.00,1.29
6034.00,1.29
6033.00,1.29
6032.00,1.29
6031.00,1.29
6030.00,1.29
6029.00,1.29
6028.00,1.29
6027.00,1.29
6026.00,1.29
6025.00,1.29
6024.00,1.29
6023.00,1.29
6022.00,1.29
6021.00,1.29
6020.00,1.29
6019.00,1.29
6018.00,1.29
6017.00,1.29
6016.00,1.29
6015.00,1.29
6014.00,1.29
6013.00,1.29
6012.00,1.29
6011.00,1.29
6010.00,1.29
6009.00,1.29
6008.00,1.29
6007.00,1.29
6006.00,1.29
6005.00,1.29
6004.00,1.29
6003.00,1.29
6002.00,1.29
6001.00,1.29
6000.00,1.28
5999.00,1.28
5998.00,1.28
5997.00,1.28
5996.00,1.28
5995.00,1.28
5994.00,1.28
5993.00,1.28
5992.00,1.27
5991.00,1.27
5990.00,1.27
5989.00,1.27
5988.00,1.26
5987.00,1.26
5986.00,1.26
5985.00,1.25
5984.00,1.25
5983.00,1.25
5982.00,1.24
5981.00,1.24
5980.00,1.23
5979.00,1.23
5978.00,1.22
5977.00,1.22
5976.00,1.21
5975.00,1.21
5974.00,1.20
5973.00,1.20
5972.00,1.19
5971.00,1.18
5970.00,1.18
5969.00,1.17
5968.00,1.16
5967.00,1.16
5966.00,1.15
5965.00,1.14
5964.00,1.13
5963.00,1.12
5962.00,1.11
5961.00,1.10
5960.00,1.09
5959.00,1.09
5958.00,1.08
5957.00,1.07
5956.00,1.06
5955.00,1.05
5954.00,1.04
5953.00,1.03
5952.00,1.03
5951.00,1.02
5950.00,1.01
5949.00,1.01
5948.00,1.00
5947.00,1.00
5946.00,0.99
5945.00,0.99
5944.00,0.99
5943.00,0.98
5942.00,0.98
5941.00,0.98
5940.00,0.98
5939.00,0.97
5938.00,0.97
5937.00,0.97
5936.00,0.97
5935.00,0.97
5934.00,0.97
5933.00,0.97
5932.00,0.97
5931.00,0.97
5930.00,0.97
5929.00,0.97
5928.00,0.96
5927.00,0.96
5926.00,0.96
5925.00,0.96
5924.00,0.96
5923.00,0.96
5922.00,0.96
5921.00,0.96
5920.00,0.95
5919.00,0.95
5918.00,0.95
5917.00,0.95
5916.00,0.95
5915.00,0.94
5914.00,0.94
5913.00,0.94
5912.00,0.94
5911.00,0.94
5910.00,0.93
5909.00,0.93
5908.00,0.93
5907.00,0.93
5906.00,0.92
5905.00,0.92
5904.00,0.92
5903.00,0.92
5902.00,0.92
5901.00,0.92
5900.00,0.92
5899.00,0.92
5898.00,0.92
5897.00,0.92
5896.00,0.92
5895.00,0.92
5894.00,0.92
5893.00,0.93
5892.00,0.93
5891.00,0.93
5890.00,0.93
5889.00,0.93
5888.00,0.94
5887.00,0.94
5886.00,0.94
5885.00,0.94
5884.00,0.95
5883.00,0.95
5882.00,0.95
5881.00,0.95
5880.00,0.96
5879.00,0.96
5878.00,0.96
5877.00,0.97
5876.00,0.97
5875.00,0.97
5874.00,0.97
5873.00,0.97
5872.00,0.98
5871.00,0.98
5870.00,0.98
5869.00,0.98
5868.00,0.98
5867.00,0.99
5866.00,0.99
5865.00,0.99
5864.00,0.99
5863.00,0.99
5862.00,0.99
5861.00,0.99
5860.00,1.00
5859.00,1.00
5858.00,1.00
5857.00,1.00
5856.00,1.00
5855.00,1.00
5854.00,1.00
5853.00,1.00
5852.00,1.01
5851.00,1.01
5850.00,1.01
5849.00,1.01
5848.00,1.01
5847.00,1.01
5846.00,1.01
5845.00,1.01
5844.00,1.01
5843.00,1.01
5842.00,1.01
5841.00,1.01
5840.00,1.01
5839.00,1.02
5838.00,1.02
5837.00,1.02
5836.00,1.02
5835.00,1.02
5834.00,1.02
5833.00,1.02
5832.00,1.02
5831.00,1.02
5830.00,1.02
5829.00,1.02
5828.00,1.02
5827.00,1.02
5826.00,1.02
5825.00,1.02
5824.00,1.02
5823.00,1.02
5822.00,1.02
5821.00,1.02
5820.00,1.02
5819.00,1.02
5818.00,1.02
5817.00,1.02
5816.00,1.02
5815.00,1.02
5814.00,1.02
5813.00,1.02
5812.00,1.02
5811.00,1.02
5810.00,1.02
5809.00,1.02
5808.00,1.02
5807.00,1.02
5806.00,1.02
5805.00,1.02
5804.00,1.01
5803.00,1.01
5802.00,1.01
5801.00,1.01
5800.00,1.01
5799.00,1.01
5798.00,1.01
5797.00,1.01
5796.00,1.00
5795.00,1.00
5794.00,1.00
5793.00,1.00
5792.00,1.00
5791.00,1.00
5790.00,0.99
5789.00,0.99
5788.00,0.99
5787.00,0.99
5786.00,0.99
5785.00,0.99
5784.00,0.99
5783.00,0.98
5782.00,0.98
5781.00,0.98
5780.00,0.98
5779.00,0.98
5778.00,0.98
5777.00,0.98
5776.00,0.98
5775.00,0.98
5774.00,0.98
5773.00,0.98
5772.00,0.98
5771.00,0.98
5770.00,0.98
5769.00,0.98
5768.00,0.98
5767.00,0.98
5766.00,0.98
5765.00,0.98
5764.00,0.98
5763.00,0.98
5762.00,0.99
5761.00,0.99
5760.00,0.99
5759.00,0.99
5758.00,1.00
5757.00,1.00
5756.00,1.00
5755.00,1.01
5754.00,1.01
5753.00,1.01
5752.00,1.02
5751.00,1.02
5750.00,1.02
5749.00,1.03
5748.00,1.03
5747.00,1.04
5746.00,1.04
5745.00,1.04
5744.00,1.05
5743.00,1.05
5742.00,1.05
5741.00,1.06
5740.00,1.06
5739.00,1.06
5738.00,1.06
5737.00,1.07
5736.00,1.07
5735.00,1.07
5734.00,1.08
5733.00,1.08
5732.00,1.08
5731.00,1.08
5730.00,1.09
5729.00,1.09
5728.00,1.09
5727.00,1.09
5726.00,1.10
5725.00,1.10
5724.00,1.10
5723.00,1.10
5722.00,1.10
5721.00,1.11
5720.00,1.11
5719.00,1.11
5718.00,1.11
5717.00,1.11
5716.00,1.11
5715.00,1.11
5714.00,1.11
5713.00,1.11
5712.00,1.11
5711.00,1.11
5710.00,1.11
5709.00,1.11
5708.00,1.11
5707.00,1.11
5706.00,1.11
5705.00,1.11
5704.00,1.11
5703.00,1.10
5702.00,1.10
5701.00,1.10
5700.00,1.10
5699.00,1.10
5698.00,1.10
5697.00,1.10
5696.00,1.09
5695.00,1.09
5694.00,1.09
5693.00,1.09
5692.00,1.09
5691.00,1.09
5690.00,1.09
5689.00,1.08
5688.00,1.08
5687.00,1.08
5686.00,1.08
5685.00,1.08
5684.00,1.08
5683.00,1.08
5682.00,1.08
5681.00,1.08
5680.00,1.08
5679.00,1.08
5678.00,1.07
5677.00,1.07
5676.00,1.07
5675.00,1.07
5674.00,1.07
5673.00,1.07
5672.00,1.07
5671.00,1.07
5670.00,1.07
5669.00,1.07
5668.00,1.07
5667.00,1.08
5666.00,1.08
5665.00,1.08
5664.00,1.08
5663.00,1.08
5662.00,1.08
5661.00,1.09
5660.00,1.09
5659.00,1.09
5658.00,1.09
5657.00,1.09
5656.00,1.10
5655.00,1.10
5654.00,1.10
5653.00,1.10
5652.00,1.11
5651.00,1.11
5650.00,1.11
5649.00,1.11
5648.00,1.11
5647.00,1.12
5646.00,1.12
5645.00,1.12
5644.00,1.12
5643.00,1.13
5642.00,1.13
5641.00,1.13
5640.00,1.13
5639.00,1.14
5638.00,1.14
5637.00,1.14
5636.00,1.14
5635.00,1.15
5634.00,1.15
5633.00,1.15
5632.00,1.16
5631.00,1.16
5630.00,1.16
5629.00,1.16
5628.00,1.17
5627.00,1.17
5626.00,1.17
5625.00,1.17
5624.00,1.17
5623.00,1.18
5622.00,1.18
5621.00,1.18
5620.00,1.18
5619.00,1.19
5618.00,1.19
5617.00,1.19
5616.00,1.19
5615.00,1.19
5614.00,1.20
5613.00,1.20
5612.00,1.20
5611.00,1.20
5610.00,1.20
5609.00,1.21
5608.00,1.21
5607.00,1.21
5606.00,1.21
5605.00,1.21
5604.00,1.21
5603.00,1.22
5602.00,1.22
5601.00,1.22
5600.00,1.22
5599.00,1.22
5598.00,1.23
5597.00,1.23
5596.00,1.23
5595.00,1.23
5594.00,1.23
5593.00,1.24
5592.00,1.24
5591.00,1.24
5590.00,1.24
5589.00,1.24
5588.00,1.25
5587.00,1.25
5586.00,1.25
5585.00,1.25
5584.00,1.26
5583.00,1.26
5582.00,1.26
5581.00,1.26
5580.00,1.26
5579.00,1.27
5578.00,1.27
5577.00,1.27
5576.00,1.27
5575.00,1.27
5574.00,1.28
5573.00,1.28
5572.00,1.28
5571.00,1.28
5570.00,1.28
5569.00,1.28
5568.00,1.29
5567.00,1.29
5566.00,1.29
5565.00,1.29
5564.00,1.29
5563.00,1.30
5562.00,1.30
5561.00,1.30
5560.00,1.30
5559.00,1.30
5558.00,1.31
5557.00,1.31
5556.00,1.31
5555.00,1.31
5554.00,1.31
5553.00,1.31
5552.00,1.32
5551.00,1.32
5550.00,1.32
5549.00,1.32
5548.00,1.32
5547.00,1.32
5546.00,1.32
5545.00,1.33
5544.00,1.33
5543.00,1.33
5542.00,1.33
5541.00,1.33
5540.00,1.33
5539.00,1.33
5538.00,1.33
5537.00,1.34
5536.00,1.34
5535.00,1.34
5534.00,1.34
5533.00,1.34
5532.00,1.34
5531.00,1.34
5530.00,1.34
5529.00,1.34
5528.00,1.34
5527.00,1.34
5526.00,1.34
5525.00,1.35
5524.00,1.35
5523.00,1.35
5522.00,1.35
5521.00,1.35
5520.00,1.35
5519.00,1.35
5518.00,1.35
5517.00,1.35
5516.00,1.36
5515.00,1.36
5514.00,1.36
5513.00,1.36
5512.00,1.36
5511.00,1.36
5510.00,1.37
5509.00,1.37
5508.00,1.37
5507.00,1.37
5506.00,1.37
5505.00,1.37
5504.00,1.37
5503.00,1.37
5502.00,1.37
5501.00,1.37
5500.00,1.37
5499.00,1.37
5498.00,1.37
5497.00,1.37
5496.00,1.37
5495.00,1.37
5494.00,1.37
5493.00,1.38
5492.00,1.38
5491.00,1.38
5490.00,1.38
5489.00,1.38
5488.00,1.38
5487.00,1.39
5486.00,1.39
5485.00,1.39
5484.00,1.39
5483.00,1.39
5482.00,1.40
5481.00,1.40
5480.00,1.40
5479.00,1.40
5478.00,1.40
5477.00,1.41
5476.00,1.41
5475.00,1.41
5474.00,1.41
5473.00,1.41
5472.00,1.41
5471.00,1.42
5470.00,1.42
5469.00,1.42
5468.00,1.42
5467.00,1.42
5466.00,1.42
5465.00,1.43
5464.00,1.43
5463.00,1.43
5462.00,1.43
5461.00,1.43
5460.00,1.43
5459.00,1.43
5458.00,1.44
5457.00,1.44
5456.00,1.44
5455.00,1.44
5454.00,1.44
5453.00,1.44
5452.00,1.44
5451.00,1.44
5450.00,1.44
5449.00,1.44
5448.00,1.44
5447.00,1.44
5446.00,1.44
5445.00,1.44
5444.00,1.44
5443.00,1.44
5442.00,1.44
5441.00,1.44
5440.00,1.44
5439.00,1.45
5438.00,1.45
5437.00,1.45
5436.00,1.45
5435.00,1.45
5434.00,1.45
5433.00,1.45
5432.00,1.45
5431.00,1.46
5430.00,1.46
5429.00,1.46
5428.00,1.46
5427.00,1.46
5426.00,1.46
5425.00,1.46
5424.00,1.46
5423.00,1.46
5422.00,1.46
5421.00,1.46
5420.00,1.46
5419.00,1.46
5418.00,1.47
5417.00,1.47
5416.00,1.47
5415.00,1.47
5414.00,1.47
5413.00,1.47
5412.00,1.47
5411.00,1.47
5410.00,1.47
5409.00,1.47
5408.00,1.47
5407.00,1.47
5406.00,1.47
5405.00,1.47
5404.00,1.47
5403.00,1.47
5402.00,1.47
5401.00,1.47
5400.00,1.47
5399.00,1.47
5398.00,1.47
5397.00,1.47
5396.00,1.47
5395.00,1.47
5394.00,1.47
5393.00,1.47
5392.00,1.47
5391.00,1.46
5390.00,1.46
5389.00,1.46
5388.00,1.46
5387.00,1.45
5386.00,1.45
5385.00,1.45
5384.00,1.45
5383.00,1.44
5382.00,1.44
5381.00,1.44
5380.00,1.43
5379.00,1.43
5378.00,1.43
5377.00,1.42
5376.00,1.42
5375.00,1.42
5374.00,1.41
5373.00,1.41
5372.00,1.40
5371.00,1.40
5370.00,1.39
5369.00,1.39
5368.00,1.38
5367.00,1.37
5366.00,1.37
5365.00,1.36
5364.00,1.35
5363.00,1.35
5362.00,1.34
5361.00,1.33
5360.00,1.32
5359.00,1.32
5358.00,1.31
5357.00,1.30
5356.00,1.29
5355.00,1.28
5354.00,1.27
5353.00,1.26
5352.00,1.25
5351.00,1.24
5350.00,1.24
5349.00,1.23
5348.00,1.22
5347.00,1.21
5346.00,1.20
5345.00,1.19
5344.00,1.18
5343.00,1.17
5342.00,1.16
5341.00,1.15
5340.00,1.14
5339.00,1.13
5338.00,1.13
5337.00,1.12
5336.00,1.11
5335.00,1.10
5334.00,1.09
5333.00,1.08
5332.00,1.07
5331.00,1.06
5330.00,1.06
5329.00,1.05
5328.00,1.04
5327.00,1.03
5326.00,1.02
5325.00,1.02
5324.00,1.01
5323.00,1.00
5322.00,0.99
5321.00,0.99
5320.00,0.98
5319.00,0.97
5318.00,0.97
5317.00,0.96
5316.00,0.95
5315.00,0.95
5314.00,0.94
5313.00,0.93
5312.00,0.93
5311.00,0.92
5310.00,0.92
5309.00,0.91
5308.00,0.91
5307.00,0.90
5306.00,0.90
5305.00,0.89
5304.00,0.89
5303.00,0.89
5302.00,0.88
5301.00,0.88
5300.00,0.88
5299.00,0.88
5298.00,0.87
5297.00,0.87
5296.00,0.87
5295.00,0.87
5294.00,0.87
5293.00,0.87
5292.00,0.87
5291.00,0.87
5290.00,0.87
5289.00,0.87
5288.00,0.87
5287.00,0.87
5286.00,0.87
5285.00,0.87
5284.00,0.87
5283.00,0.87
5282.00,0.87
5281.00,0.87
5280.00,0.87
5279.00,0.87
5278.00,0.87
5277.00,0.87
5276.00,0.87
5275.00,0.87
5274.00,0.87
5273.00,0.87
5272.00,0.87
5271.00,0.87
5270.00,0.87
5269.00,0.87
5268.00,0.87
5267.00,0.87
5266.00,0.87
5265.00,0.87
5264.00,0.87
5263.00,0.87
5262.00,0.87
5261.00,0.87
5260.00,0.87
5259.00,0.87
5258.00,0.87
5257.00,0.87
5256.00,0.87
5255.00,0.87
5254.00,0.87
5253.00,0.87
5252.00,0.87
5251.00,0.87
5250.00,0.87
5249.00,0.87
5248.00,0.87
5247.00,0.87
5246.00,0.87
5245.00,0.87
5244.00,0.87
5243.00,0.87
5242.00,0.87
5241.00,0.87
5240.00,0.87
5239.00,0.87
5238.00,0.87
5237.00,0.87
5236.00,0.87
5235.00,0.87
5234.00,0.87
5233.00,0.87
5232.00,0.87
5231.00,0.87
5230.00,0.87
5229.00,0.87
5228.00,0.87
5227.00,0.87
5226.00,0.87
5225.00,0.87
5224.00,0.87
5223.00,0.87
5222.00,0.87
5221.00,0.87
5220.00,0.87
5219.00,0.87
5218.00,0.87
5217.00,0.87
5216.00,0.87
5215.00,0.87
5214.00,0.88
5213.00,0.88
5212.00,0.88
5211.00,0.88
5210.00,0.88
5209.00,0.88
5208.00,0.88
5207.00,0.88
5206.00,0.88
5205.00,0.88
5204.00,0.88
5203.00,0.88
5202.00,0.89
5201.00,0.89
5200.00,0.89
5199.00,0.89
5198.00,0.89
5197.00,0.89
5196.00,0.89
5195.00,0.89
5194.00,0.89
5193.00,0.89
5192.00,0.89
5191.00,0.89
5190.00,0.89
5189.00,0.89
5188.00,0.89
5187.00,0.89
5186.00,0.89
5185.00,0.89
5184.00,0.89
5183.00,0.89
5182.00,0.89
5181.00,0.89
5180.00,0.89
5179.00,0.89
5178.00,0.90
5177.00,0.90
5176.00,0.90
5175.00,0.90
5174.00,0.90
5173.00,0.90
5172.00,0.90
5171.00,0.90
5170.00,0.90
5169.00,0.90
5168.00,0.90
5167.00,0.90
5166.00,0.90
5165.00,0.90
5164.00,0.90
5163.00,0.90
5162.00,0.90
5161.00,0.90
5160.00,0.90
5159.00,0.90
5158.00,0.90
5157.00,0.90
5156.00,0.90
5155.00,0.90
5154.00,0.90
5153.00,0.90
5152.00,0.90
5151.00,0.90
5150.00,0.90
5149.00,0.90
5148.00,0.90
5147.00,0.90
5146.00,0.90
5145.00,0.90
5144.00,0.91
5143.00,0.91
5142.00,0.91
5141.00,0.91
5140.00,0.91
5139.00,0.91
5138.00,0.91
5137.00,0.91
5136.00,0.91
5135.00,0.91
5134.00,0.91
5133.00,0.91
5132.00,0.91
5131.00,0.91
5130.00,0.91
5129.00,0.91
5128.00,0.92
5127.00,0.92
5126.00,0.92
5125.00,0.92
5124.00,0.92
5123.00,0.92
5122.00,0.92
5121.00,0.92
5120.00,0.92
5119.00,0.92
5118.00,0.92
5117.00,0.92
5116.00,0.92
5115.00,0.92
5114.00,0.92
5113.00,0.92
5112.00,0.92
5111.00,0.92
5110.00,0.92
5109.00,0.92
5108.00,0.92
5107.00,0.92
5106.00,0.92
5105.00,0.92
5104.00,0.92
5103.00,0.92
5102.00,0.92
5101.00,0.92
5100.00,0.92
5099.00,0.92
5098.00,0.92
5097.00,0.92
5096.00,0.92
5095.00,0.92
5094.00,0.92
5093.00,0.92
5092.00,0.92
5091.00,0.92
5090.00,0.92
5089.00,0.92
5088.00,0.92
5087.00,0.92
5086.00,0.92
5085.00,0.93
5084.00,0.93
5083.00,0.93
5082.00,0.93
5081.00,0.93
5080.00,0.93
5079.00,0.93
5078.00,0.93
5077.00,0.93
5076.00,0.93
5075.00,0.93
5074.00,0.93
5073.00,0.93
5072.00,0.93
5071.00,0.94
5070.00,0.94
5069.00,0.94
5068.00,0.94
5067.00,0.94
5066.00,0.94
5065.00,0.94
5064.00,0.94
5063.00,0.94
5062.00,0.94
5061.00,0.94
5060.00,0.94
5059.00,0.94
5058.00,0.94
5057.00,0.94
5056.00,0.94
5055.00,0.94
5054.00,0.95
5053.00,0.95
5052.00,0.95
5051.00,0.95
5050.00,0.95
5049.00,0.95
5048.00,0.95
5047.00,0.95
5046.00,0.95
5045.00,0.95
5044.00,0.95
5043.00,0.95
5042.00,0.95
5041.00,0.95
5040.00,0.95
5039.00,0.95
5038.00,0.95
5037.00,0.95
5036.00,0.95
5035.00,0.95
5034.00,0.95
5033.00,0.95
5032.00,0.96
5031.00,0.96
5030.00,0.96
5029.00,0.96
5028.00,0.96
5027.00,0.96
5026.00,0.96
5025.00,0.96
5024.00,0.96
5023.00,0.96
5022.00,0.96
5021.00,0.96
5020.00,0.96
5019.00,0.96
5018.00,0.96
5017.00,0.96
5016.00,0.96
5015.00,0.96
5014.00,0.96
5013.00,0.97
5012.00,0.97
5011.00,0.97
5010.00,0.97
5009.00,0.97
5008.00,0.97
5007.00,0.97
5006.00,0.97
5005.00,0.97
5004.00,0.97
5003.00,0.97
5002.00,0.98
5001.00,0.98
5000.00,0.98
4999.00,0.98
4998.00,0.98
4997.00,0.98
4996.00,0.98
4995.00,0.98
4994.00,0.98
4993.00,0.98
4992.00,0.98
4991.00,0.98
4990.00,0.98
4989.00,0.98
4988.00,0.98
4987.00,0.98
4986.00,0.98
4985.00,0.98
4984.00,0.98
4983.00,0.98
4982.00,0.99
4981.00,0.99
4980.00,0.99
4979.00,0.99
4978.00,0.99
4977.00,0.99
4976.00,0.99
4975.00,0.99
4974.00,1.00
4973.00,1.00
4972.00,1.00
4971.00,1.00
4970.00,1.00
4969.00,1.00
4968.00,1.00
4967.00,1.00
4966.00,1.00
4965.00,1.00
4964.00,1.00
4963.00,1.00
4962.00,1.00
4961.00,1.00
4960.00,1.00
4959.00,1.00
4958.00,1.00
4957.00,1.00
4956.00,1.00
4955.00,1.00
4954.00,1.00
4953.00,1.00
4952.00,1.00
4951.00,1.00
4950.00,1.00
4949.00,1.01
4948.00,1.01
4947.00,1.01
4946.00,1.01
4945.00,1.01
4944.00,1.01
4943.00,1.01
4942.00,1.01
4941.00,1.01
4940.00,1.01
4939.00,1.01
4938.00,1.01
4937.00,1.01
4936.00,1.01
4935.00,1.01
4934.00,1.01
4933.00,1.01
4932.00,1.01
4931.00,1.01
4930.00,1.01
4929.00,1.01
4928.00,1.01
4927.00,1.01
4926.00,1.01
4925.00,1.01
4924.00,1.01
4923.00,1.01
4922.00,1.02
4921.00,1.02
4920.00,1.02
4919.00,1.02
4918.00,1.02
4917.00,1.02
4916.00,1.02
4915.00,1.02
4914.00,1.02
4913.00,1.02
4912.00,1.02
4911.00,1.02
4910.00,1.03
4909.00,1.03
4908.00,1.03
4907.00,1.03
4906.00,1.03
4905.00,1.03
4904.00,1.03
4903.00,1.03
4902.00,1.03
4901.00,1.03
4900.00,1.04
4899.00,1.04
4898.00,1.04
4897.00,1.04
4896.00,1.04
4895.00,1.04
4894.00,1.04
4893.00,1.03
4892.00,1.03
4891.00,1.03
4890.00,1.03
4889.00,1.03
4888.00,1.03
4887.00,1.03
4886.00,1.03
4885.00,1.03
4884.00,1.03
4883.00,1.03
4882.00,1.03
4881.00,1.03
4880.00,1.03
4879.00,1.03
4878.00,1.04
4877.00,1.04
4876.00,1.04
4875.00,1.04
4874.00,1.04
4873.00,1.04
4872.00,1.04
4871.00,1.04
4870.00,1.04
4869.00,1.04
4868.00,1.04
4867.00,1.04
4866.00,1.04
4865.00,1.04
4864.00,1.04
4863.00,1.04
4862.00,1.04
4861.00,1.05
4860.00,1.05
4859.00,1.05
4858.00,1.05
4857.00,1.05
4856.00,1.05
4855.00,1.05
4854.00,1.05
4853.00,1.05
4852.00,1.05
4851.00,1.05
4850.00,1.05
4849.00,1.05
4848.00,1.05
4847.00,1.05
4846.00,1.05
4845.00,1.05
4844.00,1.05
4843.00,1.05
4842.00,1.05
4841.00,1.05
4840.00,1.05
4839.00,1.05
4838.00,1.05
4837.00,1.05
4836.00,1.05
4835.00,1.05
4834.00,1.05
4833.00,1.05
4832.00,1.05
4831.00,1.05
4830.00,1.05
4829.00,1.05
4828.00,1.05
4827.00,1.05
4826.00,1.05
4825.00,1.05
4824.00,1.05
4823.00,1.06
4822.00,1.06
4821.00,1.06
4820.00,1.06
4819.00,1.06
4818.00,1.07
4817.00,1.07
4816.00,1.07
4815.00,1.07
4814.00,1.07
4813.00,1.07
4812.00,1.08
4811.00,1.08
4810.00,1.08
4809.00,1.08
4808.00,1.08
4807.00,1.08
4806.00,1.08
4805.00,1.08
4804.00,1.08
4803.00,1.08
4802.00,1.08
4801.00,1.08
4800.00,1.08
4799.00,1.08
4798.00,1.08
4797.00,1.08
4796.00,1.08
4795.00,1.08
4794.00,1.08
4793.00,1.08
4792.00,1.08
4791.00,1.08
4790.00,1.08
4789.00,1.08
4788.00,1.08
4787.00,1.08
4786.00,1.08
4785.00,1.08
4784.00,1.08
4783.00,1.08
4782.00,1.08
4781.00,1.08
4780.00,1.08
4779.00,1.08
4778.00,1.08
4777.00,1.09
4776.00,1.09
4775.00,1.09
4774.00,1.09
4773.00,1.09
4772.00,1.09
4771.00,1.09
4770.00,1.09
4769.00,1.10
4768.00,1.10
4767.00,1.10
4766.00,1.10
4765.00,1.10
4764.00,1.10
4763.00,1.10
4762.00,1.10
4761.00,1.11
4760.00,1.11
4759.00,1.11
4758.00,1.11
4757.00,1.11
4756.00,1.11
4755.00,1.11
4754.00,1.11
4753.00,1.11
4752.00,1.11
4751.00,1.11
4750.00,1.12
4749.00,1.12
4748.00,1.12
4747.00,1.12
4746.00,1.12
4745.00,1.12
4744.00,1.12
4743.00,1.12
4742.00,1.12
4741.00,1.12
4740.00,1.12
4739.00,1.12
4738.00,1.12
4737.00,1.12
4736.00,1.12
4735.00,1.12
4734.00,1.12
4733.00,1.13
4732.00,1.13
4731.00,1.13
4730.00,1.13
4729.00,1.13
4728.00,1.13
4727.00,1.13
4726.00,1.13
4725.00,1.13
4724.00,1.13
4723.00,1.13
4722.00,1.13
4721.00,1.13
4720.00,1.14
4719.00,1.14
4718.00,1.14
4717.00,1.14
4716.00,1.14
4715.00,1.14
4714.00,1.14
4713.00,1.14
4712.00,1.14
4711.00,1.14
4710.00,1.15
4709.00,1.15
4708.00,1.15
4707.00,1.15
4706.00,1.15
4705.00,1.15
4704.00,1.15
4703.00,1.15
4702.00,1.15
4701.00,1.15
4700.00,1.15
4699.00,1.15
4698.00,1.15
4697.00,1.15
4696.00,1.15
4695.00,1.15
4694.00,1.15
4693.00,1.15
4692.00,1.16
4691.00,1.16
4690.00,1.16
4689.00,1.16
4688.00,1.16
4687.00,1.16
4686.00,1.16
4685.00,1.16
4684.00,1.17
4683.00,1.17
4682.00,1.17
4681.00,1.17
4680.00,1.17
4679.00,1.18
4678.00,1.18
4677.00,1.18
4676.00,1.18
4675.00,1.18
4674.00,1.18
4673.00,1.19
4672.00,1.19
4671.00,1.19
4670.00,1.19
4669.00,1.19
4668.00,1.19
4667.00,1.19
4666.00,1.19
4665.00,1.19
4664.00,1.19
4663.00,1.19
4662.00,1.19
4661.00,1.19
4660.00,1.19
4659.00,1.19
4658.00,1.20
4657.00,1.20
4656.00,1.20
4655.00,1.20
4654.00,1.20
4653.00,1.20
4652.00,1.20
4651.00,1.20
4650.00,1.20
4649.00,1.20
4648.00,1.20
4647.00,1.20
4646.00,1.20
4645.00,1.20
4644.00,1.20
4643.00,1.21
4642.00,1.21
4641.00,1.21
4640.00,1.21
4639.00,1.21
4638.00,1.21
4637.00,1.21
4636.00,1.21
4635.00,1.21
4634.00,1.21
4633.00,1.22
4632.00,1.22
4631.00,1.22
4630.00,1.22
4629.00,1.22
4628.00,1.22
4627.00,1.22
4626.00,1.22
4625.00,1.23
4624.00,1.23
4623.00,1.23
4622.00,1.23
4621.00,1.23
4620.00,1.23
4619.00,1.23
4618.00,1.23
4617.00,1.23
4616.00,1.23
4615.00,1.23
4614.00,1.24
4613.00,1.24
4612.00,1.24
4611.00,1.24
4610.00,1.24
4609.00,1.24
4608.00,1.24
4607.00,1.24
4606.00,1.24
4605.00,1.24
4604.00,1.24
4603.00,1.24
4602.00,1.24
4601.00,1.24
4600.00,1.24
4599.00,1.24
4598.00,1.24
4597.00,1.24
4596.00,1.24
4595.00,1.24
4594.00,1.24
4593.00,1.24
4592.00,1.24
4591.00,1.24
4590.00,1.24
4589.00,1.25
4588.00,1.25
4587.00,1.25
4586.00,1.25
4585.00,1.25
4584.00,1.25
4583.00,1.25
4582.00,1.25
4581.00,1.25
4580.00,1.25
4579.00,1.25
4578.00,1.25
4577.00,1.25
4576.00,1.25
4575.00,1.26
4574.00,1.26
4573.00,1.26
4572.00,1.26
4571.00,1.26
4570.00,1.26
4569.00,1.26
4568.00,1.26
4567.00,1.26
4566.00,1.26
4565.00,1.26
4564.00,1.26
4563.00,1.26
4562.00,1.26
4561.00,1.26
4560.00,1.26
4559.00,1.26
4558.00,1.26
4557.00,1.26
4556.00,1.26
4555.00,1.26
4554.00,1.26
4553.00,1.26
4552.00,1.26
4551.00,1.26
4550.00,1.26
4549.00,1.26
4548.00,1.26
4547.00,1.26
4546.00,1.26
4545.00,1.26
4544.00,1.26
4543.00,1.26
4542.00,1.26
4541.00,1.26
4540.00,1.26
4539.00,1.26
4538.00,1.26
4537.00,1.26
4536.00,1.26
4535.00,1.26
4534.00,1.26
4533.00,1.26
4532.00,1.26
4531.00,1.26
4530.00,1.26
4529.00,1.26
4528.00,1.26
4527.00,1.26
4526.00,1.26
4525.00,1.26
4524.00,1.26
4523.00,1.26
4522.00,1.26
4521.00,1.26
4520.00,1.26
4519.00,1.26
4518.00,1.26
4517.00,1.26
4516.00,1.26
4515.00,1.26
4514.00,1.26
4513.00,1.26
4512.00,1.26
4511.00,1.26
4510.00,1.26
4509.00,1.26
4508.00,1.26
4507.00,1.27
4506.00,1.27
4505.00,1.27
4504.00,1.27
4503.00,1.27
4502.00,1.27
4501.00,1.27
4500.00,1.27
4499.00,1.27
4498.00,1.27
4497.00,1.27
4496.00,1.27
4495.00,1.27
4494.00,1.27
4493.00,1.27
4492.00,1.27
4491.00,1.27
4490.00,1.27
4489.00,1.27
4488.00,1.27
4487.00,1.27
4486.00,1.27
4485.00,1.27
4484.00,1.26
4483.00,1.26
4482.00,1.26
4481.00,1.26
4480.00,1.26
4479.00,1.26
4478.00,1.26
4477.00,1.26
4476.00,1.26
4475.00,1.26
4474.00,1.26
4473.00,1.25
4472.00,1.25
4471.00,1.25
4470.00,1.25
4469.00,1.25
4468.00,1.25
4467.00,1.25
4466.00,1.25
4465.00,1.25
4464.00,1.25
4463.00,1.25
4462.00,1.25
4461.00,1.25
4460.00,1.25
4459.00,1.25
4458.00,1.25
4457.00,1.25
4456.00,1.25
4455.00,1.25
4454.00,1.25
4453.00,1.25
4452.00,1.25
4451.00,1.25
4450.00,1.25
4449.00,1.25
4448.00,1.24
4447.00,1.24
4446.00,1.24
4445.00,1.24
4444.00,1.24
4443.00,1.24
4442.00,1.24
4441.00,1.24
4440.00,1.24
4439.00,1.24
4438.00,1.24
4437.00,1.24
4436.00,1.24
4435.00,1.24
4434.00,1.24
4433.00,1.24
4432.00,1.24
4431.00,1.24
4430.00,1.24
4429.00,1.24
4428.00,1.24
4427.00,1.24
4426.00,1.24
4425.00,1.24
4424.00,1.24
4423.00,1.24
4422.00,1.24
4421.00,1.24
4420.00,1.24
4419.00,1.24
4418.00,1.24
4417.00,1.24
4416.00,1.24
4415.00,1.25
4414.00,1.25
4413.00,1.25
4412.00,1.25
4411.00,1.25
4410.00,1.25
4409.00,1.25
4408.00,1.25
4407.00,1.25
4406.00,1.25
4405.00,1.25
4404.00,1.25
4403.00,1.25
4402.00,1.25
4401.00,1.25
4400.00,1.25
4399.00,1.25
4398.00,1.25
4397.00,1.25
4396.00,1.25
4395.00,1.25
4394.00,1.25
4393.00,1.25
4392.00,1.25
4391.00,1.25
4390.00,1.25
4389.00,1.25
4388.00,1.25
4387.00,1.25
4386.00,1.25
4385.00,1.25
4384.00,1.25
4383.00,1.25
4382.00,1.25
4381.00,1.25
4380.00,1.26
4379.00,1.26
4378.00,1.26
4377.00,1.26
4376.00,1.26
4375.00,1.26
4374.00,1.26
4373.00,1.26
4372.00,1.26
4371.00,1.26
4370.00,1.26
4369.00,1.26
4368.00,1.26
4367.00,1.26
4366.00,1.27
4365.00,1.27
4364.00,1.27
4363.00,1.27
4362.00,1.27
4361.00,1.27
4360.00,1.27
4359.00,1.27
4358.00,1.27
4357.00,1.27
4356.00,1.27
4355.00,1.27
4354.00,1.27
4353.00,1.27
4352.00,1.27
4351.00,1.27
4350.00,1.27
4349.00,1.27
4348.00,1.27
4347.00,1.27
4346.00,1.27
4345.00,1.27
4344.00,1.27
4343.00,1.27
4342.00,1.27
4341.00,1.27
4340.00,1.28
4339.00,1.28
4338.00,1.28
4337.00,1.28
4336.00,1.28
4335.00,1.28
4334.00,1.28
4333.00,1.29
4332.00,1.29
4331.00,1.29
4330.00,1.29
4329.00,1.29
4328.00,1.29
4327.00,1.30
4326.00,1.30
4325.00,1.30
4324.00,1.30
4323.00,1.30
4322.00,1.30
4321.00,1.30
4320.00,1.30
4319.00,1.31
4318.00,1.31
4317.00,1.31
4316.00,1.31
4315.00,1.31
4314.00,1.31
4313.00,1.31
4312.00,1.31
4311.00,1.31
4310.00,1.31
4309.00,1.31
4308.00,1.31
4307.00,1.31
4306.00,1.31
4305.00,1.31
4304.00,1.31
4303.00,1.31
4302.00,1.31
4301.00,1.31
4300.00,1.31
4299.00,1.31
4298.00,1.31
4297.00,1.31
4296.00,1.31
4295.00,1.31
4294.00,1.32
4293.00,1.32
4292.00,1.32
4291.00,1.32
4290.00,1.32
4289.00,1.32
4288.00,1.32
4287.00,1.32
4286.00,1.32
4285.00,1.32
4284.00,1.32
4283.00,1.32
4282.00,1.32
4281.00,1.32
4280.00,1.32
4279.00,1.32
4278.00,1.32
4277.00,1.32
4276.00,1.33
4275.00,1.33
4274.00,1.33
4273.00,1.33
4272.00,1.33
4271.00,1.33
4270.00,1.33
4269.00,1.33
4268.00,1.33
4267.00,1.33
4266.00,1.33
4265.00,1.33
4264.00,1.33
4263.00,1.33
4262.00,1.33
4261.00,1.33
4260.00,1.33
4259.00,1.34
4258.00,1.34
4257.00,1.34
4256.00,1.34
4255.00,1.34
4254.00,1.34
4253.00,1.34
4252.00,1.34
4251.00,1.34
4250.00,1.34
4249.00,1.34
4248.00,1.34
4247.00,1.34
4246.00,1.34
4245.00,1.34
4244.00,1.34
4243.00,1.34
4242.00,1.34
4241.00,1.34
4240.00,1.34
4239.00,1.34
4238.00,1.34
4237.00,1.34
4236.00,1.34
4235.00,1.34
4234.00,1.35
4233.00,1.35
4232.00,1.35
4231.00,1.35
4230.00,1.35
4229.00,1.35
4228.00,1.35
4227.00,1.35
4226.00,1.35
4225.00,1.35
4224.00,1.35
4223.00,1.35
4222.00,1.36
4221.00,1.36
4220.00,1.36
4219.00,1.36
4218.00,1.36
4217.00,1.36
4216.00,1.36
4215.00,1.37
4214.00,1.37
4213.00,1.37
4212.00,1.37
4211.00,1.37
4210.00,1.37
4209.00,1.37
4208.00,1.37
4207.00,1.37
4206.00,1.37
4205.00,1.37
4204.00,1.38
4203.00,1.38
4202.00,1.38
4201.00,1.38
4200.00,1.38
4199.00,1.38
4198.00,1.38
4197.00,1.38
4196.00,1.39
4195.00,1.39
4194.00,1.39
4193.00,1.39
4192.00,1.39
4191.00,1.39
4190.00,1.39
4189.00,1.39
4188.00,1.39
4187.00,1.39
4186.00,1.39
4185.00,1.39
4184.00,1.39
4183.00,1.39
4182.00,1.39
4181.00,1.39
4180.00,1.39
4179.00,1.39
4178.00,1.39
4177.00,1.39
4176.00,1.39
4175.00,1.39
4174.00,1.39
4173.00,1.39
4172.00,1.39
4171.00,1.39
4170.00,1.39
4169.00,1.39
4168.00,1.39
4167.00,1.39
4166.00,1.39
4165.00,1.39
4164.00,1.39
4163.00,1.39
4162.00,1.39
4161.00,1.39
4160.00,1.39
4159.00,1.39
4158.00,1.39
4157.00,1.39
4156.00,1.39
4155.00,1.40
4154.00,1.40
4153.00,1.40
4152.00,1.40
4151.00,1.40
4150.00,1.40
4149.00,1.40
4148.00,1.40
4147.00,1.40
4146.00,1.40
4145.00,1.41
4144.00,1.41
4143.00,1.41
4142.00,1.41
4141.00,1.41
4140.00,1.41
4139.00,1.41
4138.00,1.42
4137.00,1.42
4136.00,1.42
4135.00,1.42
4134.00,1.42
4133.00,1.42
4132.00,1.42
4131.00,1.42
4130.00,1.42
4129.00,1.42
4128.00,1.42
4127.00,1.42
4126.00,1.42
4125.00,1.42
4124.00,1.41
4123.00,1.41
4122.00,1.41
4121.00,1.41
4120.00,1.42
4119.00,1.42
4118.00,1.42
4117.00,1.42
4116.00,1.42
4115.00,1.42
4114.00,1.42
4113.00,1.42
4112.00,1.42
4111.00,1.42
4110.00,1.42
4109.00,1.42
4108.00,1.42
4107.00,1.42
4106.00,1.42
4105.00,1.42
4104.00,1.42
4103.00,1.42
4102.00,1.42
4101.00,1.42
4100.00,1.43
4099.00,1.43
4098.00,1.43
4097.00,1.43
4096.00,1.43
4095.00,1.43
4094.00,1.44
4093.00,1.44
4092.00,1.44
4091.00,1.44
4090.00,1.44
4089.00,1.44
4088.00,1.45
4087.00,1.45
4086.00,1.45
4085.00,1.45
4084.00,1.45
4083.00,1.45
4082.00,1.45
4081.00,1.45
4080.00,1.45
4079.00,1.45
4078.00,1.45
4077.00,1.45
4076.00,1.45
4075.00,1.45
4074.00,1.44
4073.00,1.44
4072.00,1.44
4071.00,1.44
4070.00,1.44
4069.00,1.44
4068.00,1.44
4067.00,1.44
4066.00,1.44
4065.00,1.44
4064.00,1.44
4063.00,1.44
4062.00,1.45
4061.00,1.45
4060.00,1.45
4059.00,1.45
4058.00,1.46
4057.00,1.46
4056.00,1.46
4055.00,1.46
4054.00,1.47
4053.00,1.47
4052.00,1.47
4051.00,1.47
4050.00,1.47
4049.00,1.47
4048.00,1.47
4047.00,1.47
4046.00,1.47
4045.00,1.47
4044.00,1.47
4043.00,1.47
4042.00,1.47
4041.00,1.47
4040.00,1.47
4039.00,1.47
4038.00,1.47
4037.00,1.47
4036.00,1.47
4035.00,1.47
4034.00,1.47
4033.00,1.47
4032.00,1.47
4031.00,1.47
4030.00,1.47
4029.00,1.47
4028.00,1.47
4027.00,1.47
4026.00,1.47
4025.00,1.47
4024.00,1.47
4023.00,1.47
4022.00,1.47
4021.00,1.47
4020.00,1.47
4019.00,1.47
4018.00,1.47
4017.00,1.47
4016.00,1.47
4015.00,1.47
4014.00,1.47
4013.00,1.47
4012.00,1.47
4011.00,1.47
4010.00,1.47
4009.00,1.47
4008.00,1.47
4007.00,1.47
4006.00,1.47
4005.00,1.47
4004.00,1.47
4003.00,1.47
4002.00,1.47
4001.00,1.48
4000.00,1.48
