创建为新数据集,样品 312 用户 Administrator 日期 星期日, 七月 22 2018
cm-1,%T
10000.00,0.89
9999.00,0.89
9998.00,0.89
9997.00,0.89
9996.00,0.89
9995.00,0.89
9994.00,0.89
9993.00,0.89
9992.00,0.89
9991.00,0.89
9990.00,0.89
9989.00,0.89
9988.00,0.89
9987.00,0.89
9986.00,0.89
9985.00,0.89
9984.00,0.89
9983.00,0.89
9982.00,0.89
9981.00,0.89
9980.00,0.89
9979.00,0.89
9978.00,0.89
9977.00,0.89
9976.00,0.89
9975.00,0.89
9974.00,0.89
9973.00,0.89
9972.00,0.89
9971.00,0.89
9970.00,0.89
9969.00,0.89
9968.00,0.89
9967.00,0.89
9966.00,0.89
9965.00,0.89
9964.00,0.89
9963.00,0.89
9962.00,0.89
9961.00,0.89
9960.00,0.89
9959.00,0.89
9958.00,0.89
9957.00,0.89
9956.00,0.89
9955.00,0.89
9954.00,0.89
9953.00,0.89
9952.00,0.89
9951.00,0.89
9950.00,0.89
9949.00,0.89
9948.00,0.89
9947.00,0.89
9946.00,0.89
9945.00,0.89
9944.00,0.89
9943.00,0.89
9942.00,0.89
9941.00,0.89
9940.00,0.88
9939.00,0.88
9938.00,0.88
9937.00,0.88
9936.00,0.88
9935.00,0.87
9934.00,0.87
9933.00,0.87
9932.00,0.87
9931.00,0.86
9930.00,0.86
9929.00,0.86
9928.00,0.86
9927.00,0.86
9926.00,0.86
9925.00,0.85
9924.00,0.85
9923.00,0.85
9922.00,0.85
9921.00,0.85
9920.00,0.85
9919.00,0.85
9918.00,0.86
9917.00,0.86
9916.00,0.86
9915.00,0.86
9914.00,0.86
9913.00,0.86
9912.00,0.86
9911.00,0.86
9910.00,0.86
9909.00,0.86
9908.00,0.86
9907.00,0.86
9906.00,0.86
9905.00,0.86
9904.00,0.86
9903.00,0.87
9902.00,0.87
9901.00,0.87
9900.00,0.87
9899.00,0.87
9898.00,0.87
9897.00,0.87
9896.00,0.88
9895.00,0.88
9894.00,0.88
9893.00,0.88
9892.00,0.88
9891.00,0.89
9890.00,0.89
9889.00,0.89
9888.00,0.89
9887.00,0.89
9886.00,0.89
9885.00,0.89
9884.00,0.89
9883.00,0.89
9882.00,0.89
9881.00,0.89
9880.00,0.89
9879.00,0.89
9878.00,0.89
9877.00,0.88
9876.00,0.88
9875.00,0.88
9874.00,0.88
9873.00,0.88
9872.00,0.87
9871.00,0.87
9870.00,0.87
9869.00,0.87
9868.00,0.87
9867.00,0.86
9866.00,0.86
9865.00,0.86
9864.00,0.86
9863.00,0.86
9862.00,0.86
9861.00,0.86
9860.00,0.86
9859.00,0.85
9858.00,0.85
9857.00,0.85
9856.00,0.86
9855.00,0.86
9854.00,0.86
9853.00,0.86
9852.00,0.86
9851.00,0.86
9850.00,0.86
9849.00,0.87
9848.00,0.87
9847.00,0.87
9846.00,0.87
9845.00,0.87
9844.00,0.87
9843.00,0.87
9842.00,0.87
9841.00,0.88
9840.00,0.88
9839.00,0.88
9838.00,0.87
9837.00,0.87
9836.00,0.87
9835.00,0.87
9834.00,0.87
9833.00,0.87
9832.00,0.87
9831.00,0.87
9830.00,0.87
9829.00,0.87
9828.00,0.87
9827.00,0.87
9826.00,0.87
9825.00,0.87
9824.00,0.87
9823.00,0.87
9822.00,0.87
9821.00,0.87
9820.00,0.87
9819.00,0.87
9818.00,0.87
9817.00,0.87
9816.00,0.87
9815.00,0.87
9814.00,0.87
9813.00,0.86
9812.00,0.86
9811.00,0.86
9810.00,0.86
9809.00,0.86
9808.00,0.86
9807.00,0.86
9806.00,0.86
9805.00,0.86
9804.00,0.86
9803.00,0.86
9802.00,0.86
9801.00,0.87
9800.00,0.87
9799.00,0.87
9798.00,0.87
9797.00,0.88
9796.00,0.88
9795.00,0.88
9794.00,0.89
9793.00,0.89
9792.00,0.89
9791.00,0.89
9790.00,0.89
9789.00,0.89
9788.00,0.89
9787.00,0.89
9786.00,0.89
9785.00,0.88
9784.00,0.88
9783.00,0.88
9782.00,0.87
9781.00,0.87
9780.00,0.87
9779.00,0.86
9778.00,0.86
9777.00,0.85
9776.00,0.85
9775.00,0.85
9774.00,0.84
9773.00,0.84
9772.00,0.84
9771.00,0.84
9770.00,0.84
9769.00,0.84
9768.00,0.84
9767.00,0.84
9766.00,0.84
9765.00,0.84
9764.00,0.84
9763.00,0.84
9762.00,0.85
9761.00,0.85
9760.00,0.85
9759.00,0.85
9758.00,0.85
9757.00,0.86
9756.00,0.86
9755.00,0.86
9754.00,0.86
9753.00,0.86
9752.00,0.86
9751.00,0.86
9750.00,0.86
9749.00,0.86
9748.00,0.86
9747.00,0.85
9746.00,0.85
9745.00,0.85
9744.00,0.85
9743.00,0.85
9742.00,0.85
9741.00,0.85
9740.00,0.85
9739.00,0.85
9738.00,0.85
9737.00,0.85
9736.00,0.85
9735.00,0.85
9734.00,0.85
9733.00,0.85
9732.00,0.85
9731.00,0.85
9730.00,0.85
9729.00,0.85
9728.00,0.85
9727.00,0.85
9726.00,0.85
9725.00,0.85
9724.00,0.85
9723.00,0.85
9722.00,0.85
9721.00,0.86
9720.00,0.86
9719.00,0.86
9718.00,0.86
9717.00,0.86
9716.00,0.86
9715.00,0.86
9714.00,0.86
9713.00,0.86
9712.00,0.86
9711.00,0.87
9710.00,0.87
9709.00,0.87
9708.00,0.87
9707.00,0.87
9706.00,0.87
9705.00,0.87
9704.00,0.87
9703.00,0.87
9702.00,0.86
9701.00,0.86
9700.00,0.86
9699.00,0.86
9698.00,0.86
9697.00,0.86
9696.00,0.86
9695.00,0.86
9694.00,0.86
9693.00,0.87
9692.00,0.87
9691.00,0.87
9690.00,0.87
9689.00,0.87
9688.00,0.87
9687.00,0.87
9686.00,0.87
9685.00,0.87
9684.00,0.87
9683.00,0.87
9682.00,0.87
9681.00,0.87
9680.00,0.87
9679.00,0.87
9678.00,0.87
9677.00,0.87
9676.00,0.87
9675.00,0.87
9674.00,0.87
9673.00,0.87
9672.00,0.87
9671.00,0.87
9670.00,0.87
9669.00,0.87
9668.00,0.87
9667.00,0.87
9666.00,0.87
9665.00,0.87
9664.00,0.87
9663.00,0.86
9662.00,0.86
9661.00,0.86
9660.00,0.86
9659.00,0.86
9658.00,0.86
9657.00,0.86
9656.00,0.86
9655.00,0.86
9654.00,0.86
9653.00,0.86
9652.00,0.86
9651.00,0.86
9650.00,0.86
9649.00,0.86
9648.00,0.86
9647.00,0.86
9646.00,0.86
9645.00,0.86
9644.00,0.86
9643.00,0.87
9642.00,0.87
9641.00,0.87
9640.00,0.87
9639.00,0.87
9638.00,0.87
9637.00,0.87
9636.00,0.88
9635.00,0.88
9634.00,0.88
9633.00,0.88
9632.00,0.88
9631.00,0.89
9630.00,0.89
9629.00,0.89
9628.00,0.89
9627.00,0.89
9626.00,0.89
9625.00,0.89
9624.00,0.89
9623.00,0.89
9622.00,0.89
9621.00,0.89
9620.00,0.89
9619.00,0.88
9618.00,0.88
9617.00,0.88
9616.00,0.88
9615.00,0.88
9614.00,0.87
9613.00,0.87
9612.00,0.87
9611.00,0.87
9610.00,0.87
9609.00,0.87
9608.00,0.87
9607.00,0.87
9606.00,0.87
9605.00,0.88
9604.00,0.88
9603.00,0.88
9602.00,0.88
9601.00,0.88
9600.00,0.89
9599.00,0.89
9598.00,0.89
9597.00,0.89
9596.00,0.89
9595.00,0.89
9594.00,0.89
9593.00,0.89
9592.00,0.89
9591.00,0.89
9590.00,0.89
9589.00,0.89
9588.00,0.89
9587.00,0.89
9586.00,0.89
9585.00,0.88
9584.00,0.88
9583.00,0.88
9582.00,0.88
9581.00,0.88
9580.00,0.87
9579.00,0.87
9578.00,0.87
9577.00,0.87
9576.00,0.87
9575.00,0.87
9574.00,0.87
9573.00,0.86
9572.00,0.86
9571.00,0.86
9570.00,0.86
9569.00,0.86
9568.00,0.86
9567.00,0.86
9566.00,0.86
9565.00,0.86
9564.00,0.86
9563.00,0.86
9562.00,0.86
9561.00,0.86
9560.00,0.86
9559.00,0.86
9558.00,0.86
9557.00,0.86
9556.00,0.86
9555.00,0.86
9554.00,0.87
9553.00,0.87
9552.00,0.87
9551.00,0.87
9550.00,0.87
9549.00,0.87
9548.00,0.87
9547.00,0.87
9546.00,0.87
9545.00,0.87
9544.00,0.87
9543.00,0.87
9542.00,0.87
9541.00,0.87
9540.00,0.87
9539.00,0.88
9538.00,0.88
9537.00,0.88
9536.00,0.88
9535.00,0.88
9534.00,0.88
9533.00,0.88
9532.00,0.88
9531.00,0.87
9530.00,0.87
9529.00,0.87
9528.00,0.87
9527.00,0.87
9526.00,0.87
9525.00,0.87
9524.00,0.86
9523.00,0.86
9522.00,0.86
9521.00,0.86
9520.00,0.86
9519.00,0.86
9518.00,0.86
9517.00,0.86
9516.00,0.85
9515.00,0.85
9514.00,0.85
9513.00,0.85
9512.00,0.85
9511.00,0.85
9510.00,0.85
9509.00,0.85
9508.00,0.85
9507.00,0.86
9506.00,0.86
9505.00,0.86
9504.00,0.86
9503.00,0.86
9502.00,0.86
9501.00,0.86
9500.00,0.86
9499.00,0.86
9498.00,0.86
9497.00,0.87
9496.00,0.87
9495.00,0.87
9494.00,0.87
9493.00,0.87
9492.00,0.87
9491.00,0.87
9490.00,0.87
9489.00,0.87
9488.00,0.87
9487.00,0.87
9486.00,0.87
9485.00,0.87
9484.00,0.87
9483.00,0.87
9482.00,0.87
9481.00,0.87
9480.00,0.87
9479.00,0.87
9478.00,0.87
9477.00,0.87
9476.00,0.87
9475.00,0.87
9474.00,0.87
9473.00,0.87
9472.00,0.87
9471.00,0.87
9470.00,0.87
9469.00,0.86
9468.00,0.86
9467.00,0.86
9466.00,0.86
9465.00,0.86
9464.00,0.86
9463.00,0.86
9462.00,0.86
9461.00,0.86
9460.00,0.86
9459.00,0.86
9458.00,0.86
9457.00,0.86
9456.00,0.86
9455.00,0.86
9454.00,0.86
9453.00,0.86
9452.00,0.86
9451.00,0.86
9450.00,0.86
9449.00,0.86
9448.00,0.86
9447.00,0.86
9446.00,0.86
9445.00,0.86
9444.00,0.86
9443.00,0.86
9442.00,0.86
9441.00,0.86
9440.00,0.86
9439.00,0.86
9438.00,0.85
9437.00,0.85
9436.00,0.85
9435.00,0.85
9434.00,0.85
9433.00,0.85
9432.00,0.85
9431.00,0.85
9430.00,0.85
9429.00,0.85
9428.00,0.85
9427.00,0.85
9426.00,0.85
9425.00,0.85
9424.00,0.85
9423.00,0.85
9422.00,0.85
9421.00,0.85
9420.00,0.85
9419.00,0.85
9418.00,0.85
9417.00,0.85
9416.00,0.85
9415.00,0.85
9414.00,0.85
9413.00,0.85
9412.00,0.85
9411.00,0.85
9410.00,0.85
9409.00,0.85
9408.00,0.85
9407.00,0.85
9406.00,0.85
9405.00,0.85
9404.00,0.86
9403.00,0.86
9402.00,0.86
9401.00,0.86
9400.00,0.86
9399.00,0.86
9398.00,0.86
9397.00,0.87
9396.00,0.87
9395.00,0.87
9394.00,0.87
9393.00,0.87
9392.00,0.87
9391.00,0.87
9390.00,0.88
9389.00,0.88
9388.00,0.88
9387.00,0.88
9386.00,0.88
9385.00,0.88
9384.00,0.88
9383.00,0.89
9382.00,0.89
9381.00,0.89
9380.00,0.89
9379.00,0.89
9378.00,0.89
9377.00,0.89
9376.00,0.89
9375.00,0.89
9374.00,0.88
9373.00,0.88
9372.00,0.88
9371.00,0.88
9370.00,0.88
9369.00,0.87
9368.00,0.87
9367.00,0.87
9366.00,0.87
9365.00,0.87
9364.00,0.87
9363.00,0.87
9362.00,0.87
9361.00,0.87
9360.00,0.87
9359.00,0.87
9358.00,0.87
9357.00,0.87
9356.00,0.87
9355.00,0.87
9354.00,0.87
9353.00,0.88
9352.00,0.88
9351.00,0.88
9350.00,0.88
9349.00,0.88
9348.00,0.88
9347.00,0.88
9346.00,0.88
9345.00,0.88
9344.00,0.88
9343.00,0.88
9342.00,0.88
9341.00,0.88
9340.00,0.88
9339.00,0.88
9338.00,0.88
9337.00,0.87
9336.00,0.87
9335.00,0.87
9334.00,0.87
9333.00,0.87
9332.00,0.87
9331.00,0.86
9330.00,0.86
9329.00,0.86
9328.00,0.86
9327.00,0.86
9326.00,0.86
9325.00,0.85
9324.00,0.85
9323.00,0.85
9322.00,0.85
9321.00,0.85
9320.00,0.85
9319.00,0.85
9318.00,0.85
9317.00,0.84
9316.00,0.84
9315.00,0.84
9314.00,0.84
9313.00,0.84
9312.00,0.84
9311.00,0.84
9310.00,0.84
9309.00,0.84
9308.00,0.84
9307.00,0.84
9306.00,0.84
9305.00,0.84
9304.00,0.84
9303.00,0.84
9302.00,0.84
9301.00,0.84
9300.00,0.84
9299.00,0.85
9298.00,0.85
9297.00,0.85
9296.00,0.85
9295.00,0.85
9294.00,0.85
9293.00,0.85
9292.00,0.86
9291.00,0.86
9290.00,0.86
9289.00,0.86
9288.00,0.86
9287.00,0.86
9286.00,0.86
9285.00,0.86
9284.00,0.86
9283.00,0.87
9282.00,0.87
9281.00,0.87
9280.00,0.87
9279.00,0.87
9278.00,0.87
9277.00,0.88
9276.00,0.88
9275.00,0.88
9274.00,0.88
9273.00,0.88
9272.00,0.88
9271.00,0.88
9270.00,0.88
9269.00,0.88
9268.00,0.88
9267.00,0.88
9266.00,0.88
9265.00,0.88
9264.00,0.88
9263.00,0.88
9262.00,0.88
9261.00,0.88
9260.00,0.88
9259.00,0.88
9258.00,0.88
9257.00,0.88
9256.00,0.88
9255.00,0.88
9254.00,0.88
9253.00,0.88
9252.00,0.88
9251.00,0.88
9250.00,0.88
9249.00,0.88
9248.00,0.88
9247.00,0.87
9246.00,0.87
9245.00,0.87
9244.00,0.87
9243.00,0.87
9242.00,0.87
9241.00,0.87
9240.00,0.87
9239.00,0.86
9238.00,0.86
9237.00,0.86
9236.00,0.86
9235.00,0.86
9234.00,0.86
9233.00,0.85
9232.00,0.85
9231.00,0.85
9230.00,0.85
9229.00,0.86
9228.00,0.86
9227.00,0.86
9226.00,0.86
9225.00,0.86
9224.00,0.86
9223.00,0.86
9222.00,0.87
9221.00,0.87
9220.00,0.87
9219.00,0.87
9218.00,0.87
9217.00,0.87
9216.00,0.87
9215.00,0.87
9214.00,0.87
9213.00,0.87
9212.00,0.87
9211.00,0.87
9210.00,0.86
9209.00,0.86
9208.00,0.86
9207.00,0.86
9206.00,0.86
9205.00,0.86
9204.00,0.86
9203.00,0.87
9202.00,0.87
9201.00,0.87
9200.00,0.87
9199.00,0.87
9198.00,0.87
9197.00,0.87
9196.00,0.88
9195.00,0.88
9194.00,0.88
9193.00,0.88
9192.00,0.88
9191.00,0.88
9190.00,0.89
9189.00,0.89
9188.00,0.89
9187.00,0.89
9186.00,0.89
9185.00,0.89
9184.00,0.89
9183.00,0.89
9182.00,0.89
9181.00,0.89
9180.00,0.89
9179.00,0.89
9178.00,0.89
9177.00,0.89
9176.00,0.89
9175.00,0.89
9174.00,0.89
9173.00,0.89
9172.00,0.89
9171.00,0.88
9170.00,0.88
9169.00,0.88
9168.00,0.88
9167.00,0.88
9166.00,0.87
9165.00,0.87
9164.00,0.87
9163.00,0.87
9162.00,0.87
9161.00,0.87
9160.00,0.87
9159.00,0.87
9158.00,0.87
9157.00,0.87
9156.00,0.87
9155.00,0.87
9154.00,0.87
9153.00,0.88
9152.00,0.88
9151.00,0.88
9150.00,0.88
9149.00,0.88
9148.00,0.88
9147.00,0.88
9146.00,0.88
9145.00,0.88
9144.00,0.88
9143.00,0.88
9142.00,0.88
9141.00,0.88
9140.00,0.88
9139.00,0.88
9138.00,0.88
9137.00,0.87
9136.00,0.87
9135.00,0.87
9134.00,0.87
9133.00,0.87
9132.00,0.87
9131.00,0.87
9130.00,0.87
9129.00,0.87
9128.00,0.87
9127.00,0.87
9126.00,0.87
9125.00,0.87
9124.00,0.87
9123.00,0.87
9122.00,0.87
9121.00,0.87
9120.00,0.88
9119.00,0.88
9118.00,0.88
9117.00,0.88
9116.00,0.88
9115.00,0.88
9114.00,0.88
9113.00,0.88
9112.00,0.88
9111.00,0.88
9110.00,0.88
9109.00,0.88
9108.00,0.88
9107.00,0.88
9106.00,0.88
9105.00,0.88
9104.00,0.87
9103.00,0.87
9102.00,0.87
9101.00,0.87
9100.00,0.87
9099.00,0.87
9098.00,0.87
9097.00,0.86
9096.00,0.86
9095.00,0.86
9094.00,0.86
9093.00,0.86
9092.00,0.86
9091.00,0.86
9090.00,0.86
9089.00,0.86
9088.00,0.86
9087.00,0.87
9086.00,0.87
9085.00,0.87
9084.00,0.87
9083.00,0.87
9082.00,0.87
9081.00,0.88
9080.00,0.88
9079.00,0.88
9078.00,0.88
9077.00,0.88
9076.00,0.88
9075.00,0.88
9074.00,0.88
9073.00,0.88
9072.00,0.87
9071.00,0.87
9070.00,0.87
9069.00,0.87
9068.00,0.87
9067.00,0.86
9066.00,0.86
9065.00,0.86
9064.00,0.86
9063.00,0.86
9062.00,0.86
9061.00,0.86
9060.00,0.86
9059.00,0.86
9058.00,0.86
9057.00,0.86
9056.00,0.86
9055.00,0.86
9054.00,0.86
9053.00,0.86
9052.00,0.86
9051.00,0.86
9050.00,0.86
9049.00,0.87
9048.00,0.87
9047.00,0.87
9046.00,0.87
9045.00,0.87
9044.00,0.87
9043.00,0.87
9042.00,0.87
9041.00,0.87
9040.00,0.87
9039.00,0.86
9038.00,0.86
9037.00,0.86
9036.00,0.86
9035.00,0.86
9034.00,0.86
9033.00,0.86
9032.00,0.86
9031.00,0.85
9030.00,0.85
9029.00,0.85
9028.00,0.85
9027.00,0.85
9026.00,0.85
9025.00,0.85
9024.00,0.84
9023.00,0.84
9022.00,0.84
9021.00,0.84
9020.00,0.84
9019.00,0.84
9018.00,0.85
9017.00,0.85
9016.00,0.85
9015.00,0.85
9014.00,0.85
9013.00,0.85
9012.00,0.86
9011.00,0.86
9010.00,0.86
9009.00,0.86
9008.00,0.86
9007.00,0.86
9006.00,0.86
9005.00,0.86
9004.00,0.86
9003.00,0.86
9002.00,0.86
9001.00,0.86
9000.00,0.86
8999.00,0.86
8998.00,0.86
8997.00,0.86
8996.00,0.86
8995.00,0.86
8994.00,0.86
8993.00,0.87
8992.00,0.87
8991.00,0.87
8990.00,0.87
8989.00,0.87
8988.00,0.87
8987.00,0.87
8986.00,0.87
8985.00,0.88
8984.00,0.88
8983.00,0.88
8982.00,0.88
8981.00,0.88
8980.00,0.88
8979.00,0.88
8978.00,0.88
8977.00,0.89
8976.00,0.89
8975.00,0.89
8974.00,0.89
8973.00,0.89
8972.00,0.89
8971.00,0.89
8970.00,0.89
8969.00,0.88
8968.00,0.88
8967.00,0.88
8966.00,0.88
8965.00,0.88
8964.00,0.88
8963.00,0.88
8962.00,0.88
8961.00,0.87
8960.00,0.87
8959.00,0.87
8958.00,0.87
8957.00,0.87
8956.00,0.87
8955.00,0.87
8954.00,0.87
8953.00,0.87
8952.00,0.87
8951.00,0.87
8950.00,0.87
8949.00,0.87
8948.00,0.87
8947.00,0.87
8946.00,0.87
8945.00,0.87
8944.00,0.87
8943.00,0.87
8942.00,0.87
8941.00,0.87
8940.00,0.87
8939.00,0.87
8938.00,0.87
8937.00,0.87
8936.00,0.87
8935.00,0.87
8934.00,0.86
8933.00,0.86
8932.00,0.86
8931.00,0.86
8930.00,0.86
8929.00,0.86
8928.00,0.86
8927.00,0.86
8926.00,0.86
8925.00,0.86
8924.00,0.86
8923.00,0.86
8922.00,0.86
8921.00,0.86
8920.00,0.86
8919.00,0.86
8918.00,0.86
8917.00,0.86
8916.00,0.86
8915.00,0.86
8914.00,0.86
8913.00,0.86
8912.00,0.86
8911.00,0.86
8910.00,0.86
8909.00,0.86
8908.00,0.86
8907.00,0.86
8906.00,0.87
8905.00,0.87
8904.00,0.87
8903.00,0.87
8902.00,0.87
8901.00,0.88
8900.00,0.88
8899.00,0.88
8898.00,0.88
8897.00,0.88
8896.00,0.88
8895.00,0.89
8894.00,0.89
8893.00,0.89
8892.00,0.89
8891.00,0.89
8890.00,0.89
8889.00,0.89
8888.00,0.89
8887.00,0.89
8886.00,0.89
8885.00,0.89
8884.00,0.88
8883.00,0.88
8882.00,0.88
8881.00,0.88
8880.00,0.88
8879.00,0.88
8878.00,0.88
8877.00,0.88
8876.00,0.88
8875.00,0.87
8874.00,0.87
8873.00,0.87
8872.00,0.87
8871.00,0.87
8870.00,0.87
8869.00,0.87
8868.00,0.87
8867.00,0.87
8866.00,0.87
8865.00,0.87
8864.00,0.87
8863.00,0.87
8862.00,0.87
8861.00,0.87
8860.00,0.87
8859.00,0.87
8858.00,0.87
8857.00,0.87
8856.00,0.87
8855.00,0.87
8854.00,0.88
8853.00,0.88
8852.00,0.88
8851.00,0.88
8850.00,0.87
8849.00,0.87
8848.00,0.87
8847.00,0.87
8846.00,0.87
8845.00,0.87
8844.00,0.87
8843.00,0.86
8842.00,0.86
8841.00,0.86
8840.00,0.86
8839.00,0.86
8838.00,0.86
8837.00,0.86
8836.00,0.85
8835.00,0.85
8834.00,0.85
8833.00,0.85
8832.00,0.85
8831.00,0.85
8830.00,0.85
8829.00,0.85
8828.00,0.85
8827.00,0.85
8826.00,0.85
8825.00,0.85
8824.00,0.85
8823.00,0.85
8822.00,0.85
8821.00,0.85
8820.00,0.86
8819.00,0.86
8818.00,0.86
8817.00,0.86
8816.00,0.86
8815.00,0.86
8814.00,0.86
8813.00,0.86
8812.00,0.86
8811.00,0.86
8810.00,0.87
8809.00,0.87
8808.00,0.87
8807.00,0.87
8806.00,0.87
8805.00,0.87
8804.00,0.87
8803.00,0.87
8802.00,0.87
8801.00,0.87
8800.00,0.86
8799.00,0.86
8798.00,0.86
8797.00,0.86
8796.00,0.86
8795.00,0.86
8794.00,0.86
8793.00,0.86
8792.00,0.86
8791.00,0.85
8790.00,0.85
8789.00,0.85
8788.00,0.85
8787.00,0.85
8786.00,0.85
8785.00,0.85
8784.00,0.85
8783.00,0.85
8782.00,0.85
8781.00,0.85
8780.00,0.86
8779.00,0.86
8778.00,0.86
8777.00,0.86
8776.00,0.86
8775.00,0.86
8774.00,0.86
8773.00,0.86
8772.00,0.86
8771.00,0.86
8770.00,0.86
8769.00,0.86
8768.00,0.86
8767.00,0.86
8766.00,0.86
8765.00,0.85
8764.00,0.85
8763.00,0.85
8762.00,0.85
8761.00,0.85
8760.00,0.85
8759.00,0.85
8758.00,0.85
8757.00,0.84
8756.00,0.84
8755.00,0.84
8754.00,0.84
8753.00,0.84
8752.00,0.84
8751.00,0.83
8750.00,0.83
8749.00,0.83
8748.00,0.83
8747.00,0.83
8746.00,0.83
8745.00,0.83
8744.00,0.83
8743.00,0.83
8742.00,0.83
8741.00,0.83
8740.00,0.83
8739.00,0.83
8738.00,0.83
8737.00,0.83
8736.00,0.83
8735.00,0.83
8734.00,0.83
8733.00,0.83
8732.00,0.83
8731.00,0.83
8730.00,0.83
8729.00,0.83
8728.00,0.83
8727.00,0.83
8726.00,0.83
8725.00,0.83
8724.00,0.83
8723.00,0.83
8722.00,0.83
8721.00,0.83
8720.00,0.83
8719.00,0.84
8718.00,0.84
8717.00,0.84
8716.00,0.84
8715.00,0.84
8714.00,0.84
8713.00,0.84
8712.00,0.84
8711.00,0.84
8710.00,0.84
8709.00,0.84
8708.00,0.84
8707.00,0.84
8706.00,0.84
8705.00,0.84
8704.00,0.83
8703.00,0.83
8702.00,0.83
8701.00,0.83
8700.00,0.83
8699.00,0.83
8698.00,0.83
8697.00,0.82
8696.00,0.82
8695.00,0.82
8694.00,0.82
8693.00,0.82
8692.00,0.82
8691.00,0.82
8690.00,0.82
8689.00,0.82
8688.00,0.82
8687.00,0.82
8686.00,0.82
8685.00,0.82
8684.00,0.82
8683.00,0.82
8682.00,0.82
8681.00,0.82
8680.00,0.82
8679.00,0.82
8678.00,0.82
8677.00,0.82
8676.00,0.83
8675.00,0.83
8674.00,0.83
8673.00,0.83
8672.00,0.83
8671.00,0.83
8670.00,0.83
8669.00,0.82
8668.00,0.82
8667.00,0.82
8666.00,0.82
8665.00,0.82
8664.00,0.82
8663.00,0.82
8662.00,0.82
8661.00,0.82
8660.00,0.82
8659.00,0.82
8658.00,0.82
8657.00,0.82
8656.00,0.82
8655.00,0.82
8654.00,0.82
8653.00,0.82
8652.00,0.81
8651.00,0.81
8650.00,0.81
8649.00,0.81
8648.00,0.81
8647.00,0.81
8646.00,0.81
8645.00,0.81
8644.00,0.81
8643.00,0.81
8642.00,0.81
8641.00,0.81
8640.00,0.82
8639.00,0.82
8638.00,0.82
8637.00,0.82
8636.00,0.82
8635.00,0.82
8634.00,0.82
8633.00,0.82
8632.00,0.82
8631.00,0.82
8630.00,0.82
8629.00,0.82
8628.00,0.82
8627.00,0.82
8626.00,0.82
8625.00,0.81
8624.00,0.81
8623.00,0.81
8622.00,0.81
8621.00,0.81
8620.00,0.81
8619.00,0.81
8618.00,0.80
8617.00,0.80
8616.00,0.80
8615.00,0.80
8614.00,0.80
8613.00,0.80
8612.00,0.80
8611.00,0.80
8610.00,0.80
8609.00,0.80
8608.00,0.80
8607.00,0.80
8606.00,0.80
8605.00,0.80
8604.00,0.80
8603.00,0.80
8602.00,0.80
8601.00,0.80
8600.00,0.80
8599.00,0.80
8598.00,0.80
8597.00,0.80
8596.00,0.80
8595.00,0.80
8594.00,0.80
8593.00,0.80
8592.00,0.80
8591.00,0.80
8590.00,0.80
8589.00,0.80
8588.00,0.80
8587.00,0.80
8586.00,0.80
8585.00,0.80
8584.00,0.80
8583.00,0.80
8582.00,0.80
8581.00,0.80
8580.00,0.80
8579.00,0.80
8578.00,0.80
8577.00,0.80
8576.00,0.80
8575.00,0.80
8574.00,0.80
8573.00,0.80
8572.00,0.80
8571.00,0.80
8570.00,0.80
8569.00,0.80
8568.00,0.80
8567.00,0.80
8566.00,0.80
8565.00,0.80
8564.00,0.80
8563.00,0.80
8562.00,0.80
8561.00,0.80
8560.00,0.80
8559.00,0.80
8558.00,0.80
8557.00,0.80
8556.00,0.80
8555.00,0.80
8554.00,0.80
8553.00,0.80
8552.00,0.80
8551.00,0.80
8550.00,0.80
8549.00,0.80
8548.00,0.80
8547.00,0.80
8546.00,0.80
8545.00,0.80
8544.00,0.80
8543.00,0.80
8542.00,0.80
8541.00,0.80
8540.00,0.80
8539.00,0.80
8538.00,0.80
8537.00,0.80
8536.00,0.80
8535.00,0.80
8534.00,0.80
8533.00,0.80
8532.00,0.80
8531.00,0.80
8530.00,0.81
8529.00,0.81
8528.00,0.81
8527.00,0.81
8526.00,0.80
8525.00,0.80
8524.00,0.80
8523.00,0.80
8522.00,0.80
8521.00,0.80
8520.00,0.80
8519.00,0.80
8518.00,0.80
8517.00,0.79
8516.00,0.79
8515.00,0.79
8514.00,0.79
8513.00,0.79
8512.00,0.79
8511.00,0.78
8510.00,0.78
8509.00,0.78
8508.00,0.78
8507.00,0.78
8506.00,0.78
8505.00,0.78
8504.00,0.78
8503.00,0.78
8502.00,0.78
8501.00,0.78
8500.00,0.78
8499.00,0.78
8498.00,0.78
8497.00,0.78
8496.00,0.78
8495.00,0.78
8494.00,0.78
8493.00,0.78
8492.00,0.78
8491.00,0.78
8490.00,0.78
8489.00,0.78
8488.00,0.78
8487.00,0.78
8486.00,0.78
8485.00,0.78
8484.00,0.78
8483.00,0.78
8482.00,0.78
8481.00,0.78
8480.00,0.78
8479.00,0.77
8478.00,0.77
8477.00,0.77
8476.00,0.77
8475.00,0.77
8474.00,0.77
8473.00,0.76
8472.00,0.76
8471.00,0.76
8470.00,0.76
8469.00,0.76
8468.00,0.75
8467.00,0.75
8466.00,0.75
8465.00,0.75
8464.00,0.75
8463.00,0.75
8462.00,0.75
8461.00,0.75
8460.00,0.75
8459.00,0.75
8458.00,0.75
8457.00,0.75
8456.00,0.75
8455.00,0.75
8454.00,0.75
8453.00,0.75
8452.00,0.75
8451.00,0.75
8450.00,0.76
8449.00,0.76
8448.00,0.76
8447.00,0.76
8446.00,0.76
8445.00,0.76
8444.00,0.76
8443.00,0.76
8442.00,0.76
8441.00,0.76
8440.00,0.76
8439.00,0.76
8438.00,0.76
8437.00,0.76
8436.00,0.76
8435.00,0.76
8434.00,0.76
8433.00,0.76
8432.00,0.76
8431.00,0.76
8430.00,0.76
8429.00,0.76
8428.00,0.76
8427.00,0.76
8426.00,0.76
8425.00,0.76
8424.00,0.76
8423.00,0.76
8422.00,0.76
8421.00,0.75
8420.00,0.75
8419.00,0.76
8418.00,0.76
8417.00,0.76
8416.00,0.76
8415.00,0.76
8414.00,0.76
8413.00,0.76
8412.00,0.76
8411.00,0.76
8410.00,0.77
8409.00,0.77
8408.00,0.77
8407.00,0.77
8406.00,0.77
8405.00,0.78
8404.00,0.78
8403.00,0.78
8402.00,0.78
8401.00,0.78
8400.00,0.78
8399.00,0.78
8398.00,0.78
8397.00,0.78
8396.00,0.78
8395.00,0.78
8394.00,0.78
8393.00,0.78
8392.00,0.78
8391.00,0.78
8390.00,0.78
8389.00,0.78
8388.00,0.78
8387.00,0.78
8386.00,0.78
8385.00,0.78
8384.00,0.77
8383.00,0.77
8382.00,0.77
8381.00,0.77
8380.00,0.77
8379.00,0.77
8378.00,0.77
8377.00,0.77
8376.00,0.77
8375.00,0.77
8374.00,0.77
8373.00,0.77
8372.00,0.77
8371.00,0.77
8370.00,0.77
8369.00,0.77
8368.00,0.77
8367.00,0.77
8366.00,0.77
8365.00,0.77
8364.00,0.77
8363.00,0.77
8362.00,0.77
8361.00,0.78
8360.00,0.78
8359.00,0.78
8358.00,0.78
8357.00,0.78
8356.00,0.78
8355.00,0.78
8354.00,0.78
8353.00,0.78
8352.00,0.78
8351.00,0.78
8350.00,0.78
8349.00,0.78
8348.00,0.78
8347.00,0.78
8346.00,0.78
8345.00,0.78
8344.00,0.78
8343.00,0.78
8342.00,0.78
8341.00,0.79
8340.00,0.79
8339.00,0.79
8338.00,0.79
8337.00,0.79
8336.00,0.79
8335.00,0.79
8334.00,0.78
8333.00,0.78
8332.00,0.78
8331.00,0.78
8330.00,0.78
8329.00,0.78
8328.00,0.78
8327.00,0.78
8326.00,0.78
8325.00,0.78
8324.00,0.78
8323.00,0.78
8322.00,0.78
8321.00,0.78
8320.00,0.78
8319.00,0.78
8318.00,0.79
8317.00,0.79
8316.00,0.79
8315.00,0.79
8314.00,0.79
8313.00,0.79
8312.00,0.79
8311.00,0.79
8310.00,0.79
8309.00,0.80
8308.00,0.80
8307.00,0.80
8306.00,0.80
8305.00,0.80
8304.00,0.80
8303.00,0.80
8302.00,0.80
8301.00,0.80
8300.00,0.80
8299.00,0.80
8298.00,0.80
8297.00,0.80
8296.00,0.80
8295.00,0.80
8294.00,0.80
8293.00,0.80
8292.00,0.80
8291.00,0.81
8290.00,0.81
8289.00,0.81
8288.00,0.81
8287.00,0.81
8286.00,0.81
8285.00,0.81
8284.00,0.81
8283.00,0.81
8282.00,0.81
8281.00,0.81
8280.00,0.81
8279.00,0.81
8278.00,0.81
8277.00,0.81
8276.00,0.81
8275.00,0.81
8274.00,0.81
8273.00,0.81
8272.00,0.81
8271.00,0.81
8270.00,0.81
8269.00,0.81
8268.00,0.81
8267.00,0.81
8266.00,0.81
8265.00,0.81
8264.00,0.81
8263.00,0.81
8262.00,0.81
8261.00,0.81
8260.00,0.81
8259.00,0.81
8258.00,0.81
8257.00,0.81
8256.00,0.81
8255.00,0.81
8254.00,0.81
8253.00,0.81
8252.00,0.81
8251.00,0.81
8250.00,0.81
8249.00,0.81
8248.00,0.81
8247.00,0.81
8246.00,0.81
8245.00,0.81
8244.00,0.81
8243.00,0.81
8242.00,0.81
8241.00,0.81
8240.00,0.81
8239.00,0.81
8238.00,0.81
8237.00,0.81
8236.00,0.81
8235.00,0.81
8234.00,0.81
8233.00,0.81
8232.00,0.82
8231.00,0.82
8230.00,0.82
8229.00,0.82
8228.00,0.82
8227.00,0.82
8226.00,0.82
8225.00,0.82
8224.00,0.82
8223.00,0.82
8222.00,0.82
8221.00,0.82
8220.00,0.82
8219.00,0.82
8218.00,0.82
8217.00,0.82
8216.00,0.82
8215.00,0.82
8214.00,0.82
8213.00,0.82
8212.00,0.82
8211.00,0.82
8210.00,0.82
8209.00,0.82
8208.00,0.82
8207.00,0.82
8206.00,0.82
8205.00,0.81
8204.00,0.81
8203.00,0.81
8202.00,0.81
8201.00,0.81
8200.00,0.81
8199.00,0.81
8198.00,0.81
8197.00,0.81
8196.00,0.80
8195.00,0.80
8194.00,0.80
8193.00,0.80
8192.00,0.80
8191.00,0.81
8190.00,0.81
8189.00,0.81
8188.00,0.81
8187.00,0.81
8186.00,0.81
8185.00,0.81
8184.00,0.81
8183.00,0.81
8182.00,0.81
8181.00,0.82
8180.00,0.82
8179.00,0.82
8178.00,0.82
8177.00,0.82
8176.00,0.82
8175.00,0.82
8174.00,0.82
8173.00,0.82
8172.00,0.82
8171.00,0.82
8170.00,0.82
8169.00,0.82
8168.00,0.83
8167.00,0.83
8166.00,0.83
8165.00,0.83
8164.00,0.83
8163.00,0.83
8162.00,0.83
8161.00,0.83
8160.00,0.83
8159.00,0.83
8158.00,0.83
8157.00,0.83
8156.00,0.83
8155.00,0.83
8154.00,0.83
8153.00,0.83
8152.00,0.83
8151.00,0.83
8150.00,0.83
8149.00,0.83
8148.00,0.83
8147.00,0.84
8146.00,0.84
8145.00,0.84
8144.00,0.84
8143.00,0.84
8142.00,0.84
8141.00,0.84
8140.00,0.84
8139.00,0.84
8138.00,0.84
8137.00,0.84
8136.00,0.84
8135.00,0.84
8134.00,0.84
8133.00,0.84
8132.00,0.84
8131.00,0.84
8130.00,0.84
8129.00,0.84
8128.00,0.84
8127.00,0.84
8126.00,0.84
8125.00,0.84
8124.00,0.84
8123.00,0.84
8122.00,0.84
8121.00,0.84
8120.00,0.84
8119.00,0.84
8118.00,0.84
8117.00,0.84
8116.00,0.84
8115.00,0.84
8114.00,0.84
8113.00,0.84
8112.00,0.84
8111.00,0.84
8110.00,0.84
8109.00,0.84
8108.00,0.84
8107.00,0.84
8106.00,0.84
8105.00,0.84
8104.00,0.84
8103.00,0.84
8102.00,0.84
8101.00,0.84
8100.00,0.84
8099.00,0.84
8098.00,0.85
8097.00,0.85
8096.00,0.85
8095.00,0.85
8094.00,0.85
8093.00,0.85
8092.00,0.85
8091.00,0.85
8090.00,0.85
8089.00,0.85
8088.00,0.85
8087.00,0.85
8086.00,0.85
8085.00,0.85
8084.00,0.85
8083.00,0.85
8082.00,0.85
8081.00,0.85
8080.00,0.85
8079.00,0.85
8078.00,0.85
8077.00,0.85
8076.00,0.85
8075.00,0.85
8074.00,0.85
8073.00,0.85
8072.00,0.85
8071.00,0.85
8070.00,0.85
8069.00,0.85
8068.00,0.85
8067.00,0.84
8066.00,0.84
8065.00,0.84
8064.00,0.84
8063.00,0.84
8062.00,0.84
8061.00,0.84
8060.00,0.84
8059.00,0.84
8058.00,0.84
8057.00,0.84
8056.00,0.84
8055.00,0.85
8054.00,0.85
8053.00,0.85
8052.00,0.85
8051.00,0.85
8050.00,0.85
8049.00,0.85
8048.00,0.85
8047.00,0.85
8046.00,0.85
8045.00,0.85
8044.00,0.85
8043.00,0.85
8042.00,0.85
8041.00,0.85
8040.00,0.85
8039.00,0.85
8038.00,0.86
8037.00,0.86
8036.00,0.86
8035.00,0.86
8034.00,0.86
8033.00,0.86
8032.00,0.86
8031.00,0.85
8030.00,0.85
8029.00,0.85
8028.00,0.85
8027.00,0.85
8026.00,0.85
8025.00,0.85
8024.00,0.85
8023.00,0.85
8022.00,0.85
8021.00,0.85
8020.00,0.85
8019.00,0.85
8018.00,0.85
8017.00,0.85
8016.00,0.85
8015.00,0.85
8014.00,0.85
8013.00,0.85
8012.00,0.85
8011.00,0.85
8010.00,0.85
8009.00,0.85
8008.00,0.85
8007.00,0.86
8006.00,0.86
8005.00,0.86
8004.00,0.86
8003.00,0.86
8002.00,0.86
8001.00,0.86
8000.00,0.87
7999.00,0.87
7998.00,0.87
7997.00,0.87
7996.00,0.87
7995.00,0.87
7994.00,0.87
7993.00,0.87
7992.00,0.87
7991.00,0.87
7990.00,0.87
7989.00,0.87
7988.00,0.88
7987.00,0.88
7986.00,0.88
7985.00,0.87
7984.00,0.87
7983.00,0.87
7982.00,0.87
7981.00,0.87
7980.00,0.87
7979.00,0.87
7978.00,0.87
7977.00,0.87
7976.00,0.87
7975.00,0.87
7974.00,0.87
7973.00,0.87
7972.00,0.87
7971.00,0.87
7970.00,0.86
7969.00,0.86
7968.00,0.86
7967.00,0.86
7966.00,0.86
7965.00,0.86
7964.00,0.86
7963.00,0.86
7962.00,0.86
7961.00,0.86
7960.00,0.86
7959.00,0.86
7958.00,0.86
7957.00,0.86
7956.00,0.86
7955.00,0.86
7954.00,0.86
7953.00,0.86
7952.00,0.86
7951.00,0.86
7950.00,0.86
7949.00,0.86
7948.00,0.86
7947.00,0.86
7946.00,0.86
7945.00,0.86
7944.00,0.86
7943.00,0.86
7942.00,0.86
7941.00,0.86
7940.00,0.86
7939.00,0.86
7938.00,0.86
7937.00,0.86
7936.00,0.86
7935.00,0.86
7934.00,0.86
7933.00,0.86
7932.00,0.86
7931.00,0.86
7930.00,0.87
7929.00,0.87
7928.00,0.87
7927.00,0.87
7926.00,0.87
7925.00,0.87
7924.00,0.87
7923.00,0.87
7922.00,0.87
7921.00,0.87
7920.00,0.87
7919.00,0.87
7918.00,0.87
7917.00,0.87
7916.00,0.87
7915.00,0.87
7914.00,0.87
7913.00,0.87
7912.00,0.87
7911.00,0.87
7910.00,0.87
7909.00,0.87
7908.00,0.87
7907.00,0.87
7906.00,0.87
7905.00,0.87
7904.00,0.87
7903.00,0.87
7902.00,0.87
7901.00,0.87
7900.00,0.87
7899.00,0.87
7898.00,0.87
7897.00,0.87
7896.00,0.87
7895.00,0.87
7894.00,0.87
7893.00,0.87
7892.00,0.87
7891.00,0.87
7890.00,0.87
7889.00,0.87
7888.00,0.87
7887.00,0.87
7886.00,0.87
7885.00,0.87
7884.00,0.87
7883.00,0.87
7882.00,0.87
7881.00,0.87
7880.00,0.87
7879.00,0.87
7878.00,0.87
7877.00,0.87
7876.00,0.87
7875.00,0.87
7874.00,0.87
7873.00,0.87
7872.00,0.88
7871.00,0.88
7870.00,0.88
7869.00,0.88
7868.00,0.88
7867.00,0.88
7866.00,0.88
7865.00,0.88
7864.00,0.88
7863.00,0.88
7862.00,0.89
7861.00,0.89
7860.00,0.89
7859.00,0.89
7858.00,0.89
7857.00,0.89
7856.00,0.89
7855.00,0.89
7854.00,0.89
7853.00,0.89
7852.00,0.89
7851.00,0.89
7850.00,0.89
7849.00,0.89
7848.00,0.89
7847.00,0.89
7846.00,0.89
7845.00,0.89
7844.00,0.88
7843.00,0.88
7842.00,0.88
7841.00,0.88
7840.00,0.88
7839.00,0.88
7838.00,0.88
7837.00,0.88
7836.00,0.88
7835.00,0.88
7834.00,0.88
7833.00,0.88
7832.00,0.88
7831.00,0.88
7830.00,0.88
7829.00,0.87
7828.00,0.87
7827.00,0.87
7826.00,0.87
7825.00,0.87
7824.00,0.87
7823.00,0.87
7822.00,0.87
7821.00,0.87
7820.00,0.88
7819.00,0.88
7818.00,0.88
7817.00,0.88
7816.00,0.88
7815.00,0.88
7814.00,0.88
7813.00,0.88
7812.00,0.88
7811.00,0.88
7810.00,0.88
7809.00,0.88
7808.00,0.88
7807.00,0.88
7806.00,0.88
7805.00,0.88
7804.00,0.88
7803.00,0.88
7802.00,0.88
7801.00,0.88
7800.00,0.88
7799.00,0.88
7798.00,0.88
7797.00,0.88
7796.00,0.88
7795.00,0.88
7794.00,0.88
7793.00,0.88
7792.00,0.88
7791.00,0.88
7790.00,0.88
7789.00,0.88
7788.00,0.88
7787.00,0.88
7786.00,0.88
7785.00,0.88
7784.00,0.88
7783.00,0.88
7782.00,0.88
7781.00,0.88
7780.00,0.88
7779.00,0.88
7778.00,0.88
7777.00,0.88
7776.00,0.88
7775.00,0.88
7774.00,0.88
7773.00,0.89
7772.00,0.89
7771.00,0.89
7770.00,0.89
7769.00,0.89
7768.00,0.89
7767.00,0.89
7766.00,0.89
7765.00,0.89
7764.00,0.89
7763.00,0.89
7762.00,0.89
7761.00,0.89
7760.00,0.89
7759.00,0.88
7758.00,0.88
7757.00,0.88
7756.00,0.88
7755.00,0.88
7754.00,0.88
7753.00,0.88
7752.00,0.88
7751.00,0.88
7750.00,0.88
7749.00,0.88
7748.00,0.89
7747.00,0.89
7746.00,0.89
7745.00,0.89
7744.00,0.89
7743.00,0.89
7742.00,0.89
7741.00,0.89
7740.00,0.89
7739.00,0.89
7738.00,0.89
7737.00,0.89
7736.00,0.89
7735.00,0.89
7734.00,0.89
7733.00,0.89
7732.00,0.89
7731.00,0.89
7730.00,0.89
7729.00,0.89
7728.00,0.89
7727.00,0.89
7726.00,0.89
7725.00,0.89
7724.00,0.89
7723.00,0.88
7722.00,0.88
7721.00,0.88
7720.00,0.88
7719.00,0.88
7718.00,0.88
7717.00,0.88
7716.00,0.88
7715.00,0.88
7714.00,0.88
7713.00,0.88
7712.00,0.88
7711.00,0.88
7710.00,0.88
7709.00,0.88
7708.00,0.88
7707.00,0.88
7706.00,0.88
7705.00,0.88
7704.00,0.88
7703.00,0.88
7702.00,0.88
7701.00,0.88
7700.00,0.88
7699.00,0.89
7698.00,0.89
7697.00,0.89
7696.00,0.89
7695.00,0.89
7694.00,0.89
7693.00,0.89
7692.00,0.89
7691.00,0.89
7690.00,0.89
7689.00,0.89
7688.00,0.89
7687.00,0.89
7686.00,0.89
7685.00,0.89
7684.00,0.89
7683.00,0.89
7682.00,0.89
7681.00,0.89
7680.00,0.89
7679.00,0.89
7678.00,0.89
7677.00,0.89
7676.00,0.89
7675.00,0.89
7674.00,0.89
7673.00,0.89
7672.00,0.89
7671.00,0.89
7670.00,0.89
7669.00,0.89
7668.00,0.89
7667.00,0.89
7666.00,0.89
7665.00,0.89
7664.00,0.88
7663.00,0.88
7662.00,0.88
7661.00,0.88
7660.00,0.88
7659.00,0.88
7658.00,0.88
7657.00,0.88
7656.00,0.88
7655.00,0.88
7654.00,0.88
7653.00,0.88
7652.00,0.88
7651.00,0.88
7650.00,0.88
7649.00,0.88
7648.00,0.88
7647.00,0.88
7646.00,0.88
7645.00,0.88
7644.00,0.88
7643.00,0.88
7642.00,0.88
7641.00,0.88
7640.00,0.88
7639.00,0.89
7638.00,0.89
7637.00,0.89
7636.00,0.89
7635.00,0.89
7634.00,0.89
7633.00,0.89
7632.00,0.89
7631.00,0.89
7630.00,0.89
7629.00,0.89
7628.00,0.89
7627.00,0.89
7626.00,0.89
7625.00,0.89
7624.00,0.89
7623.00,0.89
7622.00,0.89
7621.00,0.89
7620.00,0.89
7619.00,0.88
7618.00,0.88
7617.00,0.88
7616.00,0.88
7615.00,0.88
7614.00,0.88
7613.00,0.88
7612.00,0.88
7611.00,0.88
7610.00,0.88
7609.00,0.88
7608.00,0.88
7607.00,0.88
7606.00,0.88
7605.00,0.88
7604.00,0.88
7603.00,0.88
7602.00,0.88
7601.00,0.88
7600.00,0.88
7599.00,0.88
7598.00,0.88
7597.00,0.88
7596.00,0.88
7595.00,0.88
7594.00,0.88
7593.00,0.88
7592.00,0.88
7591.00,0.88
7590.00,0.88
7589.00,0.88
7588.00,0.88
7587.00,0.88
7586.00,0.88
7585.00,0.88
7584.00,0.88
7583.00,0.88
7582.00,0.88
7581.00,0.88
7580.00,0.88
7579.00,0.88
7578.00,0.88
7577.00,0.88
7576.00,0.88
7575.00,0.88
7574.00,0.88
7573.00,0.88
7572.00,0.88
7571.00,0.88
7570.00,0.88
7569.00,0.88
7568.00,0.88
7567.00,0.88
7566.00,0.88
7565.00,0.87
7564.00,0.87
7563.00,0.87
7562.00,0.87
7561.00,0.87
7560.00,0.87
7559.00,0.87
7558.00,0.87
7557.00,0.87
7556.00,0.87
7555.00,0.87
7554.00,0.87
7553.00,0.87
7552.00,0.88
7551.00,0.88
7550.00,0.88
7549.00,0.88
7548.00,0.88
7547.00,0.88
7546.00,0.88
7545.00,0.88
7544.00,0.88
7543.00,0.88
7542.00,0.88
7541.00,0.88
7540.00,0.88
7539.00,0.88
7538.00,0.88
7537.00,0.88
7536.00,0.88
7535.00,0.88
7534.00,0.88
7533.00,0.88
7532.00,0.88
7531.00,0.88
7530.00,0.88
7529.00,0.87
7528.00,0.87
7527.00,0.87
7526.00,0.87
7525.00,0.87
7524.00,0.87
7523.00,0.87
7522.00,0.87
7521.00,0.87
7520.00,0.87
7519.00,0.87
7518.00,0.87
7517.00,0.87
7516.00,0.87
7515.00,0.87
7514.00,0.87
7513.00,0.87
7512.00,0.87
7511.00,0.87
7510.00,0.86
7509.00,0.86
7508.00,0.86
7507.00,0.86
7506.00,0.86
7505.00,0.86
7504.00,0.86
7503.00,0.86
7502.00,0.86
7501.00,0.86
7500.00,0.85
7499.00,0.85
7498.00,0.85
7497.00,0.85
7496.00,0.85
7495.00,0.85
7494.00,0.85
7493.00,0.85
7492.00,0.85
7491.00,0.85
7490.00,0.85
7489.00,0.85
7488.00,0.85
7487.00,0.85
7486.00,0.85
7485.00,0.85
7484.00,0.85
7483.00,0.85
7482.00,0.85
7481.00,0.85
7480.00,0.85
7479.00,0.85
7478.00,0.85
7477.00,0.85
7476.00,0.85
7475.00,0.85
7474.00,0.85
7473.00,0.85
7472.00,0.85
7471.00,0.85
7470.00,0.85
7469.00,0.85
7468.00,0.85
7467.00,0.85
7466.00,0.85
7465.00,0.85
7464.00,0.85
7463.00,0.85
7462.00,0.85
7461.00,0.85
7460.00,0.85
7459.00,0.85
7458.00,0.85
7457.00,0.85
7456.00,0.85
7455.00,0.85
7454.00,0.85
7453.00,0.85
7452.00,0.85
7451.00,0.85
7450.00,0.85
7449.00,0.85
7448.00,0.85
7447.00,0.85
7446.00,0.84
7445.00,0.84
7444.00,0.84
7443.00,0.84
7442.00,0.84
7441.00,0.84
7440.00,0.84
7439.00,0.84
7438.00,0.84
7437.00,0.84
7436.00,0.84
7435.00,0.84
7434.00,0.84
7433.00,0.84
7432.00,0.84
7431.00,0.84
7430.00,0.84
7429.00,0.84
7428.00,0.84
7427.00,0.84
7426.00,0.84
7425.00,0.84
7424.00,0.84
7423.00,0.84
7422.00,0.84
7421.00,0.84
7420.00,0.84
7419.00,0.84
7418.00,0.84
7417.00,0.84
7416.00,0.84
7415.00,0.84
7414.00,0.83
7413.00,0.83
7412.00,0.83
7411.00,0.83
7410.00,0.83
7409.00,0.83
7408.00,0.83
7407.00,0.83
7406.00,0.83
7405.00,0.83
7404.00,0.83
7403.00,0.83
7402.00,0.83
7401.00,0.83
7400.00,0.82
7399.00,0.82
7398.00,0.82
7397.00,0.82
7396.00,0.82
7395.00,0.82
7394.00,0.82
7393.00,0.82
7392.00,0.82
7391.00,0.81
7390.00,0.81
7389.00,0.81
7388.00,0.81
7387.00,0.81
7386.00,0.81
7385.00,0.81
7384.00,0.81
7383.00,0.81
7382.00,0.80
7381.00,0.80
7380.00,0.80
7379.00,0.80
7378.00,0.80
7377.00,0.80
7376.00,0.80
7375.00,0.80
7374.00,0.80
7373.00,0.80
7372.00,0.80
7371.00,0.80
7370.00,0.80
7369.00,0.80
7368.00,0.80
7367.00,0.80
7366.00,0.80
7365.00,0.80
7364.00,0.80
7363.00,0.80
7362.00,0.80
7361.00,0.80
7360.00,0.80
7359.00,0.80
7358.00,0.80
7357.00,0.80
7356.00,0.80
7355.00,0.80
7354.00,0.80
7353.00,0.80
7352.00,0.80
7351.00,0.80
7350.00,0.80
7349.00,0.80
7348.00,0.80
7347.00,0.80
7346.00,0.80
7345.00,0.80
7344.00,0.80
7343.00,0.80
7342.00,0.80
7341.00,0.80
7340.00,0.80
7339.00,0.80
7338.00,0.80
7337.00,0.80
7336.00,0.80
7335.00,0.80
7334.00,0.80
7333.00,0.80
7332.00,0.80
7331.00,0.80
7330.00,0.80
7329.00,0.80
7328.00,0.80
7327.00,0.80
7326.00,0.80
7325.00,0.79
7324.00,0.79
7323.00,0.79
7322.00,0.79
7321.00,0.79
7320.00,0.79
7319.00,0.79
7318.00,0.79
7317.00,0.79
7316.00,0.79
7315.00,0.79
7314.00,0.79
7313.00,0.79
7312.00,0.79
7311.00,0.79
7310.00,0.79
7309.00,0.79
7308.00,0.79
7307.00,0.79
7306.00,0.78
7305.00,0.78
7304.00,0.78
7303.00,0.78
7302.00,0.78
7301.00,0.78
7300.00,0.78
7299.00,0.78
7298.00,0.78
7297.00,0.78
7296.00,0.78
7295.00,0.77
7294.00,0.77
7293.00,0.77
7292.00,0.77
7291.00,0.77
7290.00,0.77
7289.00,0.77
7288.00,0.77
7287.00,0.77
7286.00,0.76
7285.00,0.76
7284.00,0.76
7283.00,0.76
7282.00,0.76
7281.00,0.76
7280.00,0.76
7279.00,0.76
7278.00,0.76
7277.00,0.76
7276.00,0.76
7275.00,0.76
7274.00,0.76
7273.00,0.76
7272.00,0.75
7271.00,0.75
7270.00,0.75
7269.00,0.75
7268.00,0.75
7267.00,0.75
7266.00,0.75
7265.00,0.75
7264.00,0.75
7263.00,0.75
7262.00,0.74
7261.00,0.74
7260.00,0.74
7259.00,0.74
7258.00,0.74
7257.00,0.74
7256.00,0.74
7255.00,0.74
7254.00,0.73
7253.00,0.73
7252.00,0.73
7251.00,0.73
7250.00,0.73
7249.00,0.73
7248.00,0.73
7247.00,0.72
7246.00,0.72
7245.00,0.72
7244.00,0.72
7243.00,0.71
7242.00,0.71
7241.00,0.71
7240.00,0.71
7239.00,0.71
7238.00,0.70
7237.00,0.70
7236.00,0.70
7235.00,0.70
7234.00,0.69
7233.00,0.69
7232.00,0.69
7231.00,0.69
7230.00,0.69
7229.00,0.68
7228.00,0.68
7227.00,0.68
7226.00,0.68
7225.00,0.68
7224.00,0.67
7223.00,0.67
7222.00,0.67
7221.00,0.67
7220.00,0.66
7219.00,0.66
7218.00,0.66
7217.00,0.66
7216.00,0.65
7215.00,0.65
7214.00,0.65
7213.00,0.65
7212.00,0.64
7211.00,0.64
7210.00,0.64
7209.00,0.64
7208.00,0.63
7207.00,0.63
7206.00,0.63
7205.00,0.63
7204.00,0.62
7203.00,0.62
7202.00,0.62
7201.00,0.62
7200.00,0.61
7199.00,0.61
7198.00,0.61
7197.00,0.61
7196.00,0.60
7195.00,0.60
7194.00,0.60
7193.00,0.60
7192.00,0.59
7191.00,0.59
7190.00,0.59
7189.00,0.59
7188.00,0.58
7187.00,0.58
7186.00,0.58
7185.00,0.57
7184.00,0.57
7183.00,0.57
7182.00,0.56
7181.00,0.56
7180.00,0.56
7179.00,0.56
7178.00,0.55
7177.00,0.55
7176.00,0.55
7175.00,0.54
7174.00,0.54
7173.00,0.54
7172.00,0.54
7171.00,0.53
7170.00,0.53
7169.00,0.53
7168.00,0.53
7167.00,0.52
7166.00,0.52
7165.00,0.52
7164.00,0.52
7163.00,0.52
7162.00,0.52
7161.00,0.52
7160.00,0.51
7159.00,0.51
7158.00,0.51
7157.00,0.51
7156.00,0.51
7155.00,0.51
7154.00,0.51
7153.00,0.50
7152.00,0.50
7151.00,0.50
7150.00,0.50
7149.00,0.50
7148.00,0.49
7147.00,0.49
7146.00,0.49
7145.00,0.49
7144.00,0.49
7143.00,0.48
7142.00,0.48
7141.00,0.48
7140.00,0.48
7139.00,0.47
7138.00,0.47
7137.00,0.47
7136.00,0.47
7135.00,0.46
7134.00,0.46
7133.00,0.46
7132.00,0.46
7131.00,0.46
7130.00,0.45
7129.00,0.45
7128.00,0.45
7127.00,0.45
7126.00,0.45
7125.00,0.45
7124.00,0.45
7123.00,0.45
7122.00,0.44
7121.00,0.44
7120.00,0.44
7119.00,0.44
7118.00,0.44
7117.00,0.44
7116.00,0.44
7115.00,0.44
7114.00,0.44
7113.00,0.43
7112.00,0.43
7111.00,0.43
7110.00,0.43
7109.00,0.43
7108.00,0.43
7107.00,0.43
7106.00,0.43
7105.00,0.43
7104.00,0.42
7103.00,0.42
7102.00,0.42
7101.00,0.42
7100.00,0.42
7099.00,0.42
7098.00,0.42
7097.00,0.42
7096.00,0.41
7095.00,0.41
7094.00,0.41
7093.00,0.41
7092.00,0.41
7091.00,0.41
7090.00,0.41
7089.00,0.40
7088.00,0.40
7087.00,0.40
7086.00,0.40
7085.00,0.40
7084.00,0.40
7083.00,0.39
7082.00,0.39
7081.00,0.39
7080.00,0.39
7079.00,0.39
7078.00,0.39
7077.00,0.39
7076.00,0.39
7075.00,0.39
7074.00,0.38
7073.00,0.38
7072.00,0.38
7071.00,0.38
7070.00,0.38
7069.00,0.38
7068.00,0.38
7067.00,0.38
7066.00,0.38
7065.00,0.38
7064.00,0.38
7063.00,0.38
7062.00,0.38
7061.00,0.38
7060.00,0.38
7059.00,0.38
7058.00,0.38
7057.00,0.38
7056.00,0.38
7055.00,0.38
7054.00,0.38
7053.00,0.38
7052.00,0.38
7051.00,0.38
7050.00,0.38
7049.00,0.38
7048.00,0.38
7047.00,0.38
7046.00,0.38
7045.00,0.38
7044.00,0.38
7043.00,0.38
7042.00,0.38
7041.00,0.38
7040.00,0.37
7039.00,0.37
7038.00,0.37
7037.00,0.37
7036.00,0.37
7035.00,0.37
7034.00,0.36
7033.00,0.36
7032.00,0.36
7031.00,0.36
7030.00,0.36
7029.00,0.36
7028.00,0.36
7027.00,0.36
7026.00,0.36
7025.00,0.36
7024.00,0.36
7023.00,0.36
7022.00,0.36
7021.00,0.36
7020.00,0.36
7019.00,0.36
7018.00,0.36
7017.00,0.36
7016.00,0.36
7015.00,0.36
7014.00,0.36
7013.00,0.36
7012.00,0.36
7011.00,0.36
7010.00,0.36
7009.00,0.36
7008.00,0.36
7007.00,0.36
7006.00,0.36
7005.00,0.36
7004.00,0.36
7003.00,0.36
7002.00,0.36
7001.00,0.35
7000.00,0.35
6999.00,0.35
6998.00,0.35
6997.00,0.35
6996.00,0.35
6995.00,0.35
6994.00,0.35
6993.00,0.35
6992.00,0.34
6991.00,0.34
6990.00,0.34
6989.00,0.34
6988.00,0.34
6987.00,0.34
6986.00,0.35
6985.00,0.35
6984.00,0.35
6983.00,0.35
6982.00,0.35
6981.00,0.35
6980.00,0.35
6979.00,0.35
6978.00,0.35
6977.00,0.35
6976.00,0.35
6975.00,0.35
6974.00,0.35
6973.00,0.35
6972.00,0.35
6971.00,0.35
6970.00,0.35
6969.00,0.35
6968.00,0.35
6967.00,0.34
6966.00,0.34
6965.00,0.34
6964.00,0.34
6963.00,0.34
6962.00,0.34
6961.00,0.34
6960.00,0.34
6959.00,0.34
6958.00,0.34
6957.00,0.34
6956.00,0.34
6955.00,0.34
6954.00,0.34
6953.00,0.34
6952.00,0.34
6951.00,0.34
6950.00,0.34
6949.00,0.34
6948.00,0.34
6947.00,0.34
6946.00,0.34
6945.00,0.34
6944.00,0.34
6943.00,0.34
6942.00,0.34
6941.00,0.34
6940.00,0.34
6939.00,0.34
6938.00,0.34
6937.00,0.34
6936.00,0.34
6935.00,0.34
6934.00,0.34
6933.00,0.34
6932.00,0.33
6931.00,0.33
6930.00,0.33
6929.00,0.33
6928.00,0.33
6927.00,0.33
6926.00,0.33
6925.00,0.33
6924.00,0.33
6923.00,0.33
6922.00,0.33
6921.00,0.33
6920.00,0.33
6919.00,0.34
6918.00,0.34
6917.00,0.34
6916.00,0.34
6915.00,0.34
6914.00,0.34
6913.00,0.34
6912.00,0.34
6911.00,0.34
6910.00,0.34
6909.00,0.34
6908.00,0.34
6907.00,0.34
6906.00,0.34
6905.00,0.34
6904.00,0.34
6903.00,0.34
6902.00,0.34
6901.00,0.34
6900.00,0.34
6899.00,0.34
6898.00,0.34
6897.00,0.34
6896.00,0.34
6895.00,0.34
6894.00,0.34
6893.00,0.34
6892.00,0.34
6891.00,0.34
6890.00,0.35
6889.00,0.35
6888.00,0.35
6887.00,0.35
6886.00,0.35
6885.00,0.35
6884.00,0.35
6883.00,0.35
6882.00,0.35
6881.00,0.35
6880.00,0.34
6879.00,0.34
6878.00,0.34
6877.00,0.34
6876.00,0.34
6875.00,0.34
6874.00,0.34
6873.00,0.34
6872.00,0.34
6871.00,0.34
6870.00,0.34
6869.00,0.33
6868.00,0.33
6867.00,0.33
6866.00,0.33
6865.00,0.33
6864.00,0.33
6863.00,0.33
6862.00,0.33
6861.00,0.33
6860.00,0.33
6859.00,0.33
6858.00,0.33
6857.00,0.33
6856.00,0.33
6855.00,0.34
6854.00,0.34
6853.00,0.34
6852.00,0.34
6851.00,0.34
6850.00,0.34
6849.00,0.34
6848.00,0.34
6847.00,0.34
6846.00,0.34
6845.00,0.34
6844.00,0.34
6843.00,0.34
6842.00,0.34
6841.00,0.34
6840.00,0.34
6839.00,0.34
6838.00,0.34
6837.00,0.34
6836.00,0.34
6835.00,0.34
6834.00,0.34
6833.00,0.35
6832.00,0.35
6831.00,0.35
6830.00,0.35
6829.00,0.35
6828.00,0.35
6827.00,0.35
6826.00,0.35
6825.00,0.35
6824.00,0.35
6823.00,0.35
6822.00,0.35
6821.00,0.35
6820.00,0.35
6819.00,0.35
6818.00,0.35
6817.00,0.35
6816.00,0.35
6815.00,0.35
6814.00,0.35
6813.00,0.35
6812.00,0.35
6811.00,0.35
6810.00,0.35
6809.00,0.35
6808.00,0.35
6807.00,0.35
6806.00,0.35
6805.00,0.35
6804.00,0.35
6803.00,0.35
6802.00,0.35
6801.00,0.35
6800.00,0.35
6799.00,0.35
6798.00,0.35
6797.00,0.35
6796.00,0.35
6795.00,0.35
6794.00,0.35
6793.00,0.35
6792.00,0.35
6791.00,0.35
6790.00,0.35
6789.00,0.35
6788.00,0.35
6787.00,0.35
6786.00,0.35
6785.00,0.35
6784.00,0.36
6783.00,0.36
6782.00,0.36
6781.00,0.36
6780.00,0.36
6779.00,0.36
6778.00,0.36
6777.00,0.36
6776.00,0.36
6775.00,0.36
6774.00,0.36
6773.00,0.36
6772.00,0.36
6771.00,0.36
6770.00,0.36
6769.00,0.36
6768.00,0.36
6767.00,0.36
6766.00,0.36
6765.00,0.36
6764.00,0.36
6763.00,0.36
6762.00,0.36
6761.00,0.36
6760.00,0.36
6759.00,0.36
6758.00,0.36
6757.00,0.36
6756.00,0.36
6755.00,0.36
6754.00,0.36
6753.00,0.36
6752.00,0.36
6751.00,0.36
6750.00,0.36
6749.00,0.36
6748.00,0.36
6747.00,0.36
6746.00,0.37
6745.00,0.37
6744.00,0.37
6743.00,0.37
6742.00,0.37
6741.00,0.37
6740.00,0.37
6739.00,0.37
6738.00,0.37
6737.00,0.37
6736.00,0.37
6735.00,0.37
6734.00,0.37
6733.00,0.37
6732.00,0.37
6731.00,0.37
6730.00,0.37
6729.00,0.37
6728.00,0.37
6727.00,0.37
6726.00,0.37
6725.00,0.37
6724.00,0.37
6723.00,0.37
6722.00,0.37
6721.00,0.37
6720.00,0.37
6719.00,0.37
6718.00,0.37
6717.00,0.37
6716.00,0.37
6715.00,0.37
6714.00,0.37
6713.00,0.38
6712.00,0.38
6711.00,0.38
6710.00,0.38
6709.00,0.38
6708.00,0.38
6707.00,0.38
6706.00,0.38
6705.00,0.38
6704.00,0.39
6703.00,0.39
6702.00,0.39
6701.00,0.39
6700.00,0.39
6699.00,0.39
6698.00,0.39
6697.00,0.39
6696.00,0.39
6695.00,0.39
6694.00,0.39
6693.00,0.39
6692.00,0.39
6691.00,0.39
6690.00,0.39
6689.00,0.39
6688.00,0.39
6687.00,0.39
6686.00,0.39
6685.00,0.39
6684.00,0.39
6683.00,0.39
6682.00,0.39
6681.00,0.39
6680.00,0.40
6679.00,0.40
6678.00,0.40
6677.00,0.40
6676.00,0.40
6675.00,0.40
6674.00,0.40
6673.00,0.40
6672.00,0.40
6671.00,0.40
6670.00,0.40
6669.00,0.41
6668.00,0.41
6667.00,0.41
6666.00,0.41
6665.00,0.41
6664.00,0.41
6663.00,0.41
6662.00,0.41
6661.00,0.41
6660.00,0.41
6659.00,0.41
6658.00,0.41
6657.00,0.41
6656.00,0.41
6655.00,0.41
6654.00,0.41
6653.00,0.41
6652.00,0.41
6651.00,0.41
6650.00,0.41
6649.00,0.41
6648.00,0.41
6647.00,0.42
6646.00,0.42
6645.00,0.42
6644.00,0.42
6643.00,0.42
6642.00,0.42
6641.00,0.42
6640.00,0.42
6639.00,0.42
6638.00,0.42
6637.00,0.42
6636.00,0.42
6635.00,0.42
6634.00,0.42
6633.00,0.42
6632.00,0.42
6631.00,0.42
6630.00,0.42
6629.00,0.42
6628.00,0.42
6627.00,0.42
6626.00,0.42
6625.00,0.42
6624.00,0.42
6623.00,0.43
6622.00,0.43
6621.00,0.43
6620.00,0.43
6619.00,0.43
6618.00,0.43
6617.00,0.43
6616.00,0.43
6615.00,0.43
6614.00,0.43
6613.00,0.43
6612.00,0.43
6611.00,0.43
6610.00,0.43
6609.00,0.43
6608.00,0.44
6607.00,0.44
6606.00,0.44
6605.00,0.44
6604.00,0.44
6603.00,0.44
6602.00,0.44
6601.00,0.44
6600.00,0.44
6599.00,0.44
6598.00,0.44
6597.00,0.44
6596.00,0.44
6595.00,0.44
6594.00,0.44
6593.00,0.44
6592.00,0.44
6591.00,0.44
6590.00,0.44
6589.00,0.44
6588.00,0.45
6587.00,0.45
6586.00,0.45
6585.00,0.45
6584.00,0.45
6583.00,0.45
6582.00,0.45
6581.00,0.45
6580.00,0.45
6579.00,0.45
6578.00,0.45
6577.00,0.45
6576.00,0.45
6575.00,0.45
6574.00,0.45
6573.00,0.46
6572.00,0.46
6571.00,0.46
6570.00,0.46
6569.00,0.46
6568.00,0.46
6567.00,0.46
6566.00,0.46
6565.00,0.46
6564.00,0.46
6563.00,0.46
6562.00,0.47
6561.00,0.47
6560.00,0.47
6559.00,0.47
6558.00,0.47
6557.00,0.47
6556.00,0.47
6555.00,0.47
6554.00,0.47
6553.00,0.47
6552.00,0.47
6551.00,0.47
6550.00,0.48
6549.00,0.48
6548.00,0.48
6547.00,0.48
6546.00,0.48
6545.00,0.48
6544.00,0.48
6543.00,0.48
6542.00,0.48
6541.00,0.48
6540.00,0.48
6539.00,0.49
6538.00,0.49
6537.00,0.49
6536.00,0.49
6535.00,0.49
6534.00,0.49
6533.00,0.49
6532.00,0.49
6531.00,0.49
6530.00,0.49
6529.00,0.49
6528.00,0.49
6527.00,0.49
6526.00,0.49
6525.00,0.49
6524.00,0.49
6523.00,0.49
6522.00,0.49
6521.00,0.49
6520.00,0.49
6519.00,0.49
6518.00,0.49
6517.00,0.49
6516.00,0.49
6515.00,0.49
6514.00,0.49
6513.00,0.49
6512.00,0.49
6511.00,0.50
6510.00,0.50
6509.00,0.50
6508.00,0.50
6507.00,0.50
6506.00,0.50
6505.00,0.50
6504.00,0.50
6503.00,0.50
6502.00,0.50
6501.00,0.50
6500.00,0.50
6499.00,0.50
6498.00,0.50
6497.00,0.51
6496.00,0.51
6495.00,0.51
6494.00,0.51
6493.00,0.51
6492.00,0.51
6491.00,0.51
6490.00,0.51
6489.00,0.51
6488.00,0.51
6487.00,0.51
6486.00,0.51
6485.00,0.51
6484.00,0.51
6483.00,0.52
6482.00,0.52
6481.00,0.52
6480.00,0.52
6479.00,0.52
6478.00,0.52
6477.00,0.52
6476.00,0.52
6475.00,0.52
6474.00,0.52
6473.00,0.52
6472.00,0.52
6471.00,0.52
6470.00,0.52
6469.00,0.52
6468.00,0.52
6467.00,0.52
6466.00,0.52
6465.00,0.52
6464.00,0.52
6463.00,0.52
6462.00,0.52
6461.00,0.53
6460.00,0.53
6459.00,0.53
6458.00,0.53
6457.00,0.53
6456.00,0.53
6455.00,0.53
6454.00,0.53
6453.00,0.53
6452.00,0.53
6451.00,0.53
6450.00,0.53
6449.00,0.53
6448.00,0.53
6447.00,0.53
6446.00,0.53
6445.00,0.53
6444.00,0.54
6443.00,0.54
6442.00,0.54
6441.00,0.54
6440.00,0.54
6439.00,0.54
6438.00,0.54
6437.00,0.54
6436.00,0.54
6435.00,0.54
6434.00,0.54
6433.00,0.54
6432.00,0.54
6431.00,0.54
6430.00,0.54
6429.00,0.54
6428.00,0.54
6427.00,0.54
6426.00,0.54
6425.00,0.54
6424.00,0.54
6423.00,0.54
6422.00,0.54
6421.00,0.54
6420.00,0.54
6419.00,0.55
6418.00,0.55
6417.00,0.55
6416.00,0.55
6415.00,0.55
6414.00,0.55
6413.00,0.55
6412.00,0.55
6411.00,0.55
6410.00,0.55
6409.00,0.55
6408.00,0.55
6407.00,0.55
6406.00,0.55
6405.00,0.55
6404.00,0.55
6403.00,0.55
6402.00,0.55
6401.00,0.56
6400.00,0.56
6399.00,0.56
6398.00,0.56
6397.00,0.56
6396.00,0.56
6395.00,0.56
6394.00,0.56
6393.00,0.56
6392.00,0.56
6391.00,0.56
6390.00,0.56
6389.00,0.56
6388.00,0.56
6387.00,0.56
6386.00,0.56
6385.00,0.56
6384.00,0.56
6383.00,0.56
6382.00,0.56
6381.00,0.57
6380.00,0.57
6379.00,0.57
6378.00,0.57
6377.00,0.57
6376.00,0.57
6375.00,0.57
6374.00,0.57
6373.00,0.57
6372.00,0.57
6371.00,0.57
6370.00,0.57
6369.00,0.57
6368.00,0.57
6367.00,0.57
6366.00,0.57
6365.00,0.57
6364.00,0.57
6363.00,0.57
6362.00,0.57
6361.00,0.57
6360.00,0.58
6359.00,0.58
6358.00,0.58
6357.00,0.58
6356.00,0.58
6355.00,0.58
6354.00,0.58
6353.00,0.58
6352.00,0.58
6351.00,0.58
6350.00,0.58
6349.00,0.58
6348.00,0.58
6347.00,0.58
6346.00,0.58
6345.00,0.58
6344.00,0.58
6343.00,0.58
6342.00,0.58
6341.00,0.59
6340.00,0.59
6339.00,0.59
6338.00,0.59
6337.00,0.59
6336.00,0.59
6335.00,0.59
6334.00,0.59
6333.00,0.59
6332.00,0.60
6331.00,0.60
6330.00,0.60
6329.00,0.60
6328.00,0.60
6327.00,0.60
6326.00,0.60
6325.00,0.60
6324.00,0.60
6323.00,0.60
6322.00,0.61
6321.00,0.61
6320.00,0.61
6319.00,0.61
6318.00,0.61
6317.00,0.61
6316.00,0.61
6315.00,0.61
6314.00,0.61
6313.00,0.61
6312.00,0.61
6311.00,0.62
6310.00,0.62
6309.00,0.62
6308.00,0.62
6307.00,0.62
6306.00,0.62
6305.00,0.62
6304.00,0.62
6303.00,0.62
6302.00,0.62
6301.00,0.62
6300.00,0.62
6299.00,0.62
6298.00,0.62
6297.00,0.62
6296.00,0.63
6295.00,0.63
6294.00,0.63
6293.00,0.63
6292.00,0.63
6291.00,0.63
6290.00,0.63
6289.00,0.63
6288.00,0.63
6287.00,0.63
6286.00,0.63
6285.00,0.64
6284.00,0.64
6283.00,0.64
6282.00,0.64
6281.00,0.64
6280.00,0.64
6279.00,0.64
6278.00,0.64
6277.00,0.65
6276.00,0.65
6275.00,0.65
6274.00,0.65
6273.00,0.65
6272.00,0.65
6271.00,0.65
6270.00,0.65
6269.00,0.65
6268.00,0.65
6267.00,0.65
6266.00,0.66
6265.00,0.66
6264.00,0.66
6263.00,0.66
6262.00,0.66
6261.00,0.66
6260.00,0.66
6259.00,0.66
6258.00,0.66
6257.00,0.66
6256.00,0.66
6255.00,0.66
6254.00,0.66
6253.00,0.66
6252.00,0.66
6251.00,0.66
6250.00,0.67
6249.00,0.67
6248.00,0.67
6247.00,0.67
6246.00,0.67
6245.00,0.67
6244.00,0.67
6243.00,0.67
6242.00,0.67
6241.00,0.67
6240.00,0.67
6239.00,0.67
6238.00,0.67
6237.00,0.67
6236.00,0.67
6235.00,0.68
6234.00,0.68
6233.00,0.68
6232.00,0.68
6231.00,0.68
6230.00,0.68
6229.00,0.68
6228.00,0.68
6227.00,0.68
6226.00,0.68
6225.00,0.68
6224.00,0.68
6223.00,0.68
6222.00,0.68
6221.00,0.68
6220.00,0.68
6219.00,0.69
6218.00,0.69
6217.00,0.69
6216.00,0.69
6215.00,0.69
6214.00,0.69
6213.00,0.69
6212.00,0.69
6211.00,0.69
6210.00,0.70
6209.00,0.70
6208.00,0.70
6207.00,0.70
6206.00,0.70
6205.00,0.70
6204.00,0.70
6203.00,0.70
6202.00,0.70
6201.00,0.70
6200.00,0.70
6199.00,0.71
6198.00,0.71
6197.00,0.71
6196.00,0.71
6195.00,0.71
6194.00,0.71
6193.00,0.71
6192.00,0.71
6191.00,0.71
6190.00,0.71
6189.00,0.71
6188.00,0.72
6187.00,0.72
6186.00,0.72
6185.00,0.72
6184.00,0.72
6183.00,0.72
6182.00,0.72
6181.00,0.72
6180.00,0.72
6179.00,0.72
6178.00,0.72
6177.00,0.72
6176.00,0.72
6175.00,0.72
6174.00,0.73
6173.00,0.73
6172.00,0.73
6171.00,0.73
6170.00,0.73
6169.00,0.73
6168.00,0.73
6167.00,0.73
6166.00,0.73
6165.00,0.73
6164.00,0.74
6163.00,0.74
6162.00,0.74
6161.00,0.74
6160.00,0.74
6159.00,0.74
6158.00,0.74
6157.00,0.75
6156.00,0.75
6155.00,0.75
6154.00,0.75
6153.00,0.75
6152.00,0.75
6151.00,0.75
6150.00,0.75
6149.00,0.75
6148.00,0.76
6147.00,0.76
6146.00,0.76
6145.00,0.76
6144.00,0.76
6143.00,0.76
6142.00,0.76
6141.00,0.76
6140.00,0.76
6139.00,0.76
6138.00,0.77
6137.00,0.77
6136.00,0.77
6135.00,0.77
6134.00,0.77
6133.00,0.77
6132.00,0.77
6131.00,0.77
6130.00,0.77
6129.00,0.77
6128.00,0.77
6127.00,0.77
6126.00,0.77
6125.00,0.77
6124.00,0.77
6123.00,0.77
6122.00,0.77
6121.00,0.78
6120.00,0.78
6119.00,0.78
6118.00,0.78
6117.00,0.78
6116.00,0.78
6115.00,0.78
6114.00,0.78
6113.00,0.78
6112.00,0.78
6111.00,0.79
6110.00,0.79
6109.00,0.79
6108.00,0.79
6107.00,0.79
6106.00,0.79
6105.00,0.79
6104.00,0.80
6103.00,0.80
6102.00,0.80
6101.00,0.80
6100.00,0.80
6099.00,0.80
6098.00,0.80
6097.00,0.80
6096.00,0.80
6095.00,0.81
6094.00,0.81
6093.00,0.81
6092.00,0.81
6091.00,0.81
6090.00,0.81
6089.00,0.81
6088.00,0.81
6087.00,0.81
6086.00,0.81
6085.00,0.82
6084.00,0.82
6083.00,0.82
6082.00,0.82
6081.00,0.82
6080.00,0.82
6079.00,0.82
6078.00,0.82
6077.00,0.82
6076.00,0.82
6075.00,0.82
6074.00,0.82
6073.00,0.82
6072.00,0.82
6071.00,0.82
6070.00,0.82
6069.00,0.82
6068.00,0.82
6067.00,0.82
6066.00,0.83
6065.00,0.83
6064.00,0.83
6063.00,0.83
6062.00,0.83
6061.00,0.83
6060.00,0.83
6059.00,0.83
6058.00,0.83
6057.00,0.83
6056.00,0.83
6055.00,0.83
6054.00,0.83
6053.00,0.83
6052.00,0.83
6051.00,0.83
6050.00,0.83
6049.00,0.84
6048.00,0.84
6047.00,0.84
6046.00,0.84
6045.00,0.84
6044.00,0.84
6043.00,0.84
6042.00,0.84
6041.00,0.84
6040.00,0.84
6039.00,0.84
6038.00,0.84
6037.00,0.84
6036.00,0.85
6035.00,0.85
6034.00,0.85
6033.00,0.85
6032.00,0.85
6031.00,0.85
6030.00,0.85
6029.00,0.85
6028.00,0.85
6027.00,0.85
6026.00,0.85
6025.00,0.85
6024.00,0.85
6023.00,0.85
6022.00,0.85
6021.00,0.85
6020.00,0.85
6019.00,0.85
6018.00,0.85
6017.00,0.85
6016.00,0.85
6015.00,0.85
6014.00,0.85
6013.00,0.85
6012.00,0.85
6011.00,0.85
6010.00,0.85
6009.00,0.85
6008.00,0.85
6007.00,0.85
6006.00,0.85
6005.00,0.85
6004.00,0.85
6003.00,0.85
6002.00,0.85
6001.00,0.85
6000.00,0.85
5999.00,0.85
5998.00,0.85
5997.00,0.85
5996.00,0.84
5995.00,0.84
5994.00,0.84
5993.00,0.84
5992.00,0.84
5991.00,0.84
5990.00,0.84
5989.00,0.84
5988.00,0.84
5987.00,0.84
5986.00,0.83
5985.00,0.83
5984.00,0.83
5983.00,0.83
5982.00,0.83
5981.00,0.83
5980.00,0.82
5979.00,0.82
5978.00,0.82
5977.00,0.82
5976.00,0.81
5975.00,0.81
5974.00,0.81
5973.00,0.81
5972.00,0.80
5971.00,0.80
5970.00,0.80
5969.00,0.79
5968.00,0.79
5967.00,0.79
5966.00,0.78
5965.00,0.78
5964.00,0.77
5963.00,0.77
5962.00,0.77
5961.00,0.76
5960.00,0.76
5959.00,0.76
5958.00,0.75
5957.00,0.75
5956.00,0.74
5955.00,0.74
5954.00,0.74
5953.00,0.73
5952.00,0.73
5951.00,0.73
5950.00,0.73
5949.00,0.72
5948.00,0.72
5947.00,0.72
5946.00,0.72
5945.00,0.72
5944.00,0.71
5943.00,0.71
5942.00,0.71
5941.00,0.71
5940.00,0.71
5939.00,0.71
5938.00,0.71
5937.00,0.71
5936.00,0.71
5935.00,0.71
5934.00,0.71
5933.00,0.71
5932.00,0.71
5931.00,0.71
5930.00,0.71
5929.00,0.71
5928.00,0.70
5927.00,0.70
5926.00,0.70
5925.00,0.70
5924.00,0.70
5923.00,0.70
5922.00,0.70
5921.00,0.69
5920.00,0.69
5919.00,0.69
5918.00,0.69
5917.00,0.69
5916.00,0.69
5915.00,0.68
5914.00,0.68
5913.00,0.68
5912.00,0.68
5911.00,0.68
5910.00,0.68
5909.00,0.68
5908.00,0.68
5907.00,0.67
5906.00,0.67
5905.00,0.67
5904.00,0.67
5903.00,0.67
5902.00,0.67
5901.00,0.67
5900.00,0.67
5899.00,0.67
5898.00,0.67
5897.00,0.67
5896.00,0.68
5895.00,0.68
5894.00,0.68
5893.00,0.68
5892.00,0.68
5891.00,0.68
5890.00,0.68
5889.00,0.69
5888.00,0.69
5887.00,0.69
5886.00,0.69
5885.00,0.69
5884.00,0.70
5883.00,0.70
5882.00,0.70
5881.00,0.70
5880.00,0.70
5879.00,0.71
5878.00,0.71
5877.00,0.71
5876.00,0.71
5875.00,0.71
5874.00,0.72
5873.00,0.72
5872.00,0.72
5871.00,0.72
5870.00,0.72
5869.00,0.72
5868.00,0.72
5867.00,0.72
5866.00,0.73
5865.00,0.73
5864.00,0.73
5863.00,0.73
5862.00,0.73
5861.00,0.73
5860.00,0.73
5859.00,0.73
5858.00,0.74
5857.00,0.74
5856.00,0.74
5855.00,0.74
5854.00,0.74
5853.00,0.74
5852.00,0.74
5851.00,0.74
5850.00,0.74
5849.00,0.74
5848.00,0.74
5847.00,0.74
5846.00,0.74
5845.00,0.74
5844.00,0.74
5843.00,0.74
5842.00,0.74
5841.00,0.74
5840.00,0.74
5839.00,0.74
5838.00,0.74
5837.00,0.74
5836.00,0.74
5835.00,0.74
5834.00,0.74
5833.00,0.74
5832.00,0.74
5831.00,0.74
5830.00,0.74
5829.00,0.74
5828.00,0.74
5827.00,0.74
5826.00,0.74
5825.00,0.74
5824.00,0.74
5823.00,0.74
5822.00,0.74
5821.00,0.74
5820.00,0.74
5819.00,0.74
5818.00,0.74
5817.00,0.74
5816.00,0.74
5815.00,0.74
5814.00,0.74
5813.00,0.74
5812.00,0.74
5811.00,0.74
5810.00,0.73
5809.00,0.73
5808.00,0.73
5807.00,0.73
5806.00,0.73
5805.00,0.73
5804.00,0.73
5803.00,0.73
5802.00,0.73
5801.00,0.73
5800.00,0.73
5799.00,0.73
5798.00,0.73
5797.00,0.73
5796.00,0.73
5795.00,0.72
5794.00,0.72
5793.00,0.72
5792.00,0.72
5791.00,0.72
5790.00,0.72
5789.00,0.72
5788.00,0.72
5787.00,0.71
5786.00,0.71
5785.00,0.71
5784.00,0.71
5783.00,0.71
5782.00,0.71
5781.00,0.71
5780.00,0.71
5779.00,0.71
5778.00,0.71
5777.00,0.71
5776.00,0.71
5775.00,0.71
5774.00,0.71
5773.00,0.71
5772.00,0.71
5771.00,0.71
5770.00,0.71
5769.00,0.71
5768.00,0.71
5767.00,0.71
5766.00,0.71
5765.00,0.71
5764.00,0.71
5763.00,0.71
5762.00,0.72
5761.00,0.72
5760.00,0.72
5759.00,0.72
5758.00,0.72
5757.00,0.72
5756.00,0.72
5755.00,0.73
5754.00,0.73
5753.00,0.73
5752.00,0.73
5751.00,0.73
5750.00,0.73
5749.00,0.74
5748.00,0.74
5747.00,0.74
5746.00,0.74
5745.00,0.74
5744.00,0.74
5743.00,0.75
5742.00,0.75
5741.00,0.75
5740.00,0.75
5739.00,0.75
5738.00,0.75
5737.00,0.76
5736.00,0.76
5735.00,0.76
5734.00,0.76
5733.00,0.76
5732.00,0.76
5731.00,0.76
5730.00,0.76
5729.00,0.76
5728.00,0.76
5727.00,0.76
5726.00,0.76
5725.00,0.76
5724.00,0.76
5723.00,0.76
5722.00,0.76
5721.00,0.76
5720.00,0.76
5719.00,0.76
5718.00,0.76
5717.00,0.76
5716.00,0.76
5715.00,0.76
5714.00,0.76
5713.00,0.76
5712.00,0.76
5711.00,0.76
5710.00,0.76
5709.00,0.76
5708.00,0.76
5707.00,0.76
5706.00,0.76
5705.00,0.76
5704.00,0.76
5703.00,0.75
5702.00,0.75
5701.00,0.75
5700.00,0.75
5699.00,0.75
5698.00,0.75
5697.00,0.75
5696.00,0.75
5695.00,0.75
5694.00,0.75
5693.00,0.75
5692.00,0.74
5691.00,0.74
5690.00,0.74
5689.00,0.74
5688.00,0.74
5687.00,0.74
5686.00,0.74
5685.00,0.74
5684.00,0.74
5683.00,0.74
5682.00,0.74
5681.00,0.73
5680.00,0.73
5679.00,0.73
5678.00,0.73
5677.00,0.73
5676.00,0.73
5675.00,0.73
5674.00,0.73
5673.00,0.73
5672.00,0.73
5671.00,0.73
5670.00,0.73
5669.00,0.73
5668.00,0.73
5667.00,0.73
5666.00,0.73
5665.00,0.73
5664.00,0.73
5663.00,0.73
5662.00,0.73
5661.00,0.74
5660.00,0.74
5659.00,0.74
5658.00,0.74
5657.00,0.74
5656.00,0.74
5655.00,0.74
5654.00,0.74
5653.00,0.74
5652.00,0.74
5651.00,0.74
5650.00,0.74
5649.00,0.75
5648.00,0.75
5647.00,0.75
5646.00,0.75
5645.00,0.75
5644.00,0.75
5643.00,0.75
5642.00,0.75
5641.00,0.75
5640.00,0.76
5639.00,0.76
5638.00,0.76
5637.00,0.76
5636.00,0.76
5635.00,0.76
5634.00,0.76
5633.00,0.76
5632.00,0.76
5631.00,0.76
5630.00,0.76
5629.00,0.77
5628.00,0.77
5627.00,0.77
5626.00,0.77
5625.00,0.77
5624.00,0.77
5623.00,0.77
5622.00,0.77
5621.00,0.77
5620.00,0.77
5619.00,0.77
5618.00,0.77
5617.00,0.78
5616.00,0.78
5615.00,0.78
5614.00,0.78
5613.00,0.78
5612.00,0.78
5611.00,0.78
5610.00,0.78
5609.00,0.78
5608.00,0.78
5607.00,0.78
5606.00,0.78
5605.00,0.78
5604.00,0.78
5603.00,0.79
5602.00,0.79
5601.00,0.79
5600.00,0.79
5599.00,0.79
5598.00,0.79
5597.00,0.79
5596.00,0.79
5595.00,0.79
5594.00,0.79
5593.00,0.79
5592.00,0.80
5591.00,0.80
5590.00,0.80
5589.00,0.80
5588.00,0.80
5587.00,0.80
5586.00,0.80
5585.00,0.80
5584.00,0.80
5583.00,0.80
5582.00,0.81
5581.00,0.81
5580.00,0.81
5579.00,0.81
5578.00,0.81
5577.00,0.81
5576.00,0.81
5575.00,0.81
5574.00,0.81
5573.00,0.81
5572.00,0.81
5571.00,0.81
5570.00,0.82
5569.00,0.82
5568.00,0.82
5567.00,0.82
5566.00,0.82
5565.00,0.82
5564.00,0.82
5563.00,0.82
5562.00,0.82
5561.00,0.82
5560.00,0.82
5559.00,0.82
5558.00,0.82
5557.00,0.83
5556.00,0.83
5555.00,0.83
5554.00,0.83
5553.00,0.83
5552.00,0.83
5551.00,0.83
5550.00,0.83
5549.00,0.83
5548.00,0.83
5547.00,0.83
5546.00,0.83
5545.00,0.83
5544.00,0.83
5543.00,0.83
5542.00,0.84
5541.00,0.84
5540.00,0.84
5539.00,0.84
5538.00,0.84
5537.00,0.84
5536.00,0.84
5535.00,0.84
5534.00,0.84
5533.00,0.84
5532.00,0.84
5531.00,0.85
5530.00,0.85
5529.00,0.85
5528.00,0.85
5527.00,0.85
5526.00,0.85
5525.00,0.85
5524.00,0.85
5523.00,0.85
5522.00,0.85
5521.00,0.85
5520.00,0.85
5519.00,0.85
5518.00,0.85
5517.00,0.85
5516.00,0.85
5515.00,0.85
5514.00,0.85
5513.00,0.85
5512.00,0.85
5511.00,0.85
5510.00,0.85
5509.00,0.86
5508.00,0.86
5507.00,0.86
5506.00,0.86
5505.00,0.86
5504.00,0.86
5503.00,0.86
5502.00,0.86
5501.00,0.86
5500.00,0.86
5499.00,0.86
5498.00,0.86
5497.00,0.86
5496.00,0.86
5495.00,0.86
5494.00,0.86
5493.00,0.86
5492.00,0.86
5491.00,0.86
5490.00,0.86
5489.00,0.87
5488.00,0.87
5487.00,0.87
5486.00,0.87
5485.00,0.87
5484.00,0.87
5483.00,0.87
5482.00,0.87
5481.00,0.87
5480.00,0.88
5479.00,0.88
5478.00,0.88
5477.00,0.88
5476.00,0.88
5475.00,0.88
5474.00,0.88
5473.00,0.88
5472.00,0.88
5471.00,0.88
5470.00,0.88
5469.00,0.88
5468.00,0.88
5467.00,0.89
5466.00,0.89
5465.00,0.89
5464.00,0.89
5463.00,0.89
5462.00,0.89
5461.00,0.89
5460.00,0.89
5459.00,0.89
5458.00,0.89
5457.00,0.89
5456.00,0.89
5455.00,0.89
5454.00,0.89
5453.00,0.89
5452.00,0.89
5451.00,0.89
5450.00,0.89
5449.00,0.89
5448.00,0.89
5447.00,0.89
5446.00,0.89
5445.00,0.89
5444.00,0.89
5443.00,0.89
5442.00,0.89
5441.00,0.89
5440.00,0.89
5439.00,0.89
5438.00,0.89
5437.00,0.89
5436.00,0.89
5435.00,0.89
5434.00,0.89
5433.00,0.89
5432.00,0.89
5431.00,0.89
5430.00,0.89
5429.00,0.89
5428.00,0.89
5427.00,0.89
5426.00,0.89
5425.00,0.89
5424.00,0.89
5423.00,0.89
5422.00,0.89
5421.00,0.89
5420.00,0.89
5419.00,0.89
5418.00,0.89
5417.00,0.89
5416.00,0.89
5415.00,0.89
5414.00,0.89
5413.00,0.89
5412.00,0.89
5411.00,0.89
5410.00,0.89
5409.00,0.89
5408.00,0.89
5407.00,0.89
5406.00,0.89
5405.00,0.89
5404.00,0.88
5403.00,0.88
5402.00,0.88
5401.00,0.88
5400.00,0.88
5399.00,0.88
5398.00,0.88
5397.00,0.88
5396.00,0.88
5395.00,0.88
5394.00,0.87
5393.00,0.87
5392.00,0.87
5391.00,0.87
5390.00,0.87
5389.00,0.87
5388.00,0.86
5387.00,0.86
5386.00,0.86
5385.00,0.86
5384.00,0.85
5383.00,0.85
5382.00,0.85
5381.00,0.85
5380.00,0.84
5379.00,0.84
5378.00,0.84
5377.00,0.83
5376.00,0.83
5375.00,0.83
5374.00,0.82
5373.00,0.82
5372.00,0.82
5371.00,0.81
5370.00,0.81
5369.00,0.81
5368.00,0.80
5367.00,0.80
5366.00,0.79
5365.00,0.79
5364.00,0.78
5363.00,0.78
5362.00,0.78
5361.00,0.77
5360.00,0.77
5359.00,0.76
5358.00,0.75
5357.00,0.75
5356.00,0.74
5355.00,0.74
5354.00,0.73
5353.00,0.73
5352.00,0.72
5351.00,0.72
5350.00,0.71
5349.00,0.71
5348.00,0.70
5347.00,0.69
5346.00,0.69
5345.00,0.68
5344.00,0.68
5343.00,0.67
5342.00,0.67
5341.00,0.66
5340.00,0.66
5339.00,0.65
5338.00,0.65
5337.00,0.64
5336.00,0.64
5335.00,0.63
5334.00,0.62
5333.00,0.62
5332.00,0.61
5331.00,0.61
5330.00,0.60
5329.00,0.59
5328.00,0.59
5327.00,0.58
5326.00,0.58
5325.00,0.57
5324.00,0.56
5323.00,0.56
5322.00,0.55
5321.00,0.55
5320.00,0.54
5319.00,0.54
5318.00,0.53
5317.00,0.53
5316.00,0.52
5315.00,0.52
5314.00,0.51
5313.00,0.51
5312.00,0.51
5311.00,0.50
5310.00,0.50
5309.00,0.50
5308.00,0.49
5307.00,0.49
5306.00,0.49
5305.00,0.48
5304.00,0.48
5303.00,0.48
5302.00,0.48
5301.00,0.47
5300.00,0.47
5299.00,0.47
5298.00,0.47
5297.00,0.47
5296.00,0.47
5295.00,0.46
5294.00,0.46
5293.00,0.46
5292.00,0.46
5291.00,0.46
5290.00,0.46
5289.00,0.46
5288.00,0.46
5287.00,0.46
5286.00,0.46
5285.00,0.45
5284.00,0.45
5283.00,0.45
5282.00,0.45
5281.00,0.45
5280.00,0.45
5279.00,0.45
5278.00,0.45
5277.00,0.45
5276.00,0.45
5275.00,0.45
5274.00,0.45
5273.00,0.45
5272.00,0.45
5271.00,0.45
5270.00,0.45
5269.00,0.45
5268.00,0.45
5267.00,0.45
5266.00,0.45
5265.00,0.45
5264.00,0.45
5263.00,0.45
5262.00,0.45
5261.00,0.45
5260.00,0.45
5259.00,0.45
5258.00,0.45
5257.00,0.45
5256.00,0.45
5255.00,0.45
5254.00,0.45
5253.00,0.45
5252.00,0.45
5251.00,0.45
5250.00,0.45
5249.00,0.45
5248.00,0.45
5247.00,0.45
5246.00,0.45
5245.00,0.45
5244.00,0.45
5243.00,0.45
5242.00,0.45
5241.00,0.45
5240.00,0.45
5239.00,0.45
5238.00,0.45
5237.00,0.45
5236.00,0.45
5235.00,0.45
5234.00,0.45
5233.00,0.45
5232.00,0.45
5231.00,0.45
5230.00,0.45
5229.00,0.45
5228.00,0.45
5227.00,0.45
5226.00,0.45
5225.00,0.45
5224.00,0.45
5223.00,0.45
5222.00,0.45
5221.00,0.45
5220.00,0.45
5219.00,0.45
5218.00,0.45
5217.00,0.46
5216.00,0.46
5215.00,0.46
5214.00,0.46
5213.00,0.46
5212.00,0.46
5211.00,0.46
5210.00,0.46
5209.00,0.46
5208.00,0.46
5207.00,0.46
5206.00,0.46
5205.00,0.46
5204.00,0.46
5203.00,0.46
5202.00,0.46
5201.00,0.46
5200.00,0.46
5199.00,0.46
5198.00,0.46
5197.00,0.46
5196.00,0.46
5195.00,0.46
5194.00,0.46
5193.00,0.47
5192.00,0.47
5191.00,0.47
5190.00,0.47
5189.00,0.47
5188.00,0.47
5187.00,0.47
5186.00,0.47
5185.00,0.47
5184.00,0.47
5183.00,0.47
5182.00,0.47
5181.00,0.47
5180.00,0.47
5179.00,0.47
5178.00,0.47
5177.00,0.47
5176.00,0.47
5175.00,0.47
5174.00,0.47
5173.00,0.47
5172.00,0.47
5171.00,0.47
5170.00,0.47
5169.00,0.47
5168.00,0.47
5167.00,0.47
5166.00,0.47
5165.00,0.47
5164.00,0.47
5163.00,0.47
5162.00,0.47
5161.00,0.47
5160.00,0.47
5159.00,0.47
5158.00,0.47
5157.00,0.47
5156.00,0.47
5155.00,0.47
5154.00,0.47
5153.00,0.47
5152.00,0.47
5151.00,0.47
5150.00,0.47
5149.00,0.47
5148.00,0.47
5147.00,0.47
5146.00,0.47
5145.00,0.47
5144.00,0.47
5143.00,0.47
5142.00,0.47
5141.00,0.48
5140.00,0.48
5139.00,0.48
5138.00,0.48
5137.00,0.48
5136.00,0.48
5135.00,0.48
5134.00,0.48
5133.00,0.48
5132.00,0.48
5131.00,0.48
5130.00,0.48
5129.00,0.48
5128.00,0.48
5127.00,0.48
5126.00,0.48
5125.00,0.48
5124.00,0.48
5123.00,0.48
5122.00,0.49
5121.00,0.49
5120.00,0.49
5119.00,0.49
5118.00,0.49
5117.00,0.49
5116.00,0.49
5115.00,0.49
5114.00,0.49
5113.00,0.49
5112.00,0.49
5111.00,0.49
5110.00,0.49
5109.00,0.49
5108.00,0.49
5107.00,0.49
5106.00,0.49
5105.00,0.49
5104.00,0.49
5103.00,0.49
5102.00,0.49
5101.00,0.49
5100.00,0.49
5099.00,0.49
5098.00,0.49
5097.00,0.49
5096.00,0.49
5095.00,0.49
5094.00,0.49
5093.00,0.49
5092.00,0.49
5091.00,0.49
5090.00,0.49
5089.00,0.49
5088.00,0.49
5087.00,0.49
5086.00,0.49
5085.00,0.49
5084.00,0.49
5083.00,0.49
5082.00,0.49
5081.00,0.49
5080.00,0.49
5079.00,0.49
5078.00,0.49
5077.00,0.49
5076.00,0.49
5075.00,0.49
5074.00,0.49
5073.00,0.49
5072.00,0.49
5071.00,0.49
5070.00,0.49
5069.00,0.50
5068.00,0.50
5067.00,0.50
5066.00,0.50
5065.00,0.50
5064.00,0.50
5063.00,0.50
5062.00,0.50
5061.00,0.50
5060.00,0.50
5059.00,0.50
5058.00,0.50
5057.00,0.50
5056.00,0.50
5055.00,0.50
5054.00,0.50
5053.00,0.50
5052.00,0.50
5051.00,0.50
5050.00,0.50
5049.00,0.50
5048.00,0.50
5047.00,0.50
5046.00,0.51
5045.00,0.51
5044.00,0.51
5043.00,0.51
5042.00,0.51
5041.00,0.51
5040.00,0.51
5039.00,0.51
5038.00,0.51
5037.00,0.51
5036.00,0.51
5035.00,0.51
5034.00,0.51
5033.00,0.51
5032.00,0.51
5031.00,0.51
5030.00,0.51
5029.00,0.51
5028.00,0.51
5027.00,0.51
5026.00,0.51
5025.00,0.52
5024.00,0.52
5023.00,0.52
5022.00,0.52
5021.00,0.52
5020.00,0.52
5019.00,0.52
5018.00,0.52
5017.00,0.52
5016.00,0.52
5015.00,0.52
5014.00,0.52
5013.00,0.52
5012.00,0.52
5011.00,0.52
5010.00,0.52
5009.00,0.52
5008.00,0.52
5007.00,0.52
5006.00,0.52
5005.00,0.52
5004.00,0.52
5003.00,0.52
5002.00,0.52
5001.00,0.52
5000.00,0.52
4999.00,0.53
4998.00,0.53
4997.00,0.53
4996.00,0.53
4995.00,0.53
4994.00,0.53
4993.00,0.53
4992.00,0.53
4991.00,0.53
4990.00,0.53
4989.00,0.53
4988.00,0.53
4987.00,0.53
4986.00,0.53
4985.00,0.53
4984.00,0.53
4983.00,0.53
4982.00,0.53
4981.00,0.53
4980.00,0.53
4979.00,0.53
4978.00,0.53
4977.00,0.53
4976.00,0.53
4975.00,0.53
4974.00,0.53
4973.00,0.53
4972.00,0.53
4971.00,0.53
4970.00,0.53
4969.00,0.53
4968.00,0.54
4967.00,0.54
4966.00,0.54
4965.00,0.54
4964.00,0.54
4963.00,0.54
4962.00,0.54
4961.00,0.54
4960.00,0.54
4959.00,0.54
4958.00,0.54
4957.00,0.54
4956.00,0.54
4955.00,0.54
4954.00,0.54
4953.00,0.54
4952.00,0.54
4951.00,0.54
4950.00,0.54
4949.00,0.54
4948.00,0.55
4947.00,0.55
4946.00,0.55
4945.00,0.55
4944.00,0.55
4943.00,0.55
4942.00,0.55
4941.00,0.55
4940.00,0.55
4939.00,0.55
4938.00,0.55
4937.00,0.55
4936.00,0.55
4935.00,0.55
4934.00,0.55
4933.00,0.55
4932.00,0.55
4931.00,0.55
4930.00,0.56
4929.00,0.56
4928.00,0.56
4927.00,0.56
4926.00,0.56
4925.00,0.56
4924.00,0.56
4923.00,0.56
4922.00,0.56
4921.00,0.56
4920.00,0.56
4919.00,0.56
4918.00,0.56
4917.00,0.56
4916.00,0.56
4915.00,0.56
4914.00,0.56
4913.00,0.56
4912.00,0.56
4911.00,0.56
4910.00,0.56
4909.00,0.56
4908.00,0.56
4907.00,0.56
4906.00,0.56
4905.00,0.57
4904.00,0.57
4903.00,0.57
4902.00,0.57
4901.00,0.57
4900.00,0.57
4899.00,0.57
4898.00,0.57
4897.00,0.57
4896.00,0.57
4895.00,0.57
4894.00,0.57
4893.00,0.57
4892.00,0.57
4891.00,0.57
4890.00,0.57
4889.00,0.57
4888.00,0.57
4887.00,0.57
4886.00,0.57
4885.00,0.57
4884.00,0.57
4883.00,0.57
4882.00,0.57
4881.00,0.57
4880.00,0.57
4879.00,0.57
4878.00,0.57
4877.00,0.57
4876.00,0.57
4875.00,0.57
4874.00,0.58
4873.00,0.58
4872.00,0.58
4871.00,0.58
4870.00,0.58
4869.00,0.58
4868.00,0.58
4867.00,0.58
4866.00,0.58
4865.00,0.58
4864.00,0.58
4863.00,0.58
4862.00,0.58
4861.00,0.58
4860.00,0.58
4859.00,0.58
4858.00,0.58
4857.00,0.58
4856.00,0.58
4855.00,0.58
4854.00,0.58
4853.00,0.58
4852.00,0.58
4851.00,0.58
4850.00,0.58
4849.00,0.58
4848.00,0.58
4847.00,0.58
4846.00,0.58
4845.00,0.58
4844.00,0.58
4843.00,0.58
4842.00,0.59
4841.00,0.59
4840.00,0.59
4839.00,0.59
4838.00,0.59
4837.00,0.59
4836.00,0.59
4835.00,0.59
4834.00,0.60
4833.00,0.60
4832.00,0.60
4831.00,0.60
4830.00,0.60
4829.00,0.60
4828.00,0.60
4827.00,0.61
4826.00,0.61
4825.00,0.61
4824.00,0.61
4823.00,0.61
4822.00,0.61
4821.00,0.61
4820.00,0.61
4819.00,0.61
4818.00,0.61
4817.00,0.61
4816.00,0.61
4815.00,0.61
4814.00,0.61
4813.00,0.61
4812.00,0.61
4811.00,0.61
4810.00,0.61
4809.00,0.61
4808.00,0.61
4807.00,0.61
4806.00,0.61
4805.00,0.61
4804.00,0.61
4803.00,0.61
4802.00,0.61
4801.00,0.61
4800.00,0.61
4799.00,0.61
4798.00,0.61
4797.00,0.61
4796.00,0.61
4795.00,0.62
4794.00,0.62
4793.00,0.62
4792.00,0.62
4791.00,0.62
4790.00,0.62
4789.00,0.62
4788.00,0.62
4787.00,0.62
4786.00,0.62
4785.00,0.62
4784.00,0.62
4783.00,0.63
4782.00,0.63
4781.00,0.63
4780.00,0.63
4779.00,0.63
4778.00,0.63
4777.00,0.63
4776.00,0.63
4775.00,0.63
4774.00,0.63
4773.00,0.63
4772.00,0.63
4771.00,0.63
4770.00,0.63
4769.00,0.63
4768.00,0.63
4767.00,0.63
4766.00,0.64
4765.00,0.64
4764.00,0.64
4763.00,0.64
4762.00,0.64
4761.00,0.64
4760.00,0.64
4759.00,0.64
4758.00,0.64
4757.00,0.64
4756.00,0.64
4755.00,0.64
4754.00,0.64
4753.00,0.64
4752.00,0.64
4751.00,0.64
4750.00,0.64
4749.00,0.64
4748.00,0.64
4747.00,0.64
4746.00,0.64
4745.00,0.64
4744.00,0.65
4743.00,0.65
4742.00,0.65
4741.00,0.65
4740.00,0.65
4739.00,0.65
4738.00,0.65
4737.00,0.65
4736.00,0.66
4735.00,0.66
4734.00,0.66
4733.00,0.66
4732.00,0.66
4731.00,0.66
4730.00,0.66
4729.00,0.66
4728.00,0.67
4727.00,0.67
4726.00,0.67
4725.00,0.67
4724.00,0.67
4723.00,0.67
4722.00,0.67
4721.00,0.67
4720.00,0.67
4719.00,0.67
4718.00,0.67
4717.00,0.68
4716.00,0.68
4715.00,0.68
4714.00,0.68
4713.00,0.68
4712.00,0.68
4711.00,0.68
4710.00,0.68
4709.00,0.68
4708.00,0.68
4707.00,0.68
4706.00,0.68
4705.00,0.68
4704.00,0.68
4703.00,0.68
4702.00,0.68
4701.00,0.68
4700.00,0.68
4699.00,0.68
4698.00,0.69
4697.00,0.69
4696.00,0.69
4695.00,0.69
4694.00,0.69
4693.00,0.69
4692.00,0.69
4691.00,0.69
4690.00,0.69
4689.00,0.69
4688.00,0.70
4687.00,0.70
4686.00,0.70
4685.00,0.70
4684.00,0.70
4683.00,0.70
4682.00,0.70
4681.00,0.70
4680.00,0.70
4679.00,0.70
4678.00,0.71
4677.00,0.71
4676.00,0.71
4675.00,0.71
4674.00,0.71
4673.00,0.71
4672.00,0.71
4671.00,0.71
4670.00,0.71
4669.00,0.72
4668.00,0.72
4667.00,0.72
4666.00,0.72
4665.00,0.72
4664.00,0.72
4663.00,0.72
4662.00,0.72
4661.00,0.72
4660.00,0.72
4659.00,0.72
4658.00,0.72
4657.00,0.72
4656.00,0.72
4655.00,0.72
4654.00,0.72
4653.00,0.72
4652.00,0.72
4651.00,0.73
4650.00,0.73
4649.00,0.73
4648.00,0.73
4647.00,0.73
4646.00,0.73
4645.00,0.73
4644.00,0.73
4643.00,0.73
4642.00,0.73
4641.00,0.73
4640.00,0.73
4639.00,0.73
4638.00,0.73
4637.00,0.74
4636.00,0.74
4635.00,0.74
4634.00,0.74
4633.00,0.74
4632.00,0.74
4631.00,0.74
4630.00,0.74
4629.00,0.74
4628.00,0.74
4627.00,0.74
4626.00,0.74
4625.00,0.74
4624.00,0.74
4623.00,0.74
4622.00,0.74
4621.00,0.75
4620.00,0.75
4619.00,0.75
4618.00,0.75
4617.00,0.75
4616.00,0.75
4615.00,0.75
4614.00,0.75
4613.00,0.75
4612.00,0.75
4611.00,0.75
4610.00,0.75
4609.00,0.75
4608.00,0.75
4607.00,0.75
4606.00,0.75
4605.00,0.75
4604.00,0.75
4603.00,0.75
4602.00,0.75
4601.00,0.75
4600.00,0.75
4599.00,0.75
4598.00,0.75
4597.00,0.75
4596.00,0.75
4595.00,0.75
4594.00,0.75
4593.00,0.76
4592.00,0.76
4591.00,0.76
4590.00,0.76
4589.00,0.76
4588.00,0.76
4587.00,0.76
4586.00,0.76
4585.00,0.76
4584.00,0.76
4583.00,0.76
4582.00,0.76
4581.00,0.76
4580.00,0.76
4579.00,0.77
4578.00,0.77
4577.00,0.77
4576.00,0.77
4575.00,0.77
4574.00,0.77
4573.00,0.77
4572.00,0.77
4571.00,0.77
4570.00,0.77
4569.00,0.77
4568.00,0.77
4567.00,0.78
4566.00,0.78
4565.00,0.78
4564.00,0.78
4563.00,0.78
4562.00,0.78
4561.00,0.78
4560.00,0.78
4559.00,0.77
4558.00,0.77
4557.00,0.77
4556.00,0.77
4555.00,0.78
4554.00,0.78
4553.00,0.78
4552.00,0.78
4551.00,0.78
4550.00,0.78
4549.00,0.78
4548.00,0.78
4547.00,0.78
4546.00,0.78
4545.00,0.78
4544.00,0.78
4543.00,0.78
4542.00,0.78
4541.00,0.78
4540.00,0.78
4539.00,0.78
4538.00,0.78
4537.00,0.78
4536.00,0.78
4535.00,0.78
4534.00,0.78
4533.00,0.78
4532.00,0.78
4531.00,0.78
4530.00,0.78
4529.00,0.78
4528.00,0.78
4527.00,0.78
4526.00,0.78
4525.00,0.79
4524.00,0.79
4523.00,0.79
4522.00,0.79
4521.00,0.79
4520.00,0.79
4519.00,0.79
4518.00,0.79
4517.00,0.79
4516.00,0.79
4515.00,0.79
4514.00,0.79
4513.00,0.79
4512.00,0.79
4511.00,0.79
4510.00,0.79
4509.00,0.79
4508.00,0.79
4507.00,0.79
4506.00,0.79
4505.00,0.79
4504.00,0.79
4503.00,0.79
4502.00,0.79
4501.00,0.79
4500.00,0.79
4499.00,0.79
4498.00,0.79
4497.00,0.79
4496.00,0.79
4495.00,0.79
4494.00,0.79
4493.00,0.79
4492.00,0.79
4491.00,0.79
4490.00,0.79
4489.00,0.79
4488.00,0.79
4487.00,0.78
4486.00,0.78
4485.00,0.78
4484.00,0.78
4483.00,0.78
4482.00,0.78
4481.00,0.78
4480.00,0.78
4479.00,0.78
4478.00,0.78
4477.00,0.78
4476.00,0.78
4475.00,0.78
4474.00,0.78
4473.00,0.78
4472.00,0.78
4471.00,0.78
4470.00,0.78
4469.00,0.78
4468.00,0.78
4467.00,0.78
4466.00,0.77
4465.00,0.77
4464.00,0.77
4463.00,0.77
4462.00,0.77
4461.00,0.77
4460.00,0.77
4459.00,0.77
4458.00,0.76
4457.00,0.76
4456.00,0.76
4455.00,0.76
4454.00,0.76
4453.00,0.76
4452.00,0.76
4451.00,0.75
4450.00,0.75
4449.00,0.75
4448.00,0.75
4447.00,0.75
4446.00,0.75
4445.00,0.74
4444.00,0.74
4443.00,0.74
4442.00,0.74
4441.00,0.74
4440.00,0.74
4439.00,0.73
4438.00,0.73
4437.00,0.73
4436.00,0.73
4435.00,0.73
4434.00,0.73
4433.00,0.72
4432.00,0.72
4431.00,0.72
4430.00,0.72
4429.00,0.72
4428.00,0.72
4427.00,0.72
4426.00,0.72
4425.00,0.72
4424.00,0.71
4423.00,0.71
4422.00,0.71
4421.00,0.71
4420.00,0.71
4419.00,0.71
4418.00,0.71
4417.00,0.71
4416.00,0.71
4415.00,0.71
4414.00,0.71
4413.00,0.71
4412.00,0.71
4411.00,0.71
4410.00,0.71
4409.00,0.72
4408.00,0.72
4407.00,0.72
4406.00,0.72
4405.00,0.72
4404.00,0.72
4403.00,0.72
4402.00,0.72
4401.00,0.72
4400.00,0.72
4399.00,0.72
4398.00,0.72
4397.00,0.72
4396.00,0.72
4395.00,0.72
4394.00,0.72
4393.00,0.72
4392.00,0.72
4391.00,0.72
4390.00,0.73
4389.00,0.73
4388.00,0.73
4387.00,0.73
4386.00,0.73
4385.00,0.73
4384.00,0.73
4383.00,0.73
4382.00,0.73
4381.00,0.73
4380.00,0.73
4379.00,0.73
4378.00,0.73
4377.00,0.73
4376.00,0.74
4375.00,0.74
4374.00,0.74
4373.00,0.74
4372.00,0.74
4371.00,0.74
4370.00,0.74
4369.00,0.74
4368.00,0.74
4367.00,0.74
4366.00,0.74
4365.00,0.74
4364.00,0.74
4363.00,0.74
4362.00,0.74
4361.00,0.74
4360.00,0.73
4359.00,0.73
4358.00,0.73
4357.00,0.73
4356.00,0.73
4355.00,0.73
4354.00,0.73
4353.00,0.73
4352.00,0.73
4351.00,0.73
4350.00,0.73
4349.00,0.73
4348.00,0.73
4347.00,0.73
4346.00,0.73
4345.00,0.73
4344.00,0.73
4343.00,0.73
4342.00,0.74
4341.00,0.74
4340.00,0.74
4339.00,0.74
4338.00,0.74
4337.00,0.74
4336.00,0.74
4335.00,0.74
4334.00,0.74
4333.00,0.74
4332.00,0.74
4331.00,0.74
4330.00,0.74
4329.00,0.75
4328.00,0.75
4327.00,0.75
4326.00,0.75
4325.00,0.75
4324.00,0.75
4323.00,0.75
4322.00,0.75
4321.00,0.75
4320.00,0.75
4319.00,0.75
4318.00,0.75
4317.00,0.75
4316.00,0.75
4315.00,0.76
4314.00,0.76
4313.00,0.76
4312.00,0.76
4311.00,0.76
4310.00,0.76
4309.00,0.76
4308.00,0.76
4307.00,0.76
4306.00,0.76
4305.00,0.77
4304.00,0.77
4303.00,0.77
4302.00,0.77
4301.00,0.77
4300.00,0.77
4299.00,0.77
4298.00,0.77
4297.00,0.78
4296.00,0.78
4295.00,0.78
4294.00,0.78
4293.00,0.78
4292.00,0.78
4291.00,0.78
4290.00,0.78
4289.00,0.78
4288.00,0.78
4287.00,0.78
4286.00,0.78
4285.00,0.78
4284.00,0.78
4283.00,0.78
4282.00,0.78
4281.00,0.78
4280.00,0.78
4279.00,0.78
4278.00,0.78
4277.00,0.78
4276.00,0.78
4275.00,0.78
4274.00,0.78
4273.00,0.78
4272.00,0.78
4271.00,0.78
4270.00,0.78
4269.00,0.78
4268.00,0.78
4267.00,0.78
4266.00,0.78
4265.00,0.78
4264.00,0.78
4263.00,0.78
4262.00,0.78
4261.00,0.78
4260.00,0.78
4259.00,0.78
4258.00,0.78
4257.00,0.78
4256.00,0.78
4255.00,0.78
4254.00,0.78
4253.00,0.78
4252.00,0.78
4251.00,0.78
4250.00,0.78
4249.00,0.78
4248.00,0.78
4247.00,0.78
4246.00,0.78
4245.00,0.78
4244.00,0.78
4243.00,0.78
4242.00,0.78
4241.00,0.79
4240.00,0.79
4239.00,0.79
4238.00,0.79
4237.00,0.79
4236.00,0.79
4235.00,0.79
4234.00,0.79
4233.00,0.79
4232.00,0.79
4231.00,0.80
4230.00,0.80
4229.00,0.80
4228.00,0.80
4227.00,0.80
4226.00,0.80
4225.00,0.80
4224.00,0.80
4223.00,0.80
4222.00,0.80
4221.00,0.80
4220.00,0.80
4219.00,0.80
4218.00,0.81
4217.00,0.81
4216.00,0.81
4215.00,0.81
4214.00,0.81
4213.00,0.81
4212.00,0.81
4211.00,0.81
4210.00,0.81
4209.00,0.81
4208.00,0.81
4207.00,0.81
4206.00,0.81
4205.00,0.81
4204.00,0.81
4203.00,0.81
4202.00,0.81
4201.00,0.80
4200.00,0.80
4199.00,0.80
4198.00,0.80
4197.00,0.80
4196.00,0.80
4195.00,0.80
4194.00,0.80
4193.00,0.80
4192.00,0.80
4191.00,0.80
4190.00,0.80
4189.00,0.80
4188.00,0.80
4187.00,0.80
4186.00,0.80
4185.00,0.80
4184.00,0.80
4183.00,0.80
4182.00,0.80
4181.00,0.80
4180.00,0.80
4179.00,0.80
4178.00,0.80
4177.00,0.80
4176.00,0.80
4175.00,0.81
4174.00,0.81
4173.00,0.81
4172.00,0.81
4171.00,0.81
4170.00,0.81
4169.00,0.81
4168.00,0.81
4167.00,0.81
4166.00,0.81
4165.00,0.81
4164.00,0.81
4163.00,0.81
4162.00,0.81
4161.00,0.81
4160.00,0.81
4159.00,0.81
4158.00,0.81
4157.00,0.81
4156.00,0.81
4155.00,0.81
4154.00,0.81
4153.00,0.81
4152.00,0.81
4151.00,0.82
4150.00,0.82
4149.00,0.82
4148.00,0.82
4147.00,0.82
4146.00,0.82
4145.00,0.82
4144.00,0.82
4143.00,0.82
4142.00,0.82
4141.00,0.82
4140.00,0.83
4139.00,0.83
4138.00,0.83
4137.00,0.83
4136.00,0.83
4135.00,0.83
4134.00,0.83
4133.00,0.83
4132.00,0.83
4131.00,0.84
4130.00,0.84
4129.00,0.84
4128.00,0.84
4127.00,0.84
4126.00,0.84
4125.00,0.84
4124.00,0.84
4123.00,0.84
4122.00,0.84
4121.00,0.84
4120.00,0.84
4119.00,0.84
4118.00,0.84
4117.00,0.84
4116.00,0.84
4115.00,0.84
4114.00,0.83
4113.00,0.83
4112.00,0.83
4111.00,0.83
4110.00,0.83
4109.00,0.83
4108.00,0.83
4107.00,0.83
4106.00,0.83
4105.00,0.83
4104.00,0.83
4103.00,0.83
4102.00,0.83
4101.00,0.83
4100.00,0.83
4099.00,0.83
4098.00,0.83
4097.00,0.83
4096.00,0.83
4095.00,0.83
4094.00,0.83
4093.00,0.83
4092.00,0.83
4091.00,0.83
4090.00,0.83
4089.00,0.84
4088.00,0.84
4087.00,0.84
4086.00,0.84
4085.00,0.84
4084.00,0.84
4083.00,0.84
4082.00,0.84
4081.00,0.84
4080.00,0.84
4079.00,0.84
4078.00,0.84
4077.00,0.84
4076.00,0.84
4075.00,0.84
4074.00,0.84
4073.00,0.84
4072.00,0.84
4071.00,0.84
4070.00,0.84
4069.00,0.84
4068.00,0.84
4067.00,0.84
4066.00,0.84
4065.00,0.84
4064.00,0.84
4063.00,0.84
4062.00,0.85
4061.00,0.85
4060.00,0.85
4059.00,0.85
4058.00,0.85
4057.00,0.85
4056.00,0.85
4055.00,0.86
4054.00,0.86
4053.00,0.86
4052.00,0.86
4051.00,0.86
4050.00,0.86
4049.00,0.86
4048.00,0.86
4047.00,0.86
4046.00,0.86
4045.00,0.86
4044.00,0.87
4043.00,0.87
4042.00,0.87
4041.00,0.87
4040.00,0.87
4039.00,0.87
4038.00,0.87
4037.00,0.87
4036.00,0.87
4035.00,0.87
4034.00,0.87
4033.00,0.87
4032.00,0.87
4031.00,0.87
4030.00,0.87
4029.00,0.87
4028.00,0.87
4027.00,0.87
4026.00,0.87
4025.00,0.87
4024.00,0.87
4023.00,0.87
4022.00,0.87
4021.00,0.87
4020.00,0.88
4019.00,0.88
4018.00,0.88
4017.00,0.88
4016.00,0.88
4015.00,0.88
4014.00,0.88
4013.00,0.88
4012.00,0.88
4011.00,0.88
4010.00,0.88
4009.00,0.89
4008.00,0.89
4007.00,0.89
4006.00,0.89
4005.00,0.89
4004.00,0.89
4003.00,0.89
4002.00,0.89
4001.00,0.89
4000.00,0.89
