创建为新数据集,样品 315 用户 Administrator 日期 星期日, 七月 22 2018
cm-1,%T
10000.00,0.89
9999.00,0.88
9998.00,0.88
9997.00,0.87
9996.00,0.87
9995.00,0.86
9994.00,0.86
9993.00,0.85
9992.00,0.85
9991.00,0.84
9990.00,0.84
9989.00,0.84
9988.00,0.83
9987.00,0.83
9986.00,0.83
9985.00,0.82
9984.00,0.82
9983.00,0.82
9982.00,0.81
9981.00,0.81
9980.00,0.81
9979.00,0.81
9978.00,0.80
9977.00,0.80
9976.00,0.80
9975.00,0.80
9974.00,0.80
9973.00,0.79
9972.00,0.79
9971.00,0.79
9970.00,0.79
9969.00,0.79
9968.00,0.79
9967.00,0.79
9966.00,0.79
9965.00,0.79
9964.00,0.79
9963.00,0.79
9962.00,0.79
9961.00,0.79
9960.00,0.79
9959.00,0.79
9958.00,0.79
9957.00,0.79
9956.00,0.79
9955.00,0.79
9954.00,0.79
9953.00,0.79
9952.00,0.79
9951.00,0.79
9950.00,0.79
9949.00,0.79
9948.00,0.79
9947.00,0.79
9946.00,0.79
9945.00,0.79
9944.00,0.79
9943.00,0.78
9942.00,0.78
9941.00,0.78
9940.00,0.78
9939.00,0.78
9938.00,0.78
9937.00,0.79
9936.00,0.79
9935.00,0.79
9934.00,0.79
9933.00,0.79
9932.00,0.79
9931.00,0.79
9930.00,0.79
9929.00,0.80
9928.00,0.80
9927.00,0.80
9926.00,0.80
9925.00,0.80
9924.00,0.81
9923.00,0.81
9922.00,0.81
9921.00,0.81
9920.00,0.81
9919.00,0.81
9918.00,0.81
9917.00,0.81
9916.00,0.81
9915.00,0.81
9914.00,0.81
9913.00,0.81
9912.00,0.81
9911.00,0.81
9910.00,0.80
9909.00,0.80
9908.00,0.80
9907.00,0.80
9906.00,0.80
9905.00,0.79
9904.00,0.79
9903.00,0.79
9902.00,0.79
9901.00,0.78
9900.00,0.78
9899.00,0.78
9898.00,0.77
9897.00,0.77
9896.00,0.77
9895.00,0.77
9894.00,0.76
9893.00,0.76
9892.00,0.76
9891.00,0.76
9890.00,0.76
9889.00,0.76
9888.00,0.76
9887.00,0.76
9886.00,0.76
9885.00,0.76
9884.00,0.77
9883.00,0.77
9882.00,0.77
9881.00,0.78
9880.00,0.78
9879.00,0.78
9878.00,0.79
9877.00,0.79
9876.00,0.79
9875.00,0.80
9874.00,0.80
9873.00,0.80
9872.00,0.80
9871.00,0.81
9870.00,0.81
9869.00,0.81
9868.00,0.81
9867.00,0.81
9866.00,0.81
9865.00,0.81
9864.00,0.81
9863.00,0.81
9862.00,0.81
9861.00,0.81
9860.00,0.81
9859.00,0.81
9858.00,0.81
9857.00,0.81
9856.00,0.81
9855.00,0.81
9854.00,0.81
9853.00,0.81
9852.00,0.81
9851.00,0.81
9850.00,0.81
9849.00,0.81
9848.00,0.80
9847.00,0.80
9846.00,0.80
9845.00,0.79
9844.00,0.79
9843.00,0.79
9842.00,0.79
9841.00,0.78
9840.00,0.78
9839.00,0.78
9838.00,0.78
9837.00,0.77
9836.00,0.77
9835.00,0.77
9834.00,0.77
9833.00,0.77
9832.00,0.77
9831.00,0.77
9830.00,0.77
9829.00,0.77
9828.00,0.77
9827.00,0.77
9826.00,0.77
9825.00,0.77
9824.00,0.77
9823.00,0.77
9822.00,0.77
9821.00,0.77
9820.00,0.77
9819.00,0.77
9818.00,0.77
9817.00,0.77
9816.00,0.77
9815.00,0.77
9814.00,0.77
9813.00,0.77
9812.00,0.77
9811.00,0.77
9810.00,0.77
9809.00,0.77
9808.00,0.77
9807.00,0.77
9806.00,0.77
9805.00,0.77
9804.00,0.77
9803.00,0.77
9802.00,0.77
9801.00,0.77
9800.00,0.77
9799.00,0.77
9798.00,0.77
9797.00,0.77
9796.00,0.77
9795.00,0.77
9794.00,0.77
9793.00,0.77
9792.00,0.77
9791.00,0.77
9790.00,0.77
9789.00,0.77
9788.00,0.77
9787.00,0.77
9786.00,0.77
9785.00,0.77
9784.00,0.77
9783.00,0.77
9782.00,0.77
9781.00,0.77
9780.00,0.77
9779.00,0.78
9778.00,0.78
9777.00,0.78
9776.00,0.78
9775.00,0.78
9774.00,0.78
9773.00,0.78
9772.00,0.78
9771.00,0.78
9770.00,0.78
9769.00,0.78
9768.00,0.77
9767.00,0.77
9766.00,0.77
9765.00,0.77
9764.00,0.77
9763.00,0.77
9762.00,0.77
9761.00,0.77
9760.00,0.77
9759.00,0.77
9758.00,0.77
9757.00,0.77
9756.00,0.77
9755.00,0.77
9754.00,0.77
9753.00,0.77
9752.00,0.77
9751.00,0.77
9750.00,0.77
9749.00,0.77
9748.00,0.77
9747.00,0.77
9746.00,0.77
9745.00,0.77
9744.00,0.76
9743.00,0.76
9742.00,0.76
9741.00,0.76
9740.00,0.76
9739.00,0.76
9738.00,0.76
9737.00,0.76
9736.00,0.75
9735.00,0.75
9734.00,0.75
9733.00,0.75
9732.00,0.75
9731.00,0.76
9730.00,0.76
9729.00,0.76
9728.00,0.76
9727.00,0.76
9726.00,0.77
9725.00,0.77
9724.00,0.77
9723.00,0.77
9722.00,0.78
9721.00,0.78
9720.00,0.78
9719.00,0.78
9718.00,0.78
9717.00,0.79
9716.00,0.79
9715.00,0.79
9714.00,0.79
9713.00,0.79
9712.00,0.79
9711.00,0.78
9710.00,0.78
9709.00,0.78
9708.00,0.78
9707.00,0.78
9706.00,0.78
9705.00,0.78
9704.00,0.77
9703.00,0.77
9702.00,0.77
9701.00,0.77
9700.00,0.77
9699.00,0.77
9698.00,0.77
9697.00,0.77
9696.00,0.77
9695.00,0.77
9694.00,0.78
9693.00,0.78
9692.00,0.78
9691.00,0.78
9690.00,0.78
9689.00,0.79
9688.00,0.79
9687.00,0.79
9686.00,0.79
9685.00,0.79
9684.00,0.79
9683.00,0.80
9682.00,0.80
9681.00,0.80
9680.00,0.80
9679.00,0.80
9678.00,0.80
9677.00,0.80
9676.00,0.80
9675.00,0.80
9674.00,0.80
9673.00,0.80
9672.00,0.80
9671.00,0.80
9670.00,0.80
9669.00,0.80
9668.00,0.80
9667.00,0.80
9666.00,0.80
9665.00,0.80
9664.00,0.80
9663.00,0.80
9662.00,0.79
9661.00,0.79
9660.00,0.79
9659.00,0.79
9658.00,0.79
9657.00,0.79
9656.00,0.79
9655.00,0.79
9654.00,0.78
9653.00,0.78
9652.00,0.78
9651.00,0.78
9650.00,0.78
9649.00,0.78
9648.00,0.78
9647.00,0.77
9646.00,0.77
9645.00,0.77
9644.00,0.77
9643.00,0.77
9642.00,0.77
9641.00,0.76
9640.00,0.76
9639.00,0.76
9638.00,0.76
9637.00,0.76
9636.00,0.76
9635.00,0.76
9634.00,0.76
9633.00,0.77
9632.00,0.77
9631.00,0.77
9630.00,0.77
9629.00,0.77
9628.00,0.77
9627.00,0.77
9626.00,0.77
9625.00,0.77
9624.00,0.77
9623.00,0.78
9622.00,0.78
9621.00,0.78
9620.00,0.78
9619.00,0.78
9618.00,0.78
9617.00,0.78
9616.00,0.79
9615.00,0.79
9614.00,0.79
9613.00,0.79
9612.00,0.79
9611.00,0.79
9610.00,0.79
9609.00,0.79
9608.00,0.79
9607.00,0.79
9606.00,0.79
9605.00,0.79
9604.00,0.79
9603.00,0.79
9602.00,0.78
9601.00,0.78
9600.00,0.78
9599.00,0.78
9598.00,0.78
9597.00,0.77
9596.00,0.77
9595.00,0.77
9594.00,0.77
9593.00,0.77
9592.00,0.77
9591.00,0.77
9590.00,0.77
9589.00,0.78
9588.00,0.78
9587.00,0.78
9586.00,0.78
9585.00,0.79
9584.00,0.79
9583.00,0.79
9582.00,0.79
9581.00,0.80
9580.00,0.80
9579.00,0.80
9578.00,0.80
9577.00,0.80
9576.00,0.80
9575.00,0.80
9574.00,0.80
9573.00,0.80
9572.00,0.80
9571.00,0.80
9570.00,0.80
9569.00,0.80
9568.00,0.80
9567.00,0.80
9566.00,0.80
9565.00,0.80
9564.00,0.80
9563.00,0.80
9562.00,0.80
9561.00,0.80
9560.00,0.80
9559.00,0.80
9558.00,0.80
9557.00,0.80
9556.00,0.80
9555.00,0.80
9554.00,0.80
9553.00,0.80
9552.00,0.80
9551.00,0.79
9550.00,0.79
9549.00,0.79
9548.00,0.79
9547.00,0.79
9546.00,0.79
9545.00,0.78
9544.00,0.78
9543.00,0.78
9542.00,0.78
9541.00,0.78
9540.00,0.78
9539.00,0.78
9538.00,0.79
9537.00,0.79
9536.00,0.79
9535.00,0.79
9534.00,0.79
9533.00,0.80
9532.00,0.80
9531.00,0.80
9530.00,0.80
9529.00,0.80
9528.00,0.81
9527.00,0.81
9526.00,0.81
9525.00,0.81
9524.00,0.81
9523.00,0.81
9522.00,0.81
9521.00,0.81
9520.00,0.81
9519.00,0.81
9518.00,0.80
9517.00,0.80
9516.00,0.80
9515.00,0.80
9514.00,0.79
9513.00,0.79
9512.00,0.79
9511.00,0.79
9510.00,0.78
9509.00,0.78
9508.00,0.78
9507.00,0.78
9506.00,0.77
9505.00,0.77
9504.00,0.77
9503.00,0.77
9502.00,0.77
9501.00,0.77
9500.00,0.76
9499.00,0.76
9498.00,0.76
9497.00,0.77
9496.00,0.77
9495.00,0.77
9494.00,0.77
9493.00,0.77
9492.00,0.77
9491.00,0.77
9490.00,0.78
9489.00,0.78
9488.00,0.78
9487.00,0.78
9486.00,0.78
9485.00,0.79
9484.00,0.79
9483.00,0.79
9482.00,0.79
9481.00,0.80
9480.00,0.80
9479.00,0.80
9478.00,0.80
9477.00,0.80
9476.00,0.80
9475.00,0.80
9474.00,0.80
9473.00,0.81
9472.00,0.81
9471.00,0.81
9470.00,0.81
9469.00,0.81
9468.00,0.81
9467.00,0.81
9466.00,0.81
9465.00,0.81
9464.00,0.81
9463.00,0.80
9462.00,0.80
9461.00,0.80
9460.00,0.80
9459.00,0.80
9458.00,0.80
9457.00,0.80
9456.00,0.80
9455.00,0.80
9454.00,0.79
9453.00,0.79
9452.00,0.79
9451.00,0.79
9450.00,0.79
9449.00,0.79
9448.00,0.79
9447.00,0.79
9446.00,0.79
9445.00,0.79
9444.00,0.80
9443.00,0.80
9442.00,0.80
9441.00,0.80
9440.00,0.80
9439.00,0.80
9438.00,0.79
9437.00,0.79
9436.00,0.79
9435.00,0.79
9434.00,0.79
9433.00,0.79
9432.00,0.79
9431.00,0.78
9430.00,0.78
9429.00,0.78
9428.00,0.78
9427.00,0.77
9426.00,0.77
9425.00,0.77
9424.00,0.77
9423.00,0.76
9422.00,0.76
9421.00,0.76
9420.00,0.76
9419.00,0.76
9418.00,0.76
9417.00,0.76
9416.00,0.76
9415.00,0.76
9414.00,0.76
9413.00,0.76
9412.00,0.76
9411.00,0.76
9410.00,0.76
9409.00,0.76
9408.00,0.77
9407.00,0.77
9406.00,0.77
9405.00,0.77
9404.00,0.78
9403.00,0.78
9402.00,0.78
9401.00,0.78
9400.00,0.79
9399.00,0.79
9398.00,0.79
9397.00,0.79
9396.00,0.79
9395.00,0.79
9394.00,0.79
9393.00,0.79
9392.00,0.79
9391.00,0.79
9390.00,0.79
9389.00,0.79
9388.00,0.79
9387.00,0.79
9386.00,0.79
9385.00,0.79
9384.00,0.79
9383.00,0.79
9382.00,0.79
9381.00,0.78
9380.00,0.79
9379.00,0.79
9378.00,0.79
9377.00,0.79
9376.00,0.79
9375.00,0.79
9374.00,0.79
9373.00,0.79
9372.00,0.79
9371.00,0.79
9370.00,0.79
9369.00,0.79
9368.00,0.79
9367.00,0.79
9366.00,0.79
9365.00,0.79
9364.00,0.79
9363.00,0.79
9362.00,0.79
9361.00,0.80
9360.00,0.80
9359.00,0.80
9358.00,0.80
9357.00,0.80
9356.00,0.80
9355.00,0.80
9354.00,0.80
9353.00,0.80
9352.00,0.80
9351.00,0.80
9350.00,0.81
9349.00,0.80
9348.00,0.80
9347.00,0.80
9346.00,0.80
9345.00,0.80
9344.00,0.80
9343.00,0.80
9342.00,0.80
9341.00,0.80
9340.00,0.80
9339.00,0.79
9338.00,0.79
9337.00,0.79
9336.00,0.79
9335.00,0.79
9334.00,0.79
9333.00,0.79
9332.00,0.79
9331.00,0.79
9330.00,0.79
9329.00,0.79
9328.00,0.79
9327.00,0.79
9326.00,0.79
9325.00,0.79
9324.00,0.79
9323.00,0.79
9322.00,0.79
9321.00,0.79
9320.00,0.79
9319.00,0.79
9318.00,0.79
9317.00,0.79
9316.00,0.79
9315.00,0.79
9314.00,0.79
9313.00,0.80
9312.00,0.80
9311.00,0.80
9310.00,0.80
9309.00,0.80
9308.00,0.80
9307.00,0.80
9306.00,0.80
9305.00,0.80
9304.00,0.80
9303.00,0.81
9302.00,0.81
9301.00,0.80
9300.00,0.80
9299.00,0.80
9298.00,0.80
9297.00,0.80
9296.00,0.80
9295.00,0.80
9294.00,0.80
9293.00,0.80
9292.00,0.80
9291.00,0.80
9290.00,0.80
9289.00,0.79
9288.00,0.79
9287.00,0.79
9286.00,0.79
9285.00,0.79
9284.00,0.79
9283.00,0.80
9282.00,0.80
9281.00,0.80
9280.00,0.80
9279.00,0.80
9278.00,0.80
9277.00,0.80
9276.00,0.80
9275.00,0.80
9274.00,0.80
9273.00,0.80
9272.00,0.80
9271.00,0.80
9270.00,0.80
9269.00,0.80
9268.00,0.79
9267.00,0.79
9266.00,0.79
9265.00,0.79
9264.00,0.79
9263.00,0.79
9262.00,0.79
9261.00,0.79
9260.00,0.79
9259.00,0.79
9258.00,0.79
9257.00,0.79
9256.00,0.79
9255.00,0.79
9254.00,0.79
9253.00,0.79
9252.00,0.80
9251.00,0.80
9250.00,0.80
9249.00,0.80
9248.00,0.80
9247.00,0.80
9246.00,0.80
9245.00,0.80
9244.00,0.80
9243.00,0.80
9242.00,0.80
9241.00,0.80
9240.00,0.80
9239.00,0.80
9238.00,0.80
9237.00,0.80
9236.00,0.80
9235.00,0.80
9234.00,0.80
9233.00,0.80
9232.00,0.80
9231.00,0.80
9230.00,0.80
9229.00,0.80
9228.00,0.80
9227.00,0.79
9226.00,0.79
9225.00,0.79
9224.00,0.79
9223.00,0.79
9222.00,0.79
9221.00,0.79
9220.00,0.79
9219.00,0.79
9218.00,0.79
9217.00,0.79
9216.00,0.79
9215.00,0.79
9214.00,0.79
9213.00,0.79
9212.00,0.79
9211.00,0.79
9210.00,0.79
9209.00,0.80
9208.00,0.80
9207.00,0.80
9206.00,0.80
9205.00,0.80
9204.00,0.80
9203.00,0.80
9202.00,0.80
9201.00,0.80
9200.00,0.80
9199.00,0.80
9198.00,0.80
9197.00,0.80
9196.00,0.80
9195.00,0.80
9194.00,0.80
9193.00,0.80
9192.00,0.80
9191.00,0.80
9190.00,0.80
9189.00,0.80
9188.00,0.80
9187.00,0.80
9186.00,0.80
9185.00,0.81
9184.00,0.81
9183.00,0.81
9182.00,0.80
9181.00,0.80
9180.00,0.80
9179.00,0.80
9178.00,0.80
9177.00,0.80
9176.00,0.80
9175.00,0.80
9174.00,0.80
9173.00,0.80
9172.00,0.80
9171.00,0.80
9170.00,0.80
9169.00,0.80
9168.00,0.80
9167.00,0.80
9166.00,0.80
9165.00,0.80
9164.00,0.80
9163.00,0.80
9162.00,0.80
9161.00,0.80
9160.00,0.80
9159.00,0.80
9158.00,0.80
9157.00,0.80
9156.00,0.80
9155.00,0.80
9154.00,0.80
9153.00,0.80
9152.00,0.79
9151.00,0.79
9150.00,0.79
9149.00,0.79
9148.00,0.79
9147.00,0.79
9146.00,0.79
9145.00,0.79
9144.00,0.78
9143.00,0.78
9142.00,0.78
9141.00,0.78
9140.00,0.78
9139.00,0.78
9138.00,0.78
9137.00,0.78
9136.00,0.78
9135.00,0.78
9134.00,0.78
9133.00,0.78
9132.00,0.79
9131.00,0.79
9130.00,0.79
9129.00,0.79
9128.00,0.79
9127.00,0.79
9126.00,0.79
9125.00,0.79
9124.00,0.79
9123.00,0.79
9122.00,0.79
9121.00,0.79
9120.00,0.79
9119.00,0.79
9118.00,0.79
9117.00,0.79
9116.00,0.79
9115.00,0.79
9114.00,0.79
9113.00,0.79
9112.00,0.79
9111.00,0.79
9110.00,0.79
9109.00,0.79
9108.00,0.79
9107.00,0.79
9106.00,0.79
9105.00,0.79
9104.00,0.79
9103.00,0.79
9102.00,0.79
9101.00,0.79
9100.00,0.79
9099.00,0.78
9098.00,0.78
9097.00,0.78
9096.00,0.78
9095.00,0.78
9094.00,0.78
9093.00,0.78
9092.00,0.78
9091.00,0.78
9090.00,0.78
9089.00,0.78
9088.00,0.78
9087.00,0.78
9086.00,0.78
9085.00,0.78
9084.00,0.78
9083.00,0.78
9082.00,0.78
9081.00,0.78
9080.00,0.79
9079.00,0.79
9078.00,0.79
9077.00,0.79
9076.00,0.79
9075.00,0.79
9074.00,0.79
9073.00,0.79
9072.00,0.79
9071.00,0.80
9070.00,0.80
9069.00,0.80
9068.00,0.80
9067.00,0.80
9066.00,0.80
9065.00,0.80
9064.00,0.80
9063.00,0.80
9062.00,0.80
9061.00,0.80
9060.00,0.80
9059.00,0.79
9058.00,0.79
9057.00,0.79
9056.00,0.79
9055.00,0.79
9054.00,0.79
9053.00,0.79
9052.00,0.79
9051.00,0.79
9050.00,0.79
9049.00,0.79
9048.00,0.79
9047.00,0.79
9046.00,0.79
9045.00,0.79
9044.00,0.79
9043.00,0.79
9042.00,0.79
9041.00,0.80
9040.00,0.80
9039.00,0.80
9038.00,0.80
9037.00,0.80
9036.00,0.80
9035.00,0.81
9034.00,0.81
9033.00,0.81
9032.00,0.81
9031.00,0.81
9030.00,0.81
9029.00,0.81
9028.00,0.80
9027.00,0.80
9026.00,0.80
9025.00,0.80
9024.00,0.80
9023.00,0.80
9022.00,0.79
9021.00,0.79
9020.00,0.79
9019.00,0.79
9018.00,0.79
9017.00,0.79
9016.00,0.79
9015.00,0.79
9014.00,0.79
9013.00,0.80
9012.00,0.80
9011.00,0.80
9010.00,0.80
9009.00,0.80
9008.00,0.80
9007.00,0.80
9006.00,0.80
9005.00,0.80
9004.00,0.80
9003.00,0.80
9002.00,0.80
9001.00,0.80
9000.00,0.80
8999.00,0.80
8998.00,0.80
8997.00,0.80
8996.00,0.80
8995.00,0.80
8994.00,0.79
8993.00,0.79
8992.00,0.79
8991.00,0.79
8990.00,0.79
8989.00,0.79
8988.00,0.79
8987.00,0.79
8986.00,0.79
8985.00,0.79
8984.00,0.79
8983.00,0.79
8982.00,0.79
8981.00,0.79
8980.00,0.79
8979.00,0.80
8978.00,0.80
8977.00,0.80
8976.00,0.80
8975.00,0.80
8974.00,0.80
8973.00,0.80
8972.00,0.81
8971.00,0.81
8970.00,0.81
8969.00,0.81
8968.00,0.81
8967.00,0.81
8966.00,0.81
8965.00,0.81
8964.00,0.81
8963.00,0.81
8962.00,0.81
8961.00,0.81
8960.00,0.81
8959.00,0.81
8958.00,0.80
8957.00,0.80
8956.00,0.80
8955.00,0.80
8954.00,0.80
8953.00,0.80
8952.00,0.79
8951.00,0.79
8950.00,0.79
8949.00,0.79
8948.00,0.79
8947.00,0.79
8946.00,0.79
8945.00,0.79
8944.00,0.79
8943.00,0.79
8942.00,0.79
8941.00,0.79
8940.00,0.79
8939.00,0.79
8938.00,0.79
8937.00,0.79
8936.00,0.80
8935.00,0.80
8934.00,0.80
8933.00,0.80
8932.00,0.80
8931.00,0.80
8930.00,0.80
8929.00,0.80
8928.00,0.81
8927.00,0.81
8926.00,0.81
8925.00,0.81
8924.00,0.81
8923.00,0.81
8922.00,0.81
8921.00,0.81
8920.00,0.81
8919.00,0.81
8918.00,0.81
8917.00,0.81
8916.00,0.81
8915.00,0.81
8914.00,0.81
8913.00,0.81
8912.00,0.81
8911.00,0.81
8910.00,0.81
8909.00,0.81
8908.00,0.81
8907.00,0.81
8906.00,0.81
8905.00,0.81
8904.00,0.81
8903.00,0.81
8902.00,0.81
8901.00,0.80
8900.00,0.80
8899.00,0.80
8898.00,0.80
8897.00,0.80
8896.00,0.80
8895.00,0.80
8894.00,0.80
8893.00,0.80
8892.00,0.80
8891.00,0.80
8890.00,0.80
8889.00,0.80
8888.00,0.80
8887.00,0.80
8886.00,0.80
8885.00,0.80
8884.00,0.80
8883.00,0.80
8882.00,0.80
8881.00,0.80
8880.00,0.80
8879.00,0.80
8878.00,0.80
8877.00,0.80
8876.00,0.80
8875.00,0.79
8874.00,0.79
8873.00,0.79
8872.00,0.79
8871.00,0.79
8870.00,0.79
8869.00,0.79
8868.00,0.79
8867.00,0.79
8866.00,0.79
8865.00,0.79
8864.00,0.79
8863.00,0.79
8862.00,0.79
8861.00,0.79
8860.00,0.80
8859.00,0.80
8858.00,0.80
8857.00,0.80
8856.00,0.80
8855.00,0.80
8854.00,0.80
8853.00,0.80
8852.00,0.80
8851.00,0.80
8850.00,0.80
8849.00,0.80
8848.00,0.80
8847.00,0.80
8846.00,0.80
8845.00,0.80
8844.00,0.80
8843.00,0.80
8842.00,0.80
8841.00,0.80
8840.00,0.79
8839.00,0.79
8838.00,0.79
8837.00,0.79
8836.00,0.79
8835.00,0.79
8834.00,0.79
8833.00,0.79
8832.00,0.79
8831.00,0.79
8830.00,0.79
8829.00,0.79
8828.00,0.79
8827.00,0.79
8826.00,0.79
8825.00,0.79
8824.00,0.79
8823.00,0.79
8822.00,0.79
8821.00,0.79
8820.00,0.79
8819.00,0.79
8818.00,0.79
8817.00,0.79
8816.00,0.79
8815.00,0.79
8814.00,0.79
8813.00,0.79
8812.00,0.79
8811.00,0.79
8810.00,0.79
8809.00,0.79
8808.00,0.79
8807.00,0.79
8806.00,0.79
8805.00,0.79
8804.00,0.79
8803.00,0.79
8802.00,0.79
8801.00,0.78
8800.00,0.78
8799.00,0.78
8798.00,0.78
8797.00,0.78
8796.00,0.78
8795.00,0.77
8794.00,0.77
8793.00,0.77
8792.00,0.77
8791.00,0.77
8790.00,0.77
8789.00,0.77
8788.00,0.76
8787.00,0.76
8786.00,0.76
8785.00,0.76
8784.00,0.76
8783.00,0.76
8782.00,0.76
8781.00,0.76
8780.00,0.76
8779.00,0.76
8778.00,0.77
8777.00,0.77
8776.00,0.77
8775.00,0.77
8774.00,0.77
8773.00,0.77
8772.00,0.77
8771.00,0.77
8770.00,0.77
8769.00,0.77
8768.00,0.77
8767.00,0.77
8766.00,0.77
8765.00,0.77
8764.00,0.77
8763.00,0.77
8762.00,0.77
8761.00,0.77
8760.00,0.77
8759.00,0.77
8758.00,0.77
8757.00,0.76
8756.00,0.76
8755.00,0.76
8754.00,0.77
8753.00,0.77
8752.00,0.77
8751.00,0.77
8750.00,0.77
8749.00,0.77
8748.00,0.77
8747.00,0.77
8746.00,0.77
8745.00,0.77
8744.00,0.77
8743.00,0.77
8742.00,0.77
8741.00,0.77
8740.00,0.77
8739.00,0.77
8738.00,0.77
8737.00,0.77
8736.00,0.77
8735.00,0.77
8734.00,0.76
8733.00,0.76
8732.00,0.76
8731.00,0.76
8730.00,0.76
8729.00,0.76
8728.00,0.77
8727.00,0.77
8726.00,0.77
8725.00,0.77
8724.00,0.77
8723.00,0.77
8722.00,0.77
8721.00,0.77
8720.00,0.78
8719.00,0.78
8718.00,0.78
8717.00,0.78
8716.00,0.78
8715.00,0.78
8714.00,0.78
8713.00,0.78
8712.00,0.78
8711.00,0.77
8710.00,0.77
8709.00,0.77
8708.00,0.77
8707.00,0.77
8706.00,0.77
8705.00,0.76
8704.00,0.76
8703.00,0.76
8702.00,0.76
8701.00,0.76
8700.00,0.76
8699.00,0.76
8698.00,0.76
8697.00,0.76
8696.00,0.77
8695.00,0.77
8694.00,0.77
8693.00,0.77
8692.00,0.77
8691.00,0.77
8690.00,0.77
8689.00,0.77
8688.00,0.77
8687.00,0.77
8686.00,0.77
8685.00,0.77
8684.00,0.77
8683.00,0.77
8682.00,0.77
8681.00,0.77
8680.00,0.77
8679.00,0.77
8678.00,0.77
8677.00,0.77
8676.00,0.77
8675.00,0.77
8674.00,0.77
8673.00,0.76
8672.00,0.76
8671.00,0.76
8670.00,0.76
8669.00,0.76
8668.00,0.76
8667.00,0.76
8666.00,0.76
8665.00,0.76
8664.00,0.75
8663.00,0.75
8662.00,0.75
8661.00,0.75
8660.00,0.75
8659.00,0.75
8658.00,0.75
8657.00,0.75
8656.00,0.75
8655.00,0.74
8654.00,0.74
8653.00,0.74
8652.00,0.74
8651.00,0.74
8650.00,0.74
8649.00,0.74
8648.00,0.74
8647.00,0.74
8646.00,0.74
8645.00,0.73
8644.00,0.73
8643.00,0.73
8642.00,0.74
8641.00,0.74
8640.00,0.74
8639.00,0.74
8638.00,0.74
8637.00,0.74
8636.00,0.74
8635.00,0.74
8634.00,0.74
8633.00,0.74
8632.00,0.75
8631.00,0.75
8630.00,0.75
8629.00,0.75
8628.00,0.75
8627.00,0.75
8626.00,0.75
8625.00,0.75
8624.00,0.75
8623.00,0.75
8622.00,0.74
8621.00,0.74
8620.00,0.74
8619.00,0.74
8618.00,0.74
8617.00,0.74
8616.00,0.74
8615.00,0.74
8614.00,0.74
8613.00,0.74
8612.00,0.74
8611.00,0.74
8610.00,0.74
8609.00,0.74
8608.00,0.74
8607.00,0.74
8606.00,0.74
8605.00,0.74
8604.00,0.75
8603.00,0.75
8602.00,0.75
8601.00,0.75
8600.00,0.75
8599.00,0.75
8598.00,0.75
8597.00,0.75
8596.00,0.75
8595.00,0.75
8594.00,0.75
8593.00,0.75
8592.00,0.75
8591.00,0.75
8590.00,0.75
8589.00,0.75
8588.00,0.74
8587.00,0.74
8586.00,0.74
8585.00,0.74
8584.00,0.74
8583.00,0.74
8582.00,0.74
8581.00,0.74
8580.00,0.74
8579.00,0.74
8578.00,0.74
8577.00,0.74
8576.00,0.74
8575.00,0.74
8574.00,0.74
8573.00,0.74
8572.00,0.74
8571.00,0.74
8570.00,0.74
8569.00,0.74
8568.00,0.74
8567.00,0.74
8566.00,0.74
8565.00,0.74
8564.00,0.74
8563.00,0.74
8562.00,0.74
8561.00,0.74
8560.00,0.74
8559.00,0.74
8558.00,0.74
8557.00,0.74
8556.00,0.73
8555.00,0.73
8554.00,0.73
8553.00,0.73
8552.00,0.73
8551.00,0.73
8550.00,0.73
8549.00,0.73
8548.00,0.73
8547.00,0.73
8546.00,0.73
8545.00,0.73
8544.00,0.73
8543.00,0.72
8542.00,0.72
8541.00,0.72
8540.00,0.72
8539.00,0.72
8538.00,0.72
8537.00,0.72
8536.00,0.72
8535.00,0.72
8534.00,0.72
8533.00,0.72
8532.00,0.72
8531.00,0.72
8530.00,0.72
8529.00,0.72
8528.00,0.72
8527.00,0.72
8526.00,0.72
8525.00,0.72
8524.00,0.72
8523.00,0.72
8522.00,0.72
8521.00,0.72
8520.00,0.72
8519.00,0.72
8518.00,0.72
8517.00,0.72
8516.00,0.72
8515.00,0.72
8514.00,0.72
8513.00,0.72
8512.00,0.72
8511.00,0.71
8510.00,0.71
8509.00,0.71
8508.00,0.71
8507.00,0.71
8506.00,0.71
8505.00,0.71
8504.00,0.71
8503.00,0.71
8502.00,0.71
8501.00,0.71
8500.00,0.71
8499.00,0.71
8498.00,0.71
8497.00,0.71
8496.00,0.71
8495.00,0.71
8494.00,0.72
8493.00,0.72
8492.00,0.72
8491.00,0.72
8490.00,0.72
8489.00,0.72
8488.00,0.72
8487.00,0.73
8486.00,0.73
8485.00,0.73
8484.00,0.73
8483.00,0.73
8482.00,0.73
8481.00,0.73
8480.00,0.73
8479.00,0.73
8478.00,0.73
8477.00,0.73
8476.00,0.73
8475.00,0.73
8474.00,0.73
8473.00,0.72
8472.00,0.72
8471.00,0.72
8470.00,0.72
8469.00,0.72
8468.00,0.72
8467.00,0.72
8466.00,0.72
8465.00,0.72
8464.00,0.71
8463.00,0.71
8462.00,0.71
8461.00,0.71
8460.00,0.71
8459.00,0.71
8458.00,0.70
8457.00,0.70
8456.00,0.70
8455.00,0.70
8454.00,0.70
8453.00,0.70
8452.00,0.70
8451.00,0.70
8450.00,0.70
8449.00,0.70
8448.00,0.70
8447.00,0.69
8446.00,0.69
8445.00,0.69
8444.00,0.69
8443.00,0.69
8442.00,0.69
8441.00,0.70
8440.00,0.70
8439.00,0.70
8438.00,0.70
8437.00,0.70
8436.00,0.70
8435.00,0.70
8434.00,0.70
8433.00,0.70
8432.00,0.70
8431.00,0.70
8430.00,0.70
8429.00,0.70
8428.00,0.70
8427.00,0.70
8426.00,0.70
8425.00,0.70
8424.00,0.70
8423.00,0.70
8422.00,0.70
8421.00,0.70
8420.00,0.70
8419.00,0.70
8418.00,0.70
8417.00,0.70
8416.00,0.70
8415.00,0.70
8414.00,0.70
8413.00,0.70
8412.00,0.71
8411.00,0.71
8410.00,0.71
8409.00,0.71
8408.00,0.71
8407.00,0.71
8406.00,0.71
8405.00,0.71
8404.00,0.71
8403.00,0.71
8402.00,0.71
8401.00,0.71
8400.00,0.71
8399.00,0.71
8398.00,0.71
8397.00,0.71
8396.00,0.71
8395.00,0.71
8394.00,0.71
8393.00,0.71
8392.00,0.71
8391.00,0.71
8390.00,0.71
8389.00,0.71
8388.00,0.71
8387.00,0.71
8386.00,0.71
8385.00,0.71
8384.00,0.71
8383.00,0.71
8382.00,0.71
8381.00,0.70
8380.00,0.70
8379.00,0.70
8378.00,0.70
8377.00,0.70
8376.00,0.70
8375.00,0.70
8374.00,0.70
8373.00,0.70
8372.00,0.70
8371.00,0.71
8370.00,0.71
8369.00,0.71
8368.00,0.71
8367.00,0.71
8366.00,0.71
8365.00,0.71
8364.00,0.71
8363.00,0.71
8362.00,0.71
8361.00,0.71
8360.00,0.71
8359.00,0.71
8358.00,0.71
8357.00,0.71
8356.00,0.71
8355.00,0.71
8354.00,0.71
8353.00,0.71
8352.00,0.72
8351.00,0.72
8350.00,0.72
8349.00,0.72
8348.00,0.72
8347.00,0.72
8346.00,0.72
8345.00,0.72
8344.00,0.72
8343.00,0.72
8342.00,0.72
8341.00,0.72
8340.00,0.72
8339.00,0.72
8338.00,0.72
8337.00,0.72
8336.00,0.72
8335.00,0.72
8334.00,0.72
8333.00,0.72
8332.00,0.72
8331.00,0.72
8330.00,0.72
8329.00,0.72
8328.00,0.72
8327.00,0.72
8326.00,0.72
8325.00,0.72
8324.00,0.72
8323.00,0.72
8322.00,0.73
8321.00,0.73
8320.00,0.73
8319.00,0.73
8318.00,0.73
8317.00,0.73
8316.00,0.73
8315.00,0.73
8314.00,0.73
8313.00,0.73
8312.00,0.73
8311.00,0.73
8310.00,0.73
8309.00,0.73
8308.00,0.73
8307.00,0.73
8306.00,0.73
8305.00,0.73
8304.00,0.73
8303.00,0.73
8302.00,0.73
8301.00,0.73
8300.00,0.73
8299.00,0.73
8298.00,0.73
8297.00,0.73
8296.00,0.73
8295.00,0.73
8294.00,0.73
8293.00,0.73
8292.00,0.73
8291.00,0.73
8290.00,0.73
8289.00,0.73
8288.00,0.73
8287.00,0.73
8286.00,0.73
8285.00,0.73
8284.00,0.73
8283.00,0.73
8282.00,0.74
8281.00,0.74
8280.00,0.74
8279.00,0.74
8278.00,0.74
8277.00,0.74
8276.00,0.74
8275.00,0.74
8274.00,0.74
8273.00,0.74
8272.00,0.75
8271.00,0.75
8270.00,0.75
8269.00,0.75
8268.00,0.75
8267.00,0.75
8266.00,0.75
8265.00,0.75
8264.00,0.75
8263.00,0.74
8262.00,0.74
8261.00,0.74
8260.00,0.74
8259.00,0.74
8258.00,0.74
8257.00,0.74
8256.00,0.74
8255.00,0.74
8254.00,0.74
8253.00,0.75
8252.00,0.75
8251.00,0.75
8250.00,0.75
8249.00,0.75
8248.00,0.75
8247.00,0.75
8246.00,0.75
8245.00,0.75
8244.00,0.75
8243.00,0.75
8242.00,0.75
8241.00,0.75
8240.00,0.75
8239.00,0.75
8238.00,0.75
8237.00,0.75
8236.00,0.75
8235.00,0.75
8234.00,0.75
8233.00,0.75
8232.00,0.75
8231.00,0.75
8230.00,0.75
8229.00,0.75
8228.00,0.75
8227.00,0.74
8226.00,0.74
8225.00,0.74
8224.00,0.74
8223.00,0.74
8222.00,0.74
8221.00,0.74
8220.00,0.74
8219.00,0.75
8218.00,0.75
8217.00,0.75
8216.00,0.75
8215.00,0.75
8214.00,0.75
8213.00,0.75
8212.00,0.75
8211.00,0.75
8210.00,0.75
8209.00,0.75
8208.00,0.75
8207.00,0.75
8206.00,0.75
8205.00,0.75
8204.00,0.75
8203.00,0.75
8202.00,0.76
8201.00,0.76
8200.00,0.76
8199.00,0.76
8198.00,0.76
8197.00,0.76
8196.00,0.76
8195.00,0.76
8194.00,0.76
8193.00,0.75
8192.00,0.75
8191.00,0.75
8190.00,0.75
8189.00,0.75
8188.00,0.75
8187.00,0.75
8186.00,0.75
8185.00,0.75
8184.00,0.75
8183.00,0.75
8182.00,0.75
8181.00,0.75
8180.00,0.75
8179.00,0.75
8178.00,0.75
8177.00,0.75
8176.00,0.75
8175.00,0.75
8174.00,0.75
8173.00,0.75
8172.00,0.75
8171.00,0.75
8170.00,0.75
8169.00,0.75
8168.00,0.75
8167.00,0.75
8166.00,0.75
8165.00,0.75
8164.00,0.75
8163.00,0.76
8162.00,0.76
8161.00,0.76
8160.00,0.76
8159.00,0.76
8158.00,0.76
8157.00,0.76
8156.00,0.76
8155.00,0.76
8154.00,0.76
8153.00,0.76
8152.00,0.76
8151.00,0.76
8150.00,0.76
8149.00,0.76
8148.00,0.76
8147.00,0.76
8146.00,0.76
8145.00,0.76
8144.00,0.76
8143.00,0.76
8142.00,0.77
8141.00,0.77
8140.00,0.77
8139.00,0.77
8138.00,0.77
8137.00,0.77
8136.00,0.77
8135.00,0.77
8134.00,0.77
8133.00,0.77
8132.00,0.77
8131.00,0.77
8130.00,0.77
8129.00,0.77
8128.00,0.78
8127.00,0.78
8126.00,0.78
8125.00,0.78
8124.00,0.78
8123.00,0.78
8122.00,0.78
8121.00,0.78
8120.00,0.78
8119.00,0.78
8118.00,0.78
8117.00,0.78
8116.00,0.78
8115.00,0.78
8114.00,0.78
8113.00,0.78
8112.00,0.78
8111.00,0.78
8110.00,0.78
8109.00,0.78
8108.00,0.77
8107.00,0.77
8106.00,0.77
8105.00,0.77
8104.00,0.77
8103.00,0.77
8102.00,0.77
8101.00,0.77
8100.00,0.77
8099.00,0.77
8098.00,0.77
8097.00,0.78
8096.00,0.78
8095.00,0.78
8094.00,0.78
8093.00,0.78
8092.00,0.78
8091.00,0.78
8090.00,0.78
8089.00,0.78
8088.00,0.78
8087.00,0.78
8086.00,0.78
8085.00,0.78
8084.00,0.78
8083.00,0.78
8082.00,0.78
8081.00,0.78
8080.00,0.78
8079.00,0.78
8078.00,0.78
8077.00,0.78
8076.00,0.78
8075.00,0.78
8074.00,0.78
8073.00,0.78
8072.00,0.78
8071.00,0.78
8070.00,0.78
8069.00,0.78
8068.00,0.78
8067.00,0.78
8066.00,0.78
8065.00,0.78
8064.00,0.78
8063.00,0.78
8062.00,0.78
8061.00,0.78
8060.00,0.78
8059.00,0.78
8058.00,0.78
8057.00,0.78
8056.00,0.78
8055.00,0.78
8054.00,0.78
8053.00,0.78
8052.00,0.78
8051.00,0.78
8050.00,0.78
8049.00,0.78
8048.00,0.78
8047.00,0.78
8046.00,0.78
8045.00,0.78
8044.00,0.78
8043.00,0.78
8042.00,0.78
8041.00,0.78
8040.00,0.78
8039.00,0.78
8038.00,0.78
8037.00,0.78
8036.00,0.78
8035.00,0.78
8034.00,0.78
8033.00,0.78
8032.00,0.78
8031.00,0.78
8030.00,0.78
8029.00,0.78
8028.00,0.78
8027.00,0.78
8026.00,0.78
8025.00,0.79
8024.00,0.79
8023.00,0.79
8022.00,0.79
8021.00,0.79
8020.00,0.79
8019.00,0.79
8018.00,0.79
8017.00,0.79
8016.00,0.79
8015.00,0.79
8014.00,0.79
8013.00,0.79
8012.00,0.79
8011.00,0.79
8010.00,0.79
8009.00,0.79
8008.00,0.79
8007.00,0.79
8006.00,0.79
8005.00,0.79
8004.00,0.79
8003.00,0.79
8002.00,0.79
8001.00,0.79
8000.00,0.79
7999.00,0.79
7998.00,0.79
7997.00,0.79
7996.00,0.79
7995.00,0.80
7994.00,0.80
7993.00,0.80
7992.00,0.80
7991.00,0.80
7990.00,0.80
7989.00,0.80
7988.00,0.80
7987.00,0.80
7986.00,0.80
7985.00,0.80
7984.00,0.80
7983.00,0.80
7982.00,0.80
7981.00,0.80
7980.00,0.80
7979.00,0.80
7978.00,0.80
7977.00,0.80
7976.00,0.80
7975.00,0.80
7974.00,0.80
7973.00,0.80
7972.00,0.80
7971.00,0.80
7970.00,0.80
7969.00,0.80
7968.00,0.80
7967.00,0.80
7966.00,0.80
7965.00,0.80
7964.00,0.80
7963.00,0.80
7962.00,0.80
7961.00,0.80
7960.00,0.80
7959.00,0.80
7958.00,0.80
7957.00,0.80
7956.00,0.80
7955.00,0.80
7954.00,0.80
7953.00,0.80
7952.00,0.80
7951.00,0.80
7950.00,0.79
7949.00,0.79
7948.00,0.79
7947.00,0.79
7946.00,0.79
7945.00,0.79
7944.00,0.79
7943.00,0.79
7942.00,0.79
7941.00,0.79
7940.00,0.79
7939.00,0.79
7938.00,0.79
7937.00,0.79
7936.00,0.79
7935.00,0.79
7934.00,0.79
7933.00,0.79
7932.00,0.79
7931.00,0.79
7930.00,0.79
7929.00,0.79
7928.00,0.79
7927.00,0.80
7926.00,0.80
7925.00,0.80
7924.00,0.80
7923.00,0.80
7922.00,0.80
7921.00,0.80
7920.00,0.80
7919.00,0.80
7918.00,0.80
7917.00,0.80
7916.00,0.80
7915.00,0.80
7914.00,0.80
7913.00,0.80
7912.00,0.80
7911.00,0.80
7910.00,0.80
7909.00,0.80
7908.00,0.80
7907.00,0.80
7906.00,0.80
7905.00,0.80
7904.00,0.80
7903.00,0.80
7902.00,0.80
7901.00,0.80
7900.00,0.80
7899.00,0.80
7898.00,0.80
7897.00,0.80
7896.00,0.80
7895.00,0.80
7894.00,0.80
7893.00,0.80
7892.00,0.80
7891.00,0.80
7890.00,0.80
7889.00,0.80
7888.00,0.80
7887.00,0.80
7886.00,0.80
7885.00,0.80
7884.00,0.80
7883.00,0.80
7882.00,0.80
7881.00,0.80
7880.00,0.80
7879.00,0.80
7878.00,0.80
7877.00,0.80
7876.00,0.80
7875.00,0.80
7874.00,0.80
7873.00,0.80
7872.00,0.80
7871.00,0.80
7870.00,0.80
7869.00,0.80
7868.00,0.80
7867.00,0.80
7866.00,0.80
7865.00,0.80
7864.00,0.80
7863.00,0.80
7862.00,0.80
7861.00,0.80
7860.00,0.80
7859.00,0.80
7858.00,0.80
7857.00,0.80
7856.00,0.80
7855.00,0.80
7854.00,0.80
7853.00,0.80
7852.00,0.80
7851.00,0.81
7850.00,0.81
7849.00,0.81
7848.00,0.81
7847.00,0.81
7846.00,0.81
7845.00,0.81
7844.00,0.80
7843.00,0.80
7842.00,0.80
7841.00,0.80
7840.00,0.80
7839.00,0.80
7838.00,0.80
7837.00,0.80
7836.00,0.80
7835.00,0.80
7834.00,0.80
7833.00,0.80
7832.00,0.80
7831.00,0.80
7830.00,0.80
7829.00,0.80
7828.00,0.80
7827.00,0.80
7826.00,0.80
7825.00,0.80
7824.00,0.80
7823.00,0.80
7822.00,0.80
7821.00,0.80
7820.00,0.80
7819.00,0.80
7818.00,0.79
7817.00,0.79
7816.00,0.79
7815.00,0.79
7814.00,0.79
7813.00,0.79
7812.00,0.79
7811.00,0.79
7810.00,0.80
7809.00,0.80
7808.00,0.80
7807.00,0.80
7806.00,0.80
7805.00,0.80
7804.00,0.80
7803.00,0.80
7802.00,0.80
7801.00,0.80
7800.00,0.80
7799.00,0.80
7798.00,0.80
7797.00,0.80
7796.00,0.80
7795.00,0.80
7794.00,0.80
7793.00,0.80
7792.00,0.80
7791.00,0.80
7790.00,0.80
7789.00,0.80
7788.00,0.80
7787.00,0.80
7786.00,0.80
7785.00,0.80
7784.00,0.80
7783.00,0.80
7782.00,0.80
7781.00,0.81
7780.00,0.81
7779.00,0.81
7778.00,0.81
7777.00,0.81
7776.00,0.81
7775.00,0.81
7774.00,0.81
7773.00,0.81
7772.00,0.81
7771.00,0.81
7770.00,0.81
7769.00,0.81
7768.00,0.81
7767.00,0.80
7766.00,0.80
7765.00,0.80
7764.00,0.80
7763.00,0.80
7762.00,0.80
7761.00,0.80
7760.00,0.80
7759.00,0.80
7758.00,0.81
7757.00,0.81
7756.00,0.81
7755.00,0.81
7754.00,0.81
7753.00,0.81
7752.00,0.81
7751.00,0.81
7750.00,0.81
7749.00,0.81
7748.00,0.81
7747.00,0.81
7746.00,0.81
7745.00,0.81
7744.00,0.81
7743.00,0.81
7742.00,0.81
7741.00,0.81
7740.00,0.81
7739.00,0.81
7738.00,0.81
7737.00,0.81
7736.00,0.81
7735.00,0.81
7734.00,0.81
7733.00,0.81
7732.00,0.81
7731.00,0.81
7730.00,0.81
7729.00,0.81
7728.00,0.81
7727.00,0.81
7726.00,0.81
7725.00,0.81
7724.00,0.81
7723.00,0.81
7722.00,0.81
7721.00,0.81
7720.00,0.81
7719.00,0.81
7718.00,0.80
7717.00,0.80
7716.00,0.80
7715.00,0.80
7714.00,0.80
7713.00,0.80
7712.00,0.80
7711.00,0.80
7710.00,0.81
7709.00,0.81
7708.00,0.81
7707.00,0.81
7706.00,0.81
7705.00,0.81
7704.00,0.81
7703.00,0.81
7702.00,0.81
7701.00,0.81
7700.00,0.81
7699.00,0.81
7698.00,0.81
7697.00,0.81
7696.00,0.81
7695.00,0.81
7694.00,0.81
7693.00,0.81
7692.00,0.81
7691.00,0.81
7690.00,0.81
7689.00,0.81
7688.00,0.81
7687.00,0.81
7686.00,0.81
7685.00,0.81
7684.00,0.81
7683.00,0.81
7682.00,0.81
7681.00,0.81
7680.00,0.81
7679.00,0.81
7678.00,0.81
7677.00,0.81
7676.00,0.81
7675.00,0.81
7674.00,0.81
7673.00,0.81
7672.00,0.81
7671.00,0.81
7670.00,0.81
7669.00,0.81
7668.00,0.81
7667.00,0.81
7666.00,0.81
7665.00,0.81
7664.00,0.81
7663.00,0.81
7662.00,0.81
7661.00,0.81
7660.00,0.81
7659.00,0.81
7658.00,0.81
7657.00,0.81
7656.00,0.81
7655.00,0.81
7654.00,0.81
7653.00,0.81
7652.00,0.81
7651.00,0.81
7650.00,0.81
7649.00,0.81
7648.00,0.81
7647.00,0.81
7646.00,0.81
7645.00,0.81
7644.00,0.81
7643.00,0.81
7642.00,0.81
7641.00,0.81
7640.00,0.81
7639.00,0.81
7638.00,0.81
7637.00,0.81
7636.00,0.81
7635.00,0.81
7634.00,0.81
7633.00,0.81
7632.00,0.81
7631.00,0.81
7630.00,0.81
7629.00,0.81
7628.00,0.81
7627.00,0.81
7626.00,0.81
7625.00,0.81
7624.00,0.81
7623.00,0.81
7622.00,0.81
7621.00,0.81
7620.00,0.81
7619.00,0.81
7618.00,0.81
7617.00,0.81
7616.00,0.81
7615.00,0.81
7614.00,0.81
7613.00,0.81
7612.00,0.81
7611.00,0.81
7610.00,0.81
7609.00,0.81
7608.00,0.81
7607.00,0.81
7606.00,0.81
7605.00,0.81
7604.00,0.81
7603.00,0.81
7602.00,0.81
7601.00,0.81
7600.00,0.81
7599.00,0.81
7598.00,0.81
7597.00,0.81
7596.00,0.81
7595.00,0.81
7594.00,0.81
7593.00,0.81
7592.00,0.81
7591.00,0.81
7590.00,0.81
7589.00,0.81
7588.00,0.81
7587.00,0.81
7586.00,0.81
7585.00,0.81
7584.00,0.81
7583.00,0.81
7582.00,0.81
7581.00,0.81
7580.00,0.81
7579.00,0.81
7578.00,0.80
7577.00,0.80
7576.00,0.80
7575.00,0.80
7574.00,0.80
7573.00,0.80
7572.00,0.80
7571.00,0.80
7570.00,0.80
7569.00,0.80
7568.00,0.80
7567.00,0.80
7566.00,0.80
7565.00,0.80
7564.00,0.80
7563.00,0.80
7562.00,0.80
7561.00,0.80
7560.00,0.80
7559.00,0.80
7558.00,0.80
7557.00,0.80
7556.00,0.80
7555.00,0.80
7554.00,0.80
7553.00,0.80
7552.00,0.80
7551.00,0.80
7550.00,0.80
7549.00,0.80
7548.00,0.80
7547.00,0.80
7546.00,0.80
7545.00,0.80
7544.00,0.80
7543.00,0.80
7542.00,0.80
7541.00,0.80
7540.00,0.80
7539.00,0.80
7538.00,0.80
7537.00,0.80
7536.00,0.80
7535.00,0.80
7534.00,0.80
7533.00,0.80
7532.00,0.80
7531.00,0.79
7530.00,0.79
7529.00,0.79
7528.00,0.79
7527.00,0.79
7526.00,0.79
7525.00,0.79
7524.00,0.79
7523.00,0.79
7522.00,0.79
7521.00,0.79
7520.00,0.79
7519.00,0.79
7518.00,0.79
7517.00,0.79
7516.00,0.79
7515.00,0.79
7514.00,0.79
7513.00,0.79
7512.00,0.79
7511.00,0.79
7510.00,0.79
7509.00,0.79
7508.00,0.79
7507.00,0.79
7506.00,0.79
7505.00,0.79
7504.00,0.79
7503.00,0.79
7502.00,0.79
7501.00,0.79
7500.00,0.79
7499.00,0.79
7498.00,0.79
7497.00,0.79
7496.00,0.79
7495.00,0.79
7494.00,0.79
7493.00,0.79
7492.00,0.79
7491.00,0.79
7490.00,0.79
7489.00,0.79
7488.00,0.79
7487.00,0.79
7486.00,0.79
7485.00,0.79
7484.00,0.79
7483.00,0.79
7482.00,0.79
7481.00,0.79
7480.00,0.79
7479.00,0.79
7478.00,0.79
7477.00,0.79
7476.00,0.79
7475.00,0.79
7474.00,0.79
7473.00,0.79
7472.00,0.79
7471.00,0.78
7470.00,0.78
7469.00,0.78
7468.00,0.78
7467.00,0.78
7466.00,0.78
7465.00,0.78
7464.00,0.78
7463.00,0.78
7462.00,0.78
7461.00,0.78
7460.00,0.77
7459.00,0.77
7458.00,0.77
7457.00,0.77
7456.00,0.77
7455.00,0.77
7454.00,0.77
7453.00,0.78
7452.00,0.78
7451.00,0.78
7450.00,0.78
7449.00,0.78
7448.00,0.78
7447.00,0.78
7446.00,0.78
7445.00,0.77
7444.00,0.77
7443.00,0.77
7442.00,0.77
7441.00,0.77
7440.00,0.77
7439.00,0.77
7438.00,0.77
7437.00,0.77
7436.00,0.77
7435.00,0.77
7434.00,0.77
7433.00,0.77
7432.00,0.77
7431.00,0.77
7430.00,0.77
7429.00,0.76
7428.00,0.76
7427.00,0.76
7426.00,0.76
7425.00,0.76
7424.00,0.76
7423.00,0.76
7422.00,0.76
7421.00,0.76
7420.00,0.76
7419.00,0.75
7418.00,0.75
7417.00,0.75
7416.00,0.75
7415.00,0.75
7414.00,0.75
7413.00,0.75
7412.00,0.75
7411.00,0.75
7410.00,0.75
7409.00,0.75
7408.00,0.75
7407.00,0.75
7406.00,0.75
7405.00,0.75
7404.00,0.75
7403.00,0.75
7402.00,0.75
7401.00,0.75
7400.00,0.75
7399.00,0.75
7398.00,0.75
7397.00,0.75
7396.00,0.75
7395.00,0.75
7394.00,0.75
7393.00,0.75
7392.00,0.75
7391.00,0.74
7390.00,0.74
7389.00,0.74
7388.00,0.74
7387.00,0.74
7386.00,0.74
7385.00,0.74
7384.00,0.74
7383.00,0.73
7382.00,0.73
7381.00,0.73
7380.00,0.73
7379.00,0.73
7378.00,0.73
7377.00,0.73
7376.00,0.73
7375.00,0.73
7374.00,0.73
7373.00,0.73
7372.00,0.73
7371.00,0.73
7370.00,0.73
7369.00,0.73
7368.00,0.74
7367.00,0.74
7366.00,0.74
7365.00,0.74
7364.00,0.74
7363.00,0.74
7362.00,0.74
7361.00,0.74
7360.00,0.74
7359.00,0.74
7358.00,0.74
7357.00,0.74
7356.00,0.74
7355.00,0.74
7354.00,0.74
7353.00,0.73
7352.00,0.73
7351.00,0.73
7350.00,0.73
7349.00,0.73
7348.00,0.73
7347.00,0.73
7346.00,0.73
7345.00,0.73
7344.00,0.73
7343.00,0.73
7342.00,0.73
7341.00,0.73
7340.00,0.73
7339.00,0.73
7338.00,0.73
7337.00,0.73
7336.00,0.73
7335.00,0.73
7334.00,0.73
7333.00,0.73
7332.00,0.73
7331.00,0.73
7330.00,0.73
7329.00,0.73
7328.00,0.73
7327.00,0.73
7326.00,0.73
7325.00,0.73
7324.00,0.73
7323.00,0.73
7322.00,0.73
7321.00,0.73
7320.00,0.73
7319.00,0.73
7318.00,0.73
7317.00,0.72
7316.00,0.72
7315.00,0.72
7314.00,0.72
7313.00,0.72
7312.00,0.72
7311.00,0.72
7310.00,0.72
7309.00,0.72
7308.00,0.72
7307.00,0.72
7306.00,0.72
7305.00,0.72
7304.00,0.72
7303.00,0.72
7302.00,0.72
7301.00,0.72
7300.00,0.71
7299.00,0.71
7298.00,0.71
7297.00,0.71
7296.00,0.71
7295.00,0.71
7294.00,0.71
7293.00,0.71
7292.00,0.71
7291.00,0.71
7290.00,0.71
7289.00,0.71
7288.00,0.71
7287.00,0.71
7286.00,0.71
7285.00,0.71
7284.00,0.71
7283.00,0.71
7282.00,0.71
7281.00,0.71
7280.00,0.70
7279.00,0.70
7278.00,0.70
7277.00,0.70
7276.00,0.70
7275.00,0.70
7274.00,0.70
7273.00,0.70
7272.00,0.70
7271.00,0.70
7270.00,0.70
7269.00,0.69
7268.00,0.69
7267.00,0.69
7266.00,0.69
7265.00,0.69
7264.00,0.69
7263.00,0.69
7262.00,0.69
7261.00,0.69
7260.00,0.69
7259.00,0.69
7258.00,0.68
7257.00,0.68
7256.00,0.68
7255.00,0.68
7254.00,0.68
7253.00,0.68
7252.00,0.68
7251.00,0.67
7250.00,0.67
7249.00,0.67
7248.00,0.67
7247.00,0.67
7246.00,0.66
7245.00,0.66
7244.00,0.66
7243.00,0.66
7242.00,0.65
7241.00,0.65
7240.00,0.65
7239.00,0.65
7238.00,0.64
7237.00,0.64
7236.00,0.64
7235.00,0.64
7234.00,0.63
7233.00,0.63
7232.00,0.63
7231.00,0.63
7230.00,0.63
7229.00,0.63
7228.00,0.62
7227.00,0.62
7226.00,0.62
7225.00,0.62
7224.00,0.62
7223.00,0.62
7222.00,0.62
7221.00,0.61
7220.00,0.61
7219.00,0.61
7218.00,0.61
7217.00,0.61
7216.00,0.60
7215.00,0.60
7214.00,0.60
7213.00,0.59
7212.00,0.59
7211.00,0.59
7210.00,0.59
7209.00,0.58
7208.00,0.58
7207.00,0.58
7206.00,0.58
7205.00,0.57
7204.00,0.57
7203.00,0.57
7202.00,0.57
7201.00,0.56
7200.00,0.56
7199.00,0.56
7198.00,0.56
7197.00,0.56
7196.00,0.55
7195.00,0.55
7194.00,0.55
7193.00,0.55
7192.00,0.55
7191.00,0.54
7190.00,0.54
7189.00,0.54
7188.00,0.54
7187.00,0.53
7186.00,0.53
7185.00,0.53
7184.00,0.53
7183.00,0.53
7182.00,0.52
7181.00,0.52
7180.00,0.52
7179.00,0.52
7178.00,0.52
7177.00,0.51
7176.00,0.51
7175.00,0.51
7174.00,0.51
7173.00,0.51
7172.00,0.50
7171.00,0.50
7170.00,0.50
7169.00,0.50
7168.00,0.50
7167.00,0.50
7166.00,0.49
7165.00,0.49
7164.00,0.49
7163.00,0.49
7162.00,0.49
7161.00,0.49
7160.00,0.49
7159.00,0.48
7158.00,0.48
7157.00,0.48
7156.00,0.48
7155.00,0.48
7154.00,0.48
7153.00,0.48
7152.00,0.48
7151.00,0.48
7150.00,0.48
7149.00,0.47
7148.00,0.47
7147.00,0.47
7146.00,0.47
7145.00,0.47
7144.00,0.47
7143.00,0.47
7142.00,0.46
7141.00,0.46
7140.00,0.46
7139.00,0.46
7138.00,0.46
7137.00,0.45
7136.00,0.45
7135.00,0.45
7134.00,0.45
7133.00,0.45
7132.00,0.45
7131.00,0.44
7130.00,0.44
7129.00,0.44
7128.00,0.44
7127.00,0.44
7126.00,0.44
7125.00,0.43
7124.00,0.43
7123.00,0.43
7122.00,0.43
7121.00,0.43
7120.00,0.43
7119.00,0.43
7118.00,0.42
7117.00,0.42
7116.00,0.42
7115.00,0.42
7114.00,0.42
7113.00,0.42
7112.00,0.41
7111.00,0.41
7110.00,0.41
7109.00,0.41
7108.00,0.41
7107.00,0.41
7106.00,0.41
7105.00,0.40
7104.00,0.40
7103.00,0.40
7102.00,0.40
7101.00,0.40
7100.00,0.40
7099.00,0.40
7098.00,0.40
7097.00,0.40
7096.00,0.40
7095.00,0.40
7094.00,0.40
7093.00,0.40
7092.00,0.40
7091.00,0.39
7090.00,0.39
7089.00,0.39
7088.00,0.39
7087.00,0.39
7086.00,0.39
7085.00,0.39
7084.00,0.39
7083.00,0.38
7082.00,0.38
7081.00,0.38
7080.00,0.38
7079.00,0.38
7078.00,0.38
7077.00,0.38
7076.00,0.38
7075.00,0.38
7074.00,0.37
7073.00,0.37
7072.00,0.37
7071.00,0.37
7070.00,0.37
7069.00,0.37
7068.00,0.37
7067.00,0.37
7066.00,0.36
7065.00,0.36
7064.00,0.36
7063.00,0.36
7062.00,0.36
7061.00,0.36
7060.00,0.36
7059.00,0.36
7058.00,0.36
7057.00,0.36
7056.00,0.36
7055.00,0.36
7054.00,0.36
7053.00,0.36
7052.00,0.36
7051.00,0.36
7050.00,0.36
7049.00,0.36
7048.00,0.36
7047.00,0.36
7046.00,0.36
7045.00,0.36
7044.00,0.36
7043.00,0.36
7042.00,0.36
7041.00,0.36
7040.00,0.36
7039.00,0.36
7038.00,0.36
7037.00,0.36
7036.00,0.36
7035.00,0.35
7034.00,0.35
7033.00,0.35
7032.00,0.35
7031.00,0.35
7030.00,0.35
7029.00,0.35
7028.00,0.35
7027.00,0.35
7026.00,0.35
7025.00,0.35
7024.00,0.35
7023.00,0.35
7022.00,0.35
7021.00,0.35
7020.00,0.35
7019.00,0.35
7018.00,0.35
7017.00,0.34
7016.00,0.34
7015.00,0.34
7014.00,0.34
7013.00,0.34
7012.00,0.34
7011.00,0.34
7010.00,0.34
7009.00,0.34
7008.00,0.34
7007.00,0.34
7006.00,0.34
7005.00,0.33
7004.00,0.33
7003.00,0.33
7002.00,0.33
7001.00,0.33
7000.00,0.33
6999.00,0.33
6998.00,0.33
6997.00,0.33
6996.00,0.33
6995.00,0.33
6994.00,0.33
6993.00,0.33
6992.00,0.33
6991.00,0.33
6990.00,0.33
6989.00,0.33
6988.00,0.33
6987.00,0.33
6986.00,0.33
6985.00,0.33
6984.00,0.33
6983.00,0.34
6982.00,0.34
6981.00,0.34
6980.00,0.33
6979.00,0.33
6978.00,0.33
6977.00,0.33
6976.00,0.33
6975.00,0.33
6974.00,0.33
6973.00,0.33
6972.00,0.33
6971.00,0.33
6970.00,0.33
6969.00,0.33
6968.00,0.33
6967.00,0.33
6966.00,0.33
6965.00,0.33
6964.00,0.32
6963.00,0.32
6962.00,0.32
6961.00,0.32
6960.00,0.32
6959.00,0.32
6958.00,0.32
6957.00,0.32
6956.00,0.32
6955.00,0.32
6954.00,0.32
6953.00,0.32
6952.00,0.32
6951.00,0.32
6950.00,0.32
6949.00,0.32
6948.00,0.32
6947.00,0.32
6946.00,0.32
6945.00,0.32
6944.00,0.32
6943.00,0.32
6942.00,0.32
6941.00,0.32
6940.00,0.32
6939.00,0.32
6938.00,0.32
6937.00,0.32
6936.00,0.32
6935.00,0.32
6934.00,0.32
6933.00,0.32
6932.00,0.32
6931.00,0.32
6930.00,0.32
6929.00,0.32
6928.00,0.32
6927.00,0.32
6926.00,0.32
6925.00,0.32
6924.00,0.32
6923.00,0.33
6922.00,0.33
6921.00,0.33
6920.00,0.33
6919.00,0.33
6918.00,0.33
6917.00,0.33
6916.00,0.33
6915.00,0.33
6914.00,0.33
6913.00,0.33
6912.00,0.33
6911.00,0.33
6910.00,0.33
6909.00,0.33
6908.00,0.33
6907.00,0.33
6906.00,0.33
6905.00,0.33
6904.00,0.33
6903.00,0.33
6902.00,0.33
6901.00,0.33
6900.00,0.33
6899.00,0.33
6898.00,0.33
6897.00,0.33
6896.00,0.33
6895.00,0.33
6894.00,0.33
6893.00,0.33
6892.00,0.33
6891.00,0.33
6890.00,0.33
6889.00,0.33
6888.00,0.33
6887.00,0.33
6886.00,0.33
6885.00,0.33
6884.00,0.33
6883.00,0.33
6882.00,0.33
6881.00,0.33
6880.00,0.33
6879.00,0.33
6878.00,0.32
6877.00,0.32
6876.00,0.32
6875.00,0.32
6874.00,0.32
6873.00,0.32
6872.00,0.32
6871.00,0.32
6870.00,0.32
6869.00,0.32
6868.00,0.32
6867.00,0.32
6866.00,0.32
6865.00,0.32
6864.00,0.32
6863.00,0.32
6862.00,0.32
6861.00,0.32
6860.00,0.32
6859.00,0.33
6858.00,0.33
6857.00,0.33
6856.00,0.33
6855.00,0.33
6854.00,0.33
6853.00,0.33
6852.00,0.33
6851.00,0.33
6850.00,0.33
6849.00,0.33
6848.00,0.33
6847.00,0.33
6846.00,0.34
6845.00,0.34
6844.00,0.34
6843.00,0.34
6842.00,0.34
6841.00,0.34
6840.00,0.34
6839.00,0.34
6838.00,0.34
6837.00,0.34
6836.00,0.34
6835.00,0.34
6834.00,0.34
6833.00,0.34
6832.00,0.33
6831.00,0.33
6830.00,0.33
6829.00,0.33
6828.00,0.33
6827.00,0.33
6826.00,0.33
6825.00,0.33
6824.00,0.33
6823.00,0.33
6822.00,0.33
6821.00,0.33
6820.00,0.33
6819.00,0.33
6818.00,0.33
6817.00,0.33
6816.00,0.33
6815.00,0.33
6814.00,0.33
6813.00,0.33
6812.00,0.33
6811.00,0.33
6810.00,0.33
6809.00,0.33
6808.00,0.33
6807.00,0.33
6806.00,0.33
6805.00,0.33
6804.00,0.33
6803.00,0.33
6802.00,0.33
6801.00,0.34
6800.00,0.34
6799.00,0.34
6798.00,0.34
6797.00,0.34
6796.00,0.34
6795.00,0.34
6794.00,0.34
6793.00,0.34
6792.00,0.34
6791.00,0.34
6790.00,0.34
6789.00,0.34
6788.00,0.34
6787.00,0.34
6786.00,0.34
6785.00,0.34
6784.00,0.34
6783.00,0.34
6782.00,0.34
6781.00,0.34
6780.00,0.34
6779.00,0.34
6778.00,0.34
6777.00,0.34
6776.00,0.34
6775.00,0.34
6774.00,0.34
6773.00,0.34
6772.00,0.34
6771.00,0.34
6770.00,0.34
6769.00,0.34
6768.00,0.34
6767.00,0.35
6766.00,0.35
6765.00,0.35
6764.00,0.35
6763.00,0.35
6762.00,0.35
6761.00,0.35
6760.00,0.35
6759.00,0.35
6758.00,0.35
6757.00,0.35
6756.00,0.35
6755.00,0.35
6754.00,0.35
6753.00,0.35
6752.00,0.35
6751.00,0.35
6750.00,0.35
6749.00,0.35
6748.00,0.35
6747.00,0.35
6746.00,0.35
6745.00,0.35
6744.00,0.35
6743.00,0.35
6742.00,0.35
6741.00,0.35
6740.00,0.35
6739.00,0.35
6738.00,0.35
6737.00,0.35
6736.00,0.35
6735.00,0.35
6734.00,0.35
6733.00,0.35
6732.00,0.35
6731.00,0.35
6730.00,0.35
6729.00,0.35
6728.00,0.36
6727.00,0.36
6726.00,0.36
6725.00,0.36
6724.00,0.36
6723.00,0.36
6722.00,0.36
6721.00,0.36
6720.00,0.36
6719.00,0.36
6718.00,0.36
6717.00,0.36
6716.00,0.36
6715.00,0.36
6714.00,0.36
6713.00,0.36
6712.00,0.36
6711.00,0.36
6710.00,0.36
6709.00,0.37
6708.00,0.37
6707.00,0.37
6706.00,0.37
6705.00,0.37
6704.00,0.37
6703.00,0.37
6702.00,0.37
6701.00,0.37
6700.00,0.37
6699.00,0.37
6698.00,0.37
6697.00,0.37
6696.00,0.37
6695.00,0.37
6694.00,0.37
6693.00,0.37
6692.00,0.37
6691.00,0.37
6690.00,0.37
6689.00,0.37
6688.00,0.37
6687.00,0.37
6686.00,0.37
6685.00,0.37
6684.00,0.37
6683.00,0.37
6682.00,0.37
6681.00,0.37
6680.00,0.37
6679.00,0.38
6678.00,0.38
6677.00,0.38
6676.00,0.38
6675.00,0.38
6674.00,0.38
6673.00,0.38
6672.00,0.38
6671.00,0.38
6670.00,0.38
6669.00,0.38
6668.00,0.38
6667.00,0.38
6666.00,0.38
6665.00,0.38
6664.00,0.39
6663.00,0.39
6662.00,0.39
6661.00,0.39
6660.00,0.39
6659.00,0.39
6658.00,0.39
6657.00,0.39
6656.00,0.39
6655.00,0.39
6654.00,0.40
6653.00,0.40
6652.00,0.40
6651.00,0.40
6650.00,0.40
6649.00,0.40
6648.00,0.40
6647.00,0.40
6646.00,0.40
6645.00,0.40
6644.00,0.40
6643.00,0.40
6642.00,0.40
6641.00,0.40
6640.00,0.40
6639.00,0.40
6638.00,0.40
6637.00,0.41
6636.00,0.41
6635.00,0.41
6634.00,0.41
6633.00,0.41
6632.00,0.41
6631.00,0.41
6630.00,0.41
6629.00,0.41
6628.00,0.41
6627.00,0.41
6626.00,0.41
6625.00,0.41
6624.00,0.41
6623.00,0.41
6622.00,0.41
6621.00,0.41
6620.00,0.41
6619.00,0.41
6618.00,0.41
6617.00,0.41
6616.00,0.41
6615.00,0.41
6614.00,0.41
6613.00,0.41
6612.00,0.41
6611.00,0.42
6610.00,0.42
6609.00,0.42
6608.00,0.42
6607.00,0.42
6606.00,0.42
6605.00,0.42
6604.00,0.42
6603.00,0.42
6602.00,0.42
6601.00,0.42
6600.00,0.42
6599.00,0.42
6598.00,0.42
6597.00,0.42
6596.00,0.42
6595.00,0.42
6594.00,0.42
6593.00,0.42
6592.00,0.42
6591.00,0.42
6590.00,0.43
6589.00,0.43
6588.00,0.43
6587.00,0.43
6586.00,0.43
6585.00,0.43
6584.00,0.43
6583.00,0.43
6582.00,0.43
6581.00,0.43
6580.00,0.43
6579.00,0.43
6578.00,0.43
6577.00,0.44
6576.00,0.44
6575.00,0.44
6574.00,0.44
6573.00,0.44
6572.00,0.44
6571.00,0.44
6570.00,0.44
6569.00,0.44
6568.00,0.44
6567.00,0.44
6566.00,0.45
6565.00,0.45
6564.00,0.45
6563.00,0.45
6562.00,0.45
6561.00,0.45
6560.00,0.45
6559.00,0.45
6558.00,0.45
6557.00,0.45
6556.00,0.45
6555.00,0.45
6554.00,0.45
6553.00,0.45
6552.00,0.45
6551.00,0.45
6550.00,0.45
6549.00,0.45
6548.00,0.45
6547.00,0.45
6546.00,0.45
6545.00,0.46
6544.00,0.46
6543.00,0.46
6542.00,0.46
6541.00,0.46
6540.00,0.46
6539.00,0.46
6538.00,0.46
6537.00,0.46
6536.00,0.46
6535.00,0.46
6534.00,0.46
6533.00,0.46
6532.00,0.46
6531.00,0.46
6530.00,0.46
6529.00,0.46
6528.00,0.46
6527.00,0.46
6526.00,0.46
6525.00,0.46
6524.00,0.46
6523.00,0.46
6522.00,0.46
6521.00,0.46
6520.00,0.46
6519.00,0.46
6518.00,0.46
6517.00,0.46
6516.00,0.46
6515.00,0.46
6514.00,0.46
6513.00,0.46
6512.00,0.46
6511.00,0.47
6510.00,0.47
6509.00,0.47
6508.00,0.47
6507.00,0.47
6506.00,0.47
6505.00,0.47
6504.00,0.47
6503.00,0.47
6502.00,0.47
6501.00,0.47
6500.00,0.47
6499.00,0.47
6498.00,0.48
6497.00,0.48
6496.00,0.48
6495.00,0.48
6494.00,0.48
6493.00,0.48
6492.00,0.48
6491.00,0.48
6490.00,0.48
6489.00,0.48
6488.00,0.48
6487.00,0.48
6486.00,0.48
6485.00,0.48
6484.00,0.48
6483.00,0.48
6482.00,0.48
6481.00,0.48
6480.00,0.48
6479.00,0.48
6478.00,0.48
6477.00,0.48
6476.00,0.48
6475.00,0.48
6474.00,0.49
6473.00,0.49
6472.00,0.49
6471.00,0.49
6470.00,0.49
6469.00,0.49
6468.00,0.49
6467.00,0.49
6466.00,0.49
6465.00,0.49
6464.00,0.49
6463.00,0.49
6462.00,0.49
6461.00,0.49
6460.00,0.49
6459.00,0.49
6458.00,0.49
6457.00,0.49
6456.00,0.49
6455.00,0.49
6454.00,0.49
6453.00,0.50
6452.00,0.50
6451.00,0.50
6450.00,0.50
6449.00,0.50
6448.00,0.50
6447.00,0.50
6446.00,0.50
6445.00,0.50
6444.00,0.50
6443.00,0.50
6442.00,0.50
6441.00,0.50
6440.00,0.50
6439.00,0.50
6438.00,0.51
6437.00,0.51
6436.00,0.51
6435.00,0.51
6434.00,0.51
6433.00,0.51
6432.00,0.51
6431.00,0.51
6430.00,0.51
6429.00,0.51
6428.00,0.51
6427.00,0.51
6426.00,0.51
6425.00,0.51
6424.00,0.51
6423.00,0.51
6422.00,0.51
6421.00,0.51
6420.00,0.51
6419.00,0.51
6418.00,0.51
6417.00,0.51
6416.00,0.51
6415.00,0.51
6414.00,0.51
6413.00,0.51
6412.00,0.51
6411.00,0.51
6410.00,0.51
6409.00,0.51
6408.00,0.51
6407.00,0.51
6406.00,0.51
6405.00,0.51
6404.00,0.51
6403.00,0.51
6402.00,0.51
6401.00,0.51
6400.00,0.51
6399.00,0.51
6398.00,0.51
6397.00,0.51
6396.00,0.51
6395.00,0.51
6394.00,0.52
6393.00,0.52
6392.00,0.52
6391.00,0.52
6390.00,0.52
6389.00,0.52
6388.00,0.52
6387.00,0.52
6386.00,0.52
6385.00,0.52
6384.00,0.52
6383.00,0.52
6382.00,0.52
6381.00,0.53
6380.00,0.53
6379.00,0.53
6378.00,0.53
6377.00,0.53
6376.00,0.53
6375.00,0.53
6374.00,0.53
6373.00,0.53
6372.00,0.53
6371.00,0.53
6370.00,0.53
6369.00,0.53
6368.00,0.53
6367.00,0.53
6366.00,0.53
6365.00,0.53
6364.00,0.53
6363.00,0.54
6362.00,0.54
6361.00,0.54
6360.00,0.54
6359.00,0.54
6358.00,0.54
6357.00,0.54
6356.00,0.54
6355.00,0.54
6354.00,0.54
6353.00,0.54
6352.00,0.54
6351.00,0.54
6350.00,0.54
6349.00,0.54
6348.00,0.54
6347.00,0.54
6346.00,0.54
6345.00,0.54
6344.00,0.54
6343.00,0.54
6342.00,0.54
6341.00,0.55
6340.00,0.55
6339.00,0.55
6338.00,0.55
6337.00,0.55
6336.00,0.55
6335.00,0.55
6334.00,0.55
6333.00,0.55
6332.00,0.55
6331.00,0.55
6330.00,0.55
6329.00,0.55
6328.00,0.55
6327.00,0.55
6326.00,0.55
6325.00,0.55
6324.00,0.55
6323.00,0.56
6322.00,0.56
6321.00,0.56
6320.00,0.56
6319.00,0.56
6318.00,0.56
6317.00,0.56
6316.00,0.56
6315.00,0.56
6314.00,0.56
6313.00,0.56
6312.00,0.56
6311.00,0.57
6310.00,0.57
6309.00,0.57
6308.00,0.57
6307.00,0.57
6306.00,0.57
6305.00,0.57
6304.00,0.57
6303.00,0.57
6302.00,0.57
6301.00,0.57
6300.00,0.57
6299.00,0.57
6298.00,0.57
6297.00,0.57
6296.00,0.57
6295.00,0.57
6294.00,0.57
6293.00,0.58
6292.00,0.58
6291.00,0.58
6290.00,0.58
6289.00,0.58
6288.00,0.58
6287.00,0.58
6286.00,0.58
6285.00,0.58
6284.00,0.58
6283.00,0.58
6282.00,0.58
6281.00,0.58
6280.00,0.58
6279.00,0.58
6278.00,0.58
6277.00,0.58
6276.00,0.58
6275.00,0.58
6274.00,0.59
6273.00,0.59
6272.00,0.59
6271.00,0.59
6270.00,0.59
6269.00,0.59
6268.00,0.59
6267.00,0.59
6266.00,0.59
6265.00,0.59
6264.00,0.59
6263.00,0.60
6262.00,0.60
6261.00,0.60
6260.00,0.60
6259.00,0.60
6258.00,0.60
6257.00,0.60
6256.00,0.61
6255.00,0.61
6254.00,0.61
6253.00,0.61
6252.00,0.61
6251.00,0.61
6250.00,0.61
6249.00,0.61
6248.00,0.61
6247.00,0.61
6246.00,0.61
6245.00,0.62
6244.00,0.62
6243.00,0.62
6242.00,0.62
6241.00,0.62
6240.00,0.62
6239.00,0.62
6238.00,0.62
6237.00,0.62
6236.00,0.62
6235.00,0.62
6234.00,0.62
6233.00,0.62
6232.00,0.63
6231.00,0.63
6230.00,0.63
6229.00,0.63
6228.00,0.63
6227.00,0.63
6226.00,0.63
6225.00,0.63
6224.00,0.63
6223.00,0.63
6222.00,0.63
6221.00,0.63
6220.00,0.63
6219.00,0.63
6218.00,0.63
6217.00,0.63
6216.00,0.63
6215.00,0.63
6214.00,0.64
6213.00,0.64
6212.00,0.64
6211.00,0.64
6210.00,0.64
6209.00,0.64
6208.00,0.64
6207.00,0.64
6206.00,0.64
6205.00,0.64
6204.00,0.64
6203.00,0.64
6202.00,0.64
6201.00,0.64
6200.00,0.64
6199.00,0.64
6198.00,0.64
6197.00,0.64
6196.00,0.64
6195.00,0.64
6194.00,0.64
6193.00,0.64
6192.00,0.64
6191.00,0.64
6190.00,0.65
6189.00,0.65
6188.00,0.65
6187.00,0.65
6186.00,0.65
6185.00,0.65
6184.00,0.65
6183.00,0.65
6182.00,0.65
6181.00,0.65
6180.00,0.66
6179.00,0.66
6178.00,0.66
6177.00,0.66
6176.00,0.66
6175.00,0.66
6174.00,0.66
6173.00,0.66
6172.00,0.67
6171.00,0.67
6170.00,0.67
6169.00,0.67
6168.00,0.67
6167.00,0.67
6166.00,0.67
6165.00,0.67
6164.00,0.67
6163.00,0.68
6162.00,0.68
6161.00,0.68
6160.00,0.68
6159.00,0.68
6158.00,0.68
6157.00,0.68
6156.00,0.68
6155.00,0.68
6154.00,0.68
6153.00,0.68
6152.00,0.68
6151.00,0.69
6150.00,0.69
6149.00,0.69
6148.00,0.69
6147.00,0.69
6146.00,0.69
6145.00,0.69
6144.00,0.69
6143.00,0.69
6142.00,0.69
6141.00,0.69
6140.00,0.70
6139.00,0.70
6138.00,0.70
6137.00,0.70
6136.00,0.70
6135.00,0.70
6134.00,0.70
6133.00,0.70
6132.00,0.70
6131.00,0.70
6130.00,0.70
6129.00,0.71
6128.00,0.71
6127.00,0.71
6126.00,0.71
6125.00,0.71
6124.00,0.71
6123.00,0.71
6122.00,0.71
6121.00,0.71
6120.00,0.71
6119.00,0.71
6118.00,0.71
6117.00,0.71
6116.00,0.71
6115.00,0.71
6114.00,0.71
6113.00,0.71
6112.00,0.71
6111.00,0.71
6110.00,0.71
6109.00,0.71
6108.00,0.72
6107.00,0.72
6106.00,0.72
6105.00,0.72
6104.00,0.72
6103.00,0.72
6102.00,0.72
6101.00,0.72
6100.00,0.72
6099.00,0.72
6098.00,0.72
6097.00,0.72
6096.00,0.72
6095.00,0.73
6094.00,0.73
6093.00,0.73
6092.00,0.73
6091.00,0.73
6090.00,0.73
6089.00,0.73
6088.00,0.73
6087.00,0.73
6086.00,0.73
6085.00,0.74
6084.00,0.74
6083.00,0.74
6082.00,0.74
6081.00,0.74
6080.00,0.74
6079.00,0.74
6078.00,0.74
6077.00,0.74
6076.00,0.74
6075.00,0.74
6074.00,0.74
6073.00,0.74
6072.00,0.74
6071.00,0.74
6070.00,0.74
6069.00,0.74
6068.00,0.74
6067.00,0.74
6066.00,0.74
6065.00,0.74
6064.00,0.75
6063.00,0.75
6062.00,0.75
6061.00,0.75
6060.00,0.75
6059.00,0.75
6058.00,0.75
6057.00,0.75
6056.00,0.75
6055.00,0.75
6054.00,0.75
6053.00,0.75
6052.00,0.75
6051.00,0.75
6050.00,0.75
6049.00,0.76
6048.00,0.76
6047.00,0.76
6046.00,0.76
6045.00,0.76
6044.00,0.76
6043.00,0.76
6042.00,0.76
6041.00,0.76
6040.00,0.76
6039.00,0.76
6038.00,0.76
6037.00,0.76
6036.00,0.76
6035.00,0.76
6034.00,0.76
6033.00,0.76
6032.00,0.76
6031.00,0.76
6030.00,0.76
6029.00,0.76
6028.00,0.76
6027.00,0.76
6026.00,0.76
6025.00,0.76
6024.00,0.76
6023.00,0.76
6022.00,0.76
6021.00,0.76
6020.00,0.77
6019.00,0.77
6018.00,0.77
6017.00,0.77
6016.00,0.77
6015.00,0.77
6014.00,0.77
6013.00,0.77
6012.00,0.77
6011.00,0.77
6010.00,0.77
6009.00,0.77
6008.00,0.77
6007.00,0.77
6006.00,0.77
6005.00,0.77
6004.00,0.77
6003.00,0.77
6002.00,0.76
6001.00,0.76
6000.00,0.76
5999.00,0.76
5998.00,0.76
5997.00,0.76
5996.00,0.76
5995.00,0.76
5994.00,0.76
5993.00,0.76
5992.00,0.76
5991.00,0.76
5990.00,0.76
5989.00,0.76
5988.00,0.76
5987.00,0.75
5986.00,0.75
5985.00,0.75
5984.00,0.75
5983.00,0.75
5982.00,0.75
5981.00,0.75
5980.00,0.74
5979.00,0.74
5978.00,0.74
5977.00,0.74
5976.00,0.74
5975.00,0.73
5974.00,0.73
5973.00,0.73
5972.00,0.73
5971.00,0.72
5970.00,0.72
5969.00,0.72
5968.00,0.71
5967.00,0.71
5966.00,0.71
5965.00,0.70
5964.00,0.70
5963.00,0.70
5962.00,0.69
5961.00,0.69
5960.00,0.68
5959.00,0.68
5958.00,0.68
5957.00,0.67
5956.00,0.67
5955.00,0.67
5954.00,0.66
5953.00,0.66
5952.00,0.66
5951.00,0.65
5950.00,0.65
5949.00,0.65
5948.00,0.64
5947.00,0.64
5946.00,0.64
5945.00,0.64
5944.00,0.64
5943.00,0.64
5942.00,0.64
5941.00,0.63
5940.00,0.63
5939.00,0.63
5938.00,0.63
5937.00,0.63
5936.00,0.63
5935.00,0.63
5934.00,0.63
5933.00,0.63
5932.00,0.63
5931.00,0.63
5930.00,0.63
5929.00,0.63
5928.00,0.63
5927.00,0.63
5926.00,0.63
5925.00,0.63
5924.00,0.62
5923.00,0.62
5922.00,0.62
5921.00,0.62
5920.00,0.62
5919.00,0.62
5918.00,0.62
5917.00,0.62
5916.00,0.61
5915.00,0.61
5914.00,0.61
5913.00,0.61
5912.00,0.61
5911.00,0.61
5910.00,0.61
5909.00,0.61
5908.00,0.61
5907.00,0.61
5906.00,0.61
5905.00,0.61
5904.00,0.61
5903.00,0.61
5902.00,0.61
5901.00,0.61
5900.00,0.61
5899.00,0.61
5898.00,0.61
5897.00,0.61
5896.00,0.61
5895.00,0.61
5894.00,0.61
5893.00,0.61
5892.00,0.62
5891.00,0.62
5890.00,0.62
5889.00,0.62
5888.00,0.62
5887.00,0.62
5886.00,0.62
5885.00,0.63
5884.00,0.63
5883.00,0.63
5882.00,0.63
5881.00,0.63
5880.00,0.63
5879.00,0.64
5878.00,0.64
5877.00,0.64
5876.00,0.64
5875.00,0.64
5874.00,0.64
5873.00,0.64
5872.00,0.64
5871.00,0.65
5870.00,0.65
5869.00,0.65
5868.00,0.65
5867.00,0.65
5866.00,0.65
5865.00,0.65
5864.00,0.65
5863.00,0.65
5862.00,0.65
5861.00,0.66
5860.00,0.66
5859.00,0.66
5858.00,0.66
5857.00,0.66
5856.00,0.66
5855.00,0.66
5854.00,0.66
5853.00,0.66
5852.00,0.66
5851.00,0.66
5850.00,0.66
5849.00,0.66
5848.00,0.66
5847.00,0.66
5846.00,0.66
5845.00,0.67
5844.00,0.67
5843.00,0.66
5842.00,0.66
5841.00,0.66
5840.00,0.66
5839.00,0.66
5838.00,0.66
5837.00,0.66
5836.00,0.66
5835.00,0.66
5834.00,0.66
5833.00,0.66
5832.00,0.66
5831.00,0.66
5830.00,0.66
5829.00,0.66
5828.00,0.66
5827.00,0.66
5826.00,0.66
5825.00,0.66
5824.00,0.66
5823.00,0.66
5822.00,0.66
5821.00,0.66
5820.00,0.66
5819.00,0.66
5818.00,0.66
5817.00,0.66
5816.00,0.66
5815.00,0.66
5814.00,0.66
5813.00,0.66
5812.00,0.66
5811.00,0.66
5810.00,0.66
5809.00,0.66
5808.00,0.66
5807.00,0.66
5806.00,0.66
5805.00,0.66
5804.00,0.66
5803.00,0.66
5802.00,0.66
5801.00,0.66
5800.00,0.66
5799.00,0.66
5798.00,0.65
5797.00,0.65
5796.00,0.65
5795.00,0.65
5794.00,0.65
5793.00,0.65
5792.00,0.65
5791.00,0.65
5790.00,0.65
5789.00,0.64
5788.00,0.64
5787.00,0.64
5786.00,0.64
5785.00,0.64
5784.00,0.64
5783.00,0.64
5782.00,0.64
5781.00,0.63
5780.00,0.63
5779.00,0.63
5778.00,0.63
5777.00,0.63
5776.00,0.63
5775.00,0.63
5774.00,0.63
5773.00,0.63
5772.00,0.63
5771.00,0.63
5770.00,0.63
5769.00,0.63
5768.00,0.63
5767.00,0.64
5766.00,0.64
5765.00,0.64
5764.00,0.64
5763.00,0.64
5762.00,0.64
5761.00,0.64
5760.00,0.64
5759.00,0.65
5758.00,0.65
5757.00,0.65
5756.00,0.65
5755.00,0.65
5754.00,0.65
5753.00,0.66
5752.00,0.66
5751.00,0.66
5750.00,0.66
5749.00,0.66
5748.00,0.66
5747.00,0.67
5746.00,0.67
5745.00,0.67
5744.00,0.67
5743.00,0.67
5742.00,0.67
5741.00,0.68
5740.00,0.68
5739.00,0.68
5738.00,0.68
5737.00,0.68
5736.00,0.68
5735.00,0.68
5734.00,0.68
5733.00,0.69
5732.00,0.69
5731.00,0.69
5730.00,0.69
5729.00,0.69
5728.00,0.69
5727.00,0.69
5726.00,0.69
5725.00,0.69
5724.00,0.69
5723.00,0.69
5722.00,0.69
5721.00,0.69
5720.00,0.69
5719.00,0.69
5718.00,0.69
5717.00,0.69
5716.00,0.69
5715.00,0.68
5714.00,0.68
5713.00,0.68
5712.00,0.68
5711.00,0.68
5710.00,0.68
5709.00,0.68
5708.00,0.68
5707.00,0.68
5706.00,0.68
5705.00,0.68
5704.00,0.68
5703.00,0.68
5702.00,0.68
5701.00,0.68
5700.00,0.68
5699.00,0.68
5698.00,0.68
5697.00,0.68
5696.00,0.68
5695.00,0.68
5694.00,0.68
5693.00,0.67
5692.00,0.67
5691.00,0.67
5690.00,0.67
5689.00,0.67
5688.00,0.67
5687.00,0.67
5686.00,0.67
5685.00,0.67
5684.00,0.66
5683.00,0.66
5682.00,0.66
5681.00,0.66
5680.00,0.66
5679.00,0.66
5678.00,0.66
5677.00,0.66
5676.00,0.66
5675.00,0.66
5674.00,0.66
5673.00,0.66
5672.00,0.66
5671.00,0.66
5670.00,0.66
5669.00,0.66
5668.00,0.66
5667.00,0.66
5666.00,0.66
5665.00,0.67
5664.00,0.67
5663.00,0.67
5662.00,0.67
5661.00,0.67
5660.00,0.67
5659.00,0.67
5658.00,0.67
5657.00,0.67
5656.00,0.67
5655.00,0.67
5654.00,0.68
5653.00,0.68
5652.00,0.68
5651.00,0.68
5650.00,0.68
5649.00,0.68
5648.00,0.68
5647.00,0.68
5646.00,0.68
5645.00,0.68
5644.00,0.68
5643.00,0.68
5642.00,0.69
5641.00,0.69
5640.00,0.69
5639.00,0.69
5638.00,0.69
5637.00,0.69
5636.00,0.69
5635.00,0.69
5634.00,0.69
5633.00,0.69
5632.00,0.69
5631.00,0.69
5630.00,0.69
5629.00,0.69
5628.00,0.69
5627.00,0.69
5626.00,0.70
5625.00,0.70
5624.00,0.70
5623.00,0.70
5622.00,0.70
5621.00,0.70
5620.00,0.70
5619.00,0.70
5618.00,0.70
5617.00,0.71
5616.00,0.71
5615.00,0.71
5614.00,0.71
5613.00,0.71
5612.00,0.71
5611.00,0.71
5610.00,0.71
5609.00,0.71
5608.00,0.71
5607.00,0.71
5606.00,0.71
5605.00,0.71
5604.00,0.72
5603.00,0.72
5602.00,0.72
5601.00,0.72
5600.00,0.72
5599.00,0.72
5598.00,0.72
5597.00,0.72
5596.00,0.72
5595.00,0.72
5594.00,0.72
5593.00,0.72
5592.00,0.73
5591.00,0.73
5590.00,0.73
5589.00,0.73
5588.00,0.73
5587.00,0.73
5586.00,0.73
5585.00,0.73
5584.00,0.73
5583.00,0.73
5582.00,0.73
5581.00,0.73
5580.00,0.73
5579.00,0.73
5578.00,0.73
5577.00,0.73
5576.00,0.74
5575.00,0.74
5574.00,0.74
5573.00,0.74
5572.00,0.74
5571.00,0.74
5570.00,0.74
5569.00,0.74
5568.00,0.74
5567.00,0.74
5566.00,0.74
5565.00,0.74
5564.00,0.74
5563.00,0.75
5562.00,0.75
5561.00,0.75
5560.00,0.75
5559.00,0.75
5558.00,0.75
5557.00,0.75
5556.00,0.75
5555.00,0.75
5554.00,0.75
5553.00,0.75
5552.00,0.75
5551.00,0.76
5550.00,0.76
5549.00,0.76
5548.00,0.76
5547.00,0.76
5546.00,0.76
5545.00,0.76
5544.00,0.76
5543.00,0.76
5542.00,0.76
5541.00,0.76
5540.00,0.76
5539.00,0.76
5538.00,0.76
5537.00,0.77
5536.00,0.77
5535.00,0.77
5534.00,0.77
5533.00,0.77
5532.00,0.77
5531.00,0.77
5530.00,0.77
5529.00,0.77
5528.00,0.77
5527.00,0.77
5526.00,0.77
5525.00,0.77
5524.00,0.77
5523.00,0.78
5522.00,0.78
5521.00,0.78
5520.00,0.78
5519.00,0.78
5518.00,0.78
5517.00,0.78
5516.00,0.78
5515.00,0.78
5514.00,0.78
5513.00,0.78
5512.00,0.78
5511.00,0.78
5510.00,0.78
5509.00,0.78
5508.00,0.78
5507.00,0.78
5506.00,0.78
5505.00,0.78
5504.00,0.78
5503.00,0.78
5502.00,0.78
5501.00,0.78
5500.00,0.79
5499.00,0.79
5498.00,0.79
5497.00,0.79
5496.00,0.79
5495.00,0.79
5494.00,0.79
5493.00,0.79
5492.00,0.79
5491.00,0.79
5490.00,0.79
5489.00,0.79
5488.00,0.79
5487.00,0.79
5486.00,0.79
5485.00,0.79
5484.00,0.79
5483.00,0.79
5482.00,0.79
5481.00,0.79
5480.00,0.79
5479.00,0.79
5478.00,0.79
5477.00,0.79
5476.00,0.79
5475.00,0.79
5474.00,0.79
5473.00,0.80
5472.00,0.80
5471.00,0.80
5470.00,0.80
5469.00,0.80
5468.00,0.80
5467.00,0.80
5466.00,0.80
5465.00,0.80
5464.00,0.80
5463.00,0.80
5462.00,0.80
5461.00,0.80
5460.00,0.81
5459.00,0.81
5458.00,0.81
5457.00,0.81
5456.00,0.81
5455.00,0.81
5454.00,0.81
5453.00,0.81
5452.00,0.81
5451.00,0.81
5450.00,0.81
5449.00,0.81
5448.00,0.81
5447.00,0.81
5446.00,0.81
5445.00,0.81
5444.00,0.81
5443.00,0.81
5442.00,0.81
5441.00,0.81
5440.00,0.81
5439.00,0.81
5438.00,0.81
5437.00,0.81
5436.00,0.81
5435.00,0.81
5434.00,0.81
5433.00,0.81
5432.00,0.81
5431.00,0.81
5430.00,0.81
5429.00,0.81
5428.00,0.81
5427.00,0.81
5426.00,0.81
5425.00,0.81
5424.00,0.81
5423.00,0.81
5422.00,0.81
5421.00,0.81
5420.00,0.81
5419.00,0.81
5418.00,0.81
5417.00,0.81
5416.00,0.81
5415.00,0.81
5414.00,0.81
5413.00,0.81
5412.00,0.81
5411.00,0.81
5410.00,0.81
5409.00,0.81
5408.00,0.81
5407.00,0.81
5406.00,0.81
5405.00,0.81
5404.00,0.81
5403.00,0.81
5402.00,0.80
5401.00,0.80
5400.00,0.80
5399.00,0.80
5398.00,0.80
5397.00,0.80
5396.00,0.80
5395.00,0.80
5394.00,0.80
5393.00,0.80
5392.00,0.79
5391.00,0.79
5390.00,0.79
5389.00,0.79
5388.00,0.79
5387.00,0.79
5386.00,0.78
5385.00,0.78
5384.00,0.78
5383.00,0.78
5382.00,0.78
5381.00,0.77
5380.00,0.77
5379.00,0.77
5378.00,0.77
5377.00,0.76
5376.00,0.76
5375.00,0.76
5374.00,0.76
5373.00,0.75
5372.00,0.75
5371.00,0.75
5370.00,0.75
5369.00,0.74
5368.00,0.74
5367.00,0.74
5366.00,0.73
5365.00,0.73
5364.00,0.73
5363.00,0.72
5362.00,0.72
5361.00,0.72
5360.00,0.71
5359.00,0.71
5358.00,0.70
5357.00,0.70
5356.00,0.69
5355.00,0.69
5354.00,0.68
5353.00,0.68
5352.00,0.68
5351.00,0.67
5350.00,0.67
5349.00,0.66
5348.00,0.65
5347.00,0.65
5346.00,0.64
5345.00,0.64
5344.00,0.63
5343.00,0.63
5342.00,0.62
5341.00,0.62
5340.00,0.61
5339.00,0.61
5338.00,0.60
5337.00,0.60
5336.00,0.59
5335.00,0.59
5334.00,0.58
5333.00,0.58
5332.00,0.57
5331.00,0.57
5330.00,0.56
5329.00,0.55
5328.00,0.55
5327.00,0.55
5326.00,0.54
5325.00,0.54
5324.00,0.53
5323.00,0.53
5322.00,0.52
5321.00,0.52
5320.00,0.51
5319.00,0.51
5318.00,0.50
5317.00,0.50
5316.00,0.50
5315.00,0.49
5314.00,0.49
5313.00,0.49
5312.00,0.48
5311.00,0.48
5310.00,0.48
5309.00,0.47
5308.00,0.47
5307.00,0.47
5306.00,0.46
5305.00,0.46
5304.00,0.46
5303.00,0.46
5302.00,0.45
5301.00,0.45
5300.00,0.45
5299.00,0.45
5298.00,0.45
5297.00,0.45
5296.00,0.44
5295.00,0.44
5294.00,0.44
5293.00,0.44
5292.00,0.44
5291.00,0.44
5290.00,0.44
5289.00,0.44
5288.00,0.44
5287.00,0.44
5286.00,0.44
5285.00,0.44
5284.00,0.44
5283.00,0.44
5282.00,0.44
5281.00,0.43
5280.00,0.43
5279.00,0.43
5278.00,0.43
5277.00,0.43
5276.00,0.44
5275.00,0.44
5274.00,0.44
5273.00,0.44
5272.00,0.44
5271.00,0.44
5270.00,0.43
5269.00,0.43
5268.00,0.43
5267.00,0.43
5266.00,0.43
5265.00,0.43
5264.00,0.43
5263.00,0.43
5262.00,0.43
5261.00,0.43
5260.00,0.43
5259.00,0.43
5258.00,0.43
5257.00,0.43
5256.00,0.43
5255.00,0.43
5254.00,0.43
5253.00,0.43
5252.00,0.43
5251.00,0.43
5250.00,0.43
5249.00,0.43
5248.00,0.43
5247.00,0.43
5246.00,0.43
5245.00,0.43
5244.00,0.43
5243.00,0.43
5242.00,0.43
5241.00,0.43
5240.00,0.43
5239.00,0.43
5238.00,0.43
5237.00,0.43
5236.00,0.43
5235.00,0.43
5234.00,0.43
5233.00,0.43
5232.00,0.43
5231.00,0.43
5230.00,0.43
5229.00,0.43
5228.00,0.43
5227.00,0.43
5226.00,0.43
5225.00,0.43
5224.00,0.43
5223.00,0.43
5222.00,0.43
5221.00,0.43
5220.00,0.43
5219.00,0.43
5218.00,0.43
5217.00,0.43
5216.00,0.43
5215.00,0.43
5214.00,0.44
5213.00,0.44
5212.00,0.44
5211.00,0.44
5210.00,0.44
5209.00,0.44
5208.00,0.44
5207.00,0.44
5206.00,0.44
5205.00,0.44
5204.00,0.44
5203.00,0.44
5202.00,0.44
5201.00,0.44
5200.00,0.44
5199.00,0.44
5198.00,0.44
5197.00,0.44
5196.00,0.44
5195.00,0.44
5194.00,0.44
5193.00,0.44
5192.00,0.44
5191.00,0.44
5190.00,0.44
5189.00,0.45
5188.00,0.45
5187.00,0.45
5186.00,0.45
5185.00,0.45
5184.00,0.45
5183.00,0.45
5182.00,0.45
5181.00,0.45
5180.00,0.45
5179.00,0.45
5178.00,0.45
5177.00,0.45
5176.00,0.45
5175.00,0.45
5174.00,0.45
5173.00,0.45
5172.00,0.45
5171.00,0.45
5170.00,0.45
5169.00,0.45
5168.00,0.45
5167.00,0.45
5166.00,0.45
5165.00,0.45
5164.00,0.45
5163.00,0.45
5162.00,0.45
5161.00,0.45
5160.00,0.45
5159.00,0.45
5158.00,0.45
5157.00,0.45
5156.00,0.45
5155.00,0.45
5154.00,0.45
5153.00,0.45
5152.00,0.45
5151.00,0.45
5150.00,0.45
5149.00,0.45
5148.00,0.45
5147.00,0.45
5146.00,0.45
5145.00,0.45
5144.00,0.46
5143.00,0.46
5142.00,0.46
5141.00,0.46
5140.00,0.46
5139.00,0.46
5138.00,0.46
5137.00,0.46
5136.00,0.46
5135.00,0.46
5134.00,0.46
5133.00,0.46
5132.00,0.46
5131.00,0.46
5130.00,0.46
5129.00,0.46
5128.00,0.46
5127.00,0.46
5126.00,0.46
5125.00,0.46
5124.00,0.46
5123.00,0.46
5122.00,0.46
5121.00,0.46
5120.00,0.46
5119.00,0.46
5118.00,0.46
5117.00,0.46
5116.00,0.46
5115.00,0.46
5114.00,0.46
5113.00,0.46
5112.00,0.46
5111.00,0.46
5110.00,0.46
5109.00,0.46
5108.00,0.46
5107.00,0.46
5106.00,0.46
5105.00,0.46
5104.00,0.46
5103.00,0.46
5102.00,0.46
5101.00,0.47
5100.00,0.47
5099.00,0.47
5098.00,0.47
5097.00,0.47
5096.00,0.47
5095.00,0.47
5094.00,0.47
5093.00,0.47
5092.00,0.47
5091.00,0.47
5090.00,0.47
5089.00,0.47
5088.00,0.47
5087.00,0.47
5086.00,0.47
5085.00,0.47
5084.00,0.47
5083.00,0.47
5082.00,0.47
5081.00,0.47
5080.00,0.47
5079.00,0.47
5078.00,0.47
5077.00,0.47
5076.00,0.47
5075.00,0.47
5074.00,0.47
5073.00,0.47
5072.00,0.47
5071.00,0.47
5070.00,0.47
5069.00,0.47
5068.00,0.47
5067.00,0.48
5066.00,0.48
5065.00,0.48
5064.00,0.48
5063.00,0.48
5062.00,0.48
5061.00,0.48
5060.00,0.48
5059.00,0.48
5058.00,0.48
5057.00,0.48
5056.00,0.48
5055.00,0.48
5054.00,0.48
5053.00,0.48
5052.00,0.48
5051.00,0.48
5050.00,0.48
5049.00,0.48
5048.00,0.48
5047.00,0.48
5046.00,0.48
5045.00,0.48
5044.00,0.48
5043.00,0.48
5042.00,0.48
5041.00,0.48
5040.00,0.48
5039.00,0.48
5038.00,0.48
5037.00,0.48
5036.00,0.48
5035.00,0.48
5034.00,0.48
5033.00,0.48
5032.00,0.48
5031.00,0.48
5030.00,0.48
5029.00,0.48
5028.00,0.48
5027.00,0.48
5026.00,0.48
5025.00,0.48
5024.00,0.48
5023.00,0.49
5022.00,0.49
5021.00,0.49
5020.00,0.49
5019.00,0.49
5018.00,0.49
5017.00,0.49
5016.00,0.49
5015.00,0.49
5014.00,0.49
5013.00,0.49
5012.00,0.49
5011.00,0.49
5010.00,0.49
5009.00,0.49
5008.00,0.49
5007.00,0.49
5006.00,0.49
5005.00,0.49
5004.00,0.50
5003.00,0.50
5002.00,0.50
5001.00,0.50
5000.00,0.50
4999.00,0.50
4998.00,0.50
4997.00,0.50
4996.00,0.50
4995.00,0.50
4994.00,0.50
4993.00,0.50
4992.00,0.50
4991.00,0.50
4990.00,0.50
4989.00,0.50
4988.00,0.50
4987.00,0.50
4986.00,0.50
4985.00,0.50
4984.00,0.50
4983.00,0.50
4982.00,0.50
4981.00,0.50
4980.00,0.50
4979.00,0.50
4978.00,0.50
4977.00,0.50
4976.00,0.50
4975.00,0.50
4974.00,0.50
4973.00,0.50
4972.00,0.50
4971.00,0.50
4970.00,0.50
4969.00,0.50
4968.00,0.51
4967.00,0.51
4966.00,0.51
4965.00,0.51
4964.00,0.51
4963.00,0.51
4962.00,0.51
4961.00,0.51
4960.00,0.51
4959.00,0.51
4958.00,0.51
4957.00,0.51
4956.00,0.51
4955.00,0.51
4954.00,0.51
4953.00,0.51
4952.00,0.51
4951.00,0.51
4950.00,0.51
4949.00,0.51
4948.00,0.51
4947.00,0.51
4946.00,0.51
4945.00,0.51
4944.00,0.51
4943.00,0.51
4942.00,0.51
4941.00,0.51
4940.00,0.51
4939.00,0.51
4938.00,0.52
4937.00,0.52
4936.00,0.52
4935.00,0.52
4934.00,0.52
4933.00,0.52
4932.00,0.52
4931.00,0.52
4930.00,0.52
4929.00,0.52
4928.00,0.52
4927.00,0.52
4926.00,0.52
4925.00,0.52
4924.00,0.52
4923.00,0.52
4922.00,0.53
4921.00,0.53
4920.00,0.53
4919.00,0.53
4918.00,0.53
4917.00,0.53
4916.00,0.53
4915.00,0.53
4914.00,0.53
4913.00,0.53
4912.00,0.53
4911.00,0.53
4910.00,0.53
4909.00,0.53
4908.00,0.53
4907.00,0.53
4906.00,0.53
4905.00,0.53
4904.00,0.53
4903.00,0.53
4902.00,0.53
4901.00,0.53
4900.00,0.53
4899.00,0.54
4898.00,0.54
4897.00,0.54
4896.00,0.54
4895.00,0.54
4894.00,0.54
4893.00,0.54
4892.00,0.54
4891.00,0.54
4890.00,0.54
4889.00,0.54
4888.00,0.54
4887.00,0.54
4886.00,0.54
4885.00,0.54
4884.00,0.54
4883.00,0.54
4882.00,0.54
4881.00,0.54
4880.00,0.54
4879.00,0.54
4878.00,0.54
4877.00,0.54
4876.00,0.54
4875.00,0.54
4874.00,0.54
4873.00,0.54
4872.00,0.54
4871.00,0.55
4870.00,0.55
4869.00,0.55
4868.00,0.55
4867.00,0.55
4866.00,0.55
4865.00,0.55
4864.00,0.55
4863.00,0.55
4862.00,0.55
4861.00,0.55
4860.00,0.55
4859.00,0.55
4858.00,0.55
4857.00,0.55
4856.00,0.55
4855.00,0.55
4854.00,0.55
4853.00,0.55
4852.00,0.55
4851.00,0.55
4850.00,0.55
4849.00,0.55
4848.00,0.55
4847.00,0.55
4846.00,0.55
4845.00,0.55
4844.00,0.55
4843.00,0.55
4842.00,0.55
4841.00,0.55
4840.00,0.55
4839.00,0.55
4838.00,0.55
4837.00,0.55
4836.00,0.55
4835.00,0.55
4834.00,0.55
4833.00,0.55
4832.00,0.55
4831.00,0.55
4830.00,0.56
4829.00,0.56
4828.00,0.56
4827.00,0.56
4826.00,0.56
4825.00,0.56
4824.00,0.56
4823.00,0.56
4822.00,0.56
4821.00,0.56
4820.00,0.56
4819.00,0.56
4818.00,0.56
4817.00,0.56
4816.00,0.56
4815.00,0.56
4814.00,0.56
4813.00,0.56
4812.00,0.56
4811.00,0.57
4810.00,0.57
4809.00,0.57
4808.00,0.57
4807.00,0.57
4806.00,0.57
4805.00,0.57
4804.00,0.57
4803.00,0.57
4802.00,0.57
4801.00,0.57
4800.00,0.57
4799.00,0.57
4798.00,0.57
4797.00,0.57
4796.00,0.58
4795.00,0.58
4794.00,0.58
4793.00,0.58
4792.00,0.58
4791.00,0.58
4790.00,0.58
4789.00,0.58
4788.00,0.58
4787.00,0.59
4786.00,0.59
4785.00,0.59
4784.00,0.59
4783.00,0.59
4782.00,0.59
4781.00,0.59
4780.00,0.59
4779.00,0.59
4778.00,0.59
4777.00,0.59
4776.00,0.59
4775.00,0.59
4774.00,0.59
4773.00,0.59
4772.00,0.59
4771.00,0.59
4770.00,0.60
4769.00,0.60
4768.00,0.60
4767.00,0.60
4766.00,0.60
4765.00,0.60
4764.00,0.60
4763.00,0.60
4762.00,0.60
4761.00,0.60
4760.00,0.60
4759.00,0.60
4758.00,0.60
4757.00,0.60
4756.00,0.60
4755.00,0.60
4754.00,0.60
4753.00,0.60
4752.00,0.60
4751.00,0.60
4750.00,0.60
4749.00,0.60
4748.00,0.60
4747.00,0.60
4746.00,0.60
4745.00,0.60
4744.00,0.60
4743.00,0.60
4742.00,0.61
4741.00,0.61
4740.00,0.61
4739.00,0.61
4738.00,0.61
4737.00,0.61
4736.00,0.61
4735.00,0.61
4734.00,0.61
4733.00,0.61
4732.00,0.61
4731.00,0.61
4730.00,0.61
4729.00,0.61
4728.00,0.61
4727.00,0.61
4726.00,0.61
4725.00,0.62
4724.00,0.62
4723.00,0.62
4722.00,0.62
4721.00,0.62
4720.00,0.62
4719.00,0.62
4718.00,0.62
4717.00,0.62
4716.00,0.62
4715.00,0.62
4714.00,0.63
4713.00,0.63
4712.00,0.63
4711.00,0.63
4710.00,0.63
4709.00,0.63
4708.00,0.63
4707.00,0.63
4706.00,0.63
4705.00,0.63
4704.00,0.63
4703.00,0.63
4702.00,0.63
4701.00,0.63
4700.00,0.63
4699.00,0.63
4698.00,0.63
4697.00,0.63
4696.00,0.63
4695.00,0.63
4694.00,0.64
4693.00,0.64
4692.00,0.64
4691.00,0.64
4690.00,0.64
4689.00,0.64
4688.00,0.64
4687.00,0.64
4686.00,0.64
4685.00,0.64
4684.00,0.64
4683.00,0.64
4682.00,0.64
4681.00,0.64
4680.00,0.64
4679.00,0.64
4678.00,0.64
4677.00,0.65
4676.00,0.65
4675.00,0.65
4674.00,0.65
4673.00,0.65
4672.00,0.65
4671.00,0.65
4670.00,0.65
4669.00,0.65
4668.00,0.65
4667.00,0.66
4666.00,0.66
4665.00,0.66
4664.00,0.66
4663.00,0.66
4662.00,0.66
4661.00,0.66
4660.00,0.66
4659.00,0.66
4658.00,0.66
4657.00,0.66
4656.00,0.66
4655.00,0.66
4654.00,0.67
4653.00,0.67
4652.00,0.67
4651.00,0.67
4650.00,0.67
4649.00,0.67
4648.00,0.67
4647.00,0.67
4646.00,0.67
4645.00,0.67
4644.00,0.67
4643.00,0.67
4642.00,0.67
4641.00,0.67
4640.00,0.67
4639.00,0.67
4638.00,0.67
4637.00,0.67
4636.00,0.67
4635.00,0.67
4634.00,0.67
4633.00,0.67
4632.00,0.68
4631.00,0.68
4630.00,0.68
4629.00,0.68
4628.00,0.68
4627.00,0.68
4626.00,0.68
4625.00,0.68
4624.00,0.68
4623.00,0.68
4622.00,0.68
4621.00,0.68
4620.00,0.68
4619.00,0.69
4618.00,0.69
4617.00,0.69
4616.00,0.69
4615.00,0.69
4614.00,0.69
4613.00,0.69
4612.00,0.69
4611.00,0.69
4610.00,0.69
4609.00,0.69
4608.00,0.69
4607.00,0.69
4606.00,0.69
4605.00,0.69
4604.00,0.69
4603.00,0.69
4602.00,0.69
4601.00,0.69
4600.00,0.69
4599.00,0.70
4598.00,0.70
4597.00,0.70
4596.00,0.70
4595.00,0.70
4594.00,0.70
4593.00,0.70
4592.00,0.70
4591.00,0.70
4590.00,0.70
4589.00,0.70
4588.00,0.70
4587.00,0.70
4586.00,0.70
4585.00,0.70
4584.00,0.70
4583.00,0.70
4582.00,0.70
4581.00,0.70
4580.00,0.71
4579.00,0.71
4578.00,0.71
4577.00,0.71
4576.00,0.71
4575.00,0.71
4574.00,0.71
4573.00,0.71
4572.00,0.71
4571.00,0.71
4570.00,0.71
4569.00,0.71
4568.00,0.71
4567.00,0.71
4566.00,0.71
4565.00,0.71
4564.00,0.71
4563.00,0.71
4562.00,0.71
4561.00,0.71
4560.00,0.71
4559.00,0.71
4558.00,0.71
4557.00,0.71
4556.00,0.72
4555.00,0.72
4554.00,0.72
4553.00,0.72
4552.00,0.72
4551.00,0.72
4550.00,0.72
4549.00,0.72
4548.00,0.72
4547.00,0.72
4546.00,0.72
4545.00,0.72
4544.00,0.72
4543.00,0.72
4542.00,0.72
4541.00,0.72
4540.00,0.72
4539.00,0.72
4538.00,0.72
4537.00,0.72
4536.00,0.72
4535.00,0.72
4534.00,0.72
4533.00,0.72
4532.00,0.72
4531.00,0.73
4530.00,0.73
4529.00,0.73
4528.00,0.73
4527.00,0.73
4526.00,0.73
4525.00,0.73
4524.00,0.73
4523.00,0.73
4522.00,0.73
4521.00,0.73
4520.00,0.73
4519.00,0.73
4518.00,0.73
4517.00,0.73
4516.00,0.73
4515.00,0.73
4514.00,0.73
4513.00,0.73
4512.00,0.73
4511.00,0.73
4510.00,0.73
4509.00,0.73
4508.00,0.73
4507.00,0.73
4506.00,0.73
4505.00,0.73
4504.00,0.73
4503.00,0.73
4502.00,0.73
4501.00,0.73
4500.00,0.73
4499.00,0.73
4498.00,0.73
4497.00,0.73
4496.00,0.73
4495.00,0.73
4494.00,0.73
4493.00,0.73
4492.00,0.73
4491.00,0.73
4490.00,0.73
4489.00,0.73
4488.00,0.73
4487.00,0.73
4486.00,0.73
4485.00,0.73
4484.00,0.73
4483.00,0.73
4482.00,0.73
4481.00,0.73
4480.00,0.73
4479.00,0.73
4478.00,0.72
4477.00,0.72
4476.00,0.72
4475.00,0.72
4474.00,0.72
4473.00,0.72
4472.00,0.72
4471.00,0.72
4470.00,0.72
4469.00,0.72
4468.00,0.72
4467.00,0.71
4466.00,0.71
4465.00,0.71
4464.00,0.71
4463.00,0.71
4462.00,0.71
4461.00,0.71
4460.00,0.71
4459.00,0.71
4458.00,0.70
4457.00,0.70
4456.00,0.70
4455.00,0.70
4454.00,0.70
4453.00,0.70
4452.00,0.70
4451.00,0.70
4450.00,0.70
4449.00,0.69
4448.00,0.69
4447.00,0.69
4446.00,0.69
4445.00,0.69
4444.00,0.68
4443.00,0.68
4442.00,0.68
4441.00,0.68
4440.00,0.68
4439.00,0.67
4438.00,0.67
4437.00,0.67
4436.00,0.67
4435.00,0.67
4434.00,0.67
4433.00,0.66
4432.00,0.66
4431.00,0.66
4430.00,0.66
4429.00,0.66
4428.00,0.66
4427.00,0.66
4426.00,0.66
4425.00,0.66
4424.00,0.66
4423.00,0.66
4422.00,0.66
4421.00,0.66
4420.00,0.66
4419.00,0.66
4418.00,0.66
4417.00,0.66
4416.00,0.66
4415.00,0.66
4414.00,0.66
4413.00,0.66
4412.00,0.66
4411.00,0.66
4410.00,0.66
4409.00,0.66
4408.00,0.66
4407.00,0.66
4406.00,0.66
4405.00,0.66
4404.00,0.66
4403.00,0.66
4402.00,0.66
4401.00,0.66
4400.00,0.66
4399.00,0.66
4398.00,0.67
4397.00,0.67
4396.00,0.67
4395.00,0.67
4394.00,0.67
4393.00,0.67
4392.00,0.67
4391.00,0.67
4390.00,0.67
4389.00,0.67
4388.00,0.67
4387.00,0.67
4386.00,0.67
4385.00,0.67
4384.00,0.67
4383.00,0.67
4382.00,0.68
4381.00,0.68
4380.00,0.68
4379.00,0.68
4378.00,0.68
4377.00,0.68
4376.00,0.68
4375.00,0.68
4374.00,0.68
4373.00,0.68
4372.00,0.68
4371.00,0.68
4370.00,0.68
4369.00,0.68
4368.00,0.68
4367.00,0.68
4366.00,0.68
4365.00,0.68
4364.00,0.68
4363.00,0.68
4362.00,0.68
4361.00,0.68
4360.00,0.68
4359.00,0.68
4358.00,0.68
4357.00,0.68
4356.00,0.68
4355.00,0.68
4354.00,0.68
4353.00,0.68
4352.00,0.68
4351.00,0.68
4350.00,0.68
4349.00,0.68
4348.00,0.68
4347.00,0.68
4346.00,0.68
4345.00,0.68
4344.00,0.68
4343.00,0.68
4342.00,0.68
4341.00,0.68
4340.00,0.68
4339.00,0.68
4338.00,0.68
4337.00,0.68
4336.00,0.68
4335.00,0.68
4334.00,0.68
4333.00,0.68
4332.00,0.68
4331.00,0.68
4330.00,0.68
4329.00,0.68
4328.00,0.68
4327.00,0.68
4326.00,0.68
4325.00,0.68
4324.00,0.68
4323.00,0.69
4322.00,0.69
4321.00,0.69
4320.00,0.69
4319.00,0.69
4318.00,0.69
4317.00,0.69
4316.00,0.69
4315.00,0.69
4314.00,0.69
4313.00,0.69
4312.00,0.70
4311.00,0.70
4310.00,0.70
4309.00,0.70
4308.00,0.70
4307.00,0.70
4306.00,0.70
4305.00,0.70
4304.00,0.70
4303.00,0.70
4302.00,0.70
4301.00,0.70
4300.00,0.70
4299.00,0.70
4298.00,0.70
4297.00,0.71
4296.00,0.71
4295.00,0.71
4294.00,0.71
4293.00,0.71
4292.00,0.71
4291.00,0.71
4290.00,0.71
4289.00,0.71
4288.00,0.71
4287.00,0.71
4286.00,0.71
4285.00,0.71
4284.00,0.71
4283.00,0.71
4282.00,0.71
4281.00,0.71
4280.00,0.71
4279.00,0.71
4278.00,0.71
4277.00,0.71
4276.00,0.71
4275.00,0.71
4274.00,0.71
4273.00,0.71
4272.00,0.71
4271.00,0.71
4270.00,0.71
4269.00,0.71
4268.00,0.72
4267.00,0.72
4266.00,0.72
4265.00,0.72
4264.00,0.72
4263.00,0.72
4262.00,0.72
4261.00,0.72
4260.00,0.72
4259.00,0.72
4258.00,0.72
4257.00,0.72
4256.00,0.72
4255.00,0.72
4254.00,0.72
4253.00,0.72
4252.00,0.72
4251.00,0.72
4250.00,0.72
4249.00,0.72
4248.00,0.72
4247.00,0.72
4246.00,0.72
4245.00,0.72
4244.00,0.72
4243.00,0.72
4242.00,0.72
4241.00,0.72
4240.00,0.72
4239.00,0.73
4238.00,0.73
4237.00,0.73
4236.00,0.73
4235.00,0.73
4234.00,0.73
4233.00,0.73
4232.00,0.73
4231.00,0.73
4230.00,0.73
4229.00,0.73
4228.00,0.73
4227.00,0.73
4226.00,0.73
4225.00,0.73
4224.00,0.73
4223.00,0.73
4222.00,0.73
4221.00,0.73
4220.00,0.74
4219.00,0.74
4218.00,0.74
4217.00,0.74
4216.00,0.74
4215.00,0.74
4214.00,0.74
4213.00,0.74
4212.00,0.74
4211.00,0.74
4210.00,0.74
4209.00,0.74
4208.00,0.74
4207.00,0.74
4206.00,0.74
4205.00,0.74
4204.00,0.74
4203.00,0.74
4202.00,0.74
4201.00,0.74
4200.00,0.74
4199.00,0.74
4198.00,0.74
4197.00,0.74
4196.00,0.74
4195.00,0.74
4194.00,0.74
4193.00,0.74
4192.00,0.74
4191.00,0.74
4190.00,0.74
4189.00,0.74
4188.00,0.74
4187.00,0.74
4186.00,0.74
4185.00,0.74
4184.00,0.74
4183.00,0.75
4182.00,0.75
4181.00,0.75
4180.00,0.75
4179.00,0.75
4178.00,0.75
4177.00,0.75
4176.00,0.75
4175.00,0.75
4174.00,0.75
4173.00,0.75
4172.00,0.75
4171.00,0.75
4170.00,0.75
4169.00,0.75
4168.00,0.75
4167.00,0.75
4166.00,0.75
4165.00,0.75
4164.00,0.75
4163.00,0.75
4162.00,0.75
4161.00,0.75
4160.00,0.75
4159.00,0.75
4158.00,0.75
4157.00,0.75
4156.00,0.75
4155.00,0.75
4154.00,0.75
4153.00,0.75
4152.00,0.75
4151.00,0.75
4150.00,0.75
4149.00,0.75
4148.00,0.75
4147.00,0.76
4146.00,0.76
4145.00,0.76
4144.00,0.76
4143.00,0.76
4142.00,0.76
4141.00,0.76
4140.00,0.76
4139.00,0.76
4138.00,0.76
4137.00,0.76
4136.00,0.76
4135.00,0.76
4134.00,0.76
4133.00,0.76
4132.00,0.76
4131.00,0.76
4130.00,0.76
4129.00,0.76
4128.00,0.76
4127.00,0.76
4126.00,0.76
4125.00,0.76
4124.00,0.76
4123.00,0.76
4122.00,0.76
4121.00,0.76
4120.00,0.76
4119.00,0.76
4118.00,0.77
4117.00,0.77
4116.00,0.77
4115.00,0.77
4114.00,0.77
4113.00,0.77
4112.00,0.77
4111.00,0.77
4110.00,0.77
4109.00,0.77
4108.00,0.77
4107.00,0.77
4106.00,0.77
4105.00,0.77
4104.00,0.77
4103.00,0.77
4102.00,0.77
4101.00,0.77
4100.00,0.77
4099.00,0.77
4098.00,0.77
4097.00,0.77
4096.00,0.77
4095.00,0.77
4094.00,0.77
4093.00,0.77
4092.00,0.77
4091.00,0.77
4090.00,0.77
4089.00,0.77
4088.00,0.77
4087.00,0.77
4086.00,0.77
4085.00,0.77
4084.00,0.77
4083.00,0.77
4082.00,0.77
4081.00,0.77
4080.00,0.77
4079.00,0.78
4078.00,0.78
4077.00,0.78
4076.00,0.78
4075.00,0.78
4074.00,0.78
4073.00,0.78
4072.00,0.78
4071.00,0.78
4070.00,0.78
4069.00,0.78
4068.00,0.78
4067.00,0.78
4066.00,0.78
4065.00,0.79
4064.00,0.79
4063.00,0.79
4062.00,0.79
4061.00,0.79
4060.00,0.79
4059.00,0.79
4058.00,0.79
4057.00,0.79
4056.00,0.79
4055.00,0.79
4054.00,0.79
4053.00,0.78
4052.00,0.78
4051.00,0.78
4050.00,0.78
4049.00,0.78
4048.00,0.78
4047.00,0.78
4046.00,0.78
4045.00,0.78
4044.00,0.78
4043.00,0.78
4042.00,0.78
4041.00,0.78
4040.00,0.78
4039.00,0.78
4038.00,0.78
4037.00,0.78
4036.00,0.78
4035.00,0.78
4034.00,0.78
4033.00,0.78
4032.00,0.78
4031.00,0.78
4030.00,0.78
4029.00,0.79
4028.00,0.79
4027.00,0.79
4026.00,0.79
4025.00,0.79
4024.00,0.79
4023.00,0.79
4022.00,0.79
4021.00,0.80
4020.00,0.80
4019.00,0.80
4018.00,0.80
4017.00,0.80
4016.00,0.80
4015.00,0.81
4014.00,0.81
4013.00,0.81
4012.00,0.81
4011.00,0.81
4010.00,0.81
4009.00,0.81
4008.00,0.81
4007.00,0.81
4006.00,0.81
4005.00,0.81
4004.00,0.81
4003.00,0.81
4002.00,0.81
4001.00,0.81
4000.00,0.81
