创建为新数据集,样品 318 用户 Administrator 日期 星期日, 七月 22 2018
cm-1,%T
10000.00,0.74
9999.00,0.74
9998.00,0.74
9997.00,0.74
9996.00,0.75
9995.00,0.75
9994.00,0.75
9993.00,0.75
9992.00,0.76
9991.00,0.76
9990.00,0.76
9989.00,0.76
9988.00,0.76
9987.00,0.76
9986.00,0.76
9985.00,0.76
9984.00,0.76
9983.00,0.76
9982.00,0.76
9981.00,0.76
9980.00,0.76
9979.00,0.76
9978.00,0.76
9977.00,0.76
9976.00,0.76
9975.00,0.76
9974.00,0.75
9973.00,0.75
9972.00,0.75
9971.00,0.75
9970.00,0.75
9969.00,0.75
9968.00,0.75
9967.00,0.75
9966.00,0.75
9965.00,0.75
9964.00,0.75
9963.00,0.75
9962.00,0.75
9961.00,0.75
9960.00,0.75
9959.00,0.75
9958.00,0.75
9957.00,0.74
9956.00,0.74
9955.00,0.74
9954.00,0.74
9953.00,0.74
9952.00,0.74
9951.00,0.73
9950.00,0.73
9949.00,0.73
9948.00,0.73
9947.00,0.73
9946.00,0.73
9945.00,0.73
9944.00,0.73
9943.00,0.73
9942.00,0.73
9941.00,0.73
9940.00,0.74
9939.00,0.74
9938.00,0.74
9937.00,0.74
9936.00,0.75
9935.00,0.75
9934.00,0.75
9933.00,0.75
9932.00,0.75
9931.00,0.76
9930.00,0.76
9929.00,0.76
9928.00,0.76
9927.00,0.76
9926.00,0.75
9925.00,0.75
9924.00,0.75
9923.00,0.75
9922.00,0.75
9921.00,0.75
9920.00,0.75
9919.00,0.75
9918.00,0.75
9917.00,0.75
9916.00,0.75
9915.00,0.75
9914.00,0.75
9913.00,0.75
9912.00,0.75
9911.00,0.75
9910.00,0.75
9909.00,0.75
9908.00,0.75
9907.00,0.75
9906.00,0.75
9905.00,0.75
9904.00,0.75
9903.00,0.75
9902.00,0.75
9901.00,0.75
9900.00,0.75
9899.00,0.75
9898.00,0.75
9897.00,0.75
9896.00,0.75
9895.00,0.75
9894.00,0.75
9893.00,0.75
9892.00,0.75
9891.00,0.75
9890.00,0.75
9889.00,0.74
9888.00,0.74
9887.00,0.74
9886.00,0.74
9885.00,0.73
9884.00,0.73
9883.00,0.73
9882.00,0.72
9881.00,0.72
9880.00,0.71
9879.00,0.71
9878.00,0.71
9877.00,0.70
9876.00,0.70
9875.00,0.70
9874.00,0.69
9873.00,0.69
9872.00,0.69
9871.00,0.69
9870.00,0.69
9869.00,0.70
9868.00,0.70
9867.00,0.70
9866.00,0.70
9865.00,0.71
9864.00,0.71
9863.00,0.72
9862.00,0.72
9861.00,0.72
9860.00,0.73
9859.00,0.73
9858.00,0.73
9857.00,0.74
9856.00,0.74
9855.00,0.74
9854.00,0.74
9853.00,0.74
9852.00,0.74
9851.00,0.73
9850.00,0.73
9849.00,0.73
9848.00,0.73
9847.00,0.72
9846.00,0.72
9845.00,0.72
9844.00,0.71
9843.00,0.71
9842.00,0.71
9841.00,0.70
9840.00,0.70
9839.00,0.70
9838.00,0.70
9837.00,0.70
9836.00,0.69
9835.00,0.69
9834.00,0.69
9833.00,0.69
9832.00,0.69
9831.00,0.70
9830.00,0.70
9829.00,0.70
9828.00,0.70
9827.00,0.70
9826.00,0.71
9825.00,0.71
9824.00,0.71
9823.00,0.71
9822.00,0.72
9821.00,0.72
9820.00,0.72
9819.00,0.72
9818.00,0.73
9817.00,0.73
9816.00,0.73
9815.00,0.73
9814.00,0.74
9813.00,0.74
9812.00,0.74
9811.00,0.74
9810.00,0.74
9809.00,0.75
9808.00,0.75
9807.00,0.75
9806.00,0.75
9805.00,0.75
9804.00,0.76
9803.00,0.76
9802.00,0.76
9801.00,0.76
9800.00,0.76
9799.00,0.76
9798.00,0.76
9797.00,0.76
9796.00,0.76
9795.00,0.76
9794.00,0.76
9793.00,0.76
9792.00,0.76
9791.00,0.75
9790.00,0.75
9789.00,0.75
9788.00,0.74
9787.00,0.74
9786.00,0.74
9785.00,0.73
9784.00,0.73
9783.00,0.73
9782.00,0.72
9781.00,0.72
9780.00,0.72
9779.00,0.72
9778.00,0.72
9777.00,0.72
9776.00,0.72
9775.00,0.72
9774.00,0.72
9773.00,0.72
9772.00,0.72
9771.00,0.72
9770.00,0.72
9769.00,0.72
9768.00,0.72
9767.00,0.72
9766.00,0.72
9765.00,0.72
9764.00,0.72
9763.00,0.71
9762.00,0.71
9761.00,0.71
9760.00,0.71
9759.00,0.71
9758.00,0.71
9757.00,0.71
9756.00,0.71
9755.00,0.71
9754.00,0.71
9753.00,0.71
9752.00,0.71
9751.00,0.71
9750.00,0.71
9749.00,0.72
9748.00,0.72
9747.00,0.72
9746.00,0.72
9745.00,0.72
9744.00,0.72
9743.00,0.72
9742.00,0.73
9741.00,0.73
9740.00,0.73
9739.00,0.73
9738.00,0.73
9737.00,0.73
9736.00,0.73
9735.00,0.73
9734.00,0.73
9733.00,0.73
9732.00,0.73
9731.00,0.73
9730.00,0.73
9729.00,0.73
9728.00,0.73
9727.00,0.73
9726.00,0.73
9725.00,0.73
9724.00,0.73
9723.00,0.73
9722.00,0.73
9721.00,0.73
9720.00,0.73
9719.00,0.73
9718.00,0.73
9717.00,0.74
9716.00,0.74
9715.00,0.74
9714.00,0.74
9713.00,0.74
9712.00,0.74
9711.00,0.74
9710.00,0.74
9709.00,0.74
9708.00,0.74
9707.00,0.74
9706.00,0.74
9705.00,0.74
9704.00,0.74
9703.00,0.74
9702.00,0.74
9701.00,0.74
9700.00,0.74
9699.00,0.74
9698.00,0.74
9697.00,0.74
9696.00,0.74
9695.00,0.73
9694.00,0.73
9693.00,0.73
9692.00,0.73
9691.00,0.73
9690.00,0.73
9689.00,0.73
9688.00,0.73
9687.00,0.73
9686.00,0.73
9685.00,0.73
9684.00,0.73
9683.00,0.73
9682.00,0.73
9681.00,0.73
9680.00,0.73
9679.00,0.73
9678.00,0.73
9677.00,0.73
9676.00,0.73
9675.00,0.73
9674.00,0.73
9673.00,0.73
9672.00,0.73
9671.00,0.74
9670.00,0.74
9669.00,0.74
9668.00,0.74
9667.00,0.74
9666.00,0.74
9665.00,0.74
9664.00,0.74
9663.00,0.74
9662.00,0.74
9661.00,0.74
9660.00,0.74
9659.00,0.74
9658.00,0.74
9657.00,0.74
9656.00,0.73
9655.00,0.73
9654.00,0.73
9653.00,0.73
9652.00,0.73
9651.00,0.73
9650.00,0.73
9649.00,0.73
9648.00,0.73
9647.00,0.72
9646.00,0.72
9645.00,0.72
9644.00,0.72
9643.00,0.72
9642.00,0.72
9641.00,0.72
9640.00,0.72
9639.00,0.71
9638.00,0.71
9637.00,0.71
9636.00,0.71
9635.00,0.71
9634.00,0.71
9633.00,0.71
9632.00,0.71
9631.00,0.70
9630.00,0.70
9629.00,0.70
9628.00,0.70
9627.00,0.70
9626.00,0.70
9625.00,0.70
9624.00,0.70
9623.00,0.71
9622.00,0.71
9621.00,0.71
9620.00,0.71
9619.00,0.71
9618.00,0.71
9617.00,0.71
9616.00,0.71
9615.00,0.71
9614.00,0.71
9613.00,0.71
9612.00,0.71
9611.00,0.71
9610.00,0.71
9609.00,0.71
9608.00,0.72
9607.00,0.72
9606.00,0.72
9605.00,0.72
9604.00,0.73
9603.00,0.73
9602.00,0.73
9601.00,0.74
9600.00,0.74
9599.00,0.74
9598.00,0.75
9597.00,0.75
9596.00,0.75
9595.00,0.75
9594.00,0.76
9593.00,0.76
9592.00,0.76
9591.00,0.76
9590.00,0.76
9589.00,0.76
9588.00,0.76
9587.00,0.76
9586.00,0.76
9585.00,0.76
9584.00,0.76
9583.00,0.75
9582.00,0.75
9581.00,0.75
9580.00,0.75
9579.00,0.75
9578.00,0.75
9577.00,0.75
9576.00,0.75
9575.00,0.75
9574.00,0.75
9573.00,0.74
9572.00,0.74
9571.00,0.74
9570.00,0.74
9569.00,0.74
9568.00,0.74
9567.00,0.74
9566.00,0.74
9565.00,0.74
9564.00,0.73
9563.00,0.73
9562.00,0.73
9561.00,0.73
9560.00,0.73
9559.00,0.73
9558.00,0.73
9557.00,0.73
9556.00,0.73
9555.00,0.73
9554.00,0.73
9553.00,0.73
9552.00,0.73
9551.00,0.74
9550.00,0.74
9549.00,0.74
9548.00,0.74
9547.00,0.74
9546.00,0.75
9545.00,0.75
9544.00,0.75
9543.00,0.75
9542.00,0.75
9541.00,0.75
9540.00,0.75
9539.00,0.75
9538.00,0.75
9537.00,0.75
9536.00,0.75
9535.00,0.75
9534.00,0.75
9533.00,0.75
9532.00,0.75
9531.00,0.75
9530.00,0.75
9529.00,0.75
9528.00,0.75
9527.00,0.75
9526.00,0.74
9525.00,0.74
9524.00,0.74
9523.00,0.74
9522.00,0.74
9521.00,0.74
9520.00,0.74
9519.00,0.74
9518.00,0.74
9517.00,0.74
9516.00,0.74
9515.00,0.74
9514.00,0.74
9513.00,0.74
9512.00,0.74
9511.00,0.74
9510.00,0.73
9509.00,0.73
9508.00,0.73
9507.00,0.73
9506.00,0.73
9505.00,0.73
9504.00,0.73
9503.00,0.73
9502.00,0.73
9501.00,0.73
9500.00,0.73
9499.00,0.73
9498.00,0.72
9497.00,0.72
9496.00,0.72
9495.00,0.72
9494.00,0.72
9493.00,0.72
9492.00,0.73
9491.00,0.73
9490.00,0.73
9489.00,0.73
9488.00,0.73
9487.00,0.73
9486.00,0.73
9485.00,0.73
9484.00,0.73
9483.00,0.74
9482.00,0.74
9481.00,0.74
9480.00,0.74
9479.00,0.74
9478.00,0.75
9477.00,0.75
9476.00,0.75
9475.00,0.75
9474.00,0.75
9473.00,0.75
9472.00,0.75
9471.00,0.75
9470.00,0.75
9469.00,0.75
9468.00,0.75
9467.00,0.75
9466.00,0.75
9465.00,0.74
9464.00,0.74
9463.00,0.74
9462.00,0.74
9461.00,0.73
9460.00,0.73
9459.00,0.73
9458.00,0.72
9457.00,0.72
9456.00,0.72
9455.00,0.72
9454.00,0.72
9453.00,0.72
9452.00,0.72
9451.00,0.71
9450.00,0.71
9449.00,0.71
9448.00,0.72
9447.00,0.72
9446.00,0.72
9445.00,0.72
9444.00,0.72
9443.00,0.72
9442.00,0.72
9441.00,0.72
9440.00,0.72
9439.00,0.72
9438.00,0.72
9437.00,0.72
9436.00,0.72
9435.00,0.72
9434.00,0.72
9433.00,0.72
9432.00,0.72
9431.00,0.72
9430.00,0.72
9429.00,0.72
9428.00,0.72
9427.00,0.72
9426.00,0.73
9425.00,0.73
9424.00,0.73
9423.00,0.73
9422.00,0.73
9421.00,0.73
9420.00,0.74
9419.00,0.74
9418.00,0.74
9417.00,0.74
9416.00,0.74
9415.00,0.74
9414.00,0.74
9413.00,0.74
9412.00,0.74
9411.00,0.74
9410.00,0.74
9409.00,0.74
9408.00,0.74
9407.00,0.74
9406.00,0.74
9405.00,0.74
9404.00,0.74
9403.00,0.74
9402.00,0.74
9401.00,0.73
9400.00,0.73
9399.00,0.73
9398.00,0.73
9397.00,0.73
9396.00,0.73
9395.00,0.73
9394.00,0.73
9393.00,0.73
9392.00,0.73
9391.00,0.73
9390.00,0.73
9389.00,0.73
9388.00,0.73
9387.00,0.73
9386.00,0.73
9385.00,0.74
9384.00,0.74
9383.00,0.74
9382.00,0.74
9381.00,0.74
9380.00,0.75
9379.00,0.75
9378.00,0.75
9377.00,0.75
9376.00,0.75
9375.00,0.76
9374.00,0.76
9373.00,0.76
9372.00,0.76
9371.00,0.76
9370.00,0.76
9369.00,0.76
9368.00,0.76
9367.00,0.76
9366.00,0.76
9365.00,0.76
9364.00,0.76
9363.00,0.76
9362.00,0.76
9361.00,0.76
9360.00,0.76
9359.00,0.76
9358.00,0.75
9357.00,0.75
9356.00,0.75
9355.00,0.75
9354.00,0.75
9353.00,0.75
9352.00,0.74
9351.00,0.74
9350.00,0.74
9349.00,0.74
9348.00,0.74
9347.00,0.74
9346.00,0.74
9345.00,0.74
9344.00,0.74
9343.00,0.74
9342.00,0.74
9341.00,0.74
9340.00,0.74
9339.00,0.73
9338.00,0.73
9337.00,0.73
9336.00,0.73
9335.00,0.73
9334.00,0.73
9333.00,0.72
9332.00,0.72
9331.00,0.72
9330.00,0.72
9329.00,0.72
9328.00,0.72
9327.00,0.72
9326.00,0.72
9325.00,0.72
9324.00,0.72
9323.00,0.72
9322.00,0.72
9321.00,0.72
9320.00,0.72
9319.00,0.73
9318.00,0.73
9317.00,0.73
9316.00,0.74
9315.00,0.74
9314.00,0.74
9313.00,0.74
9312.00,0.74
9311.00,0.75
9310.00,0.75
9309.00,0.75
9308.00,0.75
9307.00,0.75
9306.00,0.75
9305.00,0.75
9304.00,0.75
9303.00,0.75
9302.00,0.75
9301.00,0.74
9300.00,0.74
9299.00,0.74
9298.00,0.74
9297.00,0.74
9296.00,0.74
9295.00,0.74
9294.00,0.73
9293.00,0.73
9292.00,0.73
9291.00,0.73
9290.00,0.73
9289.00,0.73
9288.00,0.73
9287.00,0.73
9286.00,0.73
9285.00,0.73
9284.00,0.73
9283.00,0.73
9282.00,0.74
9281.00,0.74
9280.00,0.74
9279.00,0.74
9278.00,0.74
9277.00,0.75
9276.00,0.75
9275.00,0.75
9274.00,0.75
9273.00,0.75
9272.00,0.75
9271.00,0.75
9270.00,0.76
9269.00,0.76
9268.00,0.76
9267.00,0.76
9266.00,0.75
9265.00,0.75
9264.00,0.75
9263.00,0.75
9262.00,0.75
9261.00,0.75
9260.00,0.75
9259.00,0.75
9258.00,0.75
9257.00,0.75
9256.00,0.75
9255.00,0.75
9254.00,0.75
9253.00,0.75
9252.00,0.75
9251.00,0.75
9250.00,0.75
9249.00,0.75
9248.00,0.75
9247.00,0.75
9246.00,0.75
9245.00,0.74
9244.00,0.74
9243.00,0.74
9242.00,0.74
9241.00,0.74
9240.00,0.74
9239.00,0.74
9238.00,0.74
9237.00,0.74
9236.00,0.73
9235.00,0.73
9234.00,0.73
9233.00,0.73
9232.00,0.73
9231.00,0.73
9230.00,0.73
9229.00,0.73
9228.00,0.73
9227.00,0.73
9226.00,0.73
9225.00,0.73
9224.00,0.74
9223.00,0.74
9222.00,0.74
9221.00,0.74
9220.00,0.74
9219.00,0.74
9218.00,0.74
9217.00,0.74
9216.00,0.74
9215.00,0.74
9214.00,0.74
9213.00,0.74
9212.00,0.74
9211.00,0.74
9210.00,0.74
9209.00,0.74
9208.00,0.74
9207.00,0.74
9206.00,0.74
9205.00,0.73
9204.00,0.73
9203.00,0.73
9202.00,0.73
9201.00,0.73
9200.00,0.73
9199.00,0.73
9198.00,0.73
9197.00,0.73
9196.00,0.73
9195.00,0.73
9194.00,0.73
9193.00,0.73
9192.00,0.73
9191.00,0.73
9190.00,0.74
9189.00,0.74
9188.00,0.74
9187.00,0.74
9186.00,0.74
9185.00,0.75
9184.00,0.75
9183.00,0.75
9182.00,0.75
9181.00,0.75
9180.00,0.75
9179.00,0.76
9178.00,0.76
9177.00,0.76
9176.00,0.76
9175.00,0.76
9174.00,0.76
9173.00,0.76
9172.00,0.76
9171.00,0.76
9170.00,0.76
9169.00,0.76
9168.00,0.76
9167.00,0.76
9166.00,0.76
9165.00,0.76
9164.00,0.76
9163.00,0.76
9162.00,0.76
9161.00,0.76
9160.00,0.75
9159.00,0.75
9158.00,0.75
9157.00,0.75
9156.00,0.75
9155.00,0.75
9154.00,0.75
9153.00,0.74
9152.00,0.74
9151.00,0.74
9150.00,0.74
9149.00,0.74
9148.00,0.74
9147.00,0.74
9146.00,0.74
9145.00,0.74
9144.00,0.74
9143.00,0.74
9142.00,0.73
9141.00,0.73
9140.00,0.73
9139.00,0.73
9138.00,0.73
9137.00,0.73
9136.00,0.73
9135.00,0.73
9134.00,0.73
9133.00,0.73
9132.00,0.73
9131.00,0.73
9130.00,0.73
9129.00,0.73
9128.00,0.73
9127.00,0.73
9126.00,0.73
9125.00,0.73
9124.00,0.74
9123.00,0.74
9122.00,0.74
9121.00,0.74
9120.00,0.74
9119.00,0.74
9118.00,0.74
9117.00,0.74
9116.00,0.74
9115.00,0.74
9114.00,0.74
9113.00,0.74
9112.00,0.74
9111.00,0.74
9110.00,0.74
9109.00,0.74
9108.00,0.75
9107.00,0.75
9106.00,0.75
9105.00,0.75
9104.00,0.75
9103.00,0.75
9102.00,0.75
9101.00,0.75
9100.00,0.75
9099.00,0.75
9098.00,0.75
9097.00,0.75
9096.00,0.75
9095.00,0.75
9094.00,0.75
9093.00,0.75
9092.00,0.74
9091.00,0.74
9090.00,0.74
9089.00,0.74
9088.00,0.74
9087.00,0.74
9086.00,0.74
9085.00,0.74
9084.00,0.74
9083.00,0.74
9082.00,0.74
9081.00,0.74
9080.00,0.74
9079.00,0.74
9078.00,0.74
9077.00,0.74
9076.00,0.74
9075.00,0.74
9074.00,0.74
9073.00,0.74
9072.00,0.74
9071.00,0.74
9070.00,0.74
9069.00,0.74
9068.00,0.74
9067.00,0.74
9066.00,0.74
9065.00,0.73
9064.00,0.73
9063.00,0.73
9062.00,0.73
9061.00,0.73
9060.00,0.73
9059.00,0.73
9058.00,0.73
9057.00,0.73
9056.00,0.73
9055.00,0.73
9054.00,0.73
9053.00,0.73
9052.00,0.73
9051.00,0.73
9050.00,0.73
9049.00,0.74
9048.00,0.74
9047.00,0.74
9046.00,0.74
9045.00,0.74
9044.00,0.74
9043.00,0.74
9042.00,0.74
9041.00,0.74
9040.00,0.74
9039.00,0.74
9038.00,0.73
9037.00,0.73
9036.00,0.73
9035.00,0.73
9034.00,0.73
9033.00,0.73
9032.00,0.73
9031.00,0.73
9030.00,0.73
9029.00,0.73
9028.00,0.73
9027.00,0.73
9026.00,0.73
9025.00,0.73
9024.00,0.73
9023.00,0.73
9022.00,0.74
9021.00,0.74
9020.00,0.74
9019.00,0.74
9018.00,0.74
9017.00,0.74
9016.00,0.74
9015.00,0.74
9014.00,0.74
9013.00,0.74
9012.00,0.74
9011.00,0.73
9010.00,0.73
9009.00,0.73
9008.00,0.73
9007.00,0.73
9006.00,0.73
9005.00,0.73
9004.00,0.73
9003.00,0.73
9002.00,0.73
9001.00,0.73
9000.00,0.73
8999.00,0.73
8998.00,0.73
8997.00,0.74
8996.00,0.74
8995.00,0.74
8994.00,0.74
8993.00,0.74
8992.00,0.74
8991.00,0.74
8990.00,0.74
8989.00,0.74
8988.00,0.74
8987.00,0.74
8986.00,0.74
8985.00,0.73
8984.00,0.73
8983.00,0.73
8982.00,0.73
8981.00,0.73
8980.00,0.72
8979.00,0.72
8978.00,0.72
8977.00,0.72
8976.00,0.72
8975.00,0.72
8974.00,0.72
8973.00,0.72
8972.00,0.72
8971.00,0.72
8970.00,0.72
8969.00,0.72
8968.00,0.72
8967.00,0.72
8966.00,0.72
8965.00,0.72
8964.00,0.72
8963.00,0.72
8962.00,0.73
8961.00,0.73
8960.00,0.73
8959.00,0.73
8958.00,0.73
8957.00,0.74
8956.00,0.74
8955.00,0.74
8954.00,0.75
8953.00,0.75
8952.00,0.75
8951.00,0.75
8950.00,0.76
8949.00,0.76
8948.00,0.76
8947.00,0.76
8946.00,0.76
8945.00,0.76
8944.00,0.76
8943.00,0.76
8942.00,0.76
8941.00,0.76
8940.00,0.76
8939.00,0.76
8938.00,0.76
8937.00,0.76
8936.00,0.75
8935.00,0.75
8934.00,0.75
8933.00,0.75
8932.00,0.75
8931.00,0.75
8930.00,0.75
8929.00,0.75
8928.00,0.75
8927.00,0.75
8926.00,0.74
8925.00,0.74
8924.00,0.74
8923.00,0.75
8922.00,0.75
8921.00,0.75
8920.00,0.75
8919.00,0.75
8918.00,0.75
8917.00,0.75
8916.00,0.75
8915.00,0.75
8914.00,0.75
8913.00,0.75
8912.00,0.75
8911.00,0.76
8910.00,0.76
8909.00,0.76
8908.00,0.76
8907.00,0.76
8906.00,0.76
8905.00,0.76
8904.00,0.76
8903.00,0.75
8902.00,0.75
8901.00,0.75
8900.00,0.75
8899.00,0.75
8898.00,0.75
8897.00,0.75
8896.00,0.75
8895.00,0.75
8894.00,0.75
8893.00,0.75
8892.00,0.74
8891.00,0.74
8890.00,0.74
8889.00,0.74
8888.00,0.74
8887.00,0.74
8886.00,0.74
8885.00,0.74
8884.00,0.74
8883.00,0.74
8882.00,0.74
8881.00,0.74
8880.00,0.74
8879.00,0.74
8878.00,0.74
8877.00,0.74
8876.00,0.74
8875.00,0.74
8874.00,0.74
8873.00,0.74
8872.00,0.74
8871.00,0.74
8870.00,0.74
8869.00,0.74
8868.00,0.74
8867.00,0.74
8866.00,0.74
8865.00,0.73
8864.00,0.73
8863.00,0.73
8862.00,0.73
8861.00,0.73
8860.00,0.73
8859.00,0.73
8858.00,0.73
8857.00,0.73
8856.00,0.72
8855.00,0.72
8854.00,0.72
8853.00,0.72
8852.00,0.72
8851.00,0.72
8850.00,0.72
8849.00,0.72
8848.00,0.72
8847.00,0.72
8846.00,0.72
8845.00,0.72
8844.00,0.72
8843.00,0.72
8842.00,0.72
8841.00,0.72
8840.00,0.72
8839.00,0.72
8838.00,0.72
8837.00,0.72
8836.00,0.72
8835.00,0.72
8834.00,0.72
8833.00,0.72
8832.00,0.72
8831.00,0.72
8830.00,0.72
8829.00,0.72
8828.00,0.72
8827.00,0.72
8826.00,0.72
8825.00,0.72
8824.00,0.72
8823.00,0.72
8822.00,0.72
8821.00,0.72
8820.00,0.72
8819.00,0.72
8818.00,0.72
8817.00,0.72
8816.00,0.72
8815.00,0.72
8814.00,0.72
8813.00,0.72
8812.00,0.72
8811.00,0.72
8810.00,0.72
8809.00,0.72
8808.00,0.72
8807.00,0.72
8806.00,0.72
8805.00,0.72
8804.00,0.73
8803.00,0.73
8802.00,0.73
8801.00,0.73
8800.00,0.73
8799.00,0.73
8798.00,0.73
8797.00,0.73
8796.00,0.73
8795.00,0.73
8794.00,0.73
8793.00,0.73
8792.00,0.73
8791.00,0.73
8790.00,0.73
8789.00,0.73
8788.00,0.73
8787.00,0.73
8786.00,0.73
8785.00,0.73
8784.00,0.73
8783.00,0.73
8782.00,0.72
8781.00,0.72
8780.00,0.72
8779.00,0.72
8778.00,0.72
8777.00,0.72
8776.00,0.72
8775.00,0.71
8774.00,0.71
8773.00,0.71
8772.00,0.71
8771.00,0.71
8770.00,0.71
8769.00,0.71
8768.00,0.71
8767.00,0.71
8766.00,0.71
8765.00,0.71
8764.00,0.71
8763.00,0.71
8762.00,0.71
8761.00,0.71
8760.00,0.71
8759.00,0.71
8758.00,0.71
8757.00,0.71
8756.00,0.71
8755.00,0.71
8754.00,0.71
8753.00,0.71
8752.00,0.71
8751.00,0.71
8750.00,0.71
8749.00,0.71
8748.00,0.71
8747.00,0.71
8746.00,0.71
8745.00,0.71
8744.00,0.71
8743.00,0.71
8742.00,0.71
8741.00,0.71
8740.00,0.71
8739.00,0.71
8738.00,0.71
8737.00,0.70
8736.00,0.70
8735.00,0.70
8734.00,0.70
8733.00,0.70
8732.00,0.70
8731.00,0.71
8730.00,0.71
8729.00,0.71
8728.00,0.71
8727.00,0.71
8726.00,0.71
8725.00,0.71
8724.00,0.71
8723.00,0.72
8722.00,0.72
8721.00,0.72
8720.00,0.72
8719.00,0.72
8718.00,0.73
8717.00,0.73
8716.00,0.73
8715.00,0.73
8714.00,0.73
8713.00,0.73
8712.00,0.73
8711.00,0.73
8710.00,0.73
8709.00,0.73
8708.00,0.73
8707.00,0.73
8706.00,0.73
8705.00,0.73
8704.00,0.73
8703.00,0.73
8702.00,0.73
8701.00,0.73
8700.00,0.73
8699.00,0.72
8698.00,0.72
8697.00,0.72
8696.00,0.72
8695.00,0.72
8694.00,0.72
8693.00,0.72
8692.00,0.72
8691.00,0.71
8690.00,0.71
8689.00,0.71
8688.00,0.71
8687.00,0.71
8686.00,0.71
8685.00,0.71
8684.00,0.71
8683.00,0.71
8682.00,0.71
8681.00,0.71
8680.00,0.71
8679.00,0.71
8678.00,0.71
8677.00,0.71
8676.00,0.71
8675.00,0.71
8674.00,0.71
8673.00,0.71
8672.00,0.71
8671.00,0.71
8670.00,0.71
8669.00,0.71
8668.00,0.71
8667.00,0.71
8666.00,0.71
8665.00,0.71
8664.00,0.71
8663.00,0.71
8662.00,0.71
8661.00,0.71
8660.00,0.71
8659.00,0.71
8658.00,0.71
8657.00,0.71
8656.00,0.71
8655.00,0.71
8654.00,0.71
8653.00,0.71
8652.00,0.71
8651.00,0.71
8650.00,0.71
8649.00,0.71
8648.00,0.71
8647.00,0.71
8646.00,0.71
8645.00,0.71
8644.00,0.71
8643.00,0.71
8642.00,0.71
8641.00,0.71
8640.00,0.71
8639.00,0.71
8638.00,0.70
8637.00,0.70
8636.00,0.70
8635.00,0.70
8634.00,0.70
8633.00,0.69
8632.00,0.69
8631.00,0.69
8630.00,0.69
8629.00,0.69
8628.00,0.69
8627.00,0.69
8626.00,0.69
8625.00,0.69
8624.00,0.69
8623.00,0.69
8622.00,0.69
8621.00,0.69
8620.00,0.69
8619.00,0.69
8618.00,0.69
8617.00,0.69
8616.00,0.69
8615.00,0.69
8614.00,0.69
8613.00,0.69
8612.00,0.69
8611.00,0.69
8610.00,0.69
8609.00,0.69
8608.00,0.69
8607.00,0.69
8606.00,0.69
8605.00,0.69
8604.00,0.69
8603.00,0.69
8602.00,0.69
8601.00,0.69
8600.00,0.70
8599.00,0.70
8598.00,0.70
8597.00,0.70
8596.00,0.70
8595.00,0.70
8594.00,0.70
8593.00,0.70
8592.00,0.70
8591.00,0.70
8590.00,0.70
8589.00,0.70
8588.00,0.70
8587.00,0.70
8586.00,0.70
8585.00,0.70
8584.00,0.71
8583.00,0.71
8582.00,0.71
8581.00,0.71
8580.00,0.71
8579.00,0.70
8578.00,0.70
8577.00,0.70
8576.00,0.70
8575.00,0.70
8574.00,0.70
8573.00,0.70
8572.00,0.70
8571.00,0.70
8570.00,0.70
8569.00,0.69
8568.00,0.69
8567.00,0.69
8566.00,0.69
8565.00,0.69
8564.00,0.69
8563.00,0.68
8562.00,0.68
8561.00,0.68
8560.00,0.68
8559.00,0.68
8558.00,0.68
8557.00,0.68
8556.00,0.68
8555.00,0.68
8554.00,0.68
8553.00,0.68
8552.00,0.68
8551.00,0.68
8550.00,0.68
8549.00,0.68
8548.00,0.68
8547.00,0.68
8546.00,0.68
8545.00,0.68
8544.00,0.68
8543.00,0.68
8542.00,0.68
8541.00,0.68
8540.00,0.68
8539.00,0.68
8538.00,0.68
8537.00,0.68
8536.00,0.68
8535.00,0.68
8534.00,0.68
8533.00,0.68
8532.00,0.68
8531.00,0.68
8530.00,0.68
8529.00,0.68
8528.00,0.68
8527.00,0.68
8526.00,0.68
8525.00,0.67
8524.00,0.67
8523.00,0.67
8522.00,0.67
8521.00,0.67
8520.00,0.67
8519.00,0.67
8518.00,0.66
8517.00,0.66
8516.00,0.66
8515.00,0.66
8514.00,0.66
8513.00,0.66
8512.00,0.66
8511.00,0.66
8510.00,0.66
8509.00,0.67
8508.00,0.67
8507.00,0.67
8506.00,0.67
8505.00,0.67
8504.00,0.67
8503.00,0.67
8502.00,0.67
8501.00,0.67
8500.00,0.67
8499.00,0.67
8498.00,0.67
8497.00,0.66
8496.00,0.66
8495.00,0.66
8494.00,0.66
8493.00,0.66
8492.00,0.66
8491.00,0.66
8490.00,0.66
8489.00,0.66
8488.00,0.66
8487.00,0.66
8486.00,0.66
8485.00,0.66
8484.00,0.66
8483.00,0.66
8482.00,0.66
8481.00,0.66
8480.00,0.66
8479.00,0.66
8478.00,0.66
8477.00,0.66
8476.00,0.66
8475.00,0.66
8474.00,0.66
8473.00,0.65
8472.00,0.65
8471.00,0.65
8470.00,0.65
8469.00,0.65
8468.00,0.65
8467.00,0.65
8466.00,0.64
8465.00,0.64
8464.00,0.64
8463.00,0.64
8462.00,0.64
8461.00,0.64
8460.00,0.64
8459.00,0.64
8458.00,0.64
8457.00,0.64
8456.00,0.64
8455.00,0.64
8454.00,0.64
8453.00,0.64
8452.00,0.64
8451.00,0.64
8450.00,0.64
8449.00,0.64
8448.00,0.64
8447.00,0.64
8446.00,0.64
8445.00,0.64
8444.00,0.64
8443.00,0.64
8442.00,0.64
8441.00,0.64
8440.00,0.64
8439.00,0.64
8438.00,0.64
8437.00,0.64
8436.00,0.64
8435.00,0.64
8434.00,0.64
8433.00,0.64
8432.00,0.64
8431.00,0.65
8430.00,0.65
8429.00,0.65
8428.00,0.65
8427.00,0.65
8426.00,0.65
8425.00,0.65
8424.00,0.65
8423.00,0.65
8422.00,0.65
8421.00,0.66
8420.00,0.66
8419.00,0.66
8418.00,0.66
8417.00,0.66
8416.00,0.66
8415.00,0.66
8414.00,0.66
8413.00,0.66
8412.00,0.66
8411.00,0.66
8410.00,0.66
8409.00,0.66
8408.00,0.66
8407.00,0.66
8406.00,0.66
8405.00,0.66
8404.00,0.66
8403.00,0.66
8402.00,0.66
8401.00,0.66
8400.00,0.66
8399.00,0.66
8398.00,0.66
8397.00,0.66
8396.00,0.66
8395.00,0.67
8394.00,0.67
8393.00,0.67
8392.00,0.67
8391.00,0.67
8390.00,0.67
8389.00,0.67
8388.00,0.67
8387.00,0.67
8386.00,0.67
8385.00,0.67
8384.00,0.67
8383.00,0.67
8382.00,0.67
8381.00,0.67
8380.00,0.67
8379.00,0.67
8378.00,0.67
8377.00,0.67
8376.00,0.67
8375.00,0.67
8374.00,0.67
8373.00,0.67
8372.00,0.67
8371.00,0.67
8370.00,0.67
8369.00,0.67
8368.00,0.67
8367.00,0.67
8366.00,0.67
8365.00,0.67
8364.00,0.67
8363.00,0.67
8362.00,0.67
8361.00,0.67
8360.00,0.67
8359.00,0.68
8358.00,0.68
8357.00,0.68
8356.00,0.68
8355.00,0.68
8354.00,0.68
8353.00,0.68
8352.00,0.68
8351.00,0.68
8350.00,0.68
8349.00,0.68
8348.00,0.68
8347.00,0.68
8346.00,0.68
8345.00,0.68
8344.00,0.68
8343.00,0.68
8342.00,0.67
8341.00,0.67
8340.00,0.67
8339.00,0.67
8338.00,0.67
8337.00,0.67
8336.00,0.67
8335.00,0.67
8334.00,0.67
8333.00,0.67
8332.00,0.67
8331.00,0.68
8330.00,0.68
8329.00,0.68
8328.00,0.68
8327.00,0.68
8326.00,0.68
8325.00,0.69
8324.00,0.69
8323.00,0.69
8322.00,0.69
8321.00,0.69
8320.00,0.69
8319.00,0.69
8318.00,0.69
8317.00,0.69
8316.00,0.69
8315.00,0.69
8314.00,0.69
8313.00,0.69
8312.00,0.69
8311.00,0.69
8310.00,0.69
8309.00,0.69
8308.00,0.69
8307.00,0.69
8306.00,0.69
8305.00,0.69
8304.00,0.69
8303.00,0.69
8302.00,0.69
8301.00,0.69
8300.00,0.69
8299.00,0.69
8298.00,0.69
8297.00,0.69
8296.00,0.69
8295.00,0.69
8294.00,0.69
8293.00,0.69
8292.00,0.70
8291.00,0.70
8290.00,0.70
8289.00,0.70
8288.00,0.70
8287.00,0.70
8286.00,0.70
8285.00,0.70
8284.00,0.70
8283.00,0.70
8282.00,0.70
8281.00,0.70
8280.00,0.70
8279.00,0.70
8278.00,0.70
8277.00,0.70
8276.00,0.70
8275.00,0.70
8274.00,0.70
8273.00,0.70
8272.00,0.70
8271.00,0.70
8270.00,0.70
8269.00,0.70
8268.00,0.70
8267.00,0.70
8266.00,0.70
8265.00,0.70
8264.00,0.70
8263.00,0.70
8262.00,0.70
8261.00,0.70
8260.00,0.70
8259.00,0.70
8258.00,0.70
8257.00,0.70
8256.00,0.69
8255.00,0.69
8254.00,0.69
8253.00,0.69
8252.00,0.69
8251.00,0.69
8250.00,0.69
8249.00,0.69
8248.00,0.69
8247.00,0.69
8246.00,0.69
8245.00,0.68
8244.00,0.68
8243.00,0.68
8242.00,0.68
8241.00,0.69
8240.00,0.69
8239.00,0.69
8238.00,0.69
8237.00,0.69
8236.00,0.69
8235.00,0.69
8234.00,0.69
8233.00,0.69
8232.00,0.69
8231.00,0.69
8230.00,0.69
8229.00,0.69
8228.00,0.69
8227.00,0.69
8226.00,0.69
8225.00,0.69
8224.00,0.69
8223.00,0.69
8222.00,0.69
8221.00,0.69
8220.00,0.69
8219.00,0.69
8218.00,0.69
8217.00,0.69
8216.00,0.69
8215.00,0.69
8214.00,0.69
8213.00,0.69
8212.00,0.70
8211.00,0.70
8210.00,0.70
8209.00,0.70
8208.00,0.70
8207.00,0.70
8206.00,0.70
8205.00,0.70
8204.00,0.69
8203.00,0.69
8202.00,0.69
8201.00,0.69
8200.00,0.69
8199.00,0.69
8198.00,0.69
8197.00,0.69
8196.00,0.69
8195.00,0.69
8194.00,0.69
8193.00,0.69
8192.00,0.69
8191.00,0.69
8190.00,0.69
8189.00,0.69
8188.00,0.69
8187.00,0.69
8186.00,0.69
8185.00,0.69
8184.00,0.70
8183.00,0.70
8182.00,0.70
8181.00,0.70
8180.00,0.70
8179.00,0.70
8178.00,0.70
8177.00,0.70
8176.00,0.70
8175.00,0.70
8174.00,0.70
8173.00,0.70
8172.00,0.70
8171.00,0.70
8170.00,0.70
8169.00,0.70
8168.00,0.70
8167.00,0.70
8166.00,0.71
8165.00,0.71
8164.00,0.71
8163.00,0.71
8162.00,0.71
8161.00,0.71
8160.00,0.71
8159.00,0.72
8158.00,0.72
8157.00,0.72
8156.00,0.72
8155.00,0.72
8154.00,0.72
8153.00,0.72
8152.00,0.72
8151.00,0.72
8150.00,0.72
8149.00,0.72
8148.00,0.72
8147.00,0.72
8146.00,0.72
8145.00,0.72
8144.00,0.72
8143.00,0.72
8142.00,0.72
8141.00,0.72
8140.00,0.71
8139.00,0.71
8138.00,0.71
8137.00,0.71
8136.00,0.71
8135.00,0.72
8134.00,0.72
8133.00,0.72
8132.00,0.72
8131.00,0.72
8130.00,0.72
8129.00,0.72
8128.00,0.73
8127.00,0.73
8126.00,0.73
8125.00,0.73
8124.00,0.73
8123.00,0.73
8122.00,0.73
8121.00,0.73
8120.00,0.73
8119.00,0.73
8118.00,0.73
8117.00,0.73
8116.00,0.73
8115.00,0.73
8114.00,0.72
8113.00,0.72
8112.00,0.72
8111.00,0.72
8110.00,0.72
8109.00,0.72
8108.00,0.72
8107.00,0.72
8106.00,0.72
8105.00,0.72
8104.00,0.72
8103.00,0.72
8102.00,0.72
8101.00,0.72
8100.00,0.72
8099.00,0.72
8098.00,0.72
8097.00,0.72
8096.00,0.72
8095.00,0.72
8094.00,0.72
8093.00,0.72
8092.00,0.72
8091.00,0.72
8090.00,0.73
8089.00,0.73
8088.00,0.73
8087.00,0.73
8086.00,0.73
8085.00,0.73
8084.00,0.73
8083.00,0.73
8082.00,0.73
8081.00,0.73
8080.00,0.73
8079.00,0.73
8078.00,0.73
8077.00,0.73
8076.00,0.73
8075.00,0.73
8074.00,0.73
8073.00,0.73
8072.00,0.73
8071.00,0.73
8070.00,0.73
8069.00,0.73
8068.00,0.73
8067.00,0.73
8066.00,0.73
8065.00,0.73
8064.00,0.73
8063.00,0.73
8062.00,0.73
8061.00,0.73
8060.00,0.73
8059.00,0.73
8058.00,0.73
8057.00,0.73
8056.00,0.73
8055.00,0.73
8054.00,0.73
8053.00,0.73
8052.00,0.73
8051.00,0.74
8050.00,0.74
8049.00,0.74
8048.00,0.74
8047.00,0.74
8046.00,0.74
8045.00,0.74
8044.00,0.74
8043.00,0.74
8042.00,0.74
8041.00,0.74
8040.00,0.74
8039.00,0.73
8038.00,0.73
8037.00,0.73
8036.00,0.73
8035.00,0.73
8034.00,0.73
8033.00,0.73
8032.00,0.73
8031.00,0.73
8030.00,0.73
8029.00,0.73
8028.00,0.73
8027.00,0.73
8026.00,0.73
8025.00,0.73
8024.00,0.73
8023.00,0.73
8022.00,0.73
8021.00,0.73
8020.00,0.73
8019.00,0.73
8018.00,0.73
8017.00,0.73
8016.00,0.73
8015.00,0.73
8014.00,0.73
8013.00,0.73
8012.00,0.73
8011.00,0.73
8010.00,0.73
8009.00,0.72
8008.00,0.72
8007.00,0.72
8006.00,0.72
8005.00,0.72
8004.00,0.72
8003.00,0.72
8002.00,0.72
8001.00,0.72
8000.00,0.72
7999.00,0.72
7998.00,0.72
7997.00,0.73
7996.00,0.73
7995.00,0.73
7994.00,0.73
7993.00,0.73
7992.00,0.73
7991.00,0.73
7990.00,0.73
7989.00,0.73
7988.00,0.73
7987.00,0.73
7986.00,0.73
7985.00,0.73
7984.00,0.73
7983.00,0.73
7982.00,0.73
7981.00,0.73
7980.00,0.73
7979.00,0.73
7978.00,0.73
7977.00,0.73
7976.00,0.73
7975.00,0.73
7974.00,0.73
7973.00,0.73
7972.00,0.73
7971.00,0.73
7970.00,0.73
7969.00,0.73
7968.00,0.74
7967.00,0.74
7966.00,0.74
7965.00,0.74
7964.00,0.74
7963.00,0.74
7962.00,0.74
7961.00,0.74
7960.00,0.74
7959.00,0.74
7958.00,0.74
7957.00,0.73
7956.00,0.73
7955.00,0.73
7954.00,0.73
7953.00,0.73
7952.00,0.73
7951.00,0.73
7950.00,0.73
7949.00,0.73
7948.00,0.73
7947.00,0.73
7946.00,0.73
7945.00,0.73
7944.00,0.73
7943.00,0.73
7942.00,0.73
7941.00,0.73
7940.00,0.74
7939.00,0.74
7938.00,0.74
7937.00,0.74
7936.00,0.74
7935.00,0.74
7934.00,0.74
7933.00,0.74
7932.00,0.74
7931.00,0.74
7930.00,0.74
7929.00,0.74
7928.00,0.74
7927.00,0.74
7926.00,0.74
7925.00,0.74
7924.00,0.74
7923.00,0.74
7922.00,0.75
7921.00,0.75
7920.00,0.75
7919.00,0.75
7918.00,0.75
7917.00,0.75
7916.00,0.75
7915.00,0.75
7914.00,0.75
7913.00,0.75
7912.00,0.75
7911.00,0.75
7910.00,0.75
7909.00,0.75
7908.00,0.75
7907.00,0.75
7906.00,0.75
7905.00,0.75
7904.00,0.75
7903.00,0.75
7902.00,0.75
7901.00,0.75
7900.00,0.75
7899.00,0.75
7898.00,0.75
7897.00,0.75
7896.00,0.75
7895.00,0.75
7894.00,0.75
7893.00,0.75
7892.00,0.75
7891.00,0.75
7890.00,0.75
7889.00,0.75
7888.00,0.75
7887.00,0.75
7886.00,0.75
7885.00,0.75
7884.00,0.75
7883.00,0.75
7882.00,0.75
7881.00,0.75
7880.00,0.75
7879.00,0.75
7878.00,0.75
7877.00,0.75
7876.00,0.75
7875.00,0.75
7874.00,0.75
7873.00,0.75
7872.00,0.75
7871.00,0.75
7870.00,0.75
7869.00,0.75
7868.00,0.75
7867.00,0.75
7866.00,0.75
7865.00,0.75
7864.00,0.75
7863.00,0.75
7862.00,0.75
7861.00,0.75
7860.00,0.75
7859.00,0.75
7858.00,0.75
7857.00,0.75
7856.00,0.75
7855.00,0.75
7854.00,0.75
7853.00,0.75
7852.00,0.75
7851.00,0.75
7850.00,0.75
7849.00,0.75
7848.00,0.75
7847.00,0.75
7846.00,0.76
7845.00,0.76
7844.00,0.76
7843.00,0.76
7842.00,0.76
7841.00,0.76
7840.00,0.76
7839.00,0.76
7838.00,0.76
7837.00,0.76
7836.00,0.76
7835.00,0.76
7834.00,0.76
7833.00,0.76
7832.00,0.76
7831.00,0.76
7830.00,0.76
7829.00,0.76
7828.00,0.76
7827.00,0.76
7826.00,0.76
7825.00,0.76
7824.00,0.76
7823.00,0.76
7822.00,0.76
7821.00,0.76
7820.00,0.76
7819.00,0.76
7818.00,0.76
7817.00,0.75
7816.00,0.76
7815.00,0.76
7814.00,0.76
7813.00,0.76
7812.00,0.76
7811.00,0.76
7810.00,0.76
7809.00,0.76
7808.00,0.76
7807.00,0.76
7806.00,0.76
7805.00,0.76
7804.00,0.76
7803.00,0.76
7802.00,0.76
7801.00,0.76
7800.00,0.76
7799.00,0.75
7798.00,0.75
7797.00,0.75
7796.00,0.75
7795.00,0.75
7794.00,0.75
7793.00,0.75
7792.00,0.75
7791.00,0.75
7790.00,0.75
7789.00,0.75
7788.00,0.75
7787.00,0.75
7786.00,0.75
7785.00,0.76
7784.00,0.76
7783.00,0.76
7782.00,0.76
7781.00,0.76
7780.00,0.76
7779.00,0.76
7778.00,0.76
7777.00,0.75
7776.00,0.75
7775.00,0.75
7774.00,0.75
7773.00,0.75
7772.00,0.75
7771.00,0.75
7770.00,0.75
7769.00,0.75
7768.00,0.75
7767.00,0.75
7766.00,0.75
7765.00,0.75
7764.00,0.75
7763.00,0.75
7762.00,0.75
7761.00,0.75
7760.00,0.75
7759.00,0.75
7758.00,0.75
7757.00,0.75
7756.00,0.75
7755.00,0.75
7754.00,0.75
7753.00,0.75
7752.00,0.75
7751.00,0.75
7750.00,0.75
7749.00,0.76
7748.00,0.76
7747.00,0.76
7746.00,0.76
7745.00,0.76
7744.00,0.76
7743.00,0.76
7742.00,0.76
7741.00,0.76
7740.00,0.76
7739.00,0.76
7738.00,0.76
7737.00,0.76
7736.00,0.76
7735.00,0.76
7734.00,0.76
7733.00,0.76
7732.00,0.76
7731.00,0.76
7730.00,0.76
7729.00,0.76
7728.00,0.76
7727.00,0.76
7726.00,0.76
7725.00,0.76
7724.00,0.76
7723.00,0.76
7722.00,0.76
7721.00,0.76
7720.00,0.76
7719.00,0.76
7718.00,0.76
7717.00,0.76
7716.00,0.76
7715.00,0.76
7714.00,0.76
7713.00,0.76
7712.00,0.76
7711.00,0.76
7710.00,0.76
7709.00,0.76
7708.00,0.76
7707.00,0.76
7706.00,0.76
7705.00,0.76
7704.00,0.76
7703.00,0.76
7702.00,0.76
7701.00,0.76
7700.00,0.76
7699.00,0.76
7698.00,0.76
7697.00,0.76
7696.00,0.76
7695.00,0.76
7694.00,0.76
7693.00,0.76
7692.00,0.76
7691.00,0.76
7690.00,0.76
7689.00,0.76
7688.00,0.76
7687.00,0.76
7686.00,0.76
7685.00,0.76
7684.00,0.76
7683.00,0.76
7682.00,0.76
7681.00,0.76
7680.00,0.75
7679.00,0.75
7678.00,0.75
7677.00,0.75
7676.00,0.75
7675.00,0.75
7674.00,0.75
7673.00,0.75
7672.00,0.75
7671.00,0.75
7670.00,0.75
7669.00,0.75
7668.00,0.75
7667.00,0.75
7666.00,0.75
7665.00,0.75
7664.00,0.75
7663.00,0.75
7662.00,0.75
7661.00,0.75
7660.00,0.75
7659.00,0.76
7658.00,0.76
7657.00,0.76
7656.00,0.76
7655.00,0.76
7654.00,0.76
7653.00,0.76
7652.00,0.76
7651.00,0.76
7650.00,0.76
7649.00,0.76
7648.00,0.76
7647.00,0.76
7646.00,0.76
7645.00,0.77
7644.00,0.77
7643.00,0.77
7642.00,0.77
7641.00,0.77
7640.00,0.77
7639.00,0.76
7638.00,0.76
7637.00,0.76
7636.00,0.76
7635.00,0.76
7634.00,0.76
7633.00,0.76
7632.00,0.76
7631.00,0.76
7630.00,0.76
7629.00,0.76
7628.00,0.76
7627.00,0.76
7626.00,0.75
7625.00,0.75
7624.00,0.75
7623.00,0.75
7622.00,0.75
7621.00,0.75
7620.00,0.75
7619.00,0.75
7618.00,0.75
7617.00,0.75
7616.00,0.75
7615.00,0.75
7614.00,0.75
7613.00,0.75
7612.00,0.75
7611.00,0.75
7610.00,0.75
7609.00,0.75
7608.00,0.75
7607.00,0.75
7606.00,0.75
7605.00,0.75
7604.00,0.75
7603.00,0.75
7602.00,0.75
7601.00,0.75
7600.00,0.75
7599.00,0.75
7598.00,0.75
7597.00,0.75
7596.00,0.75
7595.00,0.75
7594.00,0.75
7593.00,0.75
7592.00,0.75
7591.00,0.75
7590.00,0.75
7589.00,0.75
7588.00,0.75
7587.00,0.75
7586.00,0.75
7585.00,0.76
7584.00,0.76
7583.00,0.76
7582.00,0.76
7581.00,0.76
7580.00,0.76
7579.00,0.76
7578.00,0.76
7577.00,0.76
7576.00,0.76
7575.00,0.76
7574.00,0.76
7573.00,0.76
7572.00,0.76
7571.00,0.76
7570.00,0.76
7569.00,0.76
7568.00,0.76
7567.00,0.76
7566.00,0.76
7565.00,0.76
7564.00,0.76
7563.00,0.76
7562.00,0.76
7561.00,0.76
7560.00,0.76
7559.00,0.76
7558.00,0.76
7557.00,0.76
7556.00,0.76
7555.00,0.76
7554.00,0.76
7553.00,0.76
7552.00,0.76
7551.00,0.76
7550.00,0.76
7549.00,0.76
7548.00,0.76
7547.00,0.76
7546.00,0.76
7545.00,0.76
7544.00,0.76
7543.00,0.76
7542.00,0.76
7541.00,0.76
7540.00,0.76
7539.00,0.76
7538.00,0.76
7537.00,0.76
7536.00,0.76
7535.00,0.76
7534.00,0.76
7533.00,0.76
7532.00,0.76
7531.00,0.76
7530.00,0.76
7529.00,0.76
7528.00,0.76
7527.00,0.76
7526.00,0.76
7525.00,0.76
7524.00,0.76
7523.00,0.76
7522.00,0.76
7521.00,0.75
7520.00,0.75
7519.00,0.75
7518.00,0.75
7517.00,0.75
7516.00,0.75
7515.00,0.75
7514.00,0.75
7513.00,0.75
7512.00,0.75
7511.00,0.75
7510.00,0.75
7509.00,0.75
7508.00,0.75
7507.00,0.74
7506.00,0.74
7505.00,0.74
7504.00,0.74
7503.00,0.74
7502.00,0.74
7501.00,0.74
7500.00,0.74
7499.00,0.74
7498.00,0.74
7497.00,0.74
7496.00,0.74
7495.00,0.74
7494.00,0.74
7493.00,0.74
7492.00,0.74
7491.00,0.74
7490.00,0.74
7489.00,0.74
7488.00,0.74
7487.00,0.74
7486.00,0.74
7485.00,0.74
7484.00,0.74
7483.00,0.74
7482.00,0.74
7481.00,0.74
7480.00,0.74
7479.00,0.74
7478.00,0.74
7477.00,0.74
7476.00,0.73
7475.00,0.73
7474.00,0.73
7473.00,0.73
7472.00,0.73
7471.00,0.73
7470.00,0.73
7469.00,0.73
7468.00,0.73
7467.00,0.73
7466.00,0.74
7465.00,0.74
7464.00,0.74
7463.00,0.74
7462.00,0.74
7461.00,0.74
7460.00,0.74
7459.00,0.74
7458.00,0.74
7457.00,0.74
7456.00,0.74
7455.00,0.74
7454.00,0.74
7453.00,0.74
7452.00,0.74
7451.00,0.74
7450.00,0.74
7449.00,0.74
7448.00,0.74
7447.00,0.74
7446.00,0.74
7445.00,0.74
7444.00,0.73
7443.00,0.73
7442.00,0.73
7441.00,0.73
7440.00,0.73
7439.00,0.73
7438.00,0.73
7437.00,0.73
7436.00,0.73
7435.00,0.73
7434.00,0.72
7433.00,0.72
7432.00,0.72
7431.00,0.72
7430.00,0.72
7429.00,0.72
7428.00,0.72
7427.00,0.72
7426.00,0.72
7425.00,0.72
7424.00,0.72
7423.00,0.72
7422.00,0.72
7421.00,0.72
7420.00,0.72
7419.00,0.72
7418.00,0.72
7417.00,0.72
7416.00,0.72
7415.00,0.72
7414.00,0.72
7413.00,0.72
7412.00,0.71
7411.00,0.71
7410.00,0.71
7409.00,0.71
7408.00,0.71
7407.00,0.71
7406.00,0.71
7405.00,0.71
7404.00,0.71
7403.00,0.71
7402.00,0.71
7401.00,0.71
7400.00,0.71
7399.00,0.71
7398.00,0.71
7397.00,0.71
7396.00,0.71
7395.00,0.71
7394.00,0.71
7393.00,0.71
7392.00,0.71
7391.00,0.71
7390.00,0.70
7389.00,0.70
7388.00,0.70
7387.00,0.70
7386.00,0.70
7385.00,0.70
7384.00,0.70
7383.00,0.69
7382.00,0.69
7381.00,0.69
7380.00,0.69
7379.00,0.69
7378.00,0.69
7377.00,0.69
7376.00,0.69
7375.00,0.69
7374.00,0.69
7373.00,0.69
7372.00,0.69
7371.00,0.69
7370.00,0.69
7369.00,0.69
7368.00,0.69
7367.00,0.69
7366.00,0.69
7365.00,0.69
7364.00,0.69
7363.00,0.69
7362.00,0.69
7361.00,0.69
7360.00,0.69
7359.00,0.69
7358.00,0.69
7357.00,0.69
7356.00,0.69
7355.00,0.69
7354.00,0.69
7353.00,0.69
7352.00,0.69
7351.00,0.69
7350.00,0.69
7349.00,0.69
7348.00,0.69
7347.00,0.69
7346.00,0.69
7345.00,0.69
7344.00,0.69
7343.00,0.69
7342.00,0.69
7341.00,0.69
7340.00,0.69
7339.00,0.69
7338.00,0.70
7337.00,0.70
7336.00,0.70
7335.00,0.70
7334.00,0.70
7333.00,0.70
7332.00,0.70
7331.00,0.70
7330.00,0.69
7329.00,0.69
7328.00,0.69
7327.00,0.69
7326.00,0.69
7325.00,0.69
7324.00,0.69
7323.00,0.69
7322.00,0.69
7321.00,0.69
7320.00,0.69
7319.00,0.69
7318.00,0.68
7317.00,0.68
7316.00,0.68
7315.00,0.68
7314.00,0.68
7313.00,0.68
7312.00,0.68
7311.00,0.68
7310.00,0.68
7309.00,0.68
7308.00,0.68
7307.00,0.68
7306.00,0.68
7305.00,0.68
7304.00,0.68
7303.00,0.68
7302.00,0.68
7301.00,0.68
7300.00,0.68
7299.00,0.68
7298.00,0.68
7297.00,0.68
7296.00,0.68
7295.00,0.67
7294.00,0.67
7293.00,0.67
7292.00,0.67
7291.00,0.67
7290.00,0.67
7289.00,0.67
7288.00,0.67
7287.00,0.67
7286.00,0.67
7285.00,0.67
7284.00,0.67
7283.00,0.66
7282.00,0.66
7281.00,0.66
7280.00,0.66
7279.00,0.66
7278.00,0.66
7277.00,0.66
7276.00,0.66
7275.00,0.66
7274.00,0.65
7273.00,0.65
7272.00,0.65
7271.00,0.65
7270.00,0.65
7269.00,0.65
7268.00,0.65
7267.00,0.65
7266.00,0.65
7265.00,0.65
7264.00,0.65
7263.00,0.65
7262.00,0.65
7261.00,0.65
7260.00,0.65
7259.00,0.65
7258.00,0.65
7257.00,0.65
7256.00,0.65
7255.00,0.64
7254.00,0.64
7253.00,0.64
7252.00,0.64
7251.00,0.64
7250.00,0.64
7249.00,0.64
7248.00,0.64
7247.00,0.64
7246.00,0.63
7245.00,0.63
7244.00,0.63
7243.00,0.63
7242.00,0.63
7241.00,0.63
7240.00,0.62
7239.00,0.62
7238.00,0.62
7237.00,0.62
7236.00,0.62
7235.00,0.61
7234.00,0.61
7233.00,0.61
7232.00,0.61
7231.00,0.61
7230.00,0.61
7229.00,0.60
7228.00,0.60
7227.00,0.60
7226.00,0.60
7225.00,0.60
7224.00,0.60
7223.00,0.59
7222.00,0.59
7221.00,0.59
7220.00,0.59
7219.00,0.59
7218.00,0.59
7217.00,0.59
7216.00,0.58
7215.00,0.58
7214.00,0.58
7213.00,0.58
7212.00,0.58
7211.00,0.58
7210.00,0.58
7209.00,0.57
7208.00,0.57
7207.00,0.57
7206.00,0.57
7205.00,0.57
7204.00,0.56
7203.00,0.56
7202.00,0.56
7201.00,0.56
7200.00,0.56
7199.00,0.56
7198.00,0.55
7197.00,0.55
7196.00,0.55
7195.00,0.55
7194.00,0.55
7193.00,0.55
7192.00,0.55
7191.00,0.54
7190.00,0.54
7189.00,0.54
7188.00,0.54
7187.00,0.54
7186.00,0.54
7185.00,0.54
7184.00,0.54
7183.00,0.53
7182.00,0.53
7181.00,0.53
7180.00,0.53
7179.00,0.53
7178.00,0.52
7177.00,0.52
7176.00,0.52
7175.00,0.52
7174.00,0.52
7173.00,0.52
7172.00,0.52
7171.00,0.51
7170.00,0.51
7169.00,0.51
7168.00,0.51
7167.00,0.51
7166.00,0.51
7165.00,0.51
7164.00,0.51
7163.00,0.50
7162.00,0.50
7161.00,0.50
7160.00,0.50
7159.00,0.50
7158.00,0.50
7157.00,0.50
7156.00,0.49
7155.00,0.49
7154.00,0.49
7153.00,0.49
7152.00,0.49
7151.00,0.49
7150.00,0.48
7149.00,0.48
7148.00,0.48
7147.00,0.48
7146.00,0.48
7145.00,0.48
7144.00,0.48
7143.00,0.47
7142.00,0.47
7141.00,0.47
7140.00,0.47
7139.00,0.47
7138.00,0.47
7137.00,0.47
7136.00,0.47
7135.00,0.47
7134.00,0.46
7133.00,0.46
7132.00,0.46
7131.00,0.46
7130.00,0.46
7129.00,0.46
7128.00,0.45
7127.00,0.45
7126.00,0.45
7125.00,0.45
7124.00,0.45
7123.00,0.44
7122.00,0.44
7121.00,0.44
7120.00,0.44
7119.00,0.44
7118.00,0.43
7117.00,0.43
7116.00,0.43
7115.00,0.43
7114.00,0.43
7113.00,0.42
7112.00,0.42
7111.00,0.42
7110.00,0.42
7109.00,0.42
7108.00,0.42
7107.00,0.41
7106.00,0.41
7105.00,0.41
7104.00,0.41
7103.00,0.41
7102.00,0.41
7101.00,0.41
7100.00,0.40
7099.00,0.40
7098.00,0.40
7097.00,0.40
7096.00,0.40
7095.00,0.40
7094.00,0.40
7093.00,0.40
7092.00,0.40
7091.00,0.39
7090.00,0.39
7089.00,0.39
7088.00,0.39
7087.00,0.39
7086.00,0.39
7085.00,0.39
7084.00,0.39
7083.00,0.39
7082.00,0.39
7081.00,0.39
7080.00,0.38
7079.00,0.38
7078.00,0.38
7077.00,0.38
7076.00,0.38
7075.00,0.38
7074.00,0.38
7073.00,0.38
7072.00,0.38
7071.00,0.37
7070.00,0.37
7069.00,0.37
7068.00,0.37
7067.00,0.37
7066.00,0.37
7065.00,0.37
7064.00,0.37
7063.00,0.37
7062.00,0.37
7061.00,0.36
7060.00,0.36
7059.00,0.36
7058.00,0.36
7057.00,0.36
7056.00,0.36
7055.00,0.36
7054.00,0.36
7053.00,0.36
7052.00,0.36
7051.00,0.36
7050.00,0.36
7049.00,0.36
7048.00,0.36
7047.00,0.36
7046.00,0.36
7045.00,0.36
7044.00,0.36
7043.00,0.36
7042.00,0.36
7041.00,0.36
7040.00,0.36
7039.00,0.35
7038.00,0.35
7037.00,0.35
7036.00,0.35
7035.00,0.35
7034.00,0.35
7033.00,0.35
7032.00,0.35
7031.00,0.35
7030.00,0.35
7029.00,0.35
7028.00,0.35
7027.00,0.35
7026.00,0.35
7025.00,0.35
7024.00,0.35
7023.00,0.35
7022.00,0.35
7021.00,0.35
7020.00,0.34
7019.00,0.34
7018.00,0.34
7017.00,0.34
7016.00,0.34
7015.00,0.34
7014.00,0.34
7013.00,0.34
7012.00,0.34
7011.00,0.34
7010.00,0.34
7009.00,0.34
7008.00,0.34
7007.00,0.34
7006.00,0.34
7005.00,0.34
7004.00,0.34
7003.00,0.34
7002.00,0.34
7001.00,0.34
7000.00,0.34
6999.00,0.34
6998.00,0.34
6997.00,0.33
6996.00,0.33
6995.00,0.33
6994.00,0.33
6993.00,0.33
6992.00,0.33
6991.00,0.33
6990.00,0.33
6989.00,0.33
6988.00,0.33
6987.00,0.33
6986.00,0.33
6985.00,0.33
6984.00,0.33
6983.00,0.33
6982.00,0.33
6981.00,0.33
6980.00,0.33
6979.00,0.33
6978.00,0.33
6977.00,0.33
6976.00,0.33
6975.00,0.33
6974.00,0.33
6973.00,0.33
6972.00,0.33
6971.00,0.33
6970.00,0.33
6969.00,0.33
6968.00,0.32
6967.00,0.32
6966.00,0.32
6965.00,0.32
6964.00,0.32
6963.00,0.32
6962.00,0.32
6961.00,0.32
6960.00,0.32
6959.00,0.32
6958.00,0.32
6957.00,0.32
6956.00,0.32
6955.00,0.32
6954.00,0.32
6953.00,0.31
6952.00,0.31
6951.00,0.31
6950.00,0.31
6949.00,0.31
6948.00,0.31
6947.00,0.31
6946.00,0.31
6945.00,0.31
6944.00,0.31
6943.00,0.31
6942.00,0.31
6941.00,0.31
6940.00,0.31
6939.00,0.31
6938.00,0.31
6937.00,0.31
6936.00,0.31
6935.00,0.31
6934.00,0.31
6933.00,0.31
6932.00,0.31
6931.00,0.31
6930.00,0.31
6929.00,0.31
6928.00,0.31
6927.00,0.31
6926.00,0.31
6925.00,0.31
6924.00,0.31
6923.00,0.31
6922.00,0.31
6921.00,0.31
6920.00,0.31
6919.00,0.32
6918.00,0.32
6917.00,0.32
6916.00,0.32
6915.00,0.32
6914.00,0.32
6913.00,0.32
6912.00,0.32
6911.00,0.32
6910.00,0.32
6909.00,0.32
6908.00,0.32
6907.00,0.32
6906.00,0.32
6905.00,0.32
6904.00,0.32
6903.00,0.32
6902.00,0.32
6901.00,0.32
6900.00,0.32
6899.00,0.31
6898.00,0.31
6897.00,0.31
6896.00,0.31
6895.00,0.31
6894.00,0.31
6893.00,0.31
6892.00,0.31
6891.00,0.31
6890.00,0.31
6889.00,0.31
6888.00,0.31
6887.00,0.30
6886.00,0.30
6885.00,0.30
6884.00,0.30
6883.00,0.30
6882.00,0.30
6881.00,0.30
6880.00,0.30
6879.00,0.30
6878.00,0.30
6877.00,0.30
6876.00,0.30
6875.00,0.30
6874.00,0.30
6873.00,0.30
6872.00,0.30
6871.00,0.30
6870.00,0.30
6869.00,0.30
6868.00,0.30
6867.00,0.30
6866.00,0.30
6865.00,0.30
6864.00,0.30
6863.00,0.30
6862.00,0.30
6861.00,0.30
6860.00,0.30
6859.00,0.30
6858.00,0.30
6857.00,0.30
6856.00,0.30
6855.00,0.30
6854.00,0.30
6853.00,0.30
6852.00,0.30
6851.00,0.30
6850.00,0.30
6849.00,0.30
6848.00,0.30
6847.00,0.30
6846.00,0.30
6845.00,0.30
6844.00,0.30
6843.00,0.30
6842.00,0.30
6841.00,0.30
6840.00,0.30
6839.00,0.30
6838.00,0.31
6837.00,0.31
6836.00,0.31
6835.00,0.31
6834.00,0.31
6833.00,0.31
6832.00,0.31
6831.00,0.31
6830.00,0.31
6829.00,0.31
6828.00,0.31
6827.00,0.31
6826.00,0.31
6825.00,0.31
6824.00,0.31
6823.00,0.31
6822.00,0.31
6821.00,0.31
6820.00,0.31
6819.00,0.31
6818.00,0.31
6817.00,0.31
6816.00,0.31
6815.00,0.31
6814.00,0.31
6813.00,0.31
6812.00,0.32
6811.00,0.32
6810.00,0.32
6809.00,0.32
6808.00,0.32
6807.00,0.32
6806.00,0.32
6805.00,0.32
6804.00,0.32
6803.00,0.32
6802.00,0.32
6801.00,0.32
6800.00,0.32
6799.00,0.32
6798.00,0.32
6797.00,0.32
6796.00,0.32
6795.00,0.32
6794.00,0.32
6793.00,0.32
6792.00,0.32
6791.00,0.32
6790.00,0.32
6789.00,0.32
6788.00,0.32
6787.00,0.32
6786.00,0.32
6785.00,0.32
6784.00,0.32
6783.00,0.32
6782.00,0.32
6781.00,0.32
6780.00,0.32
6779.00,0.32
6778.00,0.32
6777.00,0.32
6776.00,0.33
6775.00,0.33
6774.00,0.33
6773.00,0.33
6772.00,0.33
6771.00,0.33
6770.00,0.33
6769.00,0.33
6768.00,0.33
6767.00,0.33
6766.00,0.33
6765.00,0.33
6764.00,0.33
6763.00,0.33
6762.00,0.33
6761.00,0.33
6760.00,0.33
6759.00,0.33
6758.00,0.33
6757.00,0.33
6756.00,0.33
6755.00,0.33
6754.00,0.33
6753.00,0.33
6752.00,0.33
6751.00,0.33
6750.00,0.33
6749.00,0.34
6748.00,0.34
6747.00,0.34
6746.00,0.34
6745.00,0.34
6744.00,0.34
6743.00,0.34
6742.00,0.34
6741.00,0.34
6740.00,0.34
6739.00,0.34
6738.00,0.34
6737.00,0.35
6736.00,0.35
6735.00,0.35
6734.00,0.35
6733.00,0.35
6732.00,0.35
6731.00,0.35
6730.00,0.35
6729.00,0.35
6728.00,0.35
6727.00,0.35
6726.00,0.35
6725.00,0.35
6724.00,0.35
6723.00,0.35
6722.00,0.35
6721.00,0.35
6720.00,0.35
6719.00,0.35
6718.00,0.35
6717.00,0.35
6716.00,0.35
6715.00,0.35
6714.00,0.35
6713.00,0.35
6712.00,0.35
6711.00,0.35
6710.00,0.35
6709.00,0.35
6708.00,0.35
6707.00,0.35
6706.00,0.35
6705.00,0.35
6704.00,0.35
6703.00,0.35
6702.00,0.35
6701.00,0.36
6700.00,0.36
6699.00,0.36
6698.00,0.36
6697.00,0.36
6696.00,0.36
6695.00,0.36
6694.00,0.36
6693.00,0.36
6692.00,0.36
6691.00,0.36
6690.00,0.36
6689.00,0.36
6688.00,0.36
6687.00,0.36
6686.00,0.36
6685.00,0.36
6684.00,0.36
6683.00,0.36
6682.00,0.36
6681.00,0.36
6680.00,0.36
6679.00,0.36
6678.00,0.36
6677.00,0.36
6676.00,0.36
6675.00,0.37
6674.00,0.37
6673.00,0.37
6672.00,0.37
6671.00,0.37
6670.00,0.37
6669.00,0.37
6668.00,0.37
6667.00,0.37
6666.00,0.37
6665.00,0.37
6664.00,0.37
6663.00,0.37
6662.00,0.37
6661.00,0.37
6660.00,0.38
6659.00,0.38
6658.00,0.38
6657.00,0.38
6656.00,0.38
6655.00,0.38
6654.00,0.38
6653.00,0.38
6652.00,0.38
6651.00,0.38
6650.00,0.38
6649.00,0.38
6648.00,0.38
6647.00,0.39
6646.00,0.39
6645.00,0.39
6644.00,0.39
6643.00,0.39
6642.00,0.39
6641.00,0.39
6640.00,0.39
6639.00,0.39
6638.00,0.39
6637.00,0.39
6636.00,0.39
6635.00,0.39
6634.00,0.39
6633.00,0.39
6632.00,0.39
6631.00,0.39
6630.00,0.39
6629.00,0.39
6628.00,0.39
6627.00,0.39
6626.00,0.39
6625.00,0.39
6624.00,0.39
6623.00,0.39
6622.00,0.39
6621.00,0.39
6620.00,0.39
6619.00,0.39
6618.00,0.40
6617.00,0.40
6616.00,0.40
6615.00,0.40
6614.00,0.40
6613.00,0.40
6612.00,0.40
6611.00,0.40
6610.00,0.40
6609.00,0.40
6608.00,0.40
6607.00,0.40
6606.00,0.40
6605.00,0.41
6604.00,0.41
6603.00,0.41
6602.00,0.41
6601.00,0.41
6600.00,0.41
6599.00,0.41
6598.00,0.41
6597.00,0.41
6596.00,0.41
6595.00,0.41
6594.00,0.41
6593.00,0.41
6592.00,0.42
6591.00,0.42
6590.00,0.42
6589.00,0.42
6588.00,0.42
6587.00,0.42
6586.00,0.42
6585.00,0.42
6584.00,0.42
6583.00,0.42
6582.00,0.42
6581.00,0.42
6580.00,0.42
6579.00,0.42
6578.00,0.42
6577.00,0.42
6576.00,0.42
6575.00,0.42
6574.00,0.42
6573.00,0.42
6572.00,0.42
6571.00,0.42
6570.00,0.42
6569.00,0.42
6568.00,0.42
6567.00,0.42
6566.00,0.43
6565.00,0.43
6564.00,0.43
6563.00,0.43
6562.00,0.43
6561.00,0.43
6560.00,0.43
6559.00,0.43
6558.00,0.43
6557.00,0.43
6556.00,0.43
6555.00,0.43
6554.00,0.43
6553.00,0.43
6552.00,0.43
6551.00,0.43
6550.00,0.43
6549.00,0.43
6548.00,0.43
6547.00,0.44
6546.00,0.44
6545.00,0.44
6544.00,0.44
6543.00,0.44
6542.00,0.44
6541.00,0.44
6540.00,0.44
6539.00,0.44
6538.00,0.44
6537.00,0.44
6536.00,0.44
6535.00,0.44
6534.00,0.44
6533.00,0.44
6532.00,0.44
6531.00,0.44
6530.00,0.44
6529.00,0.44
6528.00,0.44
6527.00,0.44
6526.00,0.44
6525.00,0.44
6524.00,0.44
6523.00,0.44
6522.00,0.44
6521.00,0.44
6520.00,0.44
6519.00,0.44
6518.00,0.44
6517.00,0.44
6516.00,0.44
6515.00,0.44
6514.00,0.45
6513.00,0.45
6512.00,0.45
6511.00,0.45
6510.00,0.45
6509.00,0.45
6508.00,0.45
6507.00,0.45
6506.00,0.45
6505.00,0.45
6504.00,0.45
6503.00,0.45
6502.00,0.45
6501.00,0.46
6500.00,0.46
6499.00,0.46
6498.00,0.46
6497.00,0.46
6496.00,0.46
6495.00,0.46
6494.00,0.46
6493.00,0.46
6492.00,0.46
6491.00,0.46
6490.00,0.46
6489.00,0.46
6488.00,0.46
6487.00,0.46
6486.00,0.46
6485.00,0.46
6484.00,0.46
6483.00,0.46
6482.00,0.46
6481.00,0.46
6480.00,0.46
6479.00,0.46
6478.00,0.46
6477.00,0.46
6476.00,0.46
6475.00,0.46
6474.00,0.46
6473.00,0.46
6472.00,0.46
6471.00,0.46
6470.00,0.46
6469.00,0.46
6468.00,0.46
6467.00,0.46
6466.00,0.46
6465.00,0.46
6464.00,0.46
6463.00,0.46
6462.00,0.46
6461.00,0.46
6460.00,0.46
6459.00,0.47
6458.00,0.47
6457.00,0.47
6456.00,0.47
6455.00,0.47
6454.00,0.47
6453.00,0.47
6452.00,0.47
6451.00,0.47
6450.00,0.47
6449.00,0.47
6448.00,0.47
6447.00,0.47
6446.00,0.47
6445.00,0.47
6444.00,0.47
6443.00,0.47
6442.00,0.47
6441.00,0.48
6440.00,0.48
6439.00,0.48
6438.00,0.48
6437.00,0.48
6436.00,0.48
6435.00,0.48
6434.00,0.48
6433.00,0.48
6432.00,0.48
6431.00,0.48
6430.00,0.48
6429.00,0.48
6428.00,0.48
6427.00,0.48
6426.00,0.48
6425.00,0.48
6424.00,0.48
6423.00,0.48
6422.00,0.48
6421.00,0.48
6420.00,0.48
6419.00,0.48
6418.00,0.48
6417.00,0.49
6416.00,0.49
6415.00,0.49
6414.00,0.49
6413.00,0.49
6412.00,0.49
6411.00,0.49
6410.00,0.49
6409.00,0.49
6408.00,0.49
6407.00,0.49
6406.00,0.49
6405.00,0.49
6404.00,0.49
6403.00,0.49
6402.00,0.49
6401.00,0.49
6400.00,0.49
6399.00,0.48
6398.00,0.48
6397.00,0.48
6396.00,0.48
6395.00,0.48
6394.00,0.48
6393.00,0.48
6392.00,0.48
6391.00,0.48
6390.00,0.48
6389.00,0.48
6388.00,0.49
6387.00,0.49
6386.00,0.49
6385.00,0.49
6384.00,0.49
6383.00,0.49
6382.00,0.49
6381.00,0.49
6380.00,0.49
6379.00,0.49
6378.00,0.49
6377.00,0.49
6376.00,0.49
6375.00,0.49
6374.00,0.50
6373.00,0.50
6372.00,0.50
6371.00,0.50
6370.00,0.50
6369.00,0.50
6368.00,0.50
6367.00,0.50
6366.00,0.50
6365.00,0.50
6364.00,0.50
6363.00,0.50
6362.00,0.50
6361.00,0.50
6360.00,0.50
6359.00,0.50
6358.00,0.50
6357.00,0.50
6356.00,0.50
6355.00,0.50
6354.00,0.50
6353.00,0.50
6352.00,0.50
6351.00,0.50
6350.00,0.50
6349.00,0.50
6348.00,0.50
6347.00,0.50
6346.00,0.50
6345.00,0.51
6344.00,0.51
6343.00,0.51
6342.00,0.51
6341.00,0.51
6340.00,0.51
6339.00,0.51
6338.00,0.51
6337.00,0.51
6336.00,0.51
6335.00,0.51
6334.00,0.51
6333.00,0.51
6332.00,0.51
6331.00,0.51
6330.00,0.51
6329.00,0.52
6328.00,0.52
6327.00,0.52
6326.00,0.52
6325.00,0.52
6324.00,0.52
6323.00,0.52
6322.00,0.52
6321.00,0.52
6320.00,0.52
6319.00,0.52
6318.00,0.52
6317.00,0.52
6316.00,0.52
6315.00,0.52
6314.00,0.52
6313.00,0.52
6312.00,0.52
6311.00,0.52
6310.00,0.52
6309.00,0.52
6308.00,0.52
6307.00,0.52
6306.00,0.52
6305.00,0.52
6304.00,0.52
6303.00,0.52
6302.00,0.52
6301.00,0.53
6300.00,0.53
6299.00,0.53
6298.00,0.53
6297.00,0.53
6296.00,0.53
6295.00,0.53
6294.00,0.53
6293.00,0.53
6292.00,0.53
6291.00,0.54
6290.00,0.54
6289.00,0.54
6288.00,0.54
6287.00,0.54
6286.00,0.54
6285.00,0.54
6284.00,0.54
6283.00,0.54
6282.00,0.54
6281.00,0.54
6280.00,0.54
6279.00,0.55
6278.00,0.55
6277.00,0.55
6276.00,0.55
6275.00,0.55
6274.00,0.55
6273.00,0.55
6272.00,0.55
6271.00,0.55
6270.00,0.55
6269.00,0.55
6268.00,0.55
6267.00,0.55
6266.00,0.55
6265.00,0.55
6264.00,0.55
6263.00,0.55
6262.00,0.55
6261.00,0.55
6260.00,0.56
6259.00,0.56
6258.00,0.56
6257.00,0.56
6256.00,0.56
6255.00,0.56
6254.00,0.56
6253.00,0.56
6252.00,0.56
6251.00,0.56
6250.00,0.56
6249.00,0.56
6248.00,0.56
6247.00,0.56
6246.00,0.56
6245.00,0.56
6244.00,0.56
6243.00,0.56
6242.00,0.56
6241.00,0.56
6240.00,0.56
6239.00,0.57
6238.00,0.57
6237.00,0.57
6236.00,0.57
6235.00,0.57
6234.00,0.57
6233.00,0.57
6232.00,0.57
6231.00,0.57
6230.00,0.57
6229.00,0.57
6228.00,0.57
6227.00,0.57
6226.00,0.57
6225.00,0.57
6224.00,0.57
6223.00,0.57
6222.00,0.57
6221.00,0.58
6220.00,0.58
6219.00,0.58
6218.00,0.58
6217.00,0.58
6216.00,0.58
6215.00,0.58
6214.00,0.58
6213.00,0.58
6212.00,0.58
6211.00,0.59
6210.00,0.59
6209.00,0.59
6208.00,0.59
6207.00,0.59
6206.00,0.59
6205.00,0.59
6204.00,0.59
6203.00,0.59
6202.00,0.59
6201.00,0.59
6200.00,0.59
6199.00,0.59
6198.00,0.59
6197.00,0.59
6196.00,0.60
6195.00,0.60
6194.00,0.60
6193.00,0.60
6192.00,0.60
6191.00,0.60
6190.00,0.60
6189.00,0.60
6188.00,0.60
6187.00,0.60
6186.00,0.60
6185.00,0.60
6184.00,0.60
6183.00,0.61
6182.00,0.61
6181.00,0.61
6180.00,0.61
6179.00,0.61
6178.00,0.61
6177.00,0.61
6176.00,0.61
6175.00,0.61
6174.00,0.62
6173.00,0.62
6172.00,0.62
6171.00,0.62
6170.00,0.62
6169.00,0.62
6168.00,0.62
6167.00,0.62
6166.00,0.62
6165.00,0.62
6164.00,0.62
6163.00,0.63
6162.00,0.63
6161.00,0.63
6160.00,0.63
6159.00,0.63
6158.00,0.63
6157.00,0.63
6156.00,0.63
6155.00,0.63
6154.00,0.63
6153.00,0.63
6152.00,0.63
6151.00,0.63
6150.00,0.63
6149.00,0.63
6148.00,0.64
6147.00,0.64
6146.00,0.64
6145.00,0.64
6144.00,0.64
6143.00,0.64
6142.00,0.64
6141.00,0.64
6140.00,0.64
6139.00,0.64
6138.00,0.64
6137.00,0.64
6136.00,0.65
6135.00,0.65
6134.00,0.65
6133.00,0.65
6132.00,0.65
6131.00,0.65
6130.00,0.65
6129.00,0.65
6128.00,0.65
6127.00,0.65
6126.00,0.65
6125.00,0.65
6124.00,0.66
6123.00,0.66
6122.00,0.66
6121.00,0.66
6120.00,0.66
6119.00,0.66
6118.00,0.66
6117.00,0.66
6116.00,0.66
6115.00,0.66
6114.00,0.67
6113.00,0.67
6112.00,0.67
6111.00,0.67
6110.00,0.67
6109.00,0.67
6108.00,0.67
6107.00,0.67
6106.00,0.67
6105.00,0.67
6104.00,0.67
6103.00,0.67
6102.00,0.67
6101.00,0.67
6100.00,0.68
6099.00,0.68
6098.00,0.68
6097.00,0.68
6096.00,0.68
6095.00,0.68
6094.00,0.68
6093.00,0.68
6092.00,0.68
6091.00,0.68
6090.00,0.68
6089.00,0.68
6088.00,0.68
6087.00,0.69
6086.00,0.69
6085.00,0.69
6084.00,0.69
6083.00,0.69
6082.00,0.69
6081.00,0.69
6080.00,0.69
6079.00,0.69
6078.00,0.69
6077.00,0.69
6076.00,0.69
6075.00,0.69
6074.00,0.69
6073.00,0.69
6072.00,0.69
6071.00,0.70
6070.00,0.70
6069.00,0.70
6068.00,0.70
6067.00,0.70
6066.00,0.70
6065.00,0.70
6064.00,0.70
6063.00,0.70
6062.00,0.70
6061.00,0.70
6060.00,0.70
6059.00,0.70
6058.00,0.70
6057.00,0.70
6056.00,0.70
6055.00,0.71
6054.00,0.71
6053.00,0.71
6052.00,0.71
6051.00,0.71
6050.00,0.71
6049.00,0.71
6048.00,0.71
6047.00,0.71
6046.00,0.71
6045.00,0.71
6044.00,0.71
6043.00,0.71
6042.00,0.71
6041.00,0.71
6040.00,0.71
6039.00,0.71
6038.00,0.71
6037.00,0.71
6036.00,0.71
6035.00,0.71
6034.00,0.71
6033.00,0.71
6032.00,0.71
6031.00,0.71
6030.00,0.71
6029.00,0.71
6028.00,0.71
6027.00,0.71
6026.00,0.71
6025.00,0.71
6024.00,0.71
6023.00,0.71
6022.00,0.71
6021.00,0.71
6020.00,0.71
6019.00,0.71
6018.00,0.71
6017.00,0.71
6016.00,0.71
6015.00,0.71
6014.00,0.71
6013.00,0.71
6012.00,0.71
6011.00,0.71
6010.00,0.71
6009.00,0.71
6008.00,0.71
6007.00,0.71
6006.00,0.71
6005.00,0.71
6004.00,0.71
6003.00,0.71
6002.00,0.71
6001.00,0.71
6000.00,0.71
5999.00,0.71
5998.00,0.71
5997.00,0.71
5996.00,0.71
5995.00,0.70
5994.00,0.70
5993.00,0.70
5992.00,0.70
5991.00,0.70
5990.00,0.70
5989.00,0.70
5988.00,0.70
5987.00,0.70
5986.00,0.69
5985.00,0.69
5984.00,0.69
5983.00,0.69
5982.00,0.69
5981.00,0.69
5980.00,0.68
5979.00,0.68
5978.00,0.68
5977.00,0.68
5976.00,0.68
5975.00,0.67
5974.00,0.67
5973.00,0.67
5972.00,0.66
5971.00,0.66
5970.00,0.66
5969.00,0.65
5968.00,0.65
5967.00,0.65
5966.00,0.64
5965.00,0.64
5964.00,0.63
5963.00,0.63
5962.00,0.63
5961.00,0.62
5960.00,0.62
5959.00,0.61
5958.00,0.61
5957.00,0.60
5956.00,0.60
5955.00,0.59
5954.00,0.59
5953.00,0.59
5952.00,0.58
5951.00,0.58
5950.00,0.58
5949.00,0.57
5948.00,0.57
5947.00,0.57
5946.00,0.57
5945.00,0.56
5944.00,0.56
5943.00,0.56
5942.00,0.56
5941.00,0.56
5940.00,0.56
5939.00,0.56
5938.00,0.56
5937.00,0.56
5936.00,0.56
5935.00,0.56
5934.00,0.55
5933.00,0.55
5932.00,0.55
5931.00,0.55
5930.00,0.55
5929.00,0.55
5928.00,0.55
5927.00,0.55
5926.00,0.55
5925.00,0.55
5924.00,0.55
5923.00,0.55
5922.00,0.55
5921.00,0.55
5920.00,0.54
5919.00,0.54
5918.00,0.54
5917.00,0.54
5916.00,0.54
5915.00,0.54
5914.00,0.53
5913.00,0.53
5912.00,0.53
5911.00,0.53
5910.00,0.53
5909.00,0.53
5908.00,0.52
5907.00,0.52
5906.00,0.52
5905.00,0.52
5904.00,0.52
5903.00,0.52
5902.00,0.52
5901.00,0.52
5900.00,0.52
5899.00,0.52
5898.00,0.52
5897.00,0.52
5896.00,0.52
5895.00,0.52
5894.00,0.52
5893.00,0.53
5892.00,0.53
5891.00,0.53
5890.00,0.53
5889.00,0.53
5888.00,0.53
5887.00,0.54
5886.00,0.54
5885.00,0.54
5884.00,0.54
5883.00,0.54
5882.00,0.55
5881.00,0.55
5880.00,0.55
5879.00,0.55
5878.00,0.55
5877.00,0.55
5876.00,0.55
5875.00,0.56
5874.00,0.56
5873.00,0.56
5872.00,0.56
5871.00,0.56
5870.00,0.56
5869.00,0.56
5868.00,0.56
5867.00,0.56
5866.00,0.57
5865.00,0.57
5864.00,0.57
5863.00,0.57
5862.00,0.57
5861.00,0.57
5860.00,0.57
5859.00,0.57
5858.00,0.58
5857.00,0.58
5856.00,0.58
5855.00,0.58
5854.00,0.58
5853.00,0.58
5852.00,0.58
5851.00,0.58
5850.00,0.58
5849.00,0.58
5848.00,0.58
5847.00,0.58
5846.00,0.58
5845.00,0.58
5844.00,0.58
5843.00,0.58
5842.00,0.58
5841.00,0.58
5840.00,0.58
5839.00,0.58
5838.00,0.58
5837.00,0.58
5836.00,0.58
5835.00,0.58
5834.00,0.58
5833.00,0.58
5832.00,0.58
5831.00,0.58
5830.00,0.58
5829.00,0.58
5828.00,0.58
5827.00,0.58
5826.00,0.58
5825.00,0.58
5824.00,0.58
5823.00,0.58
5822.00,0.58
5821.00,0.58
5820.00,0.58
5819.00,0.58
5818.00,0.58
5817.00,0.58
5816.00,0.58
5815.00,0.58
5814.00,0.58
5813.00,0.58
5812.00,0.58
5811.00,0.58
5810.00,0.58
5809.00,0.58
5808.00,0.58
5807.00,0.58
5806.00,0.58
5805.00,0.58
5804.00,0.58
5803.00,0.58
5802.00,0.58
5801.00,0.58
5800.00,0.58
5799.00,0.58
5798.00,0.58
5797.00,0.57
5796.00,0.57
5795.00,0.57
5794.00,0.57
5793.00,0.57
5792.00,0.57
5791.00,0.57
5790.00,0.57
5789.00,0.57
5788.00,0.56
5787.00,0.56
5786.00,0.56
5785.00,0.56
5784.00,0.56
5783.00,0.56
5782.00,0.56
5781.00,0.56
5780.00,0.56
5779.00,0.55
5778.00,0.55
5777.00,0.55
5776.00,0.55
5775.00,0.55
5774.00,0.55
5773.00,0.55
5772.00,0.55
5771.00,0.55
5770.00,0.55
5769.00,0.55
5768.00,0.55
5767.00,0.55
5766.00,0.55
5765.00,0.55
5764.00,0.56
5763.00,0.56
5762.00,0.56
5761.00,0.56
5760.00,0.56
5759.00,0.56
5758.00,0.56
5757.00,0.56
5756.00,0.57
5755.00,0.57
5754.00,0.57
5753.00,0.57
5752.00,0.57
5751.00,0.58
5750.00,0.58
5749.00,0.58
5748.00,0.58
5747.00,0.59
5746.00,0.59
5745.00,0.59
5744.00,0.59
5743.00,0.59
5742.00,0.60
5741.00,0.60
5740.00,0.60
5739.00,0.60
5738.00,0.60
5737.00,0.61
5736.00,0.61
5735.00,0.61
5734.00,0.61
5733.00,0.61
5732.00,0.61
5731.00,0.61
5730.00,0.61
5729.00,0.62
5728.00,0.62
5727.00,0.62
5726.00,0.62
5725.00,0.62
5724.00,0.62
5723.00,0.62
5722.00,0.62
5721.00,0.62
5720.00,0.62
5719.00,0.62
5718.00,0.62
5717.00,0.62
5716.00,0.62
5715.00,0.62
5714.00,0.62
5713.00,0.62
5712.00,0.62
5711.00,0.62
5710.00,0.62
5709.00,0.62
5708.00,0.62
5707.00,0.62
5706.00,0.62
5705.00,0.62
5704.00,0.62
5703.00,0.62
5702.00,0.61
5701.00,0.61
5700.00,0.61
5699.00,0.61
5698.00,0.61
5697.00,0.61
5696.00,0.61
5695.00,0.61
5694.00,0.61
5693.00,0.61
5692.00,0.61
5691.00,0.60
5690.00,0.60
5689.00,0.60
5688.00,0.60
5687.00,0.60
5686.00,0.60
5685.00,0.60
5684.00,0.60
5683.00,0.60
5682.00,0.60
5681.00,0.60
5680.00,0.60
5679.00,0.60
5678.00,0.60
5677.00,0.60
5676.00,0.60
5675.00,0.60
5674.00,0.60
5673.00,0.60
5672.00,0.60
5671.00,0.60
5670.00,0.60
5669.00,0.60
5668.00,0.60
5667.00,0.60
5666.00,0.60
5665.00,0.60
5664.00,0.60
5663.00,0.60
5662.00,0.60
5661.00,0.60
5660.00,0.60
5659.00,0.60
5658.00,0.61
5657.00,0.61
5656.00,0.61
5655.00,0.61
5654.00,0.61
5653.00,0.61
5652.00,0.61
5651.00,0.61
5650.00,0.61
5649.00,0.62
5648.00,0.62
5647.00,0.62
5646.00,0.62
5645.00,0.62
5644.00,0.62
5643.00,0.62
5642.00,0.62
5641.00,0.63
5640.00,0.63
5639.00,0.63
5638.00,0.63
5637.00,0.63
5636.00,0.63
5635.00,0.63
5634.00,0.63
5633.00,0.64
5632.00,0.64
5631.00,0.64
5630.00,0.64
5629.00,0.64
5628.00,0.64
5627.00,0.64
5626.00,0.64
5625.00,0.64
5624.00,0.64
5623.00,0.64
5622.00,0.65
5621.00,0.65
5620.00,0.65
5619.00,0.65
5618.00,0.65
5617.00,0.65
5616.00,0.65
5615.00,0.65
5614.00,0.65
5613.00,0.65
5612.00,0.66
5611.00,0.66
5610.00,0.66
5609.00,0.66
5608.00,0.66
5607.00,0.66
5606.00,0.66
5605.00,0.66
5604.00,0.66
5603.00,0.66
5602.00,0.67
5601.00,0.67
5600.00,0.67
5599.00,0.67
5598.00,0.67
5597.00,0.67
5596.00,0.67
5595.00,0.67
5594.00,0.68
5593.00,0.68
5592.00,0.68
5591.00,0.68
5590.00,0.68
5589.00,0.68
5588.00,0.68
5587.00,0.68
5586.00,0.68
5585.00,0.68
5584.00,0.68
5583.00,0.69
5582.00,0.69
5581.00,0.69
5580.00,0.69
5579.00,0.69
5578.00,0.69
5577.00,0.69
5576.00,0.69
5575.00,0.69
5574.00,0.69
5573.00,0.69
5572.00,0.69
5571.00,0.69
5570.00,0.69
5569.00,0.70
5568.00,0.70
5567.00,0.70
5566.00,0.70
5565.00,0.70
5564.00,0.70
5563.00,0.70
5562.00,0.70
5561.00,0.70
5560.00,0.70
5559.00,0.70
5558.00,0.70
5557.00,0.70
5556.00,0.70
5555.00,0.71
5554.00,0.71
5553.00,0.71
5552.00,0.71
5551.00,0.71
5550.00,0.71
5549.00,0.71
5548.00,0.71
5547.00,0.71
5546.00,0.71
5545.00,0.71
5544.00,0.71
5543.00,0.71
5542.00,0.71
5541.00,0.71
5540.00,0.71
5539.00,0.71
5538.00,0.71
5537.00,0.71
5536.00,0.71
5535.00,0.71
5534.00,0.72
5533.00,0.72
5532.00,0.72
5531.00,0.72
5530.00,0.72
5529.00,0.72
5528.00,0.72
5527.00,0.72
5526.00,0.72
5525.00,0.72
5524.00,0.72
5523.00,0.72
5522.00,0.72
5521.00,0.72
5520.00,0.72
5519.00,0.72
5518.00,0.72
5517.00,0.72
5516.00,0.72
5515.00,0.72
5514.00,0.72
5513.00,0.72
5512.00,0.72
5511.00,0.72
5510.00,0.72
5509.00,0.72
5508.00,0.72
5507.00,0.72
5506.00,0.72
5505.00,0.72
5504.00,0.72
5503.00,0.73
5502.00,0.73
5501.00,0.73
5500.00,0.73
5499.00,0.73
5498.00,0.73
5497.00,0.73
5496.00,0.73
5495.00,0.73
5494.00,0.73
5493.00,0.73
5492.00,0.73
5491.00,0.73
5490.00,0.73
5489.00,0.73
5488.00,0.73
5487.00,0.73
5486.00,0.74
5485.00,0.74
5484.00,0.74
5483.00,0.74
5482.00,0.74
5481.00,0.74
5480.00,0.74
5479.00,0.74
5478.00,0.74
5477.00,0.74
5476.00,0.74
5475.00,0.74
5474.00,0.74
5473.00,0.74
5472.00,0.74
5471.00,0.74
5470.00,0.74
5469.00,0.74
5468.00,0.75
5467.00,0.75
5466.00,0.75
5465.00,0.75
5464.00,0.75
5463.00,0.75
5462.00,0.75
5461.00,0.75
5460.00,0.75
5459.00,0.75
5458.00,0.75
5457.00,0.75
5456.00,0.76
5455.00,0.76
5454.00,0.76
5453.00,0.76
5452.00,0.76
5451.00,0.76
5450.00,0.76
5449.00,0.76
5448.00,0.76
5447.00,0.76
5446.00,0.76
5445.00,0.76
5444.00,0.76
5443.00,0.76
5442.00,0.76
5441.00,0.76
5440.00,0.76
5439.00,0.76
5438.00,0.76
5437.00,0.76
5436.00,0.76
5435.00,0.76
5434.00,0.76
5433.00,0.76
5432.00,0.76
5431.00,0.76
5430.00,0.76
5429.00,0.76
5428.00,0.76
5427.00,0.76
5426.00,0.76
5425.00,0.76
5424.00,0.77
5423.00,0.77
5422.00,0.77
5421.00,0.77
5420.00,0.77
5419.00,0.77
5418.00,0.77
5417.00,0.76
5416.00,0.76
5415.00,0.76
5414.00,0.76
5413.00,0.76
5412.00,0.76
5411.00,0.76
5410.00,0.76
5409.00,0.76
5408.00,0.76
5407.00,0.76
5406.00,0.76
5405.00,0.76
5404.00,0.76
5403.00,0.76
5402.00,0.76
5401.00,0.76
5400.00,0.76
5399.00,0.76
5398.00,0.76
5397.00,0.76
5396.00,0.76
5395.00,0.76
5394.00,0.76
5393.00,0.76
5392.00,0.76
5391.00,0.76
5390.00,0.76
5389.00,0.76
5388.00,0.76
5387.00,0.76
5386.00,0.76
5385.00,0.75
5384.00,0.75
5383.00,0.75
5382.00,0.75
5381.00,0.75
5380.00,0.75
5379.00,0.75
5378.00,0.75
5377.00,0.74
5376.00,0.74
5375.00,0.74
5374.00,0.74
5373.00,0.74
5372.00,0.73
5371.00,0.73
5370.00,0.73
5369.00,0.73
5368.00,0.72
5367.00,0.72
5366.00,0.72
5365.00,0.72
5364.00,0.71
5363.00,0.71
5362.00,0.71
5361.00,0.70
5360.00,0.70
5359.00,0.70
5358.00,0.69
5357.00,0.69
5356.00,0.68
5355.00,0.68
5354.00,0.68
5353.00,0.67
5352.00,0.67
5351.00,0.66
5350.00,0.66
5349.00,0.65
5348.00,0.65
5347.00,0.64
5346.00,0.64
5345.00,0.63
5344.00,0.63
5343.00,0.62
5342.00,0.62
5341.00,0.61
5340.00,0.60
5339.00,0.60
5338.00,0.59
5337.00,0.59
5336.00,0.58
5335.00,0.58
5334.00,0.57
5333.00,0.57
5332.00,0.56
5331.00,0.56
5330.00,0.55
5329.00,0.55
5328.00,0.54
5327.00,0.53
5326.00,0.53
5325.00,0.52
5324.00,0.52
5323.00,0.51
5322.00,0.50
5321.00,0.50
5320.00,0.49
5319.00,0.49
5318.00,0.48
5317.00,0.48
5316.00,0.47
5315.00,0.46
5314.00,0.46
5313.00,0.45
5312.00,0.45
5311.00,0.44
5310.00,0.44
5309.00,0.43
5308.00,0.43
5307.00,0.42
5306.00,0.42
5305.00,0.42
5304.00,0.41
5303.00,0.41
5302.00,0.40
5301.00,0.40
5300.00,0.40
5299.00,0.39
5298.00,0.39
5297.00,0.39
5296.00,0.38
5295.00,0.38
5294.00,0.38
5293.00,0.38
5292.00,0.37
5291.00,0.37
5290.00,0.37
5289.00,0.37
5288.00,0.37
5287.00,0.37
5286.00,0.36
5285.00,0.36
5284.00,0.36
5283.00,0.36
5282.00,0.36
5281.00,0.36
5280.00,0.36
5279.00,0.36
5278.00,0.35
5277.00,0.35
5276.00,0.35
5275.00,0.35
5274.00,0.35
5273.00,0.35
5272.00,0.35
5271.00,0.35
5270.00,0.35
5269.00,0.35
5268.00,0.35
5267.00,0.35
5266.00,0.35
5265.00,0.35
5264.00,0.35
5263.00,0.35
5262.00,0.34
5261.00,0.34
5260.00,0.34
5259.00,0.34
5258.00,0.34
5257.00,0.34
5256.00,0.34
5255.00,0.34
5254.00,0.34
5253.00,0.34
5252.00,0.34
5251.00,0.34
5250.00,0.34
5249.00,0.34
5248.00,0.34
5247.00,0.34
5246.00,0.34
5245.00,0.34
5244.00,0.34
5243.00,0.34
5242.00,0.34
5241.00,0.34
5240.00,0.34
5239.00,0.34
5238.00,0.34
5237.00,0.34
5236.00,0.34
5235.00,0.34
5234.00,0.34
5233.00,0.34
5232.00,0.34
5231.00,0.34
5230.00,0.34
5229.00,0.34
5228.00,0.34
5227.00,0.34
5226.00,0.34
5225.00,0.34
5224.00,0.34
5223.00,0.34
5222.00,0.34
5221.00,0.34
5220.00,0.34
5219.00,0.34
5218.00,0.34
5217.00,0.35
5216.00,0.35
5215.00,0.35
5214.00,0.35
5213.00,0.35
5212.00,0.35
5211.00,0.35
5210.00,0.35
5209.00,0.35
5208.00,0.35
5207.00,0.35
5206.00,0.35
5205.00,0.35
5204.00,0.35
5203.00,0.35
5202.00,0.35
5201.00,0.35
5200.00,0.35
5199.00,0.35
5198.00,0.35
5197.00,0.35
5196.00,0.35
5195.00,0.35
5194.00,0.35
5193.00,0.35
5192.00,0.35
5191.00,0.35
5190.00,0.35
5189.00,0.35
5188.00,0.35
5187.00,0.35
5186.00,0.35
5185.00,0.35
5184.00,0.35
5183.00,0.35
5182.00,0.35
5181.00,0.35
5180.00,0.35
5179.00,0.35
5178.00,0.35
5177.00,0.35
5176.00,0.35
5175.00,0.35
5174.00,0.35
5173.00,0.35
5172.00,0.35
5171.00,0.35
5170.00,0.35
5169.00,0.35
5168.00,0.36
5167.00,0.36
5166.00,0.36
5165.00,0.36
5164.00,0.36
5163.00,0.36
5162.00,0.36
5161.00,0.36
5160.00,0.36
5159.00,0.36
5158.00,0.36
5157.00,0.36
5156.00,0.36
5155.00,0.36
5154.00,0.36
5153.00,0.36
5152.00,0.36
5151.00,0.36
5150.00,0.36
5149.00,0.36
5148.00,0.36
5147.00,0.36
5146.00,0.36
5145.00,0.36
5144.00,0.36
5143.00,0.36
5142.00,0.36
5141.00,0.36
5140.00,0.36
5139.00,0.36
5138.00,0.36
5137.00,0.36
5136.00,0.36
5135.00,0.36
5134.00,0.36
5133.00,0.36
5132.00,0.36
5131.00,0.36
5130.00,0.36
5129.00,0.36
5128.00,0.36
5127.00,0.37
5126.00,0.37
5125.00,0.37
5124.00,0.37
5123.00,0.37
5122.00,0.37
5121.00,0.37
5120.00,0.37
5119.00,0.37
5118.00,0.37
5117.00,0.37
5116.00,0.37
5115.00,0.37
5114.00,0.37
5113.00,0.37
5112.00,0.37
5111.00,0.37
5110.00,0.38
5109.00,0.38
5108.00,0.38
5107.00,0.38
5106.00,0.38
5105.00,0.38
5104.00,0.38
5103.00,0.38
5102.00,0.38
5101.00,0.38
5100.00,0.38
5099.00,0.38
5098.00,0.38
5097.00,0.38
5096.00,0.38
5095.00,0.38
5094.00,0.38
5093.00,0.38
5092.00,0.38
5091.00,0.38
5090.00,0.38
5089.00,0.38
5088.00,0.38
5087.00,0.38
5086.00,0.38
5085.00,0.38
5084.00,0.38
5083.00,0.39
5082.00,0.39
5081.00,0.39
5080.00,0.39
5079.00,0.39
5078.00,0.39
5077.00,0.39
5076.00,0.39
5075.00,0.39
5074.00,0.39
5073.00,0.39
5072.00,0.39
5071.00,0.39
5070.00,0.39
5069.00,0.39
5068.00,0.39
5067.00,0.39
5066.00,0.39
5065.00,0.39
5064.00,0.39
5063.00,0.39
5062.00,0.39
5061.00,0.39
5060.00,0.39
5059.00,0.39
5058.00,0.39
5057.00,0.39
5056.00,0.39
5055.00,0.39
5054.00,0.39
5053.00,0.39
5052.00,0.39
5051.00,0.39
5050.00,0.40
5049.00,0.40
5048.00,0.40
5047.00,0.40
5046.00,0.40
5045.00,0.40
5044.00,0.40
5043.00,0.40
5042.00,0.40
5041.00,0.40
5040.00,0.40
5039.00,0.40
5038.00,0.40
5037.00,0.40
5036.00,0.40
5035.00,0.40
5034.00,0.40
5033.00,0.40
5032.00,0.40
5031.00,0.40
5030.00,0.40
5029.00,0.40
5028.00,0.40
5027.00,0.40
5026.00,0.41
5025.00,0.41
5024.00,0.41
5023.00,0.41
5022.00,0.41
5021.00,0.41
5020.00,0.41
5019.00,0.41
5018.00,0.41
5017.00,0.41
5016.00,0.41
5015.00,0.41
5014.00,0.41
5013.00,0.42
5012.00,0.42
5011.00,0.42
5010.00,0.42
5009.00,0.42
5008.00,0.42
5007.00,0.42
5006.00,0.42
5005.00,0.42
5004.00,0.42
5003.00,0.42
5002.00,0.42
5001.00,0.43
5000.00,0.43
4999.00,0.43
4998.00,0.43
4997.00,0.43
4996.00,0.43
4995.00,0.43
4994.00,0.43
4993.00,0.43
4992.00,0.43
4991.00,0.43
4990.00,0.43
4989.00,0.43
4988.00,0.43
4987.00,0.43
4986.00,0.43
4985.00,0.43
4984.00,0.43
4983.00,0.43
4982.00,0.43
4981.00,0.43
4980.00,0.43
4979.00,0.44
4978.00,0.44
4977.00,0.44
4976.00,0.44
4975.00,0.44
4974.00,0.44
4973.00,0.44
4972.00,0.44
4971.00,0.44
4970.00,0.44
4969.00,0.44
4968.00,0.44
4967.00,0.44
4966.00,0.44
4965.00,0.44
4964.00,0.44
4963.00,0.44
4962.00,0.44
4961.00,0.44
4960.00,0.44
4959.00,0.44
4958.00,0.45
4957.00,0.45
4956.00,0.45
4955.00,0.45
4954.00,0.45
4953.00,0.45
4952.00,0.45
4951.00,0.45
4950.00,0.45
4949.00,0.45
4948.00,0.45
4947.00,0.45
4946.00,0.45
4945.00,0.45
4944.00,0.45
4943.00,0.45
4942.00,0.46
4941.00,0.46
4940.00,0.46
4939.00,0.46
4938.00,0.46
4937.00,0.46
4936.00,0.46
4935.00,0.46
4934.00,0.46
4933.00,0.46
4932.00,0.46
4931.00,0.46
4930.00,0.46
4929.00,0.46
4928.00,0.46
4927.00,0.46
4926.00,0.46
4925.00,0.46
4924.00,0.46
4923.00,0.46
4922.00,0.46
4921.00,0.46
4920.00,0.46
4919.00,0.46
4918.00,0.46
4917.00,0.46
4916.00,0.46
4915.00,0.46
4914.00,0.46
4913.00,0.46
4912.00,0.46
4911.00,0.46
4910.00,0.46
4909.00,0.46
4908.00,0.46
4907.00,0.46
4906.00,0.46
4905.00,0.47
4904.00,0.47
4903.00,0.47
4902.00,0.47
4901.00,0.47
4900.00,0.47
4899.00,0.47
4898.00,0.47
4897.00,0.47
4896.00,0.47
4895.00,0.47
4894.00,0.47
4893.00,0.47
4892.00,0.47
4891.00,0.47
4890.00,0.47
4889.00,0.47
4888.00,0.47
4887.00,0.47
4886.00,0.47
4885.00,0.47
4884.00,0.47
4883.00,0.47
4882.00,0.47
4881.00,0.47
4880.00,0.47
4879.00,0.48
4878.00,0.48
4877.00,0.48
4876.00,0.48
4875.00,0.48
4874.00,0.48
4873.00,0.48
4872.00,0.48
4871.00,0.48
4870.00,0.48
4869.00,0.48
4868.00,0.48
4867.00,0.48
4866.00,0.48
4865.00,0.48
4864.00,0.48
4863.00,0.48
4862.00,0.48
4861.00,0.48
4860.00,0.48
4859.00,0.48
4858.00,0.48
4857.00,0.48
4856.00,0.48
4855.00,0.48
4854.00,0.48
4853.00,0.48
4852.00,0.49
4851.00,0.49
4850.00,0.49
4849.00,0.49
4848.00,0.49
4847.00,0.49
4846.00,0.49
4845.00,0.49
4844.00,0.49
4843.00,0.49
4842.00,0.49
4841.00,0.49
4840.00,0.49
4839.00,0.49
4838.00,0.49
4837.00,0.50
4836.00,0.50
4835.00,0.50
4834.00,0.50
4833.00,0.50
4832.00,0.50
4831.00,0.50
4830.00,0.50
4829.00,0.50
4828.00,0.50
4827.00,0.50
4826.00,0.50
4825.00,0.50
4824.00,0.50
4823.00,0.50
4822.00,0.50
4821.00,0.50
4820.00,0.50
4819.00,0.50
4818.00,0.50
4817.00,0.50
4816.00,0.50
4815.00,0.50
4814.00,0.50
4813.00,0.50
4812.00,0.50
4811.00,0.50
4810.00,0.50
4809.00,0.50
4808.00,0.50
4807.00,0.51
4806.00,0.51
4805.00,0.51
4804.00,0.51
4803.00,0.51
4802.00,0.51
4801.00,0.51
4800.00,0.51
4799.00,0.51
4798.00,0.51
4797.00,0.51
4796.00,0.51
4795.00,0.51
4794.00,0.51
4793.00,0.51
4792.00,0.52
4791.00,0.52
4790.00,0.52
4789.00,0.52
4788.00,0.52
4787.00,0.52
4786.00,0.52
4785.00,0.52
4784.00,0.52
4783.00,0.52
4782.00,0.52
4781.00,0.52
4780.00,0.52
4779.00,0.53
4778.00,0.53
4777.00,0.53
4776.00,0.53
4775.00,0.53
4774.00,0.53
4773.00,0.53
4772.00,0.53
4771.00,0.53
4770.00,0.53
4769.00,0.53
4768.00,0.53
4767.00,0.53
4766.00,0.54
4765.00,0.54
4764.00,0.54
4763.00,0.54
4762.00,0.54
4761.00,0.54
4760.00,0.54
4759.00,0.54
4758.00,0.55
4757.00,0.55
4756.00,0.55
4755.00,0.55
4754.00,0.55
4753.00,0.55
4752.00,0.55
4751.00,0.55
4750.00,0.55
4749.00,0.55
4748.00,0.56
4747.00,0.56
4746.00,0.56
4745.00,0.56
4744.00,0.56
4743.00,0.56
4742.00,0.56
4741.00,0.56
4740.00,0.56
4739.00,0.56
4738.00,0.56
4737.00,0.56
4736.00,0.56
4735.00,0.56
4734.00,0.56
4733.00,0.56
4732.00,0.56
4731.00,0.56
4730.00,0.57
4729.00,0.57
4728.00,0.57
4727.00,0.57
4726.00,0.57
4725.00,0.57
4724.00,0.57
4723.00,0.58
4722.00,0.58
4721.00,0.58
4720.00,0.58
4719.00,0.58
4718.00,0.58
4717.00,0.59
4716.00,0.59
4715.00,0.59
4714.00,0.59
4713.00,0.59
4712.00,0.59
4711.00,0.59
4710.00,0.59
4709.00,0.60
4708.00,0.60
4707.00,0.60
4706.00,0.60
4705.00,0.60
4704.00,0.60
4703.00,0.60
4702.00,0.60
4701.00,0.60
4700.00,0.60
4699.00,0.60
4698.00,0.60
4697.00,0.60
4696.00,0.60
4695.00,0.60
4694.00,0.60
4693.00,0.60
4692.00,0.61
4691.00,0.61
4690.00,0.61
4689.00,0.61
4688.00,0.61
4687.00,0.61
4686.00,0.61
4685.00,0.61
4684.00,0.61
4683.00,0.61
4682.00,0.62
4681.00,0.62
4680.00,0.62
4679.00,0.62
4678.00,0.62
4677.00,0.62
4676.00,0.62
4675.00,0.63
4674.00,0.63
4673.00,0.63
4672.00,0.63
4671.00,0.63
4670.00,0.63
4669.00,0.63
4668.00,0.63
4667.00,0.63
4666.00,0.63
4665.00,0.63
4664.00,0.63
4663.00,0.63
4662.00,0.63
4661.00,0.63
4660.00,0.63
4659.00,0.63
4658.00,0.64
4657.00,0.64
4656.00,0.64
4655.00,0.64
4654.00,0.64
4653.00,0.64
4652.00,0.64
4651.00,0.64
4650.00,0.64
4649.00,0.64
4648.00,0.64
4647.00,0.64
4646.00,0.64
4645.00,0.64
4644.00,0.65
4643.00,0.65
4642.00,0.65
4641.00,0.65
4640.00,0.65
4639.00,0.65
4638.00,0.65
4637.00,0.65
4636.00,0.65
4635.00,0.66
4634.00,0.66
4633.00,0.66
4632.00,0.66
4631.00,0.66
4630.00,0.66
4629.00,0.66
4628.00,0.66
4627.00,0.66
4626.00,0.66
4625.00,0.66
4624.00,0.67
4623.00,0.67
4622.00,0.67
4621.00,0.67
4620.00,0.67
4619.00,0.67
4618.00,0.67
4617.00,0.67
4616.00,0.67
4615.00,0.67
4614.00,0.67
4613.00,0.67
4612.00,0.67
4611.00,0.67
4610.00,0.67
4609.00,0.67
4608.00,0.67
4607.00,0.67
4606.00,0.67
4605.00,0.67
4604.00,0.67
4603.00,0.67
4602.00,0.67
4601.00,0.67
4600.00,0.67
4599.00,0.67
4598.00,0.67
4597.00,0.67
4596.00,0.67
4595.00,0.68
4594.00,0.68
4593.00,0.68
4592.00,0.68
4591.00,0.68
4590.00,0.68
4589.00,0.68
4588.00,0.68
4587.00,0.69
4586.00,0.69
4585.00,0.69
4584.00,0.69
4583.00,0.69
4582.00,0.69
4581.00,0.69
4580.00,0.69
4579.00,0.69
4578.00,0.69
4577.00,0.69
4576.00,0.69
4575.00,0.69
4574.00,0.69
4573.00,0.69
4572.00,0.69
4571.00,0.69
4570.00,0.69
4569.00,0.69
4568.00,0.69
4567.00,0.69
4566.00,0.70
4565.00,0.70
4564.00,0.70
4563.00,0.70
4562.00,0.70
4561.00,0.70
4560.00,0.70
4559.00,0.70
4558.00,0.70
4557.00,0.71
4556.00,0.71
4555.00,0.71
4554.00,0.71
4553.00,0.71
4552.00,0.71
4551.00,0.71
4550.00,0.71
4549.00,0.72
4548.00,0.72
4547.00,0.72
4546.00,0.72
4545.00,0.72
4544.00,0.72
4543.00,0.72
4542.00,0.72
4541.00,0.72
4540.00,0.72
4539.00,0.72
4538.00,0.72
4537.00,0.72
4536.00,0.72
4535.00,0.72
4534.00,0.72
4533.00,0.71
4532.00,0.71
4531.00,0.71
4530.00,0.71
4529.00,0.71
4528.00,0.71
4527.00,0.71
4526.00,0.71
4525.00,0.71
4524.00,0.71
4523.00,0.71
4522.00,0.71
4521.00,0.71
4520.00,0.71
4519.00,0.71
4518.00,0.71
4517.00,0.71
4516.00,0.71
4515.00,0.71
4514.00,0.71
4513.00,0.71
4512.00,0.71
4511.00,0.71
4510.00,0.71
4509.00,0.71
4508.00,0.71
4507.00,0.72
4506.00,0.72
4505.00,0.72
4504.00,0.72
4503.00,0.72
4502.00,0.72
4501.00,0.72
4500.00,0.72
4499.00,0.72
4498.00,0.72
4497.00,0.72
4496.00,0.71
4495.00,0.71
4494.00,0.71
4493.00,0.71
4492.00,0.71
4491.00,0.71
4490.00,0.71
4489.00,0.71
4488.00,0.71
4487.00,0.71
4486.00,0.71
4485.00,0.71
4484.00,0.71
4483.00,0.71
4482.00,0.70
4481.00,0.70
4480.00,0.70
4479.00,0.70
4478.00,0.70
4477.00,0.70
4476.00,0.70
4475.00,0.70
4474.00,0.69
4473.00,0.69
4472.00,0.69
4471.00,0.69
4470.00,0.69
4469.00,0.69
4468.00,0.69
4467.00,0.69
4466.00,0.68
4465.00,0.68
4464.00,0.68
4463.00,0.68
4462.00,0.68
4461.00,0.68
4460.00,0.67
4459.00,0.67
4458.00,0.67
4457.00,0.67
4456.00,0.67
4455.00,0.66
4454.00,0.66
4453.00,0.66
4452.00,0.65
4451.00,0.65
4450.00,0.65
4449.00,0.65
4448.00,0.64
4447.00,0.64
4446.00,0.64
4445.00,0.64
4444.00,0.63
4443.00,0.63
4442.00,0.63
4441.00,0.63
4440.00,0.62
4439.00,0.62
4438.00,0.62
4437.00,0.62
4436.00,0.62
4435.00,0.61
4434.00,0.61
4433.00,0.61
4432.00,0.61
4431.00,0.60
4430.00,0.60
4429.00,0.60
4428.00,0.60
4427.00,0.60
4426.00,0.60
4425.00,0.60
4424.00,0.60
4423.00,0.59
4422.00,0.59
4421.00,0.59
4420.00,0.59
4419.00,0.59
4418.00,0.59
4417.00,0.59
4416.00,0.59
4415.00,0.59
4414.00,0.59
4413.00,0.59
4412.00,0.59
4411.00,0.59
4410.00,0.59
4409.00,0.59
4408.00,0.59
4407.00,0.59
4406.00,0.59
4405.00,0.59
4404.00,0.59
4403.00,0.59
4402.00,0.59
4401.00,0.59
4400.00,0.60
4399.00,0.60
4398.00,0.60
4397.00,0.60
4396.00,0.60
4395.00,0.60
4394.00,0.60
4393.00,0.60
4392.00,0.60
4391.00,0.60
4390.00,0.61
4389.00,0.61
4388.00,0.61
4387.00,0.61
4386.00,0.61
4385.00,0.61
4384.00,0.61
4383.00,0.61
4382.00,0.61
4381.00,0.62
4380.00,0.62
4379.00,0.62
4378.00,0.62
4377.00,0.62
4376.00,0.62
4375.00,0.62
4374.00,0.62
4373.00,0.62
4372.00,0.62
4371.00,0.62
4370.00,0.62
4369.00,0.62
4368.00,0.62
4367.00,0.62
4366.00,0.62
4365.00,0.62
4364.00,0.62
4363.00,0.62
4362.00,0.62
4361.00,0.62
4360.00,0.62
4359.00,0.62
4358.00,0.62
4357.00,0.62
4356.00,0.62
4355.00,0.62
4354.00,0.62
4353.00,0.62
4352.00,0.62
4351.00,0.62
4350.00,0.62
4349.00,0.62
4348.00,0.62
4347.00,0.62
4346.00,0.62
4345.00,0.62
4344.00,0.62
4343.00,0.62
4342.00,0.62
4341.00,0.62
4340.00,0.62
4339.00,0.62
4338.00,0.62
4337.00,0.62
4336.00,0.62
4335.00,0.62
4334.00,0.62
4333.00,0.62
4332.00,0.62
4331.00,0.62
4330.00,0.63
4329.00,0.63
4328.00,0.63
4327.00,0.63
4326.00,0.63
4325.00,0.63
4324.00,0.63
4323.00,0.63
4322.00,0.63
4321.00,0.63
4320.00,0.63
4319.00,0.63
4318.00,0.64
4317.00,0.64
4316.00,0.64
4315.00,0.64
4314.00,0.64
4313.00,0.64
4312.00,0.64
4311.00,0.65
4310.00,0.65
4309.00,0.65
4308.00,0.65
4307.00,0.65
4306.00,0.66
4305.00,0.66
4304.00,0.66
4303.00,0.66
4302.00,0.66
4301.00,0.66
4300.00,0.66
4299.00,0.66
4298.00,0.67
4297.00,0.67
4296.00,0.67
4295.00,0.67
4294.00,0.67
4293.00,0.67
4292.00,0.67
4291.00,0.67
4290.00,0.67
4289.00,0.67
4288.00,0.67
4287.00,0.67
4286.00,0.67
4285.00,0.67
4284.00,0.68
4283.00,0.68
4282.00,0.68
4281.00,0.68
4280.00,0.67
4279.00,0.67
4278.00,0.67
4277.00,0.67
4276.00,0.67
4275.00,0.67
4274.00,0.67
4273.00,0.67
4272.00,0.67
4271.00,0.67
4270.00,0.67
4269.00,0.67
4268.00,0.67
4267.00,0.67
4266.00,0.67
4265.00,0.67
4264.00,0.67
4263.00,0.67
4262.00,0.67
4261.00,0.67
4260.00,0.67
4259.00,0.67
4258.00,0.67
4257.00,0.67
4256.00,0.67
4255.00,0.67
4254.00,0.67
4253.00,0.67
4252.00,0.67
4251.00,0.67
4250.00,0.67
4249.00,0.67
4248.00,0.67
4247.00,0.67
4246.00,0.67
4245.00,0.67
4244.00,0.67
4243.00,0.67
4242.00,0.67
4241.00,0.67
4240.00,0.67
4239.00,0.67
4238.00,0.68
4237.00,0.68
4236.00,0.68
4235.00,0.68
4234.00,0.68
4233.00,0.68
4232.00,0.68
4231.00,0.68
4230.00,0.68
4229.00,0.68
4228.00,0.68
4227.00,0.68
4226.00,0.68
4225.00,0.68
4224.00,0.69
4223.00,0.69
4222.00,0.69
4221.00,0.69
4220.00,0.69
4219.00,0.69
4218.00,0.69
4217.00,0.69
4216.00,0.69
4215.00,0.69
4214.00,0.69
4213.00,0.69
4212.00,0.69
4211.00,0.70
4210.00,0.70
4209.00,0.70
4208.00,0.70
4207.00,0.70
4206.00,0.70
4205.00,0.70
4204.00,0.70
4203.00,0.70
4202.00,0.70
4201.00,0.70
4200.00,0.70
4199.00,0.70
4198.00,0.70
4197.00,0.70
4196.00,0.70
4195.00,0.70
4194.00,0.70
4193.00,0.70
4192.00,0.70
4191.00,0.70
4190.00,0.70
4189.00,0.70
4188.00,0.70
4187.00,0.70
4186.00,0.70
4185.00,0.70
4184.00,0.70
4183.00,0.70
4182.00,0.70
4181.00,0.70
4180.00,0.70
4179.00,0.70
4178.00,0.70
4177.00,0.70
4176.00,0.70
4175.00,0.70
4174.00,0.70
4173.00,0.70
4172.00,0.70
4171.00,0.70
4170.00,0.70
4169.00,0.71
4168.00,0.71
4167.00,0.71
4166.00,0.71
4165.00,0.71
4164.00,0.70
4163.00,0.70
4162.00,0.70
4161.00,0.70
4160.00,0.70
4159.00,0.70
4158.00,0.70
4157.00,0.70
4156.00,0.70
4155.00,0.70
4154.00,0.70
4153.00,0.70
4152.00,0.70
4151.00,0.70
4150.00,0.70
4149.00,0.70
4148.00,0.70
4147.00,0.70
4146.00,0.71
4145.00,0.71
4144.00,0.71
4143.00,0.71
4142.00,0.71
4141.00,0.71
4140.00,0.71
4139.00,0.71
4138.00,0.71
4137.00,0.71
4136.00,0.71
4135.00,0.71
4134.00,0.71
4133.00,0.71
4132.00,0.71
4131.00,0.71
4130.00,0.71
4129.00,0.71
4128.00,0.71
4127.00,0.71
4126.00,0.72
4125.00,0.72
4124.00,0.72
4123.00,0.72
4122.00,0.72
4121.00,0.72
4120.00,0.72
4119.00,0.72
4118.00,0.72
4117.00,0.72
4116.00,0.72
4115.00,0.72
4114.00,0.72
4113.00,0.72
4112.00,0.72
4111.00,0.72
4110.00,0.72
4109.00,0.72
4108.00,0.72
4107.00,0.72
4106.00,0.72
4105.00,0.72
4104.00,0.72
4103.00,0.72
4102.00,0.72
4101.00,0.72
4100.00,0.72
4099.00,0.73
4098.00,0.73
4097.00,0.73
4096.00,0.73
4095.00,0.73
4094.00,0.73
4093.00,0.73
4092.00,0.73
4091.00,0.73
4090.00,0.73
4089.00,0.73
4088.00,0.73
4087.00,0.73
4086.00,0.73
4085.00,0.73
4084.00,0.73
4083.00,0.73
4082.00,0.73
4081.00,0.73
4080.00,0.73
4079.00,0.73
4078.00,0.73
4077.00,0.73
4076.00,0.73
4075.00,0.73
4074.00,0.73
4073.00,0.73
4072.00,0.73
4071.00,0.73
4070.00,0.73
4069.00,0.73
4068.00,0.73
4067.00,0.73
4066.00,0.73
4065.00,0.73
4064.00,0.73
4063.00,0.73
4062.00,0.73
4061.00,0.73
4060.00,0.73
4059.00,0.74
4058.00,0.74
4057.00,0.74
4056.00,0.74
4055.00,0.74
4054.00,0.74
4053.00,0.74
4052.00,0.74
4051.00,0.74
4050.00,0.75
4049.00,0.75
4048.00,0.75
4047.00,0.75
4046.00,0.75
4045.00,0.75
4044.00,0.75
4043.00,0.75
4042.00,0.75
4041.00,0.75
4040.00,0.75
4039.00,0.75
4038.00,0.75
4037.00,0.75
4036.00,0.75
4035.00,0.75
4034.00,0.75
4033.00,0.75
4032.00,0.75
4031.00,0.75
4030.00,0.75
4029.00,0.75
4028.00,0.75
4027.00,0.75
4026.00,0.75
4025.00,0.75
4024.00,0.75
4023.00,0.75
4022.00,0.75
4021.00,0.75
4020.00,0.75
4019.00,0.75
4018.00,0.75
4017.00,0.75
4016.00,0.75
4015.00,0.75
4014.00,0.75
4013.00,0.75
4012.00,0.75
4011.00,0.75
4010.00,0.76
4009.00,0.76
4008.00,0.76
4007.00,0.76
4006.00,0.76
4005.00,0.76
4004.00,0.76
4003.00,0.76
4002.00,0.76
4001.00,0.77
4000.00,0.77
