创建为新数据集,样品 324 用户 Administrator 日期 星期日, 七月 22 2018
cm-1,%T
10000.00,0.86
9999.00,0.85
9998.00,0.85
9997.00,0.84
9996.00,0.84
9995.00,0.83
9994.00,0.83
9993.00,0.82
9992.00,0.82
9991.00,0.81
9990.00,0.81
9989.00,0.81
9988.00,0.80
9987.00,0.80
9986.00,0.80
9985.00,0.80
9984.00,0.80
9983.00,0.80
9982.00,0.80
9981.00,0.80
9980.00,0.80
9979.00,0.80
9978.00,0.80
9977.00,0.80
9976.00,0.80
9975.00,0.80
9974.00,0.80
9973.00,0.80
9972.00,0.80
9971.00,0.81
9970.00,0.81
9969.00,0.81
9968.00,0.81
9967.00,0.81
9966.00,0.81
9965.00,0.80
9964.00,0.80
9963.00,0.80
9962.00,0.80
9961.00,0.80
9960.00,0.80
9959.00,0.80
9958.00,0.80
9957.00,0.79
9956.00,0.79
9955.00,0.79
9954.00,0.79
9953.00,0.79
9952.00,0.79
9951.00,0.79
9950.00,0.79
9949.00,0.79
9948.00,0.79
9947.00,0.79
9946.00,0.79
9945.00,0.79
9944.00,0.79
9943.00,0.78
9942.00,0.78
9941.00,0.78
9940.00,0.78
9939.00,0.78
9938.00,0.78
9937.00,0.78
9936.00,0.78
9935.00,0.78
9934.00,0.78
9933.00,0.77
9932.00,0.77
9931.00,0.77
9930.00,0.77
9929.00,0.77
9928.00,0.77
9927.00,0.77
9926.00,0.77
9925.00,0.77
9924.00,0.77
9923.00,0.77
9922.00,0.77
9921.00,0.78
9920.00,0.78
9919.00,0.78
9918.00,0.78
9917.00,0.78
9916.00,0.78
9915.00,0.79
9914.00,0.79
9913.00,0.79
9912.00,0.79
9911.00,0.79
9910.00,0.79
9909.00,0.79
9908.00,0.78
9907.00,0.78
9906.00,0.78
9905.00,0.78
9904.00,0.78
9903.00,0.77
9902.00,0.77
9901.00,0.77
9900.00,0.77
9899.00,0.77
9898.00,0.77
9897.00,0.77
9896.00,0.77
9895.00,0.77
9894.00,0.77
9893.00,0.77
9892.00,0.77
9891.00,0.77
9890.00,0.77
9889.00,0.77
9888.00,0.77
9887.00,0.77
9886.00,0.78
9885.00,0.78
9884.00,0.78
9883.00,0.78
9882.00,0.78
9881.00,0.78
9880.00,0.77
9879.00,0.77
9878.00,0.77
9877.00,0.77
9876.00,0.77
9875.00,0.77
9874.00,0.77
9873.00,0.77
9872.00,0.77
9871.00,0.76
9870.00,0.76
9869.00,0.76
9868.00,0.76
9867.00,0.76
9866.00,0.76
9865.00,0.76
9864.00,0.76
9863.00,0.77
9862.00,0.77
9861.00,0.77
9860.00,0.77
9859.00,0.77
9858.00,0.77
9857.00,0.77
9856.00,0.78
9855.00,0.78
9854.00,0.78
9853.00,0.78
9852.00,0.78
9851.00,0.78
9850.00,0.78
9849.00,0.78
9848.00,0.77
9847.00,0.77
9846.00,0.77
9845.00,0.77
9844.00,0.76
9843.00,0.76
9842.00,0.76
9841.00,0.75
9840.00,0.75
9839.00,0.75
9838.00,0.74
9837.00,0.74
9836.00,0.74
9835.00,0.74
9834.00,0.74
9833.00,0.74
9832.00,0.74
9831.00,0.74
9830.00,0.74
9829.00,0.75
9828.00,0.75
9827.00,0.75
9826.00,0.75
9825.00,0.76
9824.00,0.76
9823.00,0.76
9822.00,0.76
9821.00,0.77
9820.00,0.77
9819.00,0.77
9818.00,0.77
9817.00,0.77
9816.00,0.77
9815.00,0.77
9814.00,0.76
9813.00,0.76
9812.00,0.76
9811.00,0.76
9810.00,0.76
9809.00,0.76
9808.00,0.76
9807.00,0.76
9806.00,0.76
9805.00,0.76
9804.00,0.77
9803.00,0.77
9802.00,0.77
9801.00,0.78
9800.00,0.78
9799.00,0.78
9798.00,0.79
9797.00,0.79
9796.00,0.79
9795.00,0.79
9794.00,0.80
9793.00,0.80
9792.00,0.80
9791.00,0.80
9790.00,0.80
9789.00,0.80
9788.00,0.80
9787.00,0.80
9786.00,0.80
9785.00,0.80
9784.00,0.80
9783.00,0.80
9782.00,0.80
9781.00,0.80
9780.00,0.80
9779.00,0.80
9778.00,0.80
9777.00,0.80
9776.00,0.80
9775.00,0.80
9774.00,0.80
9773.00,0.79
9772.00,0.79
9771.00,0.79
9770.00,0.79
9769.00,0.79
9768.00,0.79
9767.00,0.78
9766.00,0.78
9765.00,0.78
9764.00,0.78
9763.00,0.79
9762.00,0.79
9761.00,0.79
9760.00,0.79
9759.00,0.79
9758.00,0.80
9757.00,0.80
9756.00,0.80
9755.00,0.81
9754.00,0.81
9753.00,0.81
9752.00,0.81
9751.00,0.82
9750.00,0.82
9749.00,0.81
9748.00,0.81
9747.00,0.81
9746.00,0.81
9745.00,0.80
9744.00,0.80
9743.00,0.80
9742.00,0.79
9741.00,0.79
9740.00,0.78
9739.00,0.78
9738.00,0.77
9737.00,0.77
9736.00,0.76
9735.00,0.76
9734.00,0.76
9733.00,0.76
9732.00,0.76
9731.00,0.76
9730.00,0.76
9729.00,0.76
9728.00,0.76
9727.00,0.76
9726.00,0.76
9725.00,0.77
9724.00,0.77
9723.00,0.77
9722.00,0.77
9721.00,0.77
9720.00,0.77
9719.00,0.77
9718.00,0.77
9717.00,0.77
9716.00,0.77
9715.00,0.77
9714.00,0.77
9713.00,0.77
9712.00,0.77
9711.00,0.77
9710.00,0.76
9709.00,0.76
9708.00,0.76
9707.00,0.76
9706.00,0.76
9705.00,0.76
9704.00,0.76
9703.00,0.76
9702.00,0.76
9701.00,0.76
9700.00,0.77
9699.00,0.77
9698.00,0.77
9697.00,0.77
9696.00,0.77
9695.00,0.77
9694.00,0.77
9693.00,0.77
9692.00,0.77
9691.00,0.77
9690.00,0.77
9689.00,0.77
9688.00,0.77
9687.00,0.77
9686.00,0.77
9685.00,0.77
9684.00,0.77
9683.00,0.77
9682.00,0.77
9681.00,0.77
9680.00,0.77
9679.00,0.77
9678.00,0.77
9677.00,0.77
9676.00,0.77
9675.00,0.77
9674.00,0.77
9673.00,0.77
9672.00,0.77
9671.00,0.77
9670.00,0.77
9669.00,0.77
9668.00,0.77
9667.00,0.77
9666.00,0.77
9665.00,0.77
9664.00,0.77
9663.00,0.77
9662.00,0.77
9661.00,0.77
9660.00,0.78
9659.00,0.78
9658.00,0.78
9657.00,0.78
9656.00,0.78
9655.00,0.78
9654.00,0.79
9653.00,0.79
9652.00,0.79
9651.00,0.79
9650.00,0.80
9649.00,0.80
9648.00,0.80
9647.00,0.80
9646.00,0.80
9645.00,0.80
9644.00,0.80
9643.00,0.80
9642.00,0.80
9641.00,0.80
9640.00,0.80
9639.00,0.80
9638.00,0.80
9637.00,0.80
9636.00,0.80
9635.00,0.80
9634.00,0.80
9633.00,0.80
9632.00,0.80
9631.00,0.80
9630.00,0.80
9629.00,0.80
9628.00,0.80
9627.00,0.80
9626.00,0.81
9625.00,0.81
9624.00,0.81
9623.00,0.81
9622.00,0.82
9621.00,0.82
9620.00,0.82
9619.00,0.82
9618.00,0.82
9617.00,0.83
9616.00,0.83
9615.00,0.83
9614.00,0.83
9613.00,0.82
9612.00,0.82
9611.00,0.82
9610.00,0.82
9609.00,0.81
9608.00,0.81
9607.00,0.81
9606.00,0.80
9605.00,0.80
9604.00,0.79
9603.00,0.79
9602.00,0.78
9601.00,0.78
9600.00,0.77
9599.00,0.77
9598.00,0.77
9597.00,0.76
9596.00,0.76
9595.00,0.76
9594.00,0.76
9593.00,0.76
9592.00,0.76
9591.00,0.76
9590.00,0.77
9589.00,0.77
9588.00,0.77
9587.00,0.77
9586.00,0.77
9585.00,0.77
9584.00,0.78
9583.00,0.78
9582.00,0.78
9581.00,0.78
9580.00,0.78
9579.00,0.78
9578.00,0.78
9577.00,0.78
9576.00,0.78
9575.00,0.78
9574.00,0.78
9573.00,0.78
9572.00,0.78
9571.00,0.78
9570.00,0.78
9569.00,0.78
9568.00,0.77
9567.00,0.77
9566.00,0.77
9565.00,0.77
9564.00,0.76
9563.00,0.76
9562.00,0.76
9561.00,0.76
9560.00,0.76
9559.00,0.75
9558.00,0.75
9557.00,0.75
9556.00,0.75
9555.00,0.75
9554.00,0.75
9553.00,0.75
9552.00,0.75
9551.00,0.75
9550.00,0.76
9549.00,0.76
9548.00,0.76
9547.00,0.76
9546.00,0.76
9545.00,0.76
9544.00,0.76
9543.00,0.76
9542.00,0.77
9541.00,0.77
9540.00,0.77
9539.00,0.77
9538.00,0.77
9537.00,0.77
9536.00,0.78
9535.00,0.78
9534.00,0.78
9533.00,0.78
9532.00,0.78
9531.00,0.78
9530.00,0.78
9529.00,0.78
9528.00,0.78
9527.00,0.78
9526.00,0.78
9525.00,0.78
9524.00,0.78
9523.00,0.78
9522.00,0.78
9521.00,0.78
9520.00,0.78
9519.00,0.78
9518.00,0.78
9517.00,0.78
9516.00,0.78
9515.00,0.78
9514.00,0.78
9513.00,0.78
9512.00,0.79
9511.00,0.79
9510.00,0.79
9509.00,0.79
9508.00,0.79
9507.00,0.79
9506.00,0.79
9505.00,0.79
9504.00,0.79
9503.00,0.79
9502.00,0.79
9501.00,0.79
9500.00,0.79
9499.00,0.79
9498.00,0.79
9497.00,0.79
9496.00,0.79
9495.00,0.79
9494.00,0.79
9493.00,0.79
9492.00,0.78
9491.00,0.78
9490.00,0.78
9489.00,0.78
9488.00,0.78
9487.00,0.78
9486.00,0.78
9485.00,0.78
9484.00,0.78
9483.00,0.78
9482.00,0.78
9481.00,0.78
9480.00,0.78
9479.00,0.77
9478.00,0.77
9477.00,0.77
9476.00,0.77
9475.00,0.77
9474.00,0.77
9473.00,0.77
9472.00,0.77
9471.00,0.78
9470.00,0.78
9469.00,0.78
9468.00,0.78
9467.00,0.78
9466.00,0.78
9465.00,0.78
9464.00,0.78
9463.00,0.78
9462.00,0.78
9461.00,0.78
9460.00,0.78
9459.00,0.78
9458.00,0.78
9457.00,0.79
9456.00,0.79
9455.00,0.79
9454.00,0.79
9453.00,0.79
9452.00,0.79
9451.00,0.79
9450.00,0.79
9449.00,0.79
9448.00,0.79
9447.00,0.79
9446.00,0.79
9445.00,0.79
9444.00,0.79
9443.00,0.78
9442.00,0.78
9441.00,0.78
9440.00,0.78
9439.00,0.78
9438.00,0.78
9437.00,0.77
9436.00,0.77
9435.00,0.77
9434.00,0.77
9433.00,0.77
9432.00,0.77
9431.00,0.77
9430.00,0.77
9429.00,0.77
9428.00,0.77
9427.00,0.78
9426.00,0.78
9425.00,0.78
9424.00,0.78
9423.00,0.78
9422.00,0.79
9421.00,0.79
9420.00,0.79
9419.00,0.79
9418.00,0.80
9417.00,0.80
9416.00,0.80
9415.00,0.80
9414.00,0.80
9413.00,0.80
9412.00,0.80
9411.00,0.80
9410.00,0.80
9409.00,0.80
9408.00,0.80
9407.00,0.80
9406.00,0.79
9405.00,0.79
9404.00,0.79
9403.00,0.79
9402.00,0.79
9401.00,0.78
9400.00,0.78
9399.00,0.78
9398.00,0.78
9397.00,0.78
9396.00,0.78
9395.00,0.78
9394.00,0.77
9393.00,0.77
9392.00,0.77
9391.00,0.77
9390.00,0.77
9389.00,0.77
9388.00,0.77
9387.00,0.77
9386.00,0.77
9385.00,0.77
9384.00,0.77
9383.00,0.77
9382.00,0.77
9381.00,0.77
9380.00,0.77
9379.00,0.77
9378.00,0.77
9377.00,0.77
9376.00,0.77
9375.00,0.77
9374.00,0.77
9373.00,0.77
9372.00,0.77
9371.00,0.77
9370.00,0.77
9369.00,0.77
9368.00,0.77
9367.00,0.78
9366.00,0.78
9365.00,0.78
9364.00,0.78
9363.00,0.78
9362.00,0.77
9361.00,0.77
9360.00,0.77
9359.00,0.77
9358.00,0.77
9357.00,0.77
9356.00,0.76
9355.00,0.76
9354.00,0.76
9353.00,0.76
9352.00,0.75
9351.00,0.75
9350.00,0.75
9349.00,0.75
9348.00,0.75
9347.00,0.74
9346.00,0.74
9345.00,0.74
9344.00,0.74
9343.00,0.74
9342.00,0.74
9341.00,0.75
9340.00,0.75
9339.00,0.75
9338.00,0.75
9337.00,0.75
9336.00,0.76
9335.00,0.76
9334.00,0.76
9333.00,0.77
9332.00,0.77
9331.00,0.77
9330.00,0.78
9329.00,0.78
9328.00,0.78
9327.00,0.79
9326.00,0.79
9325.00,0.79
9324.00,0.79
9323.00,0.79
9322.00,0.80
9321.00,0.80
9320.00,0.80
9319.00,0.80
9318.00,0.80
9317.00,0.80
9316.00,0.80
9315.00,0.80
9314.00,0.80
9313.00,0.80
9312.00,0.80
9311.00,0.80
9310.00,0.80
9309.00,0.80
9308.00,0.80
9307.00,0.80
9306.00,0.80
9305.00,0.80
9304.00,0.80
9303.00,0.80
9302.00,0.80
9301.00,0.80
9300.00,0.80
9299.00,0.80
9298.00,0.80
9297.00,0.80
9296.00,0.80
9295.00,0.80
9294.00,0.80
9293.00,0.79
9292.00,0.79
9291.00,0.79
9290.00,0.79
9289.00,0.79
9288.00,0.79
9287.00,0.78
9286.00,0.78
9285.00,0.78
9284.00,0.78
9283.00,0.78
9282.00,0.78
9281.00,0.78
9280.00,0.78
9279.00,0.78
9278.00,0.78
9277.00,0.78
9276.00,0.79
9275.00,0.79
9274.00,0.79
9273.00,0.79
9272.00,0.79
9271.00,0.79
9270.00,0.79
9269.00,0.80
9268.00,0.80
9267.00,0.80
9266.00,0.80
9265.00,0.80
9264.00,0.80
9263.00,0.79
9262.00,0.79
9261.00,0.79
9260.00,0.79
9259.00,0.79
9258.00,0.79
9257.00,0.79
9256.00,0.79
9255.00,0.79
9254.00,0.79
9253.00,0.79
9252.00,0.79
9251.00,0.79
9250.00,0.79
9249.00,0.79
9248.00,0.79
9247.00,0.79
9246.00,0.79
9245.00,0.79
9244.00,0.80
9243.00,0.80
9242.00,0.80
9241.00,0.80
9240.00,0.80
9239.00,0.80
9238.00,0.80
9237.00,0.80
9236.00,0.80
9235.00,0.80
9234.00,0.80
9233.00,0.80
9232.00,0.80
9231.00,0.80
9230.00,0.79
9229.00,0.79
9228.00,0.79
9227.00,0.79
9226.00,0.79
9225.00,0.79
9224.00,0.79
9223.00,0.79
9222.00,0.79
9221.00,0.79
9220.00,0.78
9219.00,0.78
9218.00,0.78
9217.00,0.78
9216.00,0.78
9215.00,0.78
9214.00,0.78
9213.00,0.78
9212.00,0.78
9211.00,0.78
9210.00,0.78
9209.00,0.78
9208.00,0.78
9207.00,0.78
9206.00,0.78
9205.00,0.78
9204.00,0.78
9203.00,0.78
9202.00,0.78
9201.00,0.78
9200.00,0.78
9199.00,0.79
9198.00,0.79
9197.00,0.79
9196.00,0.79
9195.00,0.79
9194.00,0.79
9193.00,0.79
9192.00,0.79
9191.00,0.80
9190.00,0.80
9189.00,0.80
9188.00,0.80
9187.00,0.80
9186.00,0.80
9185.00,0.80
9184.00,0.80
9183.00,0.80
9182.00,0.80
9181.00,0.80
9180.00,0.80
9179.00,0.80
9178.00,0.80
9177.00,0.79
9176.00,0.79
9175.00,0.79
9174.00,0.79
9173.00,0.79
9172.00,0.79
9171.00,0.78
9170.00,0.78
9169.00,0.78
9168.00,0.78
9167.00,0.78
9166.00,0.78
9165.00,0.78
9164.00,0.78
9163.00,0.78
9162.00,0.78
9161.00,0.78
9160.00,0.78
9159.00,0.78
9158.00,0.78
9157.00,0.78
9156.00,0.78
9155.00,0.78
9154.00,0.78
9153.00,0.78
9152.00,0.78
9151.00,0.78
9150.00,0.78
9149.00,0.78
9148.00,0.79
9147.00,0.79
9146.00,0.79
9145.00,0.79
9144.00,0.79
9143.00,0.79
9142.00,0.79
9141.00,0.79
9140.00,0.79
9139.00,0.79
9138.00,0.79
9137.00,0.79
9136.00,0.79
9135.00,0.78
9134.00,0.78
9133.00,0.78
9132.00,0.78
9131.00,0.78
9130.00,0.77
9129.00,0.77
9128.00,0.77
9127.00,0.77
9126.00,0.77
9125.00,0.77
9124.00,0.77
9123.00,0.77
9122.00,0.77
9121.00,0.77
9120.00,0.77
9119.00,0.78
9118.00,0.78
9117.00,0.78
9116.00,0.78
9115.00,0.77
9114.00,0.77
9113.00,0.77
9112.00,0.77
9111.00,0.77
9110.00,0.77
9109.00,0.77
9108.00,0.77
9107.00,0.77
9106.00,0.77
9105.00,0.77
9104.00,0.77
9103.00,0.77
9102.00,0.77
9101.00,0.77
9100.00,0.77
9099.00,0.77
9098.00,0.77
9097.00,0.77
9096.00,0.78
9095.00,0.78
9094.00,0.78
9093.00,0.78
9092.00,0.78
9091.00,0.78
9090.00,0.78
9089.00,0.78
9088.00,0.78
9087.00,0.78
9086.00,0.78
9085.00,0.78
9084.00,0.78
9083.00,0.79
9082.00,0.79
9081.00,0.79
9080.00,0.79
9079.00,0.79
9078.00,0.79
9077.00,0.79
9076.00,0.79
9075.00,0.79
9074.00,0.79
9073.00,0.79
9072.00,0.79
9071.00,0.79
9070.00,0.79
9069.00,0.79
9068.00,0.79
9067.00,0.79
9066.00,0.80
9065.00,0.80
9064.00,0.80
9063.00,0.80
9062.00,0.80
9061.00,0.80
9060.00,0.80
9059.00,0.80
9058.00,0.80
9057.00,0.80
9056.00,0.80
9055.00,0.80
9054.00,0.80
9053.00,0.80
9052.00,0.80
9051.00,0.79
9050.00,0.79
9049.00,0.79
9048.00,0.79
9047.00,0.79
9046.00,0.79
9045.00,0.78
9044.00,0.78
9043.00,0.78
9042.00,0.78
9041.00,0.78
9040.00,0.77
9039.00,0.77
9038.00,0.77
9037.00,0.77
9036.00,0.77
9035.00,0.77
9034.00,0.77
9033.00,0.77
9032.00,0.77
9031.00,0.77
9030.00,0.77
9029.00,0.77
9028.00,0.78
9027.00,0.78
9026.00,0.78
9025.00,0.78
9024.00,0.78
9023.00,0.78
9022.00,0.78
9021.00,0.79
9020.00,0.79
9019.00,0.79
9018.00,0.79
9017.00,0.79
9016.00,0.79
9015.00,0.79
9014.00,0.79
9013.00,0.79
9012.00,0.79
9011.00,0.79
9010.00,0.79
9009.00,0.79
9008.00,0.79
9007.00,0.79
9006.00,0.79
9005.00,0.79
9004.00,0.79
9003.00,0.79
9002.00,0.79
9001.00,0.79
9000.00,0.79
8999.00,0.79
8998.00,0.79
8997.00,0.79
8996.00,0.79
8995.00,0.79
8994.00,0.80
8993.00,0.80
8992.00,0.80
8991.00,0.80
8990.00,0.80
8989.00,0.80
8988.00,0.80
8987.00,0.80
8986.00,0.80
8985.00,0.80
8984.00,0.80
8983.00,0.80
8982.00,0.80
8981.00,0.80
8980.00,0.80
8979.00,0.80
8978.00,0.80
8977.00,0.80
8976.00,0.80
8975.00,0.80
8974.00,0.80
8973.00,0.80
8972.00,0.79
8971.00,0.79
8970.00,0.79
8969.00,0.79
8968.00,0.79
8967.00,0.79
8966.00,0.79
8965.00,0.79
8964.00,0.79
8963.00,0.79
8962.00,0.79
8961.00,0.79
8960.00,0.79
8959.00,0.79
8958.00,0.79
8957.00,0.79
8956.00,0.79
8955.00,0.79
8954.00,0.79
8953.00,0.79
8952.00,0.78
8951.00,0.78
8950.00,0.78
8949.00,0.78
8948.00,0.78
8947.00,0.78
8946.00,0.78
8945.00,0.78
8944.00,0.78
8943.00,0.78
8942.00,0.78
8941.00,0.78
8940.00,0.78
8939.00,0.78
8938.00,0.78
8937.00,0.78
8936.00,0.78
8935.00,0.78
8934.00,0.78
8933.00,0.78
8932.00,0.78
8931.00,0.78
8930.00,0.78
8929.00,0.78
8928.00,0.78
8927.00,0.78
8926.00,0.78
8925.00,0.78
8924.00,0.78
8923.00,0.78
8922.00,0.78
8921.00,0.78
8920.00,0.78
8919.00,0.78
8918.00,0.78
8917.00,0.78
8916.00,0.78
8915.00,0.78
8914.00,0.78
8913.00,0.78
8912.00,0.78
8911.00,0.78
8910.00,0.78
8909.00,0.78
8908.00,0.78
8907.00,0.78
8906.00,0.78
8905.00,0.78
8904.00,0.78
8903.00,0.78
8902.00,0.78
8901.00,0.78
8900.00,0.78
8899.00,0.78
8898.00,0.77
8897.00,0.77
8896.00,0.77
8895.00,0.77
8894.00,0.77
8893.00,0.77
8892.00,0.77
8891.00,0.77
8890.00,0.77
8889.00,0.77
8888.00,0.77
8887.00,0.78
8886.00,0.78
8885.00,0.78
8884.00,0.78
8883.00,0.78
8882.00,0.79
8881.00,0.79
8880.00,0.79
8879.00,0.79
8878.00,0.80
8877.00,0.80
8876.00,0.80
8875.00,0.80
8874.00,0.80
8873.00,0.80
8872.00,0.80
8871.00,0.80
8870.00,0.80
8869.00,0.80
8868.00,0.80
8867.00,0.80
8866.00,0.80
8865.00,0.80
8864.00,0.80
8863.00,0.80
8862.00,0.80
8861.00,0.80
8860.00,0.80
8859.00,0.79
8858.00,0.79
8857.00,0.79
8856.00,0.79
8855.00,0.79
8854.00,0.79
8853.00,0.79
8852.00,0.79
8851.00,0.79
8850.00,0.79
8849.00,0.79
8848.00,0.79
8847.00,0.78
8846.00,0.78
8845.00,0.78
8844.00,0.78
8843.00,0.78
8842.00,0.78
8841.00,0.78
8840.00,0.78
8839.00,0.78
8838.00,0.78
8837.00,0.78
8836.00,0.78
8835.00,0.78
8834.00,0.78
8833.00,0.78
8832.00,0.78
8831.00,0.78
8830.00,0.78
8829.00,0.78
8828.00,0.78
8827.00,0.78
8826.00,0.78
8825.00,0.78
8824.00,0.78
8823.00,0.78
8822.00,0.78
8821.00,0.78
8820.00,0.79
8819.00,0.79
8818.00,0.79
8817.00,0.79
8816.00,0.79
8815.00,0.79
8814.00,0.79
8813.00,0.79
8812.00,0.79
8811.00,0.79
8810.00,0.79
8809.00,0.78
8808.00,0.78
8807.00,0.78
8806.00,0.78
8805.00,0.78
8804.00,0.78
8803.00,0.77
8802.00,0.77
8801.00,0.77
8800.00,0.77
8799.00,0.77
8798.00,0.77
8797.00,0.77
8796.00,0.77
8795.00,0.77
8794.00,0.77
8793.00,0.76
8792.00,0.76
8791.00,0.76
8790.00,0.76
8789.00,0.76
8788.00,0.76
8787.00,0.76
8786.00,0.76
8785.00,0.76
8784.00,0.77
8783.00,0.77
8782.00,0.77
8781.00,0.77
8780.00,0.76
8779.00,0.76
8778.00,0.76
8777.00,0.76
8776.00,0.76
8775.00,0.76
8774.00,0.76
8773.00,0.76
8772.00,0.76
8771.00,0.76
8770.00,0.76
8769.00,0.76
8768.00,0.76
8767.00,0.76
8766.00,0.76
8765.00,0.76
8764.00,0.76
8763.00,0.76
8762.00,0.76
8761.00,0.76
8760.00,0.76
8759.00,0.76
8758.00,0.76
8757.00,0.76
8756.00,0.76
8755.00,0.75
8754.00,0.75
8753.00,0.75
8752.00,0.75
8751.00,0.75
8750.00,0.75
8749.00,0.76
8748.00,0.76
8747.00,0.76
8746.00,0.76
8745.00,0.76
8744.00,0.76
8743.00,0.76
8742.00,0.76
8741.00,0.76
8740.00,0.76
8739.00,0.76
8738.00,0.77
8737.00,0.77
8736.00,0.77
8735.00,0.77
8734.00,0.77
8733.00,0.77
8732.00,0.77
8731.00,0.77
8730.00,0.77
8729.00,0.77
8728.00,0.77
8727.00,0.77
8726.00,0.76
8725.00,0.76
8724.00,0.76
8723.00,0.76
8722.00,0.76
8721.00,0.76
8720.00,0.76
8719.00,0.76
8718.00,0.76
8717.00,0.76
8716.00,0.76
8715.00,0.76
8714.00,0.76
8713.00,0.76
8712.00,0.76
8711.00,0.76
8710.00,0.76
8709.00,0.76
8708.00,0.76
8707.00,0.76
8706.00,0.76
8705.00,0.75
8704.00,0.75
8703.00,0.75
8702.00,0.75
8701.00,0.75
8700.00,0.75
8699.00,0.75
8698.00,0.75
8697.00,0.75
8696.00,0.75
8695.00,0.75
8694.00,0.75
8693.00,0.75
8692.00,0.75
8691.00,0.75
8690.00,0.75
8689.00,0.75
8688.00,0.75
8687.00,0.75
8686.00,0.75
8685.00,0.75
8684.00,0.75
8683.00,0.75
8682.00,0.75
8681.00,0.75
8680.00,0.75
8679.00,0.75
8678.00,0.75
8677.00,0.75
8676.00,0.75
8675.00,0.75
8674.00,0.75
8673.00,0.75
8672.00,0.75
8671.00,0.75
8670.00,0.75
8669.00,0.75
8668.00,0.75
8667.00,0.75
8666.00,0.75
8665.00,0.75
8664.00,0.75
8663.00,0.75
8662.00,0.75
8661.00,0.75
8660.00,0.75
8659.00,0.75
8658.00,0.75
8657.00,0.76
8656.00,0.76
8655.00,0.76
8654.00,0.76
8653.00,0.76
8652.00,0.76
8651.00,0.76
8650.00,0.76
8649.00,0.76
8648.00,0.76
8647.00,0.76
8646.00,0.76
8645.00,0.76
8644.00,0.76
8643.00,0.76
8642.00,0.76
8641.00,0.76
8640.00,0.76
8639.00,0.76
8638.00,0.75
8637.00,0.75
8636.00,0.75
8635.00,0.75
8634.00,0.75
8633.00,0.75
8632.00,0.75
8631.00,0.75
8630.00,0.75
8629.00,0.76
8628.00,0.76
8627.00,0.76
8626.00,0.76
8625.00,0.76
8624.00,0.76
8623.00,0.76
8622.00,0.76
8621.00,0.76
8620.00,0.76
8619.00,0.76
8618.00,0.75
8617.00,0.75
8616.00,0.75
8615.00,0.75
8614.00,0.75
8613.00,0.74
8612.00,0.74
8611.00,0.74
8610.00,0.74
8609.00,0.73
8608.00,0.73
8607.00,0.73
8606.00,0.73
8605.00,0.73
8604.00,0.73
8603.00,0.73
8602.00,0.73
8601.00,0.73
8600.00,0.73
8599.00,0.73
8598.00,0.73
8597.00,0.73
8596.00,0.73
8595.00,0.74
8594.00,0.74
8593.00,0.74
8592.00,0.74
8591.00,0.74
8590.00,0.75
8589.00,0.75
8588.00,0.75
8587.00,0.75
8586.00,0.75
8585.00,0.75
8584.00,0.75
8583.00,0.75
8582.00,0.75
8581.00,0.75
8580.00,0.75
8579.00,0.75
8578.00,0.75
8577.00,0.75
8576.00,0.75
8575.00,0.75
8574.00,0.75
8573.00,0.75
8572.00,0.74
8571.00,0.74
8570.00,0.74
8569.00,0.74
8568.00,0.74
8567.00,0.74
8566.00,0.74
8565.00,0.73
8564.00,0.73
8563.00,0.73
8562.00,0.73
8561.00,0.73
8560.00,0.73
8559.00,0.73
8558.00,0.73
8557.00,0.73
8556.00,0.73
8555.00,0.73
8554.00,0.73
8553.00,0.73
8552.00,0.73
8551.00,0.73
8550.00,0.73
8549.00,0.73
8548.00,0.73
8547.00,0.73
8546.00,0.73
8545.00,0.73
8544.00,0.73
8543.00,0.73
8542.00,0.73
8541.00,0.73
8540.00,0.73
8539.00,0.73
8538.00,0.73
8537.00,0.73
8536.00,0.73
8535.00,0.73
8534.00,0.73
8533.00,0.73
8532.00,0.73
8531.00,0.73
8530.00,0.72
8529.00,0.72
8528.00,0.72
8527.00,0.72
8526.00,0.72
8525.00,0.72
8524.00,0.72
8523.00,0.72
8522.00,0.72
8521.00,0.72
8520.00,0.72
8519.00,0.72
8518.00,0.72
8517.00,0.72
8516.00,0.71
8515.00,0.71
8514.00,0.71
8513.00,0.71
8512.00,0.71
8511.00,0.71
8510.00,0.71
8509.00,0.71
8508.00,0.71
8507.00,0.71
8506.00,0.71
8505.00,0.71
8504.00,0.71
8503.00,0.71
8502.00,0.71
8501.00,0.71
8500.00,0.71
8499.00,0.71
8498.00,0.71
8497.00,0.71
8496.00,0.71
8495.00,0.71
8494.00,0.70
8493.00,0.70
8492.00,0.70
8491.00,0.70
8490.00,0.70
8489.00,0.70
8488.00,0.70
8487.00,0.70
8486.00,0.70
8485.00,0.70
8484.00,0.70
8483.00,0.69
8482.00,0.69
8481.00,0.69
8480.00,0.69
8479.00,0.69
8478.00,0.69
8477.00,0.69
8476.00,0.69
8475.00,0.70
8474.00,0.70
8473.00,0.70
8472.00,0.70
8471.00,0.70
8470.00,0.70
8469.00,0.70
8468.00,0.70
8467.00,0.70
8466.00,0.70
8465.00,0.70
8464.00,0.70
8463.00,0.70
8462.00,0.70
8461.00,0.69
8460.00,0.69
8459.00,0.69
8458.00,0.69
8457.00,0.69
8456.00,0.69
8455.00,0.69
8454.00,0.69
8453.00,0.69
8452.00,0.69
8451.00,0.69
8450.00,0.69
8449.00,0.69
8448.00,0.69
8447.00,0.69
8446.00,0.68
8445.00,0.68
8444.00,0.68
8443.00,0.68
8442.00,0.68
8441.00,0.68
8440.00,0.68
8439.00,0.68
8438.00,0.68
8437.00,0.68
8436.00,0.68
8435.00,0.68
8434.00,0.68
8433.00,0.68
8432.00,0.68
8431.00,0.68
8430.00,0.68
8429.00,0.69
8428.00,0.69
8427.00,0.69
8426.00,0.69
8425.00,0.69
8424.00,0.69
8423.00,0.69
8422.00,0.70
8421.00,0.70
8420.00,0.70
8419.00,0.70
8418.00,0.70
8417.00,0.70
8416.00,0.70
8415.00,0.70
8414.00,0.70
8413.00,0.70
8412.00,0.70
8411.00,0.70
8410.00,0.70
8409.00,0.70
8408.00,0.70
8407.00,0.70
8406.00,0.70
8405.00,0.70
8404.00,0.70
8403.00,0.70
8402.00,0.70
8401.00,0.70
8400.00,0.70
8399.00,0.71
8398.00,0.71
8397.00,0.71
8396.00,0.71
8395.00,0.71
8394.00,0.71
8393.00,0.71
8392.00,0.71
8391.00,0.71
8390.00,0.71
8389.00,0.71
8388.00,0.71
8387.00,0.71
8386.00,0.71
8385.00,0.71
8384.00,0.71
8383.00,0.71
8382.00,0.71
8381.00,0.71
8380.00,0.71
8379.00,0.71
8378.00,0.71
8377.00,0.71
8376.00,0.71
8375.00,0.71
8374.00,0.71
8373.00,0.71
8372.00,0.71
8371.00,0.71
8370.00,0.71
8369.00,0.71
8368.00,0.71
8367.00,0.71
8366.00,0.71
8365.00,0.71
8364.00,0.71
8363.00,0.71
8362.00,0.71
8361.00,0.71
8360.00,0.71
8359.00,0.71
8358.00,0.71
8357.00,0.72
8356.00,0.72
8355.00,0.72
8354.00,0.72
8353.00,0.72
8352.00,0.72
8351.00,0.72
8350.00,0.72
8349.00,0.72
8348.00,0.72
8347.00,0.72
8346.00,0.73
8345.00,0.73
8344.00,0.73
8343.00,0.73
8342.00,0.73
8341.00,0.73
8340.00,0.73
8339.00,0.74
8338.00,0.74
8337.00,0.74
8336.00,0.74
8335.00,0.74
8334.00,0.74
8333.00,0.74
8332.00,0.74
8331.00,0.74
8330.00,0.74
8329.00,0.74
8328.00,0.74
8327.00,0.74
8326.00,0.74
8325.00,0.74
8324.00,0.73
8323.00,0.73
8322.00,0.73
8321.00,0.73
8320.00,0.73
8319.00,0.73
8318.00,0.73
8317.00,0.73
8316.00,0.73
8315.00,0.74
8314.00,0.74
8313.00,0.74
8312.00,0.74
8311.00,0.74
8310.00,0.74
8309.00,0.74
8308.00,0.74
8307.00,0.74
8306.00,0.74
8305.00,0.74
8304.00,0.74
8303.00,0.74
8302.00,0.74
8301.00,0.74
8300.00,0.74
8299.00,0.74
8298.00,0.74
8297.00,0.74
8296.00,0.74
8295.00,0.74
8294.00,0.74
8293.00,0.74
8292.00,0.74
8291.00,0.74
8290.00,0.74
8289.00,0.74
8288.00,0.74
8287.00,0.74
8286.00,0.74
8285.00,0.74
8284.00,0.73
8283.00,0.73
8282.00,0.73
8281.00,0.73
8280.00,0.73
8279.00,0.73
8278.00,0.73
8277.00,0.73
8276.00,0.73
8275.00,0.73
8274.00,0.73
8273.00,0.73
8272.00,0.73
8271.00,0.73
8270.00,0.73
8269.00,0.73
8268.00,0.73
8267.00,0.73
8266.00,0.73
8265.00,0.73
8264.00,0.73
8263.00,0.73
8262.00,0.73
8261.00,0.73
8260.00,0.73
8259.00,0.73
8258.00,0.73
8257.00,0.73
8256.00,0.73
8255.00,0.73
8254.00,0.73
8253.00,0.73
8252.00,0.73
8251.00,0.73
8250.00,0.73
8249.00,0.73
8248.00,0.73
8247.00,0.73
8246.00,0.73
8245.00,0.73
8244.00,0.74
8243.00,0.74
8242.00,0.74
8241.00,0.74
8240.00,0.74
8239.00,0.74
8238.00,0.74
8237.00,0.74
8236.00,0.74
8235.00,0.74
8234.00,0.74
8233.00,0.74
8232.00,0.74
8231.00,0.74
8230.00,0.74
8229.00,0.74
8228.00,0.74
8227.00,0.74
8226.00,0.74
8225.00,0.74
8224.00,0.74
8223.00,0.74
8222.00,0.74
8221.00,0.74
8220.00,0.74
8219.00,0.74
8218.00,0.74
8217.00,0.74
8216.00,0.74
8215.00,0.74
8214.00,0.74
8213.00,0.74
8212.00,0.74
8211.00,0.74
8210.00,0.74
8209.00,0.74
8208.00,0.74
8207.00,0.74
8206.00,0.74
8205.00,0.74
8204.00,0.74
8203.00,0.74
8202.00,0.74
8201.00,0.74
8200.00,0.74
8199.00,0.74
8198.00,0.74
8197.00,0.74
8196.00,0.74
8195.00,0.74
8194.00,0.74
8193.00,0.74
8192.00,0.74
8191.00,0.74
8190.00,0.74
8189.00,0.74
8188.00,0.74
8187.00,0.74
8186.00,0.74
8185.00,0.74
8184.00,0.74
8183.00,0.74
8182.00,0.74
8181.00,0.74
8180.00,0.74
8179.00,0.74
8178.00,0.74
8177.00,0.74
8176.00,0.75
8175.00,0.75
8174.00,0.75
8173.00,0.75
8172.00,0.75
8171.00,0.75
8170.00,0.75
8169.00,0.75
8168.00,0.75
8167.00,0.75
8166.00,0.75
8165.00,0.75
8164.00,0.75
8163.00,0.75
8162.00,0.75
8161.00,0.75
8160.00,0.75
8159.00,0.75
8158.00,0.75
8157.00,0.75
8156.00,0.75
8155.00,0.75
8154.00,0.75
8153.00,0.75
8152.00,0.75
8151.00,0.75
8150.00,0.75
8149.00,0.75
8148.00,0.75
8147.00,0.75
8146.00,0.75
8145.00,0.75
8144.00,0.75
8143.00,0.75
8142.00,0.75
8141.00,0.75
8140.00,0.75
8139.00,0.75
8138.00,0.75
8137.00,0.75
8136.00,0.75
8135.00,0.75
8134.00,0.75
8133.00,0.75
8132.00,0.75
8131.00,0.75
8130.00,0.75
8129.00,0.75
8128.00,0.75
8127.00,0.75
8126.00,0.75
8125.00,0.75
8124.00,0.75
8123.00,0.75
8122.00,0.75
8121.00,0.75
8120.00,0.75
8119.00,0.75
8118.00,0.75
8117.00,0.75
8116.00,0.75
8115.00,0.75
8114.00,0.75
8113.00,0.75
8112.00,0.75
8111.00,0.76
8110.00,0.76
8109.00,0.76
8108.00,0.76
8107.00,0.76
8106.00,0.76
8105.00,0.76
8104.00,0.76
8103.00,0.76
8102.00,0.76
8101.00,0.76
8100.00,0.76
8099.00,0.76
8098.00,0.76
8097.00,0.76
8096.00,0.76
8095.00,0.76
8094.00,0.76
8093.00,0.76
8092.00,0.76
8091.00,0.76
8090.00,0.76
8089.00,0.76
8088.00,0.76
8087.00,0.76
8086.00,0.76
8085.00,0.76
8084.00,0.76
8083.00,0.76
8082.00,0.76
8081.00,0.76
8080.00,0.76
8079.00,0.76
8078.00,0.76
8077.00,0.77
8076.00,0.77
8075.00,0.77
8074.00,0.77
8073.00,0.77
8072.00,0.77
8071.00,0.77
8070.00,0.77
8069.00,0.77
8068.00,0.77
8067.00,0.77
8066.00,0.77
8065.00,0.77
8064.00,0.77
8063.00,0.77
8062.00,0.77
8061.00,0.77
8060.00,0.77
8059.00,0.77
8058.00,0.77
8057.00,0.77
8056.00,0.77
8055.00,0.77
8054.00,0.77
8053.00,0.77
8052.00,0.77
8051.00,0.77
8050.00,0.77
8049.00,0.77
8048.00,0.77
8047.00,0.77
8046.00,0.77
8045.00,0.78
8044.00,0.78
8043.00,0.78
8042.00,0.78
8041.00,0.78
8040.00,0.78
8039.00,0.78
8038.00,0.77
8037.00,0.77
8036.00,0.77
8035.00,0.77
8034.00,0.77
8033.00,0.77
8032.00,0.77
8031.00,0.77
8030.00,0.77
8029.00,0.77
8028.00,0.77
8027.00,0.77
8026.00,0.77
8025.00,0.77
8024.00,0.77
8023.00,0.77
8022.00,0.77
8021.00,0.77
8020.00,0.77
8019.00,0.77
8018.00,0.77
8017.00,0.77
8016.00,0.77
8015.00,0.77
8014.00,0.77
8013.00,0.77
8012.00,0.77
8011.00,0.77
8010.00,0.77
8009.00,0.77
8008.00,0.77
8007.00,0.77
8006.00,0.77
8005.00,0.77
8004.00,0.77
8003.00,0.77
8002.00,0.77
8001.00,0.77
8000.00,0.77
7999.00,0.77
7998.00,0.77
7997.00,0.77
7996.00,0.77
7995.00,0.77
7994.00,0.77
7993.00,0.77
7992.00,0.77
7991.00,0.78
7990.00,0.78
7989.00,0.78
7988.00,0.78
7987.00,0.78
7986.00,0.78
7985.00,0.78
7984.00,0.79
7983.00,0.79
7982.00,0.79
7981.00,0.79
7980.00,0.79
7979.00,0.79
7978.00,0.79
7977.00,0.79
7976.00,0.79
7975.00,0.79
7974.00,0.79
7973.00,0.79
7972.00,0.79
7971.00,0.79
7970.00,0.79
7969.00,0.79
7968.00,0.79
7967.00,0.79
7966.00,0.79
7965.00,0.79
7964.00,0.79
7963.00,0.79
7962.00,0.79
7961.00,0.79
7960.00,0.79
7959.00,0.79
7958.00,0.79
7957.00,0.79
7956.00,0.79
7955.00,0.79
7954.00,0.79
7953.00,0.79
7952.00,0.79
7951.00,0.79
7950.00,0.79
7949.00,0.79
7948.00,0.79
7947.00,0.79
7946.00,0.79
7945.00,0.79
7944.00,0.79
7943.00,0.79
7942.00,0.79
7941.00,0.79
7940.00,0.79
7939.00,0.79
7938.00,0.79
7937.00,0.79
7936.00,0.79
7935.00,0.79
7934.00,0.79
7933.00,0.79
7932.00,0.79
7931.00,0.79
7930.00,0.79
7929.00,0.79
7928.00,0.79
7927.00,0.79
7926.00,0.78
7925.00,0.78
7924.00,0.78
7923.00,0.78
7922.00,0.78
7921.00,0.78
7920.00,0.78
7919.00,0.78
7918.00,0.78
7917.00,0.78
7916.00,0.78
7915.00,0.78
7914.00,0.78
7913.00,0.78
7912.00,0.77
7911.00,0.78
7910.00,0.78
7909.00,0.78
7908.00,0.78
7907.00,0.78
7906.00,0.78
7905.00,0.78
7904.00,0.78
7903.00,0.78
7902.00,0.78
7901.00,0.78
7900.00,0.78
7899.00,0.78
7898.00,0.78
7897.00,0.78
7896.00,0.78
7895.00,0.78
7894.00,0.78
7893.00,0.78
7892.00,0.78
7891.00,0.79
7890.00,0.79
7889.00,0.79
7888.00,0.79
7887.00,0.79
7886.00,0.79
7885.00,0.79
7884.00,0.79
7883.00,0.79
7882.00,0.79
7881.00,0.79
7880.00,0.79
7879.00,0.79
7878.00,0.79
7877.00,0.79
7876.00,0.80
7875.00,0.80
7874.00,0.80
7873.00,0.80
7872.00,0.80
7871.00,0.80
7870.00,0.80
7869.00,0.80
7868.00,0.80
7867.00,0.80
7866.00,0.80
7865.00,0.80
7864.00,0.80
7863.00,0.80
7862.00,0.80
7861.00,0.80
7860.00,0.79
7859.00,0.79
7858.00,0.79
7857.00,0.79
7856.00,0.79
7855.00,0.79
7854.00,0.79
7853.00,0.79
7852.00,0.79
7851.00,0.79
7850.00,0.79
7849.00,0.79
7848.00,0.79
7847.00,0.79
7846.00,0.79
7845.00,0.79
7844.00,0.79
7843.00,0.79
7842.00,0.79
7841.00,0.79
7840.00,0.79
7839.00,0.79
7838.00,0.79
7837.00,0.79
7836.00,0.79
7835.00,0.79
7834.00,0.79
7833.00,0.79
7832.00,0.79
7831.00,0.78
7830.00,0.78
7829.00,0.78
7828.00,0.78
7827.00,0.78
7826.00,0.78
7825.00,0.78
7824.00,0.78
7823.00,0.78
7822.00,0.78
7821.00,0.79
7820.00,0.79
7819.00,0.79
7818.00,0.79
7817.00,0.79
7816.00,0.79
7815.00,0.79
7814.00,0.79
7813.00,0.79
7812.00,0.79
7811.00,0.79
7810.00,0.79
7809.00,0.79
7808.00,0.79
7807.00,0.79
7806.00,0.79
7805.00,0.79
7804.00,0.79
7803.00,0.79
7802.00,0.79
7801.00,0.79
7800.00,0.79
7799.00,0.79
7798.00,0.79
7797.00,0.79
7796.00,0.79
7795.00,0.79
7794.00,0.79
7793.00,0.79
7792.00,0.79
7791.00,0.79
7790.00,0.79
7789.00,0.79
7788.00,0.79
7787.00,0.79
7786.00,0.79
7785.00,0.79
7784.00,0.79
7783.00,0.79
7782.00,0.79
7781.00,0.79
7780.00,0.79
7779.00,0.79
7778.00,0.79
7777.00,0.79
7776.00,0.79
7775.00,0.79
7774.00,0.79
7773.00,0.79
7772.00,0.79
7771.00,0.79
7770.00,0.79
7769.00,0.79
7768.00,0.80
7767.00,0.80
7766.00,0.80
7765.00,0.80
7764.00,0.80
7763.00,0.80
7762.00,0.80
7761.00,0.80
7760.00,0.80
7759.00,0.80
7758.00,0.80
7757.00,0.80
7756.00,0.79
7755.00,0.79
7754.00,0.79
7753.00,0.79
7752.00,0.79
7751.00,0.80
7750.00,0.80
7749.00,0.80
7748.00,0.80
7747.00,0.80
7746.00,0.80
7745.00,0.80
7744.00,0.80
7743.00,0.80
7742.00,0.80
7741.00,0.80
7740.00,0.80
7739.00,0.80
7738.00,0.80
7737.00,0.80
7736.00,0.80
7735.00,0.80
7734.00,0.80
7733.00,0.80
7732.00,0.80
7731.00,0.80
7730.00,0.80
7729.00,0.80
7728.00,0.80
7727.00,0.80
7726.00,0.80
7725.00,0.80
7724.00,0.80
7723.00,0.80
7722.00,0.80
7721.00,0.80
7720.00,0.80
7719.00,0.80
7718.00,0.80
7717.00,0.80
7716.00,0.80
7715.00,0.80
7714.00,0.80
7713.00,0.80
7712.00,0.80
7711.00,0.80
7710.00,0.80
7709.00,0.80
7708.00,0.80
7707.00,0.80
7706.00,0.80
7705.00,0.80
7704.00,0.80
7703.00,0.80
7702.00,0.80
7701.00,0.80
7700.00,0.80
7699.00,0.80
7698.00,0.80
7697.00,0.80
7696.00,0.80
7695.00,0.80
7694.00,0.80
7693.00,0.80
7692.00,0.80
7691.00,0.80
7690.00,0.80
7689.00,0.80
7688.00,0.80
7687.00,0.80
7686.00,0.80
7685.00,0.80
7684.00,0.80
7683.00,0.80
7682.00,0.80
7681.00,0.80
7680.00,0.80
7679.00,0.80
7678.00,0.80
7677.00,0.80
7676.00,0.80
7675.00,0.80
7674.00,0.80
7673.00,0.80
7672.00,0.80
7671.00,0.80
7670.00,0.79
7669.00,0.79
7668.00,0.79
7667.00,0.79
7666.00,0.79
7665.00,0.79
7664.00,0.79
7663.00,0.79
7662.00,0.79
7661.00,0.79
7660.00,0.79
7659.00,0.79
7658.00,0.79
7657.00,0.79
7656.00,0.79
7655.00,0.79
7654.00,0.79
7653.00,0.79
7652.00,0.80
7651.00,0.80
7650.00,0.80
7649.00,0.80
7648.00,0.80
7647.00,0.80
7646.00,0.80
7645.00,0.80
7644.00,0.80
7643.00,0.80
7642.00,0.80
7641.00,0.80
7640.00,0.80
7639.00,0.80
7638.00,0.80
7637.00,0.80
7636.00,0.80
7635.00,0.80
7634.00,0.80
7633.00,0.80
7632.00,0.80
7631.00,0.80
7630.00,0.80
7629.00,0.79
7628.00,0.79
7627.00,0.79
7626.00,0.79
7625.00,0.79
7624.00,0.79
7623.00,0.79
7622.00,0.79
7621.00,0.79
7620.00,0.79
7619.00,0.79
7618.00,0.79
7617.00,0.79
7616.00,0.79
7615.00,0.79
7614.00,0.79
7613.00,0.79
7612.00,0.79
7611.00,0.79
7610.00,0.79
7609.00,0.79
7608.00,0.79
7607.00,0.79
7606.00,0.79
7605.00,0.79
7604.00,0.79
7603.00,0.79
7602.00,0.79
7601.00,0.79
7600.00,0.79
7599.00,0.79
7598.00,0.79
7597.00,0.79
7596.00,0.79
7595.00,0.79
7594.00,0.79
7593.00,0.79
7592.00,0.79
7591.00,0.79
7590.00,0.79
7589.00,0.79
7588.00,0.79
7587.00,0.79
7586.00,0.79
7585.00,0.79
7584.00,0.79
7583.00,0.79
7582.00,0.79
7581.00,0.79
7580.00,0.79
7579.00,0.79
7578.00,0.79
7577.00,0.79
7576.00,0.79
7575.00,0.79
7574.00,0.79
7573.00,0.79
7572.00,0.79
7571.00,0.79
7570.00,0.79
7569.00,0.79
7568.00,0.79
7567.00,0.79
7566.00,0.79
7565.00,0.79
7564.00,0.79
7563.00,0.78
7562.00,0.78
7561.00,0.78
7560.00,0.78
7559.00,0.78
7558.00,0.78
7557.00,0.78
7556.00,0.78
7555.00,0.78
7554.00,0.78
7553.00,0.78
7552.00,0.78
7551.00,0.78
7550.00,0.78
7549.00,0.78
7548.00,0.78
7547.00,0.78
7546.00,0.78
7545.00,0.78
7544.00,0.78
7543.00,0.79
7542.00,0.79
7541.00,0.79
7540.00,0.79
7539.00,0.79
7538.00,0.79
7537.00,0.79
7536.00,0.79
7535.00,0.79
7534.00,0.79
7533.00,0.79
7532.00,0.79
7531.00,0.79
7530.00,0.79
7529.00,0.79
7528.00,0.79
7527.00,0.79
7526.00,0.79
7525.00,0.79
7524.00,0.79
7523.00,0.79
7522.00,0.79
7521.00,0.79
7520.00,0.79
7519.00,0.78
7518.00,0.78
7517.00,0.78
7516.00,0.78
7515.00,0.78
7514.00,0.78
7513.00,0.78
7512.00,0.78
7511.00,0.78
7510.00,0.78
7509.00,0.78
7508.00,0.78
7507.00,0.78
7506.00,0.77
7505.00,0.77
7504.00,0.77
7503.00,0.77
7502.00,0.77
7501.00,0.77
7500.00,0.77
7499.00,0.77
7498.00,0.77
7497.00,0.77
7496.00,0.77
7495.00,0.77
7494.00,0.77
7493.00,0.77
7492.00,0.77
7491.00,0.77
7490.00,0.77
7489.00,0.77
7488.00,0.77
7487.00,0.77
7486.00,0.77
7485.00,0.77
7484.00,0.77
7483.00,0.77
7482.00,0.77
7481.00,0.77
7480.00,0.77
7479.00,0.77
7478.00,0.77
7477.00,0.77
7476.00,0.77
7475.00,0.77
7474.00,0.77
7473.00,0.77
7472.00,0.77
7471.00,0.77
7470.00,0.77
7469.00,0.77
7468.00,0.77
7467.00,0.77
7466.00,0.77
7465.00,0.77
7464.00,0.77
7463.00,0.77
7462.00,0.77
7461.00,0.77
7460.00,0.77
7459.00,0.77
7458.00,0.77
7457.00,0.77
7456.00,0.77
7455.00,0.77
7454.00,0.76
7453.00,0.76
7452.00,0.76
7451.00,0.76
7450.00,0.76
7449.00,0.76
7448.00,0.76
7447.00,0.76
7446.00,0.76
7445.00,0.76
7444.00,0.76
7443.00,0.76
7442.00,0.76
7441.00,0.76
7440.00,0.76
7439.00,0.75
7438.00,0.75
7437.00,0.75
7436.00,0.75
7435.00,0.75
7434.00,0.75
7433.00,0.75
7432.00,0.75
7431.00,0.75
7430.00,0.75
7429.00,0.75
7428.00,0.75
7427.00,0.75
7426.00,0.75
7425.00,0.75
7424.00,0.75
7423.00,0.75
7422.00,0.75
7421.00,0.75
7420.00,0.75
7419.00,0.75
7418.00,0.75
7417.00,0.75
7416.00,0.75
7415.00,0.74
7414.00,0.74
7413.00,0.74
7412.00,0.74
7411.00,0.74
7410.00,0.74
7409.00,0.74
7408.00,0.74
7407.00,0.74
7406.00,0.74
7405.00,0.74
7404.00,0.74
7403.00,0.74
7402.00,0.74
7401.00,0.74
7400.00,0.74
7399.00,0.74
7398.00,0.74
7397.00,0.74
7396.00,0.73
7395.00,0.73
7394.00,0.73
7393.00,0.73
7392.00,0.73
7391.00,0.73
7390.00,0.73
7389.00,0.73
7388.00,0.73
7387.00,0.73
7386.00,0.73
7385.00,0.73
7384.00,0.73
7383.00,0.73
7382.00,0.73
7381.00,0.73
7380.00,0.73
7379.00,0.73
7378.00,0.73
7377.00,0.73
7376.00,0.73
7375.00,0.73
7374.00,0.73
7373.00,0.73
7372.00,0.73
7371.00,0.73
7370.00,0.73
7369.00,0.73
7368.00,0.73
7367.00,0.73
7366.00,0.73
7365.00,0.73
7364.00,0.73
7363.00,0.73
7362.00,0.73
7361.00,0.73
7360.00,0.73
7359.00,0.73
7358.00,0.73
7357.00,0.72
7356.00,0.72
7355.00,0.72
7354.00,0.72
7353.00,0.72
7352.00,0.72
7351.00,0.72
7350.00,0.72
7349.00,0.72
7348.00,0.72
7347.00,0.72
7346.00,0.72
7345.00,0.72
7344.00,0.72
7343.00,0.72
7342.00,0.72
7341.00,0.72
7340.00,0.72
7339.00,0.72
7338.00,0.72
7337.00,0.72
7336.00,0.72
7335.00,0.72
7334.00,0.72
7333.00,0.72
7332.00,0.72
7331.00,0.72
7330.00,0.72
7329.00,0.72
7328.00,0.72
7327.00,0.71
7326.00,0.71
7325.00,0.71
7324.00,0.71
7323.00,0.71
7322.00,0.71
7321.00,0.71
7320.00,0.71
7319.00,0.71
7318.00,0.71
7317.00,0.71
7316.00,0.71
7315.00,0.71
7314.00,0.71
7313.00,0.71
7312.00,0.71
7311.00,0.71
7310.00,0.71
7309.00,0.71
7308.00,0.71
7307.00,0.71
7306.00,0.71
7305.00,0.71
7304.00,0.71
7303.00,0.70
7302.00,0.70
7301.00,0.70
7300.00,0.70
7299.00,0.70
7298.00,0.70
7297.00,0.70
7296.00,0.70
7295.00,0.70
7294.00,0.70
7293.00,0.70
7292.00,0.70
7291.00,0.70
7290.00,0.70
7289.00,0.69
7288.00,0.69
7287.00,0.69
7286.00,0.69
7285.00,0.69
7284.00,0.69
7283.00,0.69
7282.00,0.69
7281.00,0.69
7280.00,0.69
7279.00,0.69
7278.00,0.69
7277.00,0.68
7276.00,0.68
7275.00,0.68
7274.00,0.68
7273.00,0.68
7272.00,0.67
7271.00,0.67
7270.00,0.67
7269.00,0.67
7268.00,0.67
7267.00,0.67
7266.00,0.67
7265.00,0.67
7264.00,0.67
7263.00,0.67
7262.00,0.67
7261.00,0.67
7260.00,0.67
7259.00,0.67
7258.00,0.67
7257.00,0.67
7256.00,0.67
7255.00,0.67
7254.00,0.67
7253.00,0.66
7252.00,0.66
7251.00,0.66
7250.00,0.66
7249.00,0.66
7248.00,0.66
7247.00,0.66
7246.00,0.66
7245.00,0.66
7244.00,0.65
7243.00,0.65
7242.00,0.65
7241.00,0.65
7240.00,0.64
7239.00,0.64
7238.00,0.64
7237.00,0.64
7236.00,0.63
7235.00,0.63
7234.00,0.63
7233.00,0.63
7232.00,0.63
7231.00,0.62
7230.00,0.62
7229.00,0.62
7228.00,0.62
7227.00,0.62
7226.00,0.62
7225.00,0.62
7224.00,0.61
7223.00,0.61
7222.00,0.61
7221.00,0.61
7220.00,0.61
7219.00,0.61
7218.00,0.61
7217.00,0.61
7216.00,0.61
7215.00,0.60
7214.00,0.60
7213.00,0.60
7212.00,0.60
7211.00,0.60
7210.00,0.59
7209.00,0.59
7208.00,0.59
7207.00,0.59
7206.00,0.59
7205.00,0.58
7204.00,0.58
7203.00,0.58
7202.00,0.58
7201.00,0.58
7200.00,0.57
7199.00,0.57
7198.00,0.57
7197.00,0.57
7196.00,0.57
7195.00,0.56
7194.00,0.56
7193.00,0.56
7192.00,0.56
7191.00,0.56
7190.00,0.55
7189.00,0.55
7188.00,0.55
7187.00,0.55
7186.00,0.54
7185.00,0.54
7184.00,0.54
7183.00,0.54
7182.00,0.54
7181.00,0.53
7180.00,0.53
7179.00,0.53
7178.00,0.53
7177.00,0.53
7176.00,0.52
7175.00,0.52
7174.00,0.52
7173.00,0.52
7172.00,0.52
7171.00,0.52
7170.00,0.51
7169.00,0.51
7168.00,0.51
7167.00,0.51
7166.00,0.51
7165.00,0.50
7164.00,0.50
7163.00,0.50
7162.00,0.50
7161.00,0.50
7160.00,0.49
7159.00,0.49
7158.00,0.49
7157.00,0.49
7156.00,0.49
7155.00,0.48
7154.00,0.48
7153.00,0.48
7152.00,0.48
7151.00,0.48
7150.00,0.47
7149.00,0.47
7148.00,0.47
7147.00,0.47
7146.00,0.47
7145.00,0.47
7144.00,0.46
7143.00,0.46
7142.00,0.46
7141.00,0.46
7140.00,0.46
7139.00,0.46
7138.00,0.45
7137.00,0.45
7136.00,0.45
7135.00,0.45
7134.00,0.45
7133.00,0.45
7132.00,0.45
7131.00,0.45
7130.00,0.44
7129.00,0.44
7128.00,0.44
7127.00,0.44
7126.00,0.44
7125.00,0.44
7124.00,0.44
7123.00,0.44
7122.00,0.44
7121.00,0.44
7120.00,0.44
7119.00,0.43
7118.00,0.43
7117.00,0.43
7116.00,0.43
7115.00,0.43
7114.00,0.43
7113.00,0.43
7112.00,0.43
7111.00,0.43
7110.00,0.43
7109.00,0.43
7108.00,0.42
7107.00,0.42
7106.00,0.42
7105.00,0.42
7104.00,0.42
7103.00,0.42
7102.00,0.42
7101.00,0.42
7100.00,0.42
7099.00,0.41
7098.00,0.41
7097.00,0.41
7096.00,0.41
7095.00,0.41
7094.00,0.41
7093.00,0.41
7092.00,0.41
7091.00,0.41
7090.00,0.41
7089.00,0.40
7088.00,0.40
7087.00,0.40
7086.00,0.40
7085.00,0.40
7084.00,0.40
7083.00,0.40
7082.00,0.40
7081.00,0.40
7080.00,0.40
7079.00,0.40
7078.00,0.40
7077.00,0.40
7076.00,0.40
7075.00,0.40
7074.00,0.40
7073.00,0.40
7072.00,0.40
7071.00,0.40
7070.00,0.40
7069.00,0.40
7068.00,0.40
7067.00,0.40
7066.00,0.40
7065.00,0.40
7064.00,0.40
7063.00,0.39
7062.00,0.39
7061.00,0.39
7060.00,0.39
7059.00,0.39
7058.00,0.39
7057.00,0.39
7056.00,0.39
7055.00,0.39
7054.00,0.39
7053.00,0.39
7052.00,0.39
7051.00,0.39
7050.00,0.39
7049.00,0.39
7048.00,0.39
7047.00,0.39
7046.00,0.39
7045.00,0.39
7044.00,0.39
7043.00,0.39
7042.00,0.39
7041.00,0.39
7040.00,0.38
7039.00,0.38
7038.00,0.38
7037.00,0.38
7036.00,0.38
7035.00,0.38
7034.00,0.38
7033.00,0.38
7032.00,0.38
7031.00,0.38
7030.00,0.38
7029.00,0.38
7028.00,0.38
7027.00,0.38
7026.00,0.37
7025.00,0.37
7024.00,0.37
7023.00,0.37
7022.00,0.37
7021.00,0.37
7020.00,0.37
7019.00,0.37
7018.00,0.37
7017.00,0.37
7016.00,0.37
7015.00,0.37
7014.00,0.37
7013.00,0.37
7012.00,0.37
7011.00,0.37
7010.00,0.37
7009.00,0.37
7008.00,0.37
7007.00,0.37
7006.00,0.37
7005.00,0.37
7004.00,0.36
7003.00,0.36
7002.00,0.36
7001.00,0.36
7000.00,0.36
6999.00,0.36
6998.00,0.36
6997.00,0.36
6996.00,0.36
6995.00,0.36
6994.00,0.36
6993.00,0.36
6992.00,0.36
6991.00,0.36
6990.00,0.37
6989.00,0.37
6988.00,0.37
6987.00,0.37
6986.00,0.37
6985.00,0.37
6984.00,0.37
6983.00,0.37
6982.00,0.37
6981.00,0.37
6980.00,0.37
6979.00,0.37
6978.00,0.37
6977.00,0.37
6976.00,0.37
6975.00,0.37
6974.00,0.37
6973.00,0.37
6972.00,0.37
6971.00,0.37
6970.00,0.37
6969.00,0.37
6968.00,0.37
6967.00,0.37
6966.00,0.37
6965.00,0.37
6964.00,0.37
6963.00,0.37
6962.00,0.37
6961.00,0.37
6960.00,0.37
6959.00,0.37
6958.00,0.37
6957.00,0.37
6956.00,0.37
6955.00,0.37
6954.00,0.37
6953.00,0.37
6952.00,0.37
6951.00,0.37
6950.00,0.36
6949.00,0.36
6948.00,0.36
6947.00,0.36
6946.00,0.36
6945.00,0.36
6944.00,0.36
6943.00,0.36
6942.00,0.36
6941.00,0.36
6940.00,0.36
6939.00,0.36
6938.00,0.36
6937.00,0.36
6936.00,0.36
6935.00,0.36
6934.00,0.35
6933.00,0.35
6932.00,0.35
6931.00,0.35
6930.00,0.35
6929.00,0.35
6928.00,0.35
6927.00,0.35
6926.00,0.35
6925.00,0.36
6924.00,0.36
6923.00,0.36
6922.00,0.36
6921.00,0.36
6920.00,0.36
6919.00,0.36
6918.00,0.36
6917.00,0.36
6916.00,0.36
6915.00,0.36
6914.00,0.36
6913.00,0.36
6912.00,0.36
6911.00,0.36
6910.00,0.36
6909.00,0.36
6908.00,0.36
6907.00,0.36
6906.00,0.36
6905.00,0.36
6904.00,0.36
6903.00,0.36
6902.00,0.36
6901.00,0.36
6900.00,0.36
6899.00,0.36
6898.00,0.36
6897.00,0.36
6896.00,0.36
6895.00,0.36
6894.00,0.36
6893.00,0.36
6892.00,0.36
6891.00,0.36
6890.00,0.36
6889.00,0.36
6888.00,0.36
6887.00,0.36
6886.00,0.36
6885.00,0.36
6884.00,0.36
6883.00,0.36
6882.00,0.36
6881.00,0.36
6880.00,0.36
6879.00,0.36
6878.00,0.36
6877.00,0.36
6876.00,0.36
6875.00,0.36
6874.00,0.36
6873.00,0.36
6872.00,0.36
6871.00,0.36
6870.00,0.36
6869.00,0.36
6868.00,0.36
6867.00,0.36
6866.00,0.36
6865.00,0.36
6864.00,0.36
6863.00,0.36
6862.00,0.36
6861.00,0.36
6860.00,0.36
6859.00,0.36
6858.00,0.36
6857.00,0.36
6856.00,0.36
6855.00,0.36
6854.00,0.36
6853.00,0.36
6852.00,0.36
6851.00,0.36
6850.00,0.36
6849.00,0.36
6848.00,0.36
6847.00,0.36
6846.00,0.36
6845.00,0.36
6844.00,0.36
6843.00,0.36
6842.00,0.36
6841.00,0.36
6840.00,0.36
6839.00,0.36
6838.00,0.36
6837.00,0.36
6836.00,0.36
6835.00,0.36
6834.00,0.36
6833.00,0.36
6832.00,0.37
6831.00,0.37
6830.00,0.37
6829.00,0.37
6828.00,0.37
6827.00,0.37
6826.00,0.37
6825.00,0.37
6824.00,0.37
6823.00,0.37
6822.00,0.38
6821.00,0.38
6820.00,0.38
6819.00,0.38
6818.00,0.38
6817.00,0.38
6816.00,0.38
6815.00,0.38
6814.00,0.38
6813.00,0.38
6812.00,0.38
6811.00,0.38
6810.00,0.38
6809.00,0.37
6808.00,0.37
6807.00,0.37
6806.00,0.37
6805.00,0.37
6804.00,0.37
6803.00,0.37
6802.00,0.37
6801.00,0.37
6800.00,0.37
6799.00,0.37
6798.00,0.38
6797.00,0.38
6796.00,0.38
6795.00,0.38
6794.00,0.38
6793.00,0.38
6792.00,0.38
6791.00,0.38
6790.00,0.38
6789.00,0.38
6788.00,0.38
6787.00,0.38
6786.00,0.38
6785.00,0.38
6784.00,0.38
6783.00,0.38
6782.00,0.38
6781.00,0.38
6780.00,0.38
6779.00,0.38
6778.00,0.38
6777.00,0.38
6776.00,0.38
6775.00,0.38
6774.00,0.38
6773.00,0.38
6772.00,0.38
6771.00,0.38
6770.00,0.38
6769.00,0.38
6768.00,0.38
6767.00,0.38
6766.00,0.38
6765.00,0.38
6764.00,0.38
6763.00,0.38
6762.00,0.38
6761.00,0.38
6760.00,0.38
6759.00,0.38
6758.00,0.39
6757.00,0.39
6756.00,0.39
6755.00,0.39
6754.00,0.39
6753.00,0.39
6752.00,0.39
6751.00,0.39
6750.00,0.39
6749.00,0.39
6748.00,0.39
6747.00,0.39
6746.00,0.39
6745.00,0.39
6744.00,0.39
6743.00,0.39
6742.00,0.39
6741.00,0.39
6740.00,0.39
6739.00,0.39
6738.00,0.39
6737.00,0.39
6736.00,0.39
6735.00,0.39
6734.00,0.39
6733.00,0.39
6732.00,0.39
6731.00,0.39
6730.00,0.39
6729.00,0.39
6728.00,0.39
6727.00,0.39
6726.00,0.39
6725.00,0.39
6724.00,0.40
6723.00,0.40
6722.00,0.40
6721.00,0.40
6720.00,0.40
6719.00,0.40
6718.00,0.40
6717.00,0.40
6716.00,0.40
6715.00,0.40
6714.00,0.40
6713.00,0.40
6712.00,0.40
6711.00,0.40
6710.00,0.40
6709.00,0.40
6708.00,0.40
6707.00,0.40
6706.00,0.40
6705.00,0.40
6704.00,0.40
6703.00,0.40
6702.00,0.40
6701.00,0.40
6700.00,0.40
6699.00,0.40
6698.00,0.40
6697.00,0.40
6696.00,0.40
6695.00,0.41
6694.00,0.41
6693.00,0.41
6692.00,0.41
6691.00,0.41
6690.00,0.41
6689.00,0.41
6688.00,0.41
6687.00,0.41
6686.00,0.41
6685.00,0.41
6684.00,0.41
6683.00,0.41
6682.00,0.41
6681.00,0.41
6680.00,0.41
6679.00,0.41
6678.00,0.41
6677.00,0.41
6676.00,0.41
6675.00,0.41
6674.00,0.41
6673.00,0.41
6672.00,0.41
6671.00,0.41
6670.00,0.41
6669.00,0.41
6668.00,0.41
6667.00,0.41
6666.00,0.41
6665.00,0.42
6664.00,0.42
6663.00,0.42
6662.00,0.42
6661.00,0.42
6660.00,0.42
6659.00,0.42
6658.00,0.42
6657.00,0.42
6656.00,0.42
6655.00,0.42
6654.00,0.42
6653.00,0.42
6652.00,0.42
6651.00,0.42
6650.00,0.42
6649.00,0.42
6648.00,0.42
6647.00,0.42
6646.00,0.42
6645.00,0.42
6644.00,0.42
6643.00,0.42
6642.00,0.42
6641.00,0.43
6640.00,0.43
6639.00,0.43
6638.00,0.43
6637.00,0.43
6636.00,0.43
6635.00,0.43
6634.00,0.43
6633.00,0.43
6632.00,0.43
6631.00,0.43
6630.00,0.43
6629.00,0.43
6628.00,0.43
6627.00,0.43
6626.00,0.43
6625.00,0.43
6624.00,0.43
6623.00,0.43
6622.00,0.43
6621.00,0.43
6620.00,0.43
6619.00,0.43
6618.00,0.43
6617.00,0.44
6616.00,0.44
6615.00,0.44
6614.00,0.44
6613.00,0.44
6612.00,0.44
6611.00,0.44
6610.00,0.44
6609.00,0.44
6608.00,0.44
6607.00,0.44
6606.00,0.44
6605.00,0.44
6604.00,0.44
6603.00,0.44
6602.00,0.44
6601.00,0.44
6600.00,0.44
6599.00,0.44
6598.00,0.45
6597.00,0.45
6596.00,0.45
6595.00,0.45
6594.00,0.45
6593.00,0.45
6592.00,0.45
6591.00,0.45
6590.00,0.45
6589.00,0.45
6588.00,0.45
6587.00,0.45
6586.00,0.45
6585.00,0.46
6584.00,0.46
6583.00,0.46
6582.00,0.46
6581.00,0.46
6580.00,0.46
6579.00,0.46
6578.00,0.46
6577.00,0.46
6576.00,0.46
6575.00,0.46
6574.00,0.46
6573.00,0.46
6572.00,0.46
6571.00,0.46
6570.00,0.46
6569.00,0.46
6568.00,0.46
6567.00,0.46
6566.00,0.46
6565.00,0.46
6564.00,0.46
6563.00,0.47
6562.00,0.47
6561.00,0.47
6560.00,0.47
6559.00,0.47
6558.00,0.47
6557.00,0.47
6556.00,0.47
6555.00,0.47
6554.00,0.47
6553.00,0.47
6552.00,0.47
6551.00,0.47
6550.00,0.47
6549.00,0.47
6548.00,0.47
6547.00,0.47
6546.00,0.47
6545.00,0.47
6544.00,0.47
6543.00,0.47
6542.00,0.47
6541.00,0.47
6540.00,0.47
6539.00,0.47
6538.00,0.47
6537.00,0.47
6536.00,0.47
6535.00,0.48
6534.00,0.48
6533.00,0.48
6532.00,0.48
6531.00,0.48
6530.00,0.48
6529.00,0.48
6528.00,0.48
6527.00,0.48
6526.00,0.48
6525.00,0.48
6524.00,0.49
6523.00,0.49
6522.00,0.49
6521.00,0.49
6520.00,0.49
6519.00,0.49
6518.00,0.49
6517.00,0.49
6516.00,0.49
6515.00,0.49
6514.00,0.49
6513.00,0.49
6512.00,0.49
6511.00,0.49
6510.00,0.49
6509.00,0.49
6508.00,0.49
6507.00,0.49
6506.00,0.49
6505.00,0.49
6504.00,0.49
6503.00,0.49
6502.00,0.49
6501.00,0.49
6500.00,0.49
6499.00,0.49
6498.00,0.49
6497.00,0.50
6496.00,0.50
6495.00,0.50
6494.00,0.50
6493.00,0.50
6492.00,0.50
6491.00,0.50
6490.00,0.50
6489.00,0.50
6488.00,0.50
6487.00,0.50
6486.00,0.50
6485.00,0.50
6484.00,0.51
6483.00,0.51
6482.00,0.51
6481.00,0.51
6480.00,0.51
6479.00,0.51
6478.00,0.51
6477.00,0.51
6476.00,0.51
6475.00,0.51
6474.00,0.51
6473.00,0.51
6472.00,0.51
6471.00,0.51
6470.00,0.51
6469.00,0.51
6468.00,0.51
6467.00,0.51
6466.00,0.51
6465.00,0.51
6464.00,0.51
6463.00,0.51
6462.00,0.51
6461.00,0.51
6460.00,0.51
6459.00,0.51
6458.00,0.51
6457.00,0.51
6456.00,0.51
6455.00,0.51
6454.00,0.51
6453.00,0.51
6452.00,0.51
6451.00,0.51
6450.00,0.51
6449.00,0.51
6448.00,0.51
6447.00,0.51
6446.00,0.51
6445.00,0.51
6444.00,0.51
6443.00,0.52
6442.00,0.52
6441.00,0.52
6440.00,0.52
6439.00,0.52
6438.00,0.52
6437.00,0.52
6436.00,0.52
6435.00,0.53
6434.00,0.53
6433.00,0.53
6432.00,0.53
6431.00,0.53
6430.00,0.53
6429.00,0.53
6428.00,0.53
6427.00,0.53
6426.00,0.53
6425.00,0.53
6424.00,0.53
6423.00,0.53
6422.00,0.53
6421.00,0.53
6420.00,0.53
6419.00,0.53
6418.00,0.53
6417.00,0.53
6416.00,0.53
6415.00,0.53
6414.00,0.53
6413.00,0.53
6412.00,0.53
6411.00,0.53
6410.00,0.53
6409.00,0.53
6408.00,0.53
6407.00,0.53
6406.00,0.53
6405.00,0.53
6404.00,0.53
6403.00,0.53
6402.00,0.53
6401.00,0.53
6400.00,0.53
6399.00,0.53
6398.00,0.53
6397.00,0.53
6396.00,0.53
6395.00,0.53
6394.00,0.53
6393.00,0.53
6392.00,0.53
6391.00,0.53
6390.00,0.54
6389.00,0.54
6388.00,0.54
6387.00,0.54
6386.00,0.54
6385.00,0.54
6384.00,0.54
6383.00,0.54
6382.00,0.54
6381.00,0.54
6380.00,0.54
6379.00,0.54
6378.00,0.54
6377.00,0.54
6376.00,0.54
6375.00,0.55
6374.00,0.55
6373.00,0.55
6372.00,0.55
6371.00,0.55
6370.00,0.55
6369.00,0.55
6368.00,0.55
6367.00,0.55
6366.00,0.55
6365.00,0.55
6364.00,0.55
6363.00,0.55
6362.00,0.55
6361.00,0.55
6360.00,0.56
6359.00,0.56
6358.00,0.56
6357.00,0.56
6356.00,0.56
6355.00,0.56
6354.00,0.56
6353.00,0.56
6352.00,0.56
6351.00,0.56
6350.00,0.56
6349.00,0.56
6348.00,0.56
6347.00,0.56
6346.00,0.56
6345.00,0.56
6344.00,0.56
6343.00,0.56
6342.00,0.56
6341.00,0.56
6340.00,0.56
6339.00,0.56
6338.00,0.56
6337.00,0.56
6336.00,0.56
6335.00,0.56
6334.00,0.56
6333.00,0.57
6332.00,0.57
6331.00,0.57
6330.00,0.57
6329.00,0.57
6328.00,0.57
6327.00,0.57
6326.00,0.57
6325.00,0.57
6324.00,0.57
6323.00,0.57
6322.00,0.57
6321.00,0.57
6320.00,0.57
6319.00,0.57
6318.00,0.57
6317.00,0.57
6316.00,0.58
6315.00,0.58
6314.00,0.58
6313.00,0.58
6312.00,0.58
6311.00,0.58
6310.00,0.58
6309.00,0.58
6308.00,0.58
6307.00,0.58
6306.00,0.58
6305.00,0.58
6304.00,0.58
6303.00,0.58
6302.00,0.59
6301.00,0.59
6300.00,0.59
6299.00,0.59
6298.00,0.59
6297.00,0.59
6296.00,0.59
6295.00,0.59
6294.00,0.59
6293.00,0.59
6292.00,0.59
6291.00,0.59
6290.00,0.59
6289.00,0.59
6288.00,0.59
6287.00,0.59
6286.00,0.59
6285.00,0.59
6284.00,0.60
6283.00,0.60
6282.00,0.60
6281.00,0.60
6280.00,0.60
6279.00,0.60
6278.00,0.60
6277.00,0.60
6276.00,0.60
6275.00,0.61
6274.00,0.61
6273.00,0.61
6272.00,0.61
6271.00,0.61
6270.00,0.61
6269.00,0.61
6268.00,0.61
6267.00,0.61
6266.00,0.61
6265.00,0.62
6264.00,0.62
6263.00,0.62
6262.00,0.62
6261.00,0.62
6260.00,0.62
6259.00,0.62
6258.00,0.62
6257.00,0.62
6256.00,0.62
6255.00,0.62
6254.00,0.62
6253.00,0.62
6252.00,0.62
6251.00,0.62
6250.00,0.62
6249.00,0.62
6248.00,0.62
6247.00,0.62
6246.00,0.62
6245.00,0.62
6244.00,0.62
6243.00,0.62
6242.00,0.63
6241.00,0.63
6240.00,0.63
6239.00,0.63
6238.00,0.63
6237.00,0.63
6236.00,0.63
6235.00,0.63
6234.00,0.63
6233.00,0.63
6232.00,0.63
6231.00,0.63
6230.00,0.63
6229.00,0.63
6228.00,0.63
6227.00,0.63
6226.00,0.63
6225.00,0.63
6224.00,0.64
6223.00,0.64
6222.00,0.64
6221.00,0.64
6220.00,0.64
6219.00,0.64
6218.00,0.64
6217.00,0.64
6216.00,0.64
6215.00,0.64
6214.00,0.64
6213.00,0.65
6212.00,0.65
6211.00,0.65
6210.00,0.65
6209.00,0.65
6208.00,0.65
6207.00,0.65
6206.00,0.65
6205.00,0.65
6204.00,0.66
6203.00,0.66
6202.00,0.66
6201.00,0.66
6200.00,0.66
6199.00,0.66
6198.00,0.66
6197.00,0.66
6196.00,0.66
6195.00,0.66
6194.00,0.66
6193.00,0.66
6192.00,0.66
6191.00,0.66
6190.00,0.66
6189.00,0.66
6188.00,0.66
6187.00,0.67
6186.00,0.67
6185.00,0.67
6184.00,0.67
6183.00,0.67
6182.00,0.67
6181.00,0.67
6180.00,0.67
6179.00,0.67
6178.00,0.67
6177.00,0.68
6176.00,0.68
6175.00,0.68
6174.00,0.68
6173.00,0.68
6172.00,0.68
6171.00,0.68
6170.00,0.68
6169.00,0.68
6168.00,0.68
6167.00,0.68
6166.00,0.68
6165.00,0.69
6164.00,0.69
6163.00,0.69
6162.00,0.69
6161.00,0.69
6160.00,0.69
6159.00,0.69
6158.00,0.69
6157.00,0.69
6156.00,0.69
6155.00,0.69
6154.00,0.69
6153.00,0.69
6152.00,0.69
6151.00,0.70
6150.00,0.70
6149.00,0.70
6148.00,0.70
6147.00,0.70
6146.00,0.70
6145.00,0.70
6144.00,0.70
6143.00,0.70
6142.00,0.70
6141.00,0.70
6140.00,0.70
6139.00,0.70
6138.00,0.70
6137.00,0.70
6136.00,0.70
6135.00,0.70
6134.00,0.70
6133.00,0.71
6132.00,0.71
6131.00,0.71
6130.00,0.71
6129.00,0.71
6128.00,0.71
6127.00,0.71
6126.00,0.71
6125.00,0.71
6124.00,0.71
6123.00,0.71
6122.00,0.71
6121.00,0.71
6120.00,0.71
6119.00,0.71
6118.00,0.71
6117.00,0.72
6116.00,0.72
6115.00,0.72
6114.00,0.72
6113.00,0.72
6112.00,0.72
6111.00,0.72
6110.00,0.72
6109.00,0.72
6108.00,0.72
6107.00,0.72
6106.00,0.72
6105.00,0.73
6104.00,0.73
6103.00,0.73
6102.00,0.73
6101.00,0.73
6100.00,0.73
6099.00,0.73
6098.00,0.73
6097.00,0.74
6096.00,0.74
6095.00,0.74
6094.00,0.74
6093.00,0.74
6092.00,0.74
6091.00,0.74
6090.00,0.74
6089.00,0.74
6088.00,0.74
6087.00,0.74
6086.00,0.74
6085.00,0.74
6084.00,0.75
6083.00,0.75
6082.00,0.75
6081.00,0.75
6080.00,0.75
6079.00,0.75
6078.00,0.75
6077.00,0.75
6076.00,0.75
6075.00,0.75
6074.00,0.75
6073.00,0.75
6072.00,0.75
6071.00,0.75
6070.00,0.75
6069.00,0.75
6068.00,0.75
6067.00,0.75
6066.00,0.75
6065.00,0.76
6064.00,0.76
6063.00,0.76
6062.00,0.76
6061.00,0.76
6060.00,0.76
6059.00,0.76
6058.00,0.76
6057.00,0.76
6056.00,0.76
6055.00,0.76
6054.00,0.76
6053.00,0.76
6052.00,0.76
6051.00,0.76
6050.00,0.76
6049.00,0.76
6048.00,0.76
6047.00,0.76
6046.00,0.77
6045.00,0.77
6044.00,0.77
6043.00,0.77
6042.00,0.77
6041.00,0.77
6040.00,0.77
6039.00,0.77
6038.00,0.77
6037.00,0.77
6036.00,0.77
6035.00,0.77
6034.00,0.77
6033.00,0.77
6032.00,0.77
6031.00,0.77
6030.00,0.77
6029.00,0.77
6028.00,0.77
6027.00,0.77
6026.00,0.77
6025.00,0.77
6024.00,0.77
6023.00,0.77
6022.00,0.77
6021.00,0.77
6020.00,0.77
6019.00,0.77
6018.00,0.77
6017.00,0.77
6016.00,0.77
6015.00,0.77
6014.00,0.77
6013.00,0.77
6012.00,0.77
6011.00,0.77
6010.00,0.77
6009.00,0.77
6008.00,0.77
6007.00,0.77
6006.00,0.77
6005.00,0.78
6004.00,0.78
6003.00,0.78
6002.00,0.78
6001.00,0.78
6000.00,0.77
5999.00,0.77
5998.00,0.77
5997.00,0.77
5996.00,0.77
5995.00,0.77
5994.00,0.77
5993.00,0.77
5992.00,0.77
5991.00,0.77
5990.00,0.77
5989.00,0.77
5988.00,0.77
5987.00,0.77
5986.00,0.76
5985.00,0.76
5984.00,0.76
5983.00,0.76
5982.00,0.76
5981.00,0.76
5980.00,0.75
5979.00,0.75
5978.00,0.75
5977.00,0.75
5976.00,0.74
5975.00,0.74
5974.00,0.74
5973.00,0.74
5972.00,0.73
5971.00,0.73
5970.00,0.73
5969.00,0.73
5968.00,0.72
5967.00,0.72
5966.00,0.72
5965.00,0.71
5964.00,0.71
5963.00,0.71
5962.00,0.71
5961.00,0.70
5960.00,0.70
5959.00,0.70
5958.00,0.69
5957.00,0.69
5956.00,0.69
5955.00,0.69
5954.00,0.68
5953.00,0.68
5952.00,0.68
5951.00,0.68
5950.00,0.68
5949.00,0.68
5948.00,0.67
5947.00,0.67
5946.00,0.67
5945.00,0.67
5944.00,0.67
5943.00,0.67
5942.00,0.67
5941.00,0.67
5940.00,0.67
5939.00,0.66
5938.00,0.66
5937.00,0.66
5936.00,0.66
5935.00,0.66
5934.00,0.66
5933.00,0.66
5932.00,0.66
5931.00,0.66
5930.00,0.66
5929.00,0.66
5928.00,0.65
5927.00,0.65
5926.00,0.65
5925.00,0.65
5924.00,0.65
5923.00,0.65
5922.00,0.65
5921.00,0.65
5920.00,0.64
5919.00,0.64
5918.00,0.64
5917.00,0.64
5916.00,0.64
5915.00,0.64
5914.00,0.64
5913.00,0.64
5912.00,0.63
5911.00,0.63
5910.00,0.63
5909.00,0.63
5908.00,0.63
5907.00,0.63
5906.00,0.63
5905.00,0.63
5904.00,0.63
5903.00,0.63
5902.00,0.63
5901.00,0.63
5900.00,0.63
5899.00,0.63
5898.00,0.63
5897.00,0.63
5896.00,0.64
5895.00,0.64
5894.00,0.64
5893.00,0.64
5892.00,0.64
5891.00,0.64
5890.00,0.64
5889.00,0.64
5888.00,0.65
5887.00,0.65
5886.00,0.65
5885.00,0.65
5884.00,0.65
5883.00,0.65
5882.00,0.65
5881.00,0.66
5880.00,0.66
5879.00,0.66
5878.00,0.66
5877.00,0.66
5876.00,0.66
5875.00,0.66
5874.00,0.67
5873.00,0.67
5872.00,0.67
5871.00,0.67
5870.00,0.67
5869.00,0.67
5868.00,0.67
5867.00,0.67
5866.00,0.67
5865.00,0.67
5864.00,0.67
5863.00,0.67
5862.00,0.68
5861.00,0.68
5860.00,0.68
5859.00,0.68
5858.00,0.68
5857.00,0.68
5856.00,0.68
5855.00,0.68
5854.00,0.68
5853.00,0.68
5852.00,0.68
5851.00,0.68
5850.00,0.68
5849.00,0.68
5848.00,0.68
5847.00,0.68
5846.00,0.68
5845.00,0.68
5844.00,0.68
5843.00,0.68
5842.00,0.68
5841.00,0.68
5840.00,0.68
5839.00,0.68
5838.00,0.68
5837.00,0.68
5836.00,0.68
5835.00,0.68
5834.00,0.68
5833.00,0.68
5832.00,0.68
5831.00,0.68
5830.00,0.68
5829.00,0.68
5828.00,0.68
5827.00,0.68
5826.00,0.68
5825.00,0.68
5824.00,0.68
5823.00,0.68
5822.00,0.68
5821.00,0.68
5820.00,0.68
5819.00,0.69
5818.00,0.69
5817.00,0.69
5816.00,0.69
5815.00,0.69
5814.00,0.69
5813.00,0.69
5812.00,0.69
5811.00,0.69
5810.00,0.69
5809.00,0.69
5808.00,0.68
5807.00,0.68
5806.00,0.68
5805.00,0.68
5804.00,0.68
5803.00,0.68
5802.00,0.68
5801.00,0.68
5800.00,0.68
5799.00,0.68
5798.00,0.67
5797.00,0.67
5796.00,0.67
5795.00,0.67
5794.00,0.67
5793.00,0.67
5792.00,0.67
5791.00,0.67
5790.00,0.67
5789.00,0.67
5788.00,0.66
5787.00,0.66
5786.00,0.66
5785.00,0.66
5784.00,0.66
5783.00,0.66
5782.00,0.66
5781.00,0.66
5780.00,0.66
5779.00,0.66
5778.00,0.66
5777.00,0.66
5776.00,0.66
5775.00,0.66
5774.00,0.66
5773.00,0.66
5772.00,0.66
5771.00,0.66
5770.00,0.66
5769.00,0.66
5768.00,0.66
5767.00,0.66
5766.00,0.66
5765.00,0.66
5764.00,0.66
5763.00,0.66
5762.00,0.67
5761.00,0.67
5760.00,0.67
5759.00,0.67
5758.00,0.67
5757.00,0.67
5756.00,0.67
5755.00,0.67
5754.00,0.67
5753.00,0.68
5752.00,0.68
5751.00,0.68
5750.00,0.68
5749.00,0.68
5748.00,0.68
5747.00,0.68
5746.00,0.69
5745.00,0.69
5744.00,0.69
5743.00,0.69
5742.00,0.69
5741.00,0.69
5740.00,0.69
5739.00,0.70
5738.00,0.70
5737.00,0.70
5736.00,0.70
5735.00,0.70
5734.00,0.70
5733.00,0.70
5732.00,0.70
5731.00,0.70
5730.00,0.70
5729.00,0.70
5728.00,0.70
5727.00,0.70
5726.00,0.70
5725.00,0.70
5724.00,0.70
5723.00,0.70
5722.00,0.70
5721.00,0.70
5720.00,0.70
5719.00,0.70
5718.00,0.70
5717.00,0.70
5716.00,0.70
5715.00,0.70
5714.00,0.70
5713.00,0.70
5712.00,0.70
5711.00,0.70
5710.00,0.70
5709.00,0.70
5708.00,0.70
5707.00,0.70
5706.00,0.70
5705.00,0.70
5704.00,0.70
5703.00,0.70
5702.00,0.70
5701.00,0.69
5700.00,0.69
5699.00,0.69
5698.00,0.69
5697.00,0.69
5696.00,0.69
5695.00,0.69
5694.00,0.69
5693.00,0.69
5692.00,0.69
5691.00,0.69
5690.00,0.69
5689.00,0.69
5688.00,0.69
5687.00,0.69
5686.00,0.69
5685.00,0.69
5684.00,0.69
5683.00,0.69
5682.00,0.69
5681.00,0.68
5680.00,0.68
5679.00,0.68
5678.00,0.68
5677.00,0.68
5676.00,0.68
5675.00,0.68
5674.00,0.68
5673.00,0.68
5672.00,0.68
5671.00,0.68
5670.00,0.68
5669.00,0.68
5668.00,0.68
5667.00,0.68
5666.00,0.68
5665.00,0.68
5664.00,0.68
5663.00,0.68
5662.00,0.68
5661.00,0.68
5660.00,0.68
5659.00,0.68
5658.00,0.68
5657.00,0.69
5656.00,0.69
5655.00,0.69
5654.00,0.69
5653.00,0.69
5652.00,0.69
5651.00,0.69
5650.00,0.69
5649.00,0.69
5648.00,0.69
5647.00,0.69
5646.00,0.69
5645.00,0.69
5644.00,0.69
5643.00,0.70
5642.00,0.70
5641.00,0.70
5640.00,0.70
5639.00,0.70
5638.00,0.70
5637.00,0.70
5636.00,0.70
5635.00,0.70
5634.00,0.70
5633.00,0.70
5632.00,0.71
5631.00,0.71
5630.00,0.71
5629.00,0.71
5628.00,0.71
5627.00,0.71
5626.00,0.71
5625.00,0.71
5624.00,0.71
5623.00,0.71
5622.00,0.71
5621.00,0.71
5620.00,0.71
5619.00,0.71
5618.00,0.71
5617.00,0.71
5616.00,0.72
5615.00,0.72
5614.00,0.72
5613.00,0.72
5612.00,0.72
5611.00,0.72
5610.00,0.72
5609.00,0.72
5608.00,0.72
5607.00,0.72
5606.00,0.72
5605.00,0.72
5604.00,0.72
5603.00,0.72
5602.00,0.73
5601.00,0.73
5600.00,0.73
5599.00,0.73
5598.00,0.73
5597.00,0.73
5596.00,0.73
5595.00,0.73
5594.00,0.73
5593.00,0.73
5592.00,0.73
5591.00,0.73
5590.00,0.73
5589.00,0.73
5588.00,0.73
5587.00,0.73
5586.00,0.73
5585.00,0.73
5584.00,0.73
5583.00,0.74
5582.00,0.74
5581.00,0.74
5580.00,0.74
5579.00,0.74
5578.00,0.74
5577.00,0.74
5576.00,0.74
5575.00,0.74
5574.00,0.74
5573.00,0.74
5572.00,0.74
5571.00,0.75
5570.00,0.75
5569.00,0.75
5568.00,0.75
5567.00,0.75
5566.00,0.75
5565.00,0.75
5564.00,0.75
5563.00,0.75
5562.00,0.75
5561.00,0.75
5560.00,0.75
5559.00,0.75
5558.00,0.76
5557.00,0.76
5556.00,0.76
5555.00,0.76
5554.00,0.76
5553.00,0.76
5552.00,0.76
5551.00,0.76
5550.00,0.76
5549.00,0.76
5548.00,0.76
5547.00,0.76
5546.00,0.76
5545.00,0.76
5544.00,0.76
5543.00,0.76
5542.00,0.76
5541.00,0.77
5540.00,0.77
5539.00,0.77
5538.00,0.77
5537.00,0.77
5536.00,0.77
5535.00,0.77
5534.00,0.77
5533.00,0.77
5532.00,0.77
5531.00,0.77
5530.00,0.77
5529.00,0.78
5528.00,0.78
5527.00,0.78
5526.00,0.78
5525.00,0.78
5524.00,0.78
5523.00,0.78
5522.00,0.78
5521.00,0.78
5520.00,0.78
5519.00,0.78
5518.00,0.78
5517.00,0.78
5516.00,0.78
5515.00,0.78
5514.00,0.78
5513.00,0.78
5512.00,0.78
5511.00,0.78
5510.00,0.78
5509.00,0.78
5508.00,0.78
5507.00,0.78
5506.00,0.78
5505.00,0.78
5504.00,0.78
5503.00,0.78
5502.00,0.78
5501.00,0.78
5500.00,0.78
5499.00,0.78
5498.00,0.79
5497.00,0.79
5496.00,0.79
5495.00,0.79
5494.00,0.79
5493.00,0.79
5492.00,0.79
5491.00,0.79
5490.00,0.79
5489.00,0.79
5488.00,0.79
5487.00,0.79
5486.00,0.79
5485.00,0.79
5484.00,0.79
5483.00,0.80
5482.00,0.80
5481.00,0.80
5480.00,0.80
5479.00,0.80
5478.00,0.80
5477.00,0.80
5476.00,0.80
5475.00,0.80
5474.00,0.80
5473.00,0.80
5472.00,0.80
5471.00,0.80
5470.00,0.80
5469.00,0.80
5468.00,0.80
5467.00,0.80
5466.00,0.80
5465.00,0.80
5464.00,0.80
5463.00,0.80
5462.00,0.80
5461.00,0.80
5460.00,0.80
5459.00,0.80
5458.00,0.80
5457.00,0.80
5456.00,0.80
5455.00,0.80
5454.00,0.80
5453.00,0.80
5452.00,0.80
5451.00,0.80
5450.00,0.80
5449.00,0.80
5448.00,0.80
5447.00,0.80
5446.00,0.80
5445.00,0.80
5444.00,0.80
5443.00,0.80
5442.00,0.80
5441.00,0.80
5440.00,0.80
5439.00,0.80
5438.00,0.80
5437.00,0.80
5436.00,0.80
5435.00,0.80
5434.00,0.80
5433.00,0.80
5432.00,0.80
5431.00,0.80
5430.00,0.80
5429.00,0.80
5428.00,0.80
5427.00,0.80
5426.00,0.80
5425.00,0.80
5424.00,0.80
5423.00,0.80
5422.00,0.80
5421.00,0.80
5420.00,0.80
5419.00,0.80
5418.00,0.80
5417.00,0.80
5416.00,0.80
5415.00,0.80
5414.00,0.80
5413.00,0.80
5412.00,0.80
5411.00,0.80
5410.00,0.80
5409.00,0.80
5408.00,0.79
5407.00,0.79
5406.00,0.79
5405.00,0.79
5404.00,0.79
5403.00,0.79
5402.00,0.79
5401.00,0.79
5400.00,0.79
5399.00,0.79
5398.00,0.79
5397.00,0.79
5396.00,0.79
5395.00,0.79
5394.00,0.79
5393.00,0.78
5392.00,0.78
5391.00,0.78
5390.00,0.78
5389.00,0.78
5388.00,0.78
5387.00,0.78
5386.00,0.77
5385.00,0.77
5384.00,0.77
5383.00,0.77
5382.00,0.77
5381.00,0.76
5380.00,0.76
5379.00,0.76
5378.00,0.76
5377.00,0.76
5376.00,0.75
5375.00,0.75
5374.00,0.75
5373.00,0.75
5372.00,0.74
5371.00,0.74
5370.00,0.74
5369.00,0.74
5368.00,0.73
5367.00,0.73
5366.00,0.73
5365.00,0.72
5364.00,0.72
5363.00,0.72
5362.00,0.72
5361.00,0.71
5360.00,0.71
5359.00,0.71
5358.00,0.70
5357.00,0.70
5356.00,0.69
5355.00,0.69
5354.00,0.69
5353.00,0.68
5352.00,0.68
5351.00,0.67
5350.00,0.67
5349.00,0.66
5348.00,0.66
5347.00,0.65
5346.00,0.65
5345.00,0.64
5344.00,0.64
5343.00,0.63
5342.00,0.63
5341.00,0.62
5340.00,0.62
5339.00,0.61
5338.00,0.61
5337.00,0.60
5336.00,0.60
5335.00,0.60
5334.00,0.59
5333.00,0.59
5332.00,0.58
5331.00,0.58
5330.00,0.57
5329.00,0.57
5328.00,0.57
5327.00,0.56
5326.00,0.56
5325.00,0.56
5324.00,0.55
5323.00,0.55
5322.00,0.55
5321.00,0.54
5320.00,0.54
5319.00,0.54
5318.00,0.53
5317.00,0.53
5316.00,0.53
5315.00,0.53
5314.00,0.52
5313.00,0.52
5312.00,0.52
5311.00,0.52
5310.00,0.51
5309.00,0.51
5308.00,0.51
5307.00,0.51
5306.00,0.51
5305.00,0.51
5304.00,0.50
5303.00,0.50
5302.00,0.50
5301.00,0.50
5300.00,0.50
5299.00,0.50
5298.00,0.50
5297.00,0.50
5296.00,0.49
5295.00,0.49
5294.00,0.49
5293.00,0.49
5292.00,0.49
5291.00,0.49
5290.00,0.49
5289.00,0.49
5288.00,0.49
5287.00,0.49
5286.00,0.49
5285.00,0.49
5284.00,0.49
5283.00,0.48
5282.00,0.48
5281.00,0.48
5280.00,0.48
5279.00,0.48
5278.00,0.48
5277.00,0.48
5276.00,0.48
5275.00,0.48
5274.00,0.48
5273.00,0.48
5272.00,0.48
5271.00,0.48
5270.00,0.48
5269.00,0.48
5268.00,0.48
5267.00,0.48
5266.00,0.48
5265.00,0.48
5264.00,0.48
5263.00,0.48
5262.00,0.48
5261.00,0.49
5260.00,0.49
5259.00,0.49
5258.00,0.49
5257.00,0.49
5256.00,0.49
5255.00,0.49
5254.00,0.49
5253.00,0.49
5252.00,0.49
5251.00,0.49
5250.00,0.49
5249.00,0.49
5248.00,0.49
5247.00,0.49
5246.00,0.49
5245.00,0.49
5244.00,0.49
5243.00,0.49
5242.00,0.49
5241.00,0.49
5240.00,0.49
5239.00,0.49
5238.00,0.49
5237.00,0.49
5236.00,0.49
5235.00,0.49
5234.00,0.49
5233.00,0.49
5232.00,0.49
5231.00,0.49
5230.00,0.49
5229.00,0.49
5228.00,0.49
5227.00,0.49
5226.00,0.49
5225.00,0.49
5224.00,0.49
5223.00,0.49
5222.00,0.49
5221.00,0.49
5220.00,0.49
5219.00,0.49
5218.00,0.49
5217.00,0.49
5216.00,0.49
5215.00,0.49
5214.00,0.50
5213.00,0.50
5212.00,0.50
5211.00,0.50
5210.00,0.50
5209.00,0.50
5208.00,0.50
5207.00,0.50
5206.00,0.50
5205.00,0.50
5204.00,0.50
5203.00,0.50
5202.00,0.50
5201.00,0.50
5200.00,0.50
5199.00,0.50
5198.00,0.50
5197.00,0.50
5196.00,0.50
5195.00,0.50
5194.00,0.50
5193.00,0.50
5192.00,0.50
5191.00,0.50
5190.00,0.50
5189.00,0.50
5188.00,0.50
5187.00,0.50
5186.00,0.50
5185.00,0.50
5184.00,0.50
5183.00,0.50
5182.00,0.50
5181.00,0.50
5180.00,0.50
5179.00,0.50
5178.00,0.50
5177.00,0.50
5176.00,0.50
5175.00,0.50
5174.00,0.50
5173.00,0.50
5172.00,0.50
5171.00,0.50
5170.00,0.50
5169.00,0.50
5168.00,0.50
5167.00,0.51
5166.00,0.51
5165.00,0.51
5164.00,0.51
5163.00,0.51
5162.00,0.51
5161.00,0.51
5160.00,0.51
5159.00,0.51
5158.00,0.51
5157.00,0.51
5156.00,0.51
5155.00,0.51
5154.00,0.51
5153.00,0.51
5152.00,0.51
5151.00,0.51
5150.00,0.51
5149.00,0.51
5148.00,0.51
5147.00,0.51
5146.00,0.51
5145.00,0.51
5144.00,0.51
5143.00,0.51
5142.00,0.51
5141.00,0.51
5140.00,0.51
5139.00,0.51
5138.00,0.51
5137.00,0.51
5136.00,0.51
5135.00,0.51
5134.00,0.51
5133.00,0.51
5132.00,0.51
5131.00,0.51
5130.00,0.51
5129.00,0.51
5128.00,0.51
5127.00,0.51
5126.00,0.51
5125.00,0.51
5124.00,0.51
5123.00,0.52
5122.00,0.52
5121.00,0.52
5120.00,0.52
5119.00,0.52
5118.00,0.52
5117.00,0.52
5116.00,0.52
5115.00,0.52
5114.00,0.52
5113.00,0.52
5112.00,0.52
5111.00,0.52
5110.00,0.52
5109.00,0.52
5108.00,0.52
5107.00,0.52
5106.00,0.52
5105.00,0.52
5104.00,0.52
5103.00,0.52
5102.00,0.52
5101.00,0.52
5100.00,0.52
5099.00,0.52
5098.00,0.52
5097.00,0.52
5096.00,0.52
5095.00,0.52
5094.00,0.52
5093.00,0.52
5092.00,0.52
5091.00,0.52
5090.00,0.53
5089.00,0.53
5088.00,0.53
5087.00,0.53
5086.00,0.53
5085.00,0.53
5084.00,0.52
5083.00,0.52
5082.00,0.52
5081.00,0.52
5080.00,0.52
5079.00,0.52
5078.00,0.52
5077.00,0.52
5076.00,0.52
5075.00,0.52
5074.00,0.52
5073.00,0.52
5072.00,0.52
5071.00,0.52
5070.00,0.52
5069.00,0.52
5068.00,0.52
5067.00,0.52
5066.00,0.53
5065.00,0.53
5064.00,0.53
5063.00,0.53
5062.00,0.53
5061.00,0.53
5060.00,0.53
5059.00,0.53
5058.00,0.53
5057.00,0.53
5056.00,0.53
5055.00,0.53
5054.00,0.53
5053.00,0.53
5052.00,0.53
5051.00,0.53
5050.00,0.53
5049.00,0.53
5048.00,0.53
5047.00,0.53
5046.00,0.53
5045.00,0.53
5044.00,0.53
5043.00,0.53
5042.00,0.53
5041.00,0.53
5040.00,0.53
5039.00,0.53
5038.00,0.53
5037.00,0.53
5036.00,0.53
5035.00,0.54
5034.00,0.54
5033.00,0.54
5032.00,0.54
5031.00,0.54
5030.00,0.54
5029.00,0.54
5028.00,0.54
5027.00,0.54
5026.00,0.54
5025.00,0.54
5024.00,0.54
5023.00,0.54
5022.00,0.54
5021.00,0.54
5020.00,0.54
5019.00,0.54
5018.00,0.54
5017.00,0.54
5016.00,0.54
5015.00,0.54
5014.00,0.54
5013.00,0.54
5012.00,0.54
5011.00,0.54
5010.00,0.55
5009.00,0.55
5008.00,0.55
5007.00,0.55
5006.00,0.55
5005.00,0.55
5004.00,0.55
5003.00,0.55
5002.00,0.55
5001.00,0.55
5000.00,0.55
4999.00,0.55
4998.00,0.55
4997.00,0.55
4996.00,0.55
4995.00,0.55
4994.00,0.55
4993.00,0.55
4992.00,0.55
4991.00,0.55
4990.00,0.55
4989.00,0.55
4988.00,0.55
4987.00,0.55
4986.00,0.55
4985.00,0.55
4984.00,0.55
4983.00,0.55
4982.00,0.55
4981.00,0.55
4980.00,0.55
4979.00,0.55
4978.00,0.56
4977.00,0.56
4976.00,0.56
4975.00,0.56
4974.00,0.56
4973.00,0.56
4972.00,0.56
4971.00,0.56
4970.00,0.56
4969.00,0.56
4968.00,0.56
4967.00,0.56
4966.00,0.56
4965.00,0.56
4964.00,0.56
4963.00,0.56
4962.00,0.56
4961.00,0.56
4960.00,0.56
4959.00,0.56
4958.00,0.56
4957.00,0.56
4956.00,0.56
4955.00,0.56
4954.00,0.56
4953.00,0.56
4952.00,0.56
4951.00,0.56
4950.00,0.56
4949.00,0.56
4948.00,0.56
4947.00,0.56
4946.00,0.56
4945.00,0.56
4944.00,0.56
4943.00,0.56
4942.00,0.56
4941.00,0.56
4940.00,0.56
4939.00,0.56
4938.00,0.56
4937.00,0.56
4936.00,0.56
4935.00,0.56
4934.00,0.56
4933.00,0.56
4932.00,0.56
4931.00,0.57
4930.00,0.57
4929.00,0.57
4928.00,0.57
4927.00,0.57
4926.00,0.57
4925.00,0.57
4924.00,0.57
4923.00,0.57
4922.00,0.57
4921.00,0.57
4920.00,0.57
4919.00,0.57
4918.00,0.57
4917.00,0.57
4916.00,0.57
4915.00,0.58
4914.00,0.58
4913.00,0.58
4912.00,0.58
4911.00,0.58
4910.00,0.58
4909.00,0.58
4908.00,0.58
4907.00,0.58
4906.00,0.58
4905.00,0.58
4904.00,0.58
4903.00,0.58
4902.00,0.58
4901.00,0.58
4900.00,0.58
4899.00,0.58
4898.00,0.58
4897.00,0.58
4896.00,0.58
4895.00,0.58
4894.00,0.58
4893.00,0.58
4892.00,0.58
4891.00,0.58
4890.00,0.58
4889.00,0.58
4888.00,0.59
4887.00,0.59
4886.00,0.59
4885.00,0.59
4884.00,0.59
4883.00,0.59
4882.00,0.59
4881.00,0.59
4880.00,0.59
4879.00,0.59
4878.00,0.59
4877.00,0.59
4876.00,0.59
4875.00,0.59
4874.00,0.59
4873.00,0.59
4872.00,0.59
4871.00,0.59
4870.00,0.59
4869.00,0.59
4868.00,0.59
4867.00,0.59
4866.00,0.59
4865.00,0.59
4864.00,0.59
4863.00,0.59
4862.00,0.60
4861.00,0.60
4860.00,0.60
4859.00,0.60
4858.00,0.60
4857.00,0.60
4856.00,0.60
4855.00,0.60
4854.00,0.60
4853.00,0.60
4852.00,0.60
4851.00,0.60
4850.00,0.60
4849.00,0.60
4848.00,0.60
4847.00,0.60
4846.00,0.60
4845.00,0.60
4844.00,0.60
4843.00,0.60
4842.00,0.60
4841.00,0.60
4840.00,0.60
4839.00,0.60
4838.00,0.60
4837.00,0.60
4836.00,0.60
4835.00,0.60
4834.00,0.60
4833.00,0.60
4832.00,0.60
4831.00,0.60
4830.00,0.60
4829.00,0.60
4828.00,0.60
4827.00,0.60
4826.00,0.60
4825.00,0.60
4824.00,0.60
4823.00,0.60
4822.00,0.60
4821.00,0.60
4820.00,0.60
4819.00,0.60
4818.00,0.60
4817.00,0.61
4816.00,0.61
4815.00,0.61
4814.00,0.61
4813.00,0.61
4812.00,0.61
4811.00,0.61
4810.00,0.61
4809.00,0.61
4808.00,0.61
4807.00,0.61
4806.00,0.61
4805.00,0.61
4804.00,0.61
4803.00,0.61
4802.00,0.61
4801.00,0.61
4800.00,0.62
4799.00,0.62
4798.00,0.62
4797.00,0.62
4796.00,0.62
4795.00,0.62
4794.00,0.62
4793.00,0.62
4792.00,0.62
4791.00,0.62
4790.00,0.62
4789.00,0.62
4788.00,0.62
4787.00,0.62
4786.00,0.62
4785.00,0.62
4784.00,0.62
4783.00,0.62
4782.00,0.62
4781.00,0.62
4780.00,0.62
4779.00,0.62
4778.00,0.63
4777.00,0.63
4776.00,0.63
4775.00,0.63
4774.00,0.63
4773.00,0.63
4772.00,0.63
4771.00,0.63
4770.00,0.63
4769.00,0.63
4768.00,0.63
4767.00,0.63
4766.00,0.63
4765.00,0.63
4764.00,0.63
4763.00,0.63
4762.00,0.63
4761.00,0.63
4760.00,0.63
4759.00,0.63
4758.00,0.63
4757.00,0.63
4756.00,0.63
4755.00,0.63
4754.00,0.63
4753.00,0.63
4752.00,0.63
4751.00,0.63
4750.00,0.64
4749.00,0.64
4748.00,0.64
4747.00,0.64
4746.00,0.64
4745.00,0.64
4744.00,0.64
4743.00,0.64
4742.00,0.64
4741.00,0.64
4740.00,0.64
4739.00,0.64
4738.00,0.64
4737.00,0.64
4736.00,0.64
4735.00,0.64
4734.00,0.64
4733.00,0.64
4732.00,0.64
4731.00,0.64
4730.00,0.64
4729.00,0.64
4728.00,0.65
4727.00,0.65
4726.00,0.65
4725.00,0.65
4724.00,0.65
4723.00,0.65
4722.00,0.65
4721.00,0.65
4720.00,0.65
4719.00,0.65
4718.00,0.65
4717.00,0.65
4716.00,0.65
4715.00,0.65
4714.00,0.65
4713.00,0.65
4712.00,0.65
4711.00,0.65
4710.00,0.66
4709.00,0.66
4708.00,0.66
4707.00,0.66
4706.00,0.66
4705.00,0.66
4704.00,0.66
4703.00,0.66
4702.00,0.66
4701.00,0.66
4700.00,0.66
4699.00,0.66
4698.00,0.66
4697.00,0.66
4696.00,0.66
4695.00,0.66
4694.00,0.67
4693.00,0.67
4692.00,0.67
4691.00,0.67
4690.00,0.67
4689.00,0.67
4688.00,0.67
4687.00,0.67
4686.00,0.67
4685.00,0.67
4684.00,0.67
4683.00,0.67
4682.00,0.67
4681.00,0.67
4680.00,0.67
4679.00,0.67
4678.00,0.67
4677.00,0.68
4676.00,0.68
4675.00,0.68
4674.00,0.68
4673.00,0.68
4672.00,0.68
4671.00,0.68
4670.00,0.68
4669.00,0.68
4668.00,0.68
4667.00,0.68
4666.00,0.68
4665.00,0.68
4664.00,0.68
4663.00,0.68
4662.00,0.68
4661.00,0.68
4660.00,0.68
4659.00,0.68
4658.00,0.69
4657.00,0.69
4656.00,0.69
4655.00,0.69
4654.00,0.69
4653.00,0.69
4652.00,0.69
4651.00,0.69
4650.00,0.69
4649.00,0.69
4648.00,0.69
4647.00,0.69
4646.00,0.69
4645.00,0.70
4644.00,0.70
4643.00,0.70
4642.00,0.70
4641.00,0.70
4640.00,0.70
4639.00,0.70
4638.00,0.70
4637.00,0.70
4636.00,0.70
4635.00,0.70
4634.00,0.70
4633.00,0.70
4632.00,0.70
4631.00,0.70
4630.00,0.70
4629.00,0.70
4628.00,0.70
4627.00,0.70
4626.00,0.70
4625.00,0.70
4624.00,0.70
4623.00,0.70
4622.00,0.70
4621.00,0.70
4620.00,0.70
4619.00,0.70
4618.00,0.70
4617.00,0.70
4616.00,0.70
4615.00,0.70
4614.00,0.70
4613.00,0.70
4612.00,0.70
4611.00,0.70
4610.00,0.70
4609.00,0.70
4608.00,0.70
4607.00,0.70
4606.00,0.70
4605.00,0.70
4604.00,0.70
4603.00,0.70
4602.00,0.70
4601.00,0.70
4600.00,0.70
4599.00,0.71
4598.00,0.71
4597.00,0.71
4596.00,0.71
4595.00,0.71
4594.00,0.71
4593.00,0.71
4592.00,0.71
4591.00,0.71
4590.00,0.71
4589.00,0.71
4588.00,0.71
4587.00,0.72
4586.00,0.72
4585.00,0.72
4584.00,0.72
4583.00,0.72
4582.00,0.72
4581.00,0.72
4580.00,0.72
4579.00,0.72
4578.00,0.71
4577.00,0.71
4576.00,0.71
4575.00,0.71
4574.00,0.71
4573.00,0.71
4572.00,0.71
4571.00,0.71
4570.00,0.71
4569.00,0.71
4568.00,0.71
4567.00,0.71
4566.00,0.71
4565.00,0.71
4564.00,0.71
4563.00,0.71
4562.00,0.71
4561.00,0.71
4560.00,0.71
4559.00,0.71
4558.00,0.71
4557.00,0.71
4556.00,0.71
4555.00,0.71
4554.00,0.72
4553.00,0.72
4552.00,0.72
4551.00,0.72
4550.00,0.72
4549.00,0.72
4548.00,0.72
4547.00,0.72
4546.00,0.72
4545.00,0.72
4544.00,0.72
4543.00,0.72
4542.00,0.72
4541.00,0.72
4540.00,0.72
4539.00,0.72
4538.00,0.73
4537.00,0.73
4536.00,0.73
4535.00,0.73
4534.00,0.73
4533.00,0.73
4532.00,0.73
4531.00,0.73
4530.00,0.73
4529.00,0.73
4528.00,0.73
4527.00,0.73
4526.00,0.73
4525.00,0.73
4524.00,0.73
4523.00,0.73
4522.00,0.73
4521.00,0.73
4520.00,0.73
4519.00,0.73
4518.00,0.73
4517.00,0.73
4516.00,0.73
4515.00,0.73
4514.00,0.73
4513.00,0.73
4512.00,0.73
4511.00,0.73
4510.00,0.73
4509.00,0.73
4508.00,0.73
4507.00,0.73
4506.00,0.73
4505.00,0.73
4504.00,0.73
4503.00,0.73
4502.00,0.73
4501.00,0.73
4500.00,0.73
4499.00,0.73
4498.00,0.73
4497.00,0.73
4496.00,0.73
4495.00,0.73
4494.00,0.73
4493.00,0.73
4492.00,0.73
4491.00,0.73
4490.00,0.73
4489.00,0.73
4488.00,0.73
4487.00,0.73
4486.00,0.73
4485.00,0.73
4484.00,0.73
4483.00,0.73
4482.00,0.73
4481.00,0.73
4480.00,0.72
4479.00,0.72
4478.00,0.72
4477.00,0.72
4476.00,0.72
4475.00,0.72
4474.00,0.72
4473.00,0.72
4472.00,0.72
4471.00,0.72
4470.00,0.72
4469.00,0.72
4468.00,0.72
4467.00,0.72
4466.00,0.72
4465.00,0.72
4464.00,0.72
4463.00,0.72
4462.00,0.72
4461.00,0.71
4460.00,0.71
4459.00,0.71
4458.00,0.71
4457.00,0.71
4456.00,0.71
4455.00,0.71
4454.00,0.71
4453.00,0.70
4452.00,0.70
4451.00,0.70
4450.00,0.70
4449.00,0.70
4448.00,0.70
4447.00,0.70
4446.00,0.70
4445.00,0.70
4444.00,0.70
4443.00,0.69
4442.00,0.69
4441.00,0.69
4440.00,0.69
4439.00,0.69
4438.00,0.69
4437.00,0.69
4436.00,0.69
4435.00,0.69
4434.00,0.69
4433.00,0.69
4432.00,0.69
4431.00,0.69
4430.00,0.69
4429.00,0.69
4428.00,0.69
4427.00,0.69
4426.00,0.69
4425.00,0.69
4424.00,0.69
4423.00,0.69
4422.00,0.69
4421.00,0.69
4420.00,0.69
4419.00,0.69
4418.00,0.69
4417.00,0.69
4416.00,0.69
4415.00,0.69
4414.00,0.69
4413.00,0.69
4412.00,0.69
4411.00,0.69
4410.00,0.69
4409.00,0.69
4408.00,0.69
4407.00,0.69
4406.00,0.69
4405.00,0.69
4404.00,0.69
4403.00,0.69
4402.00,0.69
4401.00,0.70
4400.00,0.70
4399.00,0.70
4398.00,0.70
4397.00,0.70
4396.00,0.70
4395.00,0.70
4394.00,0.70
4393.00,0.70
4392.00,0.70
4391.00,0.70
4390.00,0.70
4389.00,0.70
4388.00,0.70
4387.00,0.70
4386.00,0.70
4385.00,0.70
4384.00,0.70
4383.00,0.70
4382.00,0.70
4381.00,0.70
4380.00,0.70
4379.00,0.70
4378.00,0.70
4377.00,0.70
4376.00,0.70
4375.00,0.70
4374.00,0.70
4373.00,0.70
4372.00,0.70
4371.00,0.70
4370.00,0.71
4369.00,0.71
4368.00,0.71
4367.00,0.71
4366.00,0.71
4365.00,0.71
4364.00,0.71
4363.00,0.71
4362.00,0.71
4361.00,0.71
4360.00,0.71
4359.00,0.71
4358.00,0.71
4357.00,0.71
4356.00,0.71
4355.00,0.71
4354.00,0.71
4353.00,0.71
4352.00,0.71
4351.00,0.71
4350.00,0.71
4349.00,0.71
4348.00,0.71
4347.00,0.71
4346.00,0.71
4345.00,0.71
4344.00,0.71
4343.00,0.71
4342.00,0.71
4341.00,0.71
4340.00,0.71
4339.00,0.71
4338.00,0.71
4337.00,0.71
4336.00,0.71
4335.00,0.71
4334.00,0.72
4333.00,0.72
4332.00,0.72
4331.00,0.72
4330.00,0.72
4329.00,0.72
4328.00,0.72
4327.00,0.72
4326.00,0.72
4325.00,0.72
4324.00,0.72
4323.00,0.72
4322.00,0.72
4321.00,0.72
4320.00,0.72
4319.00,0.72
4318.00,0.72
4317.00,0.72
4316.00,0.72
4315.00,0.72
4314.00,0.72
4313.00,0.72
4312.00,0.72
4311.00,0.72
4310.00,0.72
4309.00,0.72
4308.00,0.72
4307.00,0.72
4306.00,0.72
4305.00,0.73
4304.00,0.73
4303.00,0.73
4302.00,0.73
4301.00,0.73
4300.00,0.73
4299.00,0.73
4298.00,0.73
4297.00,0.73
4296.00,0.73
4295.00,0.73
4294.00,0.73
4293.00,0.73
4292.00,0.73
4291.00,0.73
4290.00,0.73
4289.00,0.74
4288.00,0.74
4287.00,0.74
4286.00,0.74
4285.00,0.74
4284.00,0.74
4283.00,0.74
4282.00,0.74
4281.00,0.74
4280.00,0.74
4279.00,0.74
4278.00,0.74
4277.00,0.74
4276.00,0.74
4275.00,0.74
4274.00,0.74
4273.00,0.74
4272.00,0.74
4271.00,0.74
4270.00,0.74
4269.00,0.74
4268.00,0.74
4267.00,0.74
4266.00,0.74
4265.00,0.74
4264.00,0.74
4263.00,0.74
4262.00,0.74
4261.00,0.74
4260.00,0.74
4259.00,0.73
4258.00,0.73
4257.00,0.73
4256.00,0.73
4255.00,0.73
4254.00,0.73
4253.00,0.73
4252.00,0.73
4251.00,0.73
4250.00,0.73
4249.00,0.73
4248.00,0.73
4247.00,0.73
4246.00,0.73
4245.00,0.74
4244.00,0.74
4243.00,0.74
4242.00,0.74
4241.00,0.74
4240.00,0.74
4239.00,0.74
4238.00,0.74
4237.00,0.74
4236.00,0.74
4235.00,0.74
4234.00,0.75
4233.00,0.75
4232.00,0.75
4231.00,0.75
4230.00,0.75
4229.00,0.75
4228.00,0.75
4227.00,0.75
4226.00,0.75
4225.00,0.75
4224.00,0.75
4223.00,0.75
4222.00,0.75
4221.00,0.75
4220.00,0.75
4219.00,0.75
4218.00,0.75
4217.00,0.75
4216.00,0.75
4215.00,0.75
4214.00,0.75
4213.00,0.75
4212.00,0.75
4211.00,0.75
4210.00,0.75
4209.00,0.75
4208.00,0.75
4207.00,0.75
4206.00,0.75
4205.00,0.75
4204.00,0.75
4203.00,0.75
4202.00,0.75
4201.00,0.75
4200.00,0.75
4199.00,0.75
4198.00,0.75
4197.00,0.75
4196.00,0.75
4195.00,0.75
4194.00,0.75
4193.00,0.76
4192.00,0.76
4191.00,0.76
4190.00,0.76
4189.00,0.76
4188.00,0.76
4187.00,0.76
4186.00,0.76
4185.00,0.76
4184.00,0.76
4183.00,0.76
4182.00,0.76
4181.00,0.76
4180.00,0.76
4179.00,0.76
4178.00,0.76
4177.00,0.76
4176.00,0.76
4175.00,0.76
4174.00,0.76
4173.00,0.76
4172.00,0.76
4171.00,0.76
4170.00,0.76
4169.00,0.76
4168.00,0.76
4167.00,0.76
4166.00,0.76
4165.00,0.76
4164.00,0.76
4163.00,0.76
4162.00,0.76
4161.00,0.76
4160.00,0.76
4159.00,0.76
4158.00,0.76
4157.00,0.76
4156.00,0.76
4155.00,0.76
4154.00,0.76
4153.00,0.77
4152.00,0.77
4151.00,0.77
4150.00,0.77
4149.00,0.77
4148.00,0.77
4147.00,0.77
4146.00,0.77
4145.00,0.77
4144.00,0.77
4143.00,0.77
4142.00,0.77
4141.00,0.77
4140.00,0.77
4139.00,0.77
4138.00,0.77
4137.00,0.77
4136.00,0.77
4135.00,0.77
4134.00,0.77
4133.00,0.77
4132.00,0.77
4131.00,0.77
4130.00,0.77
4129.00,0.77
4128.00,0.77
4127.00,0.77
4126.00,0.77
4125.00,0.77
4124.00,0.77
4123.00,0.77
4122.00,0.77
4121.00,0.78
4120.00,0.78
4119.00,0.78
4118.00,0.78
4117.00,0.78
4116.00,0.78
4115.00,0.78
4114.00,0.78
4113.00,0.78
4112.00,0.78
4111.00,0.78
4110.00,0.78
4109.00,0.78
4108.00,0.77
4107.00,0.77
4106.00,0.77
4105.00,0.77
4104.00,0.77
4103.00,0.77
4102.00,0.77
4101.00,0.77
4100.00,0.77
4099.00,0.77
4098.00,0.77
4097.00,0.77
4096.00,0.78
4095.00,0.78
4094.00,0.78
4093.00,0.78
4092.00,0.78
4091.00,0.78
4090.00,0.78
4089.00,0.78
4088.00,0.78
4087.00,0.78
4086.00,0.78
4085.00,0.78
4084.00,0.78
4083.00,0.78
4082.00,0.78
4081.00,0.78
4080.00,0.78
4079.00,0.78
4078.00,0.78
4077.00,0.78
4076.00,0.78
4075.00,0.78
4074.00,0.78
4073.00,0.78
4072.00,0.78
4071.00,0.78
4070.00,0.78
4069.00,0.78
4068.00,0.78
4067.00,0.78
4066.00,0.78
4065.00,0.78
4064.00,0.78
4063.00,0.78
4062.00,0.78
4061.00,0.78
4060.00,0.78
4059.00,0.78
4058.00,0.78
4057.00,0.78
4056.00,0.78
4055.00,0.78
4054.00,0.78
4053.00,0.78
4052.00,0.78
4051.00,0.78
4050.00,0.79
4049.00,0.79
4048.00,0.79
4047.00,0.79
4046.00,0.79
4045.00,0.79
4044.00,0.79
4043.00,0.79
4042.00,0.79
4041.00,0.79
4040.00,0.79
4039.00,0.79
4038.00,0.79
4037.00,0.79
4036.00,0.80
4035.00,0.80
4034.00,0.80
4033.00,0.80
4032.00,0.80
4031.00,0.80
4030.00,0.80
4029.00,0.80
4028.00,0.80
4027.00,0.80
4026.00,0.80
4025.00,0.80
4024.00,0.80
4023.00,0.80
4022.00,0.80
4021.00,0.80
4020.00,0.80
4019.00,0.80
4018.00,0.80
4017.00,0.80
4016.00,0.80
4015.00,0.80
4014.00,0.80
4013.00,0.80
4012.00,0.80
4011.00,0.80
4010.00,0.80
4009.00,0.80
4008.00,0.80
4007.00,0.80
4006.00,0.80
4005.00,0.80
4004.00,0.80
4003.00,0.80
4002.00,0.80
4001.00,0.80
4000.00,0.80
