创建为新数据集,样品 331 用户 Administrator 日期 星期日, 七月 22 2018
cm-1,%T
10000.00,0.81
9999.00,0.81
9998.00,0.81
9997.00,0.81
9996.00,0.82
9995.00,0.82
9994.00,0.82
9993.00,0.82
9992.00,0.83
9991.00,0.83
9990.00,0.83
9989.00,0.83
9988.00,0.83
9987.00,0.84
9986.00,0.84
9985.00,0.84
9984.00,0.84
9983.00,0.83
9982.00,0.83
9981.00,0.83
9980.00,0.83
9979.00,0.82
9978.00,0.82
9977.00,0.82
9976.00,0.81
9975.00,0.81
9974.00,0.81
9973.00,0.80
9972.00,0.80
9971.00,0.80
9970.00,0.80
9969.00,0.80
9968.00,0.80
9967.00,0.80
9966.00,0.80
9965.00,0.80
9964.00,0.80
9963.00,0.80
9962.00,0.80
9961.00,0.80
9960.00,0.81
9959.00,0.81
9958.00,0.81
9957.00,0.81
9956.00,0.81
9955.00,0.81
9954.00,0.81
9953.00,0.81
9952.00,0.81
9951.00,0.81
9950.00,0.81
9949.00,0.81
9948.00,0.81
9947.00,0.81
9946.00,0.81
9945.00,0.81
9944.00,0.81
9943.00,0.81
9942.00,0.80
9941.00,0.80
9940.00,0.80
9939.00,0.80
9938.00,0.80
9937.00,0.80
9936.00,0.79
9935.00,0.79
9934.00,0.79
9933.00,0.79
9932.00,0.79
9931.00,0.79
9930.00,0.79
9929.00,0.79
9928.00,0.79
9927.00,0.79
9926.00,0.79
9925.00,0.79
9924.00,0.79
9923.00,0.79
9922.00,0.79
9921.00,0.79
9920.00,0.79
9919.00,0.79
9918.00,0.79
9917.00,0.79
9916.00,0.79
9915.00,0.79
9914.00,0.79
9913.00,0.79
9912.00,0.79
9911.00,0.79
9910.00,0.79
9909.00,0.79
9908.00,0.79
9907.00,0.80
9906.00,0.80
9905.00,0.80
9904.00,0.80
9903.00,0.80
9902.00,0.80
9901.00,0.80
9900.00,0.81
9899.00,0.81
9898.00,0.81
9897.00,0.81
9896.00,0.81
9895.00,0.81
9894.00,0.81
9893.00,0.81
9892.00,0.80
9891.00,0.80
9890.00,0.80
9889.00,0.80
9888.00,0.80
9887.00,0.80
9886.00,0.79
9885.00,0.79
9884.00,0.79
9883.00,0.79
9882.00,0.79
9881.00,0.79
9880.00,0.79
9879.00,0.78
9878.00,0.78
9877.00,0.78
9876.00,0.78
9875.00,0.78
9874.00,0.78
9873.00,0.78
9872.00,0.78
9871.00,0.78
9870.00,0.78
9869.00,0.78
9868.00,0.78
9867.00,0.78
9866.00,0.78
9865.00,0.79
9864.00,0.79
9863.00,0.79
9862.00,0.79
9861.00,0.79
9860.00,0.79
9859.00,0.79
9858.00,0.79
9857.00,0.79
9856.00,0.79
9855.00,0.79
9854.00,0.79
9853.00,0.80
9852.00,0.80
9851.00,0.80
9850.00,0.80
9849.00,0.80
9848.00,0.80
9847.00,0.80
9846.00,0.80
9845.00,0.80
9844.00,0.80
9843.00,0.80
9842.00,0.80
9841.00,0.80
9840.00,0.80
9839.00,0.80
9838.00,0.80
9837.00,0.80
9836.00,0.80
9835.00,0.80
9834.00,0.80
9833.00,0.80
9832.00,0.80
9831.00,0.80
9830.00,0.80
9829.00,0.80
9828.00,0.80
9827.00,0.80
9826.00,0.80
9825.00,0.80
9824.00,0.80
9823.00,0.81
9822.00,0.81
9821.00,0.81
9820.00,0.81
9819.00,0.81
9818.00,0.81
9817.00,0.81
9816.00,0.81
9815.00,0.80
9814.00,0.80
9813.00,0.80
9812.00,0.79
9811.00,0.79
9810.00,0.79
9809.00,0.78
9808.00,0.78
9807.00,0.77
9806.00,0.77
9805.00,0.76
9804.00,0.76
9803.00,0.76
9802.00,0.75
9801.00,0.75
9800.00,0.75
9799.00,0.75
9798.00,0.75
9797.00,0.74
9796.00,0.74
9795.00,0.74
9794.00,0.74
9793.00,0.74
9792.00,0.74
9791.00,0.74
9790.00,0.74
9789.00,0.74
9788.00,0.74
9787.00,0.74
9786.00,0.74
9785.00,0.74
9784.00,0.75
9783.00,0.75
9782.00,0.75
9781.00,0.75
9780.00,0.75
9779.00,0.76
9778.00,0.76
9777.00,0.76
9776.00,0.77
9775.00,0.77
9774.00,0.78
9773.00,0.78
9772.00,0.79
9771.00,0.79
9770.00,0.80
9769.00,0.80
9768.00,0.80
9767.00,0.81
9766.00,0.81
9765.00,0.81
9764.00,0.81
9763.00,0.81
9762.00,0.81
9761.00,0.80
9760.00,0.80
9759.00,0.80
9758.00,0.80
9757.00,0.80
9756.00,0.79
9755.00,0.79
9754.00,0.79
9753.00,0.79
9752.00,0.79
9751.00,0.79
9750.00,0.79
9749.00,0.79
9748.00,0.79
9747.00,0.79
9746.00,0.79
9745.00,0.79
9744.00,0.79
9743.00,0.79
9742.00,0.79
9741.00,0.79
9740.00,0.78
9739.00,0.78
9738.00,0.78
9737.00,0.78
9736.00,0.78
9735.00,0.78
9734.00,0.77
9733.00,0.77
9732.00,0.77
9731.00,0.77
9730.00,0.77
9729.00,0.76
9728.00,0.76
9727.00,0.76
9726.00,0.76
9725.00,0.76
9724.00,0.76
9723.00,0.76
9722.00,0.76
9721.00,0.76
9720.00,0.76
9719.00,0.76
9718.00,0.76
9717.00,0.76
9716.00,0.76
9715.00,0.76
9714.00,0.76
9713.00,0.77
9712.00,0.77
9711.00,0.77
9710.00,0.77
9709.00,0.77
9708.00,0.77
9707.00,0.77
9706.00,0.76
9705.00,0.76
9704.00,0.76
9703.00,0.76
9702.00,0.76
9701.00,0.76
9700.00,0.76
9699.00,0.76
9698.00,0.76
9697.00,0.76
9696.00,0.76
9695.00,0.76
9694.00,0.76
9693.00,0.76
9692.00,0.76
9691.00,0.76
9690.00,0.76
9689.00,0.76
9688.00,0.76
9687.00,0.77
9686.00,0.77
9685.00,0.77
9684.00,0.77
9683.00,0.78
9682.00,0.78
9681.00,0.78
9680.00,0.78
9679.00,0.79
9678.00,0.79
9677.00,0.79
9676.00,0.79
9675.00,0.80
9674.00,0.80
9673.00,0.80
9672.00,0.80
9671.00,0.80
9670.00,0.80
9669.00,0.81
9668.00,0.81
9667.00,0.81
9666.00,0.81
9665.00,0.81
9664.00,0.81
9663.00,0.81
9662.00,0.81
9661.00,0.81
9660.00,0.81
9659.00,0.81
9658.00,0.80
9657.00,0.80
9656.00,0.80
9655.00,0.80
9654.00,0.80
9653.00,0.79
9652.00,0.79
9651.00,0.79
9650.00,0.79
9649.00,0.79
9648.00,0.78
9647.00,0.78
9646.00,0.78
9645.00,0.78
9644.00,0.78
9643.00,0.78
9642.00,0.78
9641.00,0.78
9640.00,0.78
9639.00,0.77
9638.00,0.77
9637.00,0.77
9636.00,0.77
9635.00,0.77
9634.00,0.77
9633.00,0.77
9632.00,0.77
9631.00,0.77
9630.00,0.77
9629.00,0.77
9628.00,0.77
9627.00,0.77
9626.00,0.77
9625.00,0.76
9624.00,0.76
9623.00,0.76
9622.00,0.76
9621.00,0.76
9620.00,0.76
9619.00,0.75
9618.00,0.75
9617.00,0.75
9616.00,0.75
9615.00,0.75
9614.00,0.75
9613.00,0.75
9612.00,0.75
9611.00,0.75
9610.00,0.75
9609.00,0.75
9608.00,0.75
9607.00,0.75
9606.00,0.75
9605.00,0.75
9604.00,0.75
9603.00,0.75
9602.00,0.75
9601.00,0.75
9600.00,0.75
9599.00,0.76
9598.00,0.76
9597.00,0.76
9596.00,0.76
9595.00,0.76
9594.00,0.77
9593.00,0.77
9592.00,0.77
9591.00,0.77
9590.00,0.78
9589.00,0.78
9588.00,0.78
9587.00,0.78
9586.00,0.79
9585.00,0.79
9584.00,0.79
9583.00,0.79
9582.00,0.79
9581.00,0.79
9580.00,0.79
9579.00,0.79
9578.00,0.79
9577.00,0.79
9576.00,0.79
9575.00,0.79
9574.00,0.79
9573.00,0.79
9572.00,0.78
9571.00,0.78
9570.00,0.78
9569.00,0.78
9568.00,0.78
9567.00,0.78
9566.00,0.78
9565.00,0.78
9564.00,0.78
9563.00,0.78
9562.00,0.78
9561.00,0.78
9560.00,0.78
9559.00,0.78
9558.00,0.78
9557.00,0.78
9556.00,0.78
9555.00,0.78
9554.00,0.78
9553.00,0.78
9552.00,0.78
9551.00,0.78
9550.00,0.78
9549.00,0.78
9548.00,0.78
9547.00,0.78
9546.00,0.78
9545.00,0.78
9544.00,0.78
9543.00,0.78
9542.00,0.78
9541.00,0.78
9540.00,0.78
9539.00,0.78
9538.00,0.78
9537.00,0.78
9536.00,0.78
9535.00,0.78
9534.00,0.78
9533.00,0.78
9532.00,0.78
9531.00,0.78
9530.00,0.78
9529.00,0.79
9528.00,0.79
9527.00,0.79
9526.00,0.79
9525.00,0.79
9524.00,0.79
9523.00,0.79
9522.00,0.78
9521.00,0.78
9520.00,0.78
9519.00,0.78
9518.00,0.78
9517.00,0.77
9516.00,0.77
9515.00,0.77
9514.00,0.77
9513.00,0.76
9512.00,0.76
9511.00,0.76
9510.00,0.76
9509.00,0.76
9508.00,0.76
9507.00,0.76
9506.00,0.76
9505.00,0.76
9504.00,0.76
9503.00,0.76
9502.00,0.76
9501.00,0.76
9500.00,0.76
9499.00,0.76
9498.00,0.76
9497.00,0.76
9496.00,0.76
9495.00,0.76
9494.00,0.76
9493.00,0.76
9492.00,0.76
9491.00,0.76
9490.00,0.76
9489.00,0.76
9488.00,0.76
9487.00,0.76
9486.00,0.76
9485.00,0.76
9484.00,0.76
9483.00,0.76
9482.00,0.76
9481.00,0.76
9480.00,0.76
9479.00,0.77
9478.00,0.77
9477.00,0.77
9476.00,0.77
9475.00,0.77
9474.00,0.77
9473.00,0.78
9472.00,0.78
9471.00,0.78
9470.00,0.78
9469.00,0.78
9468.00,0.78
9467.00,0.79
9466.00,0.79
9465.00,0.79
9464.00,0.79
9463.00,0.79
9462.00,0.79
9461.00,0.79
9460.00,0.80
9459.00,0.80
9458.00,0.80
9457.00,0.80
9456.00,0.80
9455.00,0.80
9454.00,0.80
9453.00,0.80
9452.00,0.80
9451.00,0.79
9450.00,0.79
9449.00,0.79
9448.00,0.79
9447.00,0.79
9446.00,0.79
9445.00,0.78
9444.00,0.78
9443.00,0.78
9442.00,0.77
9441.00,0.77
9440.00,0.77
9439.00,0.77
9438.00,0.77
9437.00,0.76
9436.00,0.76
9435.00,0.76
9434.00,0.76
9433.00,0.76
9432.00,0.76
9431.00,0.76
9430.00,0.76
9429.00,0.76
9428.00,0.76
9427.00,0.76
9426.00,0.77
9425.00,0.77
9424.00,0.77
9423.00,0.77
9422.00,0.77
9421.00,0.77
9420.00,0.78
9419.00,0.78
9418.00,0.78
9417.00,0.78
9416.00,0.78
9415.00,0.79
9414.00,0.79
9413.00,0.79
9412.00,0.79
9411.00,0.79
9410.00,0.80
9409.00,0.80
9408.00,0.80
9407.00,0.80
9406.00,0.80
9405.00,0.80
9404.00,0.80
9403.00,0.80
9402.00,0.80
9401.00,0.80
9400.00,0.80
9399.00,0.80
9398.00,0.80
9397.00,0.80
9396.00,0.80
9395.00,0.80
9394.00,0.79
9393.00,0.79
9392.00,0.79
9391.00,0.79
9390.00,0.79
9389.00,0.79
9388.00,0.79
9387.00,0.79
9386.00,0.79
9385.00,0.79
9384.00,0.79
9383.00,0.79
9382.00,0.79
9381.00,0.79
9380.00,0.79
9379.00,0.79
9378.00,0.79
9377.00,0.80
9376.00,0.80
9375.00,0.80
9374.00,0.80
9373.00,0.80
9372.00,0.80
9371.00,0.81
9370.00,0.81
9369.00,0.81
9368.00,0.81
9367.00,0.81
9366.00,0.81
9365.00,0.81
9364.00,0.80
9363.00,0.80
9362.00,0.80
9361.00,0.80
9360.00,0.80
9359.00,0.80
9358.00,0.79
9357.00,0.79
9356.00,0.79
9355.00,0.79
9354.00,0.79
9353.00,0.79
9352.00,0.79
9351.00,0.79
9350.00,0.78
9349.00,0.78
9348.00,0.78
9347.00,0.78
9346.00,0.78
9345.00,0.79
9344.00,0.79
9343.00,0.79
9342.00,0.79
9341.00,0.79
9340.00,0.79
9339.00,0.79
9338.00,0.79
9337.00,0.79
9336.00,0.79
9335.00,0.79
9334.00,0.79
9333.00,0.79
9332.00,0.79
9331.00,0.79
9330.00,0.79
9329.00,0.79
9328.00,0.79
9327.00,0.79
9326.00,0.79
9325.00,0.78
9324.00,0.78
9323.00,0.78
9322.00,0.78
9321.00,0.78
9320.00,0.77
9319.00,0.77
9318.00,0.77
9317.00,0.77
9316.00,0.77
9315.00,0.77
9314.00,0.77
9313.00,0.77
9312.00,0.77
9311.00,0.77
9310.00,0.77
9309.00,0.78
9308.00,0.78
9307.00,0.78
9306.00,0.78
9305.00,0.79
9304.00,0.79
9303.00,0.79
9302.00,0.79
9301.00,0.79
9300.00,0.79
9299.00,0.79
9298.00,0.79
9297.00,0.79
9296.00,0.79
9295.00,0.79
9294.00,0.79
9293.00,0.79
9292.00,0.79
9291.00,0.79
9290.00,0.79
9289.00,0.78
9288.00,0.78
9287.00,0.78
9286.00,0.78
9285.00,0.78
9284.00,0.78
9283.00,0.78
9282.00,0.78
9281.00,0.77
9280.00,0.77
9279.00,0.77
9278.00,0.77
9277.00,0.77
9276.00,0.77
9275.00,0.77
9274.00,0.77
9273.00,0.77
9272.00,0.77
9271.00,0.77
9270.00,0.77
9269.00,0.77
9268.00,0.78
9267.00,0.78
9266.00,0.78
9265.00,0.78
9264.00,0.78
9263.00,0.78
9262.00,0.78
9261.00,0.78
9260.00,0.78
9259.00,0.78
9258.00,0.77
9257.00,0.77
9256.00,0.77
9255.00,0.77
9254.00,0.77
9253.00,0.77
9252.00,0.77
9251.00,0.77
9250.00,0.76
9249.00,0.76
9248.00,0.76
9247.00,0.76
9246.00,0.76
9245.00,0.76
9244.00,0.76
9243.00,0.76
9242.00,0.76
9241.00,0.76
9240.00,0.76
9239.00,0.76
9238.00,0.76
9237.00,0.76
9236.00,0.75
9235.00,0.75
9234.00,0.75
9233.00,0.75
9232.00,0.75
9231.00,0.75
9230.00,0.75
9229.00,0.75
9228.00,0.75
9227.00,0.75
9226.00,0.75
9225.00,0.75
9224.00,0.75
9223.00,0.76
9222.00,0.76
9221.00,0.76
9220.00,0.76
9219.00,0.76
9218.00,0.76
9217.00,0.77
9216.00,0.77
9215.00,0.77
9214.00,0.77
9213.00,0.77
9212.00,0.77
9211.00,0.78
9210.00,0.78
9209.00,0.78
9208.00,0.78
9207.00,0.78
9206.00,0.78
9205.00,0.78
9204.00,0.78
9203.00,0.78
9202.00,0.78
9201.00,0.78
9200.00,0.78
9199.00,0.78
9198.00,0.78
9197.00,0.78
9196.00,0.78
9195.00,0.78
9194.00,0.78
9193.00,0.78
9192.00,0.78
9191.00,0.79
9190.00,0.79
9189.00,0.79
9188.00,0.79
9187.00,0.79
9186.00,0.79
9185.00,0.79
9184.00,0.79
9183.00,0.79
9182.00,0.79
9181.00,0.78
9180.00,0.78
9179.00,0.78
9178.00,0.78
9177.00,0.78
9176.00,0.78
9175.00,0.78
9174.00,0.78
9173.00,0.78
9172.00,0.78
9171.00,0.78
9170.00,0.78
9169.00,0.78
9168.00,0.77
9167.00,0.77
9166.00,0.77
9165.00,0.77
9164.00,0.77
9163.00,0.77
9162.00,0.77
9161.00,0.77
9160.00,0.77
9159.00,0.77
9158.00,0.77
9157.00,0.78
9156.00,0.78
9155.00,0.78
9154.00,0.78
9153.00,0.78
9152.00,0.78
9151.00,0.78
9150.00,0.79
9149.00,0.79
9148.00,0.79
9147.00,0.79
9146.00,0.79
9145.00,0.79
9144.00,0.79
9143.00,0.80
9142.00,0.80
9141.00,0.80
9140.00,0.80
9139.00,0.80
9138.00,0.80
9137.00,0.80
9136.00,0.80
9135.00,0.80
9134.00,0.80
9133.00,0.80
9132.00,0.80
9131.00,0.80
9130.00,0.80
9129.00,0.80
9128.00,0.80
9127.00,0.80
9126.00,0.80
9125.00,0.80
9124.00,0.80
9123.00,0.80
9122.00,0.80
9121.00,0.80
9120.00,0.80
9119.00,0.80
9118.00,0.79
9117.00,0.79
9116.00,0.79
9115.00,0.79
9114.00,0.79
9113.00,0.79
9112.00,0.79
9111.00,0.79
9110.00,0.79
9109.00,0.79
9108.00,0.79
9107.00,0.79
9106.00,0.79
9105.00,0.79
9104.00,0.79
9103.00,0.79
9102.00,0.79
9101.00,0.79
9100.00,0.79
9099.00,0.79
9098.00,0.79
9097.00,0.79
9096.00,0.79
9095.00,0.79
9094.00,0.79
9093.00,0.79
9092.00,0.79
9091.00,0.78
9090.00,0.78
9089.00,0.78
9088.00,0.78
9087.00,0.78
9086.00,0.78
9085.00,0.78
9084.00,0.78
9083.00,0.78
9082.00,0.78
9081.00,0.78
9080.00,0.78
9079.00,0.78
9078.00,0.78
9077.00,0.78
9076.00,0.78
9075.00,0.78
9074.00,0.78
9073.00,0.78
9072.00,0.79
9071.00,0.79
9070.00,0.79
9069.00,0.79
9068.00,0.79
9067.00,0.79
9066.00,0.79
9065.00,0.79
9064.00,0.79
9063.00,0.79
9062.00,0.79
9061.00,0.79
9060.00,0.79
9059.00,0.79
9058.00,0.79
9057.00,0.79
9056.00,0.79
9055.00,0.78
9054.00,0.78
9053.00,0.78
9052.00,0.78
9051.00,0.78
9050.00,0.78
9049.00,0.78
9048.00,0.78
9047.00,0.78
9046.00,0.78
9045.00,0.78
9044.00,0.78
9043.00,0.78
9042.00,0.78
9041.00,0.78
9040.00,0.78
9039.00,0.79
9038.00,0.79
9037.00,0.79
9036.00,0.79
9035.00,0.79
9034.00,0.79
9033.00,0.79
9032.00,0.79
9031.00,0.79
9030.00,0.79
9029.00,0.79
9028.00,0.79
9027.00,0.79
9026.00,0.79
9025.00,0.79
9024.00,0.79
9023.00,0.79
9022.00,0.79
9021.00,0.79
9020.00,0.78
9019.00,0.78
9018.00,0.78
9017.00,0.78
9016.00,0.78
9015.00,0.78
9014.00,0.78
9013.00,0.78
9012.00,0.78
9011.00,0.78
9010.00,0.78
9009.00,0.78
9008.00,0.78
9007.00,0.78
9006.00,0.78
9005.00,0.78
9004.00,0.78
9003.00,0.78
9002.00,0.78
9001.00,0.78
9000.00,0.78
8999.00,0.78
8998.00,0.79
8997.00,0.79
8996.00,0.79
8995.00,0.79
8994.00,0.79
8993.00,0.80
8992.00,0.80
8991.00,0.80
8990.00,0.80
8989.00,0.80
8988.00,0.81
8987.00,0.81
8986.00,0.81
8985.00,0.81
8984.00,0.81
8983.00,0.81
8982.00,0.81
8981.00,0.81
8980.00,0.81
8979.00,0.81
8978.00,0.80
8977.00,0.80
8976.00,0.80
8975.00,0.80
8974.00,0.80
8973.00,0.80
8972.00,0.80
8971.00,0.80
8970.00,0.79
8969.00,0.79
8968.00,0.79
8967.00,0.79
8966.00,0.79
8965.00,0.79
8964.00,0.79
8963.00,0.78
8962.00,0.78
8961.00,0.78
8960.00,0.78
8959.00,0.78
8958.00,0.78
8957.00,0.78
8956.00,0.78
8955.00,0.78
8954.00,0.78
8953.00,0.78
8952.00,0.78
8951.00,0.78
8950.00,0.78
8949.00,0.78
8948.00,0.78
8947.00,0.78
8946.00,0.78
8945.00,0.78
8944.00,0.78
8943.00,0.78
8942.00,0.78
8941.00,0.79
8940.00,0.79
8939.00,0.79
8938.00,0.79
8937.00,0.79
8936.00,0.79
8935.00,0.80
8934.00,0.80
8933.00,0.80
8932.00,0.80
8931.00,0.80
8930.00,0.80
8929.00,0.81
8928.00,0.81
8927.00,0.81
8926.00,0.81
8925.00,0.81
8924.00,0.81
8923.00,0.81
8922.00,0.80
8921.00,0.80
8920.00,0.80
8919.00,0.80
8918.00,0.80
8917.00,0.80
8916.00,0.80
8915.00,0.79
8914.00,0.79
8913.00,0.79
8912.00,0.79
8911.00,0.79
8910.00,0.79
8909.00,0.79
8908.00,0.79
8907.00,0.79
8906.00,0.78
8905.00,0.78
8904.00,0.78
8903.00,0.78
8902.00,0.78
8901.00,0.78
8900.00,0.78
8899.00,0.78
8898.00,0.78
8897.00,0.78
8896.00,0.78
8895.00,0.78
8894.00,0.78
8893.00,0.78
8892.00,0.78
8891.00,0.78
8890.00,0.78
8889.00,0.78
8888.00,0.78
8887.00,0.78
8886.00,0.78
8885.00,0.78
8884.00,0.78
8883.00,0.78
8882.00,0.78
8881.00,0.78
8880.00,0.78
8879.00,0.78
8878.00,0.78
8877.00,0.78
8876.00,0.78
8875.00,0.78
8874.00,0.78
8873.00,0.78
8872.00,0.78
8871.00,0.78
8870.00,0.77
8869.00,0.77
8868.00,0.77
8867.00,0.77
8866.00,0.77
8865.00,0.77
8864.00,0.77
8863.00,0.77
8862.00,0.77
8861.00,0.77
8860.00,0.77
8859.00,0.77
8858.00,0.77
8857.00,0.77
8856.00,0.77
8855.00,0.77
8854.00,0.77
8853.00,0.77
8852.00,0.77
8851.00,0.77
8850.00,0.77
8849.00,0.77
8848.00,0.77
8847.00,0.77
8846.00,0.77
8845.00,0.77
8844.00,0.77
8843.00,0.77
8842.00,0.77
8841.00,0.77
8840.00,0.77
8839.00,0.77
8838.00,0.78
8837.00,0.78
8836.00,0.78
8835.00,0.78
8834.00,0.78
8833.00,0.78
8832.00,0.78
8831.00,0.78
8830.00,0.78
8829.00,0.78
8828.00,0.78
8827.00,0.78
8826.00,0.78
8825.00,0.78
8824.00,0.78
8823.00,0.78
8822.00,0.78
8821.00,0.78
8820.00,0.78
8819.00,0.78
8818.00,0.78
8817.00,0.78
8816.00,0.78
8815.00,0.78
8814.00,0.78
8813.00,0.78
8812.00,0.78
8811.00,0.78
8810.00,0.77
8809.00,0.77
8808.00,0.77
8807.00,0.77
8806.00,0.77
8805.00,0.77
8804.00,0.76
8803.00,0.76
8802.00,0.76
8801.00,0.76
8800.00,0.76
8799.00,0.76
8798.00,0.76
8797.00,0.76
8796.00,0.76
8795.00,0.76
8794.00,0.76
8793.00,0.75
8792.00,0.75
8791.00,0.75
8790.00,0.75
8789.00,0.75
8788.00,0.75
8787.00,0.75
8786.00,0.75
8785.00,0.75
8784.00,0.75
8783.00,0.75
8782.00,0.75
8781.00,0.75
8780.00,0.75
8779.00,0.75
8778.00,0.75
8777.00,0.75
8776.00,0.75
8775.00,0.75
8774.00,0.75
8773.00,0.75
8772.00,0.75
8771.00,0.75
8770.00,0.74
8769.00,0.74
8768.00,0.74
8767.00,0.74
8766.00,0.74
8765.00,0.74
8764.00,0.74
8763.00,0.74
8762.00,0.74
8761.00,0.75
8760.00,0.75
8759.00,0.75
8758.00,0.75
8757.00,0.75
8756.00,0.75
8755.00,0.75
8754.00,0.75
8753.00,0.75
8752.00,0.75
8751.00,0.75
8750.00,0.75
8749.00,0.76
8748.00,0.76
8747.00,0.76
8746.00,0.76
8745.00,0.76
8744.00,0.76
8743.00,0.76
8742.00,0.76
8741.00,0.76
8740.00,0.76
8739.00,0.76
8738.00,0.76
8737.00,0.76
8736.00,0.76
8735.00,0.76
8734.00,0.76
8733.00,0.76
8732.00,0.76
8731.00,0.76
8730.00,0.76
8729.00,0.76
8728.00,0.76
8727.00,0.76
8726.00,0.76
8725.00,0.76
8724.00,0.76
8723.00,0.76
8722.00,0.76
8721.00,0.76
8720.00,0.76
8719.00,0.76
8718.00,0.76
8717.00,0.76
8716.00,0.76
8715.00,0.76
8714.00,0.76
8713.00,0.76
8712.00,0.76
8711.00,0.76
8710.00,0.76
8709.00,0.76
8708.00,0.76
8707.00,0.76
8706.00,0.76
8705.00,0.76
8704.00,0.76
8703.00,0.76
8702.00,0.75
8701.00,0.75
8700.00,0.75
8699.00,0.75
8698.00,0.75
8697.00,0.75
8696.00,0.75
8695.00,0.75
8694.00,0.75
8693.00,0.74
8692.00,0.74
8691.00,0.74
8690.00,0.74
8689.00,0.74
8688.00,0.74
8687.00,0.74
8686.00,0.74
8685.00,0.74
8684.00,0.74
8683.00,0.74
8682.00,0.74
8681.00,0.74
8680.00,0.74
8679.00,0.74
8678.00,0.74
8677.00,0.74
8676.00,0.74
8675.00,0.74
8674.00,0.74
8673.00,0.74
8672.00,0.74
8671.00,0.74
8670.00,0.74
8669.00,0.74
8668.00,0.74
8667.00,0.74
8666.00,0.74
8665.00,0.74
8664.00,0.74
8663.00,0.74
8662.00,0.74
8661.00,0.74
8660.00,0.74
8659.00,0.74
8658.00,0.74
8657.00,0.74
8656.00,0.74
8655.00,0.74
8654.00,0.74
8653.00,0.74
8652.00,0.74
8651.00,0.74
8650.00,0.74
8649.00,0.74
8648.00,0.74
8647.00,0.74
8646.00,0.74
8645.00,0.74
8644.00,0.74
8643.00,0.74
8642.00,0.74
8641.00,0.74
8640.00,0.74
8639.00,0.74
8638.00,0.74
8637.00,0.74
8636.00,0.74
8635.00,0.74
8634.00,0.74
8633.00,0.74
8632.00,0.74
8631.00,0.74
8630.00,0.74
8629.00,0.73
8628.00,0.73
8627.00,0.73
8626.00,0.73
8625.00,0.73
8624.00,0.73
8623.00,0.73
8622.00,0.73
8621.00,0.73
8620.00,0.73
8619.00,0.73
8618.00,0.73
8617.00,0.73
8616.00,0.73
8615.00,0.73
8614.00,0.73
8613.00,0.73
8612.00,0.73
8611.00,0.73
8610.00,0.73
8609.00,0.73
8608.00,0.73
8607.00,0.73
8606.00,0.73
8605.00,0.73
8604.00,0.73
8603.00,0.73
8602.00,0.73
8601.00,0.73
8600.00,0.73
8599.00,0.73
8598.00,0.73
8597.00,0.73
8596.00,0.73
8595.00,0.73
8594.00,0.73
8593.00,0.73
8592.00,0.73
8591.00,0.73
8590.00,0.73
8589.00,0.73
8588.00,0.73
8587.00,0.73
8586.00,0.73
8585.00,0.73
8584.00,0.73
8583.00,0.73
8582.00,0.73
8581.00,0.73
8580.00,0.73
8579.00,0.73
8578.00,0.72
8577.00,0.72
8576.00,0.72
8575.00,0.72
8574.00,0.72
8573.00,0.72
8572.00,0.72
8571.00,0.72
8570.00,0.72
8569.00,0.71
8568.00,0.71
8567.00,0.71
8566.00,0.71
8565.00,0.71
8564.00,0.71
8563.00,0.71
8562.00,0.71
8561.00,0.71
8560.00,0.71
8559.00,0.71
8558.00,0.71
8557.00,0.71
8556.00,0.71
8555.00,0.71
8554.00,0.71
8553.00,0.71
8552.00,0.71
8551.00,0.71
8550.00,0.71
8549.00,0.71
8548.00,0.71
8547.00,0.71
8546.00,0.71
8545.00,0.71
8544.00,0.71
8543.00,0.71
8542.00,0.71
8541.00,0.71
8540.00,0.71
8539.00,0.71
8538.00,0.71
8537.00,0.71
8536.00,0.71
8535.00,0.71
8534.00,0.71
8533.00,0.71
8532.00,0.71
8531.00,0.71
8530.00,0.71
8529.00,0.71
8528.00,0.71
8527.00,0.71
8526.00,0.71
8525.00,0.71
8524.00,0.71
8523.00,0.71
8522.00,0.71
8521.00,0.71
8520.00,0.71
8519.00,0.71
8518.00,0.71
8517.00,0.71
8516.00,0.71
8515.00,0.71
8514.00,0.71
8513.00,0.71
8512.00,0.71
8511.00,0.71
8510.00,0.71
8509.00,0.71
8508.00,0.71
8507.00,0.71
8506.00,0.71
8505.00,0.71
8504.00,0.71
8503.00,0.71
8502.00,0.71
8501.00,0.71
8500.00,0.71
8499.00,0.71
8498.00,0.71
8497.00,0.71
8496.00,0.71
8495.00,0.71
8494.00,0.71
8493.00,0.70
8492.00,0.70
8491.00,0.70
8490.00,0.70
8489.00,0.70
8488.00,0.70
8487.00,0.69
8486.00,0.69
8485.00,0.69
8484.00,0.69
8483.00,0.69
8482.00,0.69
8481.00,0.69
8480.00,0.69
8479.00,0.69
8478.00,0.69
8477.00,0.69
8476.00,0.69
8475.00,0.69
8474.00,0.69
8473.00,0.69
8472.00,0.69
8471.00,0.69
8470.00,0.69
8469.00,0.69
8468.00,0.69
8467.00,0.69
8466.00,0.69
8465.00,0.69
8464.00,0.69
8463.00,0.69
8462.00,0.68
8461.00,0.68
8460.00,0.68
8459.00,0.68
8458.00,0.68
8457.00,0.68
8456.00,0.68
8455.00,0.68
8454.00,0.68
8453.00,0.68
8452.00,0.68
8451.00,0.68
8450.00,0.68
8449.00,0.68
8448.00,0.68
8447.00,0.68
8446.00,0.68
8445.00,0.68
8444.00,0.68
8443.00,0.68
8442.00,0.68
8441.00,0.68
8440.00,0.68
8439.00,0.68
8438.00,0.68
8437.00,0.68
8436.00,0.68
8435.00,0.68
8434.00,0.69
8433.00,0.69
8432.00,0.69
8431.00,0.69
8430.00,0.69
8429.00,0.69
8428.00,0.69
8427.00,0.69
8426.00,0.69
8425.00,0.69
8424.00,0.69
8423.00,0.69
8422.00,0.69
8421.00,0.69
8420.00,0.69
8419.00,0.69
8418.00,0.69
8417.00,0.69
8416.00,0.70
8415.00,0.70
8414.00,0.70
8413.00,0.70
8412.00,0.70
8411.00,0.70
8410.00,0.70
8409.00,0.70
8408.00,0.70
8407.00,0.70
8406.00,0.70
8405.00,0.70
8404.00,0.70
8403.00,0.70
8402.00,0.70
8401.00,0.70
8400.00,0.70
8399.00,0.70
8398.00,0.70
8397.00,0.70
8396.00,0.70
8395.00,0.70
8394.00,0.70
8393.00,0.70
8392.00,0.70
8391.00,0.70
8390.00,0.70
8389.00,0.71
8388.00,0.71
8387.00,0.71
8386.00,0.71
8385.00,0.71
8384.00,0.71
8383.00,0.71
8382.00,0.71
8381.00,0.71
8380.00,0.71
8379.00,0.71
8378.00,0.71
8377.00,0.71
8376.00,0.71
8375.00,0.71
8374.00,0.71
8373.00,0.71
8372.00,0.71
8371.00,0.71
8370.00,0.71
8369.00,0.71
8368.00,0.71
8367.00,0.71
8366.00,0.71
8365.00,0.71
8364.00,0.71
8363.00,0.71
8362.00,0.71
8361.00,0.71
8360.00,0.71
8359.00,0.71
8358.00,0.71
8357.00,0.71
8356.00,0.71
8355.00,0.71
8354.00,0.71
8353.00,0.71
8352.00,0.71
8351.00,0.71
8350.00,0.71
8349.00,0.72
8348.00,0.72
8347.00,0.72
8346.00,0.72
8345.00,0.72
8344.00,0.72
8343.00,0.72
8342.00,0.72
8341.00,0.72
8340.00,0.72
8339.00,0.72
8338.00,0.72
8337.00,0.72
8336.00,0.72
8335.00,0.71
8334.00,0.71
8333.00,0.71
8332.00,0.71
8331.00,0.71
8330.00,0.71
8329.00,0.71
8328.00,0.71
8327.00,0.71
8326.00,0.71
8325.00,0.71
8324.00,0.71
8323.00,0.71
8322.00,0.71
8321.00,0.71
8320.00,0.71
8319.00,0.72
8318.00,0.72
8317.00,0.72
8316.00,0.72
8315.00,0.72
8314.00,0.72
8313.00,0.72
8312.00,0.72
8311.00,0.72
8310.00,0.72
8309.00,0.72
8308.00,0.72
8307.00,0.72
8306.00,0.72
8305.00,0.72
8304.00,0.72
8303.00,0.72
8302.00,0.72
8301.00,0.72
8300.00,0.72
8299.00,0.72
8298.00,0.72
8297.00,0.72
8296.00,0.72
8295.00,0.72
8294.00,0.72
8293.00,0.72
8292.00,0.72
8291.00,0.72
8290.00,0.72
8289.00,0.72
8288.00,0.72
8287.00,0.72
8286.00,0.72
8285.00,0.72
8284.00,0.72
8283.00,0.72
8282.00,0.72
8281.00,0.72
8280.00,0.72
8279.00,0.72
8278.00,0.72
8277.00,0.72
8276.00,0.72
8275.00,0.72
8274.00,0.72
8273.00,0.72
8272.00,0.72
8271.00,0.72
8270.00,0.72
8269.00,0.72
8268.00,0.72
8267.00,0.72
8266.00,0.72
8265.00,0.73
8264.00,0.73
8263.00,0.73
8262.00,0.73
8261.00,0.73
8260.00,0.73
8259.00,0.73
8258.00,0.73
8257.00,0.73
8256.00,0.73
8255.00,0.73
8254.00,0.73
8253.00,0.73
8252.00,0.73
8251.00,0.73
8250.00,0.73
8249.00,0.73
8248.00,0.73
8247.00,0.73
8246.00,0.73
8245.00,0.73
8244.00,0.73
8243.00,0.73
8242.00,0.73
8241.00,0.73
8240.00,0.73
8239.00,0.73
8238.00,0.73
8237.00,0.73
8236.00,0.73
8235.00,0.73
8234.00,0.73
8233.00,0.73
8232.00,0.73
8231.00,0.73
8230.00,0.73
8229.00,0.73
8228.00,0.73
8227.00,0.73
8226.00,0.73
8225.00,0.73
8224.00,0.73
8223.00,0.73
8222.00,0.73
8221.00,0.73
8220.00,0.74
8219.00,0.74
8218.00,0.73
8217.00,0.73
8216.00,0.73
8215.00,0.73
8214.00,0.73
8213.00,0.73
8212.00,0.73
8211.00,0.73
8210.00,0.73
8209.00,0.73
8208.00,0.73
8207.00,0.73
8206.00,0.73
8205.00,0.73
8204.00,0.73
8203.00,0.73
8202.00,0.73
8201.00,0.73
8200.00,0.73
8199.00,0.73
8198.00,0.73
8197.00,0.73
8196.00,0.73
8195.00,0.73
8194.00,0.73
8193.00,0.74
8192.00,0.74
8191.00,0.74
8190.00,0.74
8189.00,0.74
8188.00,0.74
8187.00,0.74
8186.00,0.74
8185.00,0.74
8184.00,0.74
8183.00,0.74
8182.00,0.74
8181.00,0.74
8180.00,0.74
8179.00,0.74
8178.00,0.75
8177.00,0.75
8176.00,0.75
8175.00,0.75
8174.00,0.75
8173.00,0.75
8172.00,0.75
8171.00,0.76
8170.00,0.76
8169.00,0.76
8168.00,0.76
8167.00,0.76
8166.00,0.76
8165.00,0.76
8164.00,0.76
8163.00,0.76
8162.00,0.76
8161.00,0.76
8160.00,0.76
8159.00,0.76
8158.00,0.75
8157.00,0.75
8156.00,0.75
8155.00,0.75
8154.00,0.75
8153.00,0.75
8152.00,0.75
8151.00,0.74
8150.00,0.74
8149.00,0.74
8148.00,0.74
8147.00,0.74
8146.00,0.74
8145.00,0.74
8144.00,0.75
8143.00,0.75
8142.00,0.75
8141.00,0.75
8140.00,0.75
8139.00,0.75
8138.00,0.76
8137.00,0.76
8136.00,0.76
8135.00,0.76
8134.00,0.76
8133.00,0.77
8132.00,0.77
8131.00,0.77
8130.00,0.77
8129.00,0.77
8128.00,0.77
8127.00,0.77
8126.00,0.77
8125.00,0.77
8124.00,0.77
8123.00,0.77
8122.00,0.77
8121.00,0.77
8120.00,0.76
8119.00,0.76
8118.00,0.76
8117.00,0.76
8116.00,0.76
8115.00,0.76
8114.00,0.76
8113.00,0.76
8112.00,0.76
8111.00,0.76
8110.00,0.76
8109.00,0.76
8108.00,0.76
8107.00,0.76
8106.00,0.76
8105.00,0.76
8104.00,0.76
8103.00,0.76
8102.00,0.76
8101.00,0.76
8100.00,0.76
8099.00,0.76
8098.00,0.76
8097.00,0.76
8096.00,0.76
8095.00,0.76
8094.00,0.76
8093.00,0.76
8092.00,0.76
8091.00,0.76
8090.00,0.76
8089.00,0.76
8088.00,0.76
8087.00,0.76
8086.00,0.76
8085.00,0.76
8084.00,0.76
8083.00,0.76
8082.00,0.76
8081.00,0.76
8080.00,0.76
8079.00,0.76
8078.00,0.76
8077.00,0.76
8076.00,0.76
8075.00,0.76
8074.00,0.76
8073.00,0.76
8072.00,0.76
8071.00,0.76
8070.00,0.76
8069.00,0.76
8068.00,0.76
8067.00,0.76
8066.00,0.76
8065.00,0.76
8064.00,0.76
8063.00,0.76
8062.00,0.76
8061.00,0.76
8060.00,0.76
8059.00,0.76
8058.00,0.76
8057.00,0.76
8056.00,0.76
8055.00,0.76
8054.00,0.76
8053.00,0.76
8052.00,0.76
8051.00,0.76
8050.00,0.76
8049.00,0.76
8048.00,0.76
8047.00,0.76
8046.00,0.76
8045.00,0.76
8044.00,0.76
8043.00,0.76
8042.00,0.76
8041.00,0.76
8040.00,0.76
8039.00,0.76
8038.00,0.76
8037.00,0.76
8036.00,0.76
8035.00,0.76
8034.00,0.76
8033.00,0.76
8032.00,0.76
8031.00,0.76
8030.00,0.76
8029.00,0.76
8028.00,0.76
8027.00,0.77
8026.00,0.77
8025.00,0.77
8024.00,0.77
8023.00,0.77
8022.00,0.77
8021.00,0.77
8020.00,0.77
8019.00,0.77
8018.00,0.77
8017.00,0.77
8016.00,0.77
8015.00,0.76
8014.00,0.76
8013.00,0.76
8012.00,0.76
8011.00,0.77
8010.00,0.77
8009.00,0.77
8008.00,0.77
8007.00,0.77
8006.00,0.77
8005.00,0.77
8004.00,0.77
8003.00,0.77
8002.00,0.77
8001.00,0.77
8000.00,0.77
7999.00,0.77
7998.00,0.77
7997.00,0.77
7996.00,0.77
7995.00,0.77
7994.00,0.77
7993.00,0.77
7992.00,0.78
7991.00,0.78
7990.00,0.78
7989.00,0.78
7988.00,0.78
7987.00,0.78
7986.00,0.78
7985.00,0.78
7984.00,0.78
7983.00,0.78
7982.00,0.78
7981.00,0.78
7980.00,0.78
7979.00,0.78
7978.00,0.78
7977.00,0.78
7976.00,0.78
7975.00,0.78
7974.00,0.78
7973.00,0.78
7972.00,0.78
7971.00,0.78
7970.00,0.78
7969.00,0.78
7968.00,0.77
7967.00,0.77
7966.00,0.77
7965.00,0.77
7964.00,0.77
7963.00,0.77
7962.00,0.77
7961.00,0.77
7960.00,0.77
7959.00,0.77
7958.00,0.78
7957.00,0.78
7956.00,0.78
7955.00,0.78
7954.00,0.78
7953.00,0.78
7952.00,0.78
7951.00,0.78
7950.00,0.78
7949.00,0.78
7948.00,0.78
7947.00,0.79
7946.00,0.79
7945.00,0.79
7944.00,0.79
7943.00,0.79
7942.00,0.79
7941.00,0.79
7940.00,0.79
7939.00,0.79
7938.00,0.79
7937.00,0.79
7936.00,0.79
7935.00,0.79
7934.00,0.79
7933.00,0.79
7932.00,0.79
7931.00,0.79
7930.00,0.79
7929.00,0.79
7928.00,0.79
7927.00,0.79
7926.00,0.79
7925.00,0.79
7924.00,0.79
7923.00,0.79
7922.00,0.79
7921.00,0.79
7920.00,0.79
7919.00,0.78
7918.00,0.78
7917.00,0.78
7916.00,0.78
7915.00,0.78
7914.00,0.78
7913.00,0.78
7912.00,0.78
7911.00,0.78
7910.00,0.78
7909.00,0.78
7908.00,0.78
7907.00,0.78
7906.00,0.78
7905.00,0.78
7904.00,0.78
7903.00,0.78
7902.00,0.78
7901.00,0.78
7900.00,0.78
7899.00,0.78
7898.00,0.78
7897.00,0.79
7896.00,0.79
7895.00,0.79
7894.00,0.79
7893.00,0.79
7892.00,0.79
7891.00,0.79
7890.00,0.79
7889.00,0.79
7888.00,0.79
7887.00,0.80
7886.00,0.80
7885.00,0.80
7884.00,0.80
7883.00,0.80
7882.00,0.80
7881.00,0.80
7880.00,0.80
7879.00,0.80
7878.00,0.80
7877.00,0.80
7876.00,0.80
7875.00,0.80
7874.00,0.80
7873.00,0.80
7872.00,0.80
7871.00,0.80
7870.00,0.80
7869.00,0.80
7868.00,0.80
7867.00,0.80
7866.00,0.80
7865.00,0.80
7864.00,0.80
7863.00,0.80
7862.00,0.79
7861.00,0.79
7860.00,0.79
7859.00,0.79
7858.00,0.79
7857.00,0.79
7856.00,0.79
7855.00,0.79
7854.00,0.79
7853.00,0.79
7852.00,0.79
7851.00,0.79
7850.00,0.79
7849.00,0.79
7848.00,0.79
7847.00,0.79
7846.00,0.80
7845.00,0.80
7844.00,0.80
7843.00,0.80
7842.00,0.80
7841.00,0.80
7840.00,0.80
7839.00,0.80
7838.00,0.80
7837.00,0.80
7836.00,0.80
7835.00,0.80
7834.00,0.80
7833.00,0.80
7832.00,0.80
7831.00,0.80
7830.00,0.80
7829.00,0.80
7828.00,0.80
7827.00,0.80
7826.00,0.80
7825.00,0.80
7824.00,0.80
7823.00,0.80
7822.00,0.80
7821.00,0.81
7820.00,0.81
7819.00,0.81
7818.00,0.81
7817.00,0.81
7816.00,0.81
7815.00,0.81
7814.00,0.81
7813.00,0.81
7812.00,0.81
7811.00,0.81
7810.00,0.81
7809.00,0.80
7808.00,0.80
7807.00,0.80
7806.00,0.80
7805.00,0.80
7804.00,0.80
7803.00,0.80
7802.00,0.80
7801.00,0.80
7800.00,0.80
7799.00,0.80
7798.00,0.80
7797.00,0.80
7796.00,0.80
7795.00,0.80
7794.00,0.80
7793.00,0.80
7792.00,0.80
7791.00,0.80
7790.00,0.80
7789.00,0.81
7788.00,0.81
7787.00,0.81
7786.00,0.81
7785.00,0.81
7784.00,0.81
7783.00,0.81
7782.00,0.81
7781.00,0.81
7780.00,0.80
7779.00,0.80
7778.00,0.80
7777.00,0.80
7776.00,0.80
7775.00,0.80
7774.00,0.80
7773.00,0.80
7772.00,0.80
7771.00,0.80
7770.00,0.80
7769.00,0.80
7768.00,0.80
7767.00,0.80
7766.00,0.80
7765.00,0.80
7764.00,0.80
7763.00,0.80
7762.00,0.80
7761.00,0.80
7760.00,0.80
7759.00,0.80
7758.00,0.80
7757.00,0.80
7756.00,0.80
7755.00,0.80
7754.00,0.80
7753.00,0.80
7752.00,0.80
7751.00,0.80
7750.00,0.80
7749.00,0.80
7748.00,0.80
7747.00,0.80
7746.00,0.80
7745.00,0.80
7744.00,0.80
7743.00,0.80
7742.00,0.80
7741.00,0.80
7740.00,0.80
7739.00,0.80
7738.00,0.80
7737.00,0.80
7736.00,0.80
7735.00,0.80
7734.00,0.80
7733.00,0.80
7732.00,0.80
7731.00,0.80
7730.00,0.80
7729.00,0.80
7728.00,0.80
7727.00,0.80
7726.00,0.80
7725.00,0.80
7724.00,0.80
7723.00,0.80
7722.00,0.80
7721.00,0.80
7720.00,0.80
7719.00,0.80
7718.00,0.80
7717.00,0.80
7716.00,0.80
7715.00,0.80
7714.00,0.80
7713.00,0.80
7712.00,0.80
7711.00,0.80
7710.00,0.80
7709.00,0.80
7708.00,0.80
7707.00,0.80
7706.00,0.80
7705.00,0.80
7704.00,0.80
7703.00,0.81
7702.00,0.81
7701.00,0.81
7700.00,0.81
7699.00,0.81
7698.00,0.81
7697.00,0.81
7696.00,0.81
7695.00,0.81
7694.00,0.81
7693.00,0.81
7692.00,0.81
7691.00,0.81
7690.00,0.81
7689.00,0.81
7688.00,0.81
7687.00,0.81
7686.00,0.80
7685.00,0.80
7684.00,0.80
7683.00,0.80
7682.00,0.80
7681.00,0.80
7680.00,0.80
7679.00,0.80
7678.00,0.80
7677.00,0.80
7676.00,0.80
7675.00,0.80
7674.00,0.80
7673.00,0.80
7672.00,0.80
7671.00,0.80
7670.00,0.80
7669.00,0.80
7668.00,0.80
7667.00,0.80
7666.00,0.80
7665.00,0.80
7664.00,0.80
7663.00,0.80
7662.00,0.80
7661.00,0.80
7660.00,0.80
7659.00,0.80
7658.00,0.80
7657.00,0.80
7656.00,0.80
7655.00,0.81
7654.00,0.81
7653.00,0.81
7652.00,0.81
7651.00,0.81
7650.00,0.81
7649.00,0.81
7648.00,0.81
7647.00,0.81
7646.00,0.81
7645.00,0.81
7644.00,0.81
7643.00,0.81
7642.00,0.81
7641.00,0.81
7640.00,0.81
7639.00,0.81
7638.00,0.81
7637.00,0.81
7636.00,0.81
7635.00,0.81
7634.00,0.81
7633.00,0.81
7632.00,0.81
7631.00,0.81
7630.00,0.81
7629.00,0.81
7628.00,0.81
7627.00,0.81
7626.00,0.81
7625.00,0.81
7624.00,0.81
7623.00,0.81
7622.00,0.81
7621.00,0.81
7620.00,0.81
7619.00,0.81
7618.00,0.81
7617.00,0.81
7616.00,0.81
7615.00,0.81
7614.00,0.81
7613.00,0.81
7612.00,0.81
7611.00,0.81
7610.00,0.81
7609.00,0.81
7608.00,0.81
7607.00,0.81
7606.00,0.81
7605.00,0.81
7604.00,0.81
7603.00,0.81
7602.00,0.81
7601.00,0.80
7600.00,0.80
7599.00,0.80
7598.00,0.80
7597.00,0.80
7596.00,0.80
7595.00,0.80
7594.00,0.80
7593.00,0.80
7592.00,0.80
7591.00,0.80
7590.00,0.80
7589.00,0.80
7588.00,0.80
7587.00,0.80
7586.00,0.80
7585.00,0.80
7584.00,0.80
7583.00,0.80
7582.00,0.80
7581.00,0.80
7580.00,0.80
7579.00,0.80
7578.00,0.80
7577.00,0.80
7576.00,0.80
7575.00,0.80
7574.00,0.80
7573.00,0.80
7572.00,0.80
7571.00,0.80
7570.00,0.80
7569.00,0.80
7568.00,0.80
7567.00,0.80
7566.00,0.80
7565.00,0.80
7564.00,0.80
7563.00,0.80
7562.00,0.80
7561.00,0.80
7560.00,0.80
7559.00,0.80
7558.00,0.80
7557.00,0.80
7556.00,0.80
7555.00,0.80
7554.00,0.80
7553.00,0.80
7552.00,0.80
7551.00,0.80
7550.00,0.80
7549.00,0.80
7548.00,0.80
7547.00,0.80
7546.00,0.80
7545.00,0.80
7544.00,0.80
7543.00,0.80
7542.00,0.80
7541.00,0.80
7540.00,0.80
7539.00,0.80
7538.00,0.80
7537.00,0.80
7536.00,0.80
7535.00,0.80
7534.00,0.80
7533.00,0.80
7532.00,0.80
7531.00,0.80
7530.00,0.80
7529.00,0.80
7528.00,0.80
7527.00,0.79
7526.00,0.79
7525.00,0.79
7524.00,0.79
7523.00,0.79
7522.00,0.79
7521.00,0.79
7520.00,0.79
7519.00,0.79
7518.00,0.79
7517.00,0.79
7516.00,0.79
7515.00,0.78
7514.00,0.78
7513.00,0.78
7512.00,0.78
7511.00,0.78
7510.00,0.78
7509.00,0.78
7508.00,0.78
7507.00,0.78
7506.00,0.78
7505.00,0.78
7504.00,0.78
7503.00,0.78
7502.00,0.78
7501.00,0.78
7500.00,0.78
7499.00,0.78
7498.00,0.78
7497.00,0.78
7496.00,0.78
7495.00,0.78
7494.00,0.78
7493.00,0.78
7492.00,0.77
7491.00,0.77
7490.00,0.77
7489.00,0.77
7488.00,0.77
7487.00,0.77
7486.00,0.77
7485.00,0.77
7484.00,0.77
7483.00,0.77
7482.00,0.77
7481.00,0.77
7480.00,0.77
7479.00,0.77
7478.00,0.77
7477.00,0.77
7476.00,0.77
7475.00,0.77
7474.00,0.77
7473.00,0.77
7472.00,0.77
7471.00,0.77
7470.00,0.77
7469.00,0.77
7468.00,0.77
7467.00,0.77
7466.00,0.77
7465.00,0.77
7464.00,0.77
7463.00,0.77
7462.00,0.77
7461.00,0.77
7460.00,0.77
7459.00,0.77
7458.00,0.77
7457.00,0.77
7456.00,0.77
7455.00,0.77
7454.00,0.77
7453.00,0.77
7452.00,0.77
7451.00,0.77
7450.00,0.76
7449.00,0.76
7448.00,0.76
7447.00,0.76
7446.00,0.76
7445.00,0.76
7444.00,0.76
7443.00,0.76
7442.00,0.76
7441.00,0.76
7440.00,0.76
7439.00,0.76
7438.00,0.75
7437.00,0.75
7436.00,0.75
7435.00,0.75
7434.00,0.75
7433.00,0.75
7432.00,0.75
7431.00,0.75
7430.00,0.75
7429.00,0.75
7428.00,0.75
7427.00,0.75
7426.00,0.75
7425.00,0.75
7424.00,0.75
7423.00,0.75
7422.00,0.75
7421.00,0.75
7420.00,0.75
7419.00,0.75
7418.00,0.75
7417.00,0.75
7416.00,0.75
7415.00,0.75
7414.00,0.75
7413.00,0.75
7412.00,0.75
7411.00,0.75
7410.00,0.75
7409.00,0.74
7408.00,0.74
7407.00,0.74
7406.00,0.74
7405.00,0.74
7404.00,0.74
7403.00,0.74
7402.00,0.74
7401.00,0.74
7400.00,0.73
7399.00,0.73
7398.00,0.73
7397.00,0.73
7396.00,0.73
7395.00,0.73
7394.00,0.73
7393.00,0.72
7392.00,0.72
7391.00,0.72
7390.00,0.72
7389.00,0.72
7388.00,0.72
7387.00,0.72
7386.00,0.72
7385.00,0.72
7384.00,0.72
7383.00,0.72
7382.00,0.72
7381.00,0.72
7380.00,0.72
7379.00,0.72
7378.00,0.72
7377.00,0.71
7376.00,0.71
7375.00,0.71
7374.00,0.71
7373.00,0.71
7372.00,0.71
7371.00,0.71
7370.00,0.71
7369.00,0.71
7368.00,0.72
7367.00,0.72
7366.00,0.72
7365.00,0.72
7364.00,0.72
7363.00,0.72
7362.00,0.72
7361.00,0.72
7360.00,0.72
7359.00,0.72
7358.00,0.72
7357.00,0.72
7356.00,0.72
7355.00,0.71
7354.00,0.71
7353.00,0.71
7352.00,0.71
7351.00,0.71
7350.00,0.71
7349.00,0.71
7348.00,0.71
7347.00,0.71
7346.00,0.71
7345.00,0.71
7344.00,0.71
7343.00,0.71
7342.00,0.71
7341.00,0.71
7340.00,0.71
7339.00,0.71
7338.00,0.71
7337.00,0.71
7336.00,0.71
7335.00,0.71
7334.00,0.71
7333.00,0.71
7332.00,0.71
7331.00,0.71
7330.00,0.71
7329.00,0.71
7328.00,0.71
7327.00,0.71
7326.00,0.71
7325.00,0.71
7324.00,0.71
7323.00,0.71
7322.00,0.71
7321.00,0.71
7320.00,0.71
7319.00,0.71
7318.00,0.71
7317.00,0.71
7316.00,0.71
7315.00,0.71
7314.00,0.71
7313.00,0.71
7312.00,0.71
7311.00,0.71
7310.00,0.71
7309.00,0.70
7308.00,0.70
7307.00,0.70
7306.00,0.70
7305.00,0.70
7304.00,0.70
7303.00,0.70
7302.00,0.70
7301.00,0.70
7300.00,0.70
7299.00,0.70
7298.00,0.70
7297.00,0.70
7296.00,0.70
7295.00,0.70
7294.00,0.70
7293.00,0.70
7292.00,0.69
7291.00,0.69
7290.00,0.69
7289.00,0.69
7288.00,0.69
7287.00,0.69
7286.00,0.69
7285.00,0.69
7284.00,0.69
7283.00,0.69
7282.00,0.69
7281.00,0.69
7280.00,0.69
7279.00,0.69
7278.00,0.69
7277.00,0.69
7276.00,0.68
7275.00,0.68
7274.00,0.68
7273.00,0.68
7272.00,0.68
7271.00,0.68
7270.00,0.68
7269.00,0.68
7268.00,0.67
7267.00,0.67
7266.00,0.67
7265.00,0.67
7264.00,0.67
7263.00,0.67
7262.00,0.67
7261.00,0.66
7260.00,0.66
7259.00,0.66
7258.00,0.66
7257.00,0.66
7256.00,0.66
7255.00,0.65
7254.00,0.65
7253.00,0.65
7252.00,0.65
7251.00,0.65
7250.00,0.64
7249.00,0.64
7248.00,0.64
7247.00,0.64
7246.00,0.64
7245.00,0.64
7244.00,0.63
7243.00,0.63
7242.00,0.63
7241.00,0.63
7240.00,0.63
7239.00,0.63
7238.00,0.63
7237.00,0.62
7236.00,0.62
7235.00,0.62
7234.00,0.62
7233.00,0.62
7232.00,0.61
7231.00,0.61
7230.00,0.61
7229.00,0.60
7228.00,0.60
7227.00,0.60
7226.00,0.60
7225.00,0.59
7224.00,0.59
7223.00,0.59
7222.00,0.58
7221.00,0.58
7220.00,0.58
7219.00,0.58
7218.00,0.57
7217.00,0.57
7216.00,0.57
7215.00,0.57
7214.00,0.56
7213.00,0.56
7212.00,0.56
7211.00,0.56
7210.00,0.55
7209.00,0.55
7208.00,0.55
7207.00,0.55
7206.00,0.55
7205.00,0.55
7204.00,0.54
7203.00,0.54
7202.00,0.54
7201.00,0.54
7200.00,0.54
7199.00,0.53
7198.00,0.53
7197.00,0.53
7196.00,0.53
7195.00,0.53
7194.00,0.52
7193.00,0.52
7192.00,0.52
7191.00,0.51
7190.00,0.51
7189.00,0.51
7188.00,0.51
7187.00,0.50
7186.00,0.50
7185.00,0.50
7184.00,0.50
7183.00,0.49
7182.00,0.49
7181.00,0.49
7180.00,0.49
7179.00,0.49
7178.00,0.49
7177.00,0.48
7176.00,0.48
7175.00,0.48
7174.00,0.48
7173.00,0.48
7172.00,0.47
7171.00,0.47
7170.00,0.47
7169.00,0.47
7168.00,0.47
7167.00,0.46
7166.00,0.46
7165.00,0.46
7164.00,0.46
7163.00,0.46
7162.00,0.45
7161.00,0.45
7160.00,0.45
7159.00,0.45
7158.00,0.45
7157.00,0.45
7156.00,0.44
7155.00,0.44
7154.00,0.44
7153.00,0.44
7152.00,0.44
7151.00,0.44
7150.00,0.44
7149.00,0.43
7148.00,0.43
7147.00,0.43
7146.00,0.43
7145.00,0.43
7144.00,0.43
7143.00,0.43
7142.00,0.42
7141.00,0.42
7140.00,0.42
7139.00,0.42
7138.00,0.42
7137.00,0.42
7136.00,0.42
7135.00,0.41
7134.00,0.41
7133.00,0.41
7132.00,0.41
7131.00,0.41
7130.00,0.41
7129.00,0.41
7128.00,0.41
7127.00,0.41
7126.00,0.40
7125.00,0.40
7124.00,0.40
7123.00,0.40
7122.00,0.40
7121.00,0.40
7120.00,0.39
7119.00,0.39
7118.00,0.39
7117.00,0.39
7116.00,0.39
7115.00,0.38
7114.00,0.38
7113.00,0.38
7112.00,0.38
7111.00,0.37
7110.00,0.37
7109.00,0.37
7108.00,0.37
7107.00,0.37
7106.00,0.37
7105.00,0.36
7104.00,0.36
7103.00,0.36
7102.00,0.36
7101.00,0.36
7100.00,0.36
7099.00,0.36
7098.00,0.36
7097.00,0.36
7096.00,0.36
7095.00,0.35
7094.00,0.35
7093.00,0.35
7092.00,0.35
7091.00,0.35
7090.00,0.35
7089.00,0.35
7088.00,0.35
7087.00,0.35
7086.00,0.35
7085.00,0.35
7084.00,0.35
7083.00,0.35
7082.00,0.35
7081.00,0.35
7080.00,0.35
7079.00,0.35
7078.00,0.35
7077.00,0.35
7076.00,0.35
7075.00,0.35
7074.00,0.35
7073.00,0.34
7072.00,0.34
7071.00,0.34
7070.00,0.34
7069.00,0.34
7068.00,0.34
7067.00,0.34
7066.00,0.34
7065.00,0.34
7064.00,0.34
7063.00,0.34
7062.00,0.34
7061.00,0.34
7060.00,0.34
7059.00,0.34
7058.00,0.33
7057.00,0.33
7056.00,0.33
7055.00,0.33
7054.00,0.33
7053.00,0.33
7052.00,0.33
7051.00,0.33
7050.00,0.33
7049.00,0.33
7048.00,0.33
7047.00,0.33
7046.00,0.33
7045.00,0.33
7044.00,0.33
7043.00,0.32
7042.00,0.32
7041.00,0.32
7040.00,0.32
7039.00,0.32
7038.00,0.32
7037.00,0.32
7036.00,0.32
7035.00,0.32
7034.00,0.32
7033.00,0.32
7032.00,0.32
7031.00,0.32
7030.00,0.32
7029.00,0.32
7028.00,0.32
7027.00,0.32
7026.00,0.32
7025.00,0.32
7024.00,0.32
7023.00,0.32
7022.00,0.32
7021.00,0.32
7020.00,0.32
7019.00,0.32
7018.00,0.32
7017.00,0.32
7016.00,0.32
7015.00,0.32
7014.00,0.32
7013.00,0.32
7012.00,0.32
7011.00,0.32
7010.00,0.32
7009.00,0.32
7008.00,0.32
7007.00,0.32
7006.00,0.32
7005.00,0.32
7004.00,0.32
7003.00,0.32
7002.00,0.32
7001.00,0.32
7000.00,0.32
6999.00,0.32
6998.00,0.31
6997.00,0.31
6996.00,0.31
6995.00,0.31
6994.00,0.31
6993.00,0.31
6992.00,0.31
6991.00,0.31
6990.00,0.31
6989.00,0.31
6988.00,0.31
6987.00,0.31
6986.00,0.31
6985.00,0.31
6984.00,0.31
6983.00,0.31
6982.00,0.31
6981.00,0.31
6980.00,0.31
6979.00,0.31
6978.00,0.31
6977.00,0.31
6976.00,0.31
6975.00,0.31
6974.00,0.31
6973.00,0.31
6972.00,0.31
6971.00,0.31
6970.00,0.31
6969.00,0.31
6968.00,0.31
6967.00,0.31
6966.00,0.31
6965.00,0.31
6964.00,0.31
6963.00,0.31
6962.00,0.31
6961.00,0.31
6960.00,0.30
6959.00,0.30
6958.00,0.30
6957.00,0.30
6956.00,0.30
6955.00,0.30
6954.00,0.30
6953.00,0.30
6952.00,0.30
6951.00,0.30
6950.00,0.30
6949.00,0.30
6948.00,0.30
6947.00,0.30
6946.00,0.30
6945.00,0.30
6944.00,0.30
6943.00,0.30
6942.00,0.30
6941.00,0.30
6940.00,0.30
6939.00,0.30
6938.00,0.30
6937.00,0.30
6936.00,0.30
6935.00,0.30
6934.00,0.30
6933.00,0.31
6932.00,0.31
6931.00,0.31
6930.00,0.31
6929.00,0.31
6928.00,0.31
6927.00,0.31
6926.00,0.31
6925.00,0.31
6924.00,0.31
6923.00,0.31
6922.00,0.31
6921.00,0.31
6920.00,0.31
6919.00,0.31
6918.00,0.31
6917.00,0.31
6916.00,0.31
6915.00,0.31
6914.00,0.31
6913.00,0.31
6912.00,0.31
6911.00,0.31
6910.00,0.31
6909.00,0.31
6908.00,0.31
6907.00,0.31
6906.00,0.31
6905.00,0.31
6904.00,0.30
6903.00,0.30
6902.00,0.30
6901.00,0.30
6900.00,0.30
6899.00,0.30
6898.00,0.30
6897.00,0.30
6896.00,0.30
6895.00,0.30
6894.00,0.30
6893.00,0.30
6892.00,0.30
6891.00,0.30
6890.00,0.30
6889.00,0.31
6888.00,0.31
6887.00,0.31
6886.00,0.31
6885.00,0.31
6884.00,0.31
6883.00,0.31
6882.00,0.31
6881.00,0.31
6880.00,0.31
6879.00,0.31
6878.00,0.31
6877.00,0.31
6876.00,0.31
6875.00,0.31
6874.00,0.31
6873.00,0.31
6872.00,0.31
6871.00,0.31
6870.00,0.31
6869.00,0.31
6868.00,0.31
6867.00,0.31
6866.00,0.31
6865.00,0.31
6864.00,0.31
6863.00,0.31
6862.00,0.31
6861.00,0.31
6860.00,0.31
6859.00,0.31
6858.00,0.31
6857.00,0.31
6856.00,0.31
6855.00,0.31
6854.00,0.31
6853.00,0.31
6852.00,0.31
6851.00,0.31
6850.00,0.31
6849.00,0.31
6848.00,0.31
6847.00,0.31
6846.00,0.31
6845.00,0.31
6844.00,0.31
6843.00,0.31
6842.00,0.31
6841.00,0.31
6840.00,0.31
6839.00,0.31
6838.00,0.31
6837.00,0.31
6836.00,0.31
6835.00,0.31
6834.00,0.31
6833.00,0.31
6832.00,0.31
6831.00,0.31
6830.00,0.31
6829.00,0.31
6828.00,0.31
6827.00,0.31
6826.00,0.31
6825.00,0.31
6824.00,0.31
6823.00,0.31
6822.00,0.31
6821.00,0.31
6820.00,0.31
6819.00,0.31
6818.00,0.31
6817.00,0.31
6816.00,0.31
6815.00,0.31
6814.00,0.31
6813.00,0.31
6812.00,0.31
6811.00,0.31
6810.00,0.31
6809.00,0.31
6808.00,0.31
6807.00,0.31
6806.00,0.31
6805.00,0.31
6804.00,0.31
6803.00,0.31
6802.00,0.31
6801.00,0.31
6800.00,0.31
6799.00,0.31
6798.00,0.31
6797.00,0.31
6796.00,0.31
6795.00,0.31
6794.00,0.32
6793.00,0.32
6792.00,0.32
6791.00,0.32
6790.00,0.32
6789.00,0.32
6788.00,0.32
6787.00,0.32
6786.00,0.32
6785.00,0.32
6784.00,0.32
6783.00,0.32
6782.00,0.32
6781.00,0.32
6780.00,0.32
6779.00,0.32
6778.00,0.32
6777.00,0.32
6776.00,0.32
6775.00,0.32
6774.00,0.32
6773.00,0.32
6772.00,0.32
6771.00,0.32
6770.00,0.32
6769.00,0.32
6768.00,0.32
6767.00,0.32
6766.00,0.32
6765.00,0.32
6764.00,0.32
6763.00,0.32
6762.00,0.32
6761.00,0.32
6760.00,0.32
6759.00,0.32
6758.00,0.32
6757.00,0.32
6756.00,0.33
6755.00,0.33
6754.00,0.33
6753.00,0.33
6752.00,0.33
6751.00,0.33
6750.00,0.33
6749.00,0.33
6748.00,0.33
6747.00,0.33
6746.00,0.33
6745.00,0.33
6744.00,0.33
6743.00,0.33
6742.00,0.34
6741.00,0.34
6740.00,0.34
6739.00,0.34
6738.00,0.34
6737.00,0.34
6736.00,0.34
6735.00,0.34
6734.00,0.34
6733.00,0.34
6732.00,0.34
6731.00,0.34
6730.00,0.34
6729.00,0.34
6728.00,0.34
6727.00,0.34
6726.00,0.34
6725.00,0.34
6724.00,0.34
6723.00,0.34
6722.00,0.34
6721.00,0.34
6720.00,0.34
6719.00,0.34
6718.00,0.34
6717.00,0.34
6716.00,0.34
6715.00,0.35
6714.00,0.35
6713.00,0.35
6712.00,0.35
6711.00,0.35
6710.00,0.35
6709.00,0.35
6708.00,0.35
6707.00,0.35
6706.00,0.35
6705.00,0.35
6704.00,0.35
6703.00,0.35
6702.00,0.35
6701.00,0.35
6700.00,0.35
6699.00,0.35
6698.00,0.35
6697.00,0.35
6696.00,0.35
6695.00,0.35
6694.00,0.35
6693.00,0.35
6692.00,0.35
6691.00,0.35
6690.00,0.35
6689.00,0.35
6688.00,0.35
6687.00,0.35
6686.00,0.35
6685.00,0.35
6684.00,0.35
6683.00,0.35
6682.00,0.35
6681.00,0.35
6680.00,0.36
6679.00,0.36
6678.00,0.36
6677.00,0.36
6676.00,0.36
6675.00,0.36
6674.00,0.36
6673.00,0.36
6672.00,0.36
6671.00,0.36
6670.00,0.36
6669.00,0.36
6668.00,0.36
6667.00,0.36
6666.00,0.36
6665.00,0.36
6664.00,0.37
6663.00,0.37
6662.00,0.37
6661.00,0.37
6660.00,0.37
6659.00,0.37
6658.00,0.37
6657.00,0.37
6656.00,0.37
6655.00,0.37
6654.00,0.37
6653.00,0.37
6652.00,0.37
6651.00,0.37
6650.00,0.37
6649.00,0.37
6648.00,0.37
6647.00,0.37
6646.00,0.37
6645.00,0.37
6644.00,0.37
6643.00,0.38
6642.00,0.38
6641.00,0.38
6640.00,0.38
6639.00,0.38
6638.00,0.38
6637.00,0.38
6636.00,0.38
6635.00,0.38
6634.00,0.38
6633.00,0.38
6632.00,0.39
6631.00,0.39
6630.00,0.39
6629.00,0.39
6628.00,0.39
6627.00,0.39
6626.00,0.39
6625.00,0.39
6624.00,0.39
6623.00,0.39
6622.00,0.39
6621.00,0.39
6620.00,0.39
6619.00,0.39
6618.00,0.39
6617.00,0.39
6616.00,0.39
6615.00,0.39
6614.00,0.39
6613.00,0.39
6612.00,0.39
6611.00,0.39
6610.00,0.40
6609.00,0.40
6608.00,0.40
6607.00,0.40
6606.00,0.40
6605.00,0.40
6604.00,0.40
6603.00,0.40
6602.00,0.40
6601.00,0.40
6600.00,0.40
6599.00,0.40
6598.00,0.40
6597.00,0.40
6596.00,0.40
6595.00,0.40
6594.00,0.40
6593.00,0.40
6592.00,0.40
6591.00,0.40
6590.00,0.40
6589.00,0.40
6588.00,0.40
6587.00,0.40
6586.00,0.40
6585.00,0.40
6584.00,0.40
6583.00,0.40
6582.00,0.40
6581.00,0.40
6580.00,0.40
6579.00,0.40
6578.00,0.40
6577.00,0.40
6576.00,0.40
6575.00,0.40
6574.00,0.40
6573.00,0.40
6572.00,0.41
6571.00,0.41
6570.00,0.41
6569.00,0.41
6568.00,0.41
6567.00,0.41
6566.00,0.41
6565.00,0.41
6564.00,0.42
6563.00,0.42
6562.00,0.42
6561.00,0.42
6560.00,0.42
6559.00,0.42
6558.00,0.42
6557.00,0.42
6556.00,0.42
6555.00,0.42
6554.00,0.42
6553.00,0.43
6552.00,0.43
6551.00,0.43
6550.00,0.43
6549.00,0.43
6548.00,0.43
6547.00,0.43
6546.00,0.43
6545.00,0.43
6544.00,0.43
6543.00,0.43
6542.00,0.43
6541.00,0.43
6540.00,0.43
6539.00,0.43
6538.00,0.43
6537.00,0.43
6536.00,0.43
6535.00,0.43
6534.00,0.43
6533.00,0.43
6532.00,0.44
6531.00,0.44
6530.00,0.44
6529.00,0.44
6528.00,0.44
6527.00,0.44
6526.00,0.44
6525.00,0.44
6524.00,0.44
6523.00,0.44
6522.00,0.44
6521.00,0.44
6520.00,0.44
6519.00,0.44
6518.00,0.44
6517.00,0.44
6516.00,0.44
6515.00,0.45
6514.00,0.45
6513.00,0.45
6512.00,0.45
6511.00,0.45
6510.00,0.45
6509.00,0.45
6508.00,0.45
6507.00,0.45
6506.00,0.45
6505.00,0.45
6504.00,0.45
6503.00,0.45
6502.00,0.45
6501.00,0.45
6500.00,0.45
6499.00,0.45
6498.00,0.45
6497.00,0.45
6496.00,0.45
6495.00,0.45
6494.00,0.46
6493.00,0.46
6492.00,0.46
6491.00,0.46
6490.00,0.46
6489.00,0.46
6488.00,0.46
6487.00,0.46
6486.00,0.46
6485.00,0.46
6484.00,0.46
6483.00,0.47
6482.00,0.47
6481.00,0.47
6480.00,0.47
6479.00,0.47
6478.00,0.47
6477.00,0.47
6476.00,0.47
6475.00,0.47
6474.00,0.47
6473.00,0.47
6472.00,0.47
6471.00,0.47
6470.00,0.47
6469.00,0.47
6468.00,0.47
6467.00,0.47
6466.00,0.47
6465.00,0.47
6464.00,0.47
6463.00,0.47
6462.00,0.47
6461.00,0.47
6460.00,0.47
6459.00,0.47
6458.00,0.47
6457.00,0.47
6456.00,0.47
6455.00,0.47
6454.00,0.47
6453.00,0.47
6452.00,0.47
6451.00,0.47
6450.00,0.47
6449.00,0.47
6448.00,0.47
6447.00,0.48
6446.00,0.48
6445.00,0.48
6444.00,0.48
6443.00,0.48
6442.00,0.48
6441.00,0.48
6440.00,0.48
6439.00,0.48
6438.00,0.48
6437.00,0.48
6436.00,0.48
6435.00,0.48
6434.00,0.49
6433.00,0.49
6432.00,0.49
6431.00,0.49
6430.00,0.49
6429.00,0.49
6428.00,0.49
6427.00,0.49
6426.00,0.49
6425.00,0.49
6424.00,0.49
6423.00,0.49
6422.00,0.50
6421.00,0.50
6420.00,0.50
6419.00,0.50
6418.00,0.50
6417.00,0.50
6416.00,0.50
6415.00,0.50
6414.00,0.50
6413.00,0.50
6412.00,0.50
6411.00,0.50
6410.00,0.50
6409.00,0.50
6408.00,0.50
6407.00,0.50
6406.00,0.50
6405.00,0.50
6404.00,0.50
6403.00,0.50
6402.00,0.50
6401.00,0.50
6400.00,0.50
6399.00,0.50
6398.00,0.50
6397.00,0.50
6396.00,0.50
6395.00,0.50
6394.00,0.50
6393.00,0.50
6392.00,0.50
6391.00,0.50
6390.00,0.50
6389.00,0.51
6388.00,0.51
6387.00,0.51
6386.00,0.51
6385.00,0.51
6384.00,0.51
6383.00,0.51
6382.00,0.51
6381.00,0.51
6380.00,0.51
6379.00,0.51
6378.00,0.51
6377.00,0.51
6376.00,0.52
6375.00,0.52
6374.00,0.52
6373.00,0.52
6372.00,0.52
6371.00,0.52
6370.00,0.52
6369.00,0.52
6368.00,0.52
6367.00,0.52
6366.00,0.52
6365.00,0.52
6364.00,0.52
6363.00,0.52
6362.00,0.52
6361.00,0.52
6360.00,0.52
6359.00,0.52
6358.00,0.52
6357.00,0.52
6356.00,0.52
6355.00,0.52
6354.00,0.52
6353.00,0.52
6352.00,0.52
6351.00,0.53
6350.00,0.53
6349.00,0.53
6348.00,0.53
6347.00,0.53
6346.00,0.53
6345.00,0.53
6344.00,0.53
6343.00,0.53
6342.00,0.53
6341.00,0.53
6340.00,0.53
6339.00,0.53
6338.00,0.54
6337.00,0.54
6336.00,0.54
6335.00,0.54
6334.00,0.54
6333.00,0.54
6332.00,0.54
6331.00,0.54
6330.00,0.54
6329.00,0.54
6328.00,0.54
6327.00,0.54
6326.00,0.54
6325.00,0.54
6324.00,0.54
6323.00,0.54
6322.00,0.55
6321.00,0.55
6320.00,0.55
6319.00,0.55
6318.00,0.55
6317.00,0.55
6316.00,0.55
6315.00,0.55
6314.00,0.55
6313.00,0.55
6312.00,0.55
6311.00,0.55
6310.00,0.55
6309.00,0.55
6308.00,0.55
6307.00,0.55
6306.00,0.56
6305.00,0.56
6304.00,0.56
6303.00,0.56
6302.00,0.56
6301.00,0.56
6300.00,0.56
6299.00,0.56
6298.00,0.56
6297.00,0.56
6296.00,0.56
6295.00,0.56
6294.00,0.56
6293.00,0.56
6292.00,0.56
6291.00,0.57
6290.00,0.57
6289.00,0.57
6288.00,0.57
6287.00,0.57
6286.00,0.57
6285.00,0.57
6284.00,0.57
6283.00,0.57
6282.00,0.57
6281.00,0.57
6280.00,0.57
6279.00,0.57
6278.00,0.58
6277.00,0.58
6276.00,0.58
6275.00,0.58
6274.00,0.58
6273.00,0.58
6272.00,0.58
6271.00,0.58
6270.00,0.58
6269.00,0.58
6268.00,0.58
6267.00,0.58
6266.00,0.59
6265.00,0.59
6264.00,0.59
6263.00,0.59
6262.00,0.59
6261.00,0.59
6260.00,0.59
6259.00,0.59
6258.00,0.59
6257.00,0.60
6256.00,0.60
6255.00,0.60
6254.00,0.60
6253.00,0.60
6252.00,0.60
6251.00,0.60
6250.00,0.60
6249.00,0.60
6248.00,0.60
6247.00,0.60
6246.00,0.60
6245.00,0.60
6244.00,0.60
6243.00,0.60
6242.00,0.60
6241.00,0.60
6240.00,0.60
6239.00,0.60
6238.00,0.60
6237.00,0.60
6236.00,0.61
6235.00,0.61
6234.00,0.61
6233.00,0.61
6232.00,0.61
6231.00,0.61
6230.00,0.61
6229.00,0.61
6228.00,0.61
6227.00,0.61
6226.00,0.62
6225.00,0.62
6224.00,0.62
6223.00,0.62
6222.00,0.62
6221.00,0.62
6220.00,0.62
6219.00,0.62
6218.00,0.62
6217.00,0.63
6216.00,0.63
6215.00,0.63
6214.00,0.63
6213.00,0.63
6212.00,0.63
6211.00,0.63
6210.00,0.63
6209.00,0.63
6208.00,0.63
6207.00,0.63
6206.00,0.63
6205.00,0.63
6204.00,0.63
6203.00,0.63
6202.00,0.64
6201.00,0.64
6200.00,0.64
6199.00,0.64
6198.00,0.64
6197.00,0.64
6196.00,0.64
6195.00,0.64
6194.00,0.64
6193.00,0.64
6192.00,0.64
6191.00,0.64
6190.00,0.65
6189.00,0.65
6188.00,0.65
6187.00,0.65
6186.00,0.65
6185.00,0.65
6184.00,0.65
6183.00,0.65
6182.00,0.65
6181.00,0.65
6180.00,0.65
6179.00,0.65
6178.00,0.66
6177.00,0.66
6176.00,0.66
6175.00,0.66
6174.00,0.66
6173.00,0.66
6172.00,0.66
6171.00,0.66
6170.00,0.66
6169.00,0.66
6168.00,0.67
6167.00,0.67
6166.00,0.67
6165.00,0.67
6164.00,0.67
6163.00,0.67
6162.00,0.67
6161.00,0.67
6160.00,0.68
6159.00,0.68
6158.00,0.68
6157.00,0.68
6156.00,0.68
6155.00,0.68
6154.00,0.68
6153.00,0.68
6152.00,0.68
6151.00,0.68
6150.00,0.68
6149.00,0.69
6148.00,0.69
6147.00,0.69
6146.00,0.69
6145.00,0.69
6144.00,0.69
6143.00,0.69
6142.00,0.69
6141.00,0.69
6140.00,0.69
6139.00,0.69
6138.00,0.69
6137.00,0.69
6136.00,0.70
6135.00,0.70
6134.00,0.70
6133.00,0.70
6132.00,0.70
6131.00,0.70
6130.00,0.70
6129.00,0.70
6128.00,0.70
6127.00,0.70
6126.00,0.70
6125.00,0.70
6124.00,0.71
6123.00,0.71
6122.00,0.71
6121.00,0.71
6120.00,0.71
6119.00,0.71
6118.00,0.71
6117.00,0.71
6116.00,0.71
6115.00,0.71
6114.00,0.71
6113.00,0.71
6112.00,0.71
6111.00,0.72
6110.00,0.72
6109.00,0.72
6108.00,0.72
6107.00,0.72
6106.00,0.72
6105.00,0.72
6104.00,0.72
6103.00,0.72
6102.00,0.72
6101.00,0.72
6100.00,0.73
6099.00,0.73
6098.00,0.73
6097.00,0.73
6096.00,0.73
6095.00,0.73
6094.00,0.73
6093.00,0.73
6092.00,0.73
6091.00,0.73
6090.00,0.73
6089.00,0.74
6088.00,0.74
6087.00,0.74
6086.00,0.74
6085.00,0.74
6084.00,0.74
6083.00,0.74
6082.00,0.74
6081.00,0.74
6080.00,0.74
6079.00,0.74
6078.00,0.74
6077.00,0.74
6076.00,0.74
6075.00,0.74
6074.00,0.74
6073.00,0.74
6072.00,0.75
6071.00,0.75
6070.00,0.75
6069.00,0.75
6068.00,0.75
6067.00,0.75
6066.00,0.75
6065.00,0.75
6064.00,0.75
6063.00,0.75
6062.00,0.75
6061.00,0.75
6060.00,0.75
6059.00,0.75
6058.00,0.75
6057.00,0.75
6056.00,0.75
6055.00,0.76
6054.00,0.76
6053.00,0.76
6052.00,0.76
6051.00,0.76
6050.00,0.76
6049.00,0.76
6048.00,0.76
6047.00,0.76
6046.00,0.76
6045.00,0.76
6044.00,0.76
6043.00,0.76
6042.00,0.76
6041.00,0.76
6040.00,0.77
6039.00,0.77
6038.00,0.77
6037.00,0.77
6036.00,0.77
6035.00,0.77
6034.00,0.77
6033.00,0.77
6032.00,0.77
6031.00,0.77
6030.00,0.77
6029.00,0.77
6028.00,0.77
6027.00,0.77
6026.00,0.77
6025.00,0.77
6024.00,0.77
6023.00,0.77
6022.00,0.77
6021.00,0.77
6020.00,0.77
6019.00,0.77
6018.00,0.77
6017.00,0.77
6016.00,0.77
6015.00,0.77
6014.00,0.77
6013.00,0.78
6012.00,0.78
6011.00,0.78
6010.00,0.78
6009.00,0.78
6008.00,0.78
6007.00,0.78
6006.00,0.78
6005.00,0.78
6004.00,0.77
6003.00,0.77
6002.00,0.77
6001.00,0.77
6000.00,0.77
5999.00,0.77
5998.00,0.77
5997.00,0.77
5996.00,0.77
5995.00,0.77
5994.00,0.77
5993.00,0.77
5992.00,0.76
5991.00,0.76
5990.00,0.76
5989.00,0.76
5988.00,0.76
5987.00,0.76
5986.00,0.76
5985.00,0.76
5984.00,0.75
5983.00,0.75
5982.00,0.75
5981.00,0.75
5980.00,0.75
5979.00,0.75
5978.00,0.74
5977.00,0.74
5976.00,0.74
5975.00,0.74
5974.00,0.73
5973.00,0.73
5972.00,0.73
5971.00,0.73
5970.00,0.72
5969.00,0.72
5968.00,0.72
5967.00,0.71
5966.00,0.71
5965.00,0.71
5964.00,0.70
5963.00,0.70
5962.00,0.70
5961.00,0.69
5960.00,0.69
5959.00,0.69
5958.00,0.68
5957.00,0.68
5956.00,0.68
5955.00,0.67
5954.00,0.67
5953.00,0.67
5952.00,0.66
5951.00,0.66
5950.00,0.66
5949.00,0.66
5948.00,0.65
5947.00,0.65
5946.00,0.65
5945.00,0.65
5944.00,0.65
5943.00,0.64
5942.00,0.64
5941.00,0.64
5940.00,0.64
5939.00,0.64
5938.00,0.64
5937.00,0.64
5936.00,0.64
5935.00,0.64
5934.00,0.64
5933.00,0.64
5932.00,0.64
5931.00,0.64
5930.00,0.64
5929.00,0.63
5928.00,0.63
5927.00,0.63
5926.00,0.63
5925.00,0.63
5924.00,0.63
5923.00,0.63
5922.00,0.63
5921.00,0.62
5920.00,0.62
5919.00,0.62
5918.00,0.62
5917.00,0.62
5916.00,0.62
5915.00,0.62
5914.00,0.61
5913.00,0.61
5912.00,0.61
5911.00,0.61
5910.00,0.61
5909.00,0.61
5908.00,0.61
5907.00,0.61
5906.00,0.61
5905.00,0.61
5904.00,0.61
5903.00,0.61
5902.00,0.61
5901.00,0.61
5900.00,0.61
5899.00,0.61
5898.00,0.61
5897.00,0.61
5896.00,0.61
5895.00,0.62
5894.00,0.62
5893.00,0.62
5892.00,0.62
5891.00,0.62
5890.00,0.62
5889.00,0.62
5888.00,0.62
5887.00,0.63
5886.00,0.63
5885.00,0.63
5884.00,0.63
5883.00,0.63
5882.00,0.63
5881.00,0.64
5880.00,0.64
5879.00,0.64
5878.00,0.64
5877.00,0.64
5876.00,0.64
5875.00,0.65
5874.00,0.65
5873.00,0.65
5872.00,0.65
5871.00,0.65
5870.00,0.65
5869.00,0.65
5868.00,0.65
5867.00,0.66
5866.00,0.66
5865.00,0.66
5864.00,0.66
5863.00,0.66
5862.00,0.66
5861.00,0.66
5860.00,0.66
5859.00,0.66
5858.00,0.66
5857.00,0.66
5856.00,0.66
5855.00,0.66
5854.00,0.66
5853.00,0.66
5852.00,0.66
5851.00,0.66
5850.00,0.67
5849.00,0.67
5848.00,0.67
5847.00,0.67
5846.00,0.67
5845.00,0.67
5844.00,0.67
5843.00,0.67
5842.00,0.67
5841.00,0.67
5840.00,0.67
5839.00,0.67
5838.00,0.67
5837.00,0.67
5836.00,0.67
5835.00,0.67
5834.00,0.67
5833.00,0.67
5832.00,0.67
5831.00,0.67
5830.00,0.67
5829.00,0.67
5828.00,0.67
5827.00,0.67
5826.00,0.67
5825.00,0.67
5824.00,0.67
5823.00,0.67
5822.00,0.67
5821.00,0.67
5820.00,0.67
5819.00,0.67
5818.00,0.67
5817.00,0.67
5816.00,0.67
5815.00,0.67
5814.00,0.67
5813.00,0.67
5812.00,0.67
5811.00,0.67
5810.00,0.67
5809.00,0.67
5808.00,0.67
5807.00,0.67
5806.00,0.67
5805.00,0.67
5804.00,0.67
5803.00,0.67
5802.00,0.67
5801.00,0.67
5800.00,0.67
5799.00,0.66
5798.00,0.66
5797.00,0.66
5796.00,0.66
5795.00,0.66
5794.00,0.66
5793.00,0.66
5792.00,0.66
5791.00,0.66
5790.00,0.65
5789.00,0.65
5788.00,0.65
5787.00,0.65
5786.00,0.65
5785.00,0.65
5784.00,0.64
5783.00,0.64
5782.00,0.64
5781.00,0.64
5780.00,0.64
5779.00,0.64
5778.00,0.64
5777.00,0.64
5776.00,0.64
5775.00,0.64
5774.00,0.64
5773.00,0.64
5772.00,0.64
5771.00,0.64
5770.00,0.64
5769.00,0.64
5768.00,0.64
5767.00,0.64
5766.00,0.64
5765.00,0.64
5764.00,0.64
5763.00,0.65
5762.00,0.65
5761.00,0.65
5760.00,0.65
5759.00,0.65
5758.00,0.65
5757.00,0.66
5756.00,0.66
5755.00,0.66
5754.00,0.66
5753.00,0.66
5752.00,0.66
5751.00,0.67
5750.00,0.67
5749.00,0.67
5748.00,0.67
5747.00,0.67
5746.00,0.67
5745.00,0.67
5744.00,0.68
5743.00,0.68
5742.00,0.68
5741.00,0.68
5740.00,0.68
5739.00,0.68
5738.00,0.68
5737.00,0.68
5736.00,0.68
5735.00,0.68
5734.00,0.69
5733.00,0.69
5732.00,0.69
5731.00,0.69
5730.00,0.69
5729.00,0.69
5728.00,0.69
5727.00,0.69
5726.00,0.69
5725.00,0.69
5724.00,0.69
5723.00,0.69
5722.00,0.69
5721.00,0.69
5720.00,0.69
5719.00,0.69
5718.00,0.69
5717.00,0.69
5716.00,0.69
5715.00,0.69
5714.00,0.69
5713.00,0.69
5712.00,0.69
5711.00,0.69
5710.00,0.69
5709.00,0.69
5708.00,0.69
5707.00,0.69
5706.00,0.69
5705.00,0.69
5704.00,0.69
5703.00,0.69
5702.00,0.69
5701.00,0.68
5700.00,0.68
5699.00,0.68
5698.00,0.68
5697.00,0.68
5696.00,0.68
5695.00,0.68
5694.00,0.68
5693.00,0.68
5692.00,0.68
5691.00,0.68
5690.00,0.67
5689.00,0.67
5688.00,0.67
5687.00,0.67
5686.00,0.67
5685.00,0.67
5684.00,0.67
5683.00,0.67
5682.00,0.67
5681.00,0.67
5680.00,0.67
5679.00,0.67
5678.00,0.67
5677.00,0.67
5676.00,0.67
5675.00,0.67
5674.00,0.67
5673.00,0.67
5672.00,0.67
5671.00,0.67
5670.00,0.67
5669.00,0.67
5668.00,0.67
5667.00,0.67
5666.00,0.67
5665.00,0.67
5664.00,0.67
5663.00,0.67
5662.00,0.67
5661.00,0.67
5660.00,0.67
5659.00,0.67
5658.00,0.67
5657.00,0.67
5656.00,0.67
5655.00,0.67
5654.00,0.67
5653.00,0.68
5652.00,0.68
5651.00,0.68
5650.00,0.68
5649.00,0.68
5648.00,0.68
5647.00,0.68
5646.00,0.68
5645.00,0.68
5644.00,0.68
5643.00,0.68
5642.00,0.68
5641.00,0.69
5640.00,0.69
5639.00,0.69
5638.00,0.69
5637.00,0.69
5636.00,0.69
5635.00,0.69
5634.00,0.69
5633.00,0.69
5632.00,0.69
5631.00,0.69
5630.00,0.69
5629.00,0.69
5628.00,0.69
5627.00,0.69
5626.00,0.70
5625.00,0.70
5624.00,0.70
5623.00,0.70
5622.00,0.70
5621.00,0.70
5620.00,0.70
5619.00,0.70
5618.00,0.70
5617.00,0.70
5616.00,0.70
5615.00,0.70
5614.00,0.70
5613.00,0.71
5612.00,0.71
5611.00,0.71
5610.00,0.71
5609.00,0.71
5608.00,0.71
5607.00,0.71
5606.00,0.71
5605.00,0.71
5604.00,0.71
5603.00,0.71
5602.00,0.71
5601.00,0.72
5600.00,0.72
5599.00,0.72
5598.00,0.72
5597.00,0.72
5596.00,0.72
5595.00,0.72
5594.00,0.72
5593.00,0.72
5592.00,0.72
5591.00,0.72
5590.00,0.73
5589.00,0.73
5588.00,0.73
5587.00,0.73
5586.00,0.73
5585.00,0.73
5584.00,0.73
5583.00,0.73
5582.00,0.73
5581.00,0.73
5580.00,0.73
5579.00,0.73
5578.00,0.73
5577.00,0.73
5576.00,0.74
5575.00,0.74
5574.00,0.74
5573.00,0.74
5572.00,0.74
5571.00,0.74
5570.00,0.74
5569.00,0.74
5568.00,0.74
5567.00,0.75
5566.00,0.75
5565.00,0.75
5564.00,0.75
5563.00,0.75
5562.00,0.75
5561.00,0.75
5560.00,0.75
5559.00,0.75
5558.00,0.75
5557.00,0.75
5556.00,0.75
5555.00,0.76
5554.00,0.76
5553.00,0.76
5552.00,0.76
5551.00,0.76
5550.00,0.76
5549.00,0.76
5548.00,0.76
5547.00,0.76
5546.00,0.76
5545.00,0.76
5544.00,0.76
5543.00,0.76
5542.00,0.76
5541.00,0.76
5540.00,0.76
5539.00,0.76
5538.00,0.76
5537.00,0.76
5536.00,0.76
5535.00,0.77
5534.00,0.77
5533.00,0.77
5532.00,0.77
5531.00,0.77
5530.00,0.77
5529.00,0.77
5528.00,0.77
5527.00,0.77
5526.00,0.77
5525.00,0.77
5524.00,0.77
5523.00,0.77
5522.00,0.78
5521.00,0.78
5520.00,0.78
5519.00,0.78
5518.00,0.78
5517.00,0.78
5516.00,0.78
5515.00,0.78
5514.00,0.78
5513.00,0.78
5512.00,0.78
5511.00,0.78
5510.00,0.78
5509.00,0.78
5508.00,0.78
5507.00,0.78
5506.00,0.78
5505.00,0.78
5504.00,0.78
5503.00,0.78
5502.00,0.78
5501.00,0.78
5500.00,0.78
5499.00,0.78
5498.00,0.78
5497.00,0.78
5496.00,0.78
5495.00,0.78
5494.00,0.78
5493.00,0.79
5492.00,0.79
5491.00,0.79
5490.00,0.79
5489.00,0.79
5488.00,0.79
5487.00,0.79
5486.00,0.79
5485.00,0.79
5484.00,0.79
5483.00,0.79
5482.00,0.79
5481.00,0.79
5480.00,0.79
5479.00,0.79
5478.00,0.80
5477.00,0.80
5476.00,0.80
5475.00,0.80
5474.00,0.80
5473.00,0.80
5472.00,0.80
5471.00,0.80
5470.00,0.80
5469.00,0.80
5468.00,0.80
5467.00,0.80
5466.00,0.80
5465.00,0.80
5464.00,0.80
5463.00,0.80
5462.00,0.81
5461.00,0.81
5460.00,0.81
5459.00,0.81
5458.00,0.81
5457.00,0.81
5456.00,0.81
5455.00,0.81
5454.00,0.81
5453.00,0.81
5452.00,0.81
5451.00,0.81
5450.00,0.81
5449.00,0.81
5448.00,0.81
5447.00,0.81
5446.00,0.81
5445.00,0.81
5444.00,0.81
5443.00,0.81
5442.00,0.81
5441.00,0.81
5440.00,0.81
5439.00,0.81
5438.00,0.81
5437.00,0.81
5436.00,0.81
5435.00,0.81
5434.00,0.81
5433.00,0.81
5432.00,0.81
5431.00,0.81
5430.00,0.81
5429.00,0.81
5428.00,0.81
5427.00,0.81
5426.00,0.81
5425.00,0.81
5424.00,0.81
5423.00,0.81
5422.00,0.81
5421.00,0.81
5420.00,0.81
5419.00,0.81
5418.00,0.81
5417.00,0.81
5416.00,0.81
5415.00,0.81
5414.00,0.81
5413.00,0.81
5412.00,0.81
5411.00,0.80
5410.00,0.80
5409.00,0.80
5408.00,0.80
5407.00,0.80
5406.00,0.80
5405.00,0.80
5404.00,0.80
5403.00,0.80
5402.00,0.80
5401.00,0.80
5400.00,0.80
5399.00,0.80
5398.00,0.79
5397.00,0.79
5396.00,0.79
5395.00,0.79
5394.00,0.79
5393.00,0.79
5392.00,0.79
5391.00,0.79
5390.00,0.78
5389.00,0.78
5388.00,0.78
5387.00,0.78
5386.00,0.78
5385.00,0.77
5384.00,0.77
5383.00,0.77
5382.00,0.77
5381.00,0.76
5380.00,0.76
5379.00,0.76
5378.00,0.76
5377.00,0.75
5376.00,0.75
5375.00,0.75
5374.00,0.75
5373.00,0.74
5372.00,0.74
5371.00,0.74
5370.00,0.73
5369.00,0.73
5368.00,0.73
5367.00,0.72
5366.00,0.72
5365.00,0.71
5364.00,0.71
5363.00,0.71
5362.00,0.70
5361.00,0.70
5360.00,0.69
5359.00,0.69
5358.00,0.69
5357.00,0.68
5356.00,0.68
5355.00,0.67
5354.00,0.67
5353.00,0.66
5352.00,0.66
5351.00,0.65
5350.00,0.65
5349.00,0.64
5348.00,0.64
5347.00,0.63
5346.00,0.63
5345.00,0.62
5344.00,0.62
5343.00,0.61
5342.00,0.61
5341.00,0.60
5340.00,0.59
5339.00,0.59
5338.00,0.58
5337.00,0.58
5336.00,0.57
5335.00,0.57
5334.00,0.56
5333.00,0.56
5332.00,0.55
5331.00,0.55
5330.00,0.54
5329.00,0.54
5328.00,0.53
5327.00,0.53
5326.00,0.53
5325.00,0.52
5324.00,0.52
5323.00,0.51
5322.00,0.51
5321.00,0.51
5320.00,0.50
5319.00,0.50
5318.00,0.50
5317.00,0.49
5316.00,0.49
5315.00,0.49
5314.00,0.48
5313.00,0.48
5312.00,0.48
5311.00,0.48
5310.00,0.47
5309.00,0.47
5308.00,0.47
5307.00,0.47
5306.00,0.46
5305.00,0.46
5304.00,0.46
5303.00,0.46
5302.00,0.46
5301.00,0.46
5300.00,0.46
5299.00,0.45
5298.00,0.45
5297.00,0.45
5296.00,0.45
5295.00,0.45
5294.00,0.45
5293.00,0.45
5292.00,0.45
5291.00,0.45
5290.00,0.45
5289.00,0.45
5288.00,0.45
5287.00,0.45
5286.00,0.44
5285.00,0.44
5284.00,0.44
5283.00,0.44
5282.00,0.44
5281.00,0.44
5280.00,0.44
5279.00,0.44
5278.00,0.44
5277.00,0.44
5276.00,0.44
5275.00,0.44
5274.00,0.44
5273.00,0.44
5272.00,0.44
5271.00,0.44
5270.00,0.44
5269.00,0.44
5268.00,0.44
5267.00,0.44
5266.00,0.44
5265.00,0.44
5264.00,0.44
5263.00,0.44
5262.00,0.44
5261.00,0.44
5260.00,0.44
5259.00,0.44
5258.00,0.44
5257.00,0.44
5256.00,0.44
5255.00,0.44
5254.00,0.44
5253.00,0.44
5252.00,0.44
5251.00,0.44
5250.00,0.44
5249.00,0.44
5248.00,0.44
5247.00,0.44
5246.00,0.44
5245.00,0.44
5244.00,0.44
5243.00,0.44
5242.00,0.44
5241.00,0.44
5240.00,0.44
5239.00,0.45
5238.00,0.45
5237.00,0.45
5236.00,0.45
5235.00,0.45
5234.00,0.45
5233.00,0.45
5232.00,0.45
5231.00,0.45
5230.00,0.45
5229.00,0.45
5228.00,0.45
5227.00,0.45
5226.00,0.45
5225.00,0.45
5224.00,0.45
5223.00,0.45
5222.00,0.45
5221.00,0.45
5220.00,0.45
5219.00,0.45
5218.00,0.45
5217.00,0.45
5216.00,0.45
5215.00,0.45
5214.00,0.45
5213.00,0.45
5212.00,0.45
5211.00,0.45
5210.00,0.45
5209.00,0.45
5208.00,0.45
5207.00,0.45
5206.00,0.45
5205.00,0.45
5204.00,0.45
5203.00,0.45
5202.00,0.45
5201.00,0.45
5200.00,0.45
5199.00,0.45
5198.00,0.45
5197.00,0.45
5196.00,0.45
5195.00,0.45
5194.00,0.46
5193.00,0.46
5192.00,0.46
5191.00,0.46
5190.00,0.46
5189.00,0.46
5188.00,0.46
5187.00,0.46
5186.00,0.46
5185.00,0.46
5184.00,0.46
5183.00,0.46
5182.00,0.46
5181.00,0.46
5180.00,0.46
5179.00,0.46
5178.00,0.46
5177.00,0.46
5176.00,0.46
5175.00,0.46
5174.00,0.46
5173.00,0.46
5172.00,0.46
5171.00,0.46
5170.00,0.46
5169.00,0.46
5168.00,0.46
5167.00,0.46
5166.00,0.46
5165.00,0.46
5164.00,0.46
5163.00,0.46
5162.00,0.46
5161.00,0.46
5160.00,0.46
5159.00,0.46
5158.00,0.46
5157.00,0.46
5156.00,0.46
5155.00,0.46
5154.00,0.46
5153.00,0.46
5152.00,0.46
5151.00,0.46
5150.00,0.46
5149.00,0.46
5148.00,0.46
5147.00,0.47
5146.00,0.47
5145.00,0.47
5144.00,0.47
5143.00,0.47
5142.00,0.47
5141.00,0.47
5140.00,0.47
5139.00,0.47
5138.00,0.47
5137.00,0.47
5136.00,0.47
5135.00,0.47
5134.00,0.47
5133.00,0.47
5132.00,0.47
5131.00,0.47
5130.00,0.47
5129.00,0.47
5128.00,0.47
5127.00,0.47
5126.00,0.47
5125.00,0.47
5124.00,0.47
5123.00,0.47
5122.00,0.47
5121.00,0.47
5120.00,0.47
5119.00,0.47
5118.00,0.47
5117.00,0.47
5116.00,0.47
5115.00,0.47
5114.00,0.47
5113.00,0.47
5112.00,0.47
5111.00,0.47
5110.00,0.47
5109.00,0.47
5108.00,0.47
5107.00,0.47
5106.00,0.47
5105.00,0.47
5104.00,0.48
5103.00,0.48
5102.00,0.48
5101.00,0.48
5100.00,0.48
5099.00,0.48
5098.00,0.48
5097.00,0.48
5096.00,0.48
5095.00,0.48
5094.00,0.48
5093.00,0.48
5092.00,0.48
5091.00,0.48
5090.00,0.48
5089.00,0.48
5088.00,0.48
5087.00,0.48
5086.00,0.48
5085.00,0.48
5084.00,0.48
5083.00,0.48
5082.00,0.48
5081.00,0.48
5080.00,0.48
5079.00,0.48
5078.00,0.48
5077.00,0.48
5076.00,0.48
5075.00,0.48
5074.00,0.48
5073.00,0.48
5072.00,0.48
5071.00,0.49
5070.00,0.49
5069.00,0.49
5068.00,0.49
5067.00,0.49
5066.00,0.49
5065.00,0.49
5064.00,0.49
5063.00,0.49
5062.00,0.49
5061.00,0.49
5060.00,0.49
5059.00,0.49
5058.00,0.49
5057.00,0.49
5056.00,0.49
5055.00,0.49
5054.00,0.50
5053.00,0.50
5052.00,0.50
5051.00,0.50
5050.00,0.50
5049.00,0.50
5048.00,0.50
5047.00,0.50
5046.00,0.50
5045.00,0.50
5044.00,0.50
5043.00,0.50
5042.00,0.50
5041.00,0.50
5040.00,0.50
5039.00,0.50
5038.00,0.50
5037.00,0.50
5036.00,0.50
5035.00,0.50
5034.00,0.50
5033.00,0.50
5032.00,0.50
5031.00,0.50
5030.00,0.50
5029.00,0.50
5028.00,0.50
5027.00,0.50
5026.00,0.50
5025.00,0.50
5024.00,0.50
5023.00,0.50
5022.00,0.50
5021.00,0.50
5020.00,0.50
5019.00,0.50
5018.00,0.50
5017.00,0.50
5016.00,0.50
5015.00,0.50
5014.00,0.50
5013.00,0.50
5012.00,0.50
5011.00,0.50
5010.00,0.50
5009.00,0.50
5008.00,0.50
5007.00,0.50
5006.00,0.50
5005.00,0.50
5004.00,0.50
5003.00,0.50
5002.00,0.50
5001.00,0.50
5000.00,0.50
4999.00,0.51
4998.00,0.51
4997.00,0.51
4996.00,0.51
4995.00,0.51
4994.00,0.51
4993.00,0.51
4992.00,0.51
4991.00,0.51
4990.00,0.51
4989.00,0.51
4988.00,0.51
4987.00,0.51
4986.00,0.51
4985.00,0.51
4984.00,0.51
4983.00,0.51
4982.00,0.51
4981.00,0.51
4980.00,0.51
4979.00,0.51
4978.00,0.51
4977.00,0.51
4976.00,0.51
4975.00,0.52
4974.00,0.52
4973.00,0.52
4972.00,0.52
4971.00,0.52
4970.00,0.52
4969.00,0.52
4968.00,0.52
4967.00,0.52
4966.00,0.52
4965.00,0.52
4964.00,0.52
4963.00,0.52
4962.00,0.52
4961.00,0.52
4960.00,0.52
4959.00,0.52
4958.00,0.52
4957.00,0.52
4956.00,0.52
4955.00,0.52
4954.00,0.52
4953.00,0.52
4952.00,0.52
4951.00,0.52
4950.00,0.52
4949.00,0.52
4948.00,0.52
4947.00,0.52
4946.00,0.52
4945.00,0.53
4944.00,0.53
4943.00,0.53
4942.00,0.53
4941.00,0.53
4940.00,0.53
4939.00,0.53
4938.00,0.53
4937.00,0.53
4936.00,0.53
4935.00,0.53
4934.00,0.53
4933.00,0.53
4932.00,0.53
4931.00,0.53
4930.00,0.53
4929.00,0.53
4928.00,0.53
4927.00,0.53
4926.00,0.53
4925.00,0.53
4924.00,0.53
4923.00,0.53
4922.00,0.53
4921.00,0.53
4920.00,0.53
4919.00,0.53
4918.00,0.53
4917.00,0.53
4916.00,0.53
4915.00,0.54
4914.00,0.54
4913.00,0.54
4912.00,0.54
4911.00,0.54
4910.00,0.54
4909.00,0.54
4908.00,0.54
4907.00,0.54
4906.00,0.54
4905.00,0.54
4904.00,0.54
4903.00,0.54
4902.00,0.54
4901.00,0.54
4900.00,0.54
4899.00,0.54
4898.00,0.54
4897.00,0.55
4896.00,0.55
4895.00,0.55
4894.00,0.55
4893.00,0.55
4892.00,0.55
4891.00,0.55
4890.00,0.55
4889.00,0.55
4888.00,0.55
4887.00,0.55
4886.00,0.55
4885.00,0.55
4884.00,0.55
4883.00,0.55
4882.00,0.55
4881.00,0.55
4880.00,0.55
4879.00,0.55
4878.00,0.55
4877.00,0.55
4876.00,0.55
4875.00,0.55
4874.00,0.55
4873.00,0.55
4872.00,0.55
4871.00,0.55
4870.00,0.55
4869.00,0.55
4868.00,0.55
4867.00,0.55
4866.00,0.55
4865.00,0.55
4864.00,0.55
4863.00,0.55
4862.00,0.55
4861.00,0.55
4860.00,0.55
4859.00,0.55
4858.00,0.56
4857.00,0.56
4856.00,0.56
4855.00,0.56
4854.00,0.56
4853.00,0.56
4852.00,0.56
4851.00,0.56
4850.00,0.56
4849.00,0.56
4848.00,0.56
4847.00,0.56
4846.00,0.56
4845.00,0.56
4844.00,0.56
4843.00,0.56
4842.00,0.56
4841.00,0.56
4840.00,0.56
4839.00,0.56
4838.00,0.56
4837.00,0.56
4836.00,0.56
4835.00,0.56
4834.00,0.56
4833.00,0.56
4832.00,0.56
4831.00,0.56
4830.00,0.56
4829.00,0.56
4828.00,0.56
4827.00,0.56
4826.00,0.56
4825.00,0.56
4824.00,0.56
4823.00,0.56
4822.00,0.56
4821.00,0.56
4820.00,0.56
4819.00,0.56
4818.00,0.56
4817.00,0.56
4816.00,0.57
4815.00,0.57
4814.00,0.57
4813.00,0.57
4812.00,0.57
4811.00,0.57
4810.00,0.57
4809.00,0.57
4808.00,0.57
4807.00,0.57
4806.00,0.57
4805.00,0.57
4804.00,0.58
4803.00,0.58
4802.00,0.58
4801.00,0.58
4800.00,0.58
4799.00,0.58
4798.00,0.58
4797.00,0.58
4796.00,0.58
4795.00,0.58
4794.00,0.58
4793.00,0.58
4792.00,0.58
4791.00,0.58
4790.00,0.58
4789.00,0.58
4788.00,0.58
4787.00,0.58
4786.00,0.58
4785.00,0.58
4784.00,0.58
4783.00,0.58
4782.00,0.58
4781.00,0.58
4780.00,0.58
4779.00,0.59
4778.00,0.59
4777.00,0.59
4776.00,0.59
4775.00,0.59
4774.00,0.59
4773.00,0.59
4772.00,0.59
4771.00,0.59
4770.00,0.59
4769.00,0.59
4768.00,0.59
4767.00,0.59
4766.00,0.59
4765.00,0.59
4764.00,0.59
4763.00,0.59
4762.00,0.59
4761.00,0.59
4760.00,0.59
4759.00,0.59
4758.00,0.59
4757.00,0.59
4756.00,0.60
4755.00,0.60
4754.00,0.60
4753.00,0.60
4752.00,0.60
4751.00,0.60
4750.00,0.60
4749.00,0.60
4748.00,0.60
4747.00,0.60
4746.00,0.60
4745.00,0.60
4744.00,0.60
4743.00,0.60
4742.00,0.60
4741.00,0.60
4740.00,0.60
4739.00,0.60
4738.00,0.61
4737.00,0.61
4736.00,0.61
4735.00,0.61
4734.00,0.61
4733.00,0.61
4732.00,0.61
4731.00,0.61
4730.00,0.61
4729.00,0.61
4728.00,0.61
4727.00,0.61
4726.00,0.61
4725.00,0.62
4724.00,0.62
4723.00,0.62
4722.00,0.62
4721.00,0.62
4720.00,0.62
4719.00,0.62
4718.00,0.62
4717.00,0.62
4716.00,0.62
4715.00,0.62
4714.00,0.62
4713.00,0.62
4712.00,0.62
4711.00,0.62
4710.00,0.62
4709.00,0.62
4708.00,0.62
4707.00,0.63
4706.00,0.63
4705.00,0.63
4704.00,0.63
4703.00,0.63
4702.00,0.63
4701.00,0.63
4700.00,0.63
4699.00,0.64
4698.00,0.64
4697.00,0.64
4696.00,0.64
4695.00,0.64
4694.00,0.64
4693.00,0.64
4692.00,0.64
4691.00,0.64
4690.00,0.64
4689.00,0.64
4688.00,0.64
4687.00,0.64
4686.00,0.64
4685.00,0.64
4684.00,0.64
4683.00,0.64
4682.00,0.64
4681.00,0.64
4680.00,0.64
4679.00,0.64
4678.00,0.64
4677.00,0.64
4676.00,0.64
4675.00,0.64
4674.00,0.64
4673.00,0.65
4672.00,0.65
4671.00,0.65
4670.00,0.65
4669.00,0.65
4668.00,0.65
4667.00,0.65
4666.00,0.65
4665.00,0.65
4664.00,0.65
4663.00,0.65
4662.00,0.65
4661.00,0.65
4660.00,0.65
4659.00,0.66
4658.00,0.66
4657.00,0.66
4656.00,0.66
4655.00,0.66
4654.00,0.66
4653.00,0.66
4652.00,0.66
4651.00,0.66
4650.00,0.66
4649.00,0.66
4648.00,0.66
4647.00,0.66
4646.00,0.66
4645.00,0.66
4644.00,0.66
4643.00,0.66
4642.00,0.66
4641.00,0.66
4640.00,0.66
4639.00,0.66
4638.00,0.66
4637.00,0.66
4636.00,0.66
4635.00,0.66
4634.00,0.66
4633.00,0.66
4632.00,0.66
4631.00,0.66
4630.00,0.66
4629.00,0.66
4628.00,0.66
4627.00,0.66
4626.00,0.66
4625.00,0.66
4624.00,0.66
4623.00,0.66
4622.00,0.66
4621.00,0.66
4620.00,0.67
4619.00,0.67
4618.00,0.67
4617.00,0.67
4616.00,0.67
4615.00,0.67
4614.00,0.67
4613.00,0.67
4612.00,0.67
4611.00,0.67
4610.00,0.67
4609.00,0.68
4608.00,0.68
4607.00,0.68
4606.00,0.68
4605.00,0.68
4604.00,0.68
4603.00,0.68
4602.00,0.68
4601.00,0.68
4600.00,0.68
4599.00,0.68
4598.00,0.68
4597.00,0.68
4596.00,0.68
4595.00,0.68
4594.00,0.69
4593.00,0.69
4592.00,0.69
4591.00,0.69
4590.00,0.69
4589.00,0.69
4588.00,0.69
4587.00,0.69
4586.00,0.69
4585.00,0.69
4584.00,0.69
4583.00,0.69
4582.00,0.69
4581.00,0.69
4580.00,0.69
4579.00,0.69
4578.00,0.69
4577.00,0.69
4576.00,0.69
4575.00,0.69
4574.00,0.69
4573.00,0.69
4572.00,0.69
4571.00,0.69
4570.00,0.69
4569.00,0.69
4568.00,0.69
4567.00,0.69
4566.00,0.69
4565.00,0.70
4564.00,0.70
4563.00,0.70
4562.00,0.70
4561.00,0.70
4560.00,0.70
4559.00,0.70
4558.00,0.70
4557.00,0.70
4556.00,0.70
4555.00,0.70
4554.00,0.70
4553.00,0.70
4552.00,0.70
4551.00,0.70
4550.00,0.70
4549.00,0.70
4548.00,0.70
4547.00,0.70
4546.00,0.70
4545.00,0.70
4544.00,0.71
4543.00,0.71
4542.00,0.71
4541.00,0.71
4540.00,0.71
4539.00,0.71
4538.00,0.71
4537.00,0.71
4536.00,0.71
4535.00,0.71
4534.00,0.71
4533.00,0.71
4532.00,0.71
4531.00,0.71
4530.00,0.71
4529.00,0.71
4528.00,0.71
4527.00,0.71
4526.00,0.71
4525.00,0.71
4524.00,0.71
4523.00,0.71
4522.00,0.71
4521.00,0.71
4520.00,0.71
4519.00,0.71
4518.00,0.71
4517.00,0.71
4516.00,0.71
4515.00,0.72
4514.00,0.72
4513.00,0.72
4512.00,0.72
4511.00,0.72
4510.00,0.72
4509.00,0.72
4508.00,0.71
4507.00,0.71
4506.00,0.71
4505.00,0.71
4504.00,0.71
4503.00,0.71
4502.00,0.71
4501.00,0.71
4500.00,0.71
4499.00,0.71
4498.00,0.71
4497.00,0.71
4496.00,0.71
4495.00,0.71
4494.00,0.71
4493.00,0.71
4492.00,0.71
4491.00,0.71
4490.00,0.71
4489.00,0.71
4488.00,0.71
4487.00,0.71
4486.00,0.71
4485.00,0.71
4484.00,0.71
4483.00,0.71
4482.00,0.71
4481.00,0.71
4480.00,0.71
4479.00,0.71
4478.00,0.71
4477.00,0.71
4476.00,0.71
4475.00,0.71
4474.00,0.71
4473.00,0.71
4472.00,0.71
4471.00,0.71
4470.00,0.70
4469.00,0.70
4468.00,0.70
4467.00,0.70
4466.00,0.70
4465.00,0.70
4464.00,0.70
4463.00,0.70
4462.00,0.69
4461.00,0.69
4460.00,0.69
4459.00,0.69
4458.00,0.69
4457.00,0.69
4456.00,0.69
4455.00,0.69
4454.00,0.68
4453.00,0.68
4452.00,0.68
4451.00,0.68
4450.00,0.68
4449.00,0.68
4448.00,0.68
4447.00,0.68
4446.00,0.68
4445.00,0.68
4444.00,0.68
4443.00,0.68
4442.00,0.68
4441.00,0.67
4440.00,0.67
4439.00,0.67
4438.00,0.67
4437.00,0.67
4436.00,0.67
4435.00,0.67
4434.00,0.67
4433.00,0.67
4432.00,0.67
4431.00,0.66
4430.00,0.66
4429.00,0.66
4428.00,0.66
4427.00,0.66
4426.00,0.66
4425.00,0.66
4424.00,0.66
4423.00,0.66
4422.00,0.66
4421.00,0.66
4420.00,0.66
4419.00,0.66
4418.00,0.66
4417.00,0.66
4416.00,0.66
4415.00,0.66
4414.00,0.66
4413.00,0.66
4412.00,0.66
4411.00,0.66
4410.00,0.66
4409.00,0.66
4408.00,0.66
4407.00,0.66
4406.00,0.66
4405.00,0.66
4404.00,0.66
4403.00,0.66
4402.00,0.67
4401.00,0.67
4400.00,0.67
4399.00,0.67
4398.00,0.67
4397.00,0.67
4396.00,0.67
4395.00,0.67
4394.00,0.67
4393.00,0.67
4392.00,0.67
4391.00,0.67
4390.00,0.67
4389.00,0.67
4388.00,0.68
4387.00,0.68
4386.00,0.68
4385.00,0.68
4384.00,0.68
4383.00,0.68
4382.00,0.68
4381.00,0.68
4380.00,0.68
4379.00,0.68
4378.00,0.68
4377.00,0.68
4376.00,0.68
4375.00,0.68
4374.00,0.68
4373.00,0.68
4372.00,0.68
4371.00,0.68
4370.00,0.68
4369.00,0.68
4368.00,0.68
4367.00,0.68
4366.00,0.68
4365.00,0.68
4364.00,0.68
4363.00,0.68
4362.00,0.68
4361.00,0.68
4360.00,0.68
4359.00,0.68
4358.00,0.68
4357.00,0.68
4356.00,0.68
4355.00,0.68
4354.00,0.68
4353.00,0.68
4352.00,0.68
4351.00,0.68
4350.00,0.68
4349.00,0.68
4348.00,0.69
4347.00,0.69
4346.00,0.69
4345.00,0.69
4344.00,0.69
4343.00,0.69
4342.00,0.69
4341.00,0.69
4340.00,0.69
4339.00,0.69
4338.00,0.69
4337.00,0.69
4336.00,0.69
4335.00,0.69
4334.00,0.69
4333.00,0.69
4332.00,0.69
4331.00,0.69
4330.00,0.69
4329.00,0.69
4328.00,0.69
4327.00,0.69
4326.00,0.69
4325.00,0.69
4324.00,0.69
4323.00,0.69
4322.00,0.69
4321.00,0.69
4320.00,0.69
4319.00,0.69
4318.00,0.69
4317.00,0.69
4316.00,0.69
4315.00,0.69
4314.00,0.70
4313.00,0.70
4312.00,0.70
4311.00,0.70
4310.00,0.70
4309.00,0.70
4308.00,0.70
4307.00,0.70
4306.00,0.70
4305.00,0.70
4304.00,0.70
4303.00,0.70
4302.00,0.70
4301.00,0.70
4300.00,0.70
4299.00,0.70
4298.00,0.70
4297.00,0.70
4296.00,0.71
4295.00,0.71
4294.00,0.71
4293.00,0.71
4292.00,0.71
4291.00,0.71
4290.00,0.71
4289.00,0.71
4288.00,0.71
4287.00,0.71
4286.00,0.71
4285.00,0.71
4284.00,0.71
4283.00,0.71
4282.00,0.71
4281.00,0.71
4280.00,0.71
4279.00,0.71
4278.00,0.71
4277.00,0.71
4276.00,0.71
4275.00,0.71
4274.00,0.71
4273.00,0.72
4272.00,0.72
4271.00,0.72
4270.00,0.72
4269.00,0.72
4268.00,0.72
4267.00,0.72
4266.00,0.72
4265.00,0.72
4264.00,0.72
4263.00,0.72
4262.00,0.72
4261.00,0.73
4260.00,0.73
4259.00,0.73
4258.00,0.73
4257.00,0.73
4256.00,0.73
4255.00,0.73
4254.00,0.73
4253.00,0.73
4252.00,0.73
4251.00,0.73
4250.00,0.73
4249.00,0.73
4248.00,0.73
4247.00,0.73
4246.00,0.73
4245.00,0.73
4244.00,0.73
4243.00,0.73
4242.00,0.73
4241.00,0.73
4240.00,0.72
4239.00,0.72
4238.00,0.72
4237.00,0.72
4236.00,0.72
4235.00,0.72
4234.00,0.72
4233.00,0.72
4232.00,0.72
4231.00,0.73
4230.00,0.73
4229.00,0.73
4228.00,0.73
4227.00,0.73
4226.00,0.73
4225.00,0.73
4224.00,0.73
4223.00,0.73
4222.00,0.73
4221.00,0.73
4220.00,0.73
4219.00,0.73
4218.00,0.73
4217.00,0.73
4216.00,0.73
4215.00,0.73
4214.00,0.73
4213.00,0.74
4212.00,0.74
4211.00,0.74
4210.00,0.74
4209.00,0.74
4208.00,0.74
4207.00,0.74
4206.00,0.74
4205.00,0.74
4204.00,0.74
4203.00,0.74
4202.00,0.74
4201.00,0.74
4200.00,0.74
4199.00,0.74
4198.00,0.74
4197.00,0.74
4196.00,0.74
4195.00,0.74
4194.00,0.74
4193.00,0.74
4192.00,0.74
4191.00,0.74
4190.00,0.74
4189.00,0.74
4188.00,0.74
4187.00,0.74
4186.00,0.74
4185.00,0.74
4184.00,0.74
4183.00,0.74
4182.00,0.74
4181.00,0.74
4180.00,0.74
4179.00,0.74
4178.00,0.74
4177.00,0.74
4176.00,0.74
4175.00,0.74
4174.00,0.74
4173.00,0.74
4172.00,0.74
4171.00,0.74
4170.00,0.74
4169.00,0.74
4168.00,0.74
4167.00,0.74
4166.00,0.74
4165.00,0.74
4164.00,0.74
4163.00,0.74
4162.00,0.74
4161.00,0.74
4160.00,0.74
4159.00,0.74
4158.00,0.74
4157.00,0.74
4156.00,0.74
4155.00,0.74
4154.00,0.74
4153.00,0.74
4152.00,0.74
4151.00,0.74
4150.00,0.74
4149.00,0.74
4148.00,0.74
4147.00,0.74
4146.00,0.74
4145.00,0.74
4144.00,0.75
4143.00,0.75
4142.00,0.75
4141.00,0.75
4140.00,0.75
4139.00,0.75
4138.00,0.75
4137.00,0.75
4136.00,0.75
4135.00,0.75
4134.00,0.75
4133.00,0.75
4132.00,0.76
4131.00,0.76
4130.00,0.76
4129.00,0.76
4128.00,0.76
4127.00,0.76
4126.00,0.76
4125.00,0.76
4124.00,0.76
4123.00,0.76
4122.00,0.76
4121.00,0.76
4120.00,0.76
4119.00,0.76
4118.00,0.76
4117.00,0.76
4116.00,0.76
4115.00,0.76
4114.00,0.76
4113.00,0.76
4112.00,0.76
4111.00,0.76
4110.00,0.76
4109.00,0.76
4108.00,0.77
4107.00,0.77
4106.00,0.77
4105.00,0.77
4104.00,0.77
4103.00,0.77
4102.00,0.77
4101.00,0.77
4100.00,0.77
4099.00,0.77
4098.00,0.77
4097.00,0.77
4096.00,0.77
4095.00,0.77
4094.00,0.77
4093.00,0.77
4092.00,0.77
4091.00,0.77
4090.00,0.77
4089.00,0.77
4088.00,0.77
4087.00,0.77
4086.00,0.77
4085.00,0.77
4084.00,0.77
4083.00,0.77
4082.00,0.77
4081.00,0.77
4080.00,0.77
4079.00,0.77
4078.00,0.77
4077.00,0.77
4076.00,0.77
4075.00,0.77
4074.00,0.77
4073.00,0.78
4072.00,0.78
4071.00,0.78
4070.00,0.78
4069.00,0.78
4068.00,0.78
4067.00,0.78
4066.00,0.78
4065.00,0.78
4064.00,0.78
4063.00,0.78
4062.00,0.78
4061.00,0.78
4060.00,0.78
4059.00,0.78
4058.00,0.78
4057.00,0.78
4056.00,0.78
4055.00,0.78
4054.00,0.78
4053.00,0.77
4052.00,0.77
4051.00,0.77
4050.00,0.77
4049.00,0.77
4048.00,0.77
4047.00,0.77
4046.00,0.77
4045.00,0.77
4044.00,0.77
4043.00,0.78
4042.00,0.78
4041.00,0.78
4040.00,0.78
4039.00,0.78
4038.00,0.78
4037.00,0.79
4036.00,0.79
4035.00,0.79
4034.00,0.79
4033.00,0.79
4032.00,0.79
4031.00,0.80
4030.00,0.80
4029.00,0.80
4028.00,0.80
4027.00,0.80
4026.00,0.80
4025.00,0.80
4024.00,0.80
4023.00,0.80
4022.00,0.80
4021.00,0.79
4020.00,0.79
4019.00,0.79
4018.00,0.79
4017.00,0.79
4016.00,0.79
4015.00,0.79
4014.00,0.79
4013.00,0.79
4012.00,0.79
4011.00,0.79
4010.00,0.79
4009.00,0.79
4008.00,0.79
4007.00,0.80
4006.00,0.80
4005.00,0.80
4004.00,0.80
4003.00,0.80
4002.00,0.81
4001.00,0.81
4000.00,0.81
