创建为新数据集,样品 038 用户 Administrator 日期 星期三, 十一月 01 2017
cm-1,%T
10000.00,1.56
9999.00,1.56
9998.00,1.56
9997.00,1.56
9996.00,1.56
9995.00,1.56
9994.00,1.56
9993.00,1.56
9992.00,1.56
9991.00,1.56
9990.00,1.55
9989.00,1.55
9988.00,1.55
9987.00,1.55
9986.00,1.55
9985.00,1.55
9984.00,1.55
9983.00,1.55
9982.00,1.55
9981.00,1.54
9980.00,1.54
9979.00,1.54
9978.00,1.54
9977.00,1.54
9976.00,1.54
9975.00,1.54
9974.00,1.54
9973.00,1.54
9972.00,1.54
9971.00,1.54
9970.00,1.54
9969.00,1.54
9968.00,1.54
9967.00,1.55
9966.00,1.55
9965.00,1.55
9964.00,1.55
9963.00,1.55
9962.00,1.56
9961.00,1.56
9960.00,1.56
9959.00,1.56
9958.00,1.56
9957.00,1.56
9956.00,1.56
9955.00,1.56
9954.00,1.56
9953.00,1.56
9952.00,1.56
9951.00,1.56
9950.00,1.56
9949.00,1.56
9948.00,1.56
9947.00,1.56
9946.00,1.55
9945.00,1.55
9944.00,1.55
9943.00,1.55
9942.00,1.55
9941.00,1.55
9940.00,1.54
9939.00,1.54
9938.00,1.54
9937.00,1.54
9936.00,1.54
9935.00,1.54
9934.00,1.54
9933.00,1.54
9932.00,1.54
9931.00,1.54
9930.00,1.54
9929.00,1.54
9928.00,1.53
9927.00,1.53
9926.00,1.53
9925.00,1.53
9924.00,1.53
9923.00,1.53
9922.00,1.53
9921.00,1.53
9920.00,1.53
9919.00,1.52
9918.00,1.52
9917.00,1.52
9916.00,1.52
9915.00,1.52
9914.00,1.52
9913.00,1.52
9912.00,1.52
9911.00,1.52
9910.00,1.52
9909.00,1.52
9908.00,1.52
9907.00,1.52
9906.00,1.52
9905.00,1.53
9904.00,1.53
9903.00,1.53
9902.00,1.53
9901.00,1.53
9900.00,1.53
9899.00,1.54
9898.00,1.54
9897.00,1.54
9896.00,1.54
9895.00,1.54
9894.00,1.54
9893.00,1.54
9892.00,1.54
9891.00,1.54
9890.00,1.54
9889.00,1.54
9888.00,1.54
9887.00,1.54
9886.00,1.54
9885.00,1.54
9884.00,1.54
9883.00,1.54
9882.00,1.54
9881.00,1.54
9880.00,1.55
9879.00,1.55
9878.00,1.55
9877.00,1.55
9876.00,1.55
9875.00,1.55
9874.00,1.55
9873.00,1.55
9872.00,1.55
9871.00,1.55
9870.00,1.55
9869.00,1.55
9868.00,1.56
9867.00,1.56
9866.00,1.56
9865.00,1.56
9864.00,1.56
9863.00,1.56
9862.00,1.56
9861.00,1.56
9860.00,1.56
9859.00,1.56
9858.00,1.56
9857.00,1.56
9856.00,1.55
9855.00,1.55
9854.00,1.55
9853.00,1.54
9852.00,1.54
9851.00,1.54
9850.00,1.53
9849.00,1.53
9848.00,1.53
9847.00,1.52
9846.00,1.52
9845.00,1.52
9844.00,1.52
9843.00,1.51
9842.00,1.51
9841.00,1.51
9840.00,1.51
9839.00,1.51
9838.00,1.51
9837.00,1.51
9836.00,1.51
9835.00,1.52
9834.00,1.52
9833.00,1.52
9832.00,1.52
9831.00,1.52
9830.00,1.52
9829.00,1.52
9828.00,1.52
9827.00,1.52
9826.00,1.52
9825.00,1.53
9824.00,1.53
9823.00,1.53
9822.00,1.53
9821.00,1.53
9820.00,1.53
9819.00,1.53
9818.00,1.53
9817.00,1.53
9816.00,1.53
9815.00,1.53
9814.00,1.53
9813.00,1.54
9812.00,1.54
9811.00,1.54
9810.00,1.54
9809.00,1.54
9808.00,1.54
9807.00,1.54
9806.00,1.54
9805.00,1.54
9804.00,1.54
9803.00,1.54
9802.00,1.54
9801.00,1.54
9800.00,1.54
9799.00,1.54
9798.00,1.54
9797.00,1.54
9796.00,1.54
9795.00,1.54
9794.00,1.54
9793.00,1.54
9792.00,1.54
9791.00,1.54
9790.00,1.54
9789.00,1.54
9788.00,1.54
9787.00,1.54
9786.00,1.54
9785.00,1.54
9784.00,1.54
9783.00,1.54
9782.00,1.54
9781.00,1.54
9780.00,1.55
9779.00,1.55
9778.00,1.55
9777.00,1.55
9776.00,1.55
9775.00,1.55
9774.00,1.55
9773.00,1.55
9772.00,1.56
9771.00,1.56
9770.00,1.56
9769.00,1.56
9768.00,1.56
9767.00,1.56
9766.00,1.56
9765.00,1.56
9764.00,1.56
9763.00,1.56
9762.00,1.56
9761.00,1.56
9760.00,1.56
9759.00,1.56
9758.00,1.56
9757.00,1.55
9756.00,1.55
9755.00,1.55
9754.00,1.55
9753.00,1.55
9752.00,1.55
9751.00,1.55
9750.00,1.55
9749.00,1.55
9748.00,1.54
9747.00,1.54
9746.00,1.54
9745.00,1.54
9744.00,1.54
9743.00,1.54
9742.00,1.54
9741.00,1.54
9740.00,1.54
9739.00,1.54
9738.00,1.54
9737.00,1.54
9736.00,1.54
9735.00,1.54
9734.00,1.54
9733.00,1.54
9732.00,1.54
9731.00,1.54
9730.00,1.54
9729.00,1.54
9728.00,1.54
9727.00,1.54
9726.00,1.54
9725.00,1.54
9724.00,1.54
9723.00,1.54
9722.00,1.54
9721.00,1.54
9720.00,1.54
9719.00,1.54
9718.00,1.55
9717.00,1.55
9716.00,1.55
9715.00,1.55
9714.00,1.55
9713.00,1.55
9712.00,1.55
9711.00,1.55
9710.00,1.55
9709.00,1.55
9708.00,1.55
9707.00,1.55
9706.00,1.55
9705.00,1.55
9704.00,1.55
9703.00,1.55
9702.00,1.55
9701.00,1.55
9700.00,1.55
9699.00,1.55
9698.00,1.54
9697.00,1.54
9696.00,1.54
9695.00,1.54
9694.00,1.54
9693.00,1.54
9692.00,1.53
9691.00,1.53
9690.00,1.53
9689.00,1.53
9688.00,1.53
9687.00,1.53
9686.00,1.53
9685.00,1.53
9684.00,1.53
9683.00,1.53
9682.00,1.53
9681.00,1.53
9680.00,1.53
9679.00,1.53
9678.00,1.53
9677.00,1.53
9676.00,1.53
9675.00,1.53
9674.00,1.53
9673.00,1.53
9672.00,1.53
9671.00,1.53
9670.00,1.53
9669.00,1.53
9668.00,1.53
9667.00,1.53
9666.00,1.53
9665.00,1.53
9664.00,1.53
9663.00,1.53
9662.00,1.54
9661.00,1.54
9660.00,1.54
9659.00,1.54
9658.00,1.54
9657.00,1.54
9656.00,1.54
9655.00,1.54
9654.00,1.54
9653.00,1.54
9652.00,1.54
9651.00,1.54
9650.00,1.54
9649.00,1.54
9648.00,1.54
9647.00,1.54
9646.00,1.54
9645.00,1.54
9644.00,1.54
9643.00,1.54
9642.00,1.54
9641.00,1.54
9640.00,1.54
9639.00,1.54
9638.00,1.54
9637.00,1.55
9636.00,1.55
9635.00,1.55
9634.00,1.55
9633.00,1.55
9632.00,1.55
9631.00,1.55
9630.00,1.56
9629.00,1.56
9628.00,1.56
9627.00,1.56
9626.00,1.56
9625.00,1.56
9624.00,1.56
9623.00,1.56
9622.00,1.56
9621.00,1.56
9620.00,1.56
9619.00,1.56
9618.00,1.56
9617.00,1.56
9616.00,1.56
9615.00,1.56
9614.00,1.56
9613.00,1.56
9612.00,1.56
9611.00,1.56
9610.00,1.56
9609.00,1.56
9608.00,1.56
9607.00,1.56
9606.00,1.56
9605.00,1.56
9604.00,1.56
9603.00,1.56
9602.00,1.55
9601.00,1.55
9600.00,1.55
9599.00,1.55
9598.00,1.55
9597.00,1.55
9596.00,1.55
9595.00,1.55
9594.00,1.55
9593.00,1.55
9592.00,1.55
9591.00,1.55
9590.00,1.55
9589.00,1.55
9588.00,1.55
9587.00,1.55
9586.00,1.55
9585.00,1.55
9584.00,1.55
9583.00,1.55
9582.00,1.55
9581.00,1.55
9580.00,1.55
9579.00,1.55
9578.00,1.55
9577.00,1.54
9576.00,1.54
9575.00,1.54
9574.00,1.54
9573.00,1.54
9572.00,1.54
9571.00,1.54
9570.00,1.54
9569.00,1.54
9568.00,1.54
9567.00,1.54
9566.00,1.54
9565.00,1.54
9564.00,1.54
9563.00,1.54
9562.00,1.54
9561.00,1.54
9560.00,1.54
9559.00,1.54
9558.00,1.53
9557.00,1.53
9556.00,1.53
9555.00,1.53
9554.00,1.53
9553.00,1.54
9552.00,1.54
9551.00,1.54
9550.00,1.54
9549.00,1.54
9548.00,1.54
9547.00,1.54
9546.00,1.54
9545.00,1.54
9544.00,1.54
9543.00,1.54
9542.00,1.54
9541.00,1.55
9540.00,1.55
9539.00,1.55
9538.00,1.55
9537.00,1.55
9536.00,1.55
9535.00,1.55
9534.00,1.55
9533.00,1.55
9532.00,1.55
9531.00,1.55
9530.00,1.55
9529.00,1.55
9528.00,1.55
9527.00,1.55
9526.00,1.55
9525.00,1.55
9524.00,1.55
9523.00,1.55
9522.00,1.55
9521.00,1.55
9520.00,1.55
9519.00,1.55
9518.00,1.55
9517.00,1.55
9516.00,1.55
9515.00,1.55
9514.00,1.55
9513.00,1.55
9512.00,1.55
9511.00,1.55
9510.00,1.55
9509.00,1.55
9508.00,1.55
9507.00,1.55
9506.00,1.55
9505.00,1.55
9504.00,1.55
9503.00,1.55
9502.00,1.55
9501.00,1.55
9500.00,1.56
9499.00,1.56
9498.00,1.56
9497.00,1.56
9496.00,1.56
9495.00,1.56
9494.00,1.56
9493.00,1.56
9492.00,1.55
9491.00,1.55
9490.00,1.55
9489.00,1.55
9488.00,1.55
9487.00,1.55
9486.00,1.55
9485.00,1.55
9484.00,1.55
9483.00,1.55
9482.00,1.55
9481.00,1.55
9480.00,1.55
9479.00,1.54
9478.00,1.54
9477.00,1.54
9476.00,1.54
9475.00,1.54
9474.00,1.54
9473.00,1.54
9472.00,1.54
9471.00,1.54
9470.00,1.54
9469.00,1.54
9468.00,1.54
9467.00,1.54
9466.00,1.54
9465.00,1.54
9464.00,1.54
9463.00,1.54
9462.00,1.54
9461.00,1.54
9460.00,1.54
9459.00,1.54
9458.00,1.54
9457.00,1.54
9456.00,1.54
9455.00,1.54
9454.00,1.54
9453.00,1.55
9452.00,1.55
9451.00,1.55
9450.00,1.55
9449.00,1.55
9448.00,1.55
9447.00,1.55
9446.00,1.55
9445.00,1.55
9444.00,1.55
9443.00,1.55
9442.00,1.55
9441.00,1.55
9440.00,1.55
9439.00,1.55
9438.00,1.55
9437.00,1.55
9436.00,1.55
9435.00,1.55
9434.00,1.55
9433.00,1.55
9432.00,1.55
9431.00,1.55
9430.00,1.55
9429.00,1.55
9428.00,1.55
9427.00,1.55
9426.00,1.55
9425.00,1.55
9424.00,1.55
9423.00,1.55
9422.00,1.55
9421.00,1.55
9420.00,1.55
9419.00,1.55
9418.00,1.54
9417.00,1.54
9416.00,1.54
9415.00,1.54
9414.00,1.54
9413.00,1.54
9412.00,1.54
9411.00,1.54
9410.00,1.54
9409.00,1.54
9408.00,1.54
9407.00,1.54
9406.00,1.54
9405.00,1.55
9404.00,1.55
9403.00,1.55
9402.00,1.55
9401.00,1.55
9400.00,1.55
9399.00,1.55
9398.00,1.56
9397.00,1.56
9396.00,1.56
9395.00,1.56
9394.00,1.56
9393.00,1.56
9392.00,1.56
9391.00,1.56
9390.00,1.56
9389.00,1.56
9388.00,1.55
9387.00,1.55
9386.00,1.55
9385.00,1.55
9384.00,1.55
9383.00,1.55
9382.00,1.55
9381.00,1.55
9380.00,1.55
9379.00,1.55
9378.00,1.55
9377.00,1.55
9376.00,1.55
9375.00,1.55
9374.00,1.54
9373.00,1.54
9372.00,1.54
9371.00,1.54
9370.00,1.54
9369.00,1.54
9368.00,1.54
9367.00,1.54
9366.00,1.54
9365.00,1.53
9364.00,1.53
9363.00,1.53
9362.00,1.53
9361.00,1.53
9360.00,1.53
9359.00,1.53
9358.00,1.53
9357.00,1.52
9356.00,1.52
9355.00,1.53
9354.00,1.53
9353.00,1.53
9352.00,1.53
9351.00,1.53
9350.00,1.53
9349.00,1.53
9348.00,1.53
9347.00,1.53
9346.00,1.54
9345.00,1.54
9344.00,1.54
9343.00,1.54
9342.00,1.54
9341.00,1.54
9340.00,1.55
9339.00,1.55
9338.00,1.55
9337.00,1.55
9336.00,1.55
9335.00,1.55
9334.00,1.55
9333.00,1.55
9332.00,1.55
9331.00,1.55
9330.00,1.55
9329.00,1.55
9328.00,1.54
9327.00,1.54
9326.00,1.54
9325.00,1.54
9324.00,1.54
9323.00,1.54
9322.00,1.54
9321.00,1.54
9320.00,1.54
9319.00,1.54
9318.00,1.54
9317.00,1.54
9316.00,1.54
9315.00,1.54
9314.00,1.54
9313.00,1.54
9312.00,1.54
9311.00,1.54
9310.00,1.54
9309.00,1.54
9308.00,1.54
9307.00,1.54
9306.00,1.54
9305.00,1.54
9304.00,1.54
9303.00,1.54
9302.00,1.54
9301.00,1.54
9300.00,1.54
9299.00,1.54
9298.00,1.54
9297.00,1.54
9296.00,1.54
9295.00,1.54
9294.00,1.54
9293.00,1.54
9292.00,1.54
9291.00,1.54
9290.00,1.54
9289.00,1.54
9288.00,1.54
9287.00,1.54
9286.00,1.54
9285.00,1.54
9284.00,1.54
9283.00,1.54
9282.00,1.54
9281.00,1.54
9280.00,1.54
9279.00,1.54
9278.00,1.54
9277.00,1.54
9276.00,1.54
9275.00,1.54
9274.00,1.54
9273.00,1.54
9272.00,1.54
9271.00,1.54
9270.00,1.53
9269.00,1.53
9268.00,1.53
9267.00,1.53
9266.00,1.53
9265.00,1.53
9264.00,1.54
9263.00,1.54
9262.00,1.54
9261.00,1.54
9260.00,1.54
9259.00,1.54
9258.00,1.54
9257.00,1.54
9256.00,1.54
9255.00,1.54
9254.00,1.54
9253.00,1.54
9252.00,1.54
9251.00,1.54
9250.00,1.54
9249.00,1.54
9248.00,1.54
9247.00,1.54
9246.00,1.54
9245.00,1.54
9244.00,1.54
9243.00,1.54
9242.00,1.54
9241.00,1.54
9240.00,1.54
9239.00,1.54
9238.00,1.54
9237.00,1.54
9236.00,1.54
9235.00,1.54
9234.00,1.53
9233.00,1.53
9232.00,1.53
9231.00,1.53
9230.00,1.53
9229.00,1.53
9228.00,1.53
9227.00,1.53
9226.00,1.53
9225.00,1.53
9224.00,1.53
9223.00,1.53
9222.00,1.53
9221.00,1.53
9220.00,1.53
9219.00,1.53
9218.00,1.53
9217.00,1.53
9216.00,1.53
9215.00,1.54
9214.00,1.54
9213.00,1.54
9212.00,1.54
9211.00,1.54
9210.00,1.54
9209.00,1.54
9208.00,1.54
9207.00,1.54
9206.00,1.54
9205.00,1.54
9204.00,1.54
9203.00,1.54
9202.00,1.54
9201.00,1.54
9200.00,1.54
9199.00,1.54
9198.00,1.54
9197.00,1.54
9196.00,1.54
9195.00,1.54
9194.00,1.54
9193.00,1.55
9192.00,1.55
9191.00,1.55
9190.00,1.55
9189.00,1.55
9188.00,1.55
9187.00,1.55
9186.00,1.55
9185.00,1.55
9184.00,1.55
9183.00,1.55
9182.00,1.55
9181.00,1.55
9180.00,1.55
9179.00,1.55
9178.00,1.54
9177.00,1.54
9176.00,1.54
9175.00,1.54
9174.00,1.54
9173.00,1.54
9172.00,1.54
9171.00,1.54
9170.00,1.54
9169.00,1.54
9168.00,1.54
9167.00,1.54
9166.00,1.54
9165.00,1.54
9164.00,1.54
9163.00,1.54
9162.00,1.54
9161.00,1.54
9160.00,1.54
9159.00,1.54
9158.00,1.55
9157.00,1.55
9156.00,1.55
9155.00,1.55
9154.00,1.55
9153.00,1.55
9152.00,1.55
9151.00,1.55
9150.00,1.55
9149.00,1.55
9148.00,1.55
9147.00,1.55
9146.00,1.55
9145.00,1.54
9144.00,1.54
9143.00,1.54
9142.00,1.54
9141.00,1.54
9140.00,1.54
9139.00,1.54
9138.00,1.53
9137.00,1.53
9136.00,1.53
9135.00,1.53
9134.00,1.53
9133.00,1.53
9132.00,1.52
9131.00,1.52
9130.00,1.52
9129.00,1.52
9128.00,1.52
9127.00,1.52
9126.00,1.52
9125.00,1.52
9124.00,1.53
9123.00,1.53
9122.00,1.53
9121.00,1.53
9120.00,1.53
9119.00,1.53
9118.00,1.53
9117.00,1.53
9116.00,1.53
9115.00,1.53
9114.00,1.53
9113.00,1.53
9112.00,1.53
9111.00,1.53
9110.00,1.53
9109.00,1.53
9108.00,1.53
9107.00,1.53
9106.00,1.53
9105.00,1.53
9104.00,1.53
9103.00,1.53
9102.00,1.53
9101.00,1.53
9100.00,1.53
9099.00,1.53
9098.00,1.54
9097.00,1.54
9096.00,1.54
9095.00,1.54
9094.00,1.54
9093.00,1.54
9092.00,1.54
9091.00,1.54
9090.00,1.54
9089.00,1.54
9088.00,1.54
9087.00,1.54
9086.00,1.54
9085.00,1.54
9084.00,1.54
9083.00,1.54
9082.00,1.54
9081.00,1.54
9080.00,1.54
9079.00,1.54
9078.00,1.54
9077.00,1.54
9076.00,1.54
9075.00,1.54
9074.00,1.54
9073.00,1.54
9072.00,1.54
9071.00,1.54
9070.00,1.54
9069.00,1.54
9068.00,1.54
9067.00,1.54
9066.00,1.55
9065.00,1.55
9064.00,1.55
9063.00,1.55
9062.00,1.55
9061.00,1.55
9060.00,1.55
9059.00,1.55
9058.00,1.55
9057.00,1.55
9056.00,1.55
9055.00,1.55
9054.00,1.55
9053.00,1.55
9052.00,1.54
9051.00,1.54
9050.00,1.54
9049.00,1.54
9048.00,1.54
9047.00,1.54
9046.00,1.54
9045.00,1.54
9044.00,1.54
9043.00,1.53
9042.00,1.53
9041.00,1.53
9040.00,1.53
9039.00,1.53
9038.00,1.53
9037.00,1.53
9036.00,1.53
9035.00,1.54
9034.00,1.54
9033.00,1.54
9032.00,1.54
9031.00,1.54
9030.00,1.54
9029.00,1.54
9028.00,1.54
9027.00,1.54
9026.00,1.54
9025.00,1.55
9024.00,1.55
9023.00,1.55
9022.00,1.55
9021.00,1.55
9020.00,1.55
9019.00,1.55
9018.00,1.55
9017.00,1.55
9016.00,1.55
9015.00,1.55
9014.00,1.55
9013.00,1.55
9012.00,1.54
9011.00,1.54
9010.00,1.54
9009.00,1.54
9008.00,1.54
9007.00,1.54
9006.00,1.54
9005.00,1.54
9004.00,1.54
9003.00,1.54
9002.00,1.54
9001.00,1.54
9000.00,1.55
8999.00,1.55
8998.00,1.55
8997.00,1.55
8996.00,1.55
8995.00,1.55
8994.00,1.55
8993.00,1.55
8992.00,1.56
8991.00,1.56
8990.00,1.56
8989.00,1.56
8988.00,1.56
8987.00,1.56
8986.00,1.56
8985.00,1.56
8984.00,1.56
8983.00,1.56
8982.00,1.56
8981.00,1.56
8980.00,1.56
8979.00,1.56
8978.00,1.56
8977.00,1.56
8976.00,1.56
8975.00,1.56
8974.00,1.56
8973.00,1.55
8972.00,1.55
8971.00,1.55
8970.00,1.55
8969.00,1.55
8968.00,1.55
8967.00,1.55
8966.00,1.55
8965.00,1.54
8964.00,1.54
8963.00,1.54
8962.00,1.54
8961.00,1.54
8960.00,1.54
8959.00,1.54
8958.00,1.54
8957.00,1.54
8956.00,1.55
8955.00,1.55
8954.00,1.55
8953.00,1.55
8952.00,1.55
8951.00,1.55
8950.00,1.55
8949.00,1.55
8948.00,1.55
8947.00,1.55
8946.00,1.55
8945.00,1.55
8944.00,1.55
8943.00,1.55
8942.00,1.55
8941.00,1.55
8940.00,1.55
8939.00,1.55
8938.00,1.55
8937.00,1.55
8936.00,1.55
8935.00,1.55
8934.00,1.55
8933.00,1.55
8932.00,1.55
8931.00,1.55
8930.00,1.55
8929.00,1.55
8928.00,1.55
8927.00,1.55
8926.00,1.55
8925.00,1.55
8924.00,1.55
8923.00,1.55
8922.00,1.55
8921.00,1.55
8920.00,1.55
8919.00,1.55
8918.00,1.55
8917.00,1.55
8916.00,1.55
8915.00,1.55
8914.00,1.55
8913.00,1.55
8912.00,1.55
8911.00,1.54
8910.00,1.54
8909.00,1.54
8908.00,1.54
8907.00,1.54
8906.00,1.54
8905.00,1.54
8904.00,1.54
8903.00,1.54
8902.00,1.54
8901.00,1.54
8900.00,1.54
8899.00,1.54
8898.00,1.54
8897.00,1.54
8896.00,1.54
8895.00,1.54
8894.00,1.54
8893.00,1.54
8892.00,1.54
8891.00,1.54
8890.00,1.54
8889.00,1.54
8888.00,1.54
8887.00,1.54
8886.00,1.54
8885.00,1.54
8884.00,1.54
8883.00,1.54
8882.00,1.54
8881.00,1.54
8880.00,1.54
8879.00,1.54
8878.00,1.54
8877.00,1.54
8876.00,1.54
8875.00,1.54
8874.00,1.53
8873.00,1.53
8872.00,1.53
8871.00,1.53
8870.00,1.53
8869.00,1.53
8868.00,1.53
8867.00,1.53
8866.00,1.53
8865.00,1.53
8864.00,1.53
8863.00,1.53
8862.00,1.53
8861.00,1.53
8860.00,1.53
8859.00,1.53
8858.00,1.53
8857.00,1.53
8856.00,1.53
8855.00,1.53
8854.00,1.53
8853.00,1.53
8852.00,1.53
8851.00,1.53
8850.00,1.53
8849.00,1.53
8848.00,1.53
8847.00,1.53
8846.00,1.53
8845.00,1.53
8844.00,1.53
8843.00,1.53
8842.00,1.53
8841.00,1.52
8840.00,1.52
8839.00,1.52
8838.00,1.52
8837.00,1.52
8836.00,1.52
8835.00,1.52
8834.00,1.52
8833.00,1.52
8832.00,1.52
8831.00,1.52
8830.00,1.52
8829.00,1.53
8828.00,1.53
8827.00,1.53
8826.00,1.53
8825.00,1.53
8824.00,1.53
8823.00,1.53
8822.00,1.53
8821.00,1.53
8820.00,1.53
8819.00,1.53
8818.00,1.53
8817.00,1.54
8816.00,1.54
8815.00,1.54
8814.00,1.54
8813.00,1.54
8812.00,1.54
8811.00,1.54
8810.00,1.54
8809.00,1.53
8808.00,1.53
8807.00,1.53
8806.00,1.53
8805.00,1.53
8804.00,1.53
8803.00,1.53
8802.00,1.53
8801.00,1.53
8800.00,1.52
8799.00,1.52
8798.00,1.52
8797.00,1.52
8796.00,1.52
8795.00,1.52
8794.00,1.52
8793.00,1.51
8792.00,1.51
8791.00,1.51
8790.00,1.51
8789.00,1.51
8788.00,1.51
8787.00,1.51
8786.00,1.51
8785.00,1.51
8784.00,1.51
8783.00,1.51
8782.00,1.51
8781.00,1.51
8780.00,1.51
8779.00,1.51
8778.00,1.51
8777.00,1.51
8776.00,1.51
8775.00,1.51
8774.00,1.51
8773.00,1.51
8772.00,1.51
8771.00,1.51
8770.00,1.51
8769.00,1.51
8768.00,1.51
8767.00,1.51
8766.00,1.51
8765.00,1.51
8764.00,1.51
8763.00,1.51
8762.00,1.51
8761.00,1.51
8760.00,1.51
8759.00,1.51
8758.00,1.51
8757.00,1.51
8756.00,1.51
8755.00,1.51
8754.00,1.51
8753.00,1.51
8752.00,1.51
8751.00,1.51
8750.00,1.51
8749.00,1.51
8748.00,1.51
8747.00,1.51
8746.00,1.51
8745.00,1.51
8744.00,1.51
8743.00,1.51
8742.00,1.51
8741.00,1.51
8740.00,1.51
8739.00,1.51
8738.00,1.51
8737.00,1.51
8736.00,1.51
8735.00,1.51
8734.00,1.51
8733.00,1.51
8732.00,1.51
8731.00,1.51
8730.00,1.51
8729.00,1.51
8728.00,1.51
8727.00,1.51
8726.00,1.51
8725.00,1.50
8724.00,1.50
8723.00,1.50
8722.00,1.50
8721.00,1.50
8720.00,1.50
8719.00,1.50
8718.00,1.50
8717.00,1.50
8716.00,1.50
8715.00,1.50
8714.00,1.50
8713.00,1.49
8712.00,1.49
8711.00,1.49
8710.00,1.49
8709.00,1.49
8708.00,1.49
8707.00,1.49
8706.00,1.49
8705.00,1.49
8704.00,1.49
8703.00,1.49
8702.00,1.49
8701.00,1.49
8700.00,1.49
8699.00,1.49
8698.00,1.49
8697.00,1.49
8696.00,1.49
8695.00,1.48
8694.00,1.48
8693.00,1.48
8692.00,1.48
8691.00,1.48
8690.00,1.48
8689.00,1.48
8688.00,1.48
8687.00,1.48
8686.00,1.48
8685.00,1.48
8684.00,1.48
8683.00,1.48
8682.00,1.48
8681.00,1.48
8680.00,1.48
8679.00,1.48
8678.00,1.48
8677.00,1.48
8676.00,1.48
8675.00,1.48
8674.00,1.48
8673.00,1.48
8672.00,1.48
8671.00,1.48
8670.00,1.48
8669.00,1.48
8668.00,1.48
8667.00,1.48
8666.00,1.48
8665.00,1.48
8664.00,1.48
8663.00,1.48
8662.00,1.48
8661.00,1.48
8660.00,1.48
8659.00,1.48
8658.00,1.48
8657.00,1.48
8656.00,1.48
8655.00,1.48
8654.00,1.48
8653.00,1.47
8652.00,1.47
8651.00,1.47
8650.00,1.47
8649.00,1.47
8648.00,1.47
8647.00,1.47
8646.00,1.47
8645.00,1.47
8644.00,1.46
8643.00,1.46
8642.00,1.46
8641.00,1.46
8640.00,1.46
8639.00,1.46
8638.00,1.46
8637.00,1.46
8636.00,1.46
8635.00,1.46
8634.00,1.46
8633.00,1.46
8632.00,1.46
8631.00,1.46
8630.00,1.46
8629.00,1.46
8628.00,1.46
8627.00,1.46
8626.00,1.46
8625.00,1.46
8624.00,1.46
8623.00,1.47
8622.00,1.47
8621.00,1.47
8620.00,1.47
8619.00,1.47
8618.00,1.47
8617.00,1.47
8616.00,1.47
8615.00,1.47
8614.00,1.47
8613.00,1.47
8612.00,1.47
8611.00,1.47
8610.00,1.47
8609.00,1.47
8608.00,1.47
8607.00,1.47
8606.00,1.47
8605.00,1.47
8604.00,1.47
8603.00,1.47
8602.00,1.47
8601.00,1.47
8600.00,1.47
8599.00,1.47
8598.00,1.47
8597.00,1.47
8596.00,1.47
8595.00,1.47
8594.00,1.47
8593.00,1.47
8592.00,1.47
8591.00,1.47
8590.00,1.47
8589.00,1.47
8588.00,1.47
8587.00,1.47
8586.00,1.47
8585.00,1.47
8584.00,1.47
8583.00,1.47
8582.00,1.47
8581.00,1.47
8580.00,1.46
8579.00,1.46
8578.00,1.46
8577.00,1.46
8576.00,1.46
8575.00,1.46
8574.00,1.46
8573.00,1.46
8572.00,1.45
8571.00,1.45
8570.00,1.45
8569.00,1.45
8568.00,1.45
8567.00,1.45
8566.00,1.44
8565.00,1.44
8564.00,1.44
8563.00,1.44
8562.00,1.44
8561.00,1.44
8560.00,1.44
8559.00,1.44
8558.00,1.44
8557.00,1.44
8556.00,1.44
8555.00,1.44
8554.00,1.44
8553.00,1.44
8552.00,1.44
8551.00,1.44
8550.00,1.44
8549.00,1.44
8548.00,1.44
8547.00,1.44
8546.00,1.44
8545.00,1.44
8544.00,1.44
8543.00,1.44
8542.00,1.43
8541.00,1.43
8540.00,1.43
8539.00,1.43
8538.00,1.43
8537.00,1.43
8536.00,1.43
8535.00,1.43
8534.00,1.43
8533.00,1.43
8532.00,1.43
8531.00,1.43
8530.00,1.43
8529.00,1.43
8528.00,1.43
8527.00,1.43
8526.00,1.43
8525.00,1.43
8524.00,1.43
8523.00,1.43
8522.00,1.43
8521.00,1.43
8520.00,1.43
8519.00,1.43
8518.00,1.43
8517.00,1.43
8516.00,1.43
8515.00,1.43
8514.00,1.43
8513.00,1.43
8512.00,1.43
8511.00,1.43
8510.00,1.43
8509.00,1.43
8508.00,1.42
8507.00,1.42
8506.00,1.42
8505.00,1.42
8504.00,1.42
8503.00,1.42
8502.00,1.41
8501.00,1.41
8500.00,1.41
8499.00,1.41
8498.00,1.41
8497.00,1.41
8496.00,1.41
8495.00,1.41
8494.00,1.41
8493.00,1.41
8492.00,1.41
8491.00,1.41
8490.00,1.41
8489.00,1.41
8488.00,1.41
8487.00,1.41
8486.00,1.41
8485.00,1.41
8484.00,1.41
8483.00,1.41
8482.00,1.41
8481.00,1.41
8480.00,1.41
8479.00,1.41
8478.00,1.41
8477.00,1.41
8476.00,1.41
8475.00,1.41
8474.00,1.40
8473.00,1.40
8472.00,1.40
8471.00,1.40
8470.00,1.40
8469.00,1.40
8468.00,1.40
8467.00,1.40
8466.00,1.40
8465.00,1.40
8464.00,1.40
8463.00,1.40
8462.00,1.40
8461.00,1.40
8460.00,1.40
8459.00,1.40
8458.00,1.40
8457.00,1.40
8456.00,1.40
8455.00,1.40
8454.00,1.40
8453.00,1.40
8452.00,1.40
8451.00,1.40
8450.00,1.40
8449.00,1.40
8448.00,1.40
8447.00,1.40
8446.00,1.40
8445.00,1.40
8444.00,1.40
8443.00,1.40
8442.00,1.40
8441.00,1.40
8440.00,1.40
8439.00,1.40
8438.00,1.40
8437.00,1.40
8436.00,1.40
8435.00,1.40
8434.00,1.40
8433.00,1.39
8432.00,1.39
8431.00,1.39
8430.00,1.39
8429.00,1.39
8428.00,1.39
8427.00,1.39
8426.00,1.39
8425.00,1.39
8424.00,1.39
8423.00,1.39
8422.00,1.40
8421.00,1.40
8420.00,1.40
8419.00,1.40
8418.00,1.40
8417.00,1.40
8416.00,1.40
8415.00,1.40
8414.00,1.40
8413.00,1.40
8412.00,1.40
8411.00,1.40
8410.00,1.40
8409.00,1.41
8408.00,1.41
8407.00,1.41
8406.00,1.41
8405.00,1.41
8404.00,1.41
8403.00,1.41
8402.00,1.41
8401.00,1.41
8400.00,1.41
8399.00,1.41
8398.00,1.41
8397.00,1.42
8396.00,1.42
8395.00,1.42
8394.00,1.42
8393.00,1.42
8392.00,1.42
8391.00,1.42
8390.00,1.42
8389.00,1.42
8388.00,1.42
8387.00,1.42
8386.00,1.42
8385.00,1.42
8384.00,1.42
8383.00,1.42
8382.00,1.42
8381.00,1.43
8380.00,1.43
8379.00,1.43
8378.00,1.43
8377.00,1.43
8376.00,1.43
8375.00,1.43
8374.00,1.43
8373.00,1.43
8372.00,1.43
8371.00,1.43
8370.00,1.43
8369.00,1.43
8368.00,1.43
8367.00,1.42
8366.00,1.42
8365.00,1.42
8364.00,1.42
8363.00,1.42
8362.00,1.42
8361.00,1.42
8360.00,1.42
8359.00,1.42
8358.00,1.42
8357.00,1.42
8356.00,1.42
8355.00,1.42
8354.00,1.42
8353.00,1.42
8352.00,1.42
8351.00,1.43
8350.00,1.43
8349.00,1.43
8348.00,1.43
8347.00,1.43
8346.00,1.43
8345.00,1.43
8344.00,1.43
8343.00,1.43
8342.00,1.43
8341.00,1.43
8340.00,1.44
8339.00,1.44
8338.00,1.44
8337.00,1.44
8336.00,1.44
8335.00,1.44
8334.00,1.44
8333.00,1.44
8332.00,1.44
8331.00,1.44
8330.00,1.44
8329.00,1.44
8328.00,1.44
8327.00,1.44
8326.00,1.44
8325.00,1.44
8324.00,1.44
8323.00,1.44
8322.00,1.44
8321.00,1.44
8320.00,1.44
8319.00,1.44
8318.00,1.44
8317.00,1.44
8316.00,1.44
8315.00,1.44
8314.00,1.44
8313.00,1.44
8312.00,1.44
8311.00,1.44
8310.00,1.44
8309.00,1.44
8308.00,1.44
8307.00,1.44
8306.00,1.44
8305.00,1.44
8304.00,1.44
8303.00,1.44
8302.00,1.44
8301.00,1.44
8300.00,1.44
8299.00,1.44
8298.00,1.44
8297.00,1.44
8296.00,1.45
8295.00,1.45
8294.00,1.45
8293.00,1.45
8292.00,1.45
8291.00,1.45
8290.00,1.45
8289.00,1.45
8288.00,1.45
8287.00,1.45
8286.00,1.45
8285.00,1.45
8284.00,1.45
8283.00,1.45
8282.00,1.45
8281.00,1.45
8280.00,1.45
8279.00,1.45
8278.00,1.45
8277.00,1.45
8276.00,1.45
8275.00,1.45
8274.00,1.45
8273.00,1.45
8272.00,1.44
8271.00,1.44
8270.00,1.44
8269.00,1.44
8268.00,1.44
8267.00,1.44
8266.00,1.44
8265.00,1.44
8264.00,1.44
8263.00,1.44
8262.00,1.44
8261.00,1.44
8260.00,1.45
8259.00,1.45
8258.00,1.45
8257.00,1.45
8256.00,1.45
8255.00,1.45
8254.00,1.45
8253.00,1.45
8252.00,1.46
8251.00,1.46
8250.00,1.46
8249.00,1.46
8248.00,1.46
8247.00,1.46
8246.00,1.46
8245.00,1.46
8244.00,1.46
8243.00,1.46
8242.00,1.46
8241.00,1.46
8240.00,1.46
8239.00,1.46
8238.00,1.46
8237.00,1.46
8236.00,1.46
8235.00,1.46
8234.00,1.46
8233.00,1.46
8232.00,1.46
8231.00,1.46
8230.00,1.46
8229.00,1.46
8228.00,1.46
8227.00,1.46
8226.00,1.46
8225.00,1.46
8224.00,1.46
8223.00,1.46
8222.00,1.46
8221.00,1.46
8220.00,1.46
8219.00,1.46
8218.00,1.46
8217.00,1.46
8216.00,1.46
8215.00,1.46
8214.00,1.46
8213.00,1.46
8212.00,1.46
8211.00,1.46
8210.00,1.46
8209.00,1.46
8208.00,1.46
8207.00,1.46
8206.00,1.46
8205.00,1.46
8204.00,1.46
8203.00,1.47
8202.00,1.47
8201.00,1.47
8200.00,1.47
8199.00,1.47
8198.00,1.47
8197.00,1.47
8196.00,1.47
8195.00,1.47
8194.00,1.47
8193.00,1.47
8192.00,1.47
8191.00,1.47
8190.00,1.47
8189.00,1.47
8188.00,1.47
8187.00,1.47
8186.00,1.47
8185.00,1.47
8184.00,1.47
8183.00,1.47
8182.00,1.47
8181.00,1.47
8180.00,1.47
8179.00,1.47
8178.00,1.47
8177.00,1.47
8176.00,1.47
8175.00,1.47
8174.00,1.47
8173.00,1.47
8172.00,1.47
8171.00,1.47
8170.00,1.47
8169.00,1.47
8168.00,1.48
8167.00,1.48
8166.00,1.48
8165.00,1.48
8164.00,1.48
8163.00,1.48
8162.00,1.48
8161.00,1.48
8160.00,1.48
8159.00,1.48
8158.00,1.48
8157.00,1.48
8156.00,1.48
8155.00,1.48
8154.00,1.48
8153.00,1.48
8152.00,1.48
8151.00,1.48
8150.00,1.48
8149.00,1.48
8148.00,1.48
8147.00,1.48
8146.00,1.48
8145.00,1.48
8144.00,1.48
8143.00,1.48
8142.00,1.48
8141.00,1.48
8140.00,1.48
8139.00,1.48
8138.00,1.48
8137.00,1.48
8136.00,1.48
8135.00,1.48
8134.00,1.48
8133.00,1.48
8132.00,1.49
8131.00,1.49
8130.00,1.49
8129.00,1.49
8128.00,1.49
8127.00,1.49
8126.00,1.49
8125.00,1.49
8124.00,1.49
8123.00,1.49
8122.00,1.49
8121.00,1.49
8120.00,1.49
8119.00,1.49
8118.00,1.49
8117.00,1.49
8116.00,1.49
8115.00,1.49
8114.00,1.49
8113.00,1.49
8112.00,1.49
8111.00,1.49
8110.00,1.50
8109.00,1.50
8108.00,1.50
8107.00,1.50
8106.00,1.50
8105.00,1.50
8104.00,1.50
8103.00,1.50
8102.00,1.50
8101.00,1.50
8100.00,1.50
8099.00,1.50
8098.00,1.50
8097.00,1.50
8096.00,1.50
8095.00,1.50
8094.00,1.50
8093.00,1.50
8092.00,1.50
8091.00,1.50
8090.00,1.50
8089.00,1.50
8088.00,1.50
8087.00,1.50
8086.00,1.50
8085.00,1.50
8084.00,1.50
8083.00,1.50
8082.00,1.50
8081.00,1.50
8080.00,1.50
8079.00,1.49
8078.00,1.49
8077.00,1.49
8076.00,1.49
8075.00,1.49
8074.00,1.49
8073.00,1.49
8072.00,1.49
8071.00,1.49
8070.00,1.49
8069.00,1.49
8068.00,1.49
8067.00,1.49
8066.00,1.49
8065.00,1.50
8064.00,1.50
8063.00,1.50
8062.00,1.50
8061.00,1.50
8060.00,1.50
8059.00,1.50
8058.00,1.51
8057.00,1.51
8056.00,1.51
8055.00,1.51
8054.00,1.51
8053.00,1.51
8052.00,1.51
8051.00,1.51
8050.00,1.51
8049.00,1.51
8048.00,1.51
8047.00,1.51
8046.00,1.51
8045.00,1.51
8044.00,1.51
8043.00,1.51
8042.00,1.51
8041.00,1.51
8040.00,1.51
8039.00,1.51
8038.00,1.51
8037.00,1.51
8036.00,1.51
8035.00,1.51
8034.00,1.51
8033.00,1.51
8032.00,1.51
8031.00,1.51
8030.00,1.52
8029.00,1.52
8028.00,1.52
8027.00,1.52
8026.00,1.52
8025.00,1.52
8024.00,1.52
8023.00,1.52
8022.00,1.52
8021.00,1.52
8020.00,1.52
8019.00,1.52
8018.00,1.52
8017.00,1.52
8016.00,1.52
8015.00,1.52
8014.00,1.52
8013.00,1.52
8012.00,1.52
8011.00,1.52
8010.00,1.52
8009.00,1.52
8008.00,1.52
8007.00,1.52
8006.00,1.52
8005.00,1.52
8004.00,1.52
8003.00,1.51
8002.00,1.51
8001.00,1.51
8000.00,1.51
7999.00,1.51
7998.00,1.51
7997.00,1.51
7996.00,1.51
7995.00,1.51
7994.00,1.51
7993.00,1.51
7992.00,1.51
7991.00,1.51
7990.00,1.51
7989.00,1.51
7988.00,1.51
7987.00,1.51
7986.00,1.51
7985.00,1.51
7984.00,1.51
7983.00,1.51
7982.00,1.51
7981.00,1.51
7980.00,1.51
7979.00,1.52
7978.00,1.52
7977.00,1.52
7976.00,1.52
7975.00,1.52
7974.00,1.52
7973.00,1.52
7972.00,1.52
7971.00,1.52
7970.00,1.52
7969.00,1.52
7968.00,1.52
7967.00,1.52
7966.00,1.52
7965.00,1.53
7964.00,1.53
7963.00,1.53
7962.00,1.53
7961.00,1.53
7960.00,1.53
7959.00,1.53
7958.00,1.53
7957.00,1.53
7956.00,1.53
7955.00,1.53
7954.00,1.53
7953.00,1.53
7952.00,1.53
7951.00,1.53
7950.00,1.53
7949.00,1.53
7948.00,1.53
7947.00,1.53
7946.00,1.53
7945.00,1.53
7944.00,1.53
7943.00,1.53
7942.00,1.53
7941.00,1.53
7940.00,1.53
7939.00,1.53
7938.00,1.53
7937.00,1.53
7936.00,1.53
7935.00,1.53
7934.00,1.53
7933.00,1.53
7932.00,1.53
7931.00,1.53
7930.00,1.53
7929.00,1.53
7928.00,1.53
7927.00,1.53
7926.00,1.53
7925.00,1.53
7924.00,1.53
7923.00,1.53
7922.00,1.53
7921.00,1.53
7920.00,1.53
7919.00,1.53
7918.00,1.53
7917.00,1.53
7916.00,1.53
7915.00,1.53
7914.00,1.53
7913.00,1.53
7912.00,1.53
7911.00,1.53
7910.00,1.53
7909.00,1.53
7908.00,1.53
7907.00,1.53
7906.00,1.53
7905.00,1.53
7904.00,1.53
7903.00,1.53
7902.00,1.53
7901.00,1.53
7900.00,1.53
7899.00,1.53
7898.00,1.53
7897.00,1.54
7896.00,1.54
7895.00,1.54
7894.00,1.54
7893.00,1.54
7892.00,1.54
7891.00,1.54
7890.00,1.54
7889.00,1.54
7888.00,1.54
7887.00,1.54
7886.00,1.54
7885.00,1.54
7884.00,1.54
7883.00,1.54
7882.00,1.54
7881.00,1.54
7880.00,1.54
7879.00,1.54
7878.00,1.54
7877.00,1.55
7876.00,1.55
7875.00,1.55
7874.00,1.55
7873.00,1.55
7872.00,1.55
7871.00,1.55
7870.00,1.55
7869.00,1.55
7868.00,1.55
7867.00,1.55
7866.00,1.55
7865.00,1.55
7864.00,1.55
7863.00,1.55
7862.00,1.55
7861.00,1.55
7860.00,1.55
7859.00,1.55
7858.00,1.55
7857.00,1.55
7856.00,1.55
7855.00,1.55
7854.00,1.55
7853.00,1.55
7852.00,1.55
7851.00,1.55
7850.00,1.55
7849.00,1.55
7848.00,1.55
7847.00,1.55
7846.00,1.55
7845.00,1.55
7844.00,1.55
7843.00,1.55
7842.00,1.55
7841.00,1.55
7840.00,1.55
7839.00,1.55
7838.00,1.55
7837.00,1.55
7836.00,1.55
7835.00,1.55
7834.00,1.55
7833.00,1.55
7832.00,1.55
7831.00,1.55
7830.00,1.55
7829.00,1.55
7828.00,1.55
7827.00,1.54
7826.00,1.54
7825.00,1.54
7824.00,1.54
7823.00,1.54
7822.00,1.54
7821.00,1.54
7820.00,1.54
7819.00,1.54
7818.00,1.54
7817.00,1.54
7816.00,1.54
7815.00,1.54
7814.00,1.54
7813.00,1.54
7812.00,1.54
7811.00,1.54
7810.00,1.54
7809.00,1.54
7808.00,1.54
7807.00,1.54
7806.00,1.54
7805.00,1.54
7804.00,1.54
7803.00,1.54
7802.00,1.54
7801.00,1.54
7800.00,1.54
7799.00,1.54
7798.00,1.54
7797.00,1.54
7796.00,1.54
7795.00,1.54
7794.00,1.54
7793.00,1.54
7792.00,1.54
7791.00,1.54
7790.00,1.54
7789.00,1.54
7788.00,1.54
7787.00,1.54
7786.00,1.54
7785.00,1.54
7784.00,1.54
7783.00,1.54
7782.00,1.54
7781.00,1.54
7780.00,1.54
7779.00,1.55
7778.00,1.55
7777.00,1.55
7776.00,1.55
7775.00,1.55
7774.00,1.55
7773.00,1.55
7772.00,1.55
7771.00,1.55
7770.00,1.55
7769.00,1.55
7768.00,1.55
7767.00,1.55
7766.00,1.55
7765.00,1.55
7764.00,1.55
7763.00,1.55
7762.00,1.55
7761.00,1.55
7760.00,1.55
7759.00,1.56
7758.00,1.56
7757.00,1.56
7756.00,1.56
7755.00,1.56
7754.00,1.56
7753.00,1.56
7752.00,1.56
7751.00,1.56
7750.00,1.56
7749.00,1.56
7748.00,1.56
7747.00,1.56
7746.00,1.56
7745.00,1.56
7744.00,1.56
7743.00,1.56
7742.00,1.56
7741.00,1.56
7740.00,1.56
7739.00,1.56
7738.00,1.56
7737.00,1.56
7736.00,1.56
7735.00,1.56
7734.00,1.56
7733.00,1.56
7732.00,1.56
7731.00,1.56
7730.00,1.56
7729.00,1.56
7728.00,1.56
7727.00,1.56
7726.00,1.56
7725.00,1.56
7724.00,1.56
7723.00,1.56
7722.00,1.56
7721.00,1.56
7720.00,1.56
7719.00,1.56
7718.00,1.56
7717.00,1.56
7716.00,1.56
7715.00,1.56
7714.00,1.56
7713.00,1.56
7712.00,1.56
7711.00,1.56
7710.00,1.56
7709.00,1.56
7708.00,1.56
7707.00,1.56
7706.00,1.56
7705.00,1.56
7704.00,1.56
7703.00,1.56
7702.00,1.56
7701.00,1.56
7700.00,1.56
7699.00,1.56
7698.00,1.56
7697.00,1.56
7696.00,1.56
7695.00,1.56
7694.00,1.56
7693.00,1.56
7692.00,1.56
7691.00,1.56
7690.00,1.56
7689.00,1.56
7688.00,1.56
7687.00,1.56
7686.00,1.56
7685.00,1.56
7684.00,1.56
7683.00,1.56
7682.00,1.56
7681.00,1.56
7680.00,1.56
7679.00,1.56
7678.00,1.56
7677.00,1.56
7676.00,1.56
7675.00,1.56
7674.00,1.56
7673.00,1.56
7672.00,1.56
7671.00,1.56
7670.00,1.56
7669.00,1.56
7668.00,1.56
7667.00,1.56
7666.00,1.56
7665.00,1.56
7664.00,1.56
7663.00,1.56
7662.00,1.56
7661.00,1.56
7660.00,1.56
7659.00,1.56
7658.00,1.56
7657.00,1.56
7656.00,1.56
7655.00,1.56
7654.00,1.56
7653.00,1.56
7652.00,1.56
7651.00,1.56
7650.00,1.56
7649.00,1.56
7648.00,1.56
7647.00,1.56
7646.00,1.56
7645.00,1.56
7644.00,1.56
7643.00,1.56
7642.00,1.56
7641.00,1.56
7640.00,1.56
7639.00,1.56
7638.00,1.56
7637.00,1.56
7636.00,1.56
7635.00,1.56
7634.00,1.56
7633.00,1.56
7632.00,1.56
7631.00,1.56
7630.00,1.56
7629.00,1.56
7628.00,1.56
7627.00,1.56
7626.00,1.56
7625.00,1.56
7624.00,1.55
7623.00,1.55
7622.00,1.55
7621.00,1.55
7620.00,1.55
7619.00,1.55
7618.00,1.55
7617.00,1.55
7616.00,1.55
7615.00,1.55
7614.00,1.55
7613.00,1.55
7612.00,1.55
7611.00,1.55
7610.00,1.55
7609.00,1.55
7608.00,1.55
7607.00,1.55
7606.00,1.55
7605.00,1.55
7604.00,1.55
7603.00,1.55
7602.00,1.55
7601.00,1.55
7600.00,1.55
7599.00,1.55
7598.00,1.55
7597.00,1.55
7596.00,1.55
7595.00,1.55
7594.00,1.55
7593.00,1.55
7592.00,1.55
7591.00,1.55
7590.00,1.55
7589.00,1.55
7588.00,1.55
7587.00,1.55
7586.00,1.55
7585.00,1.55
7584.00,1.55
7583.00,1.55
7582.00,1.55
7581.00,1.55
7580.00,1.55
7579.00,1.55
7578.00,1.55
7577.00,1.55
7576.00,1.55
7575.00,1.55
7574.00,1.55
7573.00,1.55
7572.00,1.55
7571.00,1.55
7570.00,1.55
7569.00,1.55
7568.00,1.55
7567.00,1.55
7566.00,1.55
7565.00,1.55
7564.00,1.55
7563.00,1.55
7562.00,1.55
7561.00,1.55
7560.00,1.55
7559.00,1.55
7558.00,1.55
7557.00,1.55
7556.00,1.55
7555.00,1.55
7554.00,1.55
7553.00,1.55
7552.00,1.55
7551.00,1.55
7550.00,1.55
7549.00,1.55
7548.00,1.55
7547.00,1.55
7546.00,1.55
7545.00,1.55
7544.00,1.54
7543.00,1.54
7542.00,1.54
7541.00,1.54
7540.00,1.54
7539.00,1.54
7538.00,1.54
7537.00,1.54
7536.00,1.54
7535.00,1.54
7534.00,1.54
7533.00,1.54
7532.00,1.54
7531.00,1.54
7530.00,1.54
7529.00,1.54
7528.00,1.54
7527.00,1.54
7526.00,1.54
7525.00,1.54
7524.00,1.55
7523.00,1.55
7522.00,1.55
7521.00,1.55
7520.00,1.55
7519.00,1.55
7518.00,1.55
7517.00,1.55
7516.00,1.55
7515.00,1.55
7514.00,1.54
7513.00,1.54
7512.00,1.54
7511.00,1.54
7510.00,1.54
7509.00,1.54
7508.00,1.54
7507.00,1.54
7506.00,1.54
7505.00,1.54
7504.00,1.54
7503.00,1.54
7502.00,1.54
7501.00,1.54
7500.00,1.54
7499.00,1.54
7498.00,1.54
7497.00,1.54
7496.00,1.54
7495.00,1.54
7494.00,1.54
7493.00,1.54
7492.00,1.54
7491.00,1.54
7490.00,1.54
7489.00,1.53
7488.00,1.53
7487.00,1.53
7486.00,1.53
7485.00,1.53
7484.00,1.53
7483.00,1.53
7482.00,1.53
7481.00,1.53
7480.00,1.52
7479.00,1.52
7478.00,1.52
7477.00,1.52
7476.00,1.52
7475.00,1.52
7474.00,1.52
7473.00,1.52
7472.00,1.52
7471.00,1.52
7470.00,1.52
7469.00,1.51
7468.00,1.51
7467.00,1.51
7466.00,1.51
7465.00,1.51
7464.00,1.51
7463.00,1.51
7462.00,1.51
7461.00,1.51
7460.00,1.51
7459.00,1.51
7458.00,1.51
7457.00,1.51
7456.00,1.51
7455.00,1.51
7454.00,1.51
7453.00,1.51
7452.00,1.51
7451.00,1.51
7450.00,1.51
7449.00,1.51
7448.00,1.51
7447.00,1.51
7446.00,1.51
7445.00,1.50
7444.00,1.50
7443.00,1.50
7442.00,1.50
7441.00,1.50
7440.00,1.50
7439.00,1.50
7438.00,1.50
7437.00,1.50
7436.00,1.49
7435.00,1.49
7434.00,1.49
7433.00,1.49
7432.00,1.49
7431.00,1.49
7430.00,1.49
7429.00,1.49
7428.00,1.49
7427.00,1.49
7426.00,1.48
7425.00,1.48
7424.00,1.48
7423.00,1.48
7422.00,1.48
7421.00,1.48
7420.00,1.48
7419.00,1.48
7418.00,1.48
7417.00,1.48
7416.00,1.48
7415.00,1.48
7414.00,1.48
7413.00,1.48
7412.00,1.48
7411.00,1.48
7410.00,1.48
7409.00,1.48
7408.00,1.48
7407.00,1.48
7406.00,1.48
7405.00,1.48
7404.00,1.48
7403.00,1.48
7402.00,1.48
7401.00,1.48
7400.00,1.48
7399.00,1.48
7398.00,1.48
7397.00,1.48
7396.00,1.47
7395.00,1.47
7394.00,1.47
7393.00,1.47
7392.00,1.47
7391.00,1.47
7390.00,1.47
7389.00,1.47
7388.00,1.47
7387.00,1.47
7386.00,1.47
7385.00,1.47
7384.00,1.47
7383.00,1.46
7382.00,1.46
7381.00,1.46
7380.00,1.46
7379.00,1.46
7378.00,1.46
7377.00,1.46
7376.00,1.46
7375.00,1.46
7374.00,1.46
7373.00,1.46
7372.00,1.45
7371.00,1.45
7370.00,1.45
7369.00,1.45
7368.00,1.45
7367.00,1.45
7366.00,1.45
7365.00,1.45
7364.00,1.45
7363.00,1.45
7362.00,1.45
7361.00,1.45
7360.00,1.45
7359.00,1.45
7358.00,1.45
7357.00,1.45
7356.00,1.45
7355.00,1.45
7354.00,1.45
7353.00,1.45
7352.00,1.45
7351.00,1.45
7350.00,1.45
7349.00,1.45
7348.00,1.45
7347.00,1.45
7346.00,1.45
7345.00,1.45
7344.00,1.45
7343.00,1.45
7342.00,1.45
7341.00,1.45
7340.00,1.45
7339.00,1.45
7338.00,1.45
7337.00,1.45
7336.00,1.44
7335.00,1.44
7334.00,1.44
7333.00,1.44
7332.00,1.44
7331.00,1.44
7330.00,1.44
7329.00,1.44
7328.00,1.44
7327.00,1.44
7326.00,1.44
7325.00,1.44
7324.00,1.44
7323.00,1.43
7322.00,1.43
7321.00,1.43
7320.00,1.43
7319.00,1.43
7318.00,1.43
7317.00,1.43
7316.00,1.43
7315.00,1.43
7314.00,1.43
7313.00,1.42
7312.00,1.42
7311.00,1.42
7310.00,1.42
7309.00,1.42
7308.00,1.42
7307.00,1.42
7306.00,1.42
7305.00,1.42
7304.00,1.42
7303.00,1.42
7302.00,1.42
7301.00,1.42
7300.00,1.42
7299.00,1.42
7298.00,1.42
7297.00,1.42
7296.00,1.42
7295.00,1.42
7294.00,1.42
7293.00,1.42
7292.00,1.42
7291.00,1.42
7290.00,1.41
7289.00,1.41
7288.00,1.41
7287.00,1.41
7286.00,1.41
7285.00,1.41
7284.00,1.41
7283.00,1.41
7282.00,1.41
7281.00,1.40
7280.00,1.40
7279.00,1.40
7278.00,1.40
7277.00,1.40
7276.00,1.40
7275.00,1.40
7274.00,1.40
7273.00,1.40
7272.00,1.40
7271.00,1.39
7270.00,1.39
7269.00,1.39
7268.00,1.39
7267.00,1.39
7266.00,1.39
7265.00,1.39
7264.00,1.38
7263.00,1.38
7262.00,1.38
7261.00,1.38
7260.00,1.38
7259.00,1.38
7258.00,1.37
7257.00,1.37
7256.00,1.37
7255.00,1.37
7254.00,1.36
7253.00,1.36
7252.00,1.36
7251.00,1.36
7250.00,1.35
7249.00,1.35
7248.00,1.35
7247.00,1.35
7246.00,1.34
7245.00,1.34
7244.00,1.34
7243.00,1.34
7242.00,1.33
7241.00,1.33
7240.00,1.33
7239.00,1.33
7238.00,1.33
7237.00,1.32
7236.00,1.32
7235.00,1.32
7234.00,1.32
7233.00,1.31
7232.00,1.31
7231.00,1.31
7230.00,1.30
7229.00,1.30
7228.00,1.30
7227.00,1.29
7226.00,1.29
7225.00,1.28
7224.00,1.28
7223.00,1.28
7222.00,1.27
7221.00,1.27
7220.00,1.26
7219.00,1.26
7218.00,1.26
7217.00,1.25
7216.00,1.25
7215.00,1.24
7214.00,1.24
7213.00,1.24
7212.00,1.23
7211.00,1.23
7210.00,1.23
7209.00,1.22
7208.00,1.22
7207.00,1.22
7206.00,1.21
7205.00,1.21
7204.00,1.21
7203.00,1.20
7202.00,1.20
7201.00,1.20
7200.00,1.19
7199.00,1.19
7198.00,1.19
7197.00,1.18
7196.00,1.18
7195.00,1.18
7194.00,1.17
7193.00,1.17
7192.00,1.17
7191.00,1.16
7190.00,1.16
7189.00,1.16
7188.00,1.15
7187.00,1.15
7186.00,1.15
7185.00,1.14
7184.00,1.14
7183.00,1.14
7182.00,1.13
7181.00,1.13
7180.00,1.13
7179.00,1.12
7178.00,1.12
7177.00,1.12
7176.00,1.12
7175.00,1.11
7174.00,1.11
7173.00,1.11
7172.00,1.11
7171.00,1.10
7170.00,1.10
7169.00,1.10
7168.00,1.09
7167.00,1.09
7166.00,1.09
7165.00,1.08
7164.00,1.08
7163.00,1.08
7162.00,1.07
7161.00,1.07
7160.00,1.07
7159.00,1.07
7158.00,1.06
7157.00,1.06
7156.00,1.06
7155.00,1.06
7154.00,1.05
7153.00,1.05
7152.00,1.05
7151.00,1.05
7150.00,1.04
7149.00,1.04
7148.00,1.04
7147.00,1.04
7146.00,1.03
7145.00,1.03
7144.00,1.03
7143.00,1.03
7142.00,1.02
7141.00,1.02
7140.00,1.02
7139.00,1.02
7138.00,1.01
7137.00,1.01
7136.00,1.01
7135.00,1.01
7134.00,1.00
7133.00,1.00
7132.00,1.00
7131.00,1.00
7130.00,1.00
7129.00,0.99
7128.00,0.99
7127.00,0.99
7126.00,0.99
7125.00,0.98
7124.00,0.98
7123.00,0.98
7122.00,0.97
7121.00,0.97
7120.00,0.97
7119.00,0.96
7118.00,0.96
7117.00,0.96
7116.00,0.95
7115.00,0.95
7114.00,0.95
7113.00,0.95
7112.00,0.94
7111.00,0.94
7110.00,0.94
7109.00,0.93
7108.00,0.93
7107.00,0.93
7106.00,0.93
7105.00,0.92
7104.00,0.92
7103.00,0.92
7102.00,0.92
7101.00,0.91
7100.00,0.91
7099.00,0.91
7098.00,0.91
7097.00,0.90
7096.00,0.90
7095.00,0.90
7094.00,0.90
7093.00,0.90
7092.00,0.89
7091.00,0.89
7090.00,0.89
7089.00,0.89
7088.00,0.89
7087.00,0.88
7086.00,0.88
7085.00,0.88
7084.00,0.88
7083.00,0.88
7082.00,0.87
7081.00,0.87
7080.00,0.87
7079.00,0.87
7078.00,0.87
7077.00,0.86
7076.00,0.86
7075.00,0.86
7074.00,0.86
7073.00,0.86
7072.00,0.86
7071.00,0.86
7070.00,0.85
7069.00,0.85
7068.00,0.85
7067.00,0.85
7066.00,0.85
7065.00,0.85
7064.00,0.85
7063.00,0.85
7062.00,0.85
7061.00,0.84
7060.00,0.84
7059.00,0.84
7058.00,0.84
7057.00,0.84
7056.00,0.84
7055.00,0.83
7054.00,0.83
7053.00,0.83
7052.00,0.83
7051.00,0.83
7050.00,0.83
7049.00,0.82
7048.00,0.82
7047.00,0.82
7046.00,0.82
7045.00,0.82
7044.00,0.82
7043.00,0.82
7042.00,0.81
7041.00,0.81
7040.00,0.81
7039.00,0.81
7038.00,0.81
7037.00,0.81
7036.00,0.81
7035.00,0.81
7034.00,0.81
7033.00,0.81
7032.00,0.81
7031.00,0.81
7030.00,0.81
7029.00,0.81
7028.00,0.81
7027.00,0.81
7026.00,0.80
7025.00,0.80
7024.00,0.80
7023.00,0.80
7022.00,0.80
7021.00,0.80
7020.00,0.80
7019.00,0.80
7018.00,0.80
7017.00,0.79
7016.00,0.79
7015.00,0.79
7014.00,0.79
7013.00,0.79
7012.00,0.79
7011.00,0.79
7010.00,0.78
7009.00,0.78
7008.00,0.78
7007.00,0.78
7006.00,0.78
7005.00,0.78
7004.00,0.77
7003.00,0.77
7002.00,0.77
7001.00,0.77
7000.00,0.77
6999.00,0.77
6998.00,0.77
6997.00,0.77
6996.00,0.77
6995.00,0.77
6994.00,0.77
6993.00,0.77
6992.00,0.77
6991.00,0.77
6990.00,0.77
6989.00,0.77
6988.00,0.77
6987.00,0.77
6986.00,0.77
6985.00,0.77
6984.00,0.77
6983.00,0.77
6982.00,0.77
6981.00,0.77
6980.00,0.77
6979.00,0.77
6978.00,0.77
6977.00,0.77
6976.00,0.76
6975.00,0.76
6974.00,0.76
6973.00,0.76
6972.00,0.76
6971.00,0.76
6970.00,0.76
6969.00,0.76
6968.00,0.76
6967.00,0.76
6966.00,0.76
6965.00,0.76
6964.00,0.76
6963.00,0.76
6962.00,0.76
6961.00,0.76
6960.00,0.76
6959.00,0.76
6958.00,0.75
6957.00,0.75
6956.00,0.75
6955.00,0.75
6954.00,0.75
6953.00,0.75
6952.00,0.75
6951.00,0.75
6950.00,0.75
6949.00,0.75
6948.00,0.75
6947.00,0.75
6946.00,0.75
6945.00,0.75
6944.00,0.75
6943.00,0.75
6942.00,0.75
6941.00,0.75
6940.00,0.75
6939.00,0.75
6938.00,0.75
6937.00,0.75
6936.00,0.75
6935.00,0.75
6934.00,0.75
6933.00,0.75
6932.00,0.75
6931.00,0.75
6930.00,0.75
6929.00,0.75
6928.00,0.75
6927.00,0.75
6926.00,0.75
6925.00,0.75
6924.00,0.75
6923.00,0.75
6922.00,0.75
6921.00,0.75
6920.00,0.75
6919.00,0.75
6918.00,0.75
6917.00,0.75
6916.00,0.75
6915.00,0.75
6914.00,0.75
6913.00,0.75
6912.00,0.75
6911.00,0.75
6910.00,0.75
6909.00,0.75
6908.00,0.75
6907.00,0.75
6906.00,0.75
6905.00,0.74
6904.00,0.74
6903.00,0.74
6902.00,0.74
6901.00,0.74
6900.00,0.74
6899.00,0.74
6898.00,0.74
6897.00,0.74
6896.00,0.74
6895.00,0.74
6894.00,0.74
6893.00,0.74
6892.00,0.74
6891.00,0.74
6890.00,0.74
6889.00,0.74
6888.00,0.74
6887.00,0.74
6886.00,0.74
6885.00,0.74
6884.00,0.74
6883.00,0.74
6882.00,0.74
6881.00,0.74
6880.00,0.74
6879.00,0.74
6878.00,0.74
6877.00,0.74
6876.00,0.74
6875.00,0.74
6874.00,0.74
6873.00,0.74
6872.00,0.74
6871.00,0.74
6870.00,0.74
6869.00,0.74
6868.00,0.74
6867.00,0.74
6866.00,0.74
6865.00,0.74
6864.00,0.74
6863.00,0.74
6862.00,0.74
6861.00,0.74
6860.00,0.74
6859.00,0.73
6858.00,0.73
6857.00,0.73
6856.00,0.73
6855.00,0.73
6854.00,0.73
6853.00,0.73
6852.00,0.73
6851.00,0.73
6850.00,0.73
6849.00,0.73
6848.00,0.73
6847.00,0.73
6846.00,0.73
6845.00,0.73
6844.00,0.73
6843.00,0.73
6842.00,0.73
6841.00,0.74
6840.00,0.74
6839.00,0.74
6838.00,0.74
6837.00,0.74
6836.00,0.74
6835.00,0.74
6834.00,0.74
6833.00,0.74
6832.00,0.74
6831.00,0.74
6830.00,0.75
6829.00,0.75
6828.00,0.75
6827.00,0.75
6826.00,0.75
6825.00,0.75
6824.00,0.75
6823.00,0.75
6822.00,0.75
6821.00,0.75
6820.00,0.75
6819.00,0.75
6818.00,0.75
6817.00,0.75
6816.00,0.75
6815.00,0.75
6814.00,0.75
6813.00,0.75
6812.00,0.75
6811.00,0.75
6810.00,0.75
6809.00,0.75
6808.00,0.75
6807.00,0.75
6806.00,0.75
6805.00,0.75
6804.00,0.76
6803.00,0.76
6802.00,0.76
6801.00,0.76
6800.00,0.76
6799.00,0.76
6798.00,0.76
6797.00,0.76
6796.00,0.76
6795.00,0.76
6794.00,0.76
6793.00,0.76
6792.00,0.77
6791.00,0.77
6790.00,0.77
6789.00,0.77
6788.00,0.77
6787.00,0.77
6786.00,0.77
6785.00,0.77
6784.00,0.77
6783.00,0.77
6782.00,0.77
6781.00,0.77
6780.00,0.77
6779.00,0.77
6778.00,0.77
6777.00,0.77
6776.00,0.77
6775.00,0.77
6774.00,0.77
6773.00,0.77
6772.00,0.77
6771.00,0.77
6770.00,0.77
6769.00,0.77
6768.00,0.78
6767.00,0.78
6766.00,0.78
6765.00,0.78
6764.00,0.78
6763.00,0.78
6762.00,0.78
6761.00,0.78
6760.00,0.78
6759.00,0.78
6758.00,0.78
6757.00,0.78
6756.00,0.78
6755.00,0.79
6754.00,0.79
6753.00,0.79
6752.00,0.79
6751.00,0.79
6750.00,0.79
6749.00,0.79
6748.00,0.79
6747.00,0.79
6746.00,0.79
6745.00,0.79
6744.00,0.79
6743.00,0.79
6742.00,0.80
6741.00,0.80
6740.00,0.80
6739.00,0.80
6738.00,0.80
6737.00,0.80
6736.00,0.80
6735.00,0.80
6734.00,0.80
6733.00,0.81
6732.00,0.81
6731.00,0.81
6730.00,0.81
6729.00,0.81
6728.00,0.81
6727.00,0.81
6726.00,0.81
6725.00,0.81
6724.00,0.81
6723.00,0.81
6722.00,0.81
6721.00,0.81
6720.00,0.81
6719.00,0.81
6718.00,0.82
6717.00,0.82
6716.00,0.82
6715.00,0.82
6714.00,0.82
6713.00,0.82
6712.00,0.82
6711.00,0.82
6710.00,0.82
6709.00,0.83
6708.00,0.83
6707.00,0.83
6706.00,0.83
6705.00,0.83
6704.00,0.83
6703.00,0.83
6702.00,0.83
6701.00,0.83
6700.00,0.84
6699.00,0.84
6698.00,0.84
6697.00,0.84
6696.00,0.84
6695.00,0.84
6694.00,0.84
6693.00,0.84
6692.00,0.84
6691.00,0.85
6690.00,0.85
6689.00,0.85
6688.00,0.85
6687.00,0.85
6686.00,0.85
6685.00,0.85
6684.00,0.85
6683.00,0.85
6682.00,0.85
6681.00,0.86
6680.00,0.86
6679.00,0.86
6678.00,0.86
6677.00,0.86
6676.00,0.86
6675.00,0.86
6674.00,0.86
6673.00,0.86
6672.00,0.86
6671.00,0.86
6670.00,0.86
6669.00,0.86
6668.00,0.86
6667.00,0.86
6666.00,0.86
6665.00,0.86
6664.00,0.86
6663.00,0.86
6662.00,0.86
6661.00,0.86
6660.00,0.87
6659.00,0.87
6658.00,0.87
6657.00,0.87
6656.00,0.87
6655.00,0.87
6654.00,0.87
6653.00,0.88
6652.00,0.88
6651.00,0.88
6650.00,0.88
6649.00,0.88
6648.00,0.89
6647.00,0.89
6646.00,0.89
6645.00,0.89
6644.00,0.89
6643.00,0.89
6642.00,0.90
6641.00,0.90
6640.00,0.90
6639.00,0.90
6638.00,0.90
6637.00,0.90
6636.00,0.90
6635.00,0.90
6634.00,0.90
6633.00,0.91
6632.00,0.91
6631.00,0.91
6630.00,0.91
6629.00,0.91
6628.00,0.91
6627.00,0.91
6626.00,0.91
6625.00,0.91
6624.00,0.91
6623.00,0.91
6622.00,0.91
6621.00,0.91
6620.00,0.92
6619.00,0.92
6618.00,0.92
6617.00,0.92
6616.00,0.92
6615.00,0.92
6614.00,0.92
6613.00,0.92
6612.00,0.92
6611.00,0.92
6610.00,0.93
6609.00,0.93
6608.00,0.93
6607.00,0.93
6606.00,0.93
6605.00,0.93
6604.00,0.93
6603.00,0.93
6602.00,0.93
6601.00,0.94
6600.00,0.94
6599.00,0.94
6598.00,0.94
6597.00,0.94
6596.00,0.94
6595.00,0.94
6594.00,0.94
6593.00,0.94
6592.00,0.95
6591.00,0.95
6590.00,0.95
6589.00,0.95
6588.00,0.95
6587.00,0.95
6586.00,0.96
6585.00,0.96
6584.00,0.96
6583.00,0.96
6582.00,0.96
6581.00,0.96
6580.00,0.96
6579.00,0.96
6578.00,0.97
6577.00,0.97
6576.00,0.97
6575.00,0.97
6574.00,0.97
6573.00,0.97
6572.00,0.97
6571.00,0.97
6570.00,0.97
6569.00,0.97
6568.00,0.97
6567.00,0.97
6566.00,0.97
6565.00,0.97
6564.00,0.97
6563.00,0.97
6562.00,0.98
6561.00,0.98
6560.00,0.98
6559.00,0.98
6558.00,0.98
6557.00,0.98
6556.00,0.98
6555.00,0.98
6554.00,0.98
6553.00,0.98
6552.00,0.99
6551.00,0.99
6550.00,0.99
6549.00,0.99
6548.00,0.99
6547.00,0.99
6546.00,0.99
6545.00,0.99
6544.00,0.99
6543.00,0.99
6542.00,1.00
6541.00,1.00
6540.00,1.00
6539.00,1.00
6538.00,1.00
6537.00,1.00
6536.00,1.00
6535.00,1.00
6534.00,1.00
6533.00,1.00
6532.00,1.00
6531.00,1.00
6530.00,1.01
6529.00,1.01
6528.00,1.01
6527.00,1.01
6526.00,1.01
6525.00,1.01
6524.00,1.01
6523.00,1.01
6522.00,1.01
6521.00,1.02
6520.00,1.02
6519.00,1.02
6518.00,1.02
6517.00,1.02
6516.00,1.02
6515.00,1.02
6514.00,1.02
6513.00,1.03
6512.00,1.03
6511.00,1.03
6510.00,1.03
6509.00,1.03
6508.00,1.03
6507.00,1.03
6506.00,1.03
6505.00,1.03
6504.00,1.03
6503.00,1.03
6502.00,1.03
6501.00,1.03
6500.00,1.04
6499.00,1.04
6498.00,1.04
6497.00,1.04
6496.00,1.04
6495.00,1.04
6494.00,1.04
6493.00,1.04
6492.00,1.04
6491.00,1.04
6490.00,1.04
6489.00,1.04
6488.00,1.05
6487.00,1.05
6486.00,1.05
6485.00,1.05
6484.00,1.05
6483.00,1.05
6482.00,1.05
6481.00,1.05
6480.00,1.05
6479.00,1.05
6478.00,1.05
6477.00,1.05
6476.00,1.05
6475.00,1.05
6474.00,1.05
6473.00,1.05
6472.00,1.05
6471.00,1.05
6470.00,1.05
6469.00,1.05
6468.00,1.05
6467.00,1.05
6466.00,1.05
6465.00,1.05
6464.00,1.05
6463.00,1.05
6462.00,1.05
6461.00,1.06
6460.00,1.06
6459.00,1.06
6458.00,1.06
6457.00,1.06
6456.00,1.06
6455.00,1.06
6454.00,1.06
6453.00,1.06
6452.00,1.06
6451.00,1.06
6450.00,1.06
6449.00,1.07
6448.00,1.07
6447.00,1.07
6446.00,1.07
6445.00,1.07
6444.00,1.07
6443.00,1.07
6442.00,1.07
6441.00,1.07
6440.00,1.07
6439.00,1.07
6438.00,1.08
6437.00,1.08
6436.00,1.08
6435.00,1.08
6434.00,1.08
6433.00,1.08
6432.00,1.08
6431.00,1.08
6430.00,1.08
6429.00,1.08
6428.00,1.08
6427.00,1.08
6426.00,1.08
6425.00,1.09
6424.00,1.09
6423.00,1.09
6422.00,1.09
6421.00,1.09
6420.00,1.09
6419.00,1.09
6418.00,1.09
6417.00,1.09
6416.00,1.09
6415.00,1.09
6414.00,1.09
6413.00,1.09
6412.00,1.09
6411.00,1.09
6410.00,1.09
6409.00,1.09
6408.00,1.09
6407.00,1.09
6406.00,1.09
6405.00,1.09
6404.00,1.09
6403.00,1.09
6402.00,1.10
6401.00,1.10
6400.00,1.10
6399.00,1.10
6398.00,1.10
6397.00,1.10
6396.00,1.10
6395.00,1.11
6394.00,1.11
6393.00,1.11
6392.00,1.11
6391.00,1.11
6390.00,1.11
6389.00,1.12
6388.00,1.12
6387.00,1.12
6386.00,1.12
6385.00,1.12
6384.00,1.12
6383.00,1.12
6382.00,1.12
6381.00,1.12
6380.00,1.12
6379.00,1.12
6378.00,1.12
6377.00,1.12
6376.00,1.12
6375.00,1.12
6374.00,1.12
6373.00,1.12
6372.00,1.12
6371.00,1.12
6370.00,1.12
6369.00,1.12
6368.00,1.12
6367.00,1.12
6366.00,1.12
6365.00,1.13
6364.00,1.13
6363.00,1.13
6362.00,1.13
6361.00,1.13
6360.00,1.13
6359.00,1.13
6358.00,1.13
6357.00,1.13
6356.00,1.14
6355.00,1.14
6354.00,1.14
6353.00,1.14
6352.00,1.14
6351.00,1.14
6350.00,1.14
6349.00,1.15
6348.00,1.15
6347.00,1.15
6346.00,1.15
6345.00,1.15
6344.00,1.15
6343.00,1.15
6342.00,1.15
6341.00,1.16
6340.00,1.16
6339.00,1.16
6338.00,1.16
6337.00,1.16
6336.00,1.16
6335.00,1.16
6334.00,1.16
6333.00,1.16
6332.00,1.16
6331.00,1.16
6330.00,1.17
6329.00,1.17
6328.00,1.17
6327.00,1.17
6326.00,1.17
6325.00,1.17
6324.00,1.17
6323.00,1.17
6322.00,1.17
6321.00,1.17
6320.00,1.18
6319.00,1.18
6318.00,1.18
6317.00,1.18
6316.00,1.18
6315.00,1.18
6314.00,1.18
6313.00,1.18
6312.00,1.18
6311.00,1.18
6310.00,1.19
6309.00,1.19
6308.00,1.19
6307.00,1.19
6306.00,1.19
6305.00,1.19
6304.00,1.19
6303.00,1.19
6302.00,1.19
6301.00,1.20
6300.00,1.20
6299.00,1.20
6298.00,1.20
6297.00,1.20
6296.00,1.20
6295.00,1.20
6294.00,1.20
6293.00,1.20
6292.00,1.20
6291.00,1.21
6290.00,1.21
6289.00,1.21
6288.00,1.21
6287.00,1.21
6286.00,1.21
6285.00,1.21
6284.00,1.21
6283.00,1.21
6282.00,1.22
6281.00,1.22
6280.00,1.22
6279.00,1.22
6278.00,1.22
6277.00,1.22
6276.00,1.22
6275.00,1.22
6274.00,1.22
6273.00,1.23
6272.00,1.23
6271.00,1.23
6270.00,1.23
6269.00,1.23
6268.00,1.23
6267.00,1.23
6266.00,1.23
6265.00,1.23
6264.00,1.23
6263.00,1.23
6262.00,1.23
6261.00,1.23
6260.00,1.24
6259.00,1.24
6258.00,1.24
6257.00,1.24
6256.00,1.24
6255.00,1.24
6254.00,1.24
6253.00,1.25
6252.00,1.25
6251.00,1.25
6250.00,1.25
6249.00,1.25
6248.00,1.25
6247.00,1.25
6246.00,1.26
6245.00,1.26
6244.00,1.26
6243.00,1.26
6242.00,1.26
6241.00,1.26
6240.00,1.26
6239.00,1.26
6238.00,1.27
6237.00,1.27
6236.00,1.27
6235.00,1.27
6234.00,1.27
6233.00,1.27
6232.00,1.27
6231.00,1.28
6230.00,1.28
6229.00,1.28
6228.00,1.28
6227.00,1.28
6226.00,1.28
6225.00,1.28
6224.00,1.29
6223.00,1.29
6222.00,1.29
6221.00,1.29
6220.00,1.29
6219.00,1.29
6218.00,1.29
6217.00,1.29
6216.00,1.29
6215.00,1.29
6214.00,1.30
6213.00,1.30
6212.00,1.30
6211.00,1.30
6210.00,1.30
6209.00,1.30
6208.00,1.30
6207.00,1.30
6206.00,1.30
6205.00,1.30
6204.00,1.30
6203.00,1.30
6202.00,1.31
6201.00,1.31
6200.00,1.31
6199.00,1.31
6198.00,1.31
6197.00,1.31
6196.00,1.31
6195.00,1.32
6194.00,1.32
6193.00,1.32
6192.00,1.32
6191.00,1.32
6190.00,1.32
6189.00,1.33
6188.00,1.33
6187.00,1.33
6186.00,1.33
6185.00,1.33
6184.00,1.34
6183.00,1.34
6182.00,1.34
6181.00,1.34
6180.00,1.34
6179.00,1.34
6178.00,1.35
6177.00,1.35
6176.00,1.35
6175.00,1.35
6174.00,1.35
6173.00,1.35
6172.00,1.35
6171.00,1.36
6170.00,1.36
6169.00,1.36
6168.00,1.36
6167.00,1.36
6166.00,1.36
6165.00,1.36
6164.00,1.37
6163.00,1.37
6162.00,1.37
6161.00,1.37
6160.00,1.37
6159.00,1.37
6158.00,1.37
6157.00,1.38
6156.00,1.38
6155.00,1.38
6154.00,1.38
6153.00,1.38
6152.00,1.38
6151.00,1.38
6150.00,1.39
6149.00,1.39
6148.00,1.39
6147.00,1.39
6146.00,1.39
6145.00,1.39
6144.00,1.39
6143.00,1.40
6142.00,1.40
6141.00,1.40
6140.00,1.40
6139.00,1.40
6138.00,1.40
6137.00,1.40
6136.00,1.40
6135.00,1.41
6134.00,1.41
6133.00,1.41
6132.00,1.41
6131.00,1.41
6130.00,1.41
6129.00,1.41
6128.00,1.41
6127.00,1.41
6126.00,1.42
6125.00,1.42
6124.00,1.42
6123.00,1.42
6122.00,1.42
6121.00,1.42
6120.00,1.42
6119.00,1.42
6118.00,1.43
6117.00,1.43
6116.00,1.43
6115.00,1.43
6114.00,1.43
6113.00,1.43
6112.00,1.43
6111.00,1.43
6110.00,1.44
6109.00,1.44
6108.00,1.44
6107.00,1.44
6106.00,1.44
6105.00,1.44
6104.00,1.44
6103.00,1.44
6102.00,1.45
6101.00,1.45
6100.00,1.45
6099.00,1.45
6098.00,1.45
6097.00,1.45
6096.00,1.45
6095.00,1.45
6094.00,1.46
6093.00,1.46
6092.00,1.46
6091.00,1.46
6090.00,1.46
6089.00,1.46
6088.00,1.46
6087.00,1.46
6086.00,1.46
6085.00,1.46
6084.00,1.47
6083.00,1.47
6082.00,1.47
6081.00,1.47
6080.00,1.47
6079.00,1.47
6078.00,1.47
6077.00,1.47
6076.00,1.47
6075.00,1.48
6074.00,1.48
6073.00,1.48
6072.00,1.48
6071.00,1.48
6070.00,1.48
6069.00,1.48
6068.00,1.48
6067.00,1.49
6066.00,1.49
6065.00,1.49
6064.00,1.49
6063.00,1.49
6062.00,1.49
6061.00,1.49
6060.00,1.49
6059.00,1.49
6058.00,1.49
6057.00,1.49
6056.00,1.49
6055.00,1.49
6054.00,1.49
6053.00,1.49
6052.00,1.49
6051.00,1.49
6050.00,1.49
6049.00,1.50
6048.00,1.50
6047.00,1.50
6046.00,1.50
6045.00,1.50
6044.00,1.50
6043.00,1.50
6042.00,1.50
6041.00,1.50
6040.00,1.50
6039.00,1.50
6038.00,1.50
6037.00,1.50
6036.00,1.50
6035.00,1.50
6034.00,1.51
6033.00,1.51
6032.00,1.51
6031.00,1.51
6030.00,1.51
6029.00,1.51
6028.00,1.51
6027.00,1.51
6026.00,1.51
6025.00,1.51
6024.00,1.52
6023.00,1.52
6022.00,1.52
6021.00,1.52
6020.00,1.52
6019.00,1.52
6018.00,1.52
6017.00,1.52
6016.00,1.52
6015.00,1.52
6014.00,1.52
6013.00,1.52
6012.00,1.52
6011.00,1.52
6010.00,1.52
6009.00,1.52
6008.00,1.52
6007.00,1.52
6006.00,1.52
6005.00,1.52
6004.00,1.52
6003.00,1.52
6002.00,1.52
6001.00,1.52
6000.00,1.51
5999.00,1.51
5998.00,1.51
5997.00,1.51
5996.00,1.51
5995.00,1.51
5994.00,1.51
5993.00,1.51
5992.00,1.50
5991.00,1.50
5990.00,1.50
5989.00,1.50
5988.00,1.50
5987.00,1.49
5986.00,1.49
5985.00,1.49
5984.00,1.49
5983.00,1.48
5982.00,1.48
5981.00,1.48
5980.00,1.47
5979.00,1.47
5978.00,1.47
5977.00,1.46
5976.00,1.46
5975.00,1.46
5974.00,1.45
5973.00,1.45
5972.00,1.44
5971.00,1.44
5970.00,1.43
5969.00,1.43
5968.00,1.42
5967.00,1.42
5966.00,1.41
5965.00,1.41
5964.00,1.40
5963.00,1.39
5962.00,1.39
5961.00,1.38
5960.00,1.38
5959.00,1.37
5958.00,1.36
5957.00,1.36
5956.00,1.35
5955.00,1.35
5954.00,1.34
5953.00,1.33
5952.00,1.33
5951.00,1.32
5950.00,1.32
5949.00,1.32
5948.00,1.31
5947.00,1.31
5946.00,1.30
5945.00,1.30
5944.00,1.30
5943.00,1.30
5942.00,1.29
5941.00,1.29
5940.00,1.29
5939.00,1.29
5938.00,1.29
5937.00,1.29
5936.00,1.29
5935.00,1.29
5934.00,1.28
5933.00,1.28
5932.00,1.28
5931.00,1.28
5930.00,1.28
5929.00,1.28
5928.00,1.28
5927.00,1.28
5926.00,1.28
5925.00,1.27
5924.00,1.27
5923.00,1.27
5922.00,1.27
5921.00,1.26
5920.00,1.26
5919.00,1.26
5918.00,1.26
5917.00,1.25
5916.00,1.25
5915.00,1.25
5914.00,1.24
5913.00,1.24
5912.00,1.24
5911.00,1.24
5910.00,1.23
5909.00,1.23
5908.00,1.23
5907.00,1.23
5906.00,1.23
5905.00,1.22
5904.00,1.22
5903.00,1.22
5902.00,1.22
5901.00,1.22
5900.00,1.22
5899.00,1.22
5898.00,1.22
5897.00,1.23
5896.00,1.23
5895.00,1.23
5894.00,1.23
5893.00,1.23
5892.00,1.24
5891.00,1.24
5890.00,1.24
5889.00,1.25
5888.00,1.25
5887.00,1.25
5886.00,1.25
5885.00,1.26
5884.00,1.26
5883.00,1.26
5882.00,1.27
5881.00,1.27
5880.00,1.27
5879.00,1.27
5878.00,1.28
5877.00,1.28
5876.00,1.28
5875.00,1.28
5874.00,1.28
5873.00,1.29
5872.00,1.29
5871.00,1.29
5870.00,1.29
5869.00,1.29
5868.00,1.29
5867.00,1.30
5866.00,1.30
5865.00,1.30
5864.00,1.30
5863.00,1.30
5862.00,1.30
5861.00,1.30
5860.00,1.31
5859.00,1.31
5858.00,1.31
5857.00,1.31
5856.00,1.31
5855.00,1.31
5854.00,1.31
5853.00,1.31
5852.00,1.31
5851.00,1.31
5850.00,1.31
5849.00,1.31
5848.00,1.31
5847.00,1.31
5846.00,1.31
5845.00,1.31
5844.00,1.31
5843.00,1.31
5842.00,1.31
5841.00,1.31
5840.00,1.31
5839.00,1.31
5838.00,1.31
5837.00,1.31
5836.00,1.31
5835.00,1.31
5834.00,1.31
5833.00,1.31
5832.00,1.31
5831.00,1.31
5830.00,1.31
5829.00,1.31
5828.00,1.31
5827.00,1.31
5826.00,1.31
5825.00,1.31
5824.00,1.31
5823.00,1.31
5822.00,1.32
5821.00,1.32
5820.00,1.32
5819.00,1.32
5818.00,1.32
5817.00,1.32
5816.00,1.32
5815.00,1.32
5814.00,1.32
5813.00,1.32
5812.00,1.32
5811.00,1.32
5810.00,1.32
5809.00,1.32
5808.00,1.32
5807.00,1.32
5806.00,1.32
5805.00,1.32
5804.00,1.32
5803.00,1.31
5802.00,1.31
5801.00,1.31
5800.00,1.31
5799.00,1.31
5798.00,1.31
5797.00,1.30
5796.00,1.30
5795.00,1.30
5794.00,1.30
5793.00,1.30
5792.00,1.29
5791.00,1.29
5790.00,1.29
5789.00,1.29
5788.00,1.28
5787.00,1.28
5786.00,1.28
5785.00,1.28
5784.00,1.28
5783.00,1.27
5782.00,1.27
5781.00,1.27
5780.00,1.27
5779.00,1.27
5778.00,1.27
5777.00,1.27
5776.00,1.27
5775.00,1.27
5774.00,1.27
5773.00,1.27
5772.00,1.27
5771.00,1.27
5770.00,1.27
5769.00,1.27
5768.00,1.27
5767.00,1.27
5766.00,1.28
5765.00,1.28
5764.00,1.28
5763.00,1.28
5762.00,1.29
5761.00,1.29
5760.00,1.29
5759.00,1.29
5758.00,1.30
5757.00,1.30
5756.00,1.30
5755.00,1.30
5754.00,1.31
5753.00,1.31
5752.00,1.31
5751.00,1.31
5750.00,1.32
5749.00,1.32
5748.00,1.32
5747.00,1.33
5746.00,1.33
5745.00,1.33
5744.00,1.33
5743.00,1.34
5742.00,1.34
5741.00,1.34
5740.00,1.34
5739.00,1.35
5738.00,1.35
5737.00,1.35
5736.00,1.35
5735.00,1.35
5734.00,1.35
5733.00,1.36
5732.00,1.36
5731.00,1.36
5730.00,1.36
5729.00,1.36
5728.00,1.36
5727.00,1.36
5726.00,1.36
5725.00,1.36
5724.00,1.36
5723.00,1.36
5722.00,1.36
5721.00,1.36
5720.00,1.36
5719.00,1.36
5718.00,1.36
5717.00,1.36
5716.00,1.36
5715.00,1.36
5714.00,1.36
5713.00,1.36
5712.00,1.36
5711.00,1.36
5710.00,1.36
5709.00,1.36
5708.00,1.36
5707.00,1.36
5706.00,1.36
5705.00,1.35
5704.00,1.35
5703.00,1.35
5702.00,1.35
5701.00,1.35
5700.00,1.35
5699.00,1.35
5698.00,1.35
5697.00,1.35
5696.00,1.34
5695.00,1.34
5694.00,1.34
5693.00,1.34
5692.00,1.34
5691.00,1.34
5690.00,1.34
5689.00,1.33
5688.00,1.33
5687.00,1.33
5686.00,1.33
5685.00,1.33
5684.00,1.33
5683.00,1.33
5682.00,1.33
5681.00,1.32
5680.00,1.32
5679.00,1.32
5678.00,1.32
5677.00,1.32
5676.00,1.32
5675.00,1.32
5674.00,1.32
5673.00,1.32
5672.00,1.32
5671.00,1.32
5670.00,1.32
5669.00,1.32
5668.00,1.32
5667.00,1.32
5666.00,1.32
5665.00,1.32
5664.00,1.33
5663.00,1.33
5662.00,1.33
5661.00,1.33
5660.00,1.33
5659.00,1.33
5658.00,1.34
5657.00,1.34
5656.00,1.34
5655.00,1.34
5654.00,1.34
5653.00,1.35
5652.00,1.35
5651.00,1.35
5650.00,1.35
5649.00,1.35
5648.00,1.35
5647.00,1.35
5646.00,1.36
5645.00,1.36
5644.00,1.36
5643.00,1.36
5642.00,1.36
5641.00,1.36
5640.00,1.36
5639.00,1.36
5638.00,1.36
5637.00,1.36
5636.00,1.37
5635.00,1.37
5634.00,1.37
5633.00,1.37
5632.00,1.37
5631.00,1.37
5630.00,1.37
5629.00,1.37
5628.00,1.38
5627.00,1.38
5626.00,1.38
5625.00,1.38
5624.00,1.38
5623.00,1.38
5622.00,1.38
5621.00,1.39
5620.00,1.39
5619.00,1.39
5618.00,1.39
5617.00,1.39
5616.00,1.39
5615.00,1.39
5614.00,1.39
5613.00,1.39
5612.00,1.40
5611.00,1.40
5610.00,1.40
5609.00,1.40
5608.00,1.40
5607.00,1.40
5606.00,1.40
5605.00,1.40
5604.00,1.41
5603.00,1.41
5602.00,1.41
5601.00,1.41
5600.00,1.41
5599.00,1.42
5598.00,1.42
5597.00,1.42
5596.00,1.42
5595.00,1.42
5594.00,1.43
5593.00,1.43
5592.00,1.43
5591.00,1.43
5590.00,1.43
5589.00,1.43
5588.00,1.44
5587.00,1.44
5586.00,1.44
5585.00,1.44
5584.00,1.44
5583.00,1.44
5582.00,1.44
5581.00,1.45
5580.00,1.45
5579.00,1.45
5578.00,1.45
5577.00,1.45
5576.00,1.45
5575.00,1.45
5574.00,1.45
5573.00,1.45
5572.00,1.46
5571.00,1.46
5570.00,1.46
5569.00,1.46
5568.00,1.46
5567.00,1.46
5566.00,1.46
5565.00,1.46
5564.00,1.47
5563.00,1.47
5562.00,1.47
5561.00,1.47
5560.00,1.47
5559.00,1.47
5558.00,1.47
5557.00,1.48
5556.00,1.48
5555.00,1.48
5554.00,1.48
5553.00,1.48
5552.00,1.48
5551.00,1.48
5550.00,1.49
5549.00,1.49
5548.00,1.49
5547.00,1.49
5546.00,1.49
5545.00,1.49
5544.00,1.49
5543.00,1.49
5542.00,1.49
5541.00,1.49
5540.00,1.50
5539.00,1.50
5538.00,1.50
5537.00,1.50
5536.00,1.50
5535.00,1.50
5534.00,1.50
5533.00,1.50
5532.00,1.50
5531.00,1.50
5530.00,1.51
5529.00,1.51
5528.00,1.51
5527.00,1.51
5526.00,1.51
5525.00,1.51
5524.00,1.51
5523.00,1.51
5522.00,1.51
5521.00,1.51
5520.00,1.51
5519.00,1.51
5518.00,1.51
5517.00,1.51
5516.00,1.51
5515.00,1.51
5514.00,1.51
5513.00,1.51
5512.00,1.51
5511.00,1.51
5510.00,1.51
5509.00,1.51
5508.00,1.51
5507.00,1.51
5506.00,1.51
5505.00,1.51
5504.00,1.51
5503.00,1.51
5502.00,1.51
5501.00,1.52
5500.00,1.52
5499.00,1.52
5498.00,1.52
5497.00,1.52
5496.00,1.52
5495.00,1.52
5494.00,1.52
5493.00,1.52
5492.00,1.52
5491.00,1.53
5490.00,1.53
5489.00,1.53
5488.00,1.53
5487.00,1.53
5486.00,1.53
5485.00,1.53
5484.00,1.53
5483.00,1.54
5482.00,1.54
5481.00,1.54
5480.00,1.54
5479.00,1.54
5478.00,1.54
5477.00,1.54
5476.00,1.54
5475.00,1.54
5474.00,1.55
5473.00,1.55
5472.00,1.55
5471.00,1.55
5470.00,1.55
5469.00,1.55
5468.00,1.55
5467.00,1.55
5466.00,1.55
5465.00,1.55
5464.00,1.55
5463.00,1.55
5462.00,1.56
5461.00,1.56
5460.00,1.56
5459.00,1.56
5458.00,1.56
5457.00,1.56
5456.00,1.56
5455.00,1.56
5454.00,1.56
5453.00,1.56
5452.00,1.56
5451.00,1.56
5450.00,1.56
5449.00,1.56
5448.00,1.56
5447.00,1.56
5446.00,1.56
5445.00,1.56
5444.00,1.56
5443.00,1.56
5442.00,1.56
5441.00,1.56
5440.00,1.56
5439.00,1.56
5438.00,1.56
5437.00,1.56
5436.00,1.56
5435.00,1.56
5434.00,1.56
5433.00,1.56
5432.00,1.56
5431.00,1.56
5430.00,1.56
5429.00,1.56
5428.00,1.56
5427.00,1.56
5426.00,1.56
5425.00,1.56
5424.00,1.56
5423.00,1.56
5422.00,1.56
5421.00,1.56
5420.00,1.56
5419.00,1.56
5418.00,1.56
5417.00,1.56
5416.00,1.56
5415.00,1.56
5414.00,1.56
5413.00,1.56
5412.00,1.56
5411.00,1.56
5410.00,1.56
5409.00,1.56
5408.00,1.56
5407.00,1.56
5406.00,1.56
5405.00,1.56
5404.00,1.56
5403.00,1.56
5402.00,1.56
5401.00,1.56
5400.00,1.56
5399.00,1.56
5398.00,1.56
5397.00,1.56
5396.00,1.56
5395.00,1.55
5394.00,1.55
5393.00,1.55
5392.00,1.55
5391.00,1.55
5390.00,1.55
5389.00,1.54
5388.00,1.54
5387.00,1.54
5386.00,1.54
5385.00,1.53
5384.00,1.53
5383.00,1.53
5382.00,1.53
5381.00,1.52
5380.00,1.52
5379.00,1.52
5378.00,1.51
5377.00,1.51
5376.00,1.51
5375.00,1.50
5374.00,1.50
5373.00,1.50
5372.00,1.49
5371.00,1.49
5370.00,1.48
5369.00,1.48
5368.00,1.47
5367.00,1.47
5366.00,1.46
5365.00,1.45
5364.00,1.45
5363.00,1.44
5362.00,1.44
5361.00,1.43
5360.00,1.42
5359.00,1.41
5358.00,1.41
5357.00,1.40
5356.00,1.39
5355.00,1.38
5354.00,1.38
5353.00,1.37
5352.00,1.36
5351.00,1.35
5350.00,1.34
5349.00,1.33
5348.00,1.32
5347.00,1.31
5346.00,1.31
5345.00,1.30
5344.00,1.29
5343.00,1.28
5342.00,1.27
5341.00,1.26
5340.00,1.24
5339.00,1.23
5338.00,1.22
5337.00,1.21
5336.00,1.20
5335.00,1.19
5334.00,1.18
5333.00,1.17
5332.00,1.16
5331.00,1.15
5330.00,1.14
5329.00,1.13
5328.00,1.11
5327.00,1.10
5326.00,1.09
5325.00,1.08
5324.00,1.07
5323.00,1.06
5322.00,1.05
5321.00,1.04
5320.00,1.03
5319.00,1.02
5318.00,1.01
5317.00,1.00
5316.00,0.99
5315.00,0.98
5314.00,0.97
5313.00,0.96
5312.00,0.95
5311.00,0.94
5310.00,0.93
5309.00,0.92
5308.00,0.91
5307.00,0.90
5306.00,0.90
5305.00,0.89
5304.00,0.88
5303.00,0.88
5302.00,0.87
5301.00,0.86
5300.00,0.86
5299.00,0.85
5298.00,0.85
5297.00,0.84
5296.00,0.84
5295.00,0.83
5294.00,0.83
5293.00,0.82
5292.00,0.82
5291.00,0.81
5290.00,0.81
5289.00,0.81
5288.00,0.80
5287.00,0.80
5286.00,0.80
5285.00,0.80
5284.00,0.79
5283.00,0.79
5282.00,0.79
5281.00,0.79
5280.00,0.78
5279.00,0.78
5278.00,0.78
5277.00,0.78
5276.00,0.78
5275.00,0.78
5274.00,0.78
5273.00,0.78
5272.00,0.78
5271.00,0.77
5270.00,0.77
5269.00,0.77
5268.00,0.77
5267.00,0.77
5266.00,0.77
5265.00,0.77
5264.00,0.77
5263.00,0.77
5262.00,0.77
5261.00,0.77
5260.00,0.77
5259.00,0.77
5258.00,0.77
5257.00,0.77
5256.00,0.77
5255.00,0.76
5254.00,0.76
5253.00,0.76
5252.00,0.76
5251.00,0.76
5250.00,0.76
5249.00,0.76
5248.00,0.76
5247.00,0.76
5246.00,0.76
5245.00,0.76
5244.00,0.76
5243.00,0.76
5242.00,0.76
5241.00,0.76
5240.00,0.76
5239.00,0.76
5238.00,0.76
5237.00,0.76
5236.00,0.76
5235.00,0.76
5234.00,0.76
5233.00,0.76
5232.00,0.76
5231.00,0.76
5230.00,0.76
5229.00,0.76
5228.00,0.76
5227.00,0.76
5226.00,0.76
5225.00,0.76
5224.00,0.76
5223.00,0.76
5222.00,0.76
5221.00,0.76
5220.00,0.76
5219.00,0.77
5218.00,0.77
5217.00,0.77
5216.00,0.77
5215.00,0.77
5214.00,0.77
5213.00,0.77
5212.00,0.77
5211.00,0.77
5210.00,0.77
5209.00,0.77
5208.00,0.77
5207.00,0.77
5206.00,0.77
5205.00,0.77
5204.00,0.77
5203.00,0.77
5202.00,0.77
5201.00,0.77
5200.00,0.78
5199.00,0.78
5198.00,0.78
5197.00,0.78
5196.00,0.78
5195.00,0.78
5194.00,0.78
5193.00,0.78
5192.00,0.78
5191.00,0.78
5190.00,0.78
5189.00,0.78
5188.00,0.78
5187.00,0.78
5186.00,0.78
5185.00,0.78
5184.00,0.78
5183.00,0.78
5182.00,0.78
5181.00,0.78
5180.00,0.78
5179.00,0.78
5178.00,0.78
5177.00,0.78
5176.00,0.78
5175.00,0.78
5174.00,0.78
5173.00,0.78
5172.00,0.78
5171.00,0.79
5170.00,0.79
5169.00,0.79
5168.00,0.79
5167.00,0.79
5166.00,0.79
5165.00,0.79
5164.00,0.79
5163.00,0.79
5162.00,0.79
5161.00,0.79
5160.00,0.79
5159.00,0.79
5158.00,0.80
5157.00,0.80
5156.00,0.80
5155.00,0.80
5154.00,0.80
5153.00,0.80
5152.00,0.80
5151.00,0.80
5150.00,0.80
5149.00,0.80
5148.00,0.80
5147.00,0.80
5146.00,0.80
5145.00,0.80
5144.00,0.80
5143.00,0.80
5142.00,0.80
5141.00,0.81
5140.00,0.81
5139.00,0.81
5138.00,0.81
5137.00,0.81
5136.00,0.81
5135.00,0.81
5134.00,0.81
5133.00,0.81
5132.00,0.81
5131.00,0.81
5130.00,0.81
5129.00,0.81
5128.00,0.81
5127.00,0.81
5126.00,0.82
5125.00,0.82
5124.00,0.82
5123.00,0.82
5122.00,0.82
5121.00,0.82
5120.00,0.82
5119.00,0.82
5118.00,0.82
5117.00,0.82
5116.00,0.82
5115.00,0.82
5114.00,0.83
5113.00,0.83
5112.00,0.83
5111.00,0.83
5110.00,0.83
5109.00,0.83
5108.00,0.83
5107.00,0.83
5106.00,0.83
5105.00,0.83
5104.00,0.83
5103.00,0.83
5102.00,0.83
5101.00,0.83
5100.00,0.83
5099.00,0.83
5098.00,0.83
5097.00,0.83
5096.00,0.83
5095.00,0.83
5094.00,0.83
5093.00,0.83
5092.00,0.83
5091.00,0.83
5090.00,0.84
5089.00,0.84
5088.00,0.84
5087.00,0.84
5086.00,0.84
5085.00,0.84
5084.00,0.84
5083.00,0.84
5082.00,0.84
5081.00,0.84
5080.00,0.84
5079.00,0.84
5078.00,0.84
5077.00,0.84
5076.00,0.84
5075.00,0.84
5074.00,0.84
5073.00,0.84
5072.00,0.84
5071.00,0.84
5070.00,0.85
5069.00,0.85
5068.00,0.85
5067.00,0.85
5066.00,0.85
5065.00,0.85
5064.00,0.85
5063.00,0.85
5062.00,0.85
5061.00,0.85
5060.00,0.85
5059.00,0.85
5058.00,0.85
5057.00,0.85
5056.00,0.85
5055.00,0.85
5054.00,0.86
5053.00,0.86
5052.00,0.86
5051.00,0.86
5050.00,0.86
5049.00,0.86
5048.00,0.86
5047.00,0.86
5046.00,0.86
5045.00,0.86
5044.00,0.86
5043.00,0.87
5042.00,0.87
5041.00,0.87
5040.00,0.87
5039.00,0.87
5038.00,0.87
5037.00,0.87
5036.00,0.87
5035.00,0.87
5034.00,0.87
5033.00,0.88
5032.00,0.88
5031.00,0.88
5030.00,0.88
5029.00,0.88
5028.00,0.88
5027.00,0.88
5026.00,0.88
5025.00,0.88
5024.00,0.88
5023.00,0.88
5022.00,0.88
5021.00,0.89
5020.00,0.89
5019.00,0.89
5018.00,0.89
5017.00,0.89
5016.00,0.89
5015.00,0.89
5014.00,0.89
5013.00,0.89
5012.00,0.89
5011.00,0.90
5010.00,0.90
5009.00,0.90
5008.00,0.90
5007.00,0.90
5006.00,0.90
5005.00,0.90
5004.00,0.90
5003.00,0.91
5002.00,0.91
5001.00,0.91
5000.00,0.91
4999.00,0.91
4998.00,0.91
4997.00,0.91
4996.00,0.92
4995.00,0.92
4994.00,0.92
4993.00,0.92
4992.00,0.92
4991.00,0.92
4990.00,0.92
4989.00,0.92
4988.00,0.92
4987.00,0.92
4986.00,0.92
4985.00,0.93
4984.00,0.93
4983.00,0.93
4982.00,0.93
4981.00,0.93
4980.00,0.93
4979.00,0.93
4978.00,0.93
4977.00,0.93
4976.00,0.93
4975.00,0.94
4974.00,0.94
4973.00,0.94
4972.00,0.94
4971.00,0.94
4970.00,0.94
4969.00,0.94
4968.00,0.95
4967.00,0.95
4966.00,0.95
4965.00,0.95
4964.00,0.95
4963.00,0.95
4962.00,0.95
4961.00,0.95
4960.00,0.96
4959.00,0.96
4958.00,0.96
4957.00,0.96
4956.00,0.96
4955.00,0.96
4954.00,0.96
4953.00,0.96
4952.00,0.96
4951.00,0.97
4950.00,0.97
4949.00,0.97
4948.00,0.97
4947.00,0.97
4946.00,0.97
4945.00,0.97
4944.00,0.97
4943.00,0.97
4942.00,0.98
4941.00,0.98
4940.00,0.98
4939.00,0.98
4938.00,0.98
4937.00,0.98
4936.00,0.98
4935.00,0.98
4934.00,0.98
4933.00,0.98
4932.00,0.98
4931.00,0.98
4930.00,0.98
4929.00,0.99
4928.00,0.99
4927.00,0.99
4926.00,0.99
4925.00,0.99
4924.00,0.99
4923.00,0.99
4922.00,0.99
4921.00,0.99
4920.00,0.99
4919.00,0.99
4918.00,1.00
4917.00,1.00
4916.00,1.00
4915.00,1.00
4914.00,1.00
4913.00,1.00
4912.00,1.00
4911.00,1.01
4910.00,1.01
4909.00,1.01
4908.00,1.01
4907.00,1.01
4906.00,1.01
4905.00,1.01
4904.00,1.01
4903.00,1.01
4902.00,1.01
4901.00,1.02
4900.00,1.02
4899.00,1.02
4898.00,1.02
4897.00,1.02
4896.00,1.02
4895.00,1.02
4894.00,1.02
4893.00,1.02
4892.00,1.02
4891.00,1.02
4890.00,1.02
4889.00,1.02
4888.00,1.02
4887.00,1.02
4886.00,1.02
4885.00,1.02
4884.00,1.03
4883.00,1.03
4882.00,1.03
4881.00,1.03
4880.00,1.03
4879.00,1.03
4878.00,1.03
4877.00,1.03
4876.00,1.03
4875.00,1.03
4874.00,1.04
4873.00,1.04
4872.00,1.04
4871.00,1.04
4870.00,1.04
4869.00,1.04
4868.00,1.04
4867.00,1.04
4866.00,1.04
4865.00,1.04
4864.00,1.04
4863.00,1.04
4862.00,1.04
4861.00,1.04
4860.00,1.04
4859.00,1.04
4858.00,1.05
4857.00,1.05
4856.00,1.05
4855.00,1.05
4854.00,1.05
4853.00,1.05
4852.00,1.05
4851.00,1.05
4850.00,1.05
4849.00,1.05
4848.00,1.06
4847.00,1.06
4846.00,1.06
4845.00,1.06
4844.00,1.06
4843.00,1.06
4842.00,1.06
4841.00,1.06
4840.00,1.06
4839.00,1.07
4838.00,1.07
4837.00,1.07
4836.00,1.07
4835.00,1.07
4834.00,1.07
4833.00,1.07
4832.00,1.07
4831.00,1.07
4830.00,1.07
4829.00,1.07
4828.00,1.07
4827.00,1.08
4826.00,1.08
4825.00,1.08
4824.00,1.08
4823.00,1.08
4822.00,1.08
4821.00,1.08
4820.00,1.09
4819.00,1.09
4818.00,1.09
4817.00,1.09
4816.00,1.09
4815.00,1.09
4814.00,1.09
4813.00,1.09
4812.00,1.10
4811.00,1.10
4810.00,1.10
4809.00,1.10
4808.00,1.10
4807.00,1.10
4806.00,1.11
4805.00,1.11
4804.00,1.11
4803.00,1.11
4802.00,1.11
4801.00,1.11
4800.00,1.12
4799.00,1.12
4798.00,1.12
4797.00,1.12
4796.00,1.12
4795.00,1.13
4794.00,1.13
4793.00,1.13
4792.00,1.13
4791.00,1.13
4790.00,1.14
4789.00,1.14
4788.00,1.14
4787.00,1.14
4786.00,1.14
4785.00,1.14
4784.00,1.14
4783.00,1.14
4782.00,1.15
4781.00,1.15
4780.00,1.15
4779.00,1.15
4778.00,1.15
4777.00,1.15
4776.00,1.15
4775.00,1.16
4774.00,1.16
4773.00,1.16
4772.00,1.16
4771.00,1.16
4770.00,1.16
4769.00,1.17
4768.00,1.17
4767.00,1.17
4766.00,1.17
4765.00,1.17
4764.00,1.18
4763.00,1.18
4762.00,1.18
4761.00,1.18
4760.00,1.19
4759.00,1.19
4758.00,1.19
4757.00,1.19
4756.00,1.20
4755.00,1.20
4754.00,1.20
4753.00,1.20
4752.00,1.21
4751.00,1.21
4750.00,1.21
4749.00,1.21
4748.00,1.21
4747.00,1.21
4746.00,1.22
4745.00,1.22
4744.00,1.22
4743.00,1.22
4742.00,1.22
4741.00,1.22
4740.00,1.22
4739.00,1.23
4738.00,1.23
4737.00,1.23
4736.00,1.23
4735.00,1.23
4734.00,1.23
4733.00,1.23
4732.00,1.23
4731.00,1.23
4730.00,1.24
4729.00,1.24
4728.00,1.24
4727.00,1.24
4726.00,1.24
4725.00,1.25
4724.00,1.25
4723.00,1.25
4722.00,1.26
4721.00,1.26
4720.00,1.26
4719.00,1.27
4718.00,1.27
4717.00,1.27
4716.00,1.28
4715.00,1.28
4714.00,1.28
4713.00,1.28
4712.00,1.29
4711.00,1.29
4710.00,1.29
4709.00,1.29
4708.00,1.30
4707.00,1.30
4706.00,1.30
4705.00,1.30
4704.00,1.31
4703.00,1.31
4702.00,1.31
4701.00,1.31
4700.00,1.31
4699.00,1.31
4698.00,1.31
4697.00,1.31
4696.00,1.32
4695.00,1.32
4694.00,1.32
4693.00,1.32
4692.00,1.32
4691.00,1.32
4690.00,1.32
4689.00,1.32
4688.00,1.32
4687.00,1.32
4686.00,1.33
4685.00,1.33
4684.00,1.33
4683.00,1.33
4682.00,1.33
4681.00,1.33
4680.00,1.33
4679.00,1.34
4678.00,1.34
4677.00,1.34
4676.00,1.34
4675.00,1.34
4674.00,1.34
4673.00,1.34
4672.00,1.34
4671.00,1.35
4670.00,1.35
4669.00,1.35
4668.00,1.35
4667.00,1.35
4666.00,1.35
4665.00,1.36
4664.00,1.36
4663.00,1.36
4662.00,1.36
4661.00,1.36
4660.00,1.36
4659.00,1.37
4658.00,1.37
4657.00,1.37
4656.00,1.37
4655.00,1.37
4654.00,1.37
4653.00,1.37
4652.00,1.38
4651.00,1.38
4650.00,1.38
4649.00,1.38
4648.00,1.38
4647.00,1.38
4646.00,1.39
4645.00,1.39
4644.00,1.39
4643.00,1.39
4642.00,1.40
4641.00,1.40
4640.00,1.40
4639.00,1.40
4638.00,1.40
4637.00,1.41
4636.00,1.41
4635.00,1.41
4634.00,1.41
4633.00,1.41
4632.00,1.41
4631.00,1.41
4630.00,1.42
4629.00,1.42
4628.00,1.42
4627.00,1.42
4626.00,1.42
4625.00,1.42
4624.00,1.42
4623.00,1.42
4622.00,1.42
4621.00,1.42
4620.00,1.43
4619.00,1.43
4618.00,1.43
4617.00,1.43
4616.00,1.43
4615.00,1.43
4614.00,1.43
4613.00,1.43
4612.00,1.44
4611.00,1.44
4610.00,1.44
4609.00,1.44
4608.00,1.44
4607.00,1.44
4606.00,1.44
4605.00,1.44
4604.00,1.45
4603.00,1.45
4602.00,1.45
4601.00,1.45
4600.00,1.45
4599.00,1.45
4598.00,1.45
4597.00,1.45
4596.00,1.45
4595.00,1.46
4594.00,1.46
4593.00,1.46
4592.00,1.46
4591.00,1.46
4590.00,1.46
4589.00,1.46
4588.00,1.46
4587.00,1.47
4586.00,1.47
4585.00,1.47
4584.00,1.47
4583.00,1.47
4582.00,1.47
4581.00,1.47
4580.00,1.47
4579.00,1.47
4578.00,1.48
4577.00,1.48
4576.00,1.48
4575.00,1.48
4574.00,1.48
4573.00,1.48
4572.00,1.48
4571.00,1.49
4570.00,1.49
4569.00,1.49
4568.00,1.49
4567.00,1.49
4566.00,1.50
4565.00,1.50
4564.00,1.50
4563.00,1.50
4562.00,1.50
4561.00,1.50
4560.00,1.50
4559.00,1.50
4558.00,1.51
4557.00,1.51
4556.00,1.51
4555.00,1.51
4554.00,1.51
4553.00,1.51
4552.00,1.51
4551.00,1.51
4550.00,1.51
4549.00,1.51
4548.00,1.51
4547.00,1.51
4546.00,1.51
4545.00,1.51
4544.00,1.52
4543.00,1.52
4542.00,1.52
4541.00,1.52
4540.00,1.52
4539.00,1.52
4538.00,1.52
4537.00,1.52
4536.00,1.53
4535.00,1.53
4534.00,1.53
4533.00,1.53
4532.00,1.53
4531.00,1.53
4530.00,1.53
4529.00,1.53
4528.00,1.53
4527.00,1.54
4526.00,1.54
4525.00,1.54
4524.00,1.54
4523.00,1.54
4522.00,1.54
4521.00,1.54
4520.00,1.54
4519.00,1.54
4518.00,1.54
4517.00,1.54
4516.00,1.54
4515.00,1.54
4514.00,1.54
4513.00,1.54
4512.00,1.54
4511.00,1.54
4510.00,1.54
4509.00,1.54
4508.00,1.54
4507.00,1.54
4506.00,1.54
4505.00,1.54
4504.00,1.54
4503.00,1.54
4502.00,1.54
4501.00,1.54
4500.00,1.54
4499.00,1.54
4498.00,1.54
4497.00,1.54
4496.00,1.53
4495.00,1.53
4494.00,1.53
4493.00,1.53
4492.00,1.53
4491.00,1.53
4490.00,1.53
4489.00,1.52
4488.00,1.52
4487.00,1.52
4486.00,1.52
4485.00,1.51
4484.00,1.51
4483.00,1.51
4482.00,1.51
4481.00,1.50
4480.00,1.50
4479.00,1.50
4478.00,1.49
4477.00,1.49
4476.00,1.49
4475.00,1.49
4474.00,1.48
4473.00,1.48
4472.00,1.48
4471.00,1.48
4470.00,1.47
4469.00,1.47
4468.00,1.47
4467.00,1.47
4466.00,1.46
4465.00,1.46
4464.00,1.46
4463.00,1.45
4462.00,1.45
4461.00,1.45
4460.00,1.44
4459.00,1.44
4458.00,1.44
4457.00,1.43
4456.00,1.43
4455.00,1.42
4454.00,1.42
4453.00,1.41
4452.00,1.41
4451.00,1.40
4450.00,1.40
4449.00,1.39
4448.00,1.39
4447.00,1.38
4446.00,1.38
4445.00,1.37
4444.00,1.37
4443.00,1.36
4442.00,1.35
4441.00,1.35
4440.00,1.34
4439.00,1.33
4438.00,1.33
4437.00,1.32
4436.00,1.32
4435.00,1.31
4434.00,1.30
4433.00,1.30
4432.00,1.29
4431.00,1.29
4430.00,1.28
4429.00,1.28
4428.00,1.27
4427.00,1.27
4426.00,1.26
4425.00,1.26
4424.00,1.26
4423.00,1.25
4422.00,1.25
4421.00,1.25
4420.00,1.25
4419.00,1.24
4418.00,1.24
4417.00,1.24
4416.00,1.24
4415.00,1.24
4414.00,1.24
4413.00,1.24
4412.00,1.24
4411.00,1.24
4410.00,1.24
4409.00,1.24
4408.00,1.24
4407.00,1.24
4406.00,1.24
4405.00,1.24
4404.00,1.24
4403.00,1.24
4402.00,1.25
4401.00,1.25
4400.00,1.25
4399.00,1.25
4398.00,1.25
4397.00,1.25
4396.00,1.25
4395.00,1.26
4394.00,1.26
4393.00,1.26
4392.00,1.26
4391.00,1.27
4390.00,1.27
4389.00,1.27
4388.00,1.27
4387.00,1.28
4386.00,1.28
4385.00,1.28
4384.00,1.28
4383.00,1.29
4382.00,1.29
4381.00,1.29
4380.00,1.29
4379.00,1.30
4378.00,1.30
4377.00,1.30
4376.00,1.30
4375.00,1.30
4374.00,1.31
4373.00,1.31
4372.00,1.31
4371.00,1.31
4370.00,1.31
4369.00,1.31
4368.00,1.31
4367.00,1.31
4366.00,1.31
4365.00,1.31
4364.00,1.31
4363.00,1.31
4362.00,1.31
4361.00,1.31
4360.00,1.31
4359.00,1.31
4358.00,1.31
4357.00,1.31
4356.00,1.31
4355.00,1.30
4354.00,1.30
4353.00,1.30
4352.00,1.30
4351.00,1.30
4350.00,1.29
4349.00,1.29
4348.00,1.29
4347.00,1.29
4346.00,1.29
4345.00,1.29
4344.00,1.29
4343.00,1.29
4342.00,1.29
4341.00,1.29
4340.00,1.29
4339.00,1.29
4338.00,1.29
4337.00,1.29
4336.00,1.29
4335.00,1.30
4334.00,1.30
4333.00,1.30
4332.00,1.30
4331.00,1.30
4330.00,1.31
4329.00,1.31
4328.00,1.31
4327.00,1.31
4326.00,1.32
4325.00,1.32
4324.00,1.32
4323.00,1.32
4322.00,1.33
4321.00,1.33
4320.00,1.33
4319.00,1.33
4318.00,1.34
4317.00,1.34
4316.00,1.34
4315.00,1.34
4314.00,1.35
4313.00,1.35
4312.00,1.35
4311.00,1.35
4310.00,1.36
4309.00,1.36
4308.00,1.36
4307.00,1.36
4306.00,1.37
4305.00,1.37
4304.00,1.37
4303.00,1.38
4302.00,1.38
4301.00,1.38
4300.00,1.38
4299.00,1.39
4298.00,1.39
4297.00,1.39
4296.00,1.39
4295.00,1.39
4294.00,1.40
4293.00,1.40
4292.00,1.40
4291.00,1.40
4290.00,1.40
4289.00,1.40
4288.00,1.41
4287.00,1.41
4286.00,1.41
4285.00,1.41
4284.00,1.41
4283.00,1.41
4282.00,1.41
4281.00,1.41
4280.00,1.41
4279.00,1.41
4278.00,1.41
4277.00,1.41
4276.00,1.41
4275.00,1.41
4274.00,1.41
4273.00,1.41
4272.00,1.41
4271.00,1.40
4270.00,1.40
4269.00,1.40
4268.00,1.40
4267.00,1.40
4266.00,1.40
4265.00,1.39
4264.00,1.39
4263.00,1.39
4262.00,1.39
4261.00,1.39
4260.00,1.39
4259.00,1.38
4258.00,1.38
4257.00,1.38
4256.00,1.38
4255.00,1.38
4254.00,1.38
4253.00,1.39
4252.00,1.39
4251.00,1.39
4250.00,1.39
4249.00,1.39
4248.00,1.39
4247.00,1.40
4246.00,1.40
4245.00,1.40
4244.00,1.40
4243.00,1.41
4242.00,1.41
4241.00,1.41
4240.00,1.42
4239.00,1.42
4238.00,1.42
4237.00,1.42
4236.00,1.43
4235.00,1.43
4234.00,1.43
4233.00,1.43
4232.00,1.43
4231.00,1.44
4230.00,1.44
4229.00,1.44
4228.00,1.44
4227.00,1.44
4226.00,1.44
4225.00,1.44
4224.00,1.44
4223.00,1.44
4222.00,1.44
4221.00,1.44
4220.00,1.44
4219.00,1.45
4218.00,1.45
4217.00,1.45
4216.00,1.45
4215.00,1.45
4214.00,1.45
4213.00,1.45
4212.00,1.45
4211.00,1.45
4210.00,1.45
4209.00,1.45
4208.00,1.45
4207.00,1.45
4206.00,1.45
4205.00,1.45
4204.00,1.45
4203.00,1.46
4202.00,1.46
4201.00,1.46
4200.00,1.46
4199.00,1.46
4198.00,1.46
4197.00,1.46
4196.00,1.46
4195.00,1.46
4194.00,1.46
4193.00,1.46
4192.00,1.46
4191.00,1.46
4190.00,1.46
4189.00,1.46
4188.00,1.45
4187.00,1.45
4186.00,1.45
4185.00,1.45
4184.00,1.45
4183.00,1.45
4182.00,1.45
4181.00,1.45
4180.00,1.45
4179.00,1.45
4178.00,1.45
4177.00,1.45
4176.00,1.45
4175.00,1.45
4174.00,1.45
4173.00,1.45
4172.00,1.45
4171.00,1.45
4170.00,1.45
4169.00,1.45
4168.00,1.45
4167.00,1.45
4166.00,1.45
4165.00,1.45
4164.00,1.46
4163.00,1.46
4162.00,1.46
4161.00,1.46
4160.00,1.46
4159.00,1.46
4158.00,1.46
4157.00,1.46
4156.00,1.46
4155.00,1.46
4154.00,1.46
4153.00,1.46
4152.00,1.46
4151.00,1.46
4150.00,1.46
4149.00,1.46
4148.00,1.46
4147.00,1.46
4146.00,1.46
4145.00,1.46
4144.00,1.46
4143.00,1.46
4142.00,1.46
4141.00,1.46
4140.00,1.46
4139.00,1.46
4138.00,1.46
4137.00,1.46
4136.00,1.46
4135.00,1.46
4134.00,1.46
4133.00,1.46
4132.00,1.46
4131.00,1.46
4130.00,1.46
4129.00,1.47
4128.00,1.47
4127.00,1.47
4126.00,1.47
4125.00,1.47
4124.00,1.48
4123.00,1.48
4122.00,1.48
4121.00,1.48
4120.00,1.48
4119.00,1.49
4118.00,1.49
4117.00,1.49
4116.00,1.49
4115.00,1.49
4114.00,1.49
4113.00,1.49
4112.00,1.49
4111.00,1.50
4110.00,1.50
4109.00,1.50
4108.00,1.50
4107.00,1.50
4106.00,1.50
4105.00,1.50
4104.00,1.50
4103.00,1.50
4102.00,1.50
4101.00,1.50
4100.00,1.50
4099.00,1.49
4098.00,1.49
4097.00,1.49
4096.00,1.49
4095.00,1.49
4094.00,1.49
4093.00,1.49
4092.00,1.49
4091.00,1.48
4090.00,1.48
4089.00,1.48
4088.00,1.48
4087.00,1.48
4086.00,1.48
4085.00,1.48
4084.00,1.48
4083.00,1.49
4082.00,1.49
4081.00,1.49
4080.00,1.49
4079.00,1.49
4078.00,1.49
4077.00,1.50
4076.00,1.50
4075.00,1.50
4074.00,1.50
4073.00,1.50
4072.00,1.51
4071.00,1.51
4070.00,1.51
4069.00,1.51
4068.00,1.51
4067.00,1.51
4066.00,1.51
4065.00,1.51
4064.00,1.51
4063.00,1.51
4062.00,1.51
4061.00,1.51
4060.00,1.51
4059.00,1.51
4058.00,1.51
4057.00,1.51
4056.00,1.51
4055.00,1.51
4054.00,1.51
4053.00,1.51
4052.00,1.51
4051.00,1.51
4050.00,1.51
4049.00,1.51
4048.00,1.51
4047.00,1.51
4046.00,1.51
4045.00,1.51
4044.00,1.51
4043.00,1.52
4042.00,1.52
4041.00,1.52
4040.00,1.52
4039.00,1.52
4038.00,1.53
4037.00,1.53
4036.00,1.53
4035.00,1.53
4034.00,1.53
4033.00,1.54
4032.00,1.54
4031.00,1.54
4030.00,1.54
4029.00,1.54
4028.00,1.54
4027.00,1.54
4026.00,1.54
4025.00,1.55
4024.00,1.55
4023.00,1.55
4022.00,1.55
4021.00,1.55
4020.00,1.55
4019.00,1.55
4018.00,1.56
4017.00,1.56
4016.00,1.56
4015.00,1.56
4014.00,1.56
4013.00,1.56
4012.00,1.56
4011.00,1.56
4010.00,1.56
4009.00,1.56
4008.00,1.56
4007.00,1.56
4006.00,1.56
4005.00,1.56
4004.00,1.56
4003.00,1.56
4002.00,1.56
4001.00,1.56
4000.00,1.56
