创建为新数据集,样品 028 用户 Administrator 日期 星期三, 十一月 01 2017
cm-1,%T
10000.00,1.87
9999.00,1.87
9998.00,1.87
9997.00,1.87
9996.00,1.87
9995.00,1.87
9994.00,1.86
9993.00,1.86
9992.00,1.86
9991.00,1.86
9990.00,1.86
9989.00,1.86
9988.00,1.86
9987.00,1.86
9986.00,1.86
9985.00,1.86
9984.00,1.86
9983.00,1.86
9982.00,1.86
9981.00,1.86
9980.00,1.86
9979.00,1.86
9978.00,1.86
9977.00,1.86
9976.00,1.86
9975.00,1.86
9974.00,1.86
9973.00,1.86
9972.00,1.86
9971.00,1.86
9970.00,1.86
9969.00,1.86
9968.00,1.87
9967.00,1.87
9966.00,1.87
9965.00,1.87
9964.00,1.87
9963.00,1.87
9962.00,1.87
9961.00,1.87
9960.00,1.87
9959.00,1.86
9958.00,1.86
9957.00,1.86
9956.00,1.86
9955.00,1.86
9954.00,1.86
9953.00,1.85
9952.00,1.85
9951.00,1.85
9950.00,1.85
9949.00,1.85
9948.00,1.85
9947.00,1.85
9946.00,1.84
9945.00,1.84
9944.00,1.84
9943.00,1.84
9942.00,1.85
9941.00,1.85
9940.00,1.85
9939.00,1.85
9938.00,1.85
9937.00,1.85
9936.00,1.85
9935.00,1.85
9934.00,1.85
9933.00,1.85
9932.00,1.85
9931.00,1.85
9930.00,1.85
9929.00,1.85
9928.00,1.85
9927.00,1.85
9926.00,1.85
9925.00,1.85
9924.00,1.84
9923.00,1.84
9922.00,1.84
9921.00,1.84
9920.00,1.84
9919.00,1.84
9918.00,1.84
9917.00,1.84
9916.00,1.84
9915.00,1.84
9914.00,1.84
9913.00,1.84
9912.00,1.84
9911.00,1.84
9910.00,1.84
9909.00,1.84
9908.00,1.84
9907.00,1.84
9906.00,1.84
9905.00,1.84
9904.00,1.84
9903.00,1.84
9902.00,1.84
9901.00,1.84
9900.00,1.84
9899.00,1.84
9898.00,1.84
9897.00,1.84
9896.00,1.85
9895.00,1.85
9894.00,1.85
9893.00,1.85
9892.00,1.85
9891.00,1.85
9890.00,1.84
9889.00,1.85
9888.00,1.85
9887.00,1.85
9886.00,1.85
9885.00,1.85
9884.00,1.85
9883.00,1.85
9882.00,1.85
9881.00,1.85
9880.00,1.85
9879.00,1.86
9878.00,1.86
9877.00,1.86
9876.00,1.86
9875.00,1.86
9874.00,1.86
9873.00,1.86
9872.00,1.87
9871.00,1.87
9870.00,1.87
9869.00,1.87
9868.00,1.87
9867.00,1.87
9866.00,1.87
9865.00,1.86
9864.00,1.86
9863.00,1.86
9862.00,1.86
9861.00,1.86
9860.00,1.85
9859.00,1.85
9858.00,1.85
9857.00,1.85
9856.00,1.84
9855.00,1.84
9854.00,1.84
9853.00,1.84
9852.00,1.83
9851.00,1.83
9850.00,1.83
9849.00,1.83
9848.00,1.83
9847.00,1.83
9846.00,1.83
9845.00,1.83
9844.00,1.83
9843.00,1.83
9842.00,1.83
9841.00,1.83
9840.00,1.83
9839.00,1.83
9838.00,1.83
9837.00,1.83
9836.00,1.83
9835.00,1.84
9834.00,1.84
9833.00,1.84
9832.00,1.84
9831.00,1.84
9830.00,1.84
9829.00,1.84
9828.00,1.84
9827.00,1.84
9826.00,1.84
9825.00,1.84
9824.00,1.84
9823.00,1.84
9822.00,1.84
9821.00,1.84
9820.00,1.84
9819.00,1.84
9818.00,1.84
9817.00,1.84
9816.00,1.83
9815.00,1.83
9814.00,1.83
9813.00,1.83
9812.00,1.83
9811.00,1.83
9810.00,1.83
9809.00,1.83
9808.00,1.83
9807.00,1.83
9806.00,1.83
9805.00,1.83
9804.00,1.83
9803.00,1.83
9802.00,1.83
9801.00,1.83
9800.00,1.83
9799.00,1.83
9798.00,1.83
9797.00,1.83
9796.00,1.83
9795.00,1.83
9794.00,1.84
9793.00,1.84
9792.00,1.84
9791.00,1.84
9790.00,1.84
9789.00,1.85
9788.00,1.85
9787.00,1.85
9786.00,1.85
9785.00,1.85
9784.00,1.86
9783.00,1.86
9782.00,1.86
9781.00,1.86
9780.00,1.86
9779.00,1.86
9778.00,1.86
9777.00,1.86
9776.00,1.86
9775.00,1.86
9774.00,1.86
9773.00,1.86
9772.00,1.86
9771.00,1.86
9770.00,1.86
9769.00,1.86
9768.00,1.86
9767.00,1.86
9766.00,1.86
9765.00,1.86
9764.00,1.86
9763.00,1.86
9762.00,1.86
9761.00,1.86
9760.00,1.86
9759.00,1.86
9758.00,1.86
9757.00,1.86
9756.00,1.86
9755.00,1.86
9754.00,1.86
9753.00,1.86
9752.00,1.86
9751.00,1.86
9750.00,1.86
9749.00,1.86
9748.00,1.86
9747.00,1.86
9746.00,1.86
9745.00,1.86
9744.00,1.86
9743.00,1.86
9742.00,1.86
9741.00,1.86
9740.00,1.86
9739.00,1.86
9738.00,1.86
9737.00,1.86
9736.00,1.86
9735.00,1.86
9734.00,1.86
9733.00,1.86
9732.00,1.86
9731.00,1.86
9730.00,1.86
9729.00,1.86
9728.00,1.86
9727.00,1.85
9726.00,1.85
9725.00,1.85
9724.00,1.85
9723.00,1.85
9722.00,1.85
9721.00,1.84
9720.00,1.84
9719.00,1.84
9718.00,1.84
9717.00,1.83
9716.00,1.83
9715.00,1.83
9714.00,1.83
9713.00,1.82
9712.00,1.82
9711.00,1.82
9710.00,1.81
9709.00,1.81
9708.00,1.81
9707.00,1.81
9706.00,1.81
9705.00,1.81
9704.00,1.81
9703.00,1.81
9702.00,1.81
9701.00,1.81
9700.00,1.81
9699.00,1.81
9698.00,1.81
9697.00,1.81
9696.00,1.81
9695.00,1.81
9694.00,1.81
9693.00,1.81
9692.00,1.81
9691.00,1.81
9690.00,1.81
9689.00,1.82
9688.00,1.82
9687.00,1.82
9686.00,1.82
9685.00,1.82
9684.00,1.82
9683.00,1.82
9682.00,1.82
9681.00,1.82
9680.00,1.83
9679.00,1.83
9678.00,1.83
9677.00,1.83
9676.00,1.83
9675.00,1.83
9674.00,1.83
9673.00,1.83
9672.00,1.83
9671.00,1.84
9670.00,1.84
9669.00,1.84
9668.00,1.84
9667.00,1.84
9666.00,1.84
9665.00,1.84
9664.00,1.84
9663.00,1.84
9662.00,1.84
9661.00,1.84
9660.00,1.84
9659.00,1.84
9658.00,1.84
9657.00,1.84
9656.00,1.84
9655.00,1.84
9654.00,1.84
9653.00,1.84
9652.00,1.84
9651.00,1.84
9650.00,1.84
9649.00,1.84
9648.00,1.84
9647.00,1.84
9646.00,1.84
9645.00,1.84
9644.00,1.84
9643.00,1.84
9642.00,1.84
9641.00,1.84
9640.00,1.84
9639.00,1.84
9638.00,1.84
9637.00,1.84
9636.00,1.84
9635.00,1.84
9634.00,1.83
9633.00,1.83
9632.00,1.83
9631.00,1.83
9630.00,1.83
9629.00,1.83
9628.00,1.83
9627.00,1.83
9626.00,1.83
9625.00,1.83
9624.00,1.83
9623.00,1.83
9622.00,1.84
9621.00,1.84
9620.00,1.84
9619.00,1.84
9618.00,1.84
9617.00,1.84
9616.00,1.84
9615.00,1.84
9614.00,1.84
9613.00,1.84
9612.00,1.85
9611.00,1.85
9610.00,1.85
9609.00,1.84
9608.00,1.84
9607.00,1.84
9606.00,1.84
9605.00,1.84
9604.00,1.84
9603.00,1.84
9602.00,1.84
9601.00,1.84
9600.00,1.83
9599.00,1.83
9598.00,1.83
9597.00,1.83
9596.00,1.83
9595.00,1.83
9594.00,1.83
9593.00,1.84
9592.00,1.84
9591.00,1.84
9590.00,1.84
9589.00,1.84
9588.00,1.85
9587.00,1.85
9586.00,1.85
9585.00,1.85
9584.00,1.85
9583.00,1.86
9582.00,1.86
9581.00,1.86
9580.00,1.86
9579.00,1.86
9578.00,1.86
9577.00,1.86
9576.00,1.86
9575.00,1.86
9574.00,1.86
9573.00,1.86
9572.00,1.85
9571.00,1.85
9570.00,1.85
9569.00,1.85
9568.00,1.85
9567.00,1.84
9566.00,1.84
9565.00,1.84
9564.00,1.84
9563.00,1.84
9562.00,1.84
9561.00,1.84
9560.00,1.83
9559.00,1.83
9558.00,1.83
9557.00,1.83
9556.00,1.83
9555.00,1.83
9554.00,1.83
9553.00,1.83
9552.00,1.83
9551.00,1.83
9550.00,1.83
9549.00,1.83
9548.00,1.84
9547.00,1.84
9546.00,1.84
9545.00,1.84
9544.00,1.84
9543.00,1.84
9542.00,1.84
9541.00,1.84
9540.00,1.84
9539.00,1.84
9538.00,1.84
9537.00,1.84
9536.00,1.84
9535.00,1.84
9534.00,1.84
9533.00,1.84
9532.00,1.84
9531.00,1.84
9530.00,1.84
9529.00,1.84
9528.00,1.84
9527.00,1.84
9526.00,1.84
9525.00,1.84
9524.00,1.84
9523.00,1.85
9522.00,1.85
9521.00,1.85
9520.00,1.85
9519.00,1.85
9518.00,1.85
9517.00,1.85
9516.00,1.85
9515.00,1.85
9514.00,1.85
9513.00,1.85
9512.00,1.85
9511.00,1.85
9510.00,1.85
9509.00,1.85
9508.00,1.85
9507.00,1.85
9506.00,1.84
9505.00,1.84
9504.00,1.84
9503.00,1.84
9502.00,1.84
9501.00,1.84
9500.00,1.84
9499.00,1.84
9498.00,1.84
9497.00,1.84
9496.00,1.84
9495.00,1.84
9494.00,1.84
9493.00,1.84
9492.00,1.84
9491.00,1.84
9490.00,1.84
9489.00,1.84
9488.00,1.84
9487.00,1.84
9486.00,1.84
9485.00,1.84
9484.00,1.84
9483.00,1.84
9482.00,1.84
9481.00,1.84
9480.00,1.84
9479.00,1.84
9478.00,1.84
9477.00,1.84
9476.00,1.83
9475.00,1.83
9474.00,1.83
9473.00,1.84
9472.00,1.84
9471.00,1.84
9470.00,1.84
9469.00,1.84
9468.00,1.84
9467.00,1.84
9466.00,1.85
9465.00,1.85
9464.00,1.85
9463.00,1.85
9462.00,1.86
9461.00,1.86
9460.00,1.86
9459.00,1.86
9458.00,1.86
9457.00,1.87
9456.00,1.87
9455.00,1.87
9454.00,1.87
9453.00,1.87
9452.00,1.87
9451.00,1.86
9450.00,1.86
9449.00,1.86
9448.00,1.86
9447.00,1.86
9446.00,1.86
9445.00,1.85
9444.00,1.85
9443.00,1.85
9442.00,1.85
9441.00,1.85
9440.00,1.85
9439.00,1.85
9438.00,1.85
9437.00,1.84
9436.00,1.84
9435.00,1.84
9434.00,1.84
9433.00,1.84
9432.00,1.84
9431.00,1.84
9430.00,1.84
9429.00,1.84
9428.00,1.84
9427.00,1.84
9426.00,1.84
9425.00,1.84
9424.00,1.84
9423.00,1.84
9422.00,1.84
9421.00,1.84
9420.00,1.84
9419.00,1.84
9418.00,1.84
9417.00,1.84
9416.00,1.84
9415.00,1.84
9414.00,1.84
9413.00,1.84
9412.00,1.84
9411.00,1.84
9410.00,1.84
9409.00,1.84
9408.00,1.84
9407.00,1.84
9406.00,1.84
9405.00,1.84
9404.00,1.84
9403.00,1.84
9402.00,1.84
9401.00,1.84
9400.00,1.84
9399.00,1.85
9398.00,1.85
9397.00,1.85
9396.00,1.85
9395.00,1.85
9394.00,1.85
9393.00,1.85
9392.00,1.85
9391.00,1.85
9390.00,1.85
9389.00,1.86
9388.00,1.86
9387.00,1.86
9386.00,1.86
9385.00,1.86
9384.00,1.86
9383.00,1.86
9382.00,1.87
9381.00,1.87
9380.00,1.87
9379.00,1.87
9378.00,1.87
9377.00,1.87
9376.00,1.87
9375.00,1.87
9374.00,1.86
9373.00,1.86
9372.00,1.86
9371.00,1.86
9370.00,1.86
9369.00,1.85
9368.00,1.85
9367.00,1.85
9366.00,1.85
9365.00,1.84
9364.00,1.84
9363.00,1.84
9362.00,1.84
9361.00,1.84
9360.00,1.84
9359.00,1.84
9358.00,1.83
9357.00,1.83
9356.00,1.83
9355.00,1.83
9354.00,1.83
9353.00,1.84
9352.00,1.84
9351.00,1.84
9350.00,1.84
9349.00,1.84
9348.00,1.84
9347.00,1.84
9346.00,1.84
9345.00,1.84
9344.00,1.84
9343.00,1.84
9342.00,1.85
9341.00,1.85
9340.00,1.85
9339.00,1.85
9338.00,1.84
9337.00,1.84
9336.00,1.84
9335.00,1.84
9334.00,1.84
9333.00,1.84
9332.00,1.84
9331.00,1.84
9330.00,1.84
9329.00,1.84
9328.00,1.84
9327.00,1.84
9326.00,1.83
9325.00,1.83
9324.00,1.83
9323.00,1.83
9322.00,1.83
9321.00,1.83
9320.00,1.83
9319.00,1.83
9318.00,1.83
9317.00,1.83
9316.00,1.84
9315.00,1.84
9314.00,1.84
9313.00,1.84
9312.00,1.84
9311.00,1.84
9310.00,1.84
9309.00,1.84
9308.00,1.84
9307.00,1.84
9306.00,1.84
9305.00,1.84
9304.00,1.84
9303.00,1.84
9302.00,1.84
9301.00,1.84
9300.00,1.84
9299.00,1.84
9298.00,1.84
9297.00,1.84
9296.00,1.84
9295.00,1.84
9294.00,1.84
9293.00,1.84
9292.00,1.84
9291.00,1.84
9290.00,1.84
9289.00,1.84
9288.00,1.84
9287.00,1.84
9286.00,1.84
9285.00,1.84
9284.00,1.84
9283.00,1.84
9282.00,1.84
9281.00,1.84
9280.00,1.84
9279.00,1.84
9278.00,1.84
9277.00,1.84
9276.00,1.84
9275.00,1.84
9274.00,1.84
9273.00,1.84
9272.00,1.84
9271.00,1.84
9270.00,1.84
9269.00,1.84
9268.00,1.84
9267.00,1.84
9266.00,1.83
9265.00,1.83
9264.00,1.83
9263.00,1.83
9262.00,1.83
9261.00,1.83
9260.00,1.83
9259.00,1.83
9258.00,1.83
9257.00,1.83
9256.00,1.83
9255.00,1.83
9254.00,1.83
9253.00,1.83
9252.00,1.84
9251.00,1.84
9250.00,1.84
9249.00,1.84
9248.00,1.84
9247.00,1.84
9246.00,1.84
9245.00,1.84
9244.00,1.84
9243.00,1.85
9242.00,1.85
9241.00,1.85
9240.00,1.85
9239.00,1.85
9238.00,1.85
9237.00,1.85
9236.00,1.85
9235.00,1.85
9234.00,1.85
9233.00,1.85
9232.00,1.85
9231.00,1.85
9230.00,1.85
9229.00,1.85
9228.00,1.85
9227.00,1.85
9226.00,1.85
9225.00,1.85
9224.00,1.85
9223.00,1.85
9222.00,1.85
9221.00,1.85
9220.00,1.85
9219.00,1.85
9218.00,1.85
9217.00,1.85
9216.00,1.85
9215.00,1.85
9214.00,1.85
9213.00,1.85
9212.00,1.85
9211.00,1.85
9210.00,1.85
9209.00,1.85
9208.00,1.85
9207.00,1.85
9206.00,1.85
9205.00,1.85
9204.00,1.85
9203.00,1.85
9202.00,1.85
9201.00,1.85
9200.00,1.85
9199.00,1.85
9198.00,1.85
9197.00,1.85
9196.00,1.85
9195.00,1.85
9194.00,1.85
9193.00,1.85
9192.00,1.85
9191.00,1.85
9190.00,1.85
9189.00,1.85
9188.00,1.84
9187.00,1.84
9186.00,1.84
9185.00,1.84
9184.00,1.84
9183.00,1.84
9182.00,1.84
9181.00,1.84
9180.00,1.84
9179.00,1.84
9178.00,1.84
9177.00,1.84
9176.00,1.84
9175.00,1.85
9174.00,1.85
9173.00,1.85
9172.00,1.85
9171.00,1.85
9170.00,1.85
9169.00,1.85
9168.00,1.85
9167.00,1.85
9166.00,1.85
9165.00,1.85
9164.00,1.85
9163.00,1.85
9162.00,1.85
9161.00,1.85
9160.00,1.85
9159.00,1.85
9158.00,1.85
9157.00,1.85
9156.00,1.85
9155.00,1.85
9154.00,1.85
9153.00,1.85
9152.00,1.84
9151.00,1.84
9150.00,1.84
9149.00,1.84
9148.00,1.84
9147.00,1.84
9146.00,1.84
9145.00,1.84
9144.00,1.84
9143.00,1.84
9142.00,1.84
9141.00,1.84
9140.00,1.84
9139.00,1.84
9138.00,1.84
9137.00,1.84
9136.00,1.84
9135.00,1.84
9134.00,1.84
9133.00,1.84
9132.00,1.84
9131.00,1.84
9130.00,1.84
9129.00,1.84
9128.00,1.84
9127.00,1.84
9126.00,1.84
9125.00,1.85
9124.00,1.85
9123.00,1.85
9122.00,1.85
9121.00,1.85
9120.00,1.85
9119.00,1.85
9118.00,1.85
9117.00,1.85
9116.00,1.84
9115.00,1.84
9114.00,1.84
9113.00,1.84
9112.00,1.84
9111.00,1.84
9110.00,1.84
9109.00,1.84
9108.00,1.84
9107.00,1.84
9106.00,1.84
9105.00,1.84
9104.00,1.84
9103.00,1.84
9102.00,1.84
9101.00,1.84
9100.00,1.84
9099.00,1.84
9098.00,1.84
9097.00,1.84
9096.00,1.84
9095.00,1.84
9094.00,1.84
9093.00,1.84
9092.00,1.84
9091.00,1.84
9090.00,1.84
9089.00,1.84
9088.00,1.84
9087.00,1.84
9086.00,1.84
9085.00,1.84
9084.00,1.84
9083.00,1.84
9082.00,1.84
9081.00,1.84
9080.00,1.84
9079.00,1.84
9078.00,1.84
9077.00,1.84
9076.00,1.84
9075.00,1.84
9074.00,1.84
9073.00,1.84
9072.00,1.84
9071.00,1.85
9070.00,1.85
9069.00,1.85
9068.00,1.85
9067.00,1.85
9066.00,1.85
9065.00,1.86
9064.00,1.86
9063.00,1.86
9062.00,1.86
9061.00,1.86
9060.00,1.86
9059.00,1.86
9058.00,1.86
9057.00,1.87
9056.00,1.87
9055.00,1.87
9054.00,1.87
9053.00,1.87
9052.00,1.87
9051.00,1.87
9050.00,1.87
9049.00,1.87
9048.00,1.87
9047.00,1.87
9046.00,1.87
9045.00,1.86
9044.00,1.86
9043.00,1.86
9042.00,1.86
9041.00,1.86
9040.00,1.86
9039.00,1.86
9038.00,1.86
9037.00,1.86
9036.00,1.86
9035.00,1.86
9034.00,1.86
9033.00,1.86
9032.00,1.86
9031.00,1.86
9030.00,1.85
9029.00,1.85
9028.00,1.85
9027.00,1.85
9026.00,1.85
9025.00,1.85
9024.00,1.85
9023.00,1.85
9022.00,1.85
9021.00,1.85
9020.00,1.85
9019.00,1.85
9018.00,1.84
9017.00,1.84
9016.00,1.84
9015.00,1.84
9014.00,1.84
9013.00,1.84
9012.00,1.84
9011.00,1.84
9010.00,1.84
9009.00,1.84
9008.00,1.84
9007.00,1.84
9006.00,1.84
9005.00,1.84
9004.00,1.84
9003.00,1.84
9002.00,1.84
9001.00,1.84
9000.00,1.84
8999.00,1.84
8998.00,1.84
8997.00,1.84
8996.00,1.84
8995.00,1.84
8994.00,1.84
8993.00,1.85
8992.00,1.85
8991.00,1.85
8990.00,1.85
8989.00,1.85
8988.00,1.86
8987.00,1.86
8986.00,1.86
8985.00,1.86
8984.00,1.86
8983.00,1.86
8982.00,1.87
8981.00,1.87
8980.00,1.87
8979.00,1.87
8978.00,1.87
8977.00,1.87
8976.00,1.86
8975.00,1.86
8974.00,1.86
8973.00,1.86
8972.00,1.86
8971.00,1.86
8970.00,1.86
8969.00,1.85
8968.00,1.85
8967.00,1.85
8966.00,1.85
8965.00,1.85
8964.00,1.85
8963.00,1.85
8962.00,1.85
8961.00,1.85
8960.00,1.84
8959.00,1.84
8958.00,1.84
8957.00,1.84
8956.00,1.84
8955.00,1.84
8954.00,1.84
8953.00,1.85
8952.00,1.85
8951.00,1.85
8950.00,1.85
8949.00,1.85
8948.00,1.85
8947.00,1.85
8946.00,1.85
8945.00,1.85
8944.00,1.86
8943.00,1.86
8942.00,1.86
8941.00,1.86
8940.00,1.86
8939.00,1.86
8938.00,1.86
8937.00,1.86
8936.00,1.86
8935.00,1.87
8934.00,1.87
8933.00,1.87
8932.00,1.87
8931.00,1.86
8930.00,1.86
8929.00,1.86
8928.00,1.86
8927.00,1.86
8926.00,1.86
8925.00,1.86
8924.00,1.86
8923.00,1.86
8922.00,1.86
8921.00,1.86
8920.00,1.86
8919.00,1.86
8918.00,1.85
8917.00,1.85
8916.00,1.85
8915.00,1.85
8914.00,1.85
8913.00,1.85
8912.00,1.85
8911.00,1.85
8910.00,1.85
8909.00,1.85
8908.00,1.85
8907.00,1.85
8906.00,1.85
8905.00,1.85
8904.00,1.85
8903.00,1.85
8902.00,1.85
8901.00,1.85
8900.00,1.85
8899.00,1.85
8898.00,1.85
8897.00,1.85
8896.00,1.85
8895.00,1.85
8894.00,1.85
8893.00,1.85
8892.00,1.85
8891.00,1.85
8890.00,1.85
8889.00,1.85
8888.00,1.85
8887.00,1.85
8886.00,1.85
8885.00,1.85
8884.00,1.84
8883.00,1.84
8882.00,1.84
8881.00,1.84
8880.00,1.84
8879.00,1.84
8878.00,1.84
8877.00,1.84
8876.00,1.84
8875.00,1.84
8874.00,1.84
8873.00,1.84
8872.00,1.84
8871.00,1.84
8870.00,1.84
8869.00,1.84
8868.00,1.84
8867.00,1.84
8866.00,1.84
8865.00,1.84
8864.00,1.84
8863.00,1.85
8862.00,1.85
8861.00,1.85
8860.00,1.85
8859.00,1.85
8858.00,1.85
8857.00,1.85
8856.00,1.85
8855.00,1.84
8854.00,1.84
8853.00,1.84
8852.00,1.84
8851.00,1.84
8850.00,1.84
8849.00,1.84
8848.00,1.84
8847.00,1.84
8846.00,1.84
8845.00,1.84
8844.00,1.83
8843.00,1.83
8842.00,1.83
8841.00,1.83
8840.00,1.83
8839.00,1.83
8838.00,1.83
8837.00,1.83
8836.00,1.83
8835.00,1.83
8834.00,1.83
8833.00,1.83
8832.00,1.83
8831.00,1.83
8830.00,1.83
8829.00,1.83
8828.00,1.83
8827.00,1.83
8826.00,1.83
8825.00,1.83
8824.00,1.83
8823.00,1.83
8822.00,1.83
8821.00,1.83
8820.00,1.83
8819.00,1.83
8818.00,1.83
8817.00,1.83
8816.00,1.83
8815.00,1.83
8814.00,1.83
8813.00,1.83
8812.00,1.83
8811.00,1.83
8810.00,1.83
8809.00,1.83
8808.00,1.83
8807.00,1.82
8806.00,1.82
8805.00,1.82
8804.00,1.82
8803.00,1.82
8802.00,1.82
8801.00,1.82
8800.00,1.82
8799.00,1.82
8798.00,1.82
8797.00,1.82
8796.00,1.82
8795.00,1.82
8794.00,1.82
8793.00,1.82
8792.00,1.82
8791.00,1.82
8790.00,1.82
8789.00,1.82
8788.00,1.82
8787.00,1.82
8786.00,1.82
8785.00,1.82
8784.00,1.82
8783.00,1.82
8782.00,1.82
8781.00,1.82
8780.00,1.82
8779.00,1.81
8778.00,1.81
8777.00,1.81
8776.00,1.81
8775.00,1.81
8774.00,1.81
8773.00,1.81
8772.00,1.81
8771.00,1.80
8770.00,1.80
8769.00,1.80
8768.00,1.80
8767.00,1.80
8766.00,1.80
8765.00,1.80
8764.00,1.79
8763.00,1.79
8762.00,1.79
8761.00,1.79
8760.00,1.79
8759.00,1.79
8758.00,1.79
8757.00,1.78
8756.00,1.78
8755.00,1.78
8754.00,1.78
8753.00,1.78
8752.00,1.78
8751.00,1.78
8750.00,1.78
8749.00,1.77
8748.00,1.77
8747.00,1.77
8746.00,1.77
8745.00,1.77
8744.00,1.78
8743.00,1.78
8742.00,1.78
8741.00,1.78
8740.00,1.78
8739.00,1.78
8738.00,1.78
8737.00,1.78
8736.00,1.78
8735.00,1.78
8734.00,1.79
8733.00,1.79
8732.00,1.79
8731.00,1.79
8730.00,1.79
8729.00,1.79
8728.00,1.79
8727.00,1.79
8726.00,1.79
8725.00,1.79
8724.00,1.79
8723.00,1.79
8722.00,1.79
8721.00,1.79
8720.00,1.79
8719.00,1.78
8718.00,1.78
8717.00,1.78
8716.00,1.78
8715.00,1.78
8714.00,1.78
8713.00,1.77
8712.00,1.77
8711.00,1.77
8710.00,1.77
8709.00,1.77
8708.00,1.77
8707.00,1.77
8706.00,1.76
8705.00,1.76
8704.00,1.76
8703.00,1.76
8702.00,1.76
8701.00,1.76
8700.00,1.76
8699.00,1.76
8698.00,1.76
8697.00,1.76
8696.00,1.76
8695.00,1.76
8694.00,1.76
8693.00,1.76
8692.00,1.76
8691.00,1.76
8690.00,1.76
8689.00,1.76
8688.00,1.76
8687.00,1.76
8686.00,1.76
8685.00,1.76
8684.00,1.75
8683.00,1.75
8682.00,1.75
8681.00,1.75
8680.00,1.75
8679.00,1.75
8678.00,1.75
8677.00,1.75
8676.00,1.75
8675.00,1.75
8674.00,1.76
8673.00,1.76
8672.00,1.76
8671.00,1.76
8670.00,1.76
8669.00,1.76
8668.00,1.76
8667.00,1.76
8666.00,1.76
8665.00,1.76
8664.00,1.76
8663.00,1.76
8662.00,1.76
8661.00,1.76
8660.00,1.76
8659.00,1.76
8658.00,1.76
8657.00,1.76
8656.00,1.76
8655.00,1.76
8654.00,1.76
8653.00,1.76
8652.00,1.76
8651.00,1.76
8650.00,1.76
8649.00,1.76
8648.00,1.76
8647.00,1.76
8646.00,1.76
8645.00,1.76
8644.00,1.76
8643.00,1.76
8642.00,1.76
8641.00,1.76
8640.00,1.77
8639.00,1.77
8638.00,1.77
8637.00,1.77
8636.00,1.77
8635.00,1.77
8634.00,1.77
8633.00,1.77
8632.00,1.77
8631.00,1.77
8630.00,1.77
8629.00,1.77
8628.00,1.76
8627.00,1.76
8626.00,1.76
8625.00,1.76
8624.00,1.76
8623.00,1.76
8622.00,1.76
8621.00,1.75
8620.00,1.75
8619.00,1.75
8618.00,1.75
8617.00,1.75
8616.00,1.75
8615.00,1.75
8614.00,1.74
8613.00,1.74
8612.00,1.74
8611.00,1.74
8610.00,1.74
8609.00,1.74
8608.00,1.74
8607.00,1.73
8606.00,1.73
8605.00,1.73
8604.00,1.73
8603.00,1.73
8602.00,1.73
8601.00,1.73
8600.00,1.73
8599.00,1.73
8598.00,1.73
8597.00,1.72
8596.00,1.72
8595.00,1.72
8594.00,1.72
8593.00,1.72
8592.00,1.72
8591.00,1.72
8590.00,1.73
8589.00,1.73
8588.00,1.73
8587.00,1.73
8586.00,1.73
8585.00,1.73
8584.00,1.73
8583.00,1.73
8582.00,1.73
8581.00,1.73
8580.00,1.73
8579.00,1.73
8578.00,1.73
8577.00,1.73
8576.00,1.72
8575.00,1.72
8574.00,1.72
8573.00,1.72
8572.00,1.72
8571.00,1.72
8570.00,1.72
8569.00,1.72
8568.00,1.71
8567.00,1.71
8566.00,1.71
8565.00,1.71
8564.00,1.71
8563.00,1.71
8562.00,1.71
8561.00,1.71
8560.00,1.71
8559.00,1.71
8558.00,1.71
8557.00,1.70
8556.00,1.70
8555.00,1.70
8554.00,1.70
8553.00,1.70
8552.00,1.70
8551.00,1.70
8550.00,1.70
8549.00,1.70
8548.00,1.70
8547.00,1.70
8546.00,1.71
8545.00,1.71
8544.00,1.71
8543.00,1.71
8542.00,1.71
8541.00,1.71
8540.00,1.71
8539.00,1.71
8538.00,1.71
8537.00,1.71
8536.00,1.71
8535.00,1.71
8534.00,1.71
8533.00,1.70
8532.00,1.70
8531.00,1.70
8530.00,1.70
8529.00,1.70
8528.00,1.70
8527.00,1.70
8526.00,1.70
8525.00,1.69
8524.00,1.69
8523.00,1.69
8522.00,1.69
8521.00,1.69
8520.00,1.69
8519.00,1.69
8518.00,1.68
8517.00,1.68
8516.00,1.68
8515.00,1.68
8514.00,1.68
8513.00,1.68
8512.00,1.68
8511.00,1.68
8510.00,1.68
8509.00,1.67
8508.00,1.67
8507.00,1.67
8506.00,1.67
8505.00,1.67
8504.00,1.67
8503.00,1.67
8502.00,1.67
8501.00,1.67
8500.00,1.67
8499.00,1.66
8498.00,1.66
8497.00,1.66
8496.00,1.66
8495.00,1.66
8494.00,1.66
8493.00,1.66
8492.00,1.66
8491.00,1.66
8490.00,1.66
8489.00,1.66
8488.00,1.66
8487.00,1.66
8486.00,1.66
8485.00,1.66
8484.00,1.66
8483.00,1.66
8482.00,1.66
8481.00,1.66
8480.00,1.66
8479.00,1.66
8478.00,1.66
8477.00,1.66
8476.00,1.66
8475.00,1.65
8474.00,1.65
8473.00,1.65
8472.00,1.65
8471.00,1.65
8470.00,1.65
8469.00,1.65
8468.00,1.65
8467.00,1.65
8466.00,1.65
8465.00,1.65
8464.00,1.65
8463.00,1.65
8462.00,1.65
8461.00,1.65
8460.00,1.64
8459.00,1.64
8458.00,1.64
8457.00,1.64
8456.00,1.64
8455.00,1.64
8454.00,1.63
8453.00,1.63
8452.00,1.63
8451.00,1.63
8450.00,1.63
8449.00,1.63
8448.00,1.63
8447.00,1.63
8446.00,1.63
8445.00,1.63
8444.00,1.63
8443.00,1.63
8442.00,1.63
8441.00,1.63
8440.00,1.63
8439.00,1.63
8438.00,1.63
8437.00,1.63
8436.00,1.63
8435.00,1.63
8434.00,1.63
8433.00,1.63
8432.00,1.63
8431.00,1.62
8430.00,1.62
8429.00,1.62
8428.00,1.62
8427.00,1.62
8426.00,1.62
8425.00,1.63
8424.00,1.63
8423.00,1.63
8422.00,1.63
8421.00,1.63
8420.00,1.63
8419.00,1.63
8418.00,1.63
8417.00,1.64
8416.00,1.64
8415.00,1.64
8414.00,1.64
8413.00,1.64
8412.00,1.64
8411.00,1.64
8410.00,1.64
8409.00,1.64
8408.00,1.64
8407.00,1.64
8406.00,1.64
8405.00,1.64
8404.00,1.64
8403.00,1.64
8402.00,1.64
8401.00,1.64
8400.00,1.64
8399.00,1.65
8398.00,1.65
8397.00,1.65
8396.00,1.65
8395.00,1.65
8394.00,1.65
8393.00,1.66
8392.00,1.66
8391.00,1.66
8390.00,1.66
8389.00,1.67
8388.00,1.67
8387.00,1.67
8386.00,1.67
8385.00,1.67
8384.00,1.68
8383.00,1.68
8382.00,1.68
8381.00,1.68
8380.00,1.68
8379.00,1.68
8378.00,1.69
8377.00,1.69
8376.00,1.69
8375.00,1.69
8374.00,1.69
8373.00,1.69
8372.00,1.69
8371.00,1.69
8370.00,1.69
8369.00,1.69
8368.00,1.69
8367.00,1.69
8366.00,1.69
8365.00,1.69
8364.00,1.69
8363.00,1.69
8362.00,1.69
8361.00,1.68
8360.00,1.68
8359.00,1.68
8358.00,1.68
8357.00,1.68
8356.00,1.68
8355.00,1.68
8354.00,1.68
8353.00,1.68
8352.00,1.68
8351.00,1.68
8350.00,1.68
8349.00,1.68
8348.00,1.68
8347.00,1.68
8346.00,1.68
8345.00,1.68
8344.00,1.68
8343.00,1.68
8342.00,1.68
8341.00,1.68
8340.00,1.68
8339.00,1.68
8338.00,1.68
8337.00,1.68
8336.00,1.68
8335.00,1.68
8334.00,1.68
8333.00,1.68
8332.00,1.68
8331.00,1.68
8330.00,1.68
8329.00,1.68
8328.00,1.68
8327.00,1.68
8326.00,1.68
8325.00,1.68
8324.00,1.68
8323.00,1.68
8322.00,1.68
8321.00,1.68
8320.00,1.68
8319.00,1.69
8318.00,1.69
8317.00,1.69
8316.00,1.69
8315.00,1.69
8314.00,1.69
8313.00,1.69
8312.00,1.69
8311.00,1.69
8310.00,1.69
8309.00,1.69
8308.00,1.70
8307.00,1.70
8306.00,1.70
8305.00,1.70
8304.00,1.70
8303.00,1.70
8302.00,1.70
8301.00,1.70
8300.00,1.70
8299.00,1.70
8298.00,1.70
8297.00,1.70
8296.00,1.70
8295.00,1.70
8294.00,1.70
8293.00,1.70
8292.00,1.70
8291.00,1.70
8290.00,1.70
8289.00,1.70
8288.00,1.70
8287.00,1.71
8286.00,1.71
8285.00,1.71
8284.00,1.71
8283.00,1.71
8282.00,1.71
8281.00,1.71
8280.00,1.71
8279.00,1.71
8278.00,1.71
8277.00,1.71
8276.00,1.71
8275.00,1.71
8274.00,1.71
8273.00,1.71
8272.00,1.71
8271.00,1.71
8270.00,1.71
8269.00,1.71
8268.00,1.71
8267.00,1.71
8266.00,1.71
8265.00,1.70
8264.00,1.70
8263.00,1.70
8262.00,1.70
8261.00,1.70
8260.00,1.70
8259.00,1.70
8258.00,1.70
8257.00,1.70
8256.00,1.70
8255.00,1.70
8254.00,1.70
8253.00,1.70
8252.00,1.70
8251.00,1.70
8250.00,1.71
8249.00,1.71
8248.00,1.71
8247.00,1.71
8246.00,1.71
8245.00,1.71
8244.00,1.71
8243.00,1.71
8242.00,1.71
8241.00,1.71
8240.00,1.71
8239.00,1.71
8238.00,1.71
8237.00,1.71
8236.00,1.72
8235.00,1.72
8234.00,1.72
8233.00,1.72
8232.00,1.72
8231.00,1.72
8230.00,1.72
8229.00,1.72
8228.00,1.72
8227.00,1.72
8226.00,1.72
8225.00,1.72
8224.00,1.72
8223.00,1.73
8222.00,1.73
8221.00,1.73
8220.00,1.73
8219.00,1.73
8218.00,1.73
8217.00,1.73
8216.00,1.73
8215.00,1.73
8214.00,1.73
8213.00,1.73
8212.00,1.73
8211.00,1.73
8210.00,1.73
8209.00,1.73
8208.00,1.73
8207.00,1.73
8206.00,1.73
8205.00,1.73
8204.00,1.73
8203.00,1.73
8202.00,1.73
8201.00,1.74
8200.00,1.74
8199.00,1.74
8198.00,1.74
8197.00,1.74
8196.00,1.74
8195.00,1.74
8194.00,1.74
8193.00,1.74
8192.00,1.75
8191.00,1.75
8190.00,1.75
8189.00,1.75
8188.00,1.75
8187.00,1.75
8186.00,1.75
8185.00,1.75
8184.00,1.75
8183.00,1.75
8182.00,1.75
8181.00,1.75
8180.00,1.75
8179.00,1.75
8178.00,1.75
8177.00,1.75
8176.00,1.75
8175.00,1.75
8174.00,1.75
8173.00,1.75
8172.00,1.75
8171.00,1.75
8170.00,1.75
8169.00,1.75
8168.00,1.75
8167.00,1.75
8166.00,1.75
8165.00,1.75
8164.00,1.75
8163.00,1.75
8162.00,1.75
8161.00,1.75
8160.00,1.75
8159.00,1.75
8158.00,1.75
8157.00,1.75
8156.00,1.75
8155.00,1.75
8154.00,1.75
8153.00,1.75
8152.00,1.75
8151.00,1.75
8150.00,1.75
8149.00,1.75
8148.00,1.75
8147.00,1.75
8146.00,1.76
8145.00,1.76
8144.00,1.76
8143.00,1.76
8142.00,1.76
8141.00,1.76
8140.00,1.76
8139.00,1.76
8138.00,1.76
8137.00,1.76
8136.00,1.77
8135.00,1.77
8134.00,1.77
8133.00,1.77
8132.00,1.77
8131.00,1.77
8130.00,1.77
8129.00,1.77
8128.00,1.77
8127.00,1.77
8126.00,1.77
8125.00,1.77
8124.00,1.77
8123.00,1.77
8122.00,1.78
8121.00,1.78
8120.00,1.78
8119.00,1.78
8118.00,1.78
8117.00,1.78
8116.00,1.78
8115.00,1.78
8114.00,1.78
8113.00,1.78
8112.00,1.78
8111.00,1.78
8110.00,1.78
8109.00,1.78
8108.00,1.78
8107.00,1.78
8106.00,1.78
8105.00,1.78
8104.00,1.78
8103.00,1.78
8102.00,1.78
8101.00,1.78
8100.00,1.78
8099.00,1.78
8098.00,1.78
8097.00,1.78
8096.00,1.78
8095.00,1.78
8094.00,1.78
8093.00,1.78
8092.00,1.78
8091.00,1.78
8090.00,1.78
8089.00,1.78
8088.00,1.78
8087.00,1.78
8086.00,1.78
8085.00,1.79
8084.00,1.79
8083.00,1.79
8082.00,1.79
8081.00,1.79
8080.00,1.79
8079.00,1.79
8078.00,1.79
8077.00,1.79
8076.00,1.79
8075.00,1.79
8074.00,1.79
8073.00,1.79
8072.00,1.79
8071.00,1.79
8070.00,1.79
8069.00,1.79
8068.00,1.79
8067.00,1.79
8066.00,1.79
8065.00,1.79
8064.00,1.79
8063.00,1.79
8062.00,1.79
8061.00,1.79
8060.00,1.79
8059.00,1.79
8058.00,1.79
8057.00,1.80
8056.00,1.80
8055.00,1.80
8054.00,1.80
8053.00,1.80
8052.00,1.80
8051.00,1.80
8050.00,1.80
8049.00,1.80
8048.00,1.80
8047.00,1.80
8046.00,1.80
8045.00,1.81
8044.00,1.81
8043.00,1.81
8042.00,1.81
8041.00,1.81
8040.00,1.81
8039.00,1.81
8038.00,1.81
8037.00,1.81
8036.00,1.81
8035.00,1.81
8034.00,1.81
8033.00,1.81
8032.00,1.81
8031.00,1.81
8030.00,1.81
8029.00,1.81
8028.00,1.81
8027.00,1.81
8026.00,1.81
8025.00,1.81
8024.00,1.81
8023.00,1.81
8022.00,1.81
8021.00,1.81
8020.00,1.81
8019.00,1.80
8018.00,1.80
8017.00,1.80
8016.00,1.80
8015.00,1.81
8014.00,1.81
8013.00,1.81
8012.00,1.81
8011.00,1.81
8010.00,1.81
8009.00,1.81
8008.00,1.81
8007.00,1.81
8006.00,1.81
8005.00,1.82
8004.00,1.82
8003.00,1.82
8002.00,1.82
8001.00,1.82
8000.00,1.82
7999.00,1.82
7998.00,1.82
7997.00,1.82
7996.00,1.82
7995.00,1.82
7994.00,1.82
7993.00,1.82
7992.00,1.82
7991.00,1.82
7990.00,1.82
7989.00,1.82
7988.00,1.82
7987.00,1.82
7986.00,1.81
7985.00,1.81
7984.00,1.81
7983.00,1.81
7982.00,1.81
7981.00,1.81
7980.00,1.82
7979.00,1.82
7978.00,1.82
7977.00,1.82
7976.00,1.82
7975.00,1.82
7974.00,1.82
7973.00,1.82
7972.00,1.82
7971.00,1.82
7970.00,1.82
7969.00,1.82
7968.00,1.82
7967.00,1.82
7966.00,1.82
7965.00,1.82
7964.00,1.82
7963.00,1.82
7962.00,1.82
7961.00,1.82
7960.00,1.82
7959.00,1.82
7958.00,1.83
7957.00,1.83
7956.00,1.83
7955.00,1.83
7954.00,1.83
7953.00,1.83
7952.00,1.83
7951.00,1.83
7950.00,1.83
7949.00,1.83
7948.00,1.83
7947.00,1.83
7946.00,1.83
7945.00,1.83
7944.00,1.83
7943.00,1.83
7942.00,1.83
7941.00,1.83
7940.00,1.83
7939.00,1.83
7938.00,1.83
7937.00,1.83
7936.00,1.83
7935.00,1.83
7934.00,1.83
7933.00,1.83
7932.00,1.83
7931.00,1.83
7930.00,1.83
7929.00,1.83
7928.00,1.83
7927.00,1.83
7926.00,1.83
7925.00,1.83
7924.00,1.83
7923.00,1.83
7922.00,1.83
7921.00,1.83
7920.00,1.83
7919.00,1.83
7918.00,1.83
7917.00,1.83
7916.00,1.83
7915.00,1.83
7914.00,1.83
7913.00,1.83
7912.00,1.83
7911.00,1.83
7910.00,1.83
7909.00,1.83
7908.00,1.83
7907.00,1.83
7906.00,1.83
7905.00,1.83
7904.00,1.83
7903.00,1.83
7902.00,1.84
7901.00,1.84
7900.00,1.84
7899.00,1.84
7898.00,1.84
7897.00,1.84
7896.00,1.84
7895.00,1.84
7894.00,1.84
7893.00,1.84
7892.00,1.84
7891.00,1.84
7890.00,1.84
7889.00,1.84
7888.00,1.84
7887.00,1.84
7886.00,1.84
7885.00,1.84
7884.00,1.84
7883.00,1.84
7882.00,1.84
7881.00,1.84
7880.00,1.84
7879.00,1.84
7878.00,1.85
7877.00,1.85
7876.00,1.85
7875.00,1.85
7874.00,1.85
7873.00,1.85
7872.00,1.85
7871.00,1.85
7870.00,1.85
7869.00,1.85
7868.00,1.85
7867.00,1.85
7866.00,1.85
7865.00,1.85
7864.00,1.85
7863.00,1.85
7862.00,1.85
7861.00,1.85
7860.00,1.85
7859.00,1.85
7858.00,1.85
7857.00,1.85
7856.00,1.85
7855.00,1.85
7854.00,1.85
7853.00,1.85
7852.00,1.85
7851.00,1.85
7850.00,1.85
7849.00,1.85
7848.00,1.85
7847.00,1.85
7846.00,1.85
7845.00,1.85
7844.00,1.85
7843.00,1.85
7842.00,1.85
7841.00,1.85
7840.00,1.85
7839.00,1.85
7838.00,1.85
7837.00,1.85
7836.00,1.85
7835.00,1.85
7834.00,1.85
7833.00,1.85
7832.00,1.85
7831.00,1.85
7830.00,1.85
7829.00,1.85
7828.00,1.85
7827.00,1.85
7826.00,1.85
7825.00,1.85
7824.00,1.85
7823.00,1.86
7822.00,1.86
7821.00,1.86
7820.00,1.86
7819.00,1.86
7818.00,1.86
7817.00,1.86
7816.00,1.86
7815.00,1.86
7814.00,1.86
7813.00,1.86
7812.00,1.86
7811.00,1.86
7810.00,1.86
7809.00,1.86
7808.00,1.86
7807.00,1.86
7806.00,1.86
7805.00,1.86
7804.00,1.86
7803.00,1.86
7802.00,1.86
7801.00,1.86
7800.00,1.86
7799.00,1.86
7798.00,1.86
7797.00,1.86
7796.00,1.86
7795.00,1.86
7794.00,1.86
7793.00,1.86
7792.00,1.86
7791.00,1.86
7790.00,1.86
7789.00,1.86
7788.00,1.86
7787.00,1.86
7786.00,1.86
7785.00,1.86
7784.00,1.86
7783.00,1.86
7782.00,1.86
7781.00,1.86
7780.00,1.86
7779.00,1.86
7778.00,1.86
7777.00,1.86
7776.00,1.86
7775.00,1.87
7774.00,1.87
7773.00,1.87
7772.00,1.87
7771.00,1.87
7770.00,1.87
7769.00,1.87
7768.00,1.87
7767.00,1.87
7766.00,1.87
7765.00,1.87
7764.00,1.87
7763.00,1.87
7762.00,1.87
7761.00,1.87
7760.00,1.87
7759.00,1.87
7758.00,1.87
7757.00,1.87
7756.00,1.87
7755.00,1.87
7754.00,1.87
7753.00,1.87
7752.00,1.87
7751.00,1.87
7750.00,1.87
7749.00,1.87
7748.00,1.87
7747.00,1.87
7746.00,1.86
7745.00,1.86
7744.00,1.86
7743.00,1.86
7742.00,1.86
7741.00,1.86
7740.00,1.86
7739.00,1.86
7738.00,1.86
7737.00,1.86
7736.00,1.86
7735.00,1.86
7734.00,1.86
7733.00,1.86
7732.00,1.86
7731.00,1.86
7730.00,1.86
7729.00,1.86
7728.00,1.86
7727.00,1.86
7726.00,1.86
7725.00,1.86
7724.00,1.86
7723.00,1.86
7722.00,1.87
7721.00,1.87
7720.00,1.87
7719.00,1.87
7718.00,1.87
7717.00,1.87
7716.00,1.87
7715.00,1.87
7714.00,1.87
7713.00,1.87
7712.00,1.87
7711.00,1.87
7710.00,1.87
7709.00,1.87
7708.00,1.87
7707.00,1.87
7706.00,1.87
7705.00,1.86
7704.00,1.86
7703.00,1.86
7702.00,1.86
7701.00,1.86
7700.00,1.86
7699.00,1.86
7698.00,1.86
7697.00,1.86
7696.00,1.86
7695.00,1.86
7694.00,1.86
7693.00,1.86
7692.00,1.86
7691.00,1.86
7690.00,1.86
7689.00,1.86
7688.00,1.86
7687.00,1.86
7686.00,1.86
7685.00,1.86
7684.00,1.86
7683.00,1.86
7682.00,1.86
7681.00,1.86
7680.00,1.86
7679.00,1.86
7678.00,1.86
7677.00,1.86
7676.00,1.86
7675.00,1.86
7674.00,1.86
7673.00,1.86
7672.00,1.86
7671.00,1.86
7670.00,1.86
7669.00,1.86
7668.00,1.86
7667.00,1.86
7666.00,1.86
7665.00,1.86
7664.00,1.86
7663.00,1.86
7662.00,1.86
7661.00,1.87
7660.00,1.87
7659.00,1.87
7658.00,1.87
7657.00,1.87
7656.00,1.87
7655.00,1.87
7654.00,1.87
7653.00,1.87
7652.00,1.87
7651.00,1.87
7650.00,1.87
7649.00,1.87
7648.00,1.87
7647.00,1.87
7646.00,1.87
7645.00,1.87
7644.00,1.87
7643.00,1.87
7642.00,1.87
7641.00,1.87
7640.00,1.87
7639.00,1.87
7638.00,1.87
7637.00,1.87
7636.00,1.87
7635.00,1.87
7634.00,1.87
7633.00,1.87
7632.00,1.87
7631.00,1.87
7630.00,1.87
7629.00,1.87
7628.00,1.87
7627.00,1.86
7626.00,1.86
7625.00,1.86
7624.00,1.86
7623.00,1.86
7622.00,1.86
7621.00,1.86
7620.00,1.86
7619.00,1.86
7618.00,1.86
7617.00,1.86
7616.00,1.86
7615.00,1.86
7614.00,1.86
7613.00,1.86
7612.00,1.86
7611.00,1.86
7610.00,1.86
7609.00,1.86
7608.00,1.86
7607.00,1.86
7606.00,1.86
7605.00,1.86
7604.00,1.86
7603.00,1.86
7602.00,1.86
7601.00,1.86
7600.00,1.86
7599.00,1.86
7598.00,1.87
7597.00,1.87
7596.00,1.87
7595.00,1.87
7594.00,1.87
7593.00,1.87
7592.00,1.87
7591.00,1.87
7590.00,1.87
7589.00,1.87
7588.00,1.87
7587.00,1.87
7586.00,1.87
7585.00,1.87
7584.00,1.87
7583.00,1.87
7582.00,1.87
7581.00,1.86
7580.00,1.86
7579.00,1.86
7578.00,1.86
7577.00,1.86
7576.00,1.86
7575.00,1.86
7574.00,1.86
7573.00,1.86
7572.00,1.86
7571.00,1.86
7570.00,1.86
7569.00,1.86
7568.00,1.86
7567.00,1.86
7566.00,1.86
7565.00,1.86
7564.00,1.86
7563.00,1.86
7562.00,1.86
7561.00,1.86
7560.00,1.86
7559.00,1.86
7558.00,1.86
7557.00,1.86
7556.00,1.85
7555.00,1.85
7554.00,1.85
7553.00,1.85
7552.00,1.85
7551.00,1.85
7550.00,1.85
7549.00,1.85
7548.00,1.85
7547.00,1.85
7546.00,1.85
7545.00,1.85
7544.00,1.85
7543.00,1.85
7542.00,1.85
7541.00,1.85
7540.00,1.85
7539.00,1.85
7538.00,1.85
7537.00,1.85
7536.00,1.85
7535.00,1.85
7534.00,1.85
7533.00,1.85
7532.00,1.85
7531.00,1.85
7530.00,1.85
7529.00,1.85
7528.00,1.85
7527.00,1.85
7526.00,1.85
7525.00,1.85
7524.00,1.85
7523.00,1.84
7522.00,1.84
7521.00,1.84
7520.00,1.84
7519.00,1.84
7518.00,1.84
7517.00,1.84
7516.00,1.84
7515.00,1.84
7514.00,1.84
7513.00,1.84
7512.00,1.84
7511.00,1.84
7510.00,1.84
7509.00,1.84
7508.00,1.84
7507.00,1.83
7506.00,1.83
7505.00,1.83
7504.00,1.83
7503.00,1.83
7502.00,1.83
7501.00,1.83
7500.00,1.83
7499.00,1.83
7498.00,1.83
7497.00,1.83
7496.00,1.83
7495.00,1.83
7494.00,1.83
7493.00,1.83
7492.00,1.83
7491.00,1.83
7490.00,1.83
7489.00,1.83
7488.00,1.83
7487.00,1.83
7486.00,1.83
7485.00,1.83
7484.00,1.83
7483.00,1.83
7482.00,1.83
7481.00,1.83
7480.00,1.83
7479.00,1.83
7478.00,1.83
7477.00,1.83
7476.00,1.83
7475.00,1.83
7474.00,1.83
7473.00,1.83
7472.00,1.83
7471.00,1.83
7470.00,1.83
7469.00,1.83
7468.00,1.83
7467.00,1.82
7466.00,1.82
7465.00,1.82
7464.00,1.82
7463.00,1.82
7462.00,1.82
7461.00,1.82
7460.00,1.82
7459.00,1.82
7458.00,1.82
7457.00,1.82
7456.00,1.81
7455.00,1.81
7454.00,1.81
7453.00,1.81
7452.00,1.81
7451.00,1.81
7450.00,1.81
7449.00,1.81
7448.00,1.81
7447.00,1.81
7446.00,1.80
7445.00,1.80
7444.00,1.80
7443.00,1.80
7442.00,1.80
7441.00,1.80
7440.00,1.80
7439.00,1.80
7438.00,1.80
7437.00,1.80
7436.00,1.80
7435.00,1.80
7434.00,1.80
7433.00,1.80
7432.00,1.80
7431.00,1.80
7430.00,1.80
7429.00,1.80
7428.00,1.79
7427.00,1.79
7426.00,1.79
7425.00,1.79
7424.00,1.79
7423.00,1.79
7422.00,1.79
7421.00,1.79
7420.00,1.78
7419.00,1.78
7418.00,1.78
7417.00,1.78
7416.00,1.78
7415.00,1.78
7414.00,1.77
7413.00,1.77
7412.00,1.77
7411.00,1.77
7410.00,1.77
7409.00,1.77
7408.00,1.77
7407.00,1.77
7406.00,1.77
7405.00,1.77
7404.00,1.76
7403.00,1.76
7402.00,1.76
7401.00,1.76
7400.00,1.76
7399.00,1.76
7398.00,1.76
7397.00,1.76
7396.00,1.76
7395.00,1.76
7394.00,1.76
7393.00,1.76
7392.00,1.75
7391.00,1.75
7390.00,1.75
7389.00,1.75
7388.00,1.75
7387.00,1.75
7386.00,1.74
7385.00,1.74
7384.00,1.74
7383.00,1.74
7382.00,1.74
7381.00,1.74
7380.00,1.74
7379.00,1.74
7378.00,1.73
7377.00,1.73
7376.00,1.73
7375.00,1.73
7374.00,1.73
7373.00,1.73
7372.00,1.73
7371.00,1.73
7370.00,1.73
7369.00,1.73
7368.00,1.73
7367.00,1.73
7366.00,1.73
7365.00,1.73
7364.00,1.72
7363.00,1.72
7362.00,1.72
7361.00,1.72
7360.00,1.72
7359.00,1.72
7358.00,1.72
7357.00,1.72
7356.00,1.72
7355.00,1.72
7354.00,1.72
7353.00,1.72
7352.00,1.72
7351.00,1.72
7350.00,1.72
7349.00,1.72
7348.00,1.72
7347.00,1.72
7346.00,1.72
7345.00,1.72
7344.00,1.72
7343.00,1.72
7342.00,1.72
7341.00,1.72
7340.00,1.72
7339.00,1.72
7338.00,1.72
7337.00,1.72
7336.00,1.72
7335.00,1.72
7334.00,1.72
7333.00,1.72
7332.00,1.72
7331.00,1.72
7330.00,1.72
7329.00,1.72
7328.00,1.72
7327.00,1.71
7326.00,1.71
7325.00,1.71
7324.00,1.71
7323.00,1.71
7322.00,1.71
7321.00,1.71
7320.00,1.71
7319.00,1.70
7318.00,1.70
7317.00,1.70
7316.00,1.70
7315.00,1.70
7314.00,1.70
7313.00,1.70
7312.00,1.70
7311.00,1.70
7310.00,1.70
7309.00,1.69
7308.00,1.69
7307.00,1.69
7306.00,1.69
7305.00,1.69
7304.00,1.69
7303.00,1.69
7302.00,1.69
7301.00,1.69
7300.00,1.68
7299.00,1.68
7298.00,1.68
7297.00,1.68
7296.00,1.67
7295.00,1.67
7294.00,1.67
7293.00,1.67
7292.00,1.66
7291.00,1.66
7290.00,1.66
7289.00,1.66
7288.00,1.66
7287.00,1.65
7286.00,1.65
7285.00,1.65
7284.00,1.65
7283.00,1.65
7282.00,1.64
7281.00,1.64
7280.00,1.64
7279.00,1.64
7278.00,1.64
7277.00,1.64
7276.00,1.64
7275.00,1.64
7274.00,1.63
7273.00,1.63
7272.00,1.63
7271.00,1.63
7270.00,1.63
7269.00,1.63
7268.00,1.63
7267.00,1.63
7266.00,1.62
7265.00,1.62
7264.00,1.62
7263.00,1.62
7262.00,1.62
7261.00,1.62
7260.00,1.62
7259.00,1.61
7258.00,1.61
7257.00,1.61
7256.00,1.61
7255.00,1.61
7254.00,1.61
7253.00,1.60
7252.00,1.60
7251.00,1.60
7250.00,1.60
7249.00,1.60
7248.00,1.59
7247.00,1.59
7246.00,1.59
7245.00,1.59
7244.00,1.59
7243.00,1.58
7242.00,1.58
7241.00,1.58
7240.00,1.57
7239.00,1.57
7238.00,1.57
7237.00,1.56
7236.00,1.56
7235.00,1.56
7234.00,1.55
7233.00,1.55
7232.00,1.54
7231.00,1.54
7230.00,1.53
7229.00,1.53
7228.00,1.52
7227.00,1.52
7226.00,1.51
7225.00,1.51
7224.00,1.50
7223.00,1.50
7222.00,1.49
7221.00,1.49
7220.00,1.48
7219.00,1.48
7218.00,1.47
7217.00,1.47
7216.00,1.46
7215.00,1.46
7214.00,1.45
7213.00,1.45
7212.00,1.44
7211.00,1.44
7210.00,1.43
7209.00,1.43
7208.00,1.42
7207.00,1.42
7206.00,1.41
7205.00,1.41
7204.00,1.40
7203.00,1.40
7202.00,1.39
7201.00,1.39
7200.00,1.39
7199.00,1.38
7198.00,1.38
7197.00,1.37
7196.00,1.37
7195.00,1.36
7194.00,1.36
7193.00,1.36
7192.00,1.35
7191.00,1.35
7190.00,1.34
7189.00,1.34
7188.00,1.33
7187.00,1.33
7186.00,1.33
7185.00,1.32
7184.00,1.32
7183.00,1.32
7182.00,1.31
7181.00,1.31
7180.00,1.30
7179.00,1.30
7178.00,1.30
7177.00,1.29
7176.00,1.29
7175.00,1.28
7174.00,1.28
7173.00,1.28
7172.00,1.27
7171.00,1.27
7170.00,1.26
7169.00,1.26
7168.00,1.26
7167.00,1.25
7166.00,1.25
7165.00,1.24
7164.00,1.24
7163.00,1.24
7162.00,1.23
7161.00,1.23
7160.00,1.23
7159.00,1.22
7158.00,1.22
7157.00,1.22
7156.00,1.21
7155.00,1.21
7154.00,1.21
7153.00,1.20
7152.00,1.20
7151.00,1.20
7150.00,1.19
7149.00,1.19
7148.00,1.18
7147.00,1.18
7146.00,1.18
7145.00,1.17
7144.00,1.17
7143.00,1.16
7142.00,1.16
7141.00,1.16
7140.00,1.15
7139.00,1.15
7138.00,1.14
7137.00,1.14
7136.00,1.14
7135.00,1.13
7134.00,1.13
7133.00,1.12
7132.00,1.12
7131.00,1.11
7130.00,1.11
7129.00,1.11
7128.00,1.10
7127.00,1.10
7126.00,1.09
7125.00,1.09
7124.00,1.09
7123.00,1.08
7122.00,1.08
7121.00,1.07
7120.00,1.07
7119.00,1.07
7118.00,1.06
7117.00,1.06
7116.00,1.06
7115.00,1.05
7114.00,1.05
7113.00,1.05
7112.00,1.04
7111.00,1.04
7110.00,1.04
7109.00,1.03
7108.00,1.03
7107.00,1.03
7106.00,1.02
7105.00,1.02
7104.00,1.01
7103.00,1.01
7102.00,1.01
7101.00,1.00
7100.00,1.00
7099.00,1.00
7098.00,1.00
7097.00,0.99
7096.00,0.99
7095.00,0.99
7094.00,0.99
7093.00,0.98
7092.00,0.98
7091.00,0.98
7090.00,0.98
7089.00,0.97
7088.00,0.97
7087.00,0.97
7086.00,0.97
7085.00,0.96
7084.00,0.96
7083.00,0.96
7082.00,0.95
7081.00,0.95
7080.00,0.95
7079.00,0.95
7078.00,0.94
7077.00,0.94
7076.00,0.94
7075.00,0.94
7074.00,0.93
7073.00,0.93
7072.00,0.93
7071.00,0.93
7070.00,0.92
7069.00,0.92
7068.00,0.92
7067.00,0.92
7066.00,0.92
7065.00,0.91
7064.00,0.91
7063.00,0.91
7062.00,0.91
7061.00,0.91
7060.00,0.90
7059.00,0.90
7058.00,0.90
7057.00,0.90
7056.00,0.90
7055.00,0.89
7054.00,0.89
7053.00,0.89
7052.00,0.89
7051.00,0.89
7050.00,0.88
7049.00,0.88
7048.00,0.88
7047.00,0.88
7046.00,0.88
7045.00,0.87
7044.00,0.87
7043.00,0.87
7042.00,0.87
7041.00,0.87
7040.00,0.87
7039.00,0.87
7038.00,0.86
7037.00,0.86
7036.00,0.86
7035.00,0.86
7034.00,0.86
7033.00,0.86
7032.00,0.86
7031.00,0.86
7030.00,0.85
7029.00,0.85
7028.00,0.85
7027.00,0.85
7026.00,0.85
7025.00,0.84
7024.00,0.84
7023.00,0.84
7022.00,0.84
7021.00,0.84
7020.00,0.84
7019.00,0.83
7018.00,0.83
7017.00,0.83
7016.00,0.83
7015.00,0.83
7014.00,0.83
7013.00,0.83
7012.00,0.83
7011.00,0.83
7010.00,0.83
7009.00,0.83
7008.00,0.82
7007.00,0.82
7006.00,0.82
7005.00,0.82
7004.00,0.82
7003.00,0.82
7002.00,0.82
7001.00,0.82
7000.00,0.82
6999.00,0.82
6998.00,0.81
6997.00,0.81
6996.00,0.81
6995.00,0.81
6994.00,0.81
6993.00,0.81
6992.00,0.81
6991.00,0.81
6990.00,0.81
6989.00,0.80
6988.00,0.80
6987.00,0.80
6986.00,0.80
6985.00,0.80
6984.00,0.80
6983.00,0.80
6982.00,0.80
6981.00,0.80
6980.00,0.80
6979.00,0.80
6978.00,0.80
6977.00,0.80
6976.00,0.80
6975.00,0.80
6974.00,0.80
6973.00,0.80
6972.00,0.80
6971.00,0.80
6970.00,0.80
6969.00,0.80
6968.00,0.80
6967.00,0.79
6966.00,0.79
6965.00,0.79
6964.00,0.79
6963.00,0.79
6962.00,0.79
6961.00,0.79
6960.00,0.79
6959.00,0.79
6958.00,0.78
6957.00,0.78
6956.00,0.78
6955.00,0.78
6954.00,0.78
6953.00,0.78
6952.00,0.78
6951.00,0.78
6950.00,0.78
6949.00,0.78
6948.00,0.77
6947.00,0.77
6946.00,0.77
6945.00,0.77
6944.00,0.77
6943.00,0.77
6942.00,0.77
6941.00,0.77
6940.00,0.77
6939.00,0.77
6938.00,0.77
6937.00,0.77
6936.00,0.77
6935.00,0.77
6934.00,0.77
6933.00,0.77
6932.00,0.77
6931.00,0.77
6930.00,0.77
6929.00,0.77
6928.00,0.77
6927.00,0.77
6926.00,0.77
6925.00,0.77
6924.00,0.76
6923.00,0.76
6922.00,0.76
6921.00,0.76
6920.00,0.76
6919.00,0.76
6918.00,0.76
6917.00,0.76
6916.00,0.76
6915.00,0.76
6914.00,0.75
6913.00,0.75
6912.00,0.75
6911.00,0.75
6910.00,0.75
6909.00,0.75
6908.00,0.75
6907.00,0.75
6906.00,0.75
6905.00,0.75
6904.00,0.76
6903.00,0.76
6902.00,0.76
6901.00,0.76
6900.00,0.76
6899.00,0.76
6898.00,0.76
6897.00,0.76
6896.00,0.76
6895.00,0.76
6894.00,0.76
6893.00,0.76
6892.00,0.76
6891.00,0.76
6890.00,0.76
6889.00,0.76
6888.00,0.76
6887.00,0.75
6886.00,0.75
6885.00,0.75
6884.00,0.75
6883.00,0.75
6882.00,0.75
6881.00,0.75
6880.00,0.75
6879.00,0.75
6878.00,0.75
6877.00,0.75
6876.00,0.75
6875.00,0.75
6874.00,0.75
6873.00,0.75
6872.00,0.75
6871.00,0.75
6870.00,0.75
6869.00,0.75
6868.00,0.75
6867.00,0.75
6866.00,0.75
6865.00,0.75
6864.00,0.75
6863.00,0.75
6862.00,0.75
6861.00,0.75
6860.00,0.75
6859.00,0.75
6858.00,0.75
6857.00,0.75
6856.00,0.75
6855.00,0.75
6854.00,0.75
6853.00,0.75
6852.00,0.75
6851.00,0.75
6850.00,0.75
6849.00,0.75
6848.00,0.75
6847.00,0.75
6846.00,0.75
6845.00,0.75
6844.00,0.75
6843.00,0.75
6842.00,0.75
6841.00,0.75
6840.00,0.75
6839.00,0.75
6838.00,0.75
6837.00,0.75
6836.00,0.75
6835.00,0.75
6834.00,0.75
6833.00,0.75
6832.00,0.75
6831.00,0.75
6830.00,0.75
6829.00,0.75
6828.00,0.75
6827.00,0.75
6826.00,0.75
6825.00,0.76
6824.00,0.76
6823.00,0.76
6822.00,0.76
6821.00,0.76
6820.00,0.76
6819.00,0.76
6818.00,0.76
6817.00,0.76
6816.00,0.76
6815.00,0.76
6814.00,0.76
6813.00,0.76
6812.00,0.77
6811.00,0.77
6810.00,0.77
6809.00,0.77
6808.00,0.77
6807.00,0.77
6806.00,0.77
6805.00,0.77
6804.00,0.77
6803.00,0.77
6802.00,0.77
6801.00,0.77
6800.00,0.77
6799.00,0.77
6798.00,0.77
6797.00,0.77
6796.00,0.78
6795.00,0.78
6794.00,0.78
6793.00,0.78
6792.00,0.78
6791.00,0.78
6790.00,0.78
6789.00,0.78
6788.00,0.78
6787.00,0.78
6786.00,0.78
6785.00,0.78
6784.00,0.78
6783.00,0.78
6782.00,0.79
6781.00,0.79
6780.00,0.79
6779.00,0.79
6778.00,0.79
6777.00,0.79
6776.00,0.79
6775.00,0.79
6774.00,0.79
6773.00,0.79
6772.00,0.79
6771.00,0.79
6770.00,0.79
6769.00,0.79
6768.00,0.80
6767.00,0.80
6766.00,0.80
6765.00,0.80
6764.00,0.80
6763.00,0.80
6762.00,0.80
6761.00,0.80
6760.00,0.81
6759.00,0.81
6758.00,0.81
6757.00,0.81
6756.00,0.81
6755.00,0.81
6754.00,0.81
6753.00,0.81
6752.00,0.81
6751.00,0.81
6750.00,0.81
6749.00,0.82
6748.00,0.82
6747.00,0.82
6746.00,0.82
6745.00,0.82
6744.00,0.82
6743.00,0.82
6742.00,0.82
6741.00,0.82
6740.00,0.82
6739.00,0.82
6738.00,0.83
6737.00,0.83
6736.00,0.83
6735.00,0.83
6734.00,0.83
6733.00,0.83
6732.00,0.83
6731.00,0.83
6730.00,0.83
6729.00,0.83
6728.00,0.83
6727.00,0.83
6726.00,0.83
6725.00,0.84
6724.00,0.84
6723.00,0.84
6722.00,0.84
6721.00,0.84
6720.00,0.84
6719.00,0.84
6718.00,0.84
6717.00,0.84
6716.00,0.84
6715.00,0.84
6714.00,0.84
6713.00,0.84
6712.00,0.85
6711.00,0.85
6710.00,0.85
6709.00,0.85
6708.00,0.85
6707.00,0.85
6706.00,0.85
6705.00,0.85
6704.00,0.86
6703.00,0.86
6702.00,0.86
6701.00,0.86
6700.00,0.86
6699.00,0.86
6698.00,0.86
6697.00,0.87
6696.00,0.87
6695.00,0.87
6694.00,0.87
6693.00,0.87
6692.00,0.87
6691.00,0.87
6690.00,0.88
6689.00,0.88
6688.00,0.88
6687.00,0.88
6686.00,0.88
6685.00,0.88
6684.00,0.88
6683.00,0.89
6682.00,0.89
6681.00,0.89
6680.00,0.89
6679.00,0.89
6678.00,0.89
6677.00,0.89
6676.00,0.90
6675.00,0.90
6674.00,0.90
6673.00,0.90
6672.00,0.90
6671.00,0.90
6670.00,0.90
6669.00,0.90
6668.00,0.90
6667.00,0.90
6666.00,0.90
6665.00,0.91
6664.00,0.91
6663.00,0.91
6662.00,0.91
6661.00,0.91
6660.00,0.91
6659.00,0.91
6658.00,0.91
6657.00,0.91
6656.00,0.92
6655.00,0.92
6654.00,0.92
6653.00,0.92
6652.00,0.92
6651.00,0.92
6650.00,0.92
6649.00,0.92
6648.00,0.93
6647.00,0.93
6646.00,0.93
6645.00,0.93
6644.00,0.93
6643.00,0.93
6642.00,0.93
6641.00,0.93
6640.00,0.94
6639.00,0.94
6638.00,0.94
6637.00,0.94
6636.00,0.94
6635.00,0.94
6634.00,0.94
6633.00,0.95
6632.00,0.95
6631.00,0.95
6630.00,0.95
6629.00,0.95
6628.00,0.95
6627.00,0.95
6626.00,0.95
6625.00,0.96
6624.00,0.96
6623.00,0.96
6622.00,0.96
6621.00,0.96
6620.00,0.96
6619.00,0.96
6618.00,0.96
6617.00,0.97
6616.00,0.97
6615.00,0.97
6614.00,0.97
6613.00,0.97
6612.00,0.97
6611.00,0.97
6610.00,0.98
6609.00,0.98
6608.00,0.98
6607.00,0.98
6606.00,0.98
6605.00,0.98
6604.00,0.99
6603.00,0.99
6602.00,0.99
6601.00,0.99
6600.00,0.99
6599.00,0.99
6598.00,0.99
6597.00,0.99
6596.00,0.99
6595.00,1.00
6594.00,1.00
6593.00,1.00
6592.00,1.00
6591.00,1.00
6590.00,1.00
6589.00,1.00
6588.00,1.00
6587.00,1.00
6586.00,1.01
6585.00,1.01
6584.00,1.01
6583.00,1.01
6582.00,1.01
6581.00,1.01
6580.00,1.01
6579.00,1.02
6578.00,1.02
6577.00,1.02
6576.00,1.02
6575.00,1.02
6574.00,1.03
6573.00,1.03
6572.00,1.03
6571.00,1.03
6570.00,1.03
6569.00,1.04
6568.00,1.04
6567.00,1.04
6566.00,1.04
6565.00,1.04
6564.00,1.04
6563.00,1.04
6562.00,1.05
6561.00,1.05
6560.00,1.05
6559.00,1.05
6558.00,1.05
6557.00,1.05
6556.00,1.05
6555.00,1.05
6554.00,1.05
6553.00,1.06
6552.00,1.06
6551.00,1.06
6550.00,1.06
6549.00,1.06
6548.00,1.06
6547.00,1.06
6546.00,1.06
6545.00,1.07
6544.00,1.07
6543.00,1.07
6542.00,1.07
6541.00,1.07
6540.00,1.07
6539.00,1.07
6538.00,1.07
6537.00,1.08
6536.00,1.08
6535.00,1.08
6534.00,1.08
6533.00,1.08
6532.00,1.08
6531.00,1.08
6530.00,1.09
6529.00,1.09
6528.00,1.09
6527.00,1.09
6526.00,1.09
6525.00,1.09
6524.00,1.09
6523.00,1.09
6522.00,1.09
6521.00,1.09
6520.00,1.10
6519.00,1.10
6518.00,1.10
6517.00,1.10
6516.00,1.10
6515.00,1.10
6514.00,1.10
6513.00,1.10
6512.00,1.10
6511.00,1.10
6510.00,1.10
6509.00,1.10
6508.00,1.11
6507.00,1.11
6506.00,1.11
6505.00,1.11
6504.00,1.11
6503.00,1.11
6502.00,1.11
6501.00,1.11
6500.00,1.11
6499.00,1.11
6498.00,1.11
6497.00,1.11
6496.00,1.11
6495.00,1.11
6494.00,1.11
6493.00,1.12
6492.00,1.12
6491.00,1.12
6490.00,1.12
6489.00,1.12
6488.00,1.12
6487.00,1.12
6486.00,1.13
6485.00,1.13
6484.00,1.13
6483.00,1.13
6482.00,1.13
6481.00,1.13
6480.00,1.13
6479.00,1.14
6478.00,1.14
6477.00,1.14
6476.00,1.14
6475.00,1.14
6474.00,1.14
6473.00,1.14
6472.00,1.14
6471.00,1.14
6470.00,1.14
6469.00,1.14
6468.00,1.14
6467.00,1.14
6466.00,1.14
6465.00,1.14
6464.00,1.15
6463.00,1.15
6462.00,1.15
6461.00,1.15
6460.00,1.15
6459.00,1.15
6458.00,1.15
6457.00,1.15
6456.00,1.15
6455.00,1.15
6454.00,1.15
6453.00,1.16
6452.00,1.16
6451.00,1.16
6450.00,1.16
6449.00,1.16
6448.00,1.16
6447.00,1.16
6446.00,1.16
6445.00,1.16
6444.00,1.16
6443.00,1.16
6442.00,1.17
6441.00,1.17
6440.00,1.17
6439.00,1.17
6438.00,1.17
6437.00,1.17
6436.00,1.17
6435.00,1.17
6434.00,1.17
6433.00,1.17
6432.00,1.17
6431.00,1.17
6430.00,1.17
6429.00,1.18
6428.00,1.18
6427.00,1.18
6426.00,1.18
6425.00,1.18
6424.00,1.18
6423.00,1.18
6422.00,1.18
6421.00,1.18
6420.00,1.18
6419.00,1.18
6418.00,1.18
6417.00,1.18
6416.00,1.18
6415.00,1.18
6414.00,1.18
6413.00,1.18
6412.00,1.19
6411.00,1.19
6410.00,1.19
6409.00,1.19
6408.00,1.19
6407.00,1.19
6406.00,1.19
6405.00,1.19
6404.00,1.19
6403.00,1.19
6402.00,1.20
6401.00,1.20
6400.00,1.20
6399.00,1.20
6398.00,1.20
6397.00,1.20
6396.00,1.20
6395.00,1.20
6394.00,1.20
6393.00,1.20
6392.00,1.20
6391.00,1.20
6390.00,1.21
6389.00,1.21
6388.00,1.21
6387.00,1.21
6386.00,1.21
6385.00,1.21
6384.00,1.21
6383.00,1.21
6382.00,1.21
6381.00,1.21
6380.00,1.21
6379.00,1.22
6378.00,1.22
6377.00,1.22
6376.00,1.22
6375.00,1.22
6374.00,1.22
6373.00,1.22
6372.00,1.22
6371.00,1.22
6370.00,1.22
6369.00,1.22
6368.00,1.23
6367.00,1.23
6366.00,1.23
6365.00,1.23
6364.00,1.23
6363.00,1.23
6362.00,1.23
6361.00,1.23
6360.00,1.23
6359.00,1.23
6358.00,1.23
6357.00,1.23
6356.00,1.24
6355.00,1.24
6354.00,1.24
6353.00,1.24
6352.00,1.24
6351.00,1.24
6350.00,1.24
6349.00,1.24
6348.00,1.24
6347.00,1.25
6346.00,1.25
6345.00,1.25
6344.00,1.25
6343.00,1.25
6342.00,1.25
6341.00,1.25
6340.00,1.26
6339.00,1.26
6338.00,1.26
6337.00,1.26
6336.00,1.26
6335.00,1.26
6334.00,1.26
6333.00,1.26
6332.00,1.27
6331.00,1.27
6330.00,1.27
6329.00,1.27
6328.00,1.27
6327.00,1.27
6326.00,1.27
6325.00,1.27
6324.00,1.27
6323.00,1.28
6322.00,1.28
6321.00,1.28
6320.00,1.28
6319.00,1.28
6318.00,1.28
6317.00,1.28
6316.00,1.28
6315.00,1.29
6314.00,1.29
6313.00,1.29
6312.00,1.29
6311.00,1.29
6310.00,1.30
6309.00,1.30
6308.00,1.30
6307.00,1.30
6306.00,1.30
6305.00,1.30
6304.00,1.31
6303.00,1.31
6302.00,1.31
6301.00,1.31
6300.00,1.31
6299.00,1.31
6298.00,1.32
6297.00,1.32
6296.00,1.32
6295.00,1.32
6294.00,1.32
6293.00,1.32
6292.00,1.32
6291.00,1.33
6290.00,1.33
6289.00,1.33
6288.00,1.33
6287.00,1.33
6286.00,1.33
6285.00,1.33
6284.00,1.33
6283.00,1.34
6282.00,1.34
6281.00,1.34
6280.00,1.34
6279.00,1.34
6278.00,1.34
6277.00,1.34
6276.00,1.34
6275.00,1.34
6274.00,1.35
6273.00,1.35
6272.00,1.35
6271.00,1.35
6270.00,1.35
6269.00,1.35
6268.00,1.35
6267.00,1.36
6266.00,1.36
6265.00,1.36
6264.00,1.36
6263.00,1.36
6262.00,1.37
6261.00,1.37
6260.00,1.37
6259.00,1.37
6258.00,1.37
6257.00,1.37
6256.00,1.38
6255.00,1.38
6254.00,1.38
6253.00,1.38
6252.00,1.38
6251.00,1.38
6250.00,1.38
6249.00,1.39
6248.00,1.39
6247.00,1.39
6246.00,1.39
6245.00,1.39
6244.00,1.39
6243.00,1.40
6242.00,1.40
6241.00,1.40
6240.00,1.40
6239.00,1.40
6238.00,1.41
6237.00,1.41
6236.00,1.41
6235.00,1.41
6234.00,1.41
6233.00,1.41
6232.00,1.42
6231.00,1.42
6230.00,1.42
6229.00,1.42
6228.00,1.42
6227.00,1.43
6226.00,1.43
6225.00,1.43
6224.00,1.43
6223.00,1.43
6222.00,1.44
6221.00,1.44
6220.00,1.44
6219.00,1.44
6218.00,1.45
6217.00,1.45
6216.00,1.45
6215.00,1.45
6214.00,1.45
6213.00,1.46
6212.00,1.46
6211.00,1.46
6210.00,1.46
6209.00,1.46
6208.00,1.46
6207.00,1.47
6206.00,1.47
6205.00,1.47
6204.00,1.47
6203.00,1.47
6202.00,1.47
6201.00,1.47
6200.00,1.47
6199.00,1.47
6198.00,1.48
6197.00,1.48
6196.00,1.48
6195.00,1.48
6194.00,1.48
6193.00,1.48
6192.00,1.48
6191.00,1.48
6190.00,1.49
6189.00,1.49
6188.00,1.49
6187.00,1.49
6186.00,1.49
6185.00,1.50
6184.00,1.50
6183.00,1.50
6182.00,1.50
6181.00,1.51
6180.00,1.51
6179.00,1.51
6178.00,1.51
6177.00,1.51
6176.00,1.52
6175.00,1.52
6174.00,1.52
6173.00,1.52
6172.00,1.53
6171.00,1.53
6170.00,1.53
6169.00,1.53
6168.00,1.53
6167.00,1.54
6166.00,1.54
6165.00,1.54
6164.00,1.54
6163.00,1.54
6162.00,1.55
6161.00,1.55
6160.00,1.55
6159.00,1.55
6158.00,1.55
6157.00,1.56
6156.00,1.56
6155.00,1.56
6154.00,1.56
6153.00,1.56
6152.00,1.57
6151.00,1.57
6150.00,1.57
6149.00,1.57
6148.00,1.57
6147.00,1.58
6146.00,1.58
6145.00,1.58
6144.00,1.58
6143.00,1.58
6142.00,1.58
6141.00,1.58
6140.00,1.59
6139.00,1.59
6138.00,1.59
6137.00,1.59
6136.00,1.59
6135.00,1.60
6134.00,1.60
6133.00,1.60
6132.00,1.60
6131.00,1.60
6130.00,1.61
6129.00,1.61
6128.00,1.61
6127.00,1.61
6126.00,1.61
6125.00,1.62
6124.00,1.62
6123.00,1.62
6122.00,1.62
6121.00,1.62
6120.00,1.63
6119.00,1.63
6118.00,1.63
6117.00,1.63
6116.00,1.63
6115.00,1.64
6114.00,1.64
6113.00,1.64
6112.00,1.64
6111.00,1.64
6110.00,1.65
6109.00,1.65
6108.00,1.65
6107.00,1.65
6106.00,1.65
6105.00,1.66
6104.00,1.66
6103.00,1.66
6102.00,1.66
6101.00,1.66
6100.00,1.67
6099.00,1.67
6098.00,1.67
6097.00,1.67
6096.00,1.67
6095.00,1.67
6094.00,1.68
6093.00,1.68
6092.00,1.68
6091.00,1.68
6090.00,1.68
6089.00,1.68
6088.00,1.68
6087.00,1.69
6086.00,1.69
6085.00,1.69
6084.00,1.69
6083.00,1.69
6082.00,1.69
6081.00,1.69
6080.00,1.69
6079.00,1.69
6078.00,1.70
6077.00,1.70
6076.00,1.70
6075.00,1.70
6074.00,1.70
6073.00,1.70
6072.00,1.70
6071.00,1.70
6070.00,1.70
6069.00,1.71
6068.00,1.71
6067.00,1.71
6066.00,1.71
6065.00,1.71
6064.00,1.72
6063.00,1.72
6062.00,1.72
6061.00,1.72
6060.00,1.72
6059.00,1.73
6058.00,1.73
6057.00,1.73
6056.00,1.73
6055.00,1.73
6054.00,1.73
6053.00,1.74
6052.00,1.74
6051.00,1.74
6050.00,1.74
6049.00,1.74
6048.00,1.74
6047.00,1.74
6046.00,1.74
6045.00,1.74
6044.00,1.75
6043.00,1.75
6042.00,1.75
6041.00,1.75
6040.00,1.75
6039.00,1.75
6038.00,1.75
6037.00,1.75
6036.00,1.75
6035.00,1.76
6034.00,1.76
6033.00,1.76
6032.00,1.76
6031.00,1.76
6030.00,1.76
6029.00,1.76
6028.00,1.76
6027.00,1.76
6026.00,1.76
6025.00,1.76
6024.00,1.76
6023.00,1.76
6022.00,1.76
6021.00,1.76
6020.00,1.76
6019.00,1.76
6018.00,1.76
6017.00,1.76
6016.00,1.76
6015.00,1.76
6014.00,1.76
6013.00,1.76
6012.00,1.76
6011.00,1.76
6010.00,1.76
6009.00,1.76
6008.00,1.76
6007.00,1.76
6006.00,1.75
6005.00,1.75
6004.00,1.75
6003.00,1.75
6002.00,1.75
6001.00,1.75
6000.00,1.75
5999.00,1.75
5998.00,1.75
5997.00,1.75
5996.00,1.75
5995.00,1.74
5994.00,1.74
5993.00,1.74
5992.00,1.74
5991.00,1.74
5990.00,1.74
5989.00,1.73
5988.00,1.73
5987.00,1.73
5986.00,1.72
5985.00,1.72
5984.00,1.72
5983.00,1.71
5982.00,1.71
5981.00,1.71
5980.00,1.70
5979.00,1.69
5978.00,1.69
5977.00,1.68
5976.00,1.68
5975.00,1.67
5974.00,1.66
5973.00,1.66
5972.00,1.65
5971.00,1.64
5970.00,1.63
5969.00,1.63
5968.00,1.62
5967.00,1.61
5966.00,1.60
5965.00,1.59
5964.00,1.58
5963.00,1.57
5962.00,1.56
5961.00,1.55
5960.00,1.54
5959.00,1.53
5958.00,1.52
5957.00,1.51
5956.00,1.50
5955.00,1.49
5954.00,1.48
5953.00,1.47
5952.00,1.47
5951.00,1.46
5950.00,1.45
5949.00,1.44
5948.00,1.44
5947.00,1.43
5946.00,1.42
5945.00,1.42
5944.00,1.42
5943.00,1.41
5942.00,1.41
5941.00,1.41
5940.00,1.40
5939.00,1.40
5938.00,1.40
5937.00,1.40
5936.00,1.40
5935.00,1.40
5934.00,1.40
5933.00,1.40
5932.00,1.39
5931.00,1.39
5930.00,1.39
5929.00,1.39
5928.00,1.39
5927.00,1.39
5926.00,1.39
5925.00,1.38
5924.00,1.38
5923.00,1.38
5922.00,1.37
5921.00,1.37
5920.00,1.37
5919.00,1.36
5918.00,1.36
5917.00,1.36
5916.00,1.35
5915.00,1.35
5914.00,1.35
5913.00,1.34
5912.00,1.34
5911.00,1.34
5910.00,1.33
5909.00,1.33
5908.00,1.33
5907.00,1.32
5906.00,1.32
5905.00,1.32
5904.00,1.32
5903.00,1.32
5902.00,1.32
5901.00,1.32
5900.00,1.32
5899.00,1.32
5898.00,1.32
5897.00,1.32
5896.00,1.32
5895.00,1.32
5894.00,1.33
5893.00,1.33
5892.00,1.33
5891.00,1.34
5890.00,1.34
5889.00,1.34
5888.00,1.35
5887.00,1.35
5886.00,1.35
5885.00,1.36
5884.00,1.36
5883.00,1.36
5882.00,1.37
5881.00,1.37
5880.00,1.38
5879.00,1.38
5878.00,1.38
5877.00,1.39
5876.00,1.39
5875.00,1.39
5874.00,1.40
5873.00,1.40
5872.00,1.40
5871.00,1.41
5870.00,1.41
5869.00,1.41
5868.00,1.41
5867.00,1.42
5866.00,1.42
5865.00,1.42
5864.00,1.42
5863.00,1.43
5862.00,1.43
5861.00,1.43
5860.00,1.43
5859.00,1.43
5858.00,1.44
5857.00,1.44
5856.00,1.44
5855.00,1.44
5854.00,1.44
5853.00,1.44
5852.00,1.45
5851.00,1.45
5850.00,1.45
5849.00,1.45
5848.00,1.45
5847.00,1.45
5846.00,1.45
5845.00,1.45
5844.00,1.45
5843.00,1.45
5842.00,1.45
5841.00,1.45
5840.00,1.45
5839.00,1.45
5838.00,1.45
5837.00,1.45
5836.00,1.45
5835.00,1.44
5834.00,1.44
5833.00,1.44
5832.00,1.44
5831.00,1.44
5830.00,1.44
5829.00,1.44
5828.00,1.44
5827.00,1.44
5826.00,1.44
5825.00,1.44
5824.00,1.44
5823.00,1.44
5822.00,1.44
5821.00,1.44
5820.00,1.44
5819.00,1.44
5818.00,1.45
5817.00,1.45
5816.00,1.45
5815.00,1.45
5814.00,1.45
5813.00,1.45
5812.00,1.45
5811.00,1.45
5810.00,1.45
5809.00,1.45
5808.00,1.45
5807.00,1.44
5806.00,1.44
5805.00,1.44
5804.00,1.44
5803.00,1.44
5802.00,1.44
5801.00,1.44
5800.00,1.44
5799.00,1.43
5798.00,1.43
5797.00,1.43
5796.00,1.43
5795.00,1.42
5794.00,1.42
5793.00,1.42
5792.00,1.42
5791.00,1.41
5790.00,1.41
5789.00,1.41
5788.00,1.40
5787.00,1.40
5786.00,1.40
5785.00,1.40
5784.00,1.39
5783.00,1.39
5782.00,1.39
5781.00,1.39
5780.00,1.39
5779.00,1.38
5778.00,1.38
5777.00,1.38
5776.00,1.38
5775.00,1.38
5774.00,1.38
5773.00,1.38
5772.00,1.38
5771.00,1.38
5770.00,1.38
5769.00,1.38
5768.00,1.38
5767.00,1.39
5766.00,1.39
5765.00,1.39
5764.00,1.39
5763.00,1.40
5762.00,1.40
5761.00,1.40
5760.00,1.40
5759.00,1.41
5758.00,1.41
5757.00,1.42
5756.00,1.42
5755.00,1.42
5754.00,1.43
5753.00,1.43
5752.00,1.44
5751.00,1.44
5750.00,1.44
5749.00,1.45
5748.00,1.45
5747.00,1.46
5746.00,1.46
5745.00,1.47
5744.00,1.47
5743.00,1.47
5742.00,1.48
5741.00,1.48
5740.00,1.48
5739.00,1.49
5738.00,1.49
5737.00,1.50
5736.00,1.50
5735.00,1.50
5734.00,1.50
5733.00,1.51
5732.00,1.51
5731.00,1.51
5730.00,1.51
5729.00,1.52
5728.00,1.52
5727.00,1.52
5726.00,1.52
5725.00,1.52
5724.00,1.52
5723.00,1.52
5722.00,1.53
5721.00,1.53
5720.00,1.53
5719.00,1.53
5718.00,1.53
5717.00,1.53
5716.00,1.53
5715.00,1.53
5714.00,1.53
5713.00,1.53
5712.00,1.53
5711.00,1.53
5710.00,1.52
5709.00,1.52
5708.00,1.52
5707.00,1.52
5706.00,1.52
5705.00,1.52
5704.00,1.52
5703.00,1.52
5702.00,1.52
5701.00,1.51
5700.00,1.51
5699.00,1.51
5698.00,1.51
5697.00,1.51
5696.00,1.50
5695.00,1.50
5694.00,1.50
5693.00,1.50
5692.00,1.49
5691.00,1.49
5690.00,1.49
5689.00,1.49
5688.00,1.48
5687.00,1.48
5686.00,1.48
5685.00,1.48
5684.00,1.47
5683.00,1.47
5682.00,1.47
5681.00,1.47
5680.00,1.47
5679.00,1.47
5678.00,1.47
5677.00,1.47
5676.00,1.47
5675.00,1.47
5674.00,1.47
5673.00,1.47
5672.00,1.47
5671.00,1.47
5670.00,1.47
5669.00,1.47
5668.00,1.47
5667.00,1.47
5666.00,1.47
5665.00,1.47
5664.00,1.48
5663.00,1.48
5662.00,1.48
5661.00,1.48
5660.00,1.48
5659.00,1.49
5658.00,1.49
5657.00,1.49
5656.00,1.49
5655.00,1.50
5654.00,1.50
5653.00,1.50
5652.00,1.50
5651.00,1.51
5650.00,1.51
5649.00,1.51
5648.00,1.51
5647.00,1.52
5646.00,1.52
5645.00,1.52
5644.00,1.52
5643.00,1.53
5642.00,1.53
5641.00,1.53
5640.00,1.53
5639.00,1.54
5638.00,1.54
5637.00,1.54
5636.00,1.54
5635.00,1.55
5634.00,1.55
5633.00,1.55
5632.00,1.55
5631.00,1.55
5630.00,1.56
5629.00,1.56
5628.00,1.56
5627.00,1.56
5626.00,1.56
5625.00,1.56
5624.00,1.57
5623.00,1.57
5622.00,1.57
5621.00,1.57
5620.00,1.57
5619.00,1.58
5618.00,1.58
5617.00,1.58
5616.00,1.58
5615.00,1.58
5614.00,1.59
5613.00,1.59
5612.00,1.59
5611.00,1.59
5610.00,1.60
5609.00,1.60
5608.00,1.60
5607.00,1.61
5606.00,1.61
5605.00,1.61
5604.00,1.61
5603.00,1.62
5602.00,1.62
5601.00,1.62
5600.00,1.62
5599.00,1.63
5598.00,1.63
5597.00,1.63
5596.00,1.63
5595.00,1.64
5594.00,1.64
5593.00,1.64
5592.00,1.64
5591.00,1.64
5590.00,1.65
5589.00,1.65
5588.00,1.65
5587.00,1.65
5586.00,1.65
5585.00,1.66
5584.00,1.66
5583.00,1.66
5582.00,1.66
5581.00,1.66
5580.00,1.67
5579.00,1.67
5578.00,1.67
5577.00,1.67
5576.00,1.67
5575.00,1.68
5574.00,1.68
5573.00,1.68
5572.00,1.68
5571.00,1.69
5570.00,1.69
5569.00,1.69
5568.00,1.69
5567.00,1.69
5566.00,1.70
5565.00,1.70
5564.00,1.70
5563.00,1.70
5562.00,1.70
5561.00,1.71
5560.00,1.71
5559.00,1.71
5558.00,1.71
5557.00,1.71
5556.00,1.71
5555.00,1.72
5554.00,1.72
5553.00,1.72
5552.00,1.72
5551.00,1.72
5550.00,1.72
5549.00,1.73
5548.00,1.73
5547.00,1.73
5546.00,1.73
5545.00,1.73
5544.00,1.73
5543.00,1.74
5542.00,1.74
5541.00,1.74
5540.00,1.74
5539.00,1.74
5538.00,1.75
5537.00,1.75
5536.00,1.75
5535.00,1.75
5534.00,1.75
5533.00,1.75
5532.00,1.75
5531.00,1.76
5530.00,1.76
5529.00,1.76
5528.00,1.76
5527.00,1.76
5526.00,1.76
5525.00,1.76
5524.00,1.76
5523.00,1.76
5522.00,1.77
5521.00,1.77
5520.00,1.77
5519.00,1.77
5518.00,1.77
5517.00,1.77
5516.00,1.77
5515.00,1.77
5514.00,1.77
5513.00,1.77
5512.00,1.77
5511.00,1.77
5510.00,1.78
5509.00,1.78
5508.00,1.78
5507.00,1.78
5506.00,1.78
5505.00,1.78
5504.00,1.78
5503.00,1.78
5502.00,1.78
5501.00,1.78
5500.00,1.79
5499.00,1.79
5498.00,1.79
5497.00,1.79
5496.00,1.79
5495.00,1.79
5494.00,1.79
5493.00,1.80
5492.00,1.80
5491.00,1.80
5490.00,1.80
5489.00,1.80
5488.00,1.80
5487.00,1.81
5486.00,1.81
5485.00,1.81
5484.00,1.81
5483.00,1.81
5482.00,1.81
5481.00,1.81
5480.00,1.82
5479.00,1.82
5478.00,1.82
5477.00,1.82
5476.00,1.82
5475.00,1.82
5474.00,1.82
5473.00,1.83
5472.00,1.83
5471.00,1.83
5470.00,1.83
5469.00,1.83
5468.00,1.83
5467.00,1.84
5466.00,1.84
5465.00,1.84
5464.00,1.84
5463.00,1.84
5462.00,1.84
5461.00,1.85
5460.00,1.85
5459.00,1.85
5458.00,1.85
5457.00,1.85
5456.00,1.85
5455.00,1.85
5454.00,1.85
5453.00,1.86
5452.00,1.86
5451.00,1.86
5450.00,1.86
5449.00,1.86
5448.00,1.86
5447.00,1.86
5446.00,1.86
5445.00,1.86
5444.00,1.86
5443.00,1.86
5442.00,1.86
5441.00,1.86
5440.00,1.87
5439.00,1.87
5438.00,1.87
5437.00,1.87
5436.00,1.87
5435.00,1.87
5434.00,1.87
5433.00,1.87
5432.00,1.87
5431.00,1.87
5430.00,1.87
5429.00,1.87
5428.00,1.87
5427.00,1.87
5426.00,1.87
5425.00,1.87
5424.00,1.87
5423.00,1.87
5422.00,1.87
5421.00,1.87
5420.00,1.87
5419.00,1.87
5418.00,1.87
5417.00,1.87
5416.00,1.87
5415.00,1.87
5414.00,1.87
5413.00,1.87
5412.00,1.87
5411.00,1.87
5410.00,1.87
5409.00,1.87
5408.00,1.87
5407.00,1.87
5406.00,1.87
5405.00,1.87
5404.00,1.87
5403.00,1.87
5402.00,1.87
5401.00,1.87
5400.00,1.87
5399.00,1.87
5398.00,1.87
5397.00,1.87
5396.00,1.87
5395.00,1.86
5394.00,1.86
5393.00,1.86
5392.00,1.86
5391.00,1.86
5390.00,1.86
5389.00,1.85
5388.00,1.85
5387.00,1.85
5386.00,1.85
5385.00,1.84
5384.00,1.84
5383.00,1.84
5382.00,1.83
5381.00,1.83
5380.00,1.82
5379.00,1.82
5378.00,1.81
5377.00,1.81
5376.00,1.80
5375.00,1.80
5374.00,1.79
5373.00,1.78
5372.00,1.78
5371.00,1.77
5370.00,1.77
5369.00,1.76
5368.00,1.75
5367.00,1.74
5366.00,1.74
5365.00,1.73
5364.00,1.72
5363.00,1.71
5362.00,1.71
5361.00,1.70
5360.00,1.69
5359.00,1.68
5358.00,1.67
5357.00,1.66
5356.00,1.65
5355.00,1.64
5354.00,1.63
5353.00,1.62
5352.00,1.61
5351.00,1.60
5350.00,1.58
5349.00,1.57
5348.00,1.56
5347.00,1.55
5346.00,1.53
5345.00,1.52
5344.00,1.51
5343.00,1.49
5342.00,1.48
5341.00,1.47
5340.00,1.45
5339.00,1.44
5338.00,1.42
5337.00,1.41
5336.00,1.39
5335.00,1.38
5334.00,1.37
5333.00,1.35
5332.00,1.34
5331.00,1.32
5330.00,1.31
5329.00,1.29
5328.00,1.28
5327.00,1.26
5326.00,1.25
5325.00,1.23
5324.00,1.21
5323.00,1.20
5322.00,1.18
5321.00,1.17
5320.00,1.15
5319.00,1.14
5318.00,1.12
5317.00,1.11
5316.00,1.10
5315.00,1.08
5314.00,1.07
5313.00,1.05
5312.00,1.04
5311.00,1.02
5310.00,1.01
5309.00,1.00
5308.00,0.99
5307.00,0.97
5306.00,0.96
5305.00,0.95
5304.00,0.94
5303.00,0.93
5302.00,0.92
5301.00,0.91
5300.00,0.90
5299.00,0.90
5298.00,0.89
5297.00,0.88
5296.00,0.87
5295.00,0.87
5294.00,0.86
5293.00,0.86
5292.00,0.85
5291.00,0.85
5290.00,0.84
5289.00,0.84
5288.00,0.83
5287.00,0.83
5286.00,0.82
5285.00,0.82
5284.00,0.82
5283.00,0.81
5282.00,0.81
5281.00,0.81
5280.00,0.81
5279.00,0.80
5278.00,0.80
5277.00,0.80
5276.00,0.80
5275.00,0.80
5274.00,0.80
5273.00,0.79
5272.00,0.79
5271.00,0.79
5270.00,0.79
5269.00,0.79
5268.00,0.79
5267.00,0.79
5266.00,0.79
5265.00,0.79
5264.00,0.79
5263.00,0.78
5262.00,0.78
5261.00,0.78
5260.00,0.78
5259.00,0.78
5258.00,0.78
5257.00,0.78
5256.00,0.78
5255.00,0.78
5254.00,0.78
5253.00,0.77
5252.00,0.77
5251.00,0.77
5250.00,0.77
5249.00,0.77
5248.00,0.77
5247.00,0.77
5246.00,0.77
5245.00,0.77
5244.00,0.77
5243.00,0.77
5242.00,0.77
5241.00,0.77
5240.00,0.77
5239.00,0.77
5238.00,0.77
5237.00,0.77
5236.00,0.77
5235.00,0.77
5234.00,0.77
5233.00,0.77
5232.00,0.77
5231.00,0.77
5230.00,0.77
5229.00,0.77
5228.00,0.77
5227.00,0.77
5226.00,0.77
5225.00,0.77
5224.00,0.77
5223.00,0.77
5222.00,0.77
5221.00,0.77
5220.00,0.77
5219.00,0.77
5218.00,0.77
5217.00,0.77
5216.00,0.77
5215.00,0.78
5214.00,0.78
5213.00,0.78
5212.00,0.78
5211.00,0.78
5210.00,0.78
5209.00,0.78
5208.00,0.78
5207.00,0.78
5206.00,0.78
5205.00,0.78
5204.00,0.78
5203.00,0.78
5202.00,0.78
5201.00,0.78
5200.00,0.78
5199.00,0.78
5198.00,0.78
5197.00,0.78
5196.00,0.78
5195.00,0.78
5194.00,0.78
5193.00,0.78
5192.00,0.78
5191.00,0.78
5190.00,0.78
5189.00,0.78
5188.00,0.78
5187.00,0.78
5186.00,0.78
5185.00,0.78
5184.00,0.78
5183.00,0.78
5182.00,0.79
5181.00,0.79
5180.00,0.79
5179.00,0.79
5178.00,0.79
5177.00,0.79
5176.00,0.79
5175.00,0.79
5174.00,0.79
5173.00,0.79
5172.00,0.79
5171.00,0.79
5170.00,0.79
5169.00,0.79
5168.00,0.79
5167.00,0.79
5166.00,0.79
5165.00,0.79
5164.00,0.79
5163.00,0.79
5162.00,0.79
5161.00,0.80
5160.00,0.80
5159.00,0.80
5158.00,0.80
5157.00,0.80
5156.00,0.80
5155.00,0.80
5154.00,0.80
5153.00,0.80
5152.00,0.81
5151.00,0.81
5150.00,0.81
5149.00,0.81
5148.00,0.81
5147.00,0.81
5146.00,0.81
5145.00,0.81
5144.00,0.81
5143.00,0.81
5142.00,0.81
5141.00,0.81
5140.00,0.82
5139.00,0.82
5138.00,0.82
5137.00,0.82
5136.00,0.82
5135.00,0.82
5134.00,0.82
5133.00,0.82
5132.00,0.82
5131.00,0.82
5130.00,0.82
5129.00,0.82
5128.00,0.83
5127.00,0.83
5126.00,0.83
5125.00,0.83
5124.00,0.83
5123.00,0.83
5122.00,0.83
5121.00,0.83
5120.00,0.83
5119.00,0.83
5118.00,0.83
5117.00,0.83
5116.00,0.83
5115.00,0.83
5114.00,0.83
5113.00,0.83
5112.00,0.84
5111.00,0.84
5110.00,0.84
5109.00,0.84
5108.00,0.84
5107.00,0.84
5106.00,0.84
5105.00,0.84
5104.00,0.84
5103.00,0.85
5102.00,0.85
5101.00,0.85
5100.00,0.85
5099.00,0.85
5098.00,0.85
5097.00,0.85
5096.00,0.85
5095.00,0.85
5094.00,0.85
5093.00,0.85
5092.00,0.85
5091.00,0.86
5090.00,0.86
5089.00,0.86
5088.00,0.86
5087.00,0.86
5086.00,0.86
5085.00,0.86
5084.00,0.86
5083.00,0.86
5082.00,0.86
5081.00,0.86
5080.00,0.86
5079.00,0.86
5078.00,0.86
5077.00,0.86
5076.00,0.86
5075.00,0.86
5074.00,0.86
5073.00,0.87
5072.00,0.87
5071.00,0.87
5070.00,0.87
5069.00,0.87
5068.00,0.87
5067.00,0.87
5066.00,0.87
5065.00,0.87
5064.00,0.87
5063.00,0.88
5062.00,0.88
5061.00,0.88
5060.00,0.88
5059.00,0.88
5058.00,0.88
5057.00,0.88
5056.00,0.88
5055.00,0.89
5054.00,0.89
5053.00,0.89
5052.00,0.89
5051.00,0.89
5050.00,0.89
5049.00,0.89
5048.00,0.89
5047.00,0.89
5046.00,0.89
5045.00,0.90
5044.00,0.90
5043.00,0.90
5042.00,0.90
5041.00,0.90
5040.00,0.90
5039.00,0.90
5038.00,0.90
5037.00,0.90
5036.00,0.90
5035.00,0.91
5034.00,0.91
5033.00,0.91
5032.00,0.91
5031.00,0.91
5030.00,0.91
5029.00,0.91
5028.00,0.92
5027.00,0.92
5026.00,0.92
5025.00,0.92
5024.00,0.92
5023.00,0.92
5022.00,0.93
5021.00,0.93
5020.00,0.93
5019.00,0.93
5018.00,0.93
5017.00,0.93
5016.00,0.93
5015.00,0.94
5014.00,0.94
5013.00,0.94
5012.00,0.94
5011.00,0.94
5010.00,0.94
5009.00,0.94
5008.00,0.94
5007.00,0.95
5006.00,0.95
5005.00,0.95
5004.00,0.95
5003.00,0.95
5002.00,0.95
5001.00,0.95
5000.00,0.95
4999.00,0.96
4998.00,0.96
4997.00,0.96
4996.00,0.96
4995.00,0.96
4994.00,0.96
4993.00,0.96
4992.00,0.97
4991.00,0.97
4990.00,0.97
4989.00,0.97
4988.00,0.97
4987.00,0.97
4986.00,0.98
4985.00,0.98
4984.00,0.98
4983.00,0.98
4982.00,0.98
4981.00,0.98
4980.00,0.98
4979.00,0.98
4978.00,0.99
4977.00,0.99
4976.00,0.99
4975.00,0.99
4974.00,0.99
4973.00,0.99
4972.00,0.99
4971.00,0.99
4970.00,1.00
4969.00,1.00
4968.00,1.00
4967.00,1.00
4966.00,1.00
4965.00,1.00
4964.00,1.00
4963.00,1.01
4962.00,1.01
4961.00,1.01
4960.00,1.01
4959.00,1.01
4958.00,1.01
4957.00,1.02
4956.00,1.02
4955.00,1.02
4954.00,1.02
4953.00,1.02
4952.00,1.02
4951.00,1.03
4950.00,1.03
4949.00,1.03
4948.00,1.03
4947.00,1.03
4946.00,1.03
4945.00,1.03
4944.00,1.04
4943.00,1.04
4942.00,1.04
4941.00,1.04
4940.00,1.04
4939.00,1.04
4938.00,1.04
4937.00,1.04
4936.00,1.05
4935.00,1.05
4934.00,1.05
4933.00,1.05
4932.00,1.05
4931.00,1.05
4930.00,1.05
4929.00,1.06
4928.00,1.06
4927.00,1.06
4926.00,1.06
4925.00,1.06
4924.00,1.06
4923.00,1.06
4922.00,1.07
4921.00,1.07
4920.00,1.07
4919.00,1.07
4918.00,1.07
4917.00,1.07
4916.00,1.07
4915.00,1.08
4914.00,1.08
4913.00,1.08
4912.00,1.08
4911.00,1.08
4910.00,1.08
4909.00,1.08
4908.00,1.08
4907.00,1.08
4906.00,1.08
4905.00,1.08
4904.00,1.09
4903.00,1.09
4902.00,1.09
4901.00,1.09
4900.00,1.09
4899.00,1.09
4898.00,1.09
4897.00,1.09
4896.00,1.09
4895.00,1.09
4894.00,1.09
4893.00,1.09
4892.00,1.09
4891.00,1.09
4890.00,1.09
4889.00,1.09
4888.00,1.10
4887.00,1.10
4886.00,1.10
4885.00,1.10
4884.00,1.10
4883.00,1.10
4882.00,1.10
4881.00,1.10
4880.00,1.10
4879.00,1.10
4878.00,1.11
4877.00,1.11
4876.00,1.11
4875.00,1.11
4874.00,1.11
4873.00,1.11
4872.00,1.11
4871.00,1.11
4870.00,1.11
4869.00,1.11
4868.00,1.11
4867.00,1.11
4866.00,1.12
4865.00,1.12
4864.00,1.12
4863.00,1.12
4862.00,1.12
4861.00,1.12
4860.00,1.12
4859.00,1.12
4858.00,1.12
4857.00,1.13
4856.00,1.13
4855.00,1.13
4854.00,1.13
4853.00,1.13
4852.00,1.13
4851.00,1.13
4850.00,1.13
4849.00,1.14
4848.00,1.14
4847.00,1.14
4846.00,1.14
4845.00,1.14
4844.00,1.14
4843.00,1.14
4842.00,1.14
4841.00,1.14
4840.00,1.14
4839.00,1.14
4838.00,1.14
4837.00,1.14
4836.00,1.15
4835.00,1.15
4834.00,1.15
4833.00,1.15
4832.00,1.15
4831.00,1.15
4830.00,1.15
4829.00,1.16
4828.00,1.16
4827.00,1.16
4826.00,1.16
4825.00,1.16
4824.00,1.16
4823.00,1.17
4822.00,1.17
4821.00,1.17
4820.00,1.17
4819.00,1.17
4818.00,1.17
4817.00,1.18
4816.00,1.18
4815.00,1.18
4814.00,1.18
4813.00,1.18
4812.00,1.18
4811.00,1.18
4810.00,1.19
4809.00,1.19
4808.00,1.19
4807.00,1.19
4806.00,1.19
4805.00,1.20
4804.00,1.20
4803.00,1.20
4802.00,1.20
4801.00,1.20
4800.00,1.21
4799.00,1.21
4798.00,1.21
4797.00,1.21
4796.00,1.21
4795.00,1.22
4794.00,1.22
4793.00,1.22
4792.00,1.22
4791.00,1.23
4790.00,1.23
4789.00,1.23
4788.00,1.23
4787.00,1.23
4786.00,1.24
4785.00,1.24
4784.00,1.24
4783.00,1.24
4782.00,1.25
4781.00,1.25
4780.00,1.25
4779.00,1.25
4778.00,1.25
4777.00,1.26
4776.00,1.26
4775.00,1.26
4774.00,1.26
4773.00,1.26
4772.00,1.27
4771.00,1.27
4770.00,1.27
4769.00,1.27
4768.00,1.28
4767.00,1.28
4766.00,1.28
4765.00,1.28
4764.00,1.29
4763.00,1.29
4762.00,1.29
4761.00,1.29
4760.00,1.30
4759.00,1.30
4758.00,1.30
4757.00,1.30
4756.00,1.30
4755.00,1.31
4754.00,1.31
4753.00,1.31
4752.00,1.31
4751.00,1.32
4750.00,1.32
4749.00,1.32
4748.00,1.32
4747.00,1.32
4746.00,1.33
4745.00,1.33
4744.00,1.33
4743.00,1.33
4742.00,1.33
4741.00,1.34
4740.00,1.34
4739.00,1.34
4738.00,1.34
4737.00,1.35
4736.00,1.35
4735.00,1.35
4734.00,1.35
4733.00,1.36
4732.00,1.36
4731.00,1.36
4730.00,1.37
4729.00,1.37
4728.00,1.37
4727.00,1.37
4726.00,1.38
4725.00,1.38
4724.00,1.38
4723.00,1.39
4722.00,1.39
4721.00,1.39
4720.00,1.40
4719.00,1.40
4718.00,1.40
4717.00,1.41
4716.00,1.41
4715.00,1.41
4714.00,1.41
4713.00,1.42
4712.00,1.42
4711.00,1.42
4710.00,1.42
4709.00,1.43
4708.00,1.43
4707.00,1.43
4706.00,1.43
4705.00,1.44
4704.00,1.44
4703.00,1.44
4702.00,1.44
4701.00,1.45
4700.00,1.45
4699.00,1.45
4698.00,1.46
4697.00,1.46
4696.00,1.46
4695.00,1.47
4694.00,1.47
4693.00,1.47
4692.00,1.47
4691.00,1.48
4690.00,1.48
4689.00,1.48
4688.00,1.49
4687.00,1.49
4686.00,1.49
4685.00,1.49
4684.00,1.50
4683.00,1.50
4682.00,1.50
4681.00,1.50
4680.00,1.51
4679.00,1.51
4678.00,1.51
4677.00,1.51
4676.00,1.52
4675.00,1.52
4674.00,1.52
4673.00,1.53
4672.00,1.53
4671.00,1.53
4670.00,1.53
4669.00,1.54
4668.00,1.54
4667.00,1.54
4666.00,1.55
4665.00,1.55
4664.00,1.55
4663.00,1.55
4662.00,1.56
4661.00,1.56
4660.00,1.56
4659.00,1.56
4658.00,1.57
4657.00,1.57
4656.00,1.57
4655.00,1.57
4654.00,1.57
4653.00,1.58
4652.00,1.58
4651.00,1.58
4650.00,1.58
4649.00,1.58
4648.00,1.59
4647.00,1.59
4646.00,1.59
4645.00,1.59
4644.00,1.59
4643.00,1.60
4642.00,1.60
4641.00,1.60
4640.00,1.60
4639.00,1.60
4638.00,1.61
4637.00,1.61
4636.00,1.61
4635.00,1.61
4634.00,1.61
4633.00,1.62
4632.00,1.62
4631.00,1.62
4630.00,1.62
4629.00,1.63
4628.00,1.63
4627.00,1.63
4626.00,1.63
4625.00,1.63
4624.00,1.64
4623.00,1.64
4622.00,1.64
4621.00,1.64
4620.00,1.64
4619.00,1.65
4618.00,1.65
4617.00,1.65
4616.00,1.65
4615.00,1.65
4614.00,1.65
4613.00,1.66
4612.00,1.66
4611.00,1.66
4610.00,1.66
4609.00,1.66
4608.00,1.66
4607.00,1.67
4606.00,1.67
4605.00,1.67
4604.00,1.67
4603.00,1.67
4602.00,1.68
4601.00,1.68
4600.00,1.68
4599.00,1.68
4598.00,1.68
4597.00,1.68
4596.00,1.69
4595.00,1.69
4594.00,1.69
4593.00,1.69
4592.00,1.69
4591.00,1.69
4590.00,1.70
4589.00,1.70
4588.00,1.70
4587.00,1.70
4586.00,1.70
4585.00,1.70
4584.00,1.71
4583.00,1.71
4582.00,1.71
4581.00,1.71
4580.00,1.71
4579.00,1.71
4578.00,1.71
4577.00,1.71
4576.00,1.72
4575.00,1.72
4574.00,1.72
4573.00,1.72
4572.00,1.72
4571.00,1.72
4570.00,1.73
4569.00,1.73
4568.00,1.73
4567.00,1.73
4566.00,1.73
4565.00,1.73
4564.00,1.74
4563.00,1.74
4562.00,1.74
4561.00,1.74
4560.00,1.74
4559.00,1.74
4558.00,1.75
4557.00,1.75
4556.00,1.75
4555.00,1.75
4554.00,1.75
4553.00,1.75
4552.00,1.75
4551.00,1.76
4550.00,1.76
4549.00,1.76
4548.00,1.76
4547.00,1.76
4546.00,1.76
4545.00,1.76
4544.00,1.76
4543.00,1.77
4542.00,1.77
4541.00,1.77
4540.00,1.77
4539.00,1.77
4538.00,1.77
4537.00,1.77
4536.00,1.77
4535.00,1.77
4534.00,1.77
4533.00,1.78
4532.00,1.78
4531.00,1.78
4530.00,1.78
4529.00,1.78
4528.00,1.78
4527.00,1.78
4526.00,1.78
4525.00,1.78
4524.00,1.78
4523.00,1.78
4522.00,1.78
4521.00,1.79
4520.00,1.79
4519.00,1.79
4518.00,1.79
4517.00,1.79
4516.00,1.79
4515.00,1.79
4514.00,1.79
4513.00,1.79
4512.00,1.79
4511.00,1.79
4510.00,1.79
4509.00,1.79
4508.00,1.79
4507.00,1.79
4506.00,1.79
4505.00,1.79
4504.00,1.79
4503.00,1.79
4502.00,1.79
4501.00,1.79
4500.00,1.79
4499.00,1.79
4498.00,1.79
4497.00,1.78
4496.00,1.78
4495.00,1.78
4494.00,1.78
4493.00,1.78
4492.00,1.77
4491.00,1.77
4490.00,1.77
4489.00,1.77
4488.00,1.76
4487.00,1.76
4486.00,1.76
4485.00,1.76
4484.00,1.75
4483.00,1.75
4482.00,1.75
4481.00,1.74
4480.00,1.74
4479.00,1.74
4478.00,1.73
4477.00,1.73
4476.00,1.72
4475.00,1.72
4474.00,1.72
4473.00,1.71
4472.00,1.71
4471.00,1.71
4470.00,1.70
4469.00,1.70
4468.00,1.70
4467.00,1.69
4466.00,1.69
4465.00,1.69
4464.00,1.68
4463.00,1.68
4462.00,1.67
4461.00,1.67
4460.00,1.66
4459.00,1.66
4458.00,1.65
4457.00,1.65
4456.00,1.64
4455.00,1.64
4454.00,1.63
4453.00,1.62
4452.00,1.62
4451.00,1.61
4450.00,1.60
4449.00,1.59
4448.00,1.59
4447.00,1.58
4446.00,1.57
4445.00,1.56
4444.00,1.55
4443.00,1.54
4442.00,1.54
4441.00,1.53
4440.00,1.52
4439.00,1.51
4438.00,1.50
4437.00,1.49
4436.00,1.49
4435.00,1.48
4434.00,1.47
4433.00,1.47
4432.00,1.46
4431.00,1.45
4430.00,1.45
4429.00,1.44
4428.00,1.44
4427.00,1.43
4426.00,1.43
4425.00,1.43
4424.00,1.42
4423.00,1.42
4422.00,1.42
4421.00,1.42
4420.00,1.42
4419.00,1.41
4418.00,1.41
4417.00,1.41
4416.00,1.41
4415.00,1.41
4414.00,1.41
4413.00,1.41
4412.00,1.41
4411.00,1.41
4410.00,1.41
4409.00,1.41
4408.00,1.41
4407.00,1.41
4406.00,1.41
4405.00,1.41
4404.00,1.41
4403.00,1.41
4402.00,1.41
4401.00,1.41
4400.00,1.41
4399.00,1.41
4398.00,1.42
4397.00,1.42
4396.00,1.42
4395.00,1.42
4394.00,1.42
4393.00,1.43
4392.00,1.43
4391.00,1.43
4390.00,1.43
4389.00,1.44
4388.00,1.44
4387.00,1.44
4386.00,1.44
4385.00,1.45
4384.00,1.45
4383.00,1.45
4382.00,1.46
4381.00,1.46
4380.00,1.46
4379.00,1.46
4378.00,1.46
4377.00,1.47
4376.00,1.47
4375.00,1.47
4374.00,1.47
4373.00,1.47
4372.00,1.48
4371.00,1.48
4370.00,1.48
4369.00,1.48
4368.00,1.48
4367.00,1.48
4366.00,1.48
4365.00,1.48
4364.00,1.48
4363.00,1.48
4362.00,1.48
4361.00,1.48
4360.00,1.48
4359.00,1.48
4358.00,1.48
4357.00,1.48
4356.00,1.48
4355.00,1.48
4354.00,1.48
4353.00,1.48
4352.00,1.47
4351.00,1.47
4350.00,1.47
4349.00,1.47
4348.00,1.47
4347.00,1.47
4346.00,1.47
4345.00,1.47
4344.00,1.47
4343.00,1.47
4342.00,1.47
4341.00,1.47
4340.00,1.47
4339.00,1.47
4338.00,1.47
4337.00,1.47
4336.00,1.47
4335.00,1.47
4334.00,1.47
4333.00,1.48
4332.00,1.48
4331.00,1.48
4330.00,1.48
4329.00,1.49
4328.00,1.49
4327.00,1.49
4326.00,1.49
4325.00,1.50
4324.00,1.50
4323.00,1.50
4322.00,1.50
4321.00,1.51
4320.00,1.51
4319.00,1.51
4318.00,1.52
4317.00,1.52
4316.00,1.52
4315.00,1.52
4314.00,1.53
4313.00,1.53
4312.00,1.53
4311.00,1.54
4310.00,1.54
4309.00,1.54
4308.00,1.55
4307.00,1.55
4306.00,1.55
4305.00,1.56
4304.00,1.56
4303.00,1.56
4302.00,1.57
4301.00,1.57
4300.00,1.58
4299.00,1.58
4298.00,1.58
4297.00,1.59
4296.00,1.59
4295.00,1.59
4294.00,1.60
4293.00,1.60
4292.00,1.60
4291.00,1.61
4290.00,1.61
4289.00,1.61
4288.00,1.61
4287.00,1.62
4286.00,1.62
4285.00,1.62
4284.00,1.62
4283.00,1.62
4282.00,1.62
4281.00,1.62
4280.00,1.62
4279.00,1.62
4278.00,1.62
4277.00,1.62
4276.00,1.62
4275.00,1.62
4274.00,1.62
4273.00,1.62
4272.00,1.62
4271.00,1.62
4270.00,1.62
4269.00,1.61
4268.00,1.61
4267.00,1.61
4266.00,1.61
4265.00,1.61
4264.00,1.61
4263.00,1.61
4262.00,1.60
4261.00,1.60
4260.00,1.60
4259.00,1.60
4258.00,1.60
4257.00,1.60
4256.00,1.60
4255.00,1.60
4254.00,1.60
4253.00,1.60
4252.00,1.60
4251.00,1.60
4250.00,1.60
4249.00,1.61
4248.00,1.61
4247.00,1.61
4246.00,1.61
4245.00,1.61
4244.00,1.62
4243.00,1.62
4242.00,1.62
4241.00,1.62
4240.00,1.63
4239.00,1.63
4238.00,1.63
4237.00,1.64
4236.00,1.64
4235.00,1.64
4234.00,1.65
4233.00,1.65
4232.00,1.65
4231.00,1.66
4230.00,1.66
4229.00,1.66
4228.00,1.66
4227.00,1.67
4226.00,1.67
4225.00,1.67
4224.00,1.67
4223.00,1.67
4222.00,1.68
4221.00,1.68
4220.00,1.68
4219.00,1.68
4218.00,1.68
4217.00,1.68
4216.00,1.68
4215.00,1.68
4214.00,1.68
4213.00,1.68
4212.00,1.68
4211.00,1.69
4210.00,1.69
4209.00,1.69
4208.00,1.69
4207.00,1.69
4206.00,1.69
4205.00,1.69
4204.00,1.69
4203.00,1.69
4202.00,1.70
4201.00,1.70
4200.00,1.70
4199.00,1.70
4198.00,1.70
4197.00,1.70
4196.00,1.70
4195.00,1.70
4194.00,1.70
4193.00,1.70
4192.00,1.70
4191.00,1.70
4190.00,1.70
4189.00,1.70
4188.00,1.70
4187.00,1.70
4186.00,1.70
4185.00,1.70
4184.00,1.70
4183.00,1.70
4182.00,1.70
4181.00,1.70
4180.00,1.70
4179.00,1.70
4178.00,1.70
4177.00,1.70
4176.00,1.70
4175.00,1.70
4174.00,1.70
4173.00,1.71
4172.00,1.71
4171.00,1.71
4170.00,1.71
4169.00,1.71
4168.00,1.71
4167.00,1.71
4166.00,1.71
4165.00,1.71
4164.00,1.71
4163.00,1.70
4162.00,1.70
4161.00,1.70
4160.00,1.70
4159.00,1.70
4158.00,1.70
4157.00,1.70
4156.00,1.70
4155.00,1.70
4154.00,1.70
4153.00,1.70
4152.00,1.70
4151.00,1.71
4150.00,1.71
4149.00,1.71
4148.00,1.71
4147.00,1.71
4146.00,1.71
4145.00,1.72
4144.00,1.72
4143.00,1.72
4142.00,1.72
4141.00,1.72
4140.00,1.73
4139.00,1.73
4138.00,1.73
4137.00,1.73
4136.00,1.73
4135.00,1.73
4134.00,1.73
4133.00,1.73
4132.00,1.73
4131.00,1.73
4130.00,1.73
4129.00,1.73
4128.00,1.73
4127.00,1.73
4126.00,1.73
4125.00,1.73
4124.00,1.73
4123.00,1.73
4122.00,1.73
4121.00,1.73
4120.00,1.73
4119.00,1.73
4118.00,1.73
4117.00,1.73
4116.00,1.73
4115.00,1.73
4114.00,1.73
4113.00,1.73
4112.00,1.73
4111.00,1.73
4110.00,1.73
4109.00,1.73
4108.00,1.74
4107.00,1.74
4106.00,1.74
4105.00,1.74
4104.00,1.74
4103.00,1.74
4102.00,1.74
4101.00,1.74
4100.00,1.74
4099.00,1.74
4098.00,1.74
4097.00,1.74
4096.00,1.74
4095.00,1.74
4094.00,1.74
4093.00,1.74
4092.00,1.74
4091.00,1.74
4090.00,1.74
4089.00,1.74
4088.00,1.74
4087.00,1.74
4086.00,1.74
4085.00,1.74
4084.00,1.74
4083.00,1.74
4082.00,1.75
4081.00,1.75
4080.00,1.75
4079.00,1.75
4078.00,1.75
4077.00,1.75
4076.00,1.75
4075.00,1.75
4074.00,1.75
4073.00,1.75
4072.00,1.75
4071.00,1.76
4070.00,1.76
4069.00,1.76
4068.00,1.76
4067.00,1.77
4066.00,1.77
4065.00,1.77
4064.00,1.77
4063.00,1.78
4062.00,1.78
4061.00,1.78
4060.00,1.78
4059.00,1.79
4058.00,1.79
4057.00,1.79
4056.00,1.79
4055.00,1.79
4054.00,1.79
4053.00,1.79
4052.00,1.79
4051.00,1.80
4050.00,1.80
4049.00,1.80
4048.00,1.80
4047.00,1.80
4046.00,1.80
4045.00,1.80
4044.00,1.80
4043.00,1.80
4042.00,1.80
4041.00,1.80
4040.00,1.80
4039.00,1.80
4038.00,1.81
4037.00,1.81
4036.00,1.81
4035.00,1.81
4034.00,1.81
4033.00,1.81
4032.00,1.82
4031.00,1.82
4030.00,1.82
4029.00,1.82
4028.00,1.82
4027.00,1.82
4026.00,1.82
4025.00,1.82
4024.00,1.82
4023.00,1.82
4022.00,1.82
4021.00,1.82
4020.00,1.82
4019.00,1.83
4018.00,1.83
4017.00,1.83
4016.00,1.83
4015.00,1.83
4014.00,1.83
4013.00,1.83
4012.00,1.83
4011.00,1.84
4010.00,1.84
4009.00,1.84
4008.00,1.84
4007.00,1.85
4006.00,1.85
4005.00,1.85
4004.00,1.86
4003.00,1.86
4002.00,1.86
4001.00,1.87
4000.00,1.87
