创建为新数据集,样品 005 用户 Administrator 日期 星期二, 十月 31 2017
cm-1,%T
10000.00,1.74
9999.00,1.73
9998.00,1.73
9997.00,1.73
9996.00,1.73
9995.00,1.73
9994.00,1.73
9993.00,1.72
9992.00,1.72
9991.00,1.72
9990.00,1.72
9989.00,1.72
9988.00,1.72
9987.00,1.72
9986.00,1.71
9985.00,1.71
9984.00,1.71
9983.00,1.71
9982.00,1.71
9981.00,1.70
9980.00,1.70
9979.00,1.70
9978.00,1.70
9977.00,1.70
9976.00,1.70
9975.00,1.70
9974.00,1.70
9973.00,1.70
9972.00,1.70
9971.00,1.71
9970.00,1.71
9969.00,1.71
9968.00,1.71
9967.00,1.71
9966.00,1.71
9965.00,1.72
9964.00,1.72
9963.00,1.72
9962.00,1.72
9961.00,1.72
9960.00,1.72
9959.00,1.72
9958.00,1.72
9957.00,1.72
9956.00,1.72
9955.00,1.72
9954.00,1.72
9953.00,1.72
9952.00,1.72
9951.00,1.72
9950.00,1.72
9949.00,1.72
9948.00,1.73
9947.00,1.73
9946.00,1.73
9945.00,1.73
9944.00,1.73
9943.00,1.73
9942.00,1.73
9941.00,1.73
9940.00,1.73
9939.00,1.73
9938.00,1.73
9937.00,1.73
9936.00,1.73
9935.00,1.73
9934.00,1.73
9933.00,1.72
9932.00,1.72
9931.00,1.72
9930.00,1.71
9929.00,1.71
9928.00,1.71
9927.00,1.71
9926.00,1.70
9925.00,1.70
9924.00,1.70
9923.00,1.70
9922.00,1.70
9921.00,1.70
9920.00,1.70
9919.00,1.70
9918.00,1.70
9917.00,1.70
9916.00,1.70
9915.00,1.70
9914.00,1.71
9913.00,1.71
9912.00,1.71
9911.00,1.71
9910.00,1.71
9909.00,1.72
9908.00,1.72
9907.00,1.72
9906.00,1.72
9905.00,1.72
9904.00,1.72
9903.00,1.72
9902.00,1.72
9901.00,1.72
9900.00,1.72
9899.00,1.72
9898.00,1.71
9897.00,1.71
9896.00,1.71
9895.00,1.71
9894.00,1.71
9893.00,1.71
9892.00,1.71
9891.00,1.71
9890.00,1.71
9889.00,1.71
9888.00,1.71
9887.00,1.71
9886.00,1.71
9885.00,1.71
9884.00,1.71
9883.00,1.72
9882.00,1.72
9881.00,1.72
9880.00,1.72
9879.00,1.72
9878.00,1.73
9877.00,1.73
9876.00,1.73
9875.00,1.73
9874.00,1.73
9873.00,1.73
9872.00,1.73
9871.00,1.73
9870.00,1.73
9869.00,1.73
9868.00,1.73
9867.00,1.73
9866.00,1.73
9865.00,1.73
9864.00,1.73
9863.00,1.72
9862.00,1.72
9861.00,1.72
9860.00,1.72
9859.00,1.72
9858.00,1.72
9857.00,1.71
9856.00,1.71
9855.00,1.71
9854.00,1.71
9853.00,1.71
9852.00,1.70
9851.00,1.70
9850.00,1.70
9849.00,1.70
9848.00,1.70
9847.00,1.70
9846.00,1.70
9845.00,1.70
9844.00,1.70
9843.00,1.70
9842.00,1.70
9841.00,1.70
9840.00,1.70
9839.00,1.71
9838.00,1.71
9837.00,1.71
9836.00,1.71
9835.00,1.72
9834.00,1.72
9833.00,1.72
9832.00,1.72
9831.00,1.72
9830.00,1.72
9829.00,1.72
9828.00,1.72
9827.00,1.72
9826.00,1.72
9825.00,1.72
9824.00,1.72
9823.00,1.72
9822.00,1.71
9821.00,1.71
9820.00,1.71
9819.00,1.70
9818.00,1.70
9817.00,1.70
9816.00,1.69
9815.00,1.69
9814.00,1.68
9813.00,1.68
9812.00,1.68
9811.00,1.67
9810.00,1.67
9809.00,1.67
9808.00,1.67
9807.00,1.67
9806.00,1.67
9805.00,1.67
9804.00,1.67
9803.00,1.68
9802.00,1.68
9801.00,1.68
9800.00,1.69
9799.00,1.69
9798.00,1.69
9797.00,1.70
9796.00,1.70
9795.00,1.70
9794.00,1.70
9793.00,1.71
9792.00,1.71
9791.00,1.71
9790.00,1.71
9789.00,1.71
9788.00,1.71
9787.00,1.71
9786.00,1.70
9785.00,1.70
9784.00,1.70
9783.00,1.70
9782.00,1.70
9781.00,1.69
9780.00,1.69
9779.00,1.69
9778.00,1.69
9777.00,1.69
9776.00,1.68
9775.00,1.68
9774.00,1.68
9773.00,1.68
9772.00,1.68
9771.00,1.68
9770.00,1.69
9769.00,1.69
9768.00,1.69
9767.00,1.69
9766.00,1.69
9765.00,1.69
9764.00,1.70
9763.00,1.70
9762.00,1.70
9761.00,1.70
9760.00,1.70
9759.00,1.70
9758.00,1.70
9757.00,1.70
9756.00,1.70
9755.00,1.69
9754.00,1.69
9753.00,1.69
9752.00,1.69
9751.00,1.68
9750.00,1.68
9749.00,1.68
9748.00,1.67
9747.00,1.67
9746.00,1.67
9745.00,1.67
9744.00,1.66
9743.00,1.66
9742.00,1.66
9741.00,1.66
9740.00,1.66
9739.00,1.66
9738.00,1.66
9737.00,1.67
9736.00,1.67
9735.00,1.67
9734.00,1.67
9733.00,1.68
9732.00,1.68
9731.00,1.68
9730.00,1.68
9729.00,1.69
9728.00,1.69
9727.00,1.69
9726.00,1.69
9725.00,1.69
9724.00,1.69
9723.00,1.69
9722.00,1.69
9721.00,1.69
9720.00,1.69
9719.00,1.69
9718.00,1.69
9717.00,1.69
9716.00,1.69
9715.00,1.68
9714.00,1.68
9713.00,1.68
9712.00,1.68
9711.00,1.67
9710.00,1.67
9709.00,1.67
9708.00,1.67
9707.00,1.67
9706.00,1.67
9705.00,1.67
9704.00,1.67
9703.00,1.67
9702.00,1.67
9701.00,1.68
9700.00,1.68
9699.00,1.68
9698.00,1.68
9697.00,1.69
9696.00,1.69
9695.00,1.69
9694.00,1.70
9693.00,1.70
9692.00,1.70
9691.00,1.71
9690.00,1.71
9689.00,1.72
9688.00,1.72
9687.00,1.72
9686.00,1.73
9685.00,1.73
9684.00,1.73
9683.00,1.73
9682.00,1.73
9681.00,1.73
9680.00,1.73
9679.00,1.73
9678.00,1.73
9677.00,1.73
9676.00,1.73
9675.00,1.73
9674.00,1.73
9673.00,1.72
9672.00,1.72
9671.00,1.72
9670.00,1.72
9669.00,1.72
9668.00,1.72
9667.00,1.71
9666.00,1.71
9665.00,1.71
9664.00,1.71
9663.00,1.71
9662.00,1.71
9661.00,1.71
9660.00,1.71
9659.00,1.71
9658.00,1.71
9657.00,1.71
9656.00,1.71
9655.00,1.71
9654.00,1.71
9653.00,1.71
9652.00,1.71
9651.00,1.71
9650.00,1.71
9649.00,1.71
9648.00,1.71
9647.00,1.71
9646.00,1.71
9645.00,1.71
9644.00,1.71
9643.00,1.71
9642.00,1.71
9641.00,1.71
9640.00,1.71
9639.00,1.71
9638.00,1.71
9637.00,1.71
9636.00,1.71
9635.00,1.71
9634.00,1.71
9633.00,1.71
9632.00,1.71
9631.00,1.71
9630.00,1.71
9629.00,1.71
9628.00,1.71
9627.00,1.71
9626.00,1.71
9625.00,1.71
9624.00,1.71
9623.00,1.71
9622.00,1.71
9621.00,1.70
9620.00,1.70
9619.00,1.70
9618.00,1.70
9617.00,1.70
9616.00,1.70
9615.00,1.70
9614.00,1.69
9613.00,1.69
9612.00,1.69
9611.00,1.69
9610.00,1.69
9609.00,1.69
9608.00,1.68
9607.00,1.68
9606.00,1.68
9605.00,1.68
9604.00,1.68
9603.00,1.68
9602.00,1.68
9601.00,1.68
9600.00,1.68
9599.00,1.69
9598.00,1.69
9597.00,1.69
9596.00,1.69
9595.00,1.69
9594.00,1.69
9593.00,1.69
9592.00,1.69
9591.00,1.69
9590.00,1.69
9589.00,1.69
9588.00,1.69
9587.00,1.69
9586.00,1.70
9585.00,1.70
9584.00,1.70
9583.00,1.70
9582.00,1.70
9581.00,1.70
9580.00,1.70
9579.00,1.70
9578.00,1.70
9577.00,1.70
9576.00,1.70
9575.00,1.71
9574.00,1.71
9573.00,1.71
9572.00,1.71
9571.00,1.71
9570.00,1.71
9569.00,1.72
9568.00,1.72
9567.00,1.72
9566.00,1.72
9565.00,1.72
9564.00,1.72
9563.00,1.72
9562.00,1.72
9561.00,1.72
9560.00,1.72
9559.00,1.72
9558.00,1.72
9557.00,1.71
9556.00,1.71
9555.00,1.71
9554.00,1.71
9553.00,1.71
9552.00,1.70
9551.00,1.70
9550.00,1.70
9549.00,1.70
9548.00,1.69
9547.00,1.69
9546.00,1.69
9545.00,1.69
9544.00,1.68
9543.00,1.68
9542.00,1.68
9541.00,1.68
9540.00,1.68
9539.00,1.68
9538.00,1.67
9537.00,1.67
9536.00,1.67
9535.00,1.67
9534.00,1.67
9533.00,1.67
9532.00,1.68
9531.00,1.68
9530.00,1.68
9529.00,1.68
9528.00,1.69
9527.00,1.69
9526.00,1.69
9525.00,1.70
9524.00,1.70
9523.00,1.70
9522.00,1.70
9521.00,1.71
9520.00,1.71
9519.00,1.71
9518.00,1.71
9517.00,1.71
9516.00,1.71
9515.00,1.71
9514.00,1.71
9513.00,1.71
9512.00,1.71
9511.00,1.71
9510.00,1.70
9509.00,1.70
9508.00,1.70
9507.00,1.70
9506.00,1.70
9505.00,1.70
9504.00,1.70
9503.00,1.70
9502.00,1.70
9501.00,1.70
9500.00,1.70
9499.00,1.70
9498.00,1.70
9497.00,1.70
9496.00,1.70
9495.00,1.70
9494.00,1.70
9493.00,1.70
9492.00,1.69
9491.00,1.69
9490.00,1.69
9489.00,1.69
9488.00,1.69
9487.00,1.69
9486.00,1.69
9485.00,1.69
9484.00,1.69
9483.00,1.69
9482.00,1.69
9481.00,1.69
9480.00,1.69
9479.00,1.69
9478.00,1.69
9477.00,1.69
9476.00,1.69
9475.00,1.70
9474.00,1.70
9473.00,1.70
9472.00,1.70
9471.00,1.70
9470.00,1.70
9469.00,1.70
9468.00,1.70
9467.00,1.70
9466.00,1.70
9465.00,1.70
9464.00,1.70
9463.00,1.71
9462.00,1.71
9461.00,1.71
9460.00,1.71
9459.00,1.71
9458.00,1.71
9457.00,1.71
9456.00,1.71
9455.00,1.71
9454.00,1.71
9453.00,1.71
9452.00,1.71
9451.00,1.72
9450.00,1.72
9449.00,1.72
9448.00,1.72
9447.00,1.72
9446.00,1.72
9445.00,1.72
9444.00,1.72
9443.00,1.72
9442.00,1.72
9441.00,1.72
9440.00,1.72
9439.00,1.72
9438.00,1.72
9437.00,1.72
9436.00,1.72
9435.00,1.72
9434.00,1.72
9433.00,1.72
9432.00,1.72
9431.00,1.72
9430.00,1.72
9429.00,1.72
9428.00,1.72
9427.00,1.72
9426.00,1.72
9425.00,1.72
9424.00,1.72
9423.00,1.72
9422.00,1.72
9421.00,1.72
9420.00,1.72
9419.00,1.72
9418.00,1.72
9417.00,1.72
9416.00,1.72
9415.00,1.72
9414.00,1.72
9413.00,1.72
9412.00,1.72
9411.00,1.72
9410.00,1.72
9409.00,1.72
9408.00,1.73
9407.00,1.73
9406.00,1.73
9405.00,1.73
9404.00,1.73
9403.00,1.73
9402.00,1.73
9401.00,1.73
9400.00,1.73
9399.00,1.73
9398.00,1.73
9397.00,1.73
9396.00,1.72
9395.00,1.72
9394.00,1.72
9393.00,1.72
9392.00,1.72
9391.00,1.72
9390.00,1.72
9389.00,1.72
9388.00,1.71
9387.00,1.71
9386.00,1.71
9385.00,1.71
9384.00,1.71
9383.00,1.71
9382.00,1.71
9381.00,1.71
9380.00,1.71
9379.00,1.71
9378.00,1.71
9377.00,1.71
9376.00,1.71
9375.00,1.71
9374.00,1.71
9373.00,1.70
9372.00,1.70
9371.00,1.70
9370.00,1.70
9369.00,1.70
9368.00,1.70
9367.00,1.70
9366.00,1.70
9365.00,1.70
9364.00,1.70
9363.00,1.70
9362.00,1.70
9361.00,1.70
9360.00,1.70
9359.00,1.71
9358.00,1.71
9357.00,1.71
9356.00,1.71
9355.00,1.71
9354.00,1.71
9353.00,1.71
9352.00,1.71
9351.00,1.71
9350.00,1.71
9349.00,1.71
9348.00,1.71
9347.00,1.71
9346.00,1.71
9345.00,1.71
9344.00,1.71
9343.00,1.71
9342.00,1.71
9341.00,1.71
9340.00,1.71
9339.00,1.71
9338.00,1.71
9337.00,1.71
9336.00,1.71
9335.00,1.71
9334.00,1.71
9333.00,1.71
9332.00,1.71
9331.00,1.71
9330.00,1.71
9329.00,1.71
9328.00,1.71
9327.00,1.71
9326.00,1.71
9325.00,1.71
9324.00,1.71
9323.00,1.71
9322.00,1.71
9321.00,1.71
9320.00,1.71
9319.00,1.71
9318.00,1.71
9317.00,1.71
9316.00,1.71
9315.00,1.71
9314.00,1.70
9313.00,1.70
9312.00,1.70
9311.00,1.70
9310.00,1.70
9309.00,1.70
9308.00,1.70
9307.00,1.70
9306.00,1.71
9305.00,1.71
9304.00,1.71
9303.00,1.70
9302.00,1.70
9301.00,1.70
9300.00,1.70
9299.00,1.70
9298.00,1.70
9297.00,1.70
9296.00,1.70
9295.00,1.69
9294.00,1.69
9293.00,1.69
9292.00,1.69
9291.00,1.69
9290.00,1.69
9289.00,1.68
9288.00,1.68
9287.00,1.68
9286.00,1.68
9285.00,1.68
9284.00,1.68
9283.00,1.69
9282.00,1.69
9281.00,1.69
9280.00,1.69
9279.00,1.69
9278.00,1.69
9277.00,1.70
9276.00,1.70
9275.00,1.70
9274.00,1.70
9273.00,1.70
9272.00,1.70
9271.00,1.70
9270.00,1.70
9269.00,1.70
9268.00,1.70
9267.00,1.70
9266.00,1.70
9265.00,1.70
9264.00,1.70
9263.00,1.70
9262.00,1.69
9261.00,1.69
9260.00,1.69
9259.00,1.69
9258.00,1.69
9257.00,1.69
9256.00,1.69
9255.00,1.69
9254.00,1.69
9253.00,1.69
9252.00,1.69
9251.00,1.69
9250.00,1.69
9249.00,1.69
9248.00,1.69
9247.00,1.69
9246.00,1.69
9245.00,1.69
9244.00,1.69
9243.00,1.69
9242.00,1.69
9241.00,1.69
9240.00,1.69
9239.00,1.69
9238.00,1.69
9237.00,1.69
9236.00,1.69
9235.00,1.69
9234.00,1.69
9233.00,1.69
9232.00,1.69
9231.00,1.69
9230.00,1.69
9229.00,1.69
9228.00,1.69
9227.00,1.69
9226.00,1.70
9225.00,1.70
9224.00,1.70
9223.00,1.70
9222.00,1.70
9221.00,1.70
9220.00,1.70
9219.00,1.70
9218.00,1.70
9217.00,1.70
9216.00,1.70
9215.00,1.70
9214.00,1.70
9213.00,1.70
9212.00,1.70
9211.00,1.70
9210.00,1.70
9209.00,1.70
9208.00,1.70
9207.00,1.70
9206.00,1.70
9205.00,1.69
9204.00,1.69
9203.00,1.69
9202.00,1.69
9201.00,1.69
9200.00,1.69
9199.00,1.70
9198.00,1.70
9197.00,1.70
9196.00,1.70
9195.00,1.70
9194.00,1.71
9193.00,1.71
9192.00,1.71
9191.00,1.71
9190.00,1.72
9189.00,1.72
9188.00,1.72
9187.00,1.72
9186.00,1.72
9185.00,1.73
9184.00,1.73
9183.00,1.73
9182.00,1.73
9181.00,1.73
9180.00,1.73
9179.00,1.73
9178.00,1.73
9177.00,1.73
9176.00,1.73
9175.00,1.73
9174.00,1.73
9173.00,1.73
9172.00,1.73
9171.00,1.72
9170.00,1.72
9169.00,1.72
9168.00,1.72
9167.00,1.72
9166.00,1.71
9165.00,1.71
9164.00,1.71
9163.00,1.71
9162.00,1.71
9161.00,1.71
9160.00,1.70
9159.00,1.70
9158.00,1.70
9157.00,1.70
9156.00,1.70
9155.00,1.70
9154.00,1.71
9153.00,1.71
9152.00,1.71
9151.00,1.71
9150.00,1.71
9149.00,1.71
9148.00,1.71
9147.00,1.71
9146.00,1.72
9145.00,1.72
9144.00,1.72
9143.00,1.72
9142.00,1.72
9141.00,1.72
9140.00,1.73
9139.00,1.73
9138.00,1.73
9137.00,1.73
9136.00,1.73
9135.00,1.73
9134.00,1.73
9133.00,1.73
9132.00,1.73
9131.00,1.73
9130.00,1.73
9129.00,1.73
9128.00,1.73
9127.00,1.73
9126.00,1.73
9125.00,1.73
9124.00,1.73
9123.00,1.73
9122.00,1.73
9121.00,1.73
9120.00,1.73
9119.00,1.73
9118.00,1.73
9117.00,1.73
9116.00,1.73
9115.00,1.72
9114.00,1.72
9113.00,1.72
9112.00,1.72
9111.00,1.72
9110.00,1.72
9109.00,1.72
9108.00,1.72
9107.00,1.72
9106.00,1.72
9105.00,1.72
9104.00,1.73
9103.00,1.73
9102.00,1.73
9101.00,1.73
9100.00,1.73
9099.00,1.73
9098.00,1.73
9097.00,1.73
9096.00,1.73
9095.00,1.73
9094.00,1.73
9093.00,1.73
9092.00,1.73
9091.00,1.73
9090.00,1.73
9089.00,1.73
9088.00,1.73
9087.00,1.73
9086.00,1.72
9085.00,1.72
9084.00,1.72
9083.00,1.72
9082.00,1.72
9081.00,1.72
9080.00,1.72
9079.00,1.72
9078.00,1.72
9077.00,1.72
9076.00,1.72
9075.00,1.72
9074.00,1.72
9073.00,1.72
9072.00,1.72
9071.00,1.71
9070.00,1.71
9069.00,1.71
9068.00,1.71
9067.00,1.71
9066.00,1.71
9065.00,1.71
9064.00,1.71
9063.00,1.71
9062.00,1.71
9061.00,1.71
9060.00,1.71
9059.00,1.71
9058.00,1.71
9057.00,1.71
9056.00,1.71
9055.00,1.71
9054.00,1.71
9053.00,1.71
9052.00,1.71
9051.00,1.71
9050.00,1.71
9049.00,1.71
9048.00,1.71
9047.00,1.71
9046.00,1.71
9045.00,1.71
9044.00,1.71
9043.00,1.71
9042.00,1.71
9041.00,1.71
9040.00,1.71
9039.00,1.71
9038.00,1.71
9037.00,1.71
9036.00,1.71
9035.00,1.72
9034.00,1.72
9033.00,1.72
9032.00,1.72
9031.00,1.72
9030.00,1.72
9029.00,1.72
9028.00,1.72
9027.00,1.72
9026.00,1.72
9025.00,1.72
9024.00,1.72
9023.00,1.72
9022.00,1.72
9021.00,1.71
9020.00,1.71
9019.00,1.71
9018.00,1.71
9017.00,1.71
9016.00,1.71
9015.00,1.70
9014.00,1.70
9013.00,1.70
9012.00,1.70
9011.00,1.70
9010.00,1.70
9009.00,1.70
9008.00,1.70
9007.00,1.70
9006.00,1.70
9005.00,1.70
9004.00,1.70
9003.00,1.71
9002.00,1.71
9001.00,1.71
9000.00,1.71
8999.00,1.71
8998.00,1.72
8997.00,1.72
8996.00,1.72
8995.00,1.72
8994.00,1.72
8993.00,1.72
8992.00,1.72
8991.00,1.72
8990.00,1.72
8989.00,1.72
8988.00,1.72
8987.00,1.72
8986.00,1.72
8985.00,1.72
8984.00,1.72
8983.00,1.72
8982.00,1.72
8981.00,1.71
8980.00,1.71
8979.00,1.71
8978.00,1.71
8977.00,1.71
8976.00,1.71
8975.00,1.71
8974.00,1.71
8973.00,1.71
8972.00,1.71
8971.00,1.71
8970.00,1.71
8969.00,1.71
8968.00,1.71
8967.00,1.71
8966.00,1.71
8965.00,1.71
8964.00,1.71
8963.00,1.70
8962.00,1.70
8961.00,1.70
8960.00,1.70
8959.00,1.71
8958.00,1.71
8957.00,1.71
8956.00,1.71
8955.00,1.71
8954.00,1.71
8953.00,1.71
8952.00,1.71
8951.00,1.72
8950.00,1.72
8949.00,1.72
8948.00,1.72
8947.00,1.72
8946.00,1.72
8945.00,1.72
8944.00,1.72
8943.00,1.72
8942.00,1.72
8941.00,1.72
8940.00,1.72
8939.00,1.72
8938.00,1.72
8937.00,1.72
8936.00,1.72
8935.00,1.72
8934.00,1.72
8933.00,1.72
8932.00,1.72
8931.00,1.72
8930.00,1.72
8929.00,1.72
8928.00,1.72
8927.00,1.72
8926.00,1.72
8925.00,1.72
8924.00,1.72
8923.00,1.72
8922.00,1.72
8921.00,1.72
8920.00,1.72
8919.00,1.72
8918.00,1.72
8917.00,1.71
8916.00,1.71
8915.00,1.71
8914.00,1.71
8913.00,1.72
8912.00,1.72
8911.00,1.72
8910.00,1.72
8909.00,1.72
8908.00,1.72
8907.00,1.72
8906.00,1.73
8905.00,1.73
8904.00,1.73
8903.00,1.73
8902.00,1.73
8901.00,1.73
8900.00,1.73
8899.00,1.73
8898.00,1.73
8897.00,1.73
8896.00,1.73
8895.00,1.73
8894.00,1.72
8893.00,1.72
8892.00,1.72
8891.00,1.72
8890.00,1.71
8889.00,1.71
8888.00,1.71
8887.00,1.71
8886.00,1.71
8885.00,1.71
8884.00,1.71
8883.00,1.71
8882.00,1.71
8881.00,1.71
8880.00,1.71
8879.00,1.71
8878.00,1.71
8877.00,1.71
8876.00,1.71
8875.00,1.71
8874.00,1.71
8873.00,1.71
8872.00,1.72
8871.00,1.72
8870.00,1.72
8869.00,1.72
8868.00,1.72
8867.00,1.72
8866.00,1.72
8865.00,1.72
8864.00,1.72
8863.00,1.72
8862.00,1.72
8861.00,1.72
8860.00,1.72
8859.00,1.72
8858.00,1.72
8857.00,1.72
8856.00,1.72
8855.00,1.71
8854.00,1.71
8853.00,1.71
8852.00,1.71
8851.00,1.71
8850.00,1.71
8849.00,1.71
8848.00,1.71
8847.00,1.71
8846.00,1.71
8845.00,1.71
8844.00,1.71
8843.00,1.71
8842.00,1.71
8841.00,1.71
8840.00,1.71
8839.00,1.72
8838.00,1.72
8837.00,1.72
8836.00,1.72
8835.00,1.72
8834.00,1.72
8833.00,1.72
8832.00,1.72
8831.00,1.72
8830.00,1.72
8829.00,1.72
8828.00,1.72
8827.00,1.72
8826.00,1.71
8825.00,1.71
8824.00,1.71
8823.00,1.71
8822.00,1.70
8821.00,1.70
8820.00,1.70
8819.00,1.70
8818.00,1.69
8817.00,1.69
8816.00,1.69
8815.00,1.68
8814.00,1.68
8813.00,1.68
8812.00,1.68
8811.00,1.68
8810.00,1.67
8809.00,1.67
8808.00,1.67
8807.00,1.67
8806.00,1.67
8805.00,1.67
8804.00,1.67
8803.00,1.67
8802.00,1.67
8801.00,1.67
8800.00,1.67
8799.00,1.68
8798.00,1.68
8797.00,1.68
8796.00,1.68
8795.00,1.68
8794.00,1.68
8793.00,1.68
8792.00,1.68
8791.00,1.68
8790.00,1.68
8789.00,1.68
8788.00,1.68
8787.00,1.68
8786.00,1.67
8785.00,1.67
8784.00,1.67
8783.00,1.67
8782.00,1.67
8781.00,1.67
8780.00,1.67
8779.00,1.67
8778.00,1.67
8777.00,1.67
8776.00,1.67
8775.00,1.67
8774.00,1.67
8773.00,1.67
8772.00,1.67
8771.00,1.67
8770.00,1.67
8769.00,1.67
8768.00,1.67
8767.00,1.67
8766.00,1.67
8765.00,1.67
8764.00,1.67
8763.00,1.67
8762.00,1.67
8761.00,1.67
8760.00,1.67
8759.00,1.67
8758.00,1.67
8757.00,1.66
8756.00,1.66
8755.00,1.66
8754.00,1.66
8753.00,1.66
8752.00,1.66
8751.00,1.66
8750.00,1.66
8749.00,1.65
8748.00,1.65
8747.00,1.65
8746.00,1.65
8745.00,1.65
8744.00,1.65
8743.00,1.65
8742.00,1.65
8741.00,1.64
8740.00,1.64
8739.00,1.64
8738.00,1.64
8737.00,1.64
8736.00,1.64
8735.00,1.64
8734.00,1.64
8733.00,1.64
8732.00,1.64
8731.00,1.64
8730.00,1.64
8729.00,1.64
8728.00,1.64
8727.00,1.64
8726.00,1.64
8725.00,1.64
8724.00,1.64
8723.00,1.64
8722.00,1.64
8721.00,1.64
8720.00,1.64
8719.00,1.64
8718.00,1.65
8717.00,1.65
8716.00,1.65
8715.00,1.65
8714.00,1.65
8713.00,1.65
8712.00,1.65
8711.00,1.65
8710.00,1.65
8709.00,1.65
8708.00,1.65
8707.00,1.65
8706.00,1.65
8705.00,1.65
8704.00,1.65
8703.00,1.65
8702.00,1.65
8701.00,1.65
8700.00,1.65
8699.00,1.65
8698.00,1.65
8697.00,1.65
8696.00,1.65
8695.00,1.65
8694.00,1.64
8693.00,1.64
8692.00,1.64
8691.00,1.64
8690.00,1.64
8689.00,1.64
8688.00,1.64
8687.00,1.64
8686.00,1.64
8685.00,1.64
8684.00,1.64
8683.00,1.64
8682.00,1.64
8681.00,1.64
8680.00,1.64
8679.00,1.64
8678.00,1.64
8677.00,1.64
8676.00,1.64
8675.00,1.64
8674.00,1.65
8673.00,1.65
8672.00,1.65
8671.00,1.65
8670.00,1.65
8669.00,1.65
8668.00,1.65
8667.00,1.65
8666.00,1.65
8665.00,1.65
8664.00,1.65
8663.00,1.65
8662.00,1.65
8661.00,1.65
8660.00,1.64
8659.00,1.64
8658.00,1.64
8657.00,1.64
8656.00,1.63
8655.00,1.63
8654.00,1.63
8653.00,1.63
8652.00,1.63
8651.00,1.62
8650.00,1.62
8649.00,1.62
8648.00,1.62
8647.00,1.62
8646.00,1.62
8645.00,1.62
8644.00,1.62
8643.00,1.62
8642.00,1.62
8641.00,1.62
8640.00,1.62
8639.00,1.62
8638.00,1.62
8637.00,1.62
8636.00,1.62
8635.00,1.62
8634.00,1.62
8633.00,1.62
8632.00,1.61
8631.00,1.61
8630.00,1.61
8629.00,1.61
8628.00,1.61
8627.00,1.61
8626.00,1.61
8625.00,1.61
8624.00,1.60
8623.00,1.60
8622.00,1.60
8621.00,1.60
8620.00,1.60
8619.00,1.60
8618.00,1.60
8617.00,1.60
8616.00,1.60
8615.00,1.60
8614.00,1.60
8613.00,1.60
8612.00,1.60
8611.00,1.60
8610.00,1.60
8609.00,1.60
8608.00,1.60
8607.00,1.60
8606.00,1.60
8605.00,1.60
8604.00,1.60
8603.00,1.60
8602.00,1.60
8601.00,1.61
8600.00,1.61
8599.00,1.61
8598.00,1.61
8597.00,1.61
8596.00,1.61
8595.00,1.62
8594.00,1.62
8593.00,1.62
8592.00,1.62
8591.00,1.62
8590.00,1.62
8589.00,1.62
8588.00,1.62
8587.00,1.62
8586.00,1.62
8585.00,1.61
8584.00,1.61
8583.00,1.61
8582.00,1.61
8581.00,1.61
8580.00,1.61
8579.00,1.61
8578.00,1.61
8577.00,1.61
8576.00,1.61
8575.00,1.60
8574.00,1.60
8573.00,1.60
8572.00,1.60
8571.00,1.60
8570.00,1.60
8569.00,1.60
8568.00,1.60
8567.00,1.60
8566.00,1.60
8565.00,1.59
8564.00,1.59
8563.00,1.59
8562.00,1.59
8561.00,1.59
8560.00,1.59
8559.00,1.59
8558.00,1.59
8557.00,1.58
8556.00,1.58
8555.00,1.58
8554.00,1.58
8553.00,1.58
8552.00,1.58
8551.00,1.58
8550.00,1.58
8549.00,1.58
8548.00,1.58
8547.00,1.58
8546.00,1.58
8545.00,1.58
8544.00,1.58
8543.00,1.58
8542.00,1.58
8541.00,1.58
8540.00,1.58
8539.00,1.58
8538.00,1.58
8537.00,1.58
8536.00,1.58
8535.00,1.58
8534.00,1.58
8533.00,1.58
8532.00,1.58
8531.00,1.58
8530.00,1.58
8529.00,1.58
8528.00,1.58
8527.00,1.58
8526.00,1.58
8525.00,1.58
8524.00,1.58
8523.00,1.58
8522.00,1.58
8521.00,1.58
8520.00,1.58
8519.00,1.58
8518.00,1.58
8517.00,1.57
8516.00,1.57
8515.00,1.57
8514.00,1.57
8513.00,1.57
8512.00,1.57
8511.00,1.57
8510.00,1.57
8509.00,1.57
8508.00,1.57
8507.00,1.56
8506.00,1.56
8505.00,1.56
8504.00,1.56
8503.00,1.56
8502.00,1.56
8501.00,1.56
8500.00,1.56
8499.00,1.56
8498.00,1.56
8497.00,1.55
8496.00,1.55
8495.00,1.55
8494.00,1.55
8493.00,1.55
8492.00,1.54
8491.00,1.54
8490.00,1.54
8489.00,1.54
8488.00,1.54
8487.00,1.53
8486.00,1.53
8485.00,1.53
8484.00,1.53
8483.00,1.53
8482.00,1.53
8481.00,1.53
8480.00,1.53
8479.00,1.53
8478.00,1.53
8477.00,1.53
8476.00,1.53
8475.00,1.53
8474.00,1.53
8473.00,1.53
8472.00,1.53
8471.00,1.54
8470.00,1.54
8469.00,1.54
8468.00,1.54
8467.00,1.53
8466.00,1.53
8465.00,1.53
8464.00,1.53
8463.00,1.53
8462.00,1.53
8461.00,1.53
8460.00,1.52
8459.00,1.52
8458.00,1.52
8457.00,1.52
8456.00,1.52
8455.00,1.51
8454.00,1.51
8453.00,1.51
8452.00,1.51
8451.00,1.51
8450.00,1.51
8449.00,1.51
8448.00,1.51
8447.00,1.51
8446.00,1.51
8445.00,1.51
8444.00,1.51
8443.00,1.51
8442.00,1.51
8441.00,1.51
8440.00,1.51
8439.00,1.51
8438.00,1.51
8437.00,1.51
8436.00,1.51
8435.00,1.51
8434.00,1.51
8433.00,1.51
8432.00,1.51
8431.00,1.51
8430.00,1.51
8429.00,1.51
8428.00,1.51
8427.00,1.51
8426.00,1.51
8425.00,1.51
8424.00,1.52
8423.00,1.52
8422.00,1.52
8421.00,1.52
8420.00,1.52
8419.00,1.52
8418.00,1.52
8417.00,1.53
8416.00,1.53
8415.00,1.53
8414.00,1.53
8413.00,1.54
8412.00,1.54
8411.00,1.54
8410.00,1.55
8409.00,1.55
8408.00,1.55
8407.00,1.55
8406.00,1.55
8405.00,1.56
8404.00,1.56
8403.00,1.56
8402.00,1.56
8401.00,1.56
8400.00,1.56
8399.00,1.56
8398.00,1.56
8397.00,1.56
8396.00,1.55
8395.00,1.55
8394.00,1.55
8393.00,1.55
8392.00,1.55
8391.00,1.55
8390.00,1.55
8389.00,1.55
8388.00,1.55
8387.00,1.55
8386.00,1.55
8385.00,1.55
8384.00,1.54
8383.00,1.54
8382.00,1.54
8381.00,1.54
8380.00,1.54
8379.00,1.54
8378.00,1.55
8377.00,1.55
8376.00,1.55
8375.00,1.55
8374.00,1.55
8373.00,1.55
8372.00,1.55
8371.00,1.55
8370.00,1.55
8369.00,1.55
8368.00,1.56
8367.00,1.56
8366.00,1.56
8365.00,1.56
8364.00,1.56
8363.00,1.56
8362.00,1.56
8361.00,1.56
8360.00,1.56
8359.00,1.56
8358.00,1.56
8357.00,1.56
8356.00,1.56
8355.00,1.56
8354.00,1.56
8353.00,1.56
8352.00,1.56
8351.00,1.56
8350.00,1.56
8349.00,1.56
8348.00,1.56
8347.00,1.56
8346.00,1.56
8345.00,1.56
8344.00,1.56
8343.00,1.56
8342.00,1.56
8341.00,1.56
8340.00,1.56
8339.00,1.56
8338.00,1.55
8337.00,1.55
8336.00,1.56
8335.00,1.56
8334.00,1.56
8333.00,1.56
8332.00,1.56
8331.00,1.56
8330.00,1.56
8329.00,1.56
8328.00,1.56
8327.00,1.56
8326.00,1.57
8325.00,1.57
8324.00,1.57
8323.00,1.57
8322.00,1.57
8321.00,1.57
8320.00,1.57
8319.00,1.57
8318.00,1.57
8317.00,1.57
8316.00,1.57
8315.00,1.57
8314.00,1.57
8313.00,1.57
8312.00,1.57
8311.00,1.57
8310.00,1.57
8309.00,1.57
8308.00,1.57
8307.00,1.57
8306.00,1.57
8305.00,1.57
8304.00,1.57
8303.00,1.57
8302.00,1.57
8301.00,1.57
8300.00,1.57
8299.00,1.57
8298.00,1.57
8297.00,1.57
8296.00,1.57
8295.00,1.57
8294.00,1.57
8293.00,1.57
8292.00,1.57
8291.00,1.57
8290.00,1.57
8289.00,1.56
8288.00,1.56
8287.00,1.56
8286.00,1.56
8285.00,1.56
8284.00,1.56
8283.00,1.56
8282.00,1.56
8281.00,1.56
8280.00,1.56
8279.00,1.57
8278.00,1.57
8277.00,1.57
8276.00,1.57
8275.00,1.57
8274.00,1.57
8273.00,1.58
8272.00,1.58
8271.00,1.58
8270.00,1.58
8269.00,1.58
8268.00,1.59
8267.00,1.59
8266.00,1.59
8265.00,1.59
8264.00,1.59
8263.00,1.59
8262.00,1.59
8261.00,1.59
8260.00,1.59
8259.00,1.59
8258.00,1.59
8257.00,1.59
8256.00,1.59
8255.00,1.59
8254.00,1.59
8253.00,1.59
8252.00,1.59
8251.00,1.59
8250.00,1.59
8249.00,1.59
8248.00,1.59
8247.00,1.59
8246.00,1.59
8245.00,1.59
8244.00,1.59
8243.00,1.59
8242.00,1.59
8241.00,1.59
8240.00,1.59
8239.00,1.59
8238.00,1.59
8237.00,1.59
8236.00,1.59
8235.00,1.59
8234.00,1.59
8233.00,1.59
8232.00,1.59
8231.00,1.59
8230.00,1.59
8229.00,1.59
8228.00,1.59
8227.00,1.59
8226.00,1.59
8225.00,1.59
8224.00,1.59
8223.00,1.59
8222.00,1.59
8221.00,1.59
8220.00,1.59
8219.00,1.60
8218.00,1.60
8217.00,1.60
8216.00,1.60
8215.00,1.60
8214.00,1.60
8213.00,1.60
8212.00,1.60
8211.00,1.60
8210.00,1.61
8209.00,1.61
8208.00,1.61
8207.00,1.61
8206.00,1.61
8205.00,1.61
8204.00,1.61
8203.00,1.61
8202.00,1.61
8201.00,1.61
8200.00,1.61
8199.00,1.61
8198.00,1.61
8197.00,1.61
8196.00,1.61
8195.00,1.61
8194.00,1.61
8193.00,1.61
8192.00,1.61
8191.00,1.62
8190.00,1.62
8189.00,1.62
8188.00,1.62
8187.00,1.62
8186.00,1.62
8185.00,1.62
8184.00,1.62
8183.00,1.62
8182.00,1.62
8181.00,1.62
8180.00,1.62
8179.00,1.62
8178.00,1.62
8177.00,1.62
8176.00,1.62
8175.00,1.62
8174.00,1.62
8173.00,1.62
8172.00,1.62
8171.00,1.62
8170.00,1.62
8169.00,1.62
8168.00,1.62
8167.00,1.62
8166.00,1.62
8165.00,1.62
8164.00,1.62
8163.00,1.62
8162.00,1.62
8161.00,1.62
8160.00,1.62
8159.00,1.62
8158.00,1.62
8157.00,1.62
8156.00,1.62
8155.00,1.62
8154.00,1.63
8153.00,1.63
8152.00,1.63
8151.00,1.63
8150.00,1.63
8149.00,1.63
8148.00,1.63
8147.00,1.63
8146.00,1.63
8145.00,1.63
8144.00,1.63
8143.00,1.63
8142.00,1.63
8141.00,1.63
8140.00,1.63
8139.00,1.63
8138.00,1.63
8137.00,1.63
8136.00,1.63
8135.00,1.63
8134.00,1.63
8133.00,1.63
8132.00,1.63
8131.00,1.63
8130.00,1.63
8129.00,1.63
8128.00,1.63
8127.00,1.63
8126.00,1.63
8125.00,1.64
8124.00,1.64
8123.00,1.64
8122.00,1.64
8121.00,1.64
8120.00,1.64
8119.00,1.64
8118.00,1.64
8117.00,1.64
8116.00,1.64
8115.00,1.64
8114.00,1.64
8113.00,1.64
8112.00,1.64
8111.00,1.64
8110.00,1.64
8109.00,1.64
8108.00,1.64
8107.00,1.65
8106.00,1.65
8105.00,1.65
8104.00,1.65
8103.00,1.65
8102.00,1.65
8101.00,1.65
8100.00,1.65
8099.00,1.65
8098.00,1.66
8097.00,1.66
8096.00,1.66
8095.00,1.66
8094.00,1.66
8093.00,1.66
8092.00,1.66
8091.00,1.66
8090.00,1.66
8089.00,1.66
8088.00,1.66
8087.00,1.66
8086.00,1.66
8085.00,1.66
8084.00,1.66
8083.00,1.66
8082.00,1.66
8081.00,1.67
8080.00,1.67
8079.00,1.67
8078.00,1.67
8077.00,1.67
8076.00,1.67
8075.00,1.67
8074.00,1.67
8073.00,1.67
8072.00,1.67
8071.00,1.67
8070.00,1.67
8069.00,1.67
8068.00,1.67
8067.00,1.67
8066.00,1.67
8065.00,1.67
8064.00,1.67
8063.00,1.67
8062.00,1.67
8061.00,1.67
8060.00,1.66
8059.00,1.66
8058.00,1.66
8057.00,1.66
8056.00,1.66
8055.00,1.66
8054.00,1.66
8053.00,1.66
8052.00,1.66
8051.00,1.67
8050.00,1.67
8049.00,1.67
8048.00,1.67
8047.00,1.67
8046.00,1.67
8045.00,1.67
8044.00,1.67
8043.00,1.68
8042.00,1.68
8041.00,1.68
8040.00,1.68
8039.00,1.68
8038.00,1.68
8037.00,1.68
8036.00,1.68
8035.00,1.69
8034.00,1.69
8033.00,1.69
8032.00,1.69
8031.00,1.69
8030.00,1.69
8029.00,1.69
8028.00,1.69
8027.00,1.69
8026.00,1.69
8025.00,1.69
8024.00,1.69
8023.00,1.69
8022.00,1.69
8021.00,1.69
8020.00,1.69
8019.00,1.69
8018.00,1.69
8017.00,1.69
8016.00,1.69
8015.00,1.69
8014.00,1.69
8013.00,1.69
8012.00,1.69
8011.00,1.69
8010.00,1.69
8009.00,1.69
8008.00,1.69
8007.00,1.69
8006.00,1.69
8005.00,1.69
8004.00,1.68
8003.00,1.68
8002.00,1.68
8001.00,1.68
8000.00,1.68
7999.00,1.68
7998.00,1.68
7997.00,1.68
7996.00,1.68
7995.00,1.68
7994.00,1.68
7993.00,1.68
7992.00,1.68
7991.00,1.68
7990.00,1.68
7989.00,1.68
7988.00,1.68
7987.00,1.68
7986.00,1.68
7985.00,1.68
7984.00,1.68
7983.00,1.68
7982.00,1.68
7981.00,1.68
7980.00,1.68
7979.00,1.68
7978.00,1.68
7977.00,1.68
7976.00,1.68
7975.00,1.68
7974.00,1.69
7973.00,1.69
7972.00,1.69
7971.00,1.69
7970.00,1.69
7969.00,1.69
7968.00,1.69
7967.00,1.69
7966.00,1.69
7965.00,1.69
7964.00,1.69
7963.00,1.69
7962.00,1.69
7961.00,1.69
7960.00,1.69
7959.00,1.69
7958.00,1.69
7957.00,1.69
7956.00,1.70
7955.00,1.70
7954.00,1.70
7953.00,1.70
7952.00,1.70
7951.00,1.70
7950.00,1.70
7949.00,1.70
7948.00,1.70
7947.00,1.70
7946.00,1.70
7945.00,1.70
7944.00,1.70
7943.00,1.70
7942.00,1.70
7941.00,1.70
7940.00,1.70
7939.00,1.70
7938.00,1.70
7937.00,1.70
7936.00,1.70
7935.00,1.70
7934.00,1.70
7933.00,1.70
7932.00,1.70
7931.00,1.71
7930.00,1.71
7929.00,1.71
7928.00,1.71
7927.00,1.71
7926.00,1.71
7925.00,1.71
7924.00,1.71
7923.00,1.71
7922.00,1.71
7921.00,1.71
7920.00,1.71
7919.00,1.71
7918.00,1.71
7917.00,1.71
7916.00,1.71
7915.00,1.71
7914.00,1.70
7913.00,1.70
7912.00,1.70
7911.00,1.70
7910.00,1.70
7909.00,1.70
7908.00,1.70
7907.00,1.70
7906.00,1.70
7905.00,1.70
7904.00,1.70
7903.00,1.70
7902.00,1.70
7901.00,1.70
7900.00,1.70
7899.00,1.70
7898.00,1.70
7897.00,1.70
7896.00,1.70
7895.00,1.70
7894.00,1.70
7893.00,1.70
7892.00,1.70
7891.00,1.70
7890.00,1.70
7889.00,1.70
7888.00,1.70
7887.00,1.70
7886.00,1.70
7885.00,1.70
7884.00,1.70
7883.00,1.70
7882.00,1.70
7881.00,1.70
7880.00,1.70
7879.00,1.70
7878.00,1.70
7877.00,1.70
7876.00,1.70
7875.00,1.70
7874.00,1.70
7873.00,1.70
7872.00,1.71
7871.00,1.71
7870.00,1.71
7869.00,1.71
7868.00,1.71
7867.00,1.71
7866.00,1.71
7865.00,1.71
7864.00,1.71
7863.00,1.71
7862.00,1.71
7861.00,1.71
7860.00,1.71
7859.00,1.71
7858.00,1.71
7857.00,1.71
7856.00,1.71
7855.00,1.70
7854.00,1.70
7853.00,1.70
7852.00,1.70
7851.00,1.70
7850.00,1.70
7849.00,1.70
7848.00,1.70
7847.00,1.70
7846.00,1.70
7845.00,1.70
7844.00,1.70
7843.00,1.70
7842.00,1.70
7841.00,1.70
7840.00,1.70
7839.00,1.70
7838.00,1.70
7837.00,1.70
7836.00,1.70
7835.00,1.70
7834.00,1.71
7833.00,1.71
7832.00,1.71
7831.00,1.71
7830.00,1.71
7829.00,1.71
7828.00,1.71
7827.00,1.71
7826.00,1.71
7825.00,1.71
7824.00,1.71
7823.00,1.71
7822.00,1.71
7821.00,1.70
7820.00,1.70
7819.00,1.70
7818.00,1.70
7817.00,1.70
7816.00,1.70
7815.00,1.70
7814.00,1.70
7813.00,1.70
7812.00,1.70
7811.00,1.70
7810.00,1.70
7809.00,1.70
7808.00,1.70
7807.00,1.71
7806.00,1.71
7805.00,1.71
7804.00,1.71
7803.00,1.71
7802.00,1.71
7801.00,1.71
7800.00,1.71
7799.00,1.72
7798.00,1.72
7797.00,1.72
7796.00,1.72
7795.00,1.72
7794.00,1.72
7793.00,1.72
7792.00,1.72
7791.00,1.72
7790.00,1.72
7789.00,1.72
7788.00,1.72
7787.00,1.72
7786.00,1.72
7785.00,1.73
7784.00,1.73
7783.00,1.73
7782.00,1.73
7781.00,1.73
7780.00,1.73
7779.00,1.73
7778.00,1.73
7777.00,1.73
7776.00,1.73
7775.00,1.73
7774.00,1.73
7773.00,1.73
7772.00,1.73
7771.00,1.73
7770.00,1.73
7769.00,1.73
7768.00,1.73
7767.00,1.73
7766.00,1.73
7765.00,1.73
7764.00,1.73
7763.00,1.73
7762.00,1.73
7761.00,1.73
7760.00,1.73
7759.00,1.73
7758.00,1.73
7757.00,1.73
7756.00,1.73
7755.00,1.73
7754.00,1.73
7753.00,1.73
7752.00,1.73
7751.00,1.73
7750.00,1.73
7749.00,1.72
7748.00,1.72
7747.00,1.72
7746.00,1.72
7745.00,1.72
7744.00,1.72
7743.00,1.72
7742.00,1.72
7741.00,1.72
7740.00,1.71
7739.00,1.71
7738.00,1.71
7737.00,1.71
7736.00,1.71
7735.00,1.71
7734.00,1.72
7733.00,1.72
7732.00,1.72
7731.00,1.72
7730.00,1.72
7729.00,1.72
7728.00,1.72
7727.00,1.72
7726.00,1.72
7725.00,1.72
7724.00,1.72
7723.00,1.72
7722.00,1.73
7721.00,1.73
7720.00,1.73
7719.00,1.73
7718.00,1.73
7717.00,1.73
7716.00,1.73
7715.00,1.73
7714.00,1.73
7713.00,1.73
7712.00,1.73
7711.00,1.73
7710.00,1.73
7709.00,1.73
7708.00,1.73
7707.00,1.73
7706.00,1.73
7705.00,1.73
7704.00,1.73
7703.00,1.73
7702.00,1.73
7701.00,1.73
7700.00,1.73
7699.00,1.73
7698.00,1.73
7697.00,1.73
7696.00,1.73
7695.00,1.73
7694.00,1.73
7693.00,1.73
7692.00,1.73
7691.00,1.73
7690.00,1.73
7689.00,1.73
7688.00,1.73
7687.00,1.73
7686.00,1.73
7685.00,1.73
7684.00,1.73
7683.00,1.73
7682.00,1.73
7681.00,1.73
7680.00,1.73
7679.00,1.73
7678.00,1.73
7677.00,1.73
7676.00,1.73
7675.00,1.73
7674.00,1.73
7673.00,1.73
7672.00,1.73
7671.00,1.73
7670.00,1.73
7669.00,1.73
7668.00,1.73
7667.00,1.73
7666.00,1.73
7665.00,1.73
7664.00,1.73
7663.00,1.73
7662.00,1.73
7661.00,1.73
7660.00,1.73
7659.00,1.73
7658.00,1.73
7657.00,1.73
7656.00,1.73
7655.00,1.73
7654.00,1.73
7653.00,1.73
7652.00,1.73
7651.00,1.73
7650.00,1.73
7649.00,1.73
7648.00,1.73
7647.00,1.73
7646.00,1.73
7645.00,1.73
7644.00,1.73
7643.00,1.73
7642.00,1.73
7641.00,1.73
7640.00,1.73
7639.00,1.73
7638.00,1.73
7637.00,1.73
7636.00,1.73
7635.00,1.73
7634.00,1.73
7633.00,1.73
7632.00,1.73
7631.00,1.73
7630.00,1.73
7629.00,1.72
7628.00,1.72
7627.00,1.72
7626.00,1.72
7625.00,1.72
7624.00,1.72
7623.00,1.72
7622.00,1.72
7621.00,1.72
7620.00,1.72
7619.00,1.72
7618.00,1.72
7617.00,1.72
7616.00,1.72
7615.00,1.72
7614.00,1.72
7613.00,1.72
7612.00,1.72
7611.00,1.73
7610.00,1.73
7609.00,1.73
7608.00,1.73
7607.00,1.73
7606.00,1.73
7605.00,1.73
7604.00,1.73
7603.00,1.73
7602.00,1.73
7601.00,1.73
7600.00,1.73
7599.00,1.73
7598.00,1.73
7597.00,1.73
7596.00,1.73
7595.00,1.73
7594.00,1.73
7593.00,1.73
7592.00,1.73
7591.00,1.73
7590.00,1.73
7589.00,1.73
7588.00,1.73
7587.00,1.73
7586.00,1.73
7585.00,1.73
7584.00,1.73
7583.00,1.73
7582.00,1.73
7581.00,1.73
7580.00,1.73
7579.00,1.73
7578.00,1.73
7577.00,1.73
7576.00,1.73
7575.00,1.73
7574.00,1.73
7573.00,1.73
7572.00,1.73
7571.00,1.73
7570.00,1.73
7569.00,1.73
7568.00,1.73
7567.00,1.73
7566.00,1.73
7565.00,1.73
7564.00,1.73
7563.00,1.73
7562.00,1.73
7561.00,1.73
7560.00,1.73
7559.00,1.73
7558.00,1.73
7557.00,1.73
7556.00,1.73
7555.00,1.72
7554.00,1.72
7553.00,1.72
7552.00,1.72
7551.00,1.72
7550.00,1.72
7549.00,1.72
7548.00,1.72
7547.00,1.72
7546.00,1.72
7545.00,1.72
7544.00,1.72
7543.00,1.72
7542.00,1.72
7541.00,1.72
7540.00,1.72
7539.00,1.72
7538.00,1.72
7537.00,1.72
7536.00,1.72
7535.00,1.72
7534.00,1.72
7533.00,1.72
7532.00,1.72
7531.00,1.72
7530.00,1.72
7529.00,1.72
7528.00,1.72
7527.00,1.72
7526.00,1.72
7525.00,1.72
7524.00,1.72
7523.00,1.72
7522.00,1.72
7521.00,1.72
7520.00,1.72
7519.00,1.72
7518.00,1.72
7517.00,1.72
7516.00,1.72
7515.00,1.72
7514.00,1.71
7513.00,1.71
7512.00,1.71
7511.00,1.71
7510.00,1.71
7509.00,1.71
7508.00,1.71
7507.00,1.71
7506.00,1.71
7505.00,1.71
7504.00,1.71
7503.00,1.71
7502.00,1.71
7501.00,1.70
7500.00,1.70
7499.00,1.70
7498.00,1.70
7497.00,1.70
7496.00,1.70
7495.00,1.70
7494.00,1.70
7493.00,1.70
7492.00,1.71
7491.00,1.71
7490.00,1.71
7489.00,1.71
7488.00,1.71
7487.00,1.71
7486.00,1.71
7485.00,1.70
7484.00,1.70
7483.00,1.70
7482.00,1.70
7481.00,1.70
7480.00,1.70
7479.00,1.70
7478.00,1.70
7477.00,1.70
7476.00,1.69
7475.00,1.69
7474.00,1.69
7473.00,1.69
7472.00,1.69
7471.00,1.69
7470.00,1.69
7469.00,1.69
7468.00,1.69
7467.00,1.69
7466.00,1.69
7465.00,1.69
7464.00,1.69
7463.00,1.69
7462.00,1.69
7461.00,1.69
7460.00,1.69
7459.00,1.68
7458.00,1.68
7457.00,1.68
7456.00,1.68
7455.00,1.68
7454.00,1.68
7453.00,1.68
7452.00,1.68
7451.00,1.68
7450.00,1.68
7449.00,1.68
7448.00,1.67
7447.00,1.67
7446.00,1.67
7445.00,1.67
7444.00,1.67
7443.00,1.67
7442.00,1.67
7441.00,1.67
7440.00,1.67
7439.00,1.67
7438.00,1.67
7437.00,1.67
7436.00,1.67
7435.00,1.67
7434.00,1.67
7433.00,1.67
7432.00,1.66
7431.00,1.66
7430.00,1.66
7429.00,1.66
7428.00,1.66
7427.00,1.66
7426.00,1.66
7425.00,1.66
7424.00,1.66
7423.00,1.66
7422.00,1.66
7421.00,1.65
7420.00,1.65
7419.00,1.65
7418.00,1.65
7417.00,1.65
7416.00,1.65
7415.00,1.65
7414.00,1.65
7413.00,1.65
7412.00,1.65
7411.00,1.65
7410.00,1.65
7409.00,1.65
7408.00,1.65
7407.00,1.65
7406.00,1.64
7405.00,1.64
7404.00,1.64
7403.00,1.64
7402.00,1.64
7401.00,1.64
7400.00,1.64
7399.00,1.64
7398.00,1.63
7397.00,1.63
7396.00,1.63
7395.00,1.63
7394.00,1.63
7393.00,1.62
7392.00,1.62
7391.00,1.62
7390.00,1.62
7389.00,1.62
7388.00,1.62
7387.00,1.61
7386.00,1.61
7385.00,1.61
7384.00,1.61
7383.00,1.61
7382.00,1.61
7381.00,1.60
7380.00,1.60
7379.00,1.60
7378.00,1.60
7377.00,1.60
7376.00,1.60
7375.00,1.60
7374.00,1.60
7373.00,1.60
7372.00,1.60
7371.00,1.60
7370.00,1.60
7369.00,1.60
7368.00,1.60
7367.00,1.60
7366.00,1.60
7365.00,1.60
7364.00,1.60
7363.00,1.60
7362.00,1.60
7361.00,1.60
7360.00,1.60
7359.00,1.60
7358.00,1.60
7357.00,1.60
7356.00,1.60
7355.00,1.60
7354.00,1.60
7353.00,1.60
7352.00,1.60
7351.00,1.60
7350.00,1.60
7349.00,1.60
7348.00,1.60
7347.00,1.59
7346.00,1.59
7345.00,1.59
7344.00,1.59
7343.00,1.59
7342.00,1.59
7341.00,1.59
7340.00,1.59
7339.00,1.59
7338.00,1.59
7337.00,1.59
7336.00,1.59
7335.00,1.59
7334.00,1.59
7333.00,1.59
7332.00,1.59
7331.00,1.59
7330.00,1.59
7329.00,1.59
7328.00,1.59
7327.00,1.59
7326.00,1.59
7325.00,1.59
7324.00,1.59
7323.00,1.59
7322.00,1.59
7321.00,1.59
7320.00,1.59
7319.00,1.59
7318.00,1.59
7317.00,1.59
7316.00,1.58
7315.00,1.58
7314.00,1.58
7313.00,1.58
7312.00,1.58
7311.00,1.58
7310.00,1.58
7309.00,1.57
7308.00,1.57
7307.00,1.57
7306.00,1.57
7305.00,1.57
7304.00,1.57
7303.00,1.57
7302.00,1.56
7301.00,1.56
7300.00,1.56
7299.00,1.56
7298.00,1.56
7297.00,1.56
7296.00,1.55
7295.00,1.55
7294.00,1.55
7293.00,1.55
7292.00,1.55
7291.00,1.54
7290.00,1.54
7289.00,1.54
7288.00,1.54
7287.00,1.53
7286.00,1.53
7285.00,1.53
7284.00,1.53
7283.00,1.52
7282.00,1.52
7281.00,1.52
7280.00,1.52
7279.00,1.52
7278.00,1.52
7277.00,1.52
7276.00,1.51
7275.00,1.51
7274.00,1.51
7273.00,1.51
7272.00,1.51
7271.00,1.51
7270.00,1.51
7269.00,1.51
7268.00,1.51
7267.00,1.51
7266.00,1.51
7265.00,1.50
7264.00,1.50
7263.00,1.50
7262.00,1.50
7261.00,1.50
7260.00,1.50
7259.00,1.49
7258.00,1.49
7257.00,1.49
7256.00,1.49
7255.00,1.49
7254.00,1.48
7253.00,1.48
7252.00,1.48
7251.00,1.48
7250.00,1.48
7249.00,1.47
7248.00,1.47
7247.00,1.47
7246.00,1.47
7245.00,1.46
7244.00,1.46
7243.00,1.46
7242.00,1.45
7241.00,1.45
7240.00,1.45
7239.00,1.44
7238.00,1.44
7237.00,1.44
7236.00,1.43
7235.00,1.43
7234.00,1.42
7233.00,1.42
7232.00,1.42
7231.00,1.41
7230.00,1.41
7229.00,1.40
7228.00,1.40
7227.00,1.39
7226.00,1.39
7225.00,1.38
7224.00,1.38
7223.00,1.37
7222.00,1.37
7221.00,1.37
7220.00,1.36
7219.00,1.36
7218.00,1.35
7217.00,1.35
7216.00,1.34
7215.00,1.34
7214.00,1.33
7213.00,1.33
7212.00,1.32
7211.00,1.31
7210.00,1.31
7209.00,1.30
7208.00,1.30
7207.00,1.29
7206.00,1.28
7205.00,1.28
7204.00,1.27
7203.00,1.27
7202.00,1.26
7201.00,1.26
7200.00,1.25
7199.00,1.25
7198.00,1.24
7197.00,1.24
7196.00,1.23
7195.00,1.23
7194.00,1.22
7193.00,1.22
7192.00,1.22
7191.00,1.21
7190.00,1.21
7189.00,1.20
7188.00,1.20
7187.00,1.20
7186.00,1.19
7185.00,1.19
7184.00,1.18
7183.00,1.18
7182.00,1.18
7181.00,1.17
7180.00,1.17
7179.00,1.17
7178.00,1.16
7177.00,1.16
7176.00,1.15
7175.00,1.15
7174.00,1.15
7173.00,1.14
7172.00,1.14
7171.00,1.13
7170.00,1.13
7169.00,1.13
7168.00,1.12
7167.00,1.12
7166.00,1.11
7165.00,1.11
7164.00,1.10
7163.00,1.10
7162.00,1.09
7161.00,1.09
7160.00,1.09
7159.00,1.08
7158.00,1.08
7157.00,1.07
7156.00,1.07
7155.00,1.06
7154.00,1.06
7153.00,1.06
7152.00,1.05
7151.00,1.05
7150.00,1.04
7149.00,1.04
7148.00,1.04
7147.00,1.03
7146.00,1.03
7145.00,1.02
7144.00,1.02
7143.00,1.02
7142.00,1.01
7141.00,1.01
7140.00,1.01
7139.00,1.00
7138.00,1.00
7137.00,1.00
7136.00,0.99
7135.00,0.99
7134.00,0.99
7133.00,0.98
7132.00,0.98
7131.00,0.98
7130.00,0.97
7129.00,0.97
7128.00,0.97
7127.00,0.96
7126.00,0.96
7125.00,0.96
7124.00,0.95
7123.00,0.95
7122.00,0.95
7121.00,0.94
7120.00,0.94
7119.00,0.94
7118.00,0.93
7117.00,0.93
7116.00,0.93
7115.00,0.92
7114.00,0.92
7113.00,0.92
7112.00,0.91
7111.00,0.91
7110.00,0.91
7109.00,0.90
7108.00,0.90
7107.00,0.90
7106.00,0.89
7105.00,0.89
7104.00,0.89
7103.00,0.88
7102.00,0.88
7101.00,0.88
7100.00,0.88
7099.00,0.87
7098.00,0.87
7097.00,0.87
7096.00,0.87
7095.00,0.86
7094.00,0.86
7093.00,0.86
7092.00,0.86
7091.00,0.86
7090.00,0.85
7089.00,0.85
7088.00,0.85
7087.00,0.85
7086.00,0.84
7085.00,0.84
7084.00,0.84
7083.00,0.84
7082.00,0.83
7081.00,0.83
7080.00,0.83
7079.00,0.83
7078.00,0.82
7077.00,0.82
7076.00,0.82
7075.00,0.81
7074.00,0.81
7073.00,0.81
7072.00,0.81
7071.00,0.80
7070.00,0.80
7069.00,0.80
7068.00,0.80
7067.00,0.79
7066.00,0.79
7065.00,0.79
7064.00,0.79
7063.00,0.78
7062.00,0.78
7061.00,0.78
7060.00,0.78
7059.00,0.78
7058.00,0.77
7057.00,0.77
7056.00,0.77
7055.00,0.77
7054.00,0.77
7053.00,0.76
7052.00,0.76
7051.00,0.76
7050.00,0.76
7049.00,0.76
7048.00,0.75
7047.00,0.75
7046.00,0.75
7045.00,0.75
7044.00,0.75
7043.00,0.75
7042.00,0.74
7041.00,0.74
7040.00,0.74
7039.00,0.74
7038.00,0.74
7037.00,0.74
7036.00,0.74
7035.00,0.73
7034.00,0.73
7033.00,0.73
7032.00,0.73
7031.00,0.73
7030.00,0.73
7029.00,0.73
7028.00,0.73
7027.00,0.72
7026.00,0.72
7025.00,0.72
7024.00,0.72
7023.00,0.72
7022.00,0.72
7021.00,0.72
7020.00,0.72
7019.00,0.72
7018.00,0.71
7017.00,0.71
7016.00,0.71
7015.00,0.71
7014.00,0.71
7013.00,0.71
7012.00,0.71
7011.00,0.70
7010.00,0.70
7009.00,0.70
7008.00,0.70
7007.00,0.70
7006.00,0.70
7005.00,0.70
7004.00,0.70
7003.00,0.70
7002.00,0.70
7001.00,0.70
7000.00,0.70
6999.00,0.70
6998.00,0.70
6997.00,0.70
6996.00,0.70
6995.00,0.70
6994.00,0.70
6993.00,0.69
6992.00,0.69
6991.00,0.69
6990.00,0.69
6989.00,0.69
6988.00,0.69
6987.00,0.69
6986.00,0.69
6985.00,0.69
6984.00,0.69
6983.00,0.69
6982.00,0.69
6981.00,0.69
6980.00,0.69
6979.00,0.69
6978.00,0.69
6977.00,0.69
6976.00,0.69
6975.00,0.69
6974.00,0.69
6973.00,0.69
6972.00,0.69
6971.00,0.69
6970.00,0.69
6969.00,0.69
6968.00,0.68
6967.00,0.68
6966.00,0.68
6965.00,0.68
6964.00,0.68
6963.00,0.68
6962.00,0.68
6961.00,0.68
6960.00,0.67
6959.00,0.67
6958.00,0.67
6957.00,0.67
6956.00,0.67
6955.00,0.67
6954.00,0.67
6953.00,0.67
6952.00,0.67
6951.00,0.67
6950.00,0.67
6949.00,0.67
6948.00,0.67
6947.00,0.67
6946.00,0.67
6945.00,0.67
6944.00,0.66
6943.00,0.66
6942.00,0.66
6941.00,0.66
6940.00,0.66
6939.00,0.66
6938.00,0.66
6937.00,0.66
6936.00,0.66
6935.00,0.66
6934.00,0.65
6933.00,0.65
6932.00,0.65
6931.00,0.65
6930.00,0.65
6929.00,0.65
6928.00,0.65
6927.00,0.65
6926.00,0.65
6925.00,0.65
6924.00,0.65
6923.00,0.65
6922.00,0.65
6921.00,0.65
6920.00,0.65
6919.00,0.65
6918.00,0.65
6917.00,0.64
6916.00,0.64
6915.00,0.64
6914.00,0.64
6913.00,0.64
6912.00,0.64
6911.00,0.64
6910.00,0.64
6909.00,0.64
6908.00,0.64
6907.00,0.64
6906.00,0.64
6905.00,0.64
6904.00,0.64
6903.00,0.64
6902.00,0.64
6901.00,0.65
6900.00,0.65
6899.00,0.65
6898.00,0.65
6897.00,0.65
6896.00,0.65
6895.00,0.65
6894.00,0.65
6893.00,0.65
6892.00,0.64
6891.00,0.64
6890.00,0.64
6889.00,0.64
6888.00,0.64
6887.00,0.64
6886.00,0.64
6885.00,0.64
6884.00,0.64
6883.00,0.64
6882.00,0.64
6881.00,0.64
6880.00,0.64
6879.00,0.64
6878.00,0.64
6877.00,0.64
6876.00,0.65
6875.00,0.65
6874.00,0.65
6873.00,0.65
6872.00,0.65
6871.00,0.65
6870.00,0.65
6869.00,0.65
6868.00,0.65
6867.00,0.65
6866.00,0.65
6865.00,0.65
6864.00,0.65
6863.00,0.65
6862.00,0.65
6861.00,0.65
6860.00,0.65
6859.00,0.65
6858.00,0.65
6857.00,0.65
6856.00,0.65
6855.00,0.65
6854.00,0.65
6853.00,0.65
6852.00,0.65
6851.00,0.65
6850.00,0.65
6849.00,0.65
6848.00,0.65
6847.00,0.65
6846.00,0.65
6845.00,0.65
6844.00,0.65
6843.00,0.65
6842.00,0.65
6841.00,0.65
6840.00,0.65
6839.00,0.65
6838.00,0.65
6837.00,0.65
6836.00,0.65
6835.00,0.65
6834.00,0.65
6833.00,0.65
6832.00,0.65
6831.00,0.65
6830.00,0.65
6829.00,0.65
6828.00,0.65
6827.00,0.65
6826.00,0.65
6825.00,0.65
6824.00,0.65
6823.00,0.66
6822.00,0.66
6821.00,0.66
6820.00,0.66
6819.00,0.66
6818.00,0.66
6817.00,0.66
6816.00,0.66
6815.00,0.66
6814.00,0.67
6813.00,0.67
6812.00,0.67
6811.00,0.67
6810.00,0.67
6809.00,0.67
6808.00,0.67
6807.00,0.67
6806.00,0.67
6805.00,0.67
6804.00,0.67
6803.00,0.67
6802.00,0.67
6801.00,0.67
6800.00,0.67
6799.00,0.67
6798.00,0.67
6797.00,0.67
6796.00,0.67
6795.00,0.67
6794.00,0.67
6793.00,0.67
6792.00,0.67
6791.00,0.68
6790.00,0.68
6789.00,0.68
6788.00,0.68
6787.00,0.68
6786.00,0.68
6785.00,0.68
6784.00,0.68
6783.00,0.68
6782.00,0.68
6781.00,0.68
6780.00,0.68
6779.00,0.68
6778.00,0.69
6777.00,0.69
6776.00,0.69
6775.00,0.69
6774.00,0.69
6773.00,0.69
6772.00,0.69
6771.00,0.69
6770.00,0.69
6769.00,0.69
6768.00,0.69
6767.00,0.69
6766.00,0.69
6765.00,0.69
6764.00,0.69
6763.00,0.69
6762.00,0.69
6761.00,0.69
6760.00,0.70
6759.00,0.70
6758.00,0.70
6757.00,0.70
6756.00,0.70
6755.00,0.70
6754.00,0.70
6753.00,0.70
6752.00,0.70
6751.00,0.70
6750.00,0.71
6749.00,0.71
6748.00,0.71
6747.00,0.71
6746.00,0.71
6745.00,0.71
6744.00,0.71
6743.00,0.71
6742.00,0.71
6741.00,0.71
6740.00,0.71
6739.00,0.71
6738.00,0.71
6737.00,0.72
6736.00,0.72
6735.00,0.72
6734.00,0.72
6733.00,0.72
6732.00,0.72
6731.00,0.72
6730.00,0.73
6729.00,0.73
6728.00,0.73
6727.00,0.73
6726.00,0.73
6725.00,0.73
6724.00,0.73
6723.00,0.73
6722.00,0.73
6721.00,0.73
6720.00,0.73
6719.00,0.73
6718.00,0.73
6717.00,0.73
6716.00,0.73
6715.00,0.74
6714.00,0.74
6713.00,0.74
6712.00,0.74
6711.00,0.74
6710.00,0.74
6709.00,0.74
6708.00,0.74
6707.00,0.74
6706.00,0.75
6705.00,0.75
6704.00,0.75
6703.00,0.75
6702.00,0.75
6701.00,0.75
6700.00,0.75
6699.00,0.76
6698.00,0.76
6697.00,0.76
6696.00,0.76
6695.00,0.76
6694.00,0.76
6693.00,0.76
6692.00,0.76
6691.00,0.76
6690.00,0.77
6689.00,0.77
6688.00,0.77
6687.00,0.77
6686.00,0.77
6685.00,0.77
6684.00,0.77
6683.00,0.77
6682.00,0.77
6681.00,0.77
6680.00,0.78
6679.00,0.78
6678.00,0.78
6677.00,0.78
6676.00,0.78
6675.00,0.78
6674.00,0.78
6673.00,0.78
6672.00,0.79
6671.00,0.79
6670.00,0.79
6669.00,0.79
6668.00,0.79
6667.00,0.79
6666.00,0.79
6665.00,0.80
6664.00,0.80
6663.00,0.80
6662.00,0.80
6661.00,0.80
6660.00,0.80
6659.00,0.80
6658.00,0.80
6657.00,0.81
6656.00,0.81
6655.00,0.81
6654.00,0.81
6653.00,0.81
6652.00,0.81
6651.00,0.81
6650.00,0.81
6649.00,0.81
6648.00,0.82
6647.00,0.82
6646.00,0.82
6645.00,0.82
6644.00,0.82
6643.00,0.82
6642.00,0.83
6641.00,0.83
6640.00,0.83
6639.00,0.83
6638.00,0.83
6637.00,0.83
6636.00,0.83
6635.00,0.84
6634.00,0.84
6633.00,0.84
6632.00,0.84
6631.00,0.84
6630.00,0.84
6629.00,0.84
6628.00,0.85
6627.00,0.85
6626.00,0.85
6625.00,0.85
6624.00,0.85
6623.00,0.85
6622.00,0.85
6621.00,0.85
6620.00,0.85
6619.00,0.86
6618.00,0.86
6617.00,0.86
6616.00,0.86
6615.00,0.86
6614.00,0.86
6613.00,0.86
6612.00,0.86
6611.00,0.86
6610.00,0.87
6609.00,0.87
6608.00,0.87
6607.00,0.87
6606.00,0.87
6605.00,0.87
6604.00,0.88
6603.00,0.88
6602.00,0.88
6601.00,0.88
6600.00,0.88
6599.00,0.88
6598.00,0.88
6597.00,0.89
6596.00,0.89
6595.00,0.89
6594.00,0.89
6593.00,0.89
6592.00,0.89
6591.00,0.89
6590.00,0.89
6589.00,0.89
6588.00,0.89
6587.00,0.90
6586.00,0.90
6585.00,0.90
6584.00,0.90
6583.00,0.90
6582.00,0.90
6581.00,0.90
6580.00,0.91
6579.00,0.91
6578.00,0.91
6577.00,0.91
6576.00,0.91
6575.00,0.91
6574.00,0.92
6573.00,0.92
6572.00,0.92
6571.00,0.92
6570.00,0.93
6569.00,0.93
6568.00,0.93
6567.00,0.93
6566.00,0.94
6565.00,0.94
6564.00,0.94
6563.00,0.94
6562.00,0.94
6561.00,0.94
6560.00,0.95
6559.00,0.95
6558.00,0.95
6557.00,0.95
6556.00,0.95
6555.00,0.95
6554.00,0.95
6553.00,0.95
6552.00,0.96
6551.00,0.96
6550.00,0.96
6549.00,0.96
6548.00,0.96
6547.00,0.96
6546.00,0.96
6545.00,0.96
6544.00,0.96
6543.00,0.97
6542.00,0.97
6541.00,0.97
6540.00,0.97
6539.00,0.97
6538.00,0.97
6537.00,0.97
6536.00,0.97
6535.00,0.97
6534.00,0.97
6533.00,0.98
6532.00,0.98
6531.00,0.98
6530.00,0.98
6529.00,0.98
6528.00,0.98
6527.00,0.98
6526.00,0.98
6525.00,0.98
6524.00,0.98
6523.00,0.98
6522.00,0.98
6521.00,0.98
6520.00,0.98
6519.00,0.98
6518.00,0.98
6517.00,0.98
6516.00,0.99
6515.00,0.99
6514.00,0.99
6513.00,0.99
6512.00,0.99
6511.00,0.99
6510.00,0.99
6509.00,0.99
6508.00,0.99
6507.00,0.99
6506.00,0.99
6505.00,0.99
6504.00,0.99
6503.00,0.99
6502.00,0.99
6501.00,0.99
6500.00,0.99
6499.00,0.99
6498.00,0.99
6497.00,1.00
6496.00,1.00
6495.00,1.00
6494.00,1.00
6493.00,1.00
6492.00,1.00
6491.00,1.00
6490.00,1.00
6489.00,1.00
6488.00,1.01
6487.00,1.01
6486.00,1.01
6485.00,1.01
6484.00,1.01
6483.00,1.01
6482.00,1.01
6481.00,1.01
6480.00,1.01
6479.00,1.02
6478.00,1.02
6477.00,1.02
6476.00,1.02
6475.00,1.02
6474.00,1.02
6473.00,1.02
6472.00,1.03
6471.00,1.03
6470.00,1.03
6469.00,1.03
6468.00,1.03
6467.00,1.03
6466.00,1.03
6465.00,1.04
6464.00,1.04
6463.00,1.04
6462.00,1.04
6461.00,1.04
6460.00,1.04
6459.00,1.04
6458.00,1.04
6457.00,1.04
6456.00,1.04
6455.00,1.04
6454.00,1.04
6453.00,1.04
6452.00,1.04
6451.00,1.05
6450.00,1.05
6449.00,1.05
6448.00,1.05
6447.00,1.05
6446.00,1.05
6445.00,1.05
6444.00,1.05
6443.00,1.05
6442.00,1.05
6441.00,1.06
6440.00,1.06
6439.00,1.06
6438.00,1.06
6437.00,1.06
6436.00,1.06
6435.00,1.06
6434.00,1.06
6433.00,1.06
6432.00,1.06
6431.00,1.06
6430.00,1.06
6429.00,1.06
6428.00,1.05
6427.00,1.05
6426.00,1.05
6425.00,1.05
6424.00,1.05
6423.00,1.06
6422.00,1.06
6421.00,1.06
6420.00,1.06
6419.00,1.06
6418.00,1.06
6417.00,1.06
6416.00,1.06
6415.00,1.06
6414.00,1.06
6413.00,1.06
6412.00,1.07
6411.00,1.07
6410.00,1.07
6409.00,1.07
6408.00,1.07
6407.00,1.07
6406.00,1.07
6405.00,1.07
6404.00,1.07
6403.00,1.08
6402.00,1.08
6401.00,1.08
6400.00,1.08
6399.00,1.08
6398.00,1.08
6397.00,1.08
6396.00,1.08
6395.00,1.09
6394.00,1.09
6393.00,1.09
6392.00,1.09
6391.00,1.09
6390.00,1.09
6389.00,1.09
6388.00,1.09
6387.00,1.09
6386.00,1.10
6385.00,1.10
6384.00,1.10
6383.00,1.10
6382.00,1.10
6381.00,1.10
6380.00,1.10
6379.00,1.10
6378.00,1.10
6377.00,1.10
6376.00,1.10
6375.00,1.10
6374.00,1.10
6373.00,1.10
6372.00,1.10
6371.00,1.10
6370.00,1.11
6369.00,1.11
6368.00,1.11
6367.00,1.11
6366.00,1.11
6365.00,1.11
6364.00,1.11
6363.00,1.11
6362.00,1.11
6361.00,1.12
6360.00,1.12
6359.00,1.12
6358.00,1.12
6357.00,1.12
6356.00,1.12
6355.00,1.12
6354.00,1.12
6353.00,1.13
6352.00,1.13
6351.00,1.13
6350.00,1.13
6349.00,1.13
6348.00,1.13
6347.00,1.13
6346.00,1.13
6345.00,1.13
6344.00,1.13
6343.00,1.13
6342.00,1.13
6341.00,1.14
6340.00,1.14
6339.00,1.14
6338.00,1.14
6337.00,1.14
6336.00,1.14
6335.00,1.14
6334.00,1.14
6333.00,1.15
6332.00,1.15
6331.00,1.15
6330.00,1.15
6329.00,1.15
6328.00,1.16
6327.00,1.16
6326.00,1.16
6325.00,1.16
6324.00,1.16
6323.00,1.16
6322.00,1.16
6321.00,1.17
6320.00,1.17
6319.00,1.17
6318.00,1.17
6317.00,1.17
6316.00,1.17
6315.00,1.17
6314.00,1.17
6313.00,1.17
6312.00,1.17
6311.00,1.18
6310.00,1.18
6309.00,1.18
6308.00,1.18
6307.00,1.18
6306.00,1.18
6305.00,1.18
6304.00,1.19
6303.00,1.19
6302.00,1.19
6301.00,1.19
6300.00,1.19
6299.00,1.19
6298.00,1.20
6297.00,1.20
6296.00,1.20
6295.00,1.20
6294.00,1.20
6293.00,1.21
6292.00,1.21
6291.00,1.21
6290.00,1.21
6289.00,1.21
6288.00,1.21
6287.00,1.21
6286.00,1.22
6285.00,1.22
6284.00,1.22
6283.00,1.22
6282.00,1.22
6281.00,1.22
6280.00,1.22
6279.00,1.22
6278.00,1.23
6277.00,1.23
6276.00,1.23
6275.00,1.23
6274.00,1.23
6273.00,1.23
6272.00,1.23
6271.00,1.23
6270.00,1.24
6269.00,1.24
6268.00,1.24
6267.00,1.24
6266.00,1.24
6265.00,1.24
6264.00,1.25
6263.00,1.25
6262.00,1.25
6261.00,1.25
6260.00,1.25
6259.00,1.25
6258.00,1.25
6257.00,1.26
6256.00,1.26
6255.00,1.26
6254.00,1.26
6253.00,1.26
6252.00,1.26
6251.00,1.26
6250.00,1.27
6249.00,1.27
6248.00,1.27
6247.00,1.27
6246.00,1.27
6245.00,1.28
6244.00,1.28
6243.00,1.28
6242.00,1.28
6241.00,1.28
6240.00,1.29
6239.00,1.29
6238.00,1.29
6237.00,1.29
6236.00,1.30
6235.00,1.30
6234.00,1.30
6233.00,1.30
6232.00,1.30
6231.00,1.30
6230.00,1.30
6229.00,1.31
6228.00,1.31
6227.00,1.31
6226.00,1.31
6225.00,1.31
6224.00,1.31
6223.00,1.31
6222.00,1.31
6221.00,1.31
6220.00,1.32
6219.00,1.32
6218.00,1.32
6217.00,1.32
6216.00,1.32
6215.00,1.32
6214.00,1.32
6213.00,1.33
6212.00,1.33
6211.00,1.33
6210.00,1.33
6209.00,1.33
6208.00,1.34
6207.00,1.34
6206.00,1.34
6205.00,1.34
6204.00,1.34
6203.00,1.35
6202.00,1.35
6201.00,1.35
6200.00,1.35
6199.00,1.35
6198.00,1.36
6197.00,1.36
6196.00,1.36
6195.00,1.36
6194.00,1.36
6193.00,1.36
6192.00,1.37
6191.00,1.37
6190.00,1.37
6189.00,1.37
6188.00,1.37
6187.00,1.38
6186.00,1.38
6185.00,1.38
6184.00,1.38
6183.00,1.38
6182.00,1.38
6181.00,1.39
6180.00,1.39
6179.00,1.39
6178.00,1.39
6177.00,1.39
6176.00,1.39
6175.00,1.40
6174.00,1.40
6173.00,1.40
6172.00,1.40
6171.00,1.40
6170.00,1.40
6169.00,1.41
6168.00,1.41
6167.00,1.41
6166.00,1.41
6165.00,1.41
6164.00,1.42
6163.00,1.42
6162.00,1.42
6161.00,1.42
6160.00,1.43
6159.00,1.43
6158.00,1.43
6157.00,1.43
6156.00,1.43
6155.00,1.44
6154.00,1.44
6153.00,1.44
6152.00,1.44
6151.00,1.44
6150.00,1.45
6149.00,1.45
6148.00,1.45
6147.00,1.45
6146.00,1.45
6145.00,1.46
6144.00,1.46
6143.00,1.46
6142.00,1.46
6141.00,1.46
6140.00,1.47
6139.00,1.47
6138.00,1.47
6137.00,1.47
6136.00,1.47
6135.00,1.48
6134.00,1.48
6133.00,1.48
6132.00,1.48
6131.00,1.48
6130.00,1.48
6129.00,1.49
6128.00,1.49
6127.00,1.49
6126.00,1.49
6125.00,1.49
6124.00,1.49
6123.00,1.50
6122.00,1.50
6121.00,1.50
6120.00,1.50
6119.00,1.50
6118.00,1.50
6117.00,1.51
6116.00,1.51
6115.00,1.51
6114.00,1.51
6113.00,1.51
6112.00,1.51
6111.00,1.51
6110.00,1.52
6109.00,1.52
6108.00,1.52
6107.00,1.52
6106.00,1.52
6105.00,1.52
6104.00,1.52
6103.00,1.52
6102.00,1.53
6101.00,1.53
6100.00,1.53
6099.00,1.53
6098.00,1.53
6097.00,1.53
6096.00,1.54
6095.00,1.54
6094.00,1.54
6093.00,1.54
6092.00,1.54
6091.00,1.55
6090.00,1.55
6089.00,1.55
6088.00,1.55
6087.00,1.55
6086.00,1.56
6085.00,1.56
6084.00,1.56
6083.00,1.56
6082.00,1.56
6081.00,1.56
6080.00,1.57
6079.00,1.57
6078.00,1.57
6077.00,1.57
6076.00,1.57
6075.00,1.57
6074.00,1.58
6073.00,1.58
6072.00,1.58
6071.00,1.58
6070.00,1.58
6069.00,1.58
6068.00,1.59
6067.00,1.59
6066.00,1.59
6065.00,1.59
6064.00,1.59
6063.00,1.59
6062.00,1.59
6061.00,1.59
6060.00,1.60
6059.00,1.60
6058.00,1.60
6057.00,1.60
6056.00,1.60
6055.00,1.60
6054.00,1.60
6053.00,1.60
6052.00,1.60
6051.00,1.60
6050.00,1.61
6049.00,1.61
6048.00,1.61
6047.00,1.61
6046.00,1.61
6045.00,1.61
6044.00,1.61
6043.00,1.62
6042.00,1.62
6041.00,1.62
6040.00,1.62
6039.00,1.62
6038.00,1.62
6037.00,1.62
6036.00,1.62
6035.00,1.62
6034.00,1.62
6033.00,1.63
6032.00,1.63
6031.00,1.63
6030.00,1.63
6029.00,1.63
6028.00,1.63
6027.00,1.63
6026.00,1.63
6025.00,1.63
6024.00,1.63
6023.00,1.63
6022.00,1.63
6021.00,1.63
6020.00,1.63
6019.00,1.63
6018.00,1.63
6017.00,1.63
6016.00,1.63
6015.00,1.63
6014.00,1.63
6013.00,1.63
6012.00,1.63
6011.00,1.63
6010.00,1.63
6009.00,1.63
6008.00,1.63
6007.00,1.63
6006.00,1.63
6005.00,1.63
6004.00,1.63
6003.00,1.63
6002.00,1.62
6001.00,1.62
6000.00,1.62
5999.00,1.62
5998.00,1.62
5997.00,1.62
5996.00,1.62
5995.00,1.61
5994.00,1.61
5993.00,1.61
5992.00,1.61
5991.00,1.61
5990.00,1.60
5989.00,1.60
5988.00,1.60
5987.00,1.60
5986.00,1.59
5985.00,1.59
5984.00,1.59
5983.00,1.58
5982.00,1.58
5981.00,1.58
5980.00,1.57
5979.00,1.57
5978.00,1.56
5977.00,1.56
5976.00,1.55
5975.00,1.55
5974.00,1.54
5973.00,1.53
5972.00,1.53
5971.00,1.52
5970.00,1.51
5969.00,1.50
5968.00,1.49
5967.00,1.49
5966.00,1.48
5965.00,1.47
5964.00,1.46
5963.00,1.45
5962.00,1.44
5961.00,1.43
5960.00,1.42
5959.00,1.41
5958.00,1.40
5957.00,1.39
5956.00,1.38
5955.00,1.38
5954.00,1.37
5953.00,1.36
5952.00,1.35
5951.00,1.35
5950.00,1.34
5949.00,1.33
5948.00,1.33
5947.00,1.32
5946.00,1.32
5945.00,1.31
5944.00,1.31
5943.00,1.30
5942.00,1.30
5941.00,1.30
5940.00,1.30
5939.00,1.29
5938.00,1.29
5937.00,1.29
5936.00,1.29
5935.00,1.29
5934.00,1.29
5933.00,1.28
5932.00,1.28
5931.00,1.28
5930.00,1.28
5929.00,1.28
5928.00,1.28
5927.00,1.28
5926.00,1.27
5925.00,1.27
5924.00,1.27
5923.00,1.27
5922.00,1.26
5921.00,1.26
5920.00,1.26
5919.00,1.25
5918.00,1.25
5917.00,1.25
5916.00,1.24
5915.00,1.24
5914.00,1.24
5913.00,1.23
5912.00,1.23
5911.00,1.23
5910.00,1.23
5909.00,1.22
5908.00,1.22
5907.00,1.22
5906.00,1.22
5905.00,1.22
5904.00,1.22
5903.00,1.22
5902.00,1.22
5901.00,1.22
5900.00,1.22
5899.00,1.22
5898.00,1.22
5897.00,1.22
5896.00,1.22
5895.00,1.22
5894.00,1.23
5893.00,1.23
5892.00,1.23
5891.00,1.23
5890.00,1.24
5889.00,1.24
5888.00,1.24
5887.00,1.25
5886.00,1.25
5885.00,1.25
5884.00,1.26
5883.00,1.26
5882.00,1.27
5881.00,1.27
5880.00,1.27
5879.00,1.28
5878.00,1.28
5877.00,1.28
5876.00,1.29
5875.00,1.29
5874.00,1.29
5873.00,1.30
5872.00,1.30
5871.00,1.30
5870.00,1.31
5869.00,1.31
5868.00,1.31
5867.00,1.32
5866.00,1.32
5865.00,1.32
5864.00,1.33
5863.00,1.33
5862.00,1.33
5861.00,1.33
5860.00,1.34
5859.00,1.34
5858.00,1.34
5857.00,1.34
5856.00,1.34
5855.00,1.35
5854.00,1.35
5853.00,1.35
5852.00,1.35
5851.00,1.35
5850.00,1.35
5849.00,1.35
5848.00,1.36
5847.00,1.36
5846.00,1.36
5845.00,1.36
5844.00,1.36
5843.00,1.36
5842.00,1.36
5841.00,1.36
5840.00,1.36
5839.00,1.36
5838.00,1.36
5837.00,1.36
5836.00,1.36
5835.00,1.36
5834.00,1.36
5833.00,1.35
5832.00,1.35
5831.00,1.35
5830.00,1.35
5829.00,1.35
5828.00,1.35
5827.00,1.35
5826.00,1.35
5825.00,1.35
5824.00,1.35
5823.00,1.35
5822.00,1.35
5821.00,1.35
5820.00,1.35
5819.00,1.35
5818.00,1.36
5817.00,1.36
5816.00,1.36
5815.00,1.36
5814.00,1.36
5813.00,1.36
5812.00,1.36
5811.00,1.36
5810.00,1.36
5809.00,1.36
5808.00,1.36
5807.00,1.36
5806.00,1.36
5805.00,1.36
5804.00,1.35
5803.00,1.35
5802.00,1.35
5801.00,1.35
5800.00,1.35
5799.00,1.35
5798.00,1.34
5797.00,1.34
5796.00,1.34
5795.00,1.33
5794.00,1.33
5793.00,1.33
5792.00,1.32
5791.00,1.32
5790.00,1.31
5789.00,1.31
5788.00,1.31
5787.00,1.30
5786.00,1.30
5785.00,1.30
5784.00,1.29
5783.00,1.29
5782.00,1.29
5781.00,1.28
5780.00,1.28
5779.00,1.28
5778.00,1.28
5777.00,1.27
5776.00,1.27
5775.00,1.27
5774.00,1.27
5773.00,1.27
5772.00,1.27
5771.00,1.27
5770.00,1.27
5769.00,1.27
5768.00,1.27
5767.00,1.28
5766.00,1.28
5765.00,1.28
5764.00,1.29
5763.00,1.29
5762.00,1.29
5761.00,1.30
5760.00,1.30
5759.00,1.30
5758.00,1.31
5757.00,1.31
5756.00,1.32
5755.00,1.32
5754.00,1.32
5753.00,1.33
5752.00,1.33
5751.00,1.34
5750.00,1.34
5749.00,1.34
5748.00,1.35
5747.00,1.35
5746.00,1.36
5745.00,1.36
5744.00,1.36
5743.00,1.37
5742.00,1.37
5741.00,1.37
5740.00,1.37
5739.00,1.38
5738.00,1.38
5737.00,1.38
5736.00,1.39
5735.00,1.39
5734.00,1.39
5733.00,1.39
5732.00,1.39
5731.00,1.40
5730.00,1.40
5729.00,1.40
5728.00,1.40
5727.00,1.40
5726.00,1.40
5725.00,1.40
5724.00,1.41
5723.00,1.41
5722.00,1.41
5721.00,1.41
5720.00,1.41
5719.00,1.41
5718.00,1.41
5717.00,1.41
5716.00,1.41
5715.00,1.41
5714.00,1.41
5713.00,1.41
5712.00,1.41
5711.00,1.41
5710.00,1.41
5709.00,1.41
5708.00,1.41
5707.00,1.41
5706.00,1.41
5705.00,1.41
5704.00,1.41
5703.00,1.40
5702.00,1.40
5701.00,1.40
5700.00,1.40
5699.00,1.40
5698.00,1.39
5697.00,1.39
5696.00,1.39
5695.00,1.39
5694.00,1.39
5693.00,1.38
5692.00,1.38
5691.00,1.38
5690.00,1.38
5689.00,1.38
5688.00,1.37
5687.00,1.37
5686.00,1.37
5685.00,1.37
5684.00,1.37
5683.00,1.37
5682.00,1.36
5681.00,1.36
5680.00,1.36
5679.00,1.36
5678.00,1.36
5677.00,1.36
5676.00,1.36
5675.00,1.36
5674.00,1.36
5673.00,1.36
5672.00,1.36
5671.00,1.36
5670.00,1.36
5669.00,1.36
5668.00,1.36
5667.00,1.36
5666.00,1.36
5665.00,1.36
5664.00,1.36
5663.00,1.36
5662.00,1.37
5661.00,1.37
5660.00,1.37
5659.00,1.37
5658.00,1.37
5657.00,1.37
5656.00,1.38
5655.00,1.38
5654.00,1.38
5653.00,1.38
5652.00,1.39
5651.00,1.39
5650.00,1.39
5649.00,1.39
5648.00,1.39
5647.00,1.40
5646.00,1.40
5645.00,1.40
5644.00,1.40
5643.00,1.41
5642.00,1.41
5641.00,1.41
5640.00,1.42
5639.00,1.42
5638.00,1.42
5637.00,1.42
5636.00,1.43
5635.00,1.43
5634.00,1.43
5633.00,1.43
5632.00,1.44
5631.00,1.44
5630.00,1.44
5629.00,1.44
5628.00,1.45
5627.00,1.45
5626.00,1.45
5625.00,1.45
5624.00,1.46
5623.00,1.46
5622.00,1.46
5621.00,1.46
5620.00,1.47
5619.00,1.47
5618.00,1.47
5617.00,1.47
5616.00,1.47
5615.00,1.48
5614.00,1.48
5613.00,1.48
5612.00,1.48
5611.00,1.48
5610.00,1.48
5609.00,1.49
5608.00,1.49
5607.00,1.49
5606.00,1.49
5605.00,1.49
5604.00,1.49
5603.00,1.50
5602.00,1.50
5601.00,1.50
5600.00,1.50
5599.00,1.51
5598.00,1.51
5597.00,1.51
5596.00,1.51
5595.00,1.52
5594.00,1.52
5593.00,1.52
5592.00,1.52
5591.00,1.53
5590.00,1.53
5589.00,1.53
5588.00,1.53
5587.00,1.53
5586.00,1.54
5585.00,1.54
5584.00,1.54
5583.00,1.54
5582.00,1.54
5581.00,1.54
5580.00,1.55
5579.00,1.55
5578.00,1.55
5577.00,1.55
5576.00,1.55
5575.00,1.55
5574.00,1.55
5573.00,1.55
5572.00,1.55
5571.00,1.56
5570.00,1.56
5569.00,1.56
5568.00,1.56
5567.00,1.56
5566.00,1.56
5565.00,1.56
5564.00,1.57
5563.00,1.57
5562.00,1.57
5561.00,1.57
5560.00,1.57
5559.00,1.57
5558.00,1.58
5557.00,1.58
5556.00,1.58
5555.00,1.58
5554.00,1.58
5553.00,1.58
5552.00,1.59
5551.00,1.59
5550.00,1.59
5549.00,1.59
5548.00,1.59
5547.00,1.59
5546.00,1.60
5545.00,1.60
5544.00,1.60
5543.00,1.60
5542.00,1.60
5541.00,1.60
5540.00,1.61
5539.00,1.61
5538.00,1.61
5537.00,1.61
5536.00,1.61
5535.00,1.62
5534.00,1.62
5533.00,1.62
5532.00,1.62
5531.00,1.62
5530.00,1.63
5529.00,1.63
5528.00,1.63
5527.00,1.63
5526.00,1.63
5525.00,1.63
5524.00,1.63
5523.00,1.63
5522.00,1.63
5521.00,1.64
5520.00,1.64
5519.00,1.64
5518.00,1.64
5517.00,1.64
5516.00,1.64
5515.00,1.64
5514.00,1.64
5513.00,1.64
5512.00,1.64
5511.00,1.64
5510.00,1.64
5509.00,1.65
5508.00,1.65
5507.00,1.65
5506.00,1.65
5505.00,1.65
5504.00,1.65
5503.00,1.65
5502.00,1.65
5501.00,1.65
5500.00,1.66
5499.00,1.66
5498.00,1.66
5497.00,1.66
5496.00,1.66
5495.00,1.66
5494.00,1.66
5493.00,1.67
5492.00,1.67
5491.00,1.67
5490.00,1.67
5489.00,1.67
5488.00,1.67
5487.00,1.68
5486.00,1.68
5485.00,1.68
5484.00,1.68
5483.00,1.68
5482.00,1.68
5481.00,1.69
5480.00,1.69
5479.00,1.69
5478.00,1.69
5477.00,1.69
5476.00,1.69
5475.00,1.69
5474.00,1.70
5473.00,1.70
5472.00,1.70
5471.00,1.70
5470.00,1.70
5469.00,1.70
5468.00,1.71
5467.00,1.71
5466.00,1.71
5465.00,1.71
5464.00,1.71
5463.00,1.72
5462.00,1.72
5461.00,1.72
5460.00,1.72
5459.00,1.72
5458.00,1.72
5457.00,1.72
5456.00,1.72
5455.00,1.73
5454.00,1.73
5453.00,1.73
5452.00,1.73
5451.00,1.73
5450.00,1.73
5449.00,1.73
5448.00,1.73
5447.00,1.73
5446.00,1.73
5445.00,1.73
5444.00,1.73
5443.00,1.73
5442.00,1.73
5441.00,1.73
5440.00,1.73
5439.00,1.73
5438.00,1.73
5437.00,1.73
5436.00,1.73
5435.00,1.73
5434.00,1.73
5433.00,1.73
5432.00,1.73
5431.00,1.73
5430.00,1.73
5429.00,1.73
5428.00,1.73
5427.00,1.73
5426.00,1.73
5425.00,1.73
5424.00,1.73
5423.00,1.73
5422.00,1.73
5421.00,1.73
5420.00,1.73
5419.00,1.73
5418.00,1.73
5417.00,1.73
5416.00,1.73
5415.00,1.73
5414.00,1.73
5413.00,1.73
5412.00,1.73
5411.00,1.73
5410.00,1.73
5409.00,1.73
5408.00,1.73
5407.00,1.73
5406.00,1.73
5405.00,1.73
5404.00,1.73
5403.00,1.73
5402.00,1.73
5401.00,1.73
5400.00,1.73
5399.00,1.73
5398.00,1.73
5397.00,1.72
5396.00,1.72
5395.00,1.72
5394.00,1.72
5393.00,1.72
5392.00,1.71
5391.00,1.71
5390.00,1.71
5389.00,1.70
5388.00,1.70
5387.00,1.70
5386.00,1.69
5385.00,1.69
5384.00,1.69
5383.00,1.68
5382.00,1.68
5381.00,1.67
5380.00,1.67
5379.00,1.66
5378.00,1.66
5377.00,1.65
5376.00,1.65
5375.00,1.64
5374.00,1.64
5373.00,1.63
5372.00,1.63
5371.00,1.62
5370.00,1.61
5369.00,1.61
5368.00,1.60
5367.00,1.59
5366.00,1.59
5365.00,1.58
5364.00,1.57
5363.00,1.56
5362.00,1.55
5361.00,1.54
5360.00,1.54
5359.00,1.53
5358.00,1.52
5357.00,1.51
5356.00,1.50
5355.00,1.49
5354.00,1.48
5353.00,1.47
5352.00,1.46
5351.00,1.45
5350.00,1.44
5349.00,1.42
5348.00,1.41
5347.00,1.40
5346.00,1.39
5345.00,1.37
5344.00,1.36
5343.00,1.35
5342.00,1.33
5341.00,1.32
5340.00,1.30
5339.00,1.29
5338.00,1.27
5337.00,1.26
5336.00,1.24
5335.00,1.23
5334.00,1.21
5333.00,1.20
5332.00,1.18
5331.00,1.17
5330.00,1.15
5329.00,1.14
5328.00,1.12
5327.00,1.11
5326.00,1.09
5325.00,1.08
5324.00,1.06
5323.00,1.05
5322.00,1.03
5321.00,1.02
5320.00,1.00
5319.00,0.99
5318.00,0.98
5317.00,0.96
5316.00,0.95
5315.00,0.94
5314.00,0.92
5313.00,0.91
5312.00,0.90
5311.00,0.89
5310.00,0.88
5309.00,0.87
5308.00,0.86
5307.00,0.85
5306.00,0.84
5305.00,0.83
5304.00,0.82
5303.00,0.81
5302.00,0.80
5301.00,0.79
5300.00,0.79
5299.00,0.78
5298.00,0.78
5297.00,0.77
5296.00,0.76
5295.00,0.76
5294.00,0.76
5293.00,0.75
5292.00,0.75
5291.00,0.74
5290.00,0.74
5289.00,0.74
5288.00,0.73
5287.00,0.73
5286.00,0.73
5285.00,0.73
5284.00,0.72
5283.00,0.72
5282.00,0.72
5281.00,0.72
5280.00,0.71
5279.00,0.71
5278.00,0.71
5277.00,0.71
5276.00,0.71
5275.00,0.71
5274.00,0.70
5273.00,0.70
5272.00,0.70
5271.00,0.70
5270.00,0.70
5269.00,0.70
5268.00,0.70
5267.00,0.70
5266.00,0.70
5265.00,0.70
5264.00,0.70
5263.00,0.70
5262.00,0.70
5261.00,0.70
5260.00,0.70
5259.00,0.70
5258.00,0.70
5257.00,0.70
5256.00,0.70
5255.00,0.70
5254.00,0.70
5253.00,0.70
5252.00,0.70
5251.00,0.70
5250.00,0.70
5249.00,0.70
5248.00,0.70
5247.00,0.70
5246.00,0.70
5245.00,0.70
5244.00,0.70
5243.00,0.70
5242.00,0.70
5241.00,0.70
5240.00,0.70
5239.00,0.70
5238.00,0.70
5237.00,0.71
5236.00,0.71
5235.00,0.71
5234.00,0.71
5233.00,0.71
5232.00,0.71
5231.00,0.71
5230.00,0.71
5229.00,0.71
5228.00,0.71
5227.00,0.71
5226.00,0.71
5225.00,0.71
5224.00,0.71
5223.00,0.71
5222.00,0.71
5221.00,0.71
5220.00,0.72
5219.00,0.72
5218.00,0.72
5217.00,0.72
5216.00,0.72
5215.00,0.71
5214.00,0.71
5213.00,0.71
5212.00,0.71
5211.00,0.71
5210.00,0.71
5209.00,0.71
5208.00,0.71
5207.00,0.71
5206.00,0.71
5205.00,0.71
5204.00,0.71
5203.00,0.72
5202.00,0.72
5201.00,0.72
5200.00,0.72
5199.00,0.72
5198.00,0.72
5197.00,0.72
5196.00,0.72
5195.00,0.72
5194.00,0.72
5193.00,0.73
5192.00,0.73
5191.00,0.73
5190.00,0.73
5189.00,0.73
5188.00,0.73
5187.00,0.73
5186.00,0.73
5185.00,0.73
5184.00,0.73
5183.00,0.73
5182.00,0.73
5181.00,0.73
5180.00,0.73
5179.00,0.73
5178.00,0.73
5177.00,0.73
5176.00,0.73
5175.00,0.73
5174.00,0.73
5173.00,0.73
5172.00,0.73
5171.00,0.73
5170.00,0.73
5169.00,0.73
5168.00,0.73
5167.00,0.73
5166.00,0.73
5165.00,0.74
5164.00,0.74
5163.00,0.74
5162.00,0.74
5161.00,0.74
5160.00,0.74
5159.00,0.74
5158.00,0.74
5157.00,0.74
5156.00,0.74
5155.00,0.74
5154.00,0.74
5153.00,0.74
5152.00,0.74
5151.00,0.74
5150.00,0.75
5149.00,0.75
5148.00,0.75
5147.00,0.75
5146.00,0.75
5145.00,0.75
5144.00,0.75
5143.00,0.75
5142.00,0.75
5141.00,0.75
5140.00,0.75
5139.00,0.75
5138.00,0.75
5137.00,0.75
5136.00,0.75
5135.00,0.75
5134.00,0.75
5133.00,0.75
5132.00,0.75
5131.00,0.75
5130.00,0.75
5129.00,0.76
5128.00,0.76
5127.00,0.76
5126.00,0.76
5125.00,0.76
5124.00,0.76
5123.00,0.76
5122.00,0.76
5121.00,0.76
5120.00,0.76
5119.00,0.76
5118.00,0.76
5117.00,0.76
5116.00,0.76
5115.00,0.76
5114.00,0.76
5113.00,0.76
5112.00,0.76
5111.00,0.76
5110.00,0.76
5109.00,0.76
5108.00,0.76
5107.00,0.76
5106.00,0.77
5105.00,0.77
5104.00,0.77
5103.00,0.77
5102.00,0.77
5101.00,0.77
5100.00,0.77
5099.00,0.77
5098.00,0.77
5097.00,0.77
5096.00,0.78
5095.00,0.78
5094.00,0.78
5093.00,0.78
5092.00,0.78
5091.00,0.78
5090.00,0.78
5089.00,0.79
5088.00,0.79
5087.00,0.79
5086.00,0.79
5085.00,0.79
5084.00,0.79
5083.00,0.79
5082.00,0.79
5081.00,0.80
5080.00,0.80
5079.00,0.80
5078.00,0.80
5077.00,0.80
5076.00,0.80
5075.00,0.80
5074.00,0.80
5073.00,0.80
5072.00,0.80
5071.00,0.80
5070.00,0.80
5069.00,0.80
5068.00,0.80
5067.00,0.81
5066.00,0.81
5065.00,0.81
5064.00,0.81
5063.00,0.81
5062.00,0.81
5061.00,0.81
5060.00,0.81
5059.00,0.81
5058.00,0.81
5057.00,0.81
5056.00,0.81
5055.00,0.81
5054.00,0.82
5053.00,0.82
5052.00,0.82
5051.00,0.82
5050.00,0.82
5049.00,0.82
5048.00,0.82
5047.00,0.82
5046.00,0.82
5045.00,0.82
5044.00,0.82
5043.00,0.82
5042.00,0.82
5041.00,0.82
5040.00,0.82
5039.00,0.82
5038.00,0.82
5037.00,0.83
5036.00,0.83
5035.00,0.83
5034.00,0.83
5033.00,0.83
5032.00,0.83
5031.00,0.83
5030.00,0.83
5029.00,0.84
5028.00,0.84
5027.00,0.84
5026.00,0.84
5025.00,0.84
5024.00,0.84
5023.00,0.85
5022.00,0.85
5021.00,0.85
5020.00,0.85
5019.00,0.85
5018.00,0.85
5017.00,0.85
5016.00,0.85
5015.00,0.85
5014.00,0.86
5013.00,0.86
5012.00,0.86
5011.00,0.86
5010.00,0.86
5009.00,0.86
5008.00,0.86
5007.00,0.86
5006.00,0.86
5005.00,0.86
5004.00,0.86
5003.00,0.86
5002.00,0.86
5001.00,0.86
5000.00,0.86
4999.00,0.87
4998.00,0.87
4997.00,0.87
4996.00,0.87
4995.00,0.87
4994.00,0.87
4993.00,0.87
4992.00,0.88
4991.00,0.88
4990.00,0.88
4989.00,0.88
4988.00,0.88
4987.00,0.88
4986.00,0.88
4985.00,0.88
4984.00,0.89
4983.00,0.89
4982.00,0.89
4981.00,0.89
4980.00,0.89
4979.00,0.89
4978.00,0.89
4977.00,0.89
4976.00,0.89
4975.00,0.89
4974.00,0.90
4973.00,0.90
4972.00,0.90
4971.00,0.90
4970.00,0.90
4969.00,0.90
4968.00,0.90
4967.00,0.90
4966.00,0.91
4965.00,0.91
4964.00,0.91
4963.00,0.91
4962.00,0.91
4961.00,0.91
4960.00,0.91
4959.00,0.91
4958.00,0.92
4957.00,0.92
4956.00,0.92
4955.00,0.92
4954.00,0.92
4953.00,0.92
4952.00,0.92
4951.00,0.92
4950.00,0.92
4949.00,0.92
4948.00,0.92
4947.00,0.93
4946.00,0.93
4945.00,0.93
4944.00,0.93
4943.00,0.93
4942.00,0.93
4941.00,0.93
4940.00,0.93
4939.00,0.93
4938.00,0.93
4937.00,0.94
4936.00,0.94
4935.00,0.94
4934.00,0.94
4933.00,0.94
4932.00,0.94
4931.00,0.94
4930.00,0.94
4929.00,0.94
4928.00,0.94
4927.00,0.95
4926.00,0.95
4925.00,0.95
4924.00,0.95
4923.00,0.95
4922.00,0.95
4921.00,0.95
4920.00,0.95
4919.00,0.95
4918.00,0.95
4917.00,0.95
4916.00,0.95
4915.00,0.95
4914.00,0.95
4913.00,0.96
4912.00,0.96
4911.00,0.96
4910.00,0.96
4909.00,0.96
4908.00,0.96
4907.00,0.97
4906.00,0.97
4905.00,0.97
4904.00,0.97
4903.00,0.97
4902.00,0.97
4901.00,0.98
4900.00,0.98
4899.00,0.98
4898.00,0.98
4897.00,0.98
4896.00,0.98
4895.00,0.98
4894.00,0.98
4893.00,0.98
4892.00,0.98
4891.00,0.98
4890.00,0.98
4889.00,0.98
4888.00,0.99
4887.00,0.99
4886.00,0.99
4885.00,0.99
4884.00,0.99
4883.00,0.99
4882.00,0.99
4881.00,0.99
4880.00,0.99
4879.00,1.00
4878.00,1.00
4877.00,1.00
4876.00,1.00
4875.00,1.00
4874.00,1.00
4873.00,1.00
4872.00,1.01
4871.00,1.01
4870.00,1.01
4869.00,1.01
4868.00,1.01
4867.00,1.01
4866.00,1.01
4865.00,1.01
4864.00,1.01
4863.00,1.01
4862.00,1.02
4861.00,1.02
4860.00,1.02
4859.00,1.02
4858.00,1.02
4857.00,1.02
4856.00,1.02
4855.00,1.02
4854.00,1.02
4853.00,1.02
4852.00,1.02
4851.00,1.02
4850.00,1.02
4849.00,1.02
4848.00,1.02
4847.00,1.02
4846.00,1.02
4845.00,1.02
4844.00,1.02
4843.00,1.03
4842.00,1.03
4841.00,1.03
4840.00,1.03
4839.00,1.03
4838.00,1.03
4837.00,1.04
4836.00,1.04
4835.00,1.04
4834.00,1.04
4833.00,1.04
4832.00,1.05
4831.00,1.05
4830.00,1.05
4829.00,1.05
4828.00,1.05
4827.00,1.05
4826.00,1.06
4825.00,1.06
4824.00,1.06
4823.00,1.06
4822.00,1.06
4821.00,1.06
4820.00,1.07
4819.00,1.07
4818.00,1.07
4817.00,1.07
4816.00,1.07
4815.00,1.07
4814.00,1.08
4813.00,1.08
4812.00,1.08
4811.00,1.08
4810.00,1.08
4809.00,1.08
4808.00,1.09
4807.00,1.09
4806.00,1.09
4805.00,1.09
4804.00,1.09
4803.00,1.09
4802.00,1.10
4801.00,1.10
4800.00,1.10
4799.00,1.10
4798.00,1.10
4797.00,1.10
4796.00,1.11
4795.00,1.11
4794.00,1.11
4793.00,1.11
4792.00,1.11
4791.00,1.12
4790.00,1.12
4789.00,1.12
4788.00,1.12
4787.00,1.12
4786.00,1.13
4785.00,1.13
4784.00,1.13
4783.00,1.13
4782.00,1.13
4781.00,1.14
4780.00,1.14
4779.00,1.14
4778.00,1.14
4777.00,1.14
4776.00,1.14
4775.00,1.15
4774.00,1.15
4773.00,1.15
4772.00,1.15
4771.00,1.15
4770.00,1.15
4769.00,1.15
4768.00,1.15
4767.00,1.15
4766.00,1.15
4765.00,1.16
4764.00,1.16
4763.00,1.16
4762.00,1.16
4761.00,1.16
4760.00,1.16
4759.00,1.16
4758.00,1.17
4757.00,1.17
4756.00,1.17
4755.00,1.17
4754.00,1.17
4753.00,1.18
4752.00,1.18
4751.00,1.18
4750.00,1.19
4749.00,1.19
4748.00,1.19
4747.00,1.19
4746.00,1.20
4745.00,1.20
4744.00,1.20
4743.00,1.21
4742.00,1.21
4741.00,1.21
4740.00,1.22
4739.00,1.22
4738.00,1.23
4737.00,1.23
4736.00,1.23
4735.00,1.24
4734.00,1.24
4733.00,1.25
4732.00,1.25
4731.00,1.25
4730.00,1.26
4729.00,1.26
4728.00,1.27
4727.00,1.27
4726.00,1.27
4725.00,1.28
4724.00,1.28
4723.00,1.28
4722.00,1.29
4721.00,1.29
4720.00,1.29
4719.00,1.29
4718.00,1.29
4717.00,1.30
4716.00,1.30
4715.00,1.30
4714.00,1.30
4713.00,1.30
4712.00,1.31
4711.00,1.31
4710.00,1.31
4709.00,1.31
4708.00,1.31
4707.00,1.32
4706.00,1.32
4705.00,1.32
4704.00,1.33
4703.00,1.33
4702.00,1.33
4701.00,1.33
4700.00,1.34
4699.00,1.34
4698.00,1.34
4697.00,1.35
4696.00,1.35
4695.00,1.36
4694.00,1.36
4693.00,1.36
4692.00,1.37
4691.00,1.37
4690.00,1.37
4689.00,1.37
4688.00,1.38
4687.00,1.38
4686.00,1.38
4685.00,1.39
4684.00,1.39
4683.00,1.39
4682.00,1.40
4681.00,1.40
4680.00,1.40
4679.00,1.40
4678.00,1.41
4677.00,1.41
4676.00,1.41
4675.00,1.41
4674.00,1.42
4673.00,1.42
4672.00,1.42
4671.00,1.42
4670.00,1.43
4669.00,1.43
4668.00,1.43
4667.00,1.43
4666.00,1.43
4665.00,1.44
4664.00,1.44
4663.00,1.44
4662.00,1.44
4661.00,1.44
4660.00,1.45
4659.00,1.45
4658.00,1.45
4657.00,1.45
4656.00,1.45
4655.00,1.45
4654.00,1.46
4653.00,1.46
4652.00,1.46
4651.00,1.46
4650.00,1.46
4649.00,1.46
4648.00,1.47
4647.00,1.47
4646.00,1.47
4645.00,1.47
4644.00,1.47
4643.00,1.48
4642.00,1.48
4641.00,1.48
4640.00,1.48
4639.00,1.49
4638.00,1.49
4637.00,1.49
4636.00,1.49
4635.00,1.49
4634.00,1.50
4633.00,1.50
4632.00,1.50
4631.00,1.50
4630.00,1.50
4629.00,1.51
4628.00,1.51
4627.00,1.51
4626.00,1.51
4625.00,1.51
4624.00,1.51
4623.00,1.52
4622.00,1.52
4621.00,1.52
4620.00,1.52
4619.00,1.52
4618.00,1.53
4617.00,1.53
4616.00,1.53
4615.00,1.53
4614.00,1.53
4613.00,1.53
4612.00,1.53
4611.00,1.54
4610.00,1.54
4609.00,1.54
4608.00,1.54
4607.00,1.54
4606.00,1.54
4605.00,1.54
4604.00,1.54
4603.00,1.55
4602.00,1.55
4601.00,1.55
4600.00,1.55
4599.00,1.55
4598.00,1.56
4597.00,1.56
4596.00,1.56
4595.00,1.56
4594.00,1.56
4593.00,1.57
4592.00,1.57
4591.00,1.57
4590.00,1.57
4589.00,1.58
4588.00,1.58
4587.00,1.58
4586.00,1.58
4585.00,1.58
4584.00,1.58
4583.00,1.58
4582.00,1.59
4581.00,1.59
4580.00,1.59
4579.00,1.59
4578.00,1.59
4577.00,1.59
4576.00,1.59
4575.00,1.59
4574.00,1.59
4573.00,1.60
4572.00,1.60
4571.00,1.60
4570.00,1.60
4569.00,1.60
4568.00,1.60
4567.00,1.61
4566.00,1.61
4565.00,1.61
4564.00,1.61
4563.00,1.61
4562.00,1.61
4561.00,1.61
4560.00,1.61
4559.00,1.62
4558.00,1.62
4557.00,1.62
4556.00,1.62
4555.00,1.62
4554.00,1.62
4553.00,1.62
4552.00,1.63
4551.00,1.63
4550.00,1.63
4549.00,1.63
4548.00,1.63
4547.00,1.63
4546.00,1.63
4545.00,1.64
4544.00,1.64
4543.00,1.64
4542.00,1.64
4541.00,1.64
4540.00,1.64
4539.00,1.64
4538.00,1.64
4537.00,1.65
4536.00,1.65
4535.00,1.65
4534.00,1.65
4533.00,1.65
4532.00,1.65
4531.00,1.65
4530.00,1.65
4529.00,1.66
4528.00,1.66
4527.00,1.66
4526.00,1.66
4525.00,1.66
4524.00,1.66
4523.00,1.66
4522.00,1.66
4521.00,1.66
4520.00,1.66
4519.00,1.66
4518.00,1.66
4517.00,1.65
4516.00,1.65
4515.00,1.65
4514.00,1.65
4513.00,1.65
4512.00,1.65
4511.00,1.65
4510.00,1.65
4509.00,1.65
4508.00,1.65
4507.00,1.65
4506.00,1.65
4505.00,1.65
4504.00,1.65
4503.00,1.65
4502.00,1.65
4501.00,1.65
4500.00,1.65
4499.00,1.65
4498.00,1.65
4497.00,1.65
4496.00,1.65
4495.00,1.65
4494.00,1.65
4493.00,1.65
4492.00,1.65
4491.00,1.64
4490.00,1.64
4489.00,1.64
4488.00,1.64
4487.00,1.63
4486.00,1.63
4485.00,1.63
4484.00,1.62
4483.00,1.62
4482.00,1.62
4481.00,1.61
4480.00,1.61
4479.00,1.60
4478.00,1.60
4477.00,1.60
4476.00,1.59
4475.00,1.59
4474.00,1.59
4473.00,1.58
4472.00,1.58
4471.00,1.58
4470.00,1.57
4469.00,1.57
4468.00,1.57
4467.00,1.56
4466.00,1.56
4465.00,1.56
4464.00,1.55
4463.00,1.55
4462.00,1.54
4461.00,1.54
4460.00,1.53
4459.00,1.53
4458.00,1.52
4457.00,1.52
4456.00,1.51
4455.00,1.50
4454.00,1.50
4453.00,1.49
4452.00,1.49
4451.00,1.48
4450.00,1.47
4449.00,1.47
4448.00,1.46
4447.00,1.45
4446.00,1.44
4445.00,1.44
4444.00,1.43
4443.00,1.42
4442.00,1.42
4441.00,1.41
4440.00,1.40
4439.00,1.39
4438.00,1.39
4437.00,1.38
4436.00,1.37
4435.00,1.37
4434.00,1.36
4433.00,1.35
4432.00,1.35
4431.00,1.34
4430.00,1.34
4429.00,1.33
4428.00,1.33
4427.00,1.32
4426.00,1.32
4425.00,1.31
4424.00,1.31
4423.00,1.31
4422.00,1.30
4421.00,1.30
4420.00,1.30
4419.00,1.30
4418.00,1.30
4417.00,1.30
4416.00,1.29
4415.00,1.29
4414.00,1.29
4413.00,1.30
4412.00,1.30
4411.00,1.30
4410.00,1.30
4409.00,1.30
4408.00,1.30
4407.00,1.30
4406.00,1.30
4405.00,1.31
4404.00,1.31
4403.00,1.31
4402.00,1.31
4401.00,1.31
4400.00,1.31
4399.00,1.32
4398.00,1.32
4397.00,1.32
4396.00,1.32
4395.00,1.32
4394.00,1.32
4393.00,1.33
4392.00,1.33
4391.00,1.33
4390.00,1.33
4389.00,1.33
4388.00,1.34
4387.00,1.34
4386.00,1.34
4385.00,1.34
4384.00,1.34
4383.00,1.34
4382.00,1.35
4381.00,1.35
4380.00,1.35
4379.00,1.35
4378.00,1.35
4377.00,1.35
4376.00,1.36
4375.00,1.36
4374.00,1.36
4373.00,1.36
4372.00,1.36
4371.00,1.36
4370.00,1.36
4369.00,1.37
4368.00,1.37
4367.00,1.37
4366.00,1.37
4365.00,1.37
4364.00,1.37
4363.00,1.37
4362.00,1.37
4361.00,1.37
4360.00,1.36
4359.00,1.36
4358.00,1.36
4357.00,1.36
4356.00,1.36
4355.00,1.36
4354.00,1.36
4353.00,1.36
4352.00,1.36
4351.00,1.36
4350.00,1.36
4349.00,1.36
4348.00,1.36
4347.00,1.36
4346.00,1.36
4345.00,1.37
4344.00,1.37
4343.00,1.37
4342.00,1.37
4341.00,1.37
4340.00,1.37
4339.00,1.37
4338.00,1.37
4337.00,1.37
4336.00,1.37
4335.00,1.37
4334.00,1.37
4333.00,1.38
4332.00,1.38
4331.00,1.38
4330.00,1.38
4329.00,1.38
4328.00,1.38
4327.00,1.38
4326.00,1.38
4325.00,1.38
4324.00,1.39
4323.00,1.39
4322.00,1.39
4321.00,1.39
4320.00,1.40
4319.00,1.40
4318.00,1.40
4317.00,1.40
4316.00,1.41
4315.00,1.41
4314.00,1.41
4313.00,1.42
4312.00,1.42
4311.00,1.42
4310.00,1.43
4309.00,1.43
4308.00,1.44
4307.00,1.44
4306.00,1.44
4305.00,1.45
4304.00,1.45
4303.00,1.45
4302.00,1.46
4301.00,1.46
4300.00,1.47
4299.00,1.47
4298.00,1.47
4297.00,1.48
4296.00,1.48
4295.00,1.48
4294.00,1.49
4293.00,1.49
4292.00,1.49
4291.00,1.50
4290.00,1.50
4289.00,1.50
4288.00,1.50
4287.00,1.51
4286.00,1.51
4285.00,1.51
4284.00,1.51
4283.00,1.51
4282.00,1.51
4281.00,1.51
4280.00,1.51
4279.00,1.51
4278.00,1.51
4277.00,1.51
4276.00,1.51
4275.00,1.51
4274.00,1.51
4273.00,1.50
4272.00,1.50
4271.00,1.50
4270.00,1.50
4269.00,1.49
4268.00,1.49
4267.00,1.49
4266.00,1.48
4265.00,1.48
4264.00,1.48
4263.00,1.48
4262.00,1.48
4261.00,1.47
4260.00,1.47
4259.00,1.47
4258.00,1.47
4257.00,1.47
4256.00,1.47
4255.00,1.47
4254.00,1.47
4253.00,1.47
4252.00,1.47
4251.00,1.47
4250.00,1.47
4249.00,1.47
4248.00,1.48
4247.00,1.48
4246.00,1.48
4245.00,1.48
4244.00,1.48
4243.00,1.49
4242.00,1.49
4241.00,1.49
4240.00,1.49
4239.00,1.50
4238.00,1.50
4237.00,1.50
4236.00,1.51
4235.00,1.51
4234.00,1.51
4233.00,1.52
4232.00,1.52
4231.00,1.52
4230.00,1.53
4229.00,1.53
4228.00,1.53
4227.00,1.54
4226.00,1.54
4225.00,1.54
4224.00,1.55
4223.00,1.55
4222.00,1.55
4221.00,1.55
4220.00,1.56
4219.00,1.56
4218.00,1.56
4217.00,1.56
4216.00,1.56
4215.00,1.56
4214.00,1.56
4213.00,1.56
4212.00,1.56
4211.00,1.57
4210.00,1.57
4209.00,1.57
4208.00,1.57
4207.00,1.57
4206.00,1.57
4205.00,1.57
4204.00,1.57
4203.00,1.57
4202.00,1.57
4201.00,1.57
4200.00,1.57
4199.00,1.57
4198.00,1.57
4197.00,1.57
4196.00,1.57
4195.00,1.57
4194.00,1.56
4193.00,1.56
4192.00,1.56
4191.00,1.56
4190.00,1.56
4189.00,1.56
4188.00,1.55
4187.00,1.55
4186.00,1.55
4185.00,1.55
4184.00,1.55
4183.00,1.55
4182.00,1.55
4181.00,1.55
4180.00,1.56
4179.00,1.56
4178.00,1.56
4177.00,1.56
4176.00,1.56
4175.00,1.57
4174.00,1.57
4173.00,1.57
4172.00,1.57
4171.00,1.57
4170.00,1.57
4169.00,1.58
4168.00,1.58
4167.00,1.58
4166.00,1.58
4165.00,1.58
4164.00,1.58
4163.00,1.58
4162.00,1.58
4161.00,1.58
4160.00,1.58
4159.00,1.58
4158.00,1.59
4157.00,1.59
4156.00,1.59
4155.00,1.59
4154.00,1.59
4153.00,1.59
4152.00,1.59
4151.00,1.59
4150.00,1.60
4149.00,1.60
4148.00,1.60
4147.00,1.60
4146.00,1.60
4145.00,1.60
4144.00,1.60
4143.00,1.60
4142.00,1.60
4141.00,1.60
4140.00,1.60
4139.00,1.61
4138.00,1.61
4137.00,1.61
4136.00,1.61
4135.00,1.61
4134.00,1.61
4133.00,1.61
4132.00,1.61
4131.00,1.61
4130.00,1.62
4129.00,1.62
4128.00,1.62
4127.00,1.62
4126.00,1.62
4125.00,1.62
4124.00,1.62
4123.00,1.62
4122.00,1.62
4121.00,1.63
4120.00,1.63
4119.00,1.63
4118.00,1.62
4117.00,1.62
4116.00,1.62
4115.00,1.62
4114.00,1.62
4113.00,1.62
4112.00,1.62
4111.00,1.62
4110.00,1.62
4109.00,1.63
4108.00,1.63
4107.00,1.63
4106.00,1.63
4105.00,1.63
4104.00,1.63
4103.00,1.64
4102.00,1.64
4101.00,1.64
4100.00,1.64
4099.00,1.64
4098.00,1.64
4097.00,1.64
4096.00,1.64
4095.00,1.64
4094.00,1.64
4093.00,1.64
4092.00,1.64
4091.00,1.64
4090.00,1.63
4089.00,1.63
4088.00,1.63
4087.00,1.63
4086.00,1.62
4085.00,1.62
4084.00,1.62
4083.00,1.62
4082.00,1.62
4081.00,1.62
4080.00,1.62
4079.00,1.62
4078.00,1.62
4077.00,1.62
4076.00,1.62
4075.00,1.62
4074.00,1.63
4073.00,1.63
4072.00,1.63
4071.00,1.63
4070.00,1.63
4069.00,1.64
4068.00,1.64
4067.00,1.64
4066.00,1.65
4065.00,1.65
4064.00,1.65
4063.00,1.66
4062.00,1.66
4061.00,1.66
4060.00,1.67
4059.00,1.67
4058.00,1.68
4057.00,1.68
4056.00,1.68
4055.00,1.69
4054.00,1.69
4053.00,1.69
4052.00,1.69
4051.00,1.69
4050.00,1.69
4049.00,1.69
4048.00,1.69
4047.00,1.69
4046.00,1.69
4045.00,1.69
4044.00,1.69
4043.00,1.69
4042.00,1.69
4041.00,1.69
4040.00,1.69
4039.00,1.69
4038.00,1.69
4037.00,1.69
4036.00,1.69
4035.00,1.70
4034.00,1.70
4033.00,1.70
4032.00,1.70
4031.00,1.71
4030.00,1.71
4029.00,1.71
4028.00,1.72
4027.00,1.72
4026.00,1.72
4025.00,1.72
4024.00,1.73
4023.00,1.73
4022.00,1.73
4021.00,1.73
4020.00,1.73
4019.00,1.73
4018.00,1.73
4017.00,1.73
4016.00,1.73
4015.00,1.73
4014.00,1.73
4013.00,1.73
4012.00,1.73
4011.00,1.73
4010.00,1.73
4009.00,1.73
4008.00,1.73
4007.00,1.73
4006.00,1.73
4005.00,1.73
4004.00,1.73
4003.00,1.73
4002.00,1.73
4001.00,1.73
4000.00,1.73
