创建为新数据集,样品 019 用户 Administrator 日期 星期三, 十一月 01 2017
cm-1,%T
10000.00,1.27
9999.00,1.26
9998.00,1.26
9997.00,1.26
9996.00,1.26
9995.00,1.26
9994.00,1.25
9993.00,1.25
9992.00,1.25
9991.00,1.25
9990.00,1.25
9989.00,1.25
9988.00,1.25
9987.00,1.26
9986.00,1.26
9985.00,1.26
9984.00,1.26
9983.00,1.26
9982.00,1.26
9981.00,1.26
9980.00,1.26
9979.00,1.26
9978.00,1.26
9977.00,1.26
9976.00,1.26
9975.00,1.26
9974.00,1.26
9973.00,1.26
9972.00,1.26
9971.00,1.26
9970.00,1.26
9969.00,1.26
9968.00,1.26
9967.00,1.26
9966.00,1.26
9965.00,1.26
9964.00,1.26
9963.00,1.26
9962.00,1.26
9961.00,1.25
9960.00,1.25
9959.00,1.25
9958.00,1.25
9957.00,1.25
9956.00,1.25
9955.00,1.25
9954.00,1.25
9953.00,1.25
9952.00,1.25
9951.00,1.25
9950.00,1.25
9949.00,1.25
9948.00,1.24
9947.00,1.24
9946.00,1.24
9945.00,1.24
9944.00,1.24
9943.00,1.24
9942.00,1.24
9941.00,1.24
9940.00,1.24
9939.00,1.24
9938.00,1.24
9937.00,1.23
9936.00,1.23
9935.00,1.23
9934.00,1.23
9933.00,1.23
9932.00,1.23
9931.00,1.23
9930.00,1.23
9929.00,1.23
9928.00,1.23
9927.00,1.23
9926.00,1.23
9925.00,1.24
9924.00,1.24
9923.00,1.24
9922.00,1.24
9921.00,1.24
9920.00,1.24
9919.00,1.24
9918.00,1.24
9917.00,1.24
9916.00,1.24
9915.00,1.24
9914.00,1.24
9913.00,1.24
9912.00,1.24
9911.00,1.24
9910.00,1.24
9909.00,1.24
9908.00,1.24
9907.00,1.24
9906.00,1.24
9905.00,1.24
9904.00,1.24
9903.00,1.24
9902.00,1.24
9901.00,1.24
9900.00,1.24
9899.00,1.24
9898.00,1.24
9897.00,1.24
9896.00,1.24
9895.00,1.24
9894.00,1.24
9893.00,1.24
9892.00,1.24
9891.00,1.24
9890.00,1.24
9889.00,1.24
9888.00,1.24
9887.00,1.24
9886.00,1.24
9885.00,1.24
9884.00,1.24
9883.00,1.24
9882.00,1.24
9881.00,1.24
9880.00,1.24
9879.00,1.24
9878.00,1.24
9877.00,1.24
9876.00,1.24
9875.00,1.24
9874.00,1.24
9873.00,1.24
9872.00,1.25
9871.00,1.25
9870.00,1.25
9869.00,1.25
9868.00,1.25
9867.00,1.25
9866.00,1.24
9865.00,1.24
9864.00,1.24
9863.00,1.24
9862.00,1.24
9861.00,1.24
9860.00,1.24
9859.00,1.24
9858.00,1.24
9857.00,1.24
9856.00,1.24
9855.00,1.24
9854.00,1.24
9853.00,1.24
9852.00,1.24
9851.00,1.24
9850.00,1.25
9849.00,1.25
9848.00,1.25
9847.00,1.25
9846.00,1.25
9845.00,1.25
9844.00,1.25
9843.00,1.25
9842.00,1.25
9841.00,1.25
9840.00,1.25
9839.00,1.25
9838.00,1.25
9837.00,1.25
9836.00,1.25
9835.00,1.25
9834.00,1.25
9833.00,1.25
9832.00,1.25
9831.00,1.25
9830.00,1.25
9829.00,1.25
9828.00,1.25
9827.00,1.25
9826.00,1.25
9825.00,1.25
9824.00,1.25
9823.00,1.25
9822.00,1.25
9821.00,1.25
9820.00,1.25
9819.00,1.25
9818.00,1.25
9817.00,1.25
9816.00,1.25
9815.00,1.25
9814.00,1.26
9813.00,1.26
9812.00,1.26
9811.00,1.26
9810.00,1.26
9809.00,1.25
9808.00,1.25
9807.00,1.25
9806.00,1.25
9805.00,1.25
9804.00,1.25
9803.00,1.25
9802.00,1.24
9801.00,1.24
9800.00,1.24
9799.00,1.24
9798.00,1.24
9797.00,1.24
9796.00,1.24
9795.00,1.24
9794.00,1.24
9793.00,1.24
9792.00,1.24
9791.00,1.24
9790.00,1.24
9789.00,1.24
9788.00,1.24
9787.00,1.24
9786.00,1.24
9785.00,1.25
9784.00,1.25
9783.00,1.25
9782.00,1.25
9781.00,1.25
9780.00,1.24
9779.00,1.24
9778.00,1.24
9777.00,1.24
9776.00,1.24
9775.00,1.24
9774.00,1.24
9773.00,1.23
9772.00,1.23
9771.00,1.23
9770.00,1.23
9769.00,1.23
9768.00,1.23
9767.00,1.23
9766.00,1.23
9765.00,1.23
9764.00,1.23
9763.00,1.23
9762.00,1.23
9761.00,1.23
9760.00,1.23
9759.00,1.23
9758.00,1.23
9757.00,1.23
9756.00,1.23
9755.00,1.24
9754.00,1.24
9753.00,1.24
9752.00,1.24
9751.00,1.24
9750.00,1.24
9749.00,1.24
9748.00,1.24
9747.00,1.24
9746.00,1.24
9745.00,1.24
9744.00,1.24
9743.00,1.24
9742.00,1.24
9741.00,1.24
9740.00,1.25
9739.00,1.25
9738.00,1.25
9737.00,1.25
9736.00,1.25
9735.00,1.25
9734.00,1.25
9733.00,1.25
9732.00,1.25
9731.00,1.25
9730.00,1.26
9729.00,1.26
9728.00,1.26
9727.00,1.26
9726.00,1.26
9725.00,1.26
9724.00,1.26
9723.00,1.26
9722.00,1.26
9721.00,1.26
9720.00,1.26
9719.00,1.26
9718.00,1.26
9717.00,1.26
9716.00,1.26
9715.00,1.26
9714.00,1.25
9713.00,1.25
9712.00,1.25
9711.00,1.25
9710.00,1.25
9709.00,1.25
9708.00,1.25
9707.00,1.24
9706.00,1.24
9705.00,1.24
9704.00,1.24
9703.00,1.24
9702.00,1.24
9701.00,1.23
9700.00,1.23
9699.00,1.23
9698.00,1.23
9697.00,1.23
9696.00,1.23
9695.00,1.23
9694.00,1.23
9693.00,1.23
9692.00,1.23
9691.00,1.23
9690.00,1.23
9689.00,1.23
9688.00,1.23
9687.00,1.23
9686.00,1.23
9685.00,1.23
9684.00,1.24
9683.00,1.24
9682.00,1.24
9681.00,1.24
9680.00,1.24
9679.00,1.24
9678.00,1.25
9677.00,1.25
9676.00,1.25
9675.00,1.25
9674.00,1.25
9673.00,1.25
9672.00,1.25
9671.00,1.25
9670.00,1.26
9669.00,1.26
9668.00,1.26
9667.00,1.26
9666.00,1.26
9665.00,1.25
9664.00,1.25
9663.00,1.25
9662.00,1.25
9661.00,1.25
9660.00,1.25
9659.00,1.25
9658.00,1.25
9657.00,1.25
9656.00,1.25
9655.00,1.25
9654.00,1.24
9653.00,1.24
9652.00,1.24
9651.00,1.24
9650.00,1.24
9649.00,1.24
9648.00,1.24
9647.00,1.23
9646.00,1.23
9645.00,1.23
9644.00,1.23
9643.00,1.23
9642.00,1.22
9641.00,1.22
9640.00,1.22
9639.00,1.22
9638.00,1.22
9637.00,1.22
9636.00,1.22
9635.00,1.22
9634.00,1.22
9633.00,1.22
9632.00,1.22
9631.00,1.22
9630.00,1.22
9629.00,1.22
9628.00,1.22
9627.00,1.22
9626.00,1.23
9625.00,1.23
9624.00,1.23
9623.00,1.24
9622.00,1.24
9621.00,1.24
9620.00,1.24
9619.00,1.25
9618.00,1.25
9617.00,1.25
9616.00,1.25
9615.00,1.25
9614.00,1.26
9613.00,1.26
9612.00,1.26
9611.00,1.26
9610.00,1.26
9609.00,1.26
9608.00,1.26
9607.00,1.26
9606.00,1.25
9605.00,1.25
9604.00,1.25
9603.00,1.25
9602.00,1.25
9601.00,1.25
9600.00,1.25
9599.00,1.26
9598.00,1.26
9597.00,1.26
9596.00,1.26
9595.00,1.26
9594.00,1.26
9593.00,1.26
9592.00,1.26
9591.00,1.26
9590.00,1.26
9589.00,1.26
9588.00,1.26
9587.00,1.26
9586.00,1.26
9585.00,1.26
9584.00,1.26
9583.00,1.26
9582.00,1.26
9581.00,1.26
9580.00,1.26
9579.00,1.25
9578.00,1.25
9577.00,1.25
9576.00,1.25
9575.00,1.25
9574.00,1.25
9573.00,1.24
9572.00,1.24
9571.00,1.24
9570.00,1.24
9569.00,1.24
9568.00,1.24
9567.00,1.24
9566.00,1.23
9565.00,1.23
9564.00,1.23
9563.00,1.23
9562.00,1.23
9561.00,1.23
9560.00,1.23
9559.00,1.23
9558.00,1.24
9557.00,1.24
9556.00,1.24
9555.00,1.24
9554.00,1.24
9553.00,1.24
9552.00,1.24
9551.00,1.24
9550.00,1.24
9549.00,1.24
9548.00,1.24
9547.00,1.24
9546.00,1.24
9545.00,1.24
9544.00,1.24
9543.00,1.24
9542.00,1.24
9541.00,1.24
9540.00,1.24
9539.00,1.24
9538.00,1.24
9537.00,1.23
9536.00,1.23
9535.00,1.23
9534.00,1.23
9533.00,1.23
9532.00,1.23
9531.00,1.23
9530.00,1.24
9529.00,1.24
9528.00,1.24
9527.00,1.24
9526.00,1.24
9525.00,1.24
9524.00,1.24
9523.00,1.24
9522.00,1.24
9521.00,1.24
9520.00,1.24
9519.00,1.24
9518.00,1.25
9517.00,1.25
9516.00,1.25
9515.00,1.25
9514.00,1.25
9513.00,1.24
9512.00,1.24
9511.00,1.24
9510.00,1.24
9509.00,1.24
9508.00,1.24
9507.00,1.24
9506.00,1.24
9505.00,1.24
9504.00,1.24
9503.00,1.24
9502.00,1.24
9501.00,1.24
9500.00,1.24
9499.00,1.24
9498.00,1.24
9497.00,1.24
9496.00,1.25
9495.00,1.25
9494.00,1.25
9493.00,1.25
9492.00,1.25
9491.00,1.25
9490.00,1.26
9489.00,1.26
9488.00,1.26
9487.00,1.26
9486.00,1.26
9485.00,1.26
9484.00,1.26
9483.00,1.26
9482.00,1.26
9481.00,1.26
9480.00,1.25
9479.00,1.25
9478.00,1.25
9477.00,1.25
9476.00,1.25
9475.00,1.25
9474.00,1.25
9473.00,1.25
9472.00,1.25
9471.00,1.25
9470.00,1.25
9469.00,1.25
9468.00,1.25
9467.00,1.25
9466.00,1.25
9465.00,1.25
9464.00,1.25
9463.00,1.25
9462.00,1.25
9461.00,1.25
9460.00,1.25
9459.00,1.25
9458.00,1.25
9457.00,1.25
9456.00,1.25
9455.00,1.25
9454.00,1.25
9453.00,1.24
9452.00,1.24
9451.00,1.24
9450.00,1.24
9449.00,1.24
9448.00,1.24
9447.00,1.24
9446.00,1.24
9445.00,1.24
9444.00,1.24
9443.00,1.24
9442.00,1.24
9441.00,1.24
9440.00,1.24
9439.00,1.24
9438.00,1.24
9437.00,1.24
9436.00,1.24
9435.00,1.24
9434.00,1.24
9433.00,1.24
9432.00,1.24
9431.00,1.24
9430.00,1.24
9429.00,1.24
9428.00,1.24
9427.00,1.24
9426.00,1.24
9425.00,1.24
9424.00,1.24
9423.00,1.24
9422.00,1.24
9421.00,1.24
9420.00,1.24
9419.00,1.25
9418.00,1.25
9417.00,1.25
9416.00,1.25
9415.00,1.25
9414.00,1.25
9413.00,1.25
9412.00,1.25
9411.00,1.25
9410.00,1.25
9409.00,1.26
9408.00,1.26
9407.00,1.26
9406.00,1.26
9405.00,1.26
9404.00,1.26
9403.00,1.26
9402.00,1.26
9401.00,1.26
9400.00,1.26
9399.00,1.26
9398.00,1.26
9397.00,1.26
9396.00,1.26
9395.00,1.26
9394.00,1.26
9393.00,1.25
9392.00,1.25
9391.00,1.25
9390.00,1.25
9389.00,1.25
9388.00,1.24
9387.00,1.24
9386.00,1.24
9385.00,1.24
9384.00,1.24
9383.00,1.24
9382.00,1.24
9381.00,1.24
9380.00,1.24
9379.00,1.24
9378.00,1.24
9377.00,1.24
9376.00,1.24
9375.00,1.24
9374.00,1.24
9373.00,1.24
9372.00,1.25
9371.00,1.25
9370.00,1.25
9369.00,1.25
9368.00,1.25
9367.00,1.25
9366.00,1.25
9365.00,1.25
9364.00,1.25
9363.00,1.25
9362.00,1.24
9361.00,1.24
9360.00,1.24
9359.00,1.24
9358.00,1.24
9357.00,1.24
9356.00,1.24
9355.00,1.24
9354.00,1.24
9353.00,1.24
9352.00,1.24
9351.00,1.24
9350.00,1.24
9349.00,1.24
9348.00,1.24
9347.00,1.24
9346.00,1.24
9345.00,1.24
9344.00,1.24
9343.00,1.24
9342.00,1.24
9341.00,1.24
9340.00,1.24
9339.00,1.24
9338.00,1.24
9337.00,1.24
9336.00,1.24
9335.00,1.25
9334.00,1.25
9333.00,1.25
9332.00,1.25
9331.00,1.25
9330.00,1.25
9329.00,1.25
9328.00,1.24
9327.00,1.24
9326.00,1.24
9325.00,1.24
9324.00,1.24
9323.00,1.24
9322.00,1.24
9321.00,1.24
9320.00,1.24
9319.00,1.24
9318.00,1.24
9317.00,1.24
9316.00,1.24
9315.00,1.24
9314.00,1.24
9313.00,1.24
9312.00,1.24
9311.00,1.24
9310.00,1.24
9309.00,1.24
9308.00,1.24
9307.00,1.24
9306.00,1.24
9305.00,1.24
9304.00,1.24
9303.00,1.24
9302.00,1.25
9301.00,1.25
9300.00,1.25
9299.00,1.25
9298.00,1.25
9297.00,1.25
9296.00,1.25
9295.00,1.26
9294.00,1.26
9293.00,1.26
9292.00,1.26
9291.00,1.26
9290.00,1.26
9289.00,1.26
9288.00,1.26
9287.00,1.26
9286.00,1.26
9285.00,1.26
9284.00,1.26
9283.00,1.26
9282.00,1.26
9281.00,1.25
9280.00,1.25
9279.00,1.25
9278.00,1.25
9277.00,1.25
9276.00,1.25
9275.00,1.25
9274.00,1.25
9273.00,1.25
9272.00,1.25
9271.00,1.25
9270.00,1.25
9269.00,1.25
9268.00,1.25
9267.00,1.25
9266.00,1.25
9265.00,1.24
9264.00,1.24
9263.00,1.24
9262.00,1.24
9261.00,1.24
9260.00,1.24
9259.00,1.24
9258.00,1.24
9257.00,1.24
9256.00,1.24
9255.00,1.24
9254.00,1.24
9253.00,1.24
9252.00,1.24
9251.00,1.24
9250.00,1.24
9249.00,1.24
9248.00,1.24
9247.00,1.24
9246.00,1.24
9245.00,1.24
9244.00,1.24
9243.00,1.24
9242.00,1.24
9241.00,1.24
9240.00,1.24
9239.00,1.23
9238.00,1.23
9237.00,1.23
9236.00,1.23
9235.00,1.23
9234.00,1.23
9233.00,1.23
9232.00,1.23
9231.00,1.23
9230.00,1.23
9229.00,1.23
9228.00,1.23
9227.00,1.24
9226.00,1.24
9225.00,1.24
9224.00,1.24
9223.00,1.24
9222.00,1.24
9221.00,1.24
9220.00,1.24
9219.00,1.24
9218.00,1.24
9217.00,1.24
9216.00,1.24
9215.00,1.24
9214.00,1.24
9213.00,1.24
9212.00,1.24
9211.00,1.24
9210.00,1.24
9209.00,1.24
9208.00,1.24
9207.00,1.24
9206.00,1.24
9205.00,1.24
9204.00,1.24
9203.00,1.25
9202.00,1.25
9201.00,1.25
9200.00,1.24
9199.00,1.24
9198.00,1.24
9197.00,1.24
9196.00,1.24
9195.00,1.24
9194.00,1.24
9193.00,1.24
9192.00,1.24
9191.00,1.24
9190.00,1.24
9189.00,1.24
9188.00,1.24
9187.00,1.24
9186.00,1.24
9185.00,1.24
9184.00,1.24
9183.00,1.24
9182.00,1.24
9181.00,1.24
9180.00,1.24
9179.00,1.24
9178.00,1.24
9177.00,1.24
9176.00,1.24
9175.00,1.24
9174.00,1.24
9173.00,1.24
9172.00,1.24
9171.00,1.24
9170.00,1.24
9169.00,1.24
9168.00,1.24
9167.00,1.24
9166.00,1.24
9165.00,1.24
9164.00,1.24
9163.00,1.24
9162.00,1.24
9161.00,1.24
9160.00,1.24
9159.00,1.24
9158.00,1.24
9157.00,1.24
9156.00,1.25
9155.00,1.25
9154.00,1.25
9153.00,1.25
9152.00,1.25
9151.00,1.25
9150.00,1.25
9149.00,1.25
9148.00,1.25
9147.00,1.25
9146.00,1.25
9145.00,1.25
9144.00,1.25
9143.00,1.25
9142.00,1.25
9141.00,1.25
9140.00,1.25
9139.00,1.25
9138.00,1.25
9137.00,1.25
9136.00,1.25
9135.00,1.25
9134.00,1.25
9133.00,1.25
9132.00,1.25
9131.00,1.24
9130.00,1.24
9129.00,1.24
9128.00,1.24
9127.00,1.24
9126.00,1.24
9125.00,1.24
9124.00,1.24
9123.00,1.24
9122.00,1.24
9121.00,1.24
9120.00,1.24
9119.00,1.24
9118.00,1.24
9117.00,1.24
9116.00,1.24
9115.00,1.25
9114.00,1.25
9113.00,1.25
9112.00,1.25
9111.00,1.25
9110.00,1.25
9109.00,1.25
9108.00,1.25
9107.00,1.25
9106.00,1.25
9105.00,1.25
9104.00,1.25
9103.00,1.25
9102.00,1.24
9101.00,1.24
9100.00,1.24
9099.00,1.24
9098.00,1.24
9097.00,1.24
9096.00,1.24
9095.00,1.24
9094.00,1.24
9093.00,1.24
9092.00,1.24
9091.00,1.24
9090.00,1.24
9089.00,1.24
9088.00,1.24
9087.00,1.24
9086.00,1.24
9085.00,1.24
9084.00,1.24
9083.00,1.24
9082.00,1.24
9081.00,1.24
9080.00,1.24
9079.00,1.24
9078.00,1.24
9077.00,1.24
9076.00,1.24
9075.00,1.24
9074.00,1.24
9073.00,1.24
9072.00,1.24
9071.00,1.24
9070.00,1.24
9069.00,1.24
9068.00,1.24
9067.00,1.24
9066.00,1.24
9065.00,1.24
9064.00,1.24
9063.00,1.24
9062.00,1.24
9061.00,1.24
9060.00,1.24
9059.00,1.24
9058.00,1.24
9057.00,1.24
9056.00,1.24
9055.00,1.24
9054.00,1.24
9053.00,1.24
9052.00,1.24
9051.00,1.24
9050.00,1.24
9049.00,1.24
9048.00,1.24
9047.00,1.24
9046.00,1.24
9045.00,1.24
9044.00,1.24
9043.00,1.24
9042.00,1.24
9041.00,1.24
9040.00,1.24
9039.00,1.24
9038.00,1.24
9037.00,1.24
9036.00,1.24
9035.00,1.24
9034.00,1.24
9033.00,1.24
9032.00,1.25
9031.00,1.25
9030.00,1.25
9029.00,1.25
9028.00,1.25
9027.00,1.25
9026.00,1.25
9025.00,1.25
9024.00,1.25
9023.00,1.25
9022.00,1.25
9021.00,1.25
9020.00,1.25
9019.00,1.25
9018.00,1.25
9017.00,1.25
9016.00,1.24
9015.00,1.24
9014.00,1.24
9013.00,1.24
9012.00,1.24
9011.00,1.24
9010.00,1.24
9009.00,1.24
9008.00,1.24
9007.00,1.24
9006.00,1.24
9005.00,1.23
9004.00,1.23
9003.00,1.23
9002.00,1.23
9001.00,1.23
9000.00,1.24
8999.00,1.24
8998.00,1.24
8997.00,1.24
8996.00,1.24
8995.00,1.24
8994.00,1.24
8993.00,1.24
8992.00,1.25
8991.00,1.25
8990.00,1.25
8989.00,1.25
8988.00,1.25
8987.00,1.25
8986.00,1.25
8985.00,1.25
8984.00,1.25
8983.00,1.25
8982.00,1.25
8981.00,1.25
8980.00,1.25
8979.00,1.25
8978.00,1.25
8977.00,1.25
8976.00,1.25
8975.00,1.25
8974.00,1.25
8973.00,1.25
8972.00,1.25
8971.00,1.25
8970.00,1.25
8969.00,1.25
8968.00,1.25
8967.00,1.25
8966.00,1.25
8965.00,1.25
8964.00,1.25
8963.00,1.25
8962.00,1.25
8961.00,1.25
8960.00,1.25
8959.00,1.25
8958.00,1.25
8957.00,1.24
8956.00,1.24
8955.00,1.24
8954.00,1.24
8953.00,1.24
8952.00,1.24
8951.00,1.24
8950.00,1.24
8949.00,1.24
8948.00,1.24
8947.00,1.25
8946.00,1.25
8945.00,1.25
8944.00,1.25
8943.00,1.25
8942.00,1.25
8941.00,1.25
8940.00,1.25
8939.00,1.25
8938.00,1.25
8937.00,1.25
8936.00,1.25
8935.00,1.25
8934.00,1.26
8933.00,1.26
8932.00,1.26
8931.00,1.26
8930.00,1.26
8929.00,1.26
8928.00,1.26
8927.00,1.26
8926.00,1.26
8925.00,1.26
8924.00,1.26
8923.00,1.26
8922.00,1.26
8921.00,1.26
8920.00,1.26
8919.00,1.26
8918.00,1.26
8917.00,1.26
8916.00,1.26
8915.00,1.25
8914.00,1.25
8913.00,1.25
8912.00,1.25
8911.00,1.25
8910.00,1.25
8909.00,1.24
8908.00,1.24
8907.00,1.24
8906.00,1.24
8905.00,1.24
8904.00,1.24
8903.00,1.24
8902.00,1.24
8901.00,1.24
8900.00,1.24
8899.00,1.24
8898.00,1.24
8897.00,1.24
8896.00,1.24
8895.00,1.24
8894.00,1.24
8893.00,1.24
8892.00,1.24
8891.00,1.25
8890.00,1.25
8889.00,1.25
8888.00,1.25
8887.00,1.25
8886.00,1.25
8885.00,1.25
8884.00,1.25
8883.00,1.25
8882.00,1.25
8881.00,1.25
8880.00,1.25
8879.00,1.25
8878.00,1.25
8877.00,1.25
8876.00,1.25
8875.00,1.25
8874.00,1.25
8873.00,1.25
8872.00,1.25
8871.00,1.25
8870.00,1.25
8869.00,1.25
8868.00,1.26
8867.00,1.26
8866.00,1.26
8865.00,1.26
8864.00,1.26
8863.00,1.26
8862.00,1.26
8861.00,1.26
8860.00,1.25
8859.00,1.25
8858.00,1.25
8857.00,1.25
8856.00,1.25
8855.00,1.25
8854.00,1.25
8853.00,1.25
8852.00,1.24
8851.00,1.24
8850.00,1.24
8849.00,1.24
8848.00,1.24
8847.00,1.24
8846.00,1.24
8845.00,1.24
8844.00,1.24
8843.00,1.24
8842.00,1.24
8841.00,1.24
8840.00,1.24
8839.00,1.24
8838.00,1.24
8837.00,1.24
8836.00,1.23
8835.00,1.23
8834.00,1.23
8833.00,1.23
8832.00,1.23
8831.00,1.23
8830.00,1.23
8829.00,1.23
8828.00,1.23
8827.00,1.23
8826.00,1.23
8825.00,1.23
8824.00,1.23
8823.00,1.23
8822.00,1.23
8821.00,1.23
8820.00,1.23
8819.00,1.23
8818.00,1.23
8817.00,1.23
8816.00,1.23
8815.00,1.23
8814.00,1.23
8813.00,1.23
8812.00,1.23
8811.00,1.23
8810.00,1.22
8809.00,1.22
8808.00,1.22
8807.00,1.22
8806.00,1.22
8805.00,1.22
8804.00,1.22
8803.00,1.22
8802.00,1.22
8801.00,1.22
8800.00,1.22
8799.00,1.22
8798.00,1.22
8797.00,1.22
8796.00,1.22
8795.00,1.22
8794.00,1.22
8793.00,1.22
8792.00,1.22
8791.00,1.22
8790.00,1.22
8789.00,1.22
8788.00,1.22
8787.00,1.22
8786.00,1.22
8785.00,1.22
8784.00,1.22
8783.00,1.22
8782.00,1.22
8781.00,1.22
8780.00,1.22
8779.00,1.22
8778.00,1.22
8777.00,1.22
8776.00,1.21
8775.00,1.21
8774.00,1.21
8773.00,1.21
8772.00,1.21
8771.00,1.21
8770.00,1.21
8769.00,1.21
8768.00,1.21
8767.00,1.21
8766.00,1.21
8765.00,1.21
8764.00,1.21
8763.00,1.21
8762.00,1.21
8761.00,1.21
8760.00,1.21
8759.00,1.21
8758.00,1.21
8757.00,1.21
8756.00,1.21
8755.00,1.21
8754.00,1.21
8753.00,1.21
8752.00,1.21
8751.00,1.21
8750.00,1.21
8749.00,1.21
8748.00,1.21
8747.00,1.21
8746.00,1.21
8745.00,1.20
8744.00,1.20
8743.00,1.20
8742.00,1.20
8741.00,1.20
8740.00,1.20
8739.00,1.20
8738.00,1.20
8737.00,1.20
8736.00,1.20
8735.00,1.20
8734.00,1.20
8733.00,1.20
8732.00,1.20
8731.00,1.20
8730.00,1.20
8729.00,1.20
8728.00,1.20
8727.00,1.20
8726.00,1.20
8725.00,1.20
8724.00,1.20
8723.00,1.20
8722.00,1.20
8721.00,1.20
8720.00,1.20
8719.00,1.20
8718.00,1.20
8717.00,1.20
8716.00,1.20
8715.00,1.20
8714.00,1.20
8713.00,1.20
8712.00,1.20
8711.00,1.20
8710.00,1.20
8709.00,1.20
8708.00,1.20
8707.00,1.20
8706.00,1.20
8705.00,1.20
8704.00,1.20
8703.00,1.20
8702.00,1.20
8701.00,1.20
8700.00,1.20
8699.00,1.20
8698.00,1.20
8697.00,1.20
8696.00,1.20
8695.00,1.20
8694.00,1.20
8693.00,1.20
8692.00,1.20
8691.00,1.20
8690.00,1.20
8689.00,1.20
8688.00,1.20
8687.00,1.20
8686.00,1.20
8685.00,1.20
8684.00,1.20
8683.00,1.20
8682.00,1.20
8681.00,1.20
8680.00,1.20
8679.00,1.20
8678.00,1.20
8677.00,1.20
8676.00,1.20
8675.00,1.20
8674.00,1.20
8673.00,1.20
8672.00,1.20
8671.00,1.20
8670.00,1.20
8669.00,1.20
8668.00,1.20
8667.00,1.20
8666.00,1.19
8665.00,1.19
8664.00,1.19
8663.00,1.19
8662.00,1.19
8661.00,1.19
8660.00,1.19
8659.00,1.18
8658.00,1.18
8657.00,1.18
8656.00,1.18
8655.00,1.18
8654.00,1.18
8653.00,1.18
8652.00,1.18
8651.00,1.18
8650.00,1.18
8649.00,1.18
8648.00,1.18
8647.00,1.18
8646.00,1.18
8645.00,1.18
8644.00,1.18
8643.00,1.18
8642.00,1.18
8641.00,1.18
8640.00,1.18
8639.00,1.18
8638.00,1.18
8637.00,1.19
8636.00,1.19
8635.00,1.19
8634.00,1.19
8633.00,1.19
8632.00,1.19
8631.00,1.19
8630.00,1.19
8629.00,1.19
8628.00,1.19
8627.00,1.19
8626.00,1.19
8625.00,1.19
8624.00,1.19
8623.00,1.19
8622.00,1.19
8621.00,1.19
8620.00,1.19
8619.00,1.18
8618.00,1.18
8617.00,1.18
8616.00,1.18
8615.00,1.18
8614.00,1.18
8613.00,1.18
8612.00,1.18
8611.00,1.17
8610.00,1.17
8609.00,1.17
8608.00,1.17
8607.00,1.17
8606.00,1.17
8605.00,1.16
8604.00,1.16
8603.00,1.16
8602.00,1.16
8601.00,1.16
8600.00,1.16
8599.00,1.16
8598.00,1.16
8597.00,1.16
8596.00,1.16
8595.00,1.16
8594.00,1.16
8593.00,1.16
8592.00,1.16
8591.00,1.16
8590.00,1.16
8589.00,1.16
8588.00,1.16
8587.00,1.16
8586.00,1.16
8585.00,1.16
8584.00,1.16
8583.00,1.16
8582.00,1.16
8581.00,1.16
8580.00,1.16
8579.00,1.15
8578.00,1.15
8577.00,1.15
8576.00,1.15
8575.00,1.15
8574.00,1.15
8573.00,1.15
8572.00,1.15
8571.00,1.15
8570.00,1.15
8569.00,1.15
8568.00,1.15
8567.00,1.15
8566.00,1.15
8565.00,1.15
8564.00,1.15
8563.00,1.15
8562.00,1.15
8561.00,1.15
8560.00,1.15
8559.00,1.15
8558.00,1.15
8557.00,1.15
8556.00,1.15
8555.00,1.15
8554.00,1.15
8553.00,1.15
8552.00,1.15
8551.00,1.15
8550.00,1.15
8549.00,1.15
8548.00,1.15
8547.00,1.15
8546.00,1.15
8545.00,1.15
8544.00,1.15
8543.00,1.15
8542.00,1.15
8541.00,1.14
8540.00,1.14
8539.00,1.14
8538.00,1.14
8537.00,1.14
8536.00,1.14
8535.00,1.13
8534.00,1.13
8533.00,1.13
8532.00,1.13
8531.00,1.13
8530.00,1.13
8529.00,1.13
8528.00,1.13
8527.00,1.13
8526.00,1.13
8525.00,1.12
8524.00,1.12
8523.00,1.12
8522.00,1.12
8521.00,1.12
8520.00,1.12
8519.00,1.12
8518.00,1.12
8517.00,1.12
8516.00,1.12
8515.00,1.13
8514.00,1.13
8513.00,1.13
8512.00,1.13
8511.00,1.12
8510.00,1.12
8509.00,1.12
8508.00,1.12
8507.00,1.12
8506.00,1.12
8505.00,1.12
8504.00,1.12
8503.00,1.12
8502.00,1.12
8501.00,1.12
8500.00,1.11
8499.00,1.11
8498.00,1.11
8497.00,1.11
8496.00,1.11
8495.00,1.11
8494.00,1.11
8493.00,1.11
8492.00,1.11
8491.00,1.11
8490.00,1.11
8489.00,1.11
8488.00,1.11
8487.00,1.11
8486.00,1.11
8485.00,1.11
8484.00,1.11
8483.00,1.11
8482.00,1.11
8481.00,1.11
8480.00,1.11
8479.00,1.11
8478.00,1.11
8477.00,1.11
8476.00,1.11
8475.00,1.11
8474.00,1.11
8473.00,1.11
8472.00,1.11
8471.00,1.11
8470.00,1.11
8469.00,1.11
8468.00,1.11
8467.00,1.11
8466.00,1.11
8465.00,1.11
8464.00,1.11
8463.00,1.11
8462.00,1.11
8461.00,1.11
8460.00,1.11
8459.00,1.10
8458.00,1.10
8457.00,1.10
8456.00,1.10
8455.00,1.10
8454.00,1.10
8453.00,1.10
8452.00,1.10
8451.00,1.09
8450.00,1.09
8449.00,1.09
8448.00,1.09
8447.00,1.09
8446.00,1.09
8445.00,1.08
8444.00,1.08
8443.00,1.08
8442.00,1.08
8441.00,1.08
8440.00,1.08
8439.00,1.08
8438.00,1.08
8437.00,1.08
8436.00,1.08
8435.00,1.08
8434.00,1.09
8433.00,1.09
8432.00,1.09
8431.00,1.09
8430.00,1.09
8429.00,1.09
8428.00,1.09
8427.00,1.09
8426.00,1.09
8425.00,1.09
8424.00,1.09
8423.00,1.09
8422.00,1.10
8421.00,1.10
8420.00,1.10
8419.00,1.10
8418.00,1.10
8417.00,1.10
8416.00,1.10
8415.00,1.10
8414.00,1.10
8413.00,1.10
8412.00,1.11
8411.00,1.11
8410.00,1.11
8409.00,1.11
8408.00,1.11
8407.00,1.11
8406.00,1.11
8405.00,1.12
8404.00,1.12
8403.00,1.12
8402.00,1.12
8401.00,1.12
8400.00,1.12
8399.00,1.12
8398.00,1.12
8397.00,1.12
8396.00,1.12
8395.00,1.12
8394.00,1.12
8393.00,1.12
8392.00,1.12
8391.00,1.12
8390.00,1.12
8389.00,1.12
8388.00,1.12
8387.00,1.12
8386.00,1.12
8385.00,1.12
8384.00,1.12
8383.00,1.12
8382.00,1.12
8381.00,1.12
8380.00,1.12
8379.00,1.12
8378.00,1.12
8377.00,1.12
8376.00,1.12
8375.00,1.12
8374.00,1.12
8373.00,1.12
8372.00,1.13
8371.00,1.13
8370.00,1.13
8369.00,1.13
8368.00,1.13
8367.00,1.13
8366.00,1.13
8365.00,1.13
8364.00,1.13
8363.00,1.13
8362.00,1.13
8361.00,1.13
8360.00,1.13
8359.00,1.13
8358.00,1.13
8357.00,1.13
8356.00,1.13
8355.00,1.13
8354.00,1.13
8353.00,1.13
8352.00,1.13
8351.00,1.13
8350.00,1.13
8349.00,1.13
8348.00,1.13
8347.00,1.13
8346.00,1.13
8345.00,1.13
8344.00,1.13
8343.00,1.13
8342.00,1.13
8341.00,1.13
8340.00,1.13
8339.00,1.13
8338.00,1.13
8337.00,1.13
8336.00,1.13
8335.00,1.13
8334.00,1.13
8333.00,1.13
8332.00,1.13
8331.00,1.13
8330.00,1.13
8329.00,1.13
8328.00,1.13
8327.00,1.13
8326.00,1.13
8325.00,1.13
8324.00,1.13
8323.00,1.13
8322.00,1.13
8321.00,1.13
8320.00,1.13
8319.00,1.13
8318.00,1.13
8317.00,1.13
8316.00,1.13
8315.00,1.13
8314.00,1.13
8313.00,1.13
8312.00,1.13
8311.00,1.13
8310.00,1.13
8309.00,1.13
8308.00,1.14
8307.00,1.14
8306.00,1.14
8305.00,1.14
8304.00,1.14
8303.00,1.14
8302.00,1.14
8301.00,1.14
8300.00,1.14
8299.00,1.14
8298.00,1.14
8297.00,1.14
8296.00,1.14
8295.00,1.14
8294.00,1.14
8293.00,1.14
8292.00,1.14
8291.00,1.14
8290.00,1.14
8289.00,1.14
8288.00,1.14
8287.00,1.14
8286.00,1.14
8285.00,1.14
8284.00,1.14
8283.00,1.14
8282.00,1.14
8281.00,1.14
8280.00,1.14
8279.00,1.14
8278.00,1.14
8277.00,1.14
8276.00,1.15
8275.00,1.15
8274.00,1.15
8273.00,1.15
8272.00,1.15
8271.00,1.15
8270.00,1.15
8269.00,1.15
8268.00,1.15
8267.00,1.15
8266.00,1.15
8265.00,1.15
8264.00,1.16
8263.00,1.16
8262.00,1.16
8261.00,1.16
8260.00,1.16
8259.00,1.16
8258.00,1.16
8257.00,1.16
8256.00,1.16
8255.00,1.16
8254.00,1.16
8253.00,1.16
8252.00,1.16
8251.00,1.16
8250.00,1.16
8249.00,1.16
8248.00,1.16
8247.00,1.16
8246.00,1.16
8245.00,1.16
8244.00,1.16
8243.00,1.16
8242.00,1.15
8241.00,1.15
8240.00,1.15
8239.00,1.15
8238.00,1.15
8237.00,1.15
8236.00,1.15
8235.00,1.16
8234.00,1.16
8233.00,1.16
8232.00,1.16
8231.00,1.16
8230.00,1.16
8229.00,1.16
8228.00,1.16
8227.00,1.16
8226.00,1.16
8225.00,1.16
8224.00,1.16
8223.00,1.16
8222.00,1.16
8221.00,1.17
8220.00,1.17
8219.00,1.17
8218.00,1.17
8217.00,1.17
8216.00,1.17
8215.00,1.17
8214.00,1.17
8213.00,1.17
8212.00,1.17
8211.00,1.17
8210.00,1.17
8209.00,1.17
8208.00,1.17
8207.00,1.17
8206.00,1.17
8205.00,1.17
8204.00,1.17
8203.00,1.17
8202.00,1.17
8201.00,1.17
8200.00,1.17
8199.00,1.17
8198.00,1.17
8197.00,1.17
8196.00,1.17
8195.00,1.17
8194.00,1.17
8193.00,1.17
8192.00,1.17
8191.00,1.17
8190.00,1.17
8189.00,1.18
8188.00,1.18
8187.00,1.18
8186.00,1.18
8185.00,1.18
8184.00,1.18
8183.00,1.18
8182.00,1.18
8181.00,1.18
8180.00,1.18
8179.00,1.17
8178.00,1.17
8177.00,1.17
8176.00,1.17
8175.00,1.17
8174.00,1.17
8173.00,1.17
8172.00,1.17
8171.00,1.17
8170.00,1.17
8169.00,1.17
8168.00,1.18
8167.00,1.18
8166.00,1.18
8165.00,1.18
8164.00,1.18
8163.00,1.18
8162.00,1.18
8161.00,1.18
8160.00,1.18
8159.00,1.18
8158.00,1.18
8157.00,1.18
8156.00,1.18
8155.00,1.18
8154.00,1.18
8153.00,1.18
8152.00,1.18
8151.00,1.18
8150.00,1.18
8149.00,1.18
8148.00,1.18
8147.00,1.18
8146.00,1.18
8145.00,1.18
8144.00,1.18
8143.00,1.18
8142.00,1.18
8141.00,1.18
8140.00,1.18
8139.00,1.18
8138.00,1.18
8137.00,1.18
8136.00,1.18
8135.00,1.18
8134.00,1.18
8133.00,1.18
8132.00,1.18
8131.00,1.18
8130.00,1.19
8129.00,1.19
8128.00,1.19
8127.00,1.19
8126.00,1.19
8125.00,1.19
8124.00,1.19
8123.00,1.19
8122.00,1.19
8121.00,1.20
8120.00,1.20
8119.00,1.20
8118.00,1.20
8117.00,1.20
8116.00,1.20
8115.00,1.20
8114.00,1.20
8113.00,1.21
8112.00,1.21
8111.00,1.21
8110.00,1.21
8109.00,1.21
8108.00,1.21
8107.00,1.21
8106.00,1.21
8105.00,1.21
8104.00,1.21
8103.00,1.21
8102.00,1.21
8101.00,1.21
8100.00,1.21
8099.00,1.21
8098.00,1.21
8097.00,1.21
8096.00,1.21
8095.00,1.21
8094.00,1.21
8093.00,1.21
8092.00,1.21
8091.00,1.21
8090.00,1.21
8089.00,1.21
8088.00,1.21
8087.00,1.21
8086.00,1.21
8085.00,1.21
8084.00,1.21
8083.00,1.21
8082.00,1.21
8081.00,1.21
8080.00,1.21
8079.00,1.21
8078.00,1.21
8077.00,1.21
8076.00,1.21
8075.00,1.21
8074.00,1.21
8073.00,1.21
8072.00,1.21
8071.00,1.21
8070.00,1.21
8069.00,1.21
8068.00,1.21
8067.00,1.21
8066.00,1.21
8065.00,1.21
8064.00,1.21
8063.00,1.21
8062.00,1.21
8061.00,1.21
8060.00,1.21
8059.00,1.21
8058.00,1.21
8057.00,1.21
8056.00,1.21
8055.00,1.21
8054.00,1.21
8053.00,1.21
8052.00,1.21
8051.00,1.21
8050.00,1.21
8049.00,1.21
8048.00,1.21
8047.00,1.21
8046.00,1.21
8045.00,1.21
8044.00,1.21
8043.00,1.21
8042.00,1.21
8041.00,1.21
8040.00,1.21
8039.00,1.21
8038.00,1.21
8037.00,1.21
8036.00,1.21
8035.00,1.21
8034.00,1.21
8033.00,1.21
8032.00,1.21
8031.00,1.21
8030.00,1.21
8029.00,1.21
8028.00,1.21
8027.00,1.21
8026.00,1.21
8025.00,1.21
8024.00,1.21
8023.00,1.21
8022.00,1.21
8021.00,1.22
8020.00,1.22
8019.00,1.22
8018.00,1.22
8017.00,1.22
8016.00,1.22
8015.00,1.22
8014.00,1.22
8013.00,1.22
8012.00,1.22
8011.00,1.22
8010.00,1.22
8009.00,1.22
8008.00,1.22
8007.00,1.22
8006.00,1.22
8005.00,1.22
8004.00,1.22
8003.00,1.22
8002.00,1.22
8001.00,1.22
8000.00,1.22
7999.00,1.22
7998.00,1.22
7997.00,1.22
7996.00,1.22
7995.00,1.22
7994.00,1.22
7993.00,1.22
7992.00,1.22
7991.00,1.22
7990.00,1.22
7989.00,1.22
7988.00,1.22
7987.00,1.22
7986.00,1.22
7985.00,1.22
7984.00,1.22
7983.00,1.22
7982.00,1.22
7981.00,1.22
7980.00,1.22
7979.00,1.22
7978.00,1.22
7977.00,1.22
7976.00,1.22
7975.00,1.22
7974.00,1.22
7973.00,1.22
7972.00,1.22
7971.00,1.22
7970.00,1.22
7969.00,1.22
7968.00,1.22
7967.00,1.23
7966.00,1.23
7965.00,1.23
7964.00,1.23
7963.00,1.23
7962.00,1.23
7961.00,1.23
7960.00,1.23
7959.00,1.24
7958.00,1.24
7957.00,1.24
7956.00,1.24
7955.00,1.24
7954.00,1.24
7953.00,1.24
7952.00,1.24
7951.00,1.24
7950.00,1.24
7949.00,1.24
7948.00,1.24
7947.00,1.24
7946.00,1.24
7945.00,1.23
7944.00,1.23
7943.00,1.23
7942.00,1.23
7941.00,1.23
7940.00,1.23
7939.00,1.23
7938.00,1.23
7937.00,1.23
7936.00,1.23
7935.00,1.23
7934.00,1.23
7933.00,1.23
7932.00,1.23
7931.00,1.23
7930.00,1.23
7929.00,1.23
7928.00,1.23
7927.00,1.23
7926.00,1.23
7925.00,1.23
7924.00,1.23
7923.00,1.23
7922.00,1.23
7921.00,1.23
7920.00,1.23
7919.00,1.23
7918.00,1.23
7917.00,1.23
7916.00,1.23
7915.00,1.23
7914.00,1.23
7913.00,1.23
7912.00,1.23
7911.00,1.23
7910.00,1.23
7909.00,1.23
7908.00,1.23
7907.00,1.23
7906.00,1.23
7905.00,1.23
7904.00,1.24
7903.00,1.24
7902.00,1.24
7901.00,1.24
7900.00,1.24
7899.00,1.24
7898.00,1.24
7897.00,1.24
7896.00,1.24
7895.00,1.24
7894.00,1.24
7893.00,1.24
7892.00,1.24
7891.00,1.24
7890.00,1.24
7889.00,1.24
7888.00,1.24
7887.00,1.24
7886.00,1.24
7885.00,1.24
7884.00,1.24
7883.00,1.24
7882.00,1.24
7881.00,1.24
7880.00,1.24
7879.00,1.24
7878.00,1.24
7877.00,1.24
7876.00,1.24
7875.00,1.24
7874.00,1.24
7873.00,1.24
7872.00,1.24
7871.00,1.24
7870.00,1.24
7869.00,1.24
7868.00,1.25
7867.00,1.25
7866.00,1.25
7865.00,1.25
7864.00,1.25
7863.00,1.25
7862.00,1.25
7861.00,1.25
7860.00,1.25
7859.00,1.25
7858.00,1.25
7857.00,1.25
7856.00,1.24
7855.00,1.24
7854.00,1.24
7853.00,1.24
7852.00,1.24
7851.00,1.24
7850.00,1.24
7849.00,1.24
7848.00,1.24
7847.00,1.24
7846.00,1.24
7845.00,1.24
7844.00,1.24
7843.00,1.24
7842.00,1.24
7841.00,1.24
7840.00,1.24
7839.00,1.24
7838.00,1.24
7837.00,1.24
7836.00,1.24
7835.00,1.24
7834.00,1.24
7833.00,1.24
7832.00,1.24
7831.00,1.24
7830.00,1.24
7829.00,1.24
7828.00,1.24
7827.00,1.24
7826.00,1.24
7825.00,1.24
7824.00,1.24
7823.00,1.24
7822.00,1.25
7821.00,1.25
7820.00,1.25
7819.00,1.25
7818.00,1.25
7817.00,1.25
7816.00,1.25
7815.00,1.25
7814.00,1.25
7813.00,1.25
7812.00,1.25
7811.00,1.25
7810.00,1.25
7809.00,1.25
7808.00,1.25
7807.00,1.25
7806.00,1.25
7805.00,1.25
7804.00,1.25
7803.00,1.25
7802.00,1.25
7801.00,1.25
7800.00,1.25
7799.00,1.25
7798.00,1.25
7797.00,1.25
7796.00,1.25
7795.00,1.25
7794.00,1.25
7793.00,1.25
7792.00,1.25
7791.00,1.25
7790.00,1.25
7789.00,1.25
7788.00,1.25
7787.00,1.25
7786.00,1.25
7785.00,1.25
7784.00,1.25
7783.00,1.25
7782.00,1.25
7781.00,1.25
7780.00,1.25
7779.00,1.25
7778.00,1.25
7777.00,1.25
7776.00,1.25
7775.00,1.25
7774.00,1.25
7773.00,1.25
7772.00,1.25
7771.00,1.25
7770.00,1.25
7769.00,1.25
7768.00,1.25
7767.00,1.25
7766.00,1.25
7765.00,1.25
7764.00,1.25
7763.00,1.25
7762.00,1.25
7761.00,1.25
7760.00,1.25
7759.00,1.25
7758.00,1.25
7757.00,1.25
7756.00,1.25
7755.00,1.25
7754.00,1.25
7753.00,1.25
7752.00,1.25
7751.00,1.25
7750.00,1.25
7749.00,1.25
7748.00,1.25
7747.00,1.25
7746.00,1.25
7745.00,1.25
7744.00,1.25
7743.00,1.25
7742.00,1.25
7741.00,1.25
7740.00,1.25
7739.00,1.26
7738.00,1.26
7737.00,1.26
7736.00,1.26
7735.00,1.26
7734.00,1.26
7733.00,1.26
7732.00,1.25
7731.00,1.25
7730.00,1.25
7729.00,1.25
7728.00,1.25
7727.00,1.25
7726.00,1.25
7725.00,1.25
7724.00,1.25
7723.00,1.25
7722.00,1.25
7721.00,1.25
7720.00,1.25
7719.00,1.26
7718.00,1.26
7717.00,1.26
7716.00,1.26
7715.00,1.26
7714.00,1.26
7713.00,1.26
7712.00,1.26
7711.00,1.26
7710.00,1.26
7709.00,1.26
7708.00,1.26
7707.00,1.26
7706.00,1.26
7705.00,1.26
7704.00,1.26
7703.00,1.26
7702.00,1.26
7701.00,1.26
7700.00,1.26
7699.00,1.26
7698.00,1.26
7697.00,1.26
7696.00,1.26
7695.00,1.26
7694.00,1.26
7693.00,1.26
7692.00,1.26
7691.00,1.26
7690.00,1.26
7689.00,1.26
7688.00,1.26
7687.00,1.26
7686.00,1.26
7685.00,1.26
7684.00,1.26
7683.00,1.26
7682.00,1.26
7681.00,1.26
7680.00,1.26
7679.00,1.26
7678.00,1.26
7677.00,1.26
7676.00,1.26
7675.00,1.26
7674.00,1.26
7673.00,1.26
7672.00,1.26
7671.00,1.26
7670.00,1.26
7669.00,1.26
7668.00,1.26
7667.00,1.25
7666.00,1.25
7665.00,1.25
7664.00,1.25
7663.00,1.25
7662.00,1.25
7661.00,1.25
7660.00,1.25
7659.00,1.25
7658.00,1.25
7657.00,1.25
7656.00,1.25
7655.00,1.25
7654.00,1.25
7653.00,1.25
7652.00,1.25
7651.00,1.26
7650.00,1.26
7649.00,1.26
7648.00,1.26
7647.00,1.26
7646.00,1.26
7645.00,1.26
7644.00,1.26
7643.00,1.26
7642.00,1.26
7641.00,1.26
7640.00,1.26
7639.00,1.26
7638.00,1.26
7637.00,1.26
7636.00,1.26
7635.00,1.26
7634.00,1.26
7633.00,1.26
7632.00,1.26
7631.00,1.26
7630.00,1.26
7629.00,1.26
7628.00,1.26
7627.00,1.26
7626.00,1.26
7625.00,1.26
7624.00,1.26
7623.00,1.26
7622.00,1.26
7621.00,1.25
7620.00,1.25
7619.00,1.25
7618.00,1.25
7617.00,1.25
7616.00,1.25
7615.00,1.25
7614.00,1.25
7613.00,1.25
7612.00,1.25
7611.00,1.25
7610.00,1.25
7609.00,1.25
7608.00,1.25
7607.00,1.25
7606.00,1.25
7605.00,1.25
7604.00,1.25
7603.00,1.25
7602.00,1.25
7601.00,1.25
7600.00,1.25
7599.00,1.25
7598.00,1.25
7597.00,1.25
7596.00,1.25
7595.00,1.26
7594.00,1.26
7593.00,1.26
7592.00,1.26
7591.00,1.26
7590.00,1.26
7589.00,1.26
7588.00,1.26
7587.00,1.26
7586.00,1.26
7585.00,1.26
7584.00,1.26
7583.00,1.26
7582.00,1.26
7581.00,1.26
7580.00,1.26
7579.00,1.26
7578.00,1.26
7577.00,1.26
7576.00,1.26
7575.00,1.26
7574.00,1.26
7573.00,1.26
7572.00,1.26
7571.00,1.26
7570.00,1.26
7569.00,1.26
7568.00,1.26
7567.00,1.26
7566.00,1.26
7565.00,1.26
7564.00,1.26
7563.00,1.26
7562.00,1.25
7561.00,1.25
7560.00,1.25
7559.00,1.25
7558.00,1.25
7557.00,1.25
7556.00,1.25
7555.00,1.25
7554.00,1.25
7553.00,1.25
7552.00,1.25
7551.00,1.25
7550.00,1.25
7549.00,1.25
7548.00,1.24
7547.00,1.24
7546.00,1.24
7545.00,1.24
7544.00,1.24
7543.00,1.24
7542.00,1.24
7541.00,1.24
7540.00,1.24
7539.00,1.24
7538.00,1.24
7537.00,1.24
7536.00,1.24
7535.00,1.24
7534.00,1.24
7533.00,1.24
7532.00,1.24
7531.00,1.24
7530.00,1.24
7529.00,1.24
7528.00,1.24
7527.00,1.24
7526.00,1.24
7525.00,1.23
7524.00,1.23
7523.00,1.23
7522.00,1.23
7521.00,1.23
7520.00,1.23
7519.00,1.23
7518.00,1.23
7517.00,1.23
7516.00,1.23
7515.00,1.24
7514.00,1.24
7513.00,1.24
7512.00,1.24
7511.00,1.24
7510.00,1.24
7509.00,1.24
7508.00,1.24
7507.00,1.24
7506.00,1.24
7505.00,1.24
7504.00,1.24
7503.00,1.24
7502.00,1.24
7501.00,1.24
7500.00,1.24
7499.00,1.24
7498.00,1.24
7497.00,1.24
7496.00,1.24
7495.00,1.23
7494.00,1.23
7493.00,1.23
7492.00,1.23
7491.00,1.23
7490.00,1.23
7489.00,1.23
7488.00,1.23
7487.00,1.23
7486.00,1.23
7485.00,1.23
7484.00,1.23
7483.00,1.23
7482.00,1.23
7481.00,1.23
7480.00,1.23
7479.00,1.23
7478.00,1.23
7477.00,1.23
7476.00,1.23
7475.00,1.23
7474.00,1.23
7473.00,1.23
7472.00,1.23
7471.00,1.23
7470.00,1.23
7469.00,1.23
7468.00,1.23
7467.00,1.23
7466.00,1.23
7465.00,1.22
7464.00,1.22
7463.00,1.22
7462.00,1.22
7461.00,1.22
7460.00,1.22
7459.00,1.22
7458.00,1.22
7457.00,1.21
7456.00,1.21
7455.00,1.21
7454.00,1.21
7453.00,1.21
7452.00,1.21
7451.00,1.21
7450.00,1.21
7449.00,1.21
7448.00,1.21
7447.00,1.21
7446.00,1.21
7445.00,1.21
7444.00,1.21
7443.00,1.21
7442.00,1.21
7441.00,1.21
7440.00,1.21
7439.00,1.21
7438.00,1.21
7437.00,1.21
7436.00,1.21
7435.00,1.21
7434.00,1.21
7433.00,1.21
7432.00,1.21
7431.00,1.21
7430.00,1.21
7429.00,1.21
7428.00,1.21
7427.00,1.21
7426.00,1.21
7425.00,1.21
7424.00,1.21
7423.00,1.21
7422.00,1.21
7421.00,1.20
7420.00,1.20
7419.00,1.20
7418.00,1.20
7417.00,1.20
7416.00,1.20
7415.00,1.20
7414.00,1.20
7413.00,1.20
7412.00,1.20
7411.00,1.20
7410.00,1.19
7409.00,1.19
7408.00,1.19
7407.00,1.19
7406.00,1.19
7405.00,1.19
7404.00,1.19
7403.00,1.18
7402.00,1.18
7401.00,1.18
7400.00,1.18
7399.00,1.18
7398.00,1.18
7397.00,1.17
7396.00,1.17
7395.00,1.17
7394.00,1.17
7393.00,1.17
7392.00,1.17
7391.00,1.17
7390.00,1.16
7389.00,1.16
7388.00,1.16
7387.00,1.16
7386.00,1.16
7385.00,1.16
7384.00,1.16
7383.00,1.16
7382.00,1.16
7381.00,1.16
7380.00,1.16
7379.00,1.16
7378.00,1.16
7377.00,1.16
7376.00,1.16
7375.00,1.16
7374.00,1.16
7373.00,1.16
7372.00,1.16
7371.00,1.16
7370.00,1.16
7369.00,1.16
7368.00,1.16
7367.00,1.16
7366.00,1.16
7365.00,1.16
7364.00,1.16
7363.00,1.15
7362.00,1.15
7361.00,1.15
7360.00,1.15
7359.00,1.15
7358.00,1.15
7357.00,1.15
7356.00,1.15
7355.00,1.15
7354.00,1.15
7353.00,1.15
7352.00,1.15
7351.00,1.15
7350.00,1.15
7349.00,1.15
7348.00,1.15
7347.00,1.14
7346.00,1.14
7345.00,1.14
7344.00,1.14
7343.00,1.14
7342.00,1.14
7341.00,1.14
7340.00,1.14
7339.00,1.14
7338.00,1.14
7337.00,1.14
7336.00,1.14
7335.00,1.14
7334.00,1.14
7333.00,1.14
7332.00,1.14
7331.00,1.14
7330.00,1.14
7329.00,1.14
7328.00,1.14
7327.00,1.14
7326.00,1.14
7325.00,1.14
7324.00,1.14
7323.00,1.14
7322.00,1.14
7321.00,1.14
7320.00,1.14
7319.00,1.14
7318.00,1.14
7317.00,1.14
7316.00,1.13
7315.00,1.13
7314.00,1.13
7313.00,1.13
7312.00,1.13
7311.00,1.13
7310.00,1.13
7309.00,1.13
7308.00,1.13
7307.00,1.13
7306.00,1.13
7305.00,1.13
7304.00,1.12
7303.00,1.12
7302.00,1.12
7301.00,1.12
7300.00,1.12
7299.00,1.12
7298.00,1.12
7297.00,1.12
7296.00,1.12
7295.00,1.12
7294.00,1.12
7293.00,1.12
7292.00,1.12
7291.00,1.12
7290.00,1.11
7289.00,1.11
7288.00,1.11
7287.00,1.11
7286.00,1.11
7285.00,1.11
7284.00,1.11
7283.00,1.11
7282.00,1.11
7281.00,1.11
7280.00,1.11
7279.00,1.11
7278.00,1.11
7277.00,1.10
7276.00,1.10
7275.00,1.10
7274.00,1.10
7273.00,1.10
7272.00,1.10
7271.00,1.10
7270.00,1.10
7269.00,1.10
7268.00,1.10
7267.00,1.09
7266.00,1.09
7265.00,1.09
7264.00,1.09
7263.00,1.09
7262.00,1.09
7261.00,1.09
7260.00,1.08
7259.00,1.08
7258.00,1.08
7257.00,1.08
7256.00,1.08
7255.00,1.08
7254.00,1.08
7253.00,1.08
7252.00,1.07
7251.00,1.07
7250.00,1.07
7249.00,1.07
7248.00,1.07
7247.00,1.06
7246.00,1.06
7245.00,1.06
7244.00,1.06
7243.00,1.06
7242.00,1.05
7241.00,1.05
7240.00,1.05
7239.00,1.04
7238.00,1.04
7237.00,1.04
7236.00,1.04
7235.00,1.03
7234.00,1.03
7233.00,1.03
7232.00,1.02
7231.00,1.02
7230.00,1.02
7229.00,1.01
7228.00,1.01
7227.00,1.01
7226.00,1.01
7225.00,1.00
7224.00,1.00
7223.00,1.00
7222.00,0.99
7221.00,0.99
7220.00,0.99
7219.00,0.98
7218.00,0.98
7217.00,0.98
7216.00,0.97
7215.00,0.97
7214.00,0.97
7213.00,0.96
7212.00,0.96
7211.00,0.96
7210.00,0.96
7209.00,0.95
7208.00,0.95
7207.00,0.95
7206.00,0.94
7205.00,0.94
7204.00,0.94
7203.00,0.94
7202.00,0.93
7201.00,0.93
7200.00,0.93
7199.00,0.92
7198.00,0.92
7197.00,0.92
7196.00,0.91
7195.00,0.91
7194.00,0.91
7193.00,0.90
7192.00,0.90
7191.00,0.90
7190.00,0.89
7189.00,0.89
7188.00,0.89
7187.00,0.89
7186.00,0.88
7185.00,0.88
7184.00,0.88
7183.00,0.88
7182.00,0.87
7181.00,0.87
7180.00,0.87
7179.00,0.87
7178.00,0.86
7177.00,0.86
7176.00,0.86
7175.00,0.86
7174.00,0.86
7173.00,0.85
7172.00,0.85
7171.00,0.85
7170.00,0.85
7169.00,0.85
7168.00,0.84
7167.00,0.84
7166.00,0.84
7165.00,0.84
7164.00,0.84
7163.00,0.83
7162.00,0.83
7161.00,0.83
7160.00,0.83
7159.00,0.82
7158.00,0.82
7157.00,0.82
7156.00,0.82
7155.00,0.81
7154.00,0.81
7153.00,0.81
7152.00,0.81
7151.00,0.80
7150.00,0.80
7149.00,0.80
7148.00,0.80
7147.00,0.79
7146.00,0.79
7145.00,0.79
7144.00,0.79
7143.00,0.78
7142.00,0.78
7141.00,0.78
7140.00,0.78
7139.00,0.77
7138.00,0.77
7137.00,0.77
7136.00,0.77
7135.00,0.77
7134.00,0.77
7133.00,0.76
7132.00,0.76
7131.00,0.76
7130.00,0.76
7129.00,0.76
7128.00,0.75
7127.00,0.75
7126.00,0.75
7125.00,0.75
7124.00,0.74
7123.00,0.74
7122.00,0.74
7121.00,0.74
7120.00,0.73
7119.00,0.73
7118.00,0.73
7117.00,0.73
7116.00,0.72
7115.00,0.72
7114.00,0.72
7113.00,0.72
7112.00,0.71
7111.00,0.71
7110.00,0.71
7109.00,0.71
7108.00,0.71
7107.00,0.70
7106.00,0.70
7105.00,0.70
7104.00,0.70
7103.00,0.70
7102.00,0.69
7101.00,0.69
7100.00,0.69
7099.00,0.69
7098.00,0.69
7097.00,0.68
7096.00,0.68
7095.00,0.68
7094.00,0.68
7093.00,0.68
7092.00,0.67
7091.00,0.67
7090.00,0.67
7089.00,0.67
7088.00,0.67
7087.00,0.66
7086.00,0.66
7085.00,0.66
7084.00,0.66
7083.00,0.66
7082.00,0.66
7081.00,0.65
7080.00,0.65
7079.00,0.65
7078.00,0.65
7077.00,0.65
7076.00,0.65
7075.00,0.64
7074.00,0.64
7073.00,0.64
7072.00,0.64
7071.00,0.64
7070.00,0.64
7069.00,0.63
7068.00,0.63
7067.00,0.63
7066.00,0.63
7065.00,0.63
7064.00,0.63
7063.00,0.63
7062.00,0.63
7061.00,0.63
7060.00,0.62
7059.00,0.62
7058.00,0.62
7057.00,0.62
7056.00,0.62
7055.00,0.62
7054.00,0.62
7053.00,0.62
7052.00,0.61
7051.00,0.61
7050.00,0.61
7049.00,0.61
7048.00,0.61
7047.00,0.61
7046.00,0.61
7045.00,0.60
7044.00,0.60
7043.00,0.60
7042.00,0.60
7041.00,0.60
7040.00,0.60
7039.00,0.60
7038.00,0.59
7037.00,0.59
7036.00,0.59
7035.00,0.59
7034.00,0.59
7033.00,0.59
7032.00,0.59
7031.00,0.59
7030.00,0.59
7029.00,0.59
7028.00,0.58
7027.00,0.58
7026.00,0.58
7025.00,0.58
7024.00,0.58
7023.00,0.58
7022.00,0.58
7021.00,0.58
7020.00,0.58
7019.00,0.58
7018.00,0.58
7017.00,0.57
7016.00,0.57
7015.00,0.57
7014.00,0.57
7013.00,0.57
7012.00,0.57
7011.00,0.57
7010.00,0.57
7009.00,0.57
7008.00,0.57
7007.00,0.57
7006.00,0.57
7005.00,0.57
7004.00,0.57
7003.00,0.57
7002.00,0.57
7001.00,0.57
7000.00,0.57
6999.00,0.57
6998.00,0.57
6997.00,0.56
6996.00,0.56
6995.00,0.56
6994.00,0.56
6993.00,0.56
6992.00,0.56
6991.00,0.56
6990.00,0.56
6989.00,0.56
6988.00,0.55
6987.00,0.55
6986.00,0.55
6985.00,0.55
6984.00,0.55
6983.00,0.55
6982.00,0.55
6981.00,0.55
6980.00,0.55
6979.00,0.55
6978.00,0.55
6977.00,0.55
6976.00,0.55
6975.00,0.55
6974.00,0.55
6973.00,0.55
6972.00,0.54
6971.00,0.54
6970.00,0.54
6969.00,0.54
6968.00,0.54
6967.00,0.54
6966.00,0.54
6965.00,0.54
6964.00,0.54
6963.00,0.54
6962.00,0.54
6961.00,0.54
6960.00,0.54
6959.00,0.54
6958.00,0.54
6957.00,0.54
6956.00,0.54
6955.00,0.55
6954.00,0.55
6953.00,0.55
6952.00,0.55
6951.00,0.55
6950.00,0.55
6949.00,0.55
6948.00,0.55
6947.00,0.55
6946.00,0.55
6945.00,0.55
6944.00,0.55
6943.00,0.55
6942.00,0.55
6941.00,0.55
6940.00,0.55
6939.00,0.55
6938.00,0.55
6937.00,0.55
6936.00,0.55
6935.00,0.55
6934.00,0.55
6933.00,0.55
6932.00,0.55
6931.00,0.55
6930.00,0.55
6929.00,0.55
6928.00,0.54
6927.00,0.54
6926.00,0.54
6925.00,0.54
6924.00,0.54
6923.00,0.54
6922.00,0.54
6921.00,0.54
6920.00,0.54
6919.00,0.54
6918.00,0.54
6917.00,0.54
6916.00,0.54
6915.00,0.54
6914.00,0.54
6913.00,0.54
6912.00,0.54
6911.00,0.54
6910.00,0.54
6909.00,0.54
6908.00,0.54
6907.00,0.54
6906.00,0.54
6905.00,0.54
6904.00,0.54
6903.00,0.54
6902.00,0.54
6901.00,0.54
6900.00,0.54
6899.00,0.54
6898.00,0.54
6897.00,0.54
6896.00,0.54
6895.00,0.54
6894.00,0.53
6893.00,0.53
6892.00,0.53
6891.00,0.53
6890.00,0.53
6889.00,0.53
6888.00,0.53
6887.00,0.53
6886.00,0.53
6885.00,0.53
6884.00,0.53
6883.00,0.53
6882.00,0.53
6881.00,0.53
6880.00,0.53
6879.00,0.53
6878.00,0.53
6877.00,0.53
6876.00,0.52
6875.00,0.52
6874.00,0.52
6873.00,0.52
6872.00,0.52
6871.00,0.53
6870.00,0.53
6869.00,0.53
6868.00,0.53
6867.00,0.53
6866.00,0.53
6865.00,0.53
6864.00,0.53
6863.00,0.53
6862.00,0.53
6861.00,0.53
6860.00,0.53
6859.00,0.53
6858.00,0.53
6857.00,0.53
6856.00,0.53
6855.00,0.53
6854.00,0.53
6853.00,0.53
6852.00,0.53
6851.00,0.53
6850.00,0.53
6849.00,0.53
6848.00,0.53
6847.00,0.53
6846.00,0.53
6845.00,0.53
6844.00,0.53
6843.00,0.53
6842.00,0.53
6841.00,0.53
6840.00,0.54
6839.00,0.54
6838.00,0.54
6837.00,0.54
6836.00,0.54
6835.00,0.54
6834.00,0.54
6833.00,0.54
6832.00,0.54
6831.00,0.54
6830.00,0.54
6829.00,0.54
6828.00,0.54
6827.00,0.54
6826.00,0.54
6825.00,0.54
6824.00,0.54
6823.00,0.54
6822.00,0.54
6821.00,0.54
6820.00,0.54
6819.00,0.54
6818.00,0.54
6817.00,0.54
6816.00,0.54
6815.00,0.54
6814.00,0.54
6813.00,0.54
6812.00,0.54
6811.00,0.54
6810.00,0.54
6809.00,0.54
6808.00,0.54
6807.00,0.54
6806.00,0.54
6805.00,0.54
6804.00,0.54
6803.00,0.54
6802.00,0.54
6801.00,0.54
6800.00,0.54
6799.00,0.54
6798.00,0.54
6797.00,0.54
6796.00,0.54
6795.00,0.54
6794.00,0.54
6793.00,0.54
6792.00,0.54
6791.00,0.54
6790.00,0.54
6789.00,0.54
6788.00,0.54
6787.00,0.54
6786.00,0.55
6785.00,0.55
6784.00,0.55
6783.00,0.55
6782.00,0.55
6781.00,0.55
6780.00,0.55
6779.00,0.55
6778.00,0.55
6777.00,0.55
6776.00,0.55
6775.00,0.55
6774.00,0.55
6773.00,0.55
6772.00,0.55
6771.00,0.55
6770.00,0.55
6769.00,0.55
6768.00,0.56
6767.00,0.56
6766.00,0.56
6765.00,0.56
6764.00,0.56
6763.00,0.56
6762.00,0.56
6761.00,0.56
6760.00,0.56
6759.00,0.56
6758.00,0.56
6757.00,0.56
6756.00,0.56
6755.00,0.56
6754.00,0.56
6753.00,0.56
6752.00,0.56
6751.00,0.56
6750.00,0.56
6749.00,0.56
6748.00,0.56
6747.00,0.56
6746.00,0.56
6745.00,0.56
6744.00,0.56
6743.00,0.57
6742.00,0.57
6741.00,0.57
6740.00,0.57
6739.00,0.57
6738.00,0.57
6737.00,0.57
6736.00,0.57
6735.00,0.57
6734.00,0.57
6733.00,0.58
6732.00,0.58
6731.00,0.58
6730.00,0.58
6729.00,0.58
6728.00,0.58
6727.00,0.58
6726.00,0.58
6725.00,0.58
6724.00,0.58
6723.00,0.58
6722.00,0.58
6721.00,0.58
6720.00,0.58
6719.00,0.58
6718.00,0.58
6717.00,0.58
6716.00,0.58
6715.00,0.59
6714.00,0.59
6713.00,0.59
6712.00,0.59
6711.00,0.59
6710.00,0.59
6709.00,0.59
6708.00,0.59
6707.00,0.60
6706.00,0.60
6705.00,0.60
6704.00,0.60
6703.00,0.60
6702.00,0.60
6701.00,0.60
6700.00,0.60
6699.00,0.60
6698.00,0.60
6697.00,0.60
6696.00,0.60
6695.00,0.60
6694.00,0.60
6693.00,0.60
6692.00,0.60
6691.00,0.60
6690.00,0.60
6689.00,0.60
6688.00,0.60
6687.00,0.60
6686.00,0.60
6685.00,0.60
6684.00,0.60
6683.00,0.60
6682.00,0.60
6681.00,0.61
6680.00,0.61
6679.00,0.61
6678.00,0.61
6677.00,0.61
6676.00,0.61
6675.00,0.61
6674.00,0.61
6673.00,0.61
6672.00,0.61
6671.00,0.61
6670.00,0.61
6669.00,0.62
6668.00,0.62
6667.00,0.62
6666.00,0.62
6665.00,0.62
6664.00,0.62
6663.00,0.62
6662.00,0.62
6661.00,0.62
6660.00,0.62
6659.00,0.62
6658.00,0.62
6657.00,0.62
6656.00,0.62
6655.00,0.62
6654.00,0.63
6653.00,0.63
6652.00,0.63
6651.00,0.63
6650.00,0.63
6649.00,0.63
6648.00,0.63
6647.00,0.63
6646.00,0.63
6645.00,0.63
6644.00,0.63
6643.00,0.63
6642.00,0.63
6641.00,0.63
6640.00,0.63
6639.00,0.63
6638.00,0.63
6637.00,0.64
6636.00,0.64
6635.00,0.64
6634.00,0.64
6633.00,0.64
6632.00,0.64
6631.00,0.64
6630.00,0.64
6629.00,0.64
6628.00,0.64
6627.00,0.65
6626.00,0.65
6625.00,0.65
6624.00,0.65
6623.00,0.65
6622.00,0.65
6621.00,0.65
6620.00,0.65
6619.00,0.65
6618.00,0.65
6617.00,0.65
6616.00,0.65
6615.00,0.66
6614.00,0.66
6613.00,0.66
6612.00,0.66
6611.00,0.66
6610.00,0.66
6609.00,0.66
6608.00,0.66
6607.00,0.66
6606.00,0.66
6605.00,0.66
6604.00,0.67
6603.00,0.67
6602.00,0.67
6601.00,0.67
6600.00,0.67
6599.00,0.67
6598.00,0.67
6597.00,0.67
6596.00,0.67
6595.00,0.68
6594.00,0.68
6593.00,0.68
6592.00,0.68
6591.00,0.68
6590.00,0.68
6589.00,0.68
6588.00,0.68
6587.00,0.68
6586.00,0.68
6585.00,0.68
6584.00,0.69
6583.00,0.69
6582.00,0.69
6581.00,0.69
6580.00,0.69
6579.00,0.69
6578.00,0.69
6577.00,0.69
6576.00,0.69
6575.00,0.69
6574.00,0.69
6573.00,0.69
6572.00,0.69
6571.00,0.69
6570.00,0.69
6569.00,0.70
6568.00,0.70
6567.00,0.70
6566.00,0.70
6565.00,0.70
6564.00,0.70
6563.00,0.70
6562.00,0.70
6561.00,0.70
6560.00,0.70
6559.00,0.70
6558.00,0.70
6557.00,0.71
6556.00,0.71
6555.00,0.71
6554.00,0.71
6553.00,0.71
6552.00,0.71
6551.00,0.71
6550.00,0.71
6549.00,0.71
6548.00,0.71
6547.00,0.71
6546.00,0.71
6545.00,0.71
6544.00,0.71
6543.00,0.71
6542.00,0.72
6541.00,0.72
6540.00,0.72
6539.00,0.72
6538.00,0.72
6537.00,0.72
6536.00,0.72
6535.00,0.72
6534.00,0.72
6533.00,0.72
6532.00,0.72
6531.00,0.72
6530.00,0.72
6529.00,0.73
6528.00,0.73
6527.00,0.73
6526.00,0.73
6525.00,0.73
6524.00,0.73
6523.00,0.73
6522.00,0.73
6521.00,0.73
6520.00,0.73
6519.00,0.73
6518.00,0.74
6517.00,0.74
6516.00,0.74
6515.00,0.74
6514.00,0.74
6513.00,0.74
6512.00,0.74
6511.00,0.74
6510.00,0.74
6509.00,0.74
6508.00,0.74
6507.00,0.75
6506.00,0.75
6505.00,0.75
6504.00,0.75
6503.00,0.75
6502.00,0.75
6501.00,0.75
6500.00,0.75
6499.00,0.75
6498.00,0.75
6497.00,0.75
6496.00,0.75
6495.00,0.75
6494.00,0.75
6493.00,0.75
6492.00,0.75
6491.00,0.75
6490.00,0.75
6489.00,0.76
6488.00,0.76
6487.00,0.76
6486.00,0.76
6485.00,0.76
6484.00,0.76
6483.00,0.76
6482.00,0.76
6481.00,0.76
6480.00,0.76
6479.00,0.76
6478.00,0.76
6477.00,0.76
6476.00,0.76
6475.00,0.76
6474.00,0.76
6473.00,0.76
6472.00,0.76
6471.00,0.76
6470.00,0.76
6469.00,0.77
6468.00,0.77
6467.00,0.77
6466.00,0.77
6465.00,0.77
6464.00,0.77
6463.00,0.77
6462.00,0.77
6461.00,0.77
6460.00,0.77
6459.00,0.77
6458.00,0.77
6457.00,0.77
6456.00,0.77
6455.00,0.77
6454.00,0.77
6453.00,0.77
6452.00,0.78
6451.00,0.78
6450.00,0.78
6449.00,0.78
6448.00,0.78
6447.00,0.78
6446.00,0.78
6445.00,0.78
6444.00,0.78
6443.00,0.78
6442.00,0.78
6441.00,0.78
6440.00,0.78
6439.00,0.78
6438.00,0.78
6437.00,0.78
6436.00,0.78
6435.00,0.78
6434.00,0.78
6433.00,0.78
6432.00,0.78
6431.00,0.78
6430.00,0.78
6429.00,0.78
6428.00,0.79
6427.00,0.79
6426.00,0.79
6425.00,0.79
6424.00,0.79
6423.00,0.79
6422.00,0.79
6421.00,0.79
6420.00,0.79
6419.00,0.79
6418.00,0.79
6417.00,0.79
6416.00,0.79
6415.00,0.79
6414.00,0.79
6413.00,0.79
6412.00,0.79
6411.00,0.80
6410.00,0.80
6409.00,0.80
6408.00,0.80
6407.00,0.80
6406.00,0.80
6405.00,0.80
6404.00,0.80
6403.00,0.80
6402.00,0.80
6401.00,0.80
6400.00,0.80
6399.00,0.80
6398.00,0.80
6397.00,0.80
6396.00,0.80
6395.00,0.80
6394.00,0.80
6393.00,0.80
6392.00,0.80
6391.00,0.80
6390.00,0.80
6389.00,0.80
6388.00,0.80
6387.00,0.81
6386.00,0.81
6385.00,0.81
6384.00,0.81
6383.00,0.81
6382.00,0.81
6381.00,0.81
6380.00,0.81
6379.00,0.81
6378.00,0.81
6377.00,0.81
6376.00,0.81
6375.00,0.81
6374.00,0.82
6373.00,0.82
6372.00,0.82
6371.00,0.82
6370.00,0.82
6369.00,0.82
6368.00,0.82
6367.00,0.82
6366.00,0.82
6365.00,0.82
6364.00,0.82
6363.00,0.82
6362.00,0.82
6361.00,0.82
6360.00,0.82
6359.00,0.82
6358.00,0.82
6357.00,0.82
6356.00,0.82
6355.00,0.82
6354.00,0.82
6353.00,0.82
6352.00,0.82
6351.00,0.82
6350.00,0.82
6349.00,0.83
6348.00,0.83
6347.00,0.83
6346.00,0.83
6345.00,0.83
6344.00,0.83
6343.00,0.83
6342.00,0.83
6341.00,0.83
6340.00,0.83
6339.00,0.84
6338.00,0.84
6337.00,0.84
6336.00,0.84
6335.00,0.84
6334.00,0.84
6333.00,0.84
6332.00,0.84
6331.00,0.84
6330.00,0.84
6329.00,0.84
6328.00,0.84
6327.00,0.85
6326.00,0.85
6325.00,0.85
6324.00,0.85
6323.00,0.85
6322.00,0.85
6321.00,0.85
6320.00,0.85
6319.00,0.85
6318.00,0.86
6317.00,0.86
6316.00,0.86
6315.00,0.86
6314.00,0.86
6313.00,0.86
6312.00,0.86
6311.00,0.87
6310.00,0.87
6309.00,0.87
6308.00,0.87
6307.00,0.87
6306.00,0.87
6305.00,0.87
6304.00,0.87
6303.00,0.87
6302.00,0.87
6301.00,0.87
6300.00,0.87
6299.00,0.87
6298.00,0.87
6297.00,0.88
6296.00,0.88
6295.00,0.88
6294.00,0.88
6293.00,0.88
6292.00,0.88
6291.00,0.88
6290.00,0.88
6289.00,0.88
6288.00,0.88
6287.00,0.88
6286.00,0.88
6285.00,0.89
6284.00,0.89
6283.00,0.89
6282.00,0.89
6281.00,0.89
6280.00,0.89
6279.00,0.89
6278.00,0.89
6277.00,0.89
6276.00,0.89
6275.00,0.90
6274.00,0.90
6273.00,0.90
6272.00,0.90
6271.00,0.90
6270.00,0.90
6269.00,0.90
6268.00,0.90
6267.00,0.90
6266.00,0.90
6265.00,0.90
6264.00,0.91
6263.00,0.91
6262.00,0.91
6261.00,0.91
6260.00,0.91
6259.00,0.91
6258.00,0.91
6257.00,0.91
6256.00,0.91
6255.00,0.92
6254.00,0.92
6253.00,0.92
6252.00,0.92
6251.00,0.92
6250.00,0.92
6249.00,0.92
6248.00,0.92
6247.00,0.93
6246.00,0.93
6245.00,0.93
6244.00,0.93
6243.00,0.93
6242.00,0.93
6241.00,0.93
6240.00,0.94
6239.00,0.94
6238.00,0.94
6237.00,0.94
6236.00,0.94
6235.00,0.94
6234.00,0.94
6233.00,0.94
6232.00,0.95
6231.00,0.95
6230.00,0.95
6229.00,0.95
6228.00,0.95
6227.00,0.95
6226.00,0.95
6225.00,0.95
6224.00,0.95
6223.00,0.95
6222.00,0.96
6221.00,0.96
6220.00,0.96
6219.00,0.96
6218.00,0.96
6217.00,0.96
6216.00,0.96
6215.00,0.96
6214.00,0.96
6213.00,0.96
6212.00,0.96
6211.00,0.96
6210.00,0.97
6209.00,0.97
6208.00,0.97
6207.00,0.97
6206.00,0.97
6205.00,0.97
6204.00,0.97
6203.00,0.97
6202.00,0.98
6201.00,0.98
6200.00,0.98
6199.00,0.98
6198.00,0.98
6197.00,0.98
6196.00,0.98
6195.00,0.98
6194.00,0.98
6193.00,0.98
6192.00,0.99
6191.00,0.99
6190.00,0.99
6189.00,0.99
6188.00,0.99
6187.00,0.99
6186.00,0.99
6185.00,1.00
6184.00,1.00
6183.00,1.00
6182.00,1.00
6181.00,1.00
6180.00,1.00
6179.00,1.00
6178.00,1.00
6177.00,1.00
6176.00,1.01
6175.00,1.01
6174.00,1.01
6173.00,1.01
6172.00,1.01
6171.00,1.01
6170.00,1.01
6169.00,1.01
6168.00,1.01
6167.00,1.01
6166.00,1.02
6165.00,1.02
6164.00,1.02
6163.00,1.02
6162.00,1.02
6161.00,1.02
6160.00,1.02
6159.00,1.02
6158.00,1.02
6157.00,1.03
6156.00,1.03
6155.00,1.03
6154.00,1.03
6153.00,1.03
6152.00,1.03
6151.00,1.03
6150.00,1.04
6149.00,1.04
6148.00,1.04
6147.00,1.04
6146.00,1.04
6145.00,1.04
6144.00,1.04
6143.00,1.04
6142.00,1.05
6141.00,1.05
6140.00,1.05
6139.00,1.05
6138.00,1.05
6137.00,1.05
6136.00,1.05
6135.00,1.06
6134.00,1.06
6133.00,1.06
6132.00,1.06
6131.00,1.06
6130.00,1.06
6129.00,1.06
6128.00,1.07
6127.00,1.07
6126.00,1.07
6125.00,1.07
6124.00,1.07
6123.00,1.07
6122.00,1.08
6121.00,1.08
6120.00,1.08
6119.00,1.08
6118.00,1.08
6117.00,1.08
6116.00,1.08
6115.00,1.08
6114.00,1.09
6113.00,1.09
6112.00,1.09
6111.00,1.09
6110.00,1.09
6109.00,1.09
6108.00,1.09
6107.00,1.09
6106.00,1.09
6105.00,1.10
6104.00,1.10
6103.00,1.10
6102.00,1.10
6101.00,1.10
6100.00,1.10
6099.00,1.10
6098.00,1.11
6097.00,1.11
6096.00,1.11
6095.00,1.11
6094.00,1.11
6093.00,1.11
6092.00,1.11
6091.00,1.12
6090.00,1.12
6089.00,1.12
6088.00,1.12
6087.00,1.12
6086.00,1.12
6085.00,1.12
6084.00,1.12
6083.00,1.12
6082.00,1.12
6081.00,1.12
6080.00,1.13
6079.00,1.13
6078.00,1.13
6077.00,1.13
6076.00,1.13
6075.00,1.13
6074.00,1.13
6073.00,1.13
6072.00,1.13
6071.00,1.13
6070.00,1.13
6069.00,1.13
6068.00,1.14
6067.00,1.14
6066.00,1.14
6065.00,1.14
6064.00,1.14
6063.00,1.14
6062.00,1.14
6061.00,1.14
6060.00,1.14
6059.00,1.14
6058.00,1.14
6057.00,1.14
6056.00,1.15
6055.00,1.15
6054.00,1.15
6053.00,1.15
6052.00,1.15
6051.00,1.15
6050.00,1.15
6049.00,1.15
6048.00,1.15
6047.00,1.15
6046.00,1.15
6045.00,1.15
6044.00,1.15
6043.00,1.15
6042.00,1.16
6041.00,1.16
6040.00,1.16
6039.00,1.16
6038.00,1.16
6037.00,1.16
6036.00,1.16
6035.00,1.16
6034.00,1.16
6033.00,1.16
6032.00,1.16
6031.00,1.16
6030.00,1.16
6029.00,1.16
6028.00,1.16
6027.00,1.16
6026.00,1.16
6025.00,1.16
6024.00,1.16
6023.00,1.16
6022.00,1.16
6021.00,1.16
6020.00,1.16
6019.00,1.16
6018.00,1.16
6017.00,1.16
6016.00,1.16
6015.00,1.16
6014.00,1.16
6013.00,1.16
6012.00,1.16
6011.00,1.16
6010.00,1.16
6009.00,1.16
6008.00,1.16
6007.00,1.16
6006.00,1.16
6005.00,1.16
6004.00,1.16
6003.00,1.16
6002.00,1.16
6001.00,1.16
6000.00,1.16
5999.00,1.16
5998.00,1.16
5997.00,1.16
5996.00,1.16
5995.00,1.16
5994.00,1.16
5993.00,1.16
5992.00,1.16
5991.00,1.16
5990.00,1.16
5989.00,1.15
5988.00,1.15
5987.00,1.15
5986.00,1.15
5985.00,1.15
5984.00,1.14
5983.00,1.14
5982.00,1.14
5981.00,1.13
5980.00,1.13
5979.00,1.13
5978.00,1.12
5977.00,1.12
5976.00,1.12
5975.00,1.11
5974.00,1.11
5973.00,1.10
5972.00,1.10
5971.00,1.09
5970.00,1.09
5969.00,1.08
5968.00,1.08
5967.00,1.07
5966.00,1.07
5965.00,1.06
5964.00,1.05
5963.00,1.05
5962.00,1.04
5961.00,1.03
5960.00,1.03
5959.00,1.02
5958.00,1.01
5957.00,1.01
5956.00,1.00
5955.00,0.99
5954.00,0.99
5953.00,0.98
5952.00,0.98
5951.00,0.97
5950.00,0.97
5949.00,0.96
5948.00,0.96
5947.00,0.95
5946.00,0.95
5945.00,0.95
5944.00,0.94
5943.00,0.94
5942.00,0.94
5941.00,0.94
5940.00,0.94
5939.00,0.93
5938.00,0.93
5937.00,0.93
5936.00,0.93
5935.00,0.93
5934.00,0.93
5933.00,0.93
5932.00,0.93
5931.00,0.93
5930.00,0.93
5929.00,0.93
5928.00,0.93
5927.00,0.92
5926.00,0.92
5925.00,0.92
5924.00,0.92
5923.00,0.92
5922.00,0.92
5921.00,0.91
5920.00,0.91
5919.00,0.91
5918.00,0.91
5917.00,0.90
5916.00,0.90
5915.00,0.90
5914.00,0.90
5913.00,0.90
5912.00,0.89
5911.00,0.89
5910.00,0.89
5909.00,0.89
5908.00,0.89
5907.00,0.88
5906.00,0.88
5905.00,0.88
5904.00,0.88
5903.00,0.88
5902.00,0.88
5901.00,0.88
5900.00,0.88
5899.00,0.88
5898.00,0.88
5897.00,0.88
5896.00,0.89
5895.00,0.89
5894.00,0.89
5893.00,0.89
5892.00,0.89
5891.00,0.90
5890.00,0.90
5889.00,0.90
5888.00,0.90
5887.00,0.91
5886.00,0.91
5885.00,0.91
5884.00,0.91
5883.00,0.92
5882.00,0.92
5881.00,0.92
5880.00,0.92
5879.00,0.92
5878.00,0.93
5877.00,0.93
5876.00,0.93
5875.00,0.93
5874.00,0.94
5873.00,0.94
5872.00,0.94
5871.00,0.94
5870.00,0.95
5869.00,0.95
5868.00,0.95
5867.00,0.95
5866.00,0.95
5865.00,0.96
5864.00,0.96
5863.00,0.96
5862.00,0.96
5861.00,0.96
5860.00,0.96
5859.00,0.97
5858.00,0.97
5857.00,0.97
5856.00,0.97
5855.00,0.97
5854.00,0.97
5853.00,0.97
5852.00,0.97
5851.00,0.97
5850.00,0.97
5849.00,0.97
5848.00,0.97
5847.00,0.97
5846.00,0.97
5845.00,0.97
5844.00,0.97
5843.00,0.97
5842.00,0.97
5841.00,0.97
5840.00,0.97
5839.00,0.97
5838.00,0.97
5837.00,0.97
5836.00,0.97
5835.00,0.97
5834.00,0.97
5833.00,0.97
5832.00,0.97
5831.00,0.97
5830.00,0.97
5829.00,0.97
5828.00,0.97
5827.00,0.97
5826.00,0.97
5825.00,0.97
5824.00,0.97
5823.00,0.97
5822.00,0.97
5821.00,0.97
5820.00,0.97
5819.00,0.97
5818.00,0.97
5817.00,0.97
5816.00,0.97
5815.00,0.97
5814.00,0.97
5813.00,0.97
5812.00,0.98
5811.00,0.98
5810.00,0.98
5809.00,0.98
5808.00,0.98
5807.00,0.98
5806.00,0.98
5805.00,0.98
5804.00,0.97
5803.00,0.97
5802.00,0.97
5801.00,0.97
5800.00,0.97
5799.00,0.97
5798.00,0.97
5797.00,0.96
5796.00,0.96
5795.00,0.96
5794.00,0.96
5793.00,0.96
5792.00,0.95
5791.00,0.95
5790.00,0.95
5789.00,0.95
5788.00,0.94
5787.00,0.94
5786.00,0.94
5785.00,0.94
5784.00,0.94
5783.00,0.94
5782.00,0.93
5781.00,0.93
5780.00,0.93
5779.00,0.93
5778.00,0.93
5777.00,0.93
5776.00,0.93
5775.00,0.93
5774.00,0.93
5773.00,0.93
5772.00,0.93
5771.00,0.93
5770.00,0.93
5769.00,0.93
5768.00,0.93
5767.00,0.93
5766.00,0.93
5765.00,0.93
5764.00,0.93
5763.00,0.94
5762.00,0.94
5761.00,0.94
5760.00,0.94
5759.00,0.94
5758.00,0.95
5757.00,0.95
5756.00,0.95
5755.00,0.96
5754.00,0.96
5753.00,0.96
5752.00,0.96
5751.00,0.97
5750.00,0.97
5749.00,0.97
5748.00,0.98
5747.00,0.98
5746.00,0.98
5745.00,0.99
5744.00,0.99
5743.00,0.99
5742.00,1.00
5741.00,1.00
5740.00,1.00
5739.00,1.00
5738.00,1.01
5737.00,1.01
5736.00,1.01
5735.00,1.01
5734.00,1.01
5733.00,1.02
5732.00,1.02
5731.00,1.02
5730.00,1.02
5729.00,1.02
5728.00,1.02
5727.00,1.02
5726.00,1.03
5725.00,1.03
5724.00,1.03
5723.00,1.03
5722.00,1.03
5721.00,1.03
5720.00,1.03
5719.00,1.03
5718.00,1.03
5717.00,1.03
5716.00,1.03
5715.00,1.03
5714.00,1.03
5713.00,1.03
5712.00,1.03
5711.00,1.03
5710.00,1.03
5709.00,1.03
5708.00,1.03
5707.00,1.03
5706.00,1.03
5705.00,1.03
5704.00,1.03
5703.00,1.03
5702.00,1.03
5701.00,1.03
5700.00,1.03
5699.00,1.03
5698.00,1.02
5697.00,1.02
5696.00,1.02
5695.00,1.02
5694.00,1.02
5693.00,1.02
5692.00,1.02
5691.00,1.01
5690.00,1.01
5689.00,1.01
5688.00,1.01
5687.00,1.01
5686.00,1.01
5685.00,1.00
5684.00,1.00
5683.00,1.00
5682.00,1.00
5681.00,1.00
5680.00,1.00
5679.00,1.00
5678.00,1.00
5677.00,1.00
5676.00,1.00
5675.00,1.00
5674.00,1.00
5673.00,1.00
5672.00,1.00
5671.00,1.00
5670.00,1.00
5669.00,1.00
5668.00,1.00
5667.00,1.00
5666.00,1.00
5665.00,1.00
5664.00,1.00
5663.00,1.01
5662.00,1.01
5661.00,1.01
5660.00,1.01
5659.00,1.01
5658.00,1.01
5657.00,1.01
5656.00,1.02
5655.00,1.02
5654.00,1.02
5653.00,1.02
5652.00,1.02
5651.00,1.02
5650.00,1.03
5649.00,1.03
5648.00,1.03
5647.00,1.03
5646.00,1.03
5645.00,1.03
5644.00,1.04
5643.00,1.04
5642.00,1.04
5641.00,1.04
5640.00,1.04
5639.00,1.05
5638.00,1.05
5637.00,1.05
5636.00,1.05
5635.00,1.05
5634.00,1.05
5633.00,1.05
5632.00,1.06
5631.00,1.06
5630.00,1.06
5629.00,1.06
5628.00,1.06
5627.00,1.06
5626.00,1.06
5625.00,1.06
5624.00,1.07
5623.00,1.07
5622.00,1.07
5621.00,1.07
5620.00,1.07
5619.00,1.07
5618.00,1.07
5617.00,1.07
5616.00,1.08
5615.00,1.08
5614.00,1.08
5613.00,1.08
5612.00,1.08
5611.00,1.08
5610.00,1.08
5609.00,1.09
5608.00,1.09
5607.00,1.09
5606.00,1.09
5605.00,1.09
5604.00,1.09
5603.00,1.10
5602.00,1.10
5601.00,1.10
5600.00,1.10
5599.00,1.10
5598.00,1.10
5597.00,1.11
5596.00,1.11
5595.00,1.11
5594.00,1.11
5593.00,1.11
5592.00,1.11
5591.00,1.12
5590.00,1.12
5589.00,1.12
5588.00,1.12
5587.00,1.12
5586.00,1.12
5585.00,1.13
5584.00,1.13
5583.00,1.13
5582.00,1.13
5581.00,1.13
5580.00,1.13
5579.00,1.14
5578.00,1.14
5577.00,1.14
5576.00,1.14
5575.00,1.14
5574.00,1.14
5573.00,1.14
5572.00,1.14
5571.00,1.15
5570.00,1.15
5569.00,1.15
5568.00,1.15
5567.00,1.15
5566.00,1.15
5565.00,1.15
5564.00,1.15
5563.00,1.15
5562.00,1.15
5561.00,1.16
5560.00,1.16
5559.00,1.16
5558.00,1.16
5557.00,1.16
5556.00,1.16
5555.00,1.16
5554.00,1.16
5553.00,1.17
5552.00,1.17
5551.00,1.17
5550.00,1.17
5549.00,1.17
5548.00,1.17
5547.00,1.17
5546.00,1.17
5545.00,1.17
5544.00,1.18
5543.00,1.18
5542.00,1.18
5541.00,1.18
5540.00,1.18
5539.00,1.18
5538.00,1.18
5537.00,1.18
5536.00,1.18
5535.00,1.19
5534.00,1.19
5533.00,1.19
5532.00,1.19
5531.00,1.19
5530.00,1.19
5529.00,1.19
5528.00,1.19
5527.00,1.19
5526.00,1.19
5525.00,1.19
5524.00,1.19
5523.00,1.20
5522.00,1.20
5521.00,1.20
5520.00,1.20
5519.00,1.20
5518.00,1.20
5517.00,1.20
5516.00,1.20
5515.00,1.20
5514.00,1.20
5513.00,1.20
5512.00,1.20
5511.00,1.20
5510.00,1.20
5509.00,1.20
5508.00,1.21
5507.00,1.21
5506.00,1.21
5505.00,1.21
5504.00,1.21
5503.00,1.21
5502.00,1.21
5501.00,1.21
5500.00,1.21
5499.00,1.21
5498.00,1.21
5497.00,1.21
5496.00,1.21
5495.00,1.21
5494.00,1.22
5493.00,1.22
5492.00,1.22
5491.00,1.22
5490.00,1.22
5489.00,1.22
5488.00,1.22
5487.00,1.22
5486.00,1.22
5485.00,1.22
5484.00,1.22
5483.00,1.22
5482.00,1.22
5481.00,1.22
5480.00,1.23
5479.00,1.23
5478.00,1.23
5477.00,1.23
5476.00,1.23
5475.00,1.23
5474.00,1.23
5473.00,1.23
5472.00,1.23
5471.00,1.24
5470.00,1.24
5469.00,1.24
5468.00,1.24
5467.00,1.24
5466.00,1.24
5465.00,1.24
5464.00,1.24
5463.00,1.25
5462.00,1.25
5461.00,1.25
5460.00,1.25
5459.00,1.25
5458.00,1.25
5457.00,1.25
5456.00,1.25
5455.00,1.25
5454.00,1.25
5453.00,1.26
5452.00,1.26
5451.00,1.26
5450.00,1.26
5449.00,1.26
5448.00,1.26
5447.00,1.26
5446.00,1.26
5445.00,1.26
5444.00,1.26
5443.00,1.26
5442.00,1.26
5441.00,1.26
5440.00,1.26
5439.00,1.26
5438.00,1.26
5437.00,1.26
5436.00,1.26
5435.00,1.26
5434.00,1.26
5433.00,1.26
5432.00,1.26
5431.00,1.26
5430.00,1.26
5429.00,1.26
5428.00,1.26
5427.00,1.26
5426.00,1.26
5425.00,1.26
5424.00,1.26
5423.00,1.26
5422.00,1.26
5421.00,1.26
5420.00,1.26
5419.00,1.26
5418.00,1.26
5417.00,1.26
5416.00,1.26
5415.00,1.26
5414.00,1.26
5413.00,1.26
5412.00,1.26
5411.00,1.26
5410.00,1.26
5409.00,1.26
5408.00,1.26
5407.00,1.26
5406.00,1.26
5405.00,1.26
5404.00,1.26
5403.00,1.26
5402.00,1.26
5401.00,1.26
5400.00,1.26
5399.00,1.26
5398.00,1.26
5397.00,1.26
5396.00,1.26
5395.00,1.26
5394.00,1.26
5393.00,1.25
5392.00,1.25
5391.00,1.25
5390.00,1.25
5389.00,1.25
5388.00,1.25
5387.00,1.24
5386.00,1.24
5385.00,1.24
5384.00,1.24
5383.00,1.23
5382.00,1.23
5381.00,1.23
5380.00,1.23
5379.00,1.22
5378.00,1.22
5377.00,1.22
5376.00,1.21
5375.00,1.21
5374.00,1.21
5373.00,1.20
5372.00,1.20
5371.00,1.20
5370.00,1.19
5369.00,1.19
5368.00,1.18
5367.00,1.18
5366.00,1.17
5365.00,1.17
5364.00,1.16
5363.00,1.16
5362.00,1.15
5361.00,1.15
5360.00,1.14
5359.00,1.14
5358.00,1.13
5357.00,1.12
5356.00,1.12
5355.00,1.11
5354.00,1.10
5353.00,1.10
5352.00,1.09
5351.00,1.08
5350.00,1.08
5349.00,1.07
5348.00,1.06
5347.00,1.05
5346.00,1.04
5345.00,1.04
5344.00,1.03
5343.00,1.02
5342.00,1.01
5341.00,1.00
5340.00,0.99
5339.00,0.99
5338.00,0.98
5337.00,0.97
5336.00,0.96
5335.00,0.95
5334.00,0.94
5333.00,0.93
5332.00,0.92
5331.00,0.91
5330.00,0.90
5329.00,0.89
5328.00,0.88
5327.00,0.87
5326.00,0.87
5325.00,0.86
5324.00,0.85
5323.00,0.84
5322.00,0.83
5321.00,0.82
5320.00,0.81
5319.00,0.80
5318.00,0.79
5317.00,0.79
5316.00,0.78
5315.00,0.77
5314.00,0.76
5313.00,0.75
5312.00,0.75
5311.00,0.74
5310.00,0.73
5309.00,0.72
5308.00,0.72
5307.00,0.71
5306.00,0.70
5305.00,0.70
5304.00,0.69
5303.00,0.69
5302.00,0.68
5301.00,0.68
5300.00,0.67
5299.00,0.67
5298.00,0.67
5297.00,0.66
5296.00,0.66
5295.00,0.66
5294.00,0.65
5293.00,0.65
5292.00,0.65
5291.00,0.64
5290.00,0.64
5289.00,0.64
5288.00,0.64
5287.00,0.64
5286.00,0.63
5285.00,0.63
5284.00,0.63
5283.00,0.63
5282.00,0.63
5281.00,0.63
5280.00,0.63
5279.00,0.63
5278.00,0.62
5277.00,0.62
5276.00,0.62
5275.00,0.62
5274.00,0.62
5273.00,0.62
5272.00,0.62
5271.00,0.62
5270.00,0.62
5269.00,0.62
5268.00,0.62
5267.00,0.62
5266.00,0.62
5265.00,0.62
5264.00,0.62
5263.00,0.62
5262.00,0.62
5261.00,0.62
5260.00,0.61
5259.00,0.61
5258.00,0.61
5257.00,0.61
5256.00,0.61
5255.00,0.61
5254.00,0.61
5253.00,0.61
5252.00,0.61
5251.00,0.61
5250.00,0.61
5249.00,0.61
5248.00,0.61
5247.00,0.61
5246.00,0.61
5245.00,0.61
5244.00,0.61
5243.00,0.61
5242.00,0.61
5241.00,0.61
5240.00,0.61
5239.00,0.61
5238.00,0.61
5237.00,0.61
5236.00,0.61
5235.00,0.61
5234.00,0.61
5233.00,0.61
5232.00,0.61
5231.00,0.61
5230.00,0.61
5229.00,0.61
5228.00,0.61
5227.00,0.61
5226.00,0.61
5225.00,0.61
5224.00,0.61
5223.00,0.61
5222.00,0.61
5221.00,0.61
5220.00,0.61
5219.00,0.61
5218.00,0.61
5217.00,0.61
5216.00,0.61
5215.00,0.61
5214.00,0.61
5213.00,0.62
5212.00,0.62
5211.00,0.62
5210.00,0.62
5209.00,0.62
5208.00,0.62
5207.00,0.62
5206.00,0.62
5205.00,0.62
5204.00,0.62
5203.00,0.62
5202.00,0.62
5201.00,0.62
5200.00,0.62
5199.00,0.62
5198.00,0.62
5197.00,0.62
5196.00,0.62
5195.00,0.62
5194.00,0.62
5193.00,0.63
5192.00,0.63
5191.00,0.63
5190.00,0.63
5189.00,0.63
5188.00,0.63
5187.00,0.63
5186.00,0.63
5185.00,0.63
5184.00,0.63
5183.00,0.63
5182.00,0.63
5181.00,0.63
5180.00,0.63
5179.00,0.63
5178.00,0.63
5177.00,0.63
5176.00,0.63
5175.00,0.63
5174.00,0.63
5173.00,0.63
5172.00,0.63
5171.00,0.63
5170.00,0.63
5169.00,0.63
5168.00,0.64
5167.00,0.64
5166.00,0.64
5165.00,0.64
5164.00,0.64
5163.00,0.64
5162.00,0.64
5161.00,0.64
5160.00,0.64
5159.00,0.64
5158.00,0.64
5157.00,0.64
5156.00,0.64
5155.00,0.64
5154.00,0.64
5153.00,0.64
5152.00,0.64
5151.00,0.64
5150.00,0.64
5149.00,0.64
5148.00,0.64
5147.00,0.64
5146.00,0.64
5145.00,0.65
5144.00,0.65
5143.00,0.65
5142.00,0.65
5141.00,0.65
5140.00,0.65
5139.00,0.65
5138.00,0.65
5137.00,0.65
5136.00,0.65
5135.00,0.65
5134.00,0.65
5133.00,0.65
5132.00,0.65
5131.00,0.65
5130.00,0.65
5129.00,0.65
5128.00,0.65
5127.00,0.66
5126.00,0.66
5125.00,0.66
5124.00,0.66
5123.00,0.66
5122.00,0.66
5121.00,0.66
5120.00,0.66
5119.00,0.66
5118.00,0.66
5117.00,0.66
5116.00,0.66
5115.00,0.66
5114.00,0.66
5113.00,0.66
5112.00,0.66
5111.00,0.66
5110.00,0.66
5109.00,0.66
5108.00,0.66
5107.00,0.66
5106.00,0.66
5105.00,0.66
5104.00,0.66
5103.00,0.66
5102.00,0.66
5101.00,0.66
5100.00,0.66
5099.00,0.67
5098.00,0.67
5097.00,0.67
5096.00,0.67
5095.00,0.67
5094.00,0.67
5093.00,0.67
5092.00,0.67
5091.00,0.67
5090.00,0.67
5089.00,0.67
5088.00,0.67
5087.00,0.67
5086.00,0.67
5085.00,0.67
5084.00,0.67
5083.00,0.67
5082.00,0.68
5081.00,0.68
5080.00,0.68
5079.00,0.68
5078.00,0.68
5077.00,0.68
5076.00,0.68
5075.00,0.68
5074.00,0.68
5073.00,0.68
5072.00,0.68
5071.00,0.68
5070.00,0.68
5069.00,0.68
5068.00,0.68
5067.00,0.68
5066.00,0.68
5065.00,0.68
5064.00,0.68
5063.00,0.68
5062.00,0.68
5061.00,0.68
5060.00,0.68
5059.00,0.69
5058.00,0.69
5057.00,0.69
5056.00,0.69
5055.00,0.69
5054.00,0.69
5053.00,0.69
5052.00,0.69
5051.00,0.69
5050.00,0.69
5049.00,0.69
5048.00,0.69
5047.00,0.69
5046.00,0.69
5045.00,0.69
5044.00,0.69
5043.00,0.69
5042.00,0.69
5041.00,0.69
5040.00,0.70
5039.00,0.70
5038.00,0.70
5037.00,0.70
5036.00,0.70
5035.00,0.70
5034.00,0.70
5033.00,0.70
5032.00,0.70
5031.00,0.70
5030.00,0.70
5029.00,0.70
5028.00,0.70
5027.00,0.70
5026.00,0.70
5025.00,0.70
5024.00,0.70
5023.00,0.70
5022.00,0.71
5021.00,0.71
5020.00,0.71
5019.00,0.71
5018.00,0.71
5017.00,0.71
5016.00,0.71
5015.00,0.71
5014.00,0.71
5013.00,0.71
5012.00,0.71
5011.00,0.71
5010.00,0.72
5009.00,0.72
5008.00,0.72
5007.00,0.72
5006.00,0.72
5005.00,0.72
5004.00,0.72
5003.00,0.72
5002.00,0.72
5001.00,0.72
5000.00,0.72
4999.00,0.72
4998.00,0.72
4997.00,0.72
4996.00,0.72
4995.00,0.72
4994.00,0.72
4993.00,0.72
4992.00,0.72
4991.00,0.72
4990.00,0.73
4989.00,0.73
4988.00,0.73
4987.00,0.73
4986.00,0.73
4985.00,0.73
4984.00,0.73
4983.00,0.73
4982.00,0.73
4981.00,0.73
4980.00,0.73
4979.00,0.74
4978.00,0.74
4977.00,0.74
4976.00,0.74
4975.00,0.74
4974.00,0.74
4973.00,0.74
4972.00,0.74
4971.00,0.74
4970.00,0.74
4969.00,0.74
4968.00,0.74
4967.00,0.74
4966.00,0.75
4965.00,0.75
4964.00,0.75
4963.00,0.75
4962.00,0.75
4961.00,0.75
4960.00,0.75
4959.00,0.75
4958.00,0.75
4957.00,0.75
4956.00,0.75
4955.00,0.75
4954.00,0.76
4953.00,0.76
4952.00,0.76
4951.00,0.76
4950.00,0.76
4949.00,0.76
4948.00,0.76
4947.00,0.76
4946.00,0.76
4945.00,0.76
4944.00,0.76
4943.00,0.76
4942.00,0.76
4941.00,0.76
4940.00,0.76
4939.00,0.76
4938.00,0.76
4937.00,0.76
4936.00,0.76
4935.00,0.77
4934.00,0.77
4933.00,0.77
4932.00,0.77
4931.00,0.77
4930.00,0.77
4929.00,0.77
4928.00,0.77
4927.00,0.77
4926.00,0.77
4925.00,0.77
4924.00,0.77
4923.00,0.77
4922.00,0.77
4921.00,0.78
4920.00,0.78
4919.00,0.78
4918.00,0.78
4917.00,0.78
4916.00,0.78
4915.00,0.78
4914.00,0.78
4913.00,0.78
4912.00,0.78
4911.00,0.78
4910.00,0.78
4909.00,0.78
4908.00,0.78
4907.00,0.78
4906.00,0.78
4905.00,0.79
4904.00,0.79
4903.00,0.79
4902.00,0.79
4901.00,0.79
4900.00,0.79
4899.00,0.79
4898.00,0.79
4897.00,0.79
4896.00,0.79
4895.00,0.79
4894.00,0.79
4893.00,0.79
4892.00,0.79
4891.00,0.79
4890.00,0.79
4889.00,0.79
4888.00,0.79
4887.00,0.79
4886.00,0.80
4885.00,0.80
4884.00,0.80
4883.00,0.80
4882.00,0.80
4881.00,0.80
4880.00,0.80
4879.00,0.80
4878.00,0.80
4877.00,0.80
4876.00,0.80
4875.00,0.80
4874.00,0.80
4873.00,0.80
4872.00,0.80
4871.00,0.80
4870.00,0.80
4869.00,0.80
4868.00,0.80
4867.00,0.80
4866.00,0.80
4865.00,0.80
4864.00,0.80
4863.00,0.80
4862.00,0.80
4861.00,0.81
4860.00,0.81
4859.00,0.81
4858.00,0.81
4857.00,0.81
4856.00,0.81
4855.00,0.81
4854.00,0.81
4853.00,0.81
4852.00,0.81
4851.00,0.81
4850.00,0.81
4849.00,0.81
4848.00,0.81
4847.00,0.81
4846.00,0.82
4845.00,0.82
4844.00,0.82
4843.00,0.82
4842.00,0.82
4841.00,0.82
4840.00,0.82
4839.00,0.82
4838.00,0.82
4837.00,0.82
4836.00,0.82
4835.00,0.82
4834.00,0.82
4833.00,0.83
4832.00,0.83
4831.00,0.83
4830.00,0.83
4829.00,0.83
4828.00,0.83
4827.00,0.83
4826.00,0.83
4825.00,0.83
4824.00,0.83
4823.00,0.83
4822.00,0.83
4821.00,0.83
4820.00,0.83
4819.00,0.83
4818.00,0.83
4817.00,0.83
4816.00,0.83
4815.00,0.83
4814.00,0.83
4813.00,0.83
4812.00,0.84
4811.00,0.84
4810.00,0.84
4809.00,0.84
4808.00,0.84
4807.00,0.84
4806.00,0.84
4805.00,0.84
4804.00,0.85
4803.00,0.85
4802.00,0.85
4801.00,0.85
4800.00,0.85
4799.00,0.85
4798.00,0.85
4797.00,0.85
4796.00,0.85
4795.00,0.85
4794.00,0.85
4793.00,0.85
4792.00,0.85
4791.00,0.86
4790.00,0.86
4789.00,0.86
4788.00,0.86
4787.00,0.86
4786.00,0.86
4785.00,0.86
4784.00,0.86
4783.00,0.86
4782.00,0.87
4781.00,0.87
4780.00,0.87
4779.00,0.87
4778.00,0.87
4777.00,0.87
4776.00,0.87
4775.00,0.87
4774.00,0.88
4773.00,0.88
4772.00,0.88
4771.00,0.88
4770.00,0.88
4769.00,0.88
4768.00,0.88
4767.00,0.88
4766.00,0.89
4765.00,0.89
4764.00,0.89
4763.00,0.89
4762.00,0.89
4761.00,0.89
4760.00,0.89
4759.00,0.89
4758.00,0.89
4757.00,0.89
4756.00,0.89
4755.00,0.90
4754.00,0.90
4753.00,0.90
4752.00,0.90
4751.00,0.90
4750.00,0.90
4749.00,0.90
4748.00,0.90
4747.00,0.90
4746.00,0.90
4745.00,0.91
4744.00,0.91
4743.00,0.91
4742.00,0.91
4741.00,0.91
4740.00,0.91
4739.00,0.91
4738.00,0.91
4737.00,0.92
4736.00,0.92
4735.00,0.92
4734.00,0.92
4733.00,0.92
4732.00,0.92
4731.00,0.92
4730.00,0.93
4729.00,0.93
4728.00,0.93
4727.00,0.93
4726.00,0.93
4725.00,0.93
4724.00,0.94
4723.00,0.94
4722.00,0.94
4721.00,0.94
4720.00,0.94
4719.00,0.94
4718.00,0.95
4717.00,0.95
4716.00,0.95
4715.00,0.95
4714.00,0.95
4713.00,0.95
4712.00,0.95
4711.00,0.95
4710.00,0.96
4709.00,0.96
4708.00,0.96
4707.00,0.96
4706.00,0.96
4705.00,0.96
4704.00,0.96
4703.00,0.96
4702.00,0.96
4701.00,0.96
4700.00,0.97
4699.00,0.97
4698.00,0.97
4697.00,0.97
4696.00,0.97
4695.00,0.97
4694.00,0.97
4693.00,0.97
4692.00,0.98
4691.00,0.98
4690.00,0.98
4689.00,0.98
4688.00,0.98
4687.00,0.98
4686.00,0.98
4685.00,0.98
4684.00,0.99
4683.00,0.99
4682.00,0.99
4681.00,0.99
4680.00,0.99
4679.00,0.99
4678.00,0.99
4677.00,1.00
4676.00,1.00
4675.00,1.00
4674.00,1.00
4673.00,1.00
4672.00,1.00
4671.00,1.00
4670.00,1.00
4669.00,1.01
4668.00,1.01
4667.00,1.01
4666.00,1.01
4665.00,1.01
4664.00,1.01
4663.00,1.02
4662.00,1.02
4661.00,1.02
4660.00,1.02
4659.00,1.02
4658.00,1.02
4657.00,1.02
4656.00,1.03
4655.00,1.03
4654.00,1.03
4653.00,1.03
4652.00,1.03
4651.00,1.03
4650.00,1.03
4649.00,1.03
4648.00,1.04
4647.00,1.04
4646.00,1.04
4645.00,1.04
4644.00,1.04
4643.00,1.04
4642.00,1.04
4641.00,1.05
4640.00,1.05
4639.00,1.05
4638.00,1.05
4637.00,1.05
4636.00,1.05
4635.00,1.06
4634.00,1.06
4633.00,1.06
4632.00,1.06
4631.00,1.06
4630.00,1.06
4629.00,1.07
4628.00,1.07
4627.00,1.07
4626.00,1.07
4625.00,1.07
4624.00,1.07
4623.00,1.07
4622.00,1.07
4621.00,1.07
4620.00,1.07
4619.00,1.07
4618.00,1.07
4617.00,1.07
4616.00,1.07
4615.00,1.08
4614.00,1.08
4613.00,1.08
4612.00,1.08
4611.00,1.08
4610.00,1.08
4609.00,1.08
4608.00,1.08
4607.00,1.08
4606.00,1.08
4605.00,1.08
4604.00,1.09
4603.00,1.09
4602.00,1.09
4601.00,1.09
4600.00,1.09
4599.00,1.09
4598.00,1.09
4597.00,1.09
4596.00,1.09
4595.00,1.09
4594.00,1.09
4593.00,1.10
4592.00,1.10
4591.00,1.10
4590.00,1.10
4589.00,1.10
4588.00,1.10
4587.00,1.10
4586.00,1.10
4585.00,1.10
4584.00,1.10
4583.00,1.10
4582.00,1.10
4581.00,1.11
4580.00,1.11
4579.00,1.11
4578.00,1.11
4577.00,1.11
4576.00,1.11
4575.00,1.11
4574.00,1.11
4573.00,1.11
4572.00,1.11
4571.00,1.11
4570.00,1.11
4569.00,1.11
4568.00,1.11
4567.00,1.12
4566.00,1.12
4565.00,1.12
4564.00,1.12
4563.00,1.12
4562.00,1.12
4561.00,1.12
4560.00,1.12
4559.00,1.12
4558.00,1.12
4557.00,1.12
4556.00,1.12
4555.00,1.12
4554.00,1.12
4553.00,1.12
4552.00,1.12
4551.00,1.12
4550.00,1.13
4549.00,1.13
4548.00,1.13
4547.00,1.13
4546.00,1.13
4545.00,1.13
4544.00,1.13
4543.00,1.13
4542.00,1.13
4541.00,1.13
4540.00,1.13
4539.00,1.14
4538.00,1.14
4537.00,1.14
4536.00,1.14
4535.00,1.14
4534.00,1.14
4533.00,1.14
4532.00,1.14
4531.00,1.14
4530.00,1.14
4529.00,1.14
4528.00,1.14
4527.00,1.14
4526.00,1.14
4525.00,1.14
4524.00,1.14
4523.00,1.14
4522.00,1.14
4521.00,1.14
4520.00,1.14
4519.00,1.14
4518.00,1.14
4517.00,1.14
4516.00,1.14
4515.00,1.14
4514.00,1.14
4513.00,1.14
4512.00,1.14
4511.00,1.14
4510.00,1.14
4509.00,1.14
4508.00,1.14
4507.00,1.14
4506.00,1.14
4505.00,1.14
4504.00,1.14
4503.00,1.14
4502.00,1.14
4501.00,1.14
4500.00,1.14
4499.00,1.14
4498.00,1.14
4497.00,1.14
4496.00,1.14
4495.00,1.14
4494.00,1.14
4493.00,1.14
4492.00,1.14
4491.00,1.14
4490.00,1.14
4489.00,1.14
4488.00,1.14
4487.00,1.13
4486.00,1.13
4485.00,1.13
4484.00,1.13
4483.00,1.13
4482.00,1.13
4481.00,1.13
4480.00,1.13
4479.00,1.13
4478.00,1.12
4477.00,1.12
4476.00,1.12
4475.00,1.12
4474.00,1.12
4473.00,1.12
4472.00,1.11
4471.00,1.11
4470.00,1.11
4469.00,1.11
4468.00,1.11
4467.00,1.10
4466.00,1.10
4465.00,1.10
4464.00,1.10
4463.00,1.09
4462.00,1.09
4461.00,1.09
4460.00,1.08
4459.00,1.08
4458.00,1.08
4457.00,1.08
4456.00,1.07
4455.00,1.07
4454.00,1.07
4453.00,1.06
4452.00,1.06
4451.00,1.06
4450.00,1.06
4449.00,1.05
4448.00,1.05
4447.00,1.05
4446.00,1.04
4445.00,1.04
4444.00,1.04
4443.00,1.03
4442.00,1.03
4441.00,1.03
4440.00,1.02
4439.00,1.02
4438.00,1.02
4437.00,1.02
4436.00,1.01
4435.00,1.01
4434.00,1.01
4433.00,1.01
4432.00,1.00
4431.00,1.00
4430.00,1.00
4429.00,1.00
4428.00,1.00
4427.00,0.99
4426.00,0.99
4425.00,0.99
4424.00,0.99
4423.00,0.99
4422.00,0.99
4421.00,0.99
4420.00,0.99
4419.00,0.99
4418.00,0.99
4417.00,0.99
4416.00,0.99
4415.00,0.99
4414.00,0.99
4413.00,0.99
4412.00,0.99
4411.00,0.99
4410.00,0.99
4409.00,0.99
4408.00,0.99
4407.00,0.99
4406.00,0.99
4405.00,0.99
4404.00,0.99
4403.00,0.99
4402.00,0.99
4401.00,0.99
4400.00,0.99
4399.00,0.99
4398.00,0.99
4397.00,0.99
4396.00,1.00
4395.00,1.00
4394.00,1.00
4393.00,1.00
4392.00,1.00
4391.00,1.00
4390.00,1.00
4389.00,1.00
4388.00,1.00
4387.00,1.01
4386.00,1.01
4385.00,1.01
4384.00,1.01
4383.00,1.01
4382.00,1.01
4381.00,1.01
4380.00,1.01
4379.00,1.01
4378.00,1.01
4377.00,1.01
4376.00,1.01
4375.00,1.01
4374.00,1.01
4373.00,1.01
4372.00,1.01
4371.00,1.01
4370.00,1.01
4369.00,1.01
4368.00,1.01
4367.00,1.01
4366.00,1.02
4365.00,1.02
4364.00,1.02
4363.00,1.02
4362.00,1.02
4361.00,1.02
4360.00,1.02
4359.00,1.02
4358.00,1.02
4357.00,1.02
4356.00,1.02
4355.00,1.02
4354.00,1.03
4353.00,1.03
4352.00,1.03
4351.00,1.03
4350.00,1.03
4349.00,1.03
4348.00,1.03
4347.00,1.03
4346.00,1.03
4345.00,1.03
4344.00,1.03
4343.00,1.03
4342.00,1.03
4341.00,1.03
4340.00,1.03
4339.00,1.03
4338.00,1.03
4337.00,1.03
4336.00,1.03
4335.00,1.03
4334.00,1.03
4333.00,1.03
4332.00,1.03
4331.00,1.03
4330.00,1.03
4329.00,1.03
4328.00,1.03
4327.00,1.03
4326.00,1.03
4325.00,1.03
4324.00,1.03
4323.00,1.04
4322.00,1.04
4321.00,1.04
4320.00,1.04
4319.00,1.04
4318.00,1.04
4317.00,1.05
4316.00,1.05
4315.00,1.05
4314.00,1.05
4313.00,1.05
4312.00,1.05
4311.00,1.06
4310.00,1.06
4309.00,1.06
4308.00,1.06
4307.00,1.06
4306.00,1.06
4305.00,1.06
4304.00,1.06
4303.00,1.07
4302.00,1.07
4301.00,1.07
4300.00,1.07
4299.00,1.07
4298.00,1.07
4297.00,1.07
4296.00,1.07
4295.00,1.08
4294.00,1.08
4293.00,1.08
4292.00,1.08
4291.00,1.08
4290.00,1.08
4289.00,1.08
4288.00,1.08
4287.00,1.09
4286.00,1.09
4285.00,1.09
4284.00,1.09
4283.00,1.09
4282.00,1.09
4281.00,1.09
4280.00,1.09
4279.00,1.09
4278.00,1.09
4277.00,1.09
4276.00,1.10
4275.00,1.10
4274.00,1.10
4273.00,1.10
4272.00,1.10
4271.00,1.10
4270.00,1.10
4269.00,1.10
4268.00,1.10
4267.00,1.10
4266.00,1.10
4265.00,1.10
4264.00,1.10
4263.00,1.10
4262.00,1.10
4261.00,1.10
4260.00,1.10
4259.00,1.10
4258.00,1.10
4257.00,1.10
4256.00,1.10
4255.00,1.10
4254.00,1.10
4253.00,1.10
4252.00,1.10
4251.00,1.10
4250.00,1.10
4249.00,1.10
4248.00,1.10
4247.00,1.10
4246.00,1.10
4245.00,1.10
4244.00,1.10
4243.00,1.10
4242.00,1.10
4241.00,1.10
4240.00,1.10
4239.00,1.10
4238.00,1.10
4237.00,1.11
4236.00,1.11
4235.00,1.11
4234.00,1.11
4233.00,1.11
4232.00,1.11
4231.00,1.11
4230.00,1.11
4229.00,1.12
4228.00,1.12
4227.00,1.12
4226.00,1.12
4225.00,1.12
4224.00,1.12
4223.00,1.12
4222.00,1.12
4221.00,1.12
4220.00,1.12
4219.00,1.13
4218.00,1.13
4217.00,1.13
4216.00,1.13
4215.00,1.13
4214.00,1.13
4213.00,1.13
4212.00,1.13
4211.00,1.13
4210.00,1.13
4209.00,1.13
4208.00,1.13
4207.00,1.13
4206.00,1.13
4205.00,1.13
4204.00,1.13
4203.00,1.13
4202.00,1.13
4201.00,1.13
4200.00,1.14
4199.00,1.14
4198.00,1.14
4197.00,1.14
4196.00,1.14
4195.00,1.14
4194.00,1.14
4193.00,1.14
4192.00,1.14
4191.00,1.14
4190.00,1.14
4189.00,1.14
4188.00,1.14
4187.00,1.14
4186.00,1.15
4185.00,1.15
4184.00,1.15
4183.00,1.15
4182.00,1.15
4181.00,1.15
4180.00,1.15
4179.00,1.15
4178.00,1.15
4177.00,1.15
4176.00,1.15
4175.00,1.15
4174.00,1.15
4173.00,1.15
4172.00,1.15
4171.00,1.15
4170.00,1.15
4169.00,1.15
4168.00,1.15
4167.00,1.15
4166.00,1.15
4165.00,1.15
4164.00,1.15
4163.00,1.15
4162.00,1.15
4161.00,1.15
4160.00,1.15
4159.00,1.15
4158.00,1.15
4157.00,1.15
4156.00,1.15
4155.00,1.15
4154.00,1.15
4153.00,1.15
4152.00,1.15
4151.00,1.15
4150.00,1.15
4149.00,1.15
4148.00,1.15
4147.00,1.15
4146.00,1.15
4145.00,1.15
4144.00,1.15
4143.00,1.15
4142.00,1.15
4141.00,1.15
4140.00,1.15
4139.00,1.15
4138.00,1.15
4137.00,1.15
4136.00,1.15
4135.00,1.15
4134.00,1.15
4133.00,1.15
4132.00,1.15
4131.00,1.15
4130.00,1.16
4129.00,1.16
4128.00,1.16
4127.00,1.16
4126.00,1.16
4125.00,1.16
4124.00,1.16
4123.00,1.16
4122.00,1.17
4121.00,1.17
4120.00,1.17
4119.00,1.17
4118.00,1.17
4117.00,1.17
4116.00,1.17
4115.00,1.17
4114.00,1.17
4113.00,1.17
4112.00,1.17
4111.00,1.17
4110.00,1.17
4109.00,1.17
4108.00,1.17
4107.00,1.17
4106.00,1.17
4105.00,1.17
4104.00,1.17
4103.00,1.17
4102.00,1.17
4101.00,1.17
4100.00,1.17
4099.00,1.17
4098.00,1.17
4097.00,1.17
4096.00,1.17
4095.00,1.17
4094.00,1.17
4093.00,1.17
4092.00,1.17
4091.00,1.17
4090.00,1.17
4089.00,1.17
4088.00,1.17
4087.00,1.17
4086.00,1.17
4085.00,1.17
4084.00,1.17
4083.00,1.17
4082.00,1.17
4081.00,1.17
4080.00,1.18
4079.00,1.18
4078.00,1.18
4077.00,1.18
4076.00,1.18
4075.00,1.18
4074.00,1.18
4073.00,1.18
4072.00,1.19
4071.00,1.19
4070.00,1.19
4069.00,1.19
4068.00,1.19
4067.00,1.19
4066.00,1.20
4065.00,1.20
4064.00,1.20
4063.00,1.20
4062.00,1.20
4061.00,1.20
4060.00,1.21
4059.00,1.21
4058.00,1.21
4057.00,1.21
4056.00,1.21
4055.00,1.21
4054.00,1.21
4053.00,1.21
4052.00,1.21
4051.00,1.21
4050.00,1.21
4049.00,1.21
4048.00,1.21
4047.00,1.21
4046.00,1.21
4045.00,1.21
4044.00,1.21
4043.00,1.21
4042.00,1.21
4041.00,1.21
4040.00,1.21
4039.00,1.21
4038.00,1.22
4037.00,1.22
4036.00,1.22
4035.00,1.22
4034.00,1.22
4033.00,1.22
4032.00,1.22
4031.00,1.22
4030.00,1.22
4029.00,1.23
4028.00,1.23
4027.00,1.23
4026.00,1.23
4025.00,1.23
4024.00,1.23
4023.00,1.23
4022.00,1.23
4021.00,1.24
4020.00,1.24
4019.00,1.24
4018.00,1.24
4017.00,1.24
4016.00,1.24
4015.00,1.25
4014.00,1.25
4013.00,1.25
4012.00,1.25
4011.00,1.26
4010.00,1.26
4009.00,1.26
4008.00,1.26
4007.00,1.26
4006.00,1.26
4005.00,1.26
4004.00,1.26
4003.00,1.26
4002.00,1.26
4001.00,1.26
4000.00,1.26
