创建为新数据集,样品 018 用户 Administrator 日期 星期二, 十月 31 2017
cm-1,%T
10000.00,1.76
9999.00,1.76
9998.00,1.76
9997.00,1.76
9996.00,1.75
9995.00,1.75
9994.00,1.75
9993.00,1.74
9992.00,1.74
9991.00,1.74
9990.00,1.74
9989.00,1.73
9988.00,1.73
9987.00,1.73
9986.00,1.73
9985.00,1.73
9984.00,1.72
9983.00,1.72
9982.00,1.72
9981.00,1.72
9980.00,1.72
9979.00,1.72
9978.00,1.71
9977.00,1.71
9976.00,1.71
9975.00,1.71
9974.00,1.71
9973.00,1.71
9972.00,1.71
9971.00,1.72
9970.00,1.72
9969.00,1.72
9968.00,1.72
9967.00,1.72
9966.00,1.72
9965.00,1.72
9964.00,1.73
9963.00,1.73
9962.00,1.73
9961.00,1.73
9960.00,1.73
9959.00,1.73
9958.00,1.73
9957.00,1.74
9956.00,1.74
9955.00,1.74
9954.00,1.74
9953.00,1.74
9952.00,1.74
9951.00,1.74
9950.00,1.74
9949.00,1.74
9948.00,1.74
9947.00,1.74
9946.00,1.74
9945.00,1.75
9944.00,1.75
9943.00,1.75
9942.00,1.75
9941.00,1.75
9940.00,1.75
9939.00,1.75
9938.00,1.76
9937.00,1.76
9936.00,1.76
9935.00,1.76
9934.00,1.76
9933.00,1.76
9932.00,1.76
9931.00,1.76
9930.00,1.76
9929.00,1.76
9928.00,1.75
9927.00,1.75
9926.00,1.75
9925.00,1.75
9924.00,1.74
9923.00,1.74
9922.00,1.74
9921.00,1.73
9920.00,1.73
9919.00,1.73
9918.00,1.72
9917.00,1.72
9916.00,1.72
9915.00,1.71
9914.00,1.71
9913.00,1.71
9912.00,1.71
9911.00,1.70
9910.00,1.70
9909.00,1.70
9908.00,1.70
9907.00,1.70
9906.00,1.70
9905.00,1.70
9904.00,1.70
9903.00,1.70
9902.00,1.70
9901.00,1.70
9900.00,1.70
9899.00,1.70
9898.00,1.70
9897.00,1.70
9896.00,1.71
9895.00,1.71
9894.00,1.71
9893.00,1.71
9892.00,1.71
9891.00,1.71
9890.00,1.71
9889.00,1.71
9888.00,1.71
9887.00,1.71
9886.00,1.71
9885.00,1.72
9884.00,1.72
9883.00,1.72
9882.00,1.72
9881.00,1.72
9880.00,1.72
9879.00,1.72
9878.00,1.72
9877.00,1.72
9876.00,1.72
9875.00,1.72
9874.00,1.72
9873.00,1.72
9872.00,1.72
9871.00,1.72
9870.00,1.72
9869.00,1.73
9868.00,1.73
9867.00,1.73
9866.00,1.73
9865.00,1.73
9864.00,1.74
9863.00,1.74
9862.00,1.74
9861.00,1.74
9860.00,1.74
9859.00,1.74
9858.00,1.74
9857.00,1.74
9856.00,1.74
9855.00,1.74
9854.00,1.74
9853.00,1.74
9852.00,1.74
9851.00,1.74
9850.00,1.74
9849.00,1.73
9848.00,1.73
9847.00,1.73
9846.00,1.73
9845.00,1.73
9844.00,1.73
9843.00,1.73
9842.00,1.72
9841.00,1.72
9840.00,1.72
9839.00,1.72
9838.00,1.72
9837.00,1.72
9836.00,1.72
9835.00,1.71
9834.00,1.71
9833.00,1.71
9832.00,1.71
9831.00,1.71
9830.00,1.71
9829.00,1.70
9828.00,1.70
9827.00,1.70
9826.00,1.70
9825.00,1.70
9824.00,1.70
9823.00,1.70
9822.00,1.70
9821.00,1.70
9820.00,1.70
9819.00,1.69
9818.00,1.69
9817.00,1.69
9816.00,1.70
9815.00,1.70
9814.00,1.70
9813.00,1.70
9812.00,1.70
9811.00,1.70
9810.00,1.70
9809.00,1.70
9808.00,1.71
9807.00,1.71
9806.00,1.71
9805.00,1.71
9804.00,1.71
9803.00,1.72
9802.00,1.72
9801.00,1.72
9800.00,1.73
9799.00,1.73
9798.00,1.73
9797.00,1.73
9796.00,1.73
9795.00,1.73
9794.00,1.74
9793.00,1.74
9792.00,1.74
9791.00,1.74
9790.00,1.74
9789.00,1.74
9788.00,1.74
9787.00,1.74
9786.00,1.74
9785.00,1.74
9784.00,1.74
9783.00,1.74
9782.00,1.74
9781.00,1.74
9780.00,1.74
9779.00,1.74
9778.00,1.74
9777.00,1.75
9776.00,1.75
9775.00,1.75
9774.00,1.75
9773.00,1.75
9772.00,1.75
9771.00,1.75
9770.00,1.75
9769.00,1.75
9768.00,1.75
9767.00,1.75
9766.00,1.75
9765.00,1.75
9764.00,1.74
9763.00,1.74
9762.00,1.74
9761.00,1.74
9760.00,1.73
9759.00,1.73
9758.00,1.73
9757.00,1.73
9756.00,1.72
9755.00,1.72
9754.00,1.72
9753.00,1.72
9752.00,1.72
9751.00,1.72
9750.00,1.72
9749.00,1.72
9748.00,1.72
9747.00,1.73
9746.00,1.73
9745.00,1.73
9744.00,1.73
9743.00,1.73
9742.00,1.73
9741.00,1.74
9740.00,1.74
9739.00,1.74
9738.00,1.74
9737.00,1.74
9736.00,1.74
9735.00,1.74
9734.00,1.73
9733.00,1.73
9732.00,1.73
9731.00,1.73
9730.00,1.73
9729.00,1.72
9728.00,1.72
9727.00,1.72
9726.00,1.72
9725.00,1.72
9724.00,1.72
9723.00,1.72
9722.00,1.71
9721.00,1.71
9720.00,1.71
9719.00,1.71
9718.00,1.71
9717.00,1.72
9716.00,1.72
9715.00,1.72
9714.00,1.72
9713.00,1.72
9712.00,1.72
9711.00,1.72
9710.00,1.72
9709.00,1.72
9708.00,1.72
9707.00,1.72
9706.00,1.72
9705.00,1.72
9704.00,1.72
9703.00,1.72
9702.00,1.72
9701.00,1.72
9700.00,1.72
9699.00,1.72
9698.00,1.72
9697.00,1.72
9696.00,1.72
9695.00,1.72
9694.00,1.72
9693.00,1.73
9692.00,1.73
9691.00,1.73
9690.00,1.73
9689.00,1.73
9688.00,1.73
9687.00,1.73
9686.00,1.73
9685.00,1.73
9684.00,1.73
9683.00,1.73
9682.00,1.73
9681.00,1.73
9680.00,1.73
9679.00,1.73
9678.00,1.73
9677.00,1.73
9676.00,1.73
9675.00,1.73
9674.00,1.72
9673.00,1.72
9672.00,1.72
9671.00,1.72
9670.00,1.72
9669.00,1.72
9668.00,1.72
9667.00,1.71
9666.00,1.71
9665.00,1.71
9664.00,1.71
9663.00,1.71
9662.00,1.71
9661.00,1.71
9660.00,1.71
9659.00,1.71
9658.00,1.71
9657.00,1.71
9656.00,1.72
9655.00,1.72
9654.00,1.72
9653.00,1.72
9652.00,1.72
9651.00,1.72
9650.00,1.72
9649.00,1.73
9648.00,1.73
9647.00,1.73
9646.00,1.73
9645.00,1.73
9644.00,1.73
9643.00,1.73
9642.00,1.73
9641.00,1.74
9640.00,1.74
9639.00,1.74
9638.00,1.74
9637.00,1.74
9636.00,1.74
9635.00,1.74
9634.00,1.74
9633.00,1.73
9632.00,1.73
9631.00,1.73
9630.00,1.73
9629.00,1.73
9628.00,1.73
9627.00,1.73
9626.00,1.73
9625.00,1.73
9624.00,1.72
9623.00,1.72
9622.00,1.72
9621.00,1.72
9620.00,1.72
9619.00,1.72
9618.00,1.72
9617.00,1.72
9616.00,1.73
9615.00,1.73
9614.00,1.73
9613.00,1.73
9612.00,1.73
9611.00,1.73
9610.00,1.73
9609.00,1.73
9608.00,1.72
9607.00,1.72
9606.00,1.72
9605.00,1.72
9604.00,1.72
9603.00,1.72
9602.00,1.72
9601.00,1.72
9600.00,1.72
9599.00,1.72
9598.00,1.72
9597.00,1.72
9596.00,1.72
9595.00,1.72
9594.00,1.72
9593.00,1.72
9592.00,1.72
9591.00,1.72
9590.00,1.72
9589.00,1.72
9588.00,1.73
9587.00,1.73
9586.00,1.73
9585.00,1.73
9584.00,1.73
9583.00,1.73
9582.00,1.74
9581.00,1.74
9580.00,1.74
9579.00,1.74
9578.00,1.74
9577.00,1.74
9576.00,1.74
9575.00,1.74
9574.00,1.74
9573.00,1.74
9572.00,1.73
9571.00,1.73
9570.00,1.73
9569.00,1.73
9568.00,1.73
9567.00,1.72
9566.00,1.72
9565.00,1.72
9564.00,1.71
9563.00,1.71
9562.00,1.71
9561.00,1.71
9560.00,1.71
9559.00,1.71
9558.00,1.71
9557.00,1.71
9556.00,1.71
9555.00,1.71
9554.00,1.71
9553.00,1.71
9552.00,1.71
9551.00,1.71
9550.00,1.72
9549.00,1.72
9548.00,1.72
9547.00,1.72
9546.00,1.72
9545.00,1.72
9544.00,1.73
9543.00,1.73
9542.00,1.73
9541.00,1.73
9540.00,1.73
9539.00,1.73
9538.00,1.73
9537.00,1.73
9536.00,1.73
9535.00,1.73
9534.00,1.73
9533.00,1.73
9532.00,1.73
9531.00,1.73
9530.00,1.73
9529.00,1.73
9528.00,1.73
9527.00,1.73
9526.00,1.73
9525.00,1.73
9524.00,1.72
9523.00,1.72
9522.00,1.72
9521.00,1.72
9520.00,1.72
9519.00,1.72
9518.00,1.72
9517.00,1.71
9516.00,1.71
9515.00,1.71
9514.00,1.71
9513.00,1.71
9512.00,1.71
9511.00,1.71
9510.00,1.71
9509.00,1.71
9508.00,1.71
9507.00,1.71
9506.00,1.71
9505.00,1.71
9504.00,1.71
9503.00,1.71
9502.00,1.71
9501.00,1.71
9500.00,1.71
9499.00,1.72
9498.00,1.72
9497.00,1.72
9496.00,1.72
9495.00,1.72
9494.00,1.72
9493.00,1.72
9492.00,1.72
9491.00,1.72
9490.00,1.72
9489.00,1.72
9488.00,1.72
9487.00,1.72
9486.00,1.72
9485.00,1.72
9484.00,1.71
9483.00,1.71
9482.00,1.71
9481.00,1.71
9480.00,1.71
9479.00,1.71
9478.00,1.71
9477.00,1.71
9476.00,1.72
9475.00,1.72
9474.00,1.72
9473.00,1.72
9472.00,1.72
9471.00,1.72
9470.00,1.73
9469.00,1.73
9468.00,1.73
9467.00,1.73
9466.00,1.74
9465.00,1.74
9464.00,1.74
9463.00,1.74
9462.00,1.74
9461.00,1.75
9460.00,1.75
9459.00,1.75
9458.00,1.75
9457.00,1.75
9456.00,1.75
9455.00,1.75
9454.00,1.75
9453.00,1.75
9452.00,1.75
9451.00,1.76
9450.00,1.76
9449.00,1.75
9448.00,1.75
9447.00,1.75
9446.00,1.75
9445.00,1.75
9444.00,1.75
9443.00,1.75
9442.00,1.74
9441.00,1.74
9440.00,1.74
9439.00,1.73
9438.00,1.73
9437.00,1.73
9436.00,1.73
9435.00,1.72
9434.00,1.72
9433.00,1.72
9432.00,1.72
9431.00,1.72
9430.00,1.72
9429.00,1.72
9428.00,1.72
9427.00,1.72
9426.00,1.72
9425.00,1.72
9424.00,1.72
9423.00,1.72
9422.00,1.73
9421.00,1.73
9420.00,1.73
9419.00,1.73
9418.00,1.73
9417.00,1.73
9416.00,1.73
9415.00,1.73
9414.00,1.73
9413.00,1.74
9412.00,1.74
9411.00,1.74
9410.00,1.74
9409.00,1.74
9408.00,1.74
9407.00,1.74
9406.00,1.74
9405.00,1.74
9404.00,1.73
9403.00,1.73
9402.00,1.73
9401.00,1.73
9400.00,1.73
9399.00,1.73
9398.00,1.73
9397.00,1.73
9396.00,1.73
9395.00,1.73
9394.00,1.73
9393.00,1.72
9392.00,1.72
9391.00,1.72
9390.00,1.72
9389.00,1.72
9388.00,1.72
9387.00,1.72
9386.00,1.72
9385.00,1.72
9384.00,1.72
9383.00,1.72
9382.00,1.72
9381.00,1.72
9380.00,1.72
9379.00,1.72
9378.00,1.72
9377.00,1.72
9376.00,1.73
9375.00,1.73
9374.00,1.73
9373.00,1.73
9372.00,1.74
9371.00,1.74
9370.00,1.74
9369.00,1.75
9368.00,1.75
9367.00,1.75
9366.00,1.75
9365.00,1.76
9364.00,1.76
9363.00,1.76
9362.00,1.76
9361.00,1.76
9360.00,1.76
9359.00,1.76
9358.00,1.76
9357.00,1.75
9356.00,1.75
9355.00,1.75
9354.00,1.75
9353.00,1.75
9352.00,1.74
9351.00,1.74
9350.00,1.74
9349.00,1.74
9348.00,1.74
9347.00,1.74
9346.00,1.74
9345.00,1.74
9344.00,1.74
9343.00,1.74
9342.00,1.74
9341.00,1.74
9340.00,1.74
9339.00,1.74
9338.00,1.74
9337.00,1.74
9336.00,1.74
9335.00,1.74
9334.00,1.74
9333.00,1.74
9332.00,1.74
9331.00,1.74
9330.00,1.74
9329.00,1.74
9328.00,1.74
9327.00,1.74
9326.00,1.74
9325.00,1.74
9324.00,1.74
9323.00,1.74
9322.00,1.74
9321.00,1.74
9320.00,1.74
9319.00,1.74
9318.00,1.74
9317.00,1.74
9316.00,1.74
9315.00,1.74
9314.00,1.74
9313.00,1.74
9312.00,1.74
9311.00,1.74
9310.00,1.74
9309.00,1.73
9308.00,1.73
9307.00,1.73
9306.00,1.73
9305.00,1.73
9304.00,1.72
9303.00,1.72
9302.00,1.72
9301.00,1.71
9300.00,1.71
9299.00,1.71
9298.00,1.71
9297.00,1.70
9296.00,1.70
9295.00,1.70
9294.00,1.70
9293.00,1.70
9292.00,1.70
9291.00,1.70
9290.00,1.70
9289.00,1.70
9288.00,1.70
9287.00,1.71
9286.00,1.71
9285.00,1.71
9284.00,1.71
9283.00,1.71
9282.00,1.71
9281.00,1.71
9280.00,1.72
9279.00,1.72
9278.00,1.72
9277.00,1.72
9276.00,1.72
9275.00,1.72
9274.00,1.73
9273.00,1.73
9272.00,1.73
9271.00,1.73
9270.00,1.73
9269.00,1.73
9268.00,1.74
9267.00,1.74
9266.00,1.74
9265.00,1.74
9264.00,1.74
9263.00,1.74
9262.00,1.74
9261.00,1.74
9260.00,1.74
9259.00,1.74
9258.00,1.73
9257.00,1.73
9256.00,1.73
9255.00,1.73
9254.00,1.73
9253.00,1.73
9252.00,1.73
9251.00,1.73
9250.00,1.73
9249.00,1.73
9248.00,1.73
9247.00,1.73
9246.00,1.73
9245.00,1.74
9244.00,1.74
9243.00,1.74
9242.00,1.74
9241.00,1.74
9240.00,1.74
9239.00,1.74
9238.00,1.74
9237.00,1.74
9236.00,1.74
9235.00,1.74
9234.00,1.74
9233.00,1.73
9232.00,1.73
9231.00,1.73
9230.00,1.73
9229.00,1.73
9228.00,1.73
9227.00,1.73
9226.00,1.73
9225.00,1.73
9224.00,1.73
9223.00,1.73
9222.00,1.74
9221.00,1.74
9220.00,1.74
9219.00,1.74
9218.00,1.74
9217.00,1.74
9216.00,1.74
9215.00,1.74
9214.00,1.74
9213.00,1.74
9212.00,1.74
9211.00,1.73
9210.00,1.73
9209.00,1.73
9208.00,1.73
9207.00,1.73
9206.00,1.73
9205.00,1.73
9204.00,1.73
9203.00,1.73
9202.00,1.73
9201.00,1.73
9200.00,1.73
9199.00,1.73
9198.00,1.73
9197.00,1.73
9196.00,1.73
9195.00,1.73
9194.00,1.73
9193.00,1.73
9192.00,1.73
9191.00,1.73
9190.00,1.73
9189.00,1.73
9188.00,1.73
9187.00,1.74
9186.00,1.74
9185.00,1.74
9184.00,1.74
9183.00,1.74
9182.00,1.74
9181.00,1.74
9180.00,1.74
9179.00,1.74
9178.00,1.74
9177.00,1.74
9176.00,1.74
9175.00,1.74
9174.00,1.74
9173.00,1.74
9172.00,1.74
9171.00,1.73
9170.00,1.73
9169.00,1.73
9168.00,1.73
9167.00,1.72
9166.00,1.72
9165.00,1.72
9164.00,1.72
9163.00,1.72
9162.00,1.72
9161.00,1.72
9160.00,1.72
9159.00,1.72
9158.00,1.72
9157.00,1.73
9156.00,1.73
9155.00,1.73
9154.00,1.73
9153.00,1.74
9152.00,1.74
9151.00,1.74
9150.00,1.74
9149.00,1.75
9148.00,1.75
9147.00,1.75
9146.00,1.75
9145.00,1.75
9144.00,1.75
9143.00,1.75
9142.00,1.75
9141.00,1.74
9140.00,1.74
9139.00,1.74
9138.00,1.74
9137.00,1.74
9136.00,1.74
9135.00,1.74
9134.00,1.74
9133.00,1.74
9132.00,1.74
9131.00,1.74
9130.00,1.74
9129.00,1.74
9128.00,1.74
9127.00,1.74
9126.00,1.74
9125.00,1.75
9124.00,1.75
9123.00,1.75
9122.00,1.75
9121.00,1.75
9120.00,1.75
9119.00,1.76
9118.00,1.76
9117.00,1.76
9116.00,1.76
9115.00,1.76
9114.00,1.76
9113.00,1.76
9112.00,1.76
9111.00,1.76
9110.00,1.75
9109.00,1.75
9108.00,1.75
9107.00,1.75
9106.00,1.75
9105.00,1.75
9104.00,1.74
9103.00,1.74
9102.00,1.74
9101.00,1.74
9100.00,1.74
9099.00,1.74
9098.00,1.75
9097.00,1.75
9096.00,1.75
9095.00,1.75
9094.00,1.75
9093.00,1.75
9092.00,1.75
9091.00,1.75
9090.00,1.75
9089.00,1.75
9088.00,1.75
9087.00,1.75
9086.00,1.75
9085.00,1.75
9084.00,1.75
9083.00,1.75
9082.00,1.75
9081.00,1.75
9080.00,1.75
9079.00,1.76
9078.00,1.76
9077.00,1.76
9076.00,1.76
9075.00,1.76
9074.00,1.76
9073.00,1.76
9072.00,1.76
9071.00,1.76
9070.00,1.76
9069.00,1.76
9068.00,1.76
9067.00,1.76
9066.00,1.76
9065.00,1.76
9064.00,1.76
9063.00,1.76
9062.00,1.76
9061.00,1.76
9060.00,1.76
9059.00,1.76
9058.00,1.76
9057.00,1.75
9056.00,1.75
9055.00,1.75
9054.00,1.75
9053.00,1.75
9052.00,1.75
9051.00,1.75
9050.00,1.75
9049.00,1.75
9048.00,1.75
9047.00,1.75
9046.00,1.75
9045.00,1.75
9044.00,1.75
9043.00,1.75
9042.00,1.76
9041.00,1.76
9040.00,1.76
9039.00,1.76
9038.00,1.75
9037.00,1.75
9036.00,1.75
9035.00,1.75
9034.00,1.75
9033.00,1.75
9032.00,1.75
9031.00,1.75
9030.00,1.74
9029.00,1.74
9028.00,1.74
9027.00,1.74
9026.00,1.74
9025.00,1.74
9024.00,1.74
9023.00,1.74
9022.00,1.74
9021.00,1.74
9020.00,1.74
9019.00,1.75
9018.00,1.75
9017.00,1.75
9016.00,1.75
9015.00,1.75
9014.00,1.75
9013.00,1.75
9012.00,1.75
9011.00,1.75
9010.00,1.75
9009.00,1.75
9008.00,1.75
9007.00,1.75
9006.00,1.75
9005.00,1.75
9004.00,1.75
9003.00,1.75
9002.00,1.75
9001.00,1.75
9000.00,1.74
8999.00,1.74
8998.00,1.74
8997.00,1.74
8996.00,1.74
8995.00,1.74
8994.00,1.74
8993.00,1.74
8992.00,1.74
8991.00,1.74
8990.00,1.74
8989.00,1.74
8988.00,1.74
8987.00,1.74
8986.00,1.74
8985.00,1.74
8984.00,1.74
8983.00,1.74
8982.00,1.74
8981.00,1.74
8980.00,1.74
8979.00,1.74
8978.00,1.74
8977.00,1.74
8976.00,1.74
8975.00,1.74
8974.00,1.74
8973.00,1.74
8972.00,1.74
8971.00,1.74
8970.00,1.74
8969.00,1.74
8968.00,1.74
8967.00,1.74
8966.00,1.74
8965.00,1.74
8964.00,1.74
8963.00,1.74
8962.00,1.74
8961.00,1.74
8960.00,1.74
8959.00,1.74
8958.00,1.75
8957.00,1.75
8956.00,1.75
8955.00,1.75
8954.00,1.75
8953.00,1.75
8952.00,1.75
8951.00,1.75
8950.00,1.75
8949.00,1.75
8948.00,1.75
8947.00,1.75
8946.00,1.75
8945.00,1.75
8944.00,1.75
8943.00,1.75
8942.00,1.75
8941.00,1.75
8940.00,1.75
8939.00,1.75
8938.00,1.75
8937.00,1.75
8936.00,1.76
8935.00,1.76
8934.00,1.76
8933.00,1.76
8932.00,1.76
8931.00,1.76
8930.00,1.76
8929.00,1.76
8928.00,1.76
8927.00,1.76
8926.00,1.76
8925.00,1.76
8924.00,1.76
8923.00,1.76
8922.00,1.76
8921.00,1.75
8920.00,1.75
8919.00,1.75
8918.00,1.75
8917.00,1.75
8916.00,1.75
8915.00,1.75
8914.00,1.75
8913.00,1.74
8912.00,1.74
8911.00,1.74
8910.00,1.74
8909.00,1.74
8908.00,1.73
8907.00,1.73
8906.00,1.73
8905.00,1.73
8904.00,1.73
8903.00,1.73
8902.00,1.73
8901.00,1.73
8900.00,1.73
8899.00,1.73
8898.00,1.73
8897.00,1.73
8896.00,1.73
8895.00,1.73
8894.00,1.74
8893.00,1.74
8892.00,1.74
8891.00,1.74
8890.00,1.74
8889.00,1.74
8888.00,1.74
8887.00,1.74
8886.00,1.74
8885.00,1.74
8884.00,1.74
8883.00,1.74
8882.00,1.74
8881.00,1.74
8880.00,1.74
8879.00,1.74
8878.00,1.74
8877.00,1.74
8876.00,1.74
8875.00,1.74
8874.00,1.74
8873.00,1.74
8872.00,1.74
8871.00,1.74
8870.00,1.74
8869.00,1.74
8868.00,1.74
8867.00,1.74
8866.00,1.74
8865.00,1.74
8864.00,1.74
8863.00,1.74
8862.00,1.74
8861.00,1.74
8860.00,1.74
8859.00,1.74
8858.00,1.74
8857.00,1.73
8856.00,1.73
8855.00,1.73
8854.00,1.73
8853.00,1.73
8852.00,1.73
8851.00,1.73
8850.00,1.73
8849.00,1.72
8848.00,1.72
8847.00,1.72
8846.00,1.72
8845.00,1.72
8844.00,1.72
8843.00,1.72
8842.00,1.72
8841.00,1.72
8840.00,1.71
8839.00,1.71
8838.00,1.71
8837.00,1.71
8836.00,1.71
8835.00,1.71
8834.00,1.71
8833.00,1.71
8832.00,1.71
8831.00,1.71
8830.00,1.71
8829.00,1.71
8828.00,1.71
8827.00,1.71
8826.00,1.71
8825.00,1.71
8824.00,1.71
8823.00,1.71
8822.00,1.71
8821.00,1.71
8820.00,1.71
8819.00,1.71
8818.00,1.70
8817.00,1.70
8816.00,1.70
8815.00,1.70
8814.00,1.70
8813.00,1.70
8812.00,1.70
8811.00,1.69
8810.00,1.69
8809.00,1.69
8808.00,1.69
8807.00,1.69
8806.00,1.69
8805.00,1.69
8804.00,1.68
8803.00,1.68
8802.00,1.68
8801.00,1.68
8800.00,1.68
8799.00,1.68
8798.00,1.68
8797.00,1.68
8796.00,1.68
8795.00,1.68
8794.00,1.68
8793.00,1.68
8792.00,1.68
8791.00,1.68
8790.00,1.68
8789.00,1.68
8788.00,1.68
8787.00,1.68
8786.00,1.68
8785.00,1.68
8784.00,1.68
8783.00,1.69
8782.00,1.69
8781.00,1.69
8780.00,1.69
8779.00,1.69
8778.00,1.69
8777.00,1.69
8776.00,1.69
8775.00,1.69
8774.00,1.69
8773.00,1.69
8772.00,1.69
8771.00,1.69
8770.00,1.69
8769.00,1.69
8768.00,1.69
8767.00,1.69
8766.00,1.69
8765.00,1.69
8764.00,1.69
8763.00,1.69
8762.00,1.69
8761.00,1.69
8760.00,1.69
8759.00,1.69
8758.00,1.68
8757.00,1.68
8756.00,1.68
8755.00,1.68
8754.00,1.68
8753.00,1.68
8752.00,1.67
8751.00,1.67
8750.00,1.67
8749.00,1.67
8748.00,1.67
8747.00,1.67
8746.00,1.67
8745.00,1.66
8744.00,1.66
8743.00,1.66
8742.00,1.66
8741.00,1.66
8740.00,1.66
8739.00,1.66
8738.00,1.66
8737.00,1.66
8736.00,1.66
8735.00,1.66
8734.00,1.67
8733.00,1.67
8732.00,1.67
8731.00,1.67
8730.00,1.67
8729.00,1.67
8728.00,1.67
8727.00,1.67
8726.00,1.67
8725.00,1.67
8724.00,1.67
8723.00,1.67
8722.00,1.67
8721.00,1.67
8720.00,1.67
8719.00,1.67
8718.00,1.67
8717.00,1.67
8716.00,1.67
8715.00,1.67
8714.00,1.67
8713.00,1.66
8712.00,1.66
8711.00,1.66
8710.00,1.66
8709.00,1.66
8708.00,1.66
8707.00,1.66
8706.00,1.66
8705.00,1.66
8704.00,1.66
8703.00,1.66
8702.00,1.66
8701.00,1.66
8700.00,1.66
8699.00,1.66
8698.00,1.66
8697.00,1.66
8696.00,1.66
8695.00,1.66
8694.00,1.66
8693.00,1.66
8692.00,1.66
8691.00,1.66
8690.00,1.66
8689.00,1.66
8688.00,1.66
8687.00,1.66
8686.00,1.66
8685.00,1.65
8684.00,1.65
8683.00,1.65
8682.00,1.65
8681.00,1.65
8680.00,1.65
8679.00,1.65
8678.00,1.65
8677.00,1.65
8676.00,1.65
8675.00,1.65
8674.00,1.65
8673.00,1.65
8672.00,1.65
8671.00,1.65
8670.00,1.65
8669.00,1.65
8668.00,1.65
8667.00,1.65
8666.00,1.65
8665.00,1.65
8664.00,1.65
8663.00,1.65
8662.00,1.64
8661.00,1.64
8660.00,1.64
8659.00,1.64
8658.00,1.64
8657.00,1.64
8656.00,1.64
8655.00,1.64
8654.00,1.64
8653.00,1.64
8652.00,1.64
8651.00,1.64
8650.00,1.64
8649.00,1.64
8648.00,1.64
8647.00,1.64
8646.00,1.64
8645.00,1.64
8644.00,1.63
8643.00,1.63
8642.00,1.63
8641.00,1.63
8640.00,1.64
8639.00,1.64
8638.00,1.64
8637.00,1.64
8636.00,1.64
8635.00,1.64
8634.00,1.64
8633.00,1.64
8632.00,1.64
8631.00,1.64
8630.00,1.64
8629.00,1.64
8628.00,1.64
8627.00,1.64
8626.00,1.64
8625.00,1.64
8624.00,1.64
8623.00,1.64
8622.00,1.64
8621.00,1.64
8620.00,1.64
8619.00,1.64
8618.00,1.64
8617.00,1.64
8616.00,1.64
8615.00,1.64
8614.00,1.63
8613.00,1.63
8612.00,1.63
8611.00,1.63
8610.00,1.63
8609.00,1.63
8608.00,1.63
8607.00,1.63
8606.00,1.63
8605.00,1.63
8604.00,1.63
8603.00,1.63
8602.00,1.63
8601.00,1.63
8600.00,1.63
8599.00,1.63
8598.00,1.63
8597.00,1.62
8596.00,1.62
8595.00,1.62
8594.00,1.62
8593.00,1.62
8592.00,1.62
8591.00,1.62
8590.00,1.61
8589.00,1.61
8588.00,1.61
8587.00,1.61
8586.00,1.61
8585.00,1.61
8584.00,1.61
8583.00,1.61
8582.00,1.61
8581.00,1.61
8580.00,1.61
8579.00,1.61
8578.00,1.61
8577.00,1.61
8576.00,1.61
8575.00,1.61
8574.00,1.61
8573.00,1.61
8572.00,1.60
8571.00,1.60
8570.00,1.60
8569.00,1.60
8568.00,1.60
8567.00,1.60
8566.00,1.60
8565.00,1.60
8564.00,1.60
8563.00,1.59
8562.00,1.59
8561.00,1.59
8560.00,1.59
8559.00,1.59
8558.00,1.59
8557.00,1.59
8556.00,1.59
8555.00,1.58
8554.00,1.58
8553.00,1.58
8552.00,1.58
8551.00,1.58
8550.00,1.58
8549.00,1.58
8548.00,1.58
8547.00,1.58
8546.00,1.58
8545.00,1.58
8544.00,1.58
8543.00,1.58
8542.00,1.57
8541.00,1.57
8540.00,1.57
8539.00,1.57
8538.00,1.57
8537.00,1.57
8536.00,1.58
8535.00,1.58
8534.00,1.58
8533.00,1.58
8532.00,1.58
8531.00,1.58
8530.00,1.58
8529.00,1.58
8528.00,1.58
8527.00,1.59
8526.00,1.59
8525.00,1.59
8524.00,1.59
8523.00,1.59
8522.00,1.59
8521.00,1.59
8520.00,1.59
8519.00,1.59
8518.00,1.59
8517.00,1.59
8516.00,1.59
8515.00,1.59
8514.00,1.59
8513.00,1.59
8512.00,1.59
8511.00,1.59
8510.00,1.58
8509.00,1.58
8508.00,1.58
8507.00,1.58
8506.00,1.57
8505.00,1.57
8504.00,1.57
8503.00,1.57
8502.00,1.56
8501.00,1.56
8500.00,1.56
8499.00,1.55
8498.00,1.55
8497.00,1.55
8496.00,1.54
8495.00,1.54
8494.00,1.54
8493.00,1.54
8492.00,1.54
8491.00,1.53
8490.00,1.53
8489.00,1.53
8488.00,1.53
8487.00,1.53
8486.00,1.53
8485.00,1.53
8484.00,1.53
8483.00,1.53
8482.00,1.53
8481.00,1.53
8480.00,1.53
8479.00,1.53
8478.00,1.53
8477.00,1.53
8476.00,1.52
8475.00,1.52
8474.00,1.52
8473.00,1.52
8472.00,1.52
8471.00,1.52
8470.00,1.52
8469.00,1.52
8468.00,1.52
8467.00,1.52
8466.00,1.52
8465.00,1.52
8464.00,1.52
8463.00,1.52
8462.00,1.52
8461.00,1.51
8460.00,1.51
8459.00,1.51
8458.00,1.51
8457.00,1.51
8456.00,1.51
8455.00,1.51
8454.00,1.50
8453.00,1.50
8452.00,1.50
8451.00,1.50
8450.00,1.50
8449.00,1.50
8448.00,1.50
8447.00,1.49
8446.00,1.49
8445.00,1.49
8444.00,1.50
8443.00,1.50
8442.00,1.50
8441.00,1.50
8440.00,1.50
8439.00,1.50
8438.00,1.50
8437.00,1.50
8436.00,1.50
8435.00,1.50
8434.00,1.50
8433.00,1.50
8432.00,1.50
8431.00,1.50
8430.00,1.50
8429.00,1.50
8428.00,1.50
8427.00,1.50
8426.00,1.51
8425.00,1.51
8424.00,1.51
8423.00,1.51
8422.00,1.51
8421.00,1.51
8420.00,1.51
8419.00,1.51
8418.00,1.51
8417.00,1.51
8416.00,1.51
8415.00,1.51
8414.00,1.51
8413.00,1.51
8412.00,1.51
8411.00,1.51
8410.00,1.51
8409.00,1.51
8408.00,1.51
8407.00,1.51
8406.00,1.51
8405.00,1.51
8404.00,1.51
8403.00,1.51
8402.00,1.52
8401.00,1.52
8400.00,1.52
8399.00,1.52
8398.00,1.52
8397.00,1.52
8396.00,1.53
8395.00,1.53
8394.00,1.53
8393.00,1.53
8392.00,1.53
8391.00,1.53
8390.00,1.54
8389.00,1.54
8388.00,1.54
8387.00,1.54
8386.00,1.54
8385.00,1.54
8384.00,1.54
8383.00,1.55
8382.00,1.55
8381.00,1.55
8380.00,1.55
8379.00,1.55
8378.00,1.55
8377.00,1.55
8376.00,1.55
8375.00,1.55
8374.00,1.55
8373.00,1.55
8372.00,1.55
8371.00,1.55
8370.00,1.55
8369.00,1.55
8368.00,1.55
8367.00,1.55
8366.00,1.55
8365.00,1.55
8364.00,1.55
8363.00,1.56
8362.00,1.56
8361.00,1.56
8360.00,1.56
8359.00,1.56
8358.00,1.56
8357.00,1.56
8356.00,1.56
8355.00,1.56
8354.00,1.56
8353.00,1.56
8352.00,1.56
8351.00,1.56
8350.00,1.56
8349.00,1.56
8348.00,1.56
8347.00,1.56
8346.00,1.56
8345.00,1.56
8344.00,1.56
8343.00,1.56
8342.00,1.56
8341.00,1.56
8340.00,1.56
8339.00,1.56
8338.00,1.56
8337.00,1.56
8336.00,1.56
8335.00,1.56
8334.00,1.56
8333.00,1.56
8332.00,1.56
8331.00,1.56
8330.00,1.56
8329.00,1.56
8328.00,1.56
8327.00,1.56
8326.00,1.56
8325.00,1.56
8324.00,1.56
8323.00,1.56
8322.00,1.56
8321.00,1.56
8320.00,1.56
8319.00,1.56
8318.00,1.56
8317.00,1.56
8316.00,1.57
8315.00,1.57
8314.00,1.57
8313.00,1.57
8312.00,1.57
8311.00,1.57
8310.00,1.57
8309.00,1.57
8308.00,1.57
8307.00,1.57
8306.00,1.57
8305.00,1.57
8304.00,1.57
8303.00,1.57
8302.00,1.57
8301.00,1.57
8300.00,1.57
8299.00,1.57
8298.00,1.57
8297.00,1.57
8296.00,1.57
8295.00,1.57
8294.00,1.57
8293.00,1.57
8292.00,1.57
8291.00,1.57
8290.00,1.57
8289.00,1.57
8288.00,1.57
8287.00,1.57
8286.00,1.57
8285.00,1.57
8284.00,1.57
8283.00,1.57
8282.00,1.57
8281.00,1.57
8280.00,1.57
8279.00,1.57
8278.00,1.57
8277.00,1.57
8276.00,1.56
8275.00,1.56
8274.00,1.56
8273.00,1.56
8272.00,1.56
8271.00,1.56
8270.00,1.57
8269.00,1.57
8268.00,1.57
8267.00,1.57
8266.00,1.57
8265.00,1.57
8264.00,1.57
8263.00,1.57
8262.00,1.57
8261.00,1.57
8260.00,1.58
8259.00,1.58
8258.00,1.58
8257.00,1.58
8256.00,1.58
8255.00,1.58
8254.00,1.58
8253.00,1.58
8252.00,1.58
8251.00,1.58
8250.00,1.58
8249.00,1.58
8248.00,1.58
8247.00,1.58
8246.00,1.59
8245.00,1.59
8244.00,1.59
8243.00,1.59
8242.00,1.59
8241.00,1.59
8240.00,1.59
8239.00,1.59
8238.00,1.60
8237.00,1.60
8236.00,1.60
8235.00,1.60
8234.00,1.60
8233.00,1.60
8232.00,1.61
8231.00,1.61
8230.00,1.61
8229.00,1.61
8228.00,1.61
8227.00,1.61
8226.00,1.61
8225.00,1.61
8224.00,1.61
8223.00,1.61
8222.00,1.61
8221.00,1.61
8220.00,1.61
8219.00,1.61
8218.00,1.61
8217.00,1.61
8216.00,1.61
8215.00,1.61
8214.00,1.60
8213.00,1.60
8212.00,1.60
8211.00,1.60
8210.00,1.60
8209.00,1.60
8208.00,1.60
8207.00,1.60
8206.00,1.60
8205.00,1.60
8204.00,1.60
8203.00,1.60
8202.00,1.60
8201.00,1.60
8200.00,1.60
8199.00,1.60
8198.00,1.61
8197.00,1.61
8196.00,1.61
8195.00,1.61
8194.00,1.61
8193.00,1.61
8192.00,1.61
8191.00,1.61
8190.00,1.61
8189.00,1.61
8188.00,1.61
8187.00,1.61
8186.00,1.61
8185.00,1.62
8184.00,1.62
8183.00,1.62
8182.00,1.62
8181.00,1.62
8180.00,1.62
8179.00,1.62
8178.00,1.62
8177.00,1.62
8176.00,1.63
8175.00,1.63
8174.00,1.63
8173.00,1.63
8172.00,1.63
8171.00,1.63
8170.00,1.63
8169.00,1.63
8168.00,1.64
8167.00,1.64
8166.00,1.64
8165.00,1.64
8164.00,1.64
8163.00,1.64
8162.00,1.64
8161.00,1.64
8160.00,1.64
8159.00,1.64
8158.00,1.64
8157.00,1.64
8156.00,1.63
8155.00,1.63
8154.00,1.63
8153.00,1.63
8152.00,1.63
8151.00,1.63
8150.00,1.63
8149.00,1.63
8148.00,1.63
8147.00,1.63
8146.00,1.63
8145.00,1.63
8144.00,1.63
8143.00,1.63
8142.00,1.63
8141.00,1.63
8140.00,1.64
8139.00,1.64
8138.00,1.64
8137.00,1.64
8136.00,1.64
8135.00,1.65
8134.00,1.65
8133.00,1.65
8132.00,1.65
8131.00,1.66
8130.00,1.66
8129.00,1.66
8128.00,1.66
8127.00,1.66
8126.00,1.66
8125.00,1.66
8124.00,1.66
8123.00,1.66
8122.00,1.66
8121.00,1.66
8120.00,1.66
8119.00,1.66
8118.00,1.66
8117.00,1.65
8116.00,1.65
8115.00,1.65
8114.00,1.65
8113.00,1.65
8112.00,1.65
8111.00,1.65
8110.00,1.65
8109.00,1.65
8108.00,1.65
8107.00,1.65
8106.00,1.65
8105.00,1.65
8104.00,1.65
8103.00,1.65
8102.00,1.66
8101.00,1.66
8100.00,1.66
8099.00,1.66
8098.00,1.66
8097.00,1.66
8096.00,1.66
8095.00,1.66
8094.00,1.66
8093.00,1.66
8092.00,1.66
8091.00,1.66
8090.00,1.66
8089.00,1.66
8088.00,1.67
8087.00,1.67
8086.00,1.67
8085.00,1.67
8084.00,1.67
8083.00,1.67
8082.00,1.67
8081.00,1.67
8080.00,1.67
8079.00,1.67
8078.00,1.67
8077.00,1.67
8076.00,1.68
8075.00,1.68
8074.00,1.68
8073.00,1.68
8072.00,1.68
8071.00,1.68
8070.00,1.68
8069.00,1.68
8068.00,1.68
8067.00,1.68
8066.00,1.68
8065.00,1.68
8064.00,1.68
8063.00,1.68
8062.00,1.68
8061.00,1.68
8060.00,1.68
8059.00,1.68
8058.00,1.68
8057.00,1.68
8056.00,1.68
8055.00,1.68
8054.00,1.69
8053.00,1.69
8052.00,1.69
8051.00,1.69
8050.00,1.69
8049.00,1.69
8048.00,1.69
8047.00,1.69
8046.00,1.69
8045.00,1.69
8044.00,1.69
8043.00,1.69
8042.00,1.69
8041.00,1.69
8040.00,1.69
8039.00,1.69
8038.00,1.69
8037.00,1.69
8036.00,1.69
8035.00,1.69
8034.00,1.69
8033.00,1.69
8032.00,1.69
8031.00,1.69
8030.00,1.69
8029.00,1.69
8028.00,1.69
8027.00,1.69
8026.00,1.69
8025.00,1.69
8024.00,1.69
8023.00,1.69
8022.00,1.69
8021.00,1.69
8020.00,1.69
8019.00,1.69
8018.00,1.69
8017.00,1.69
8016.00,1.69
8015.00,1.69
8014.00,1.69
8013.00,1.69
8012.00,1.69
8011.00,1.68
8010.00,1.68
8009.00,1.68
8008.00,1.68
8007.00,1.68
8006.00,1.69
8005.00,1.69
8004.00,1.69
8003.00,1.69
8002.00,1.69
8001.00,1.69
8000.00,1.69
7999.00,1.70
7998.00,1.70
7997.00,1.70
7996.00,1.70
7995.00,1.70
7994.00,1.70
7993.00,1.71
7992.00,1.71
7991.00,1.71
7990.00,1.71
7989.00,1.71
7988.00,1.71
7987.00,1.71
7986.00,1.71
7985.00,1.71
7984.00,1.71
7983.00,1.71
7982.00,1.71
7981.00,1.71
7980.00,1.70
7979.00,1.70
7978.00,1.70
7977.00,1.70
7976.00,1.70
7975.00,1.70
7974.00,1.70
7973.00,1.70
7972.00,1.70
7971.00,1.70
7970.00,1.70
7969.00,1.70
7968.00,1.70
7967.00,1.70
7966.00,1.70
7965.00,1.70
7964.00,1.70
7963.00,1.70
7962.00,1.70
7961.00,1.70
7960.00,1.70
7959.00,1.70
7958.00,1.70
7957.00,1.70
7956.00,1.70
7955.00,1.70
7954.00,1.70
7953.00,1.70
7952.00,1.70
7951.00,1.70
7950.00,1.70
7949.00,1.70
7948.00,1.70
7947.00,1.70
7946.00,1.70
7945.00,1.70
7944.00,1.70
7943.00,1.70
7942.00,1.70
7941.00,1.70
7940.00,1.70
7939.00,1.70
7938.00,1.70
7937.00,1.70
7936.00,1.70
7935.00,1.70
7934.00,1.71
7933.00,1.71
7932.00,1.71
7931.00,1.71
7930.00,1.71
7929.00,1.71
7928.00,1.71
7927.00,1.72
7926.00,1.72
7925.00,1.72
7924.00,1.72
7923.00,1.72
7922.00,1.72
7921.00,1.72
7920.00,1.72
7919.00,1.73
7918.00,1.73
7917.00,1.73
7916.00,1.73
7915.00,1.73
7914.00,1.73
7913.00,1.73
7912.00,1.73
7911.00,1.73
7910.00,1.73
7909.00,1.73
7908.00,1.73
7907.00,1.73
7906.00,1.73
7905.00,1.73
7904.00,1.73
7903.00,1.73
7902.00,1.73
7901.00,1.73
7900.00,1.73
7899.00,1.73
7898.00,1.73
7897.00,1.73
7896.00,1.73
7895.00,1.73
7894.00,1.73
7893.00,1.73
7892.00,1.73
7891.00,1.73
7890.00,1.73
7889.00,1.72
7888.00,1.72
7887.00,1.72
7886.00,1.72
7885.00,1.72
7884.00,1.72
7883.00,1.72
7882.00,1.72
7881.00,1.72
7880.00,1.71
7879.00,1.71
7878.00,1.71
7877.00,1.71
7876.00,1.71
7875.00,1.71
7874.00,1.71
7873.00,1.71
7872.00,1.71
7871.00,1.71
7870.00,1.71
7869.00,1.71
7868.00,1.71
7867.00,1.71
7866.00,1.71
7865.00,1.71
7864.00,1.71
7863.00,1.72
7862.00,1.72
7861.00,1.72
7860.00,1.72
7859.00,1.72
7858.00,1.72
7857.00,1.72
7856.00,1.72
7855.00,1.73
7854.00,1.73
7853.00,1.73
7852.00,1.73
7851.00,1.73
7850.00,1.73
7849.00,1.73
7848.00,1.73
7847.00,1.73
7846.00,1.73
7845.00,1.73
7844.00,1.74
7843.00,1.74
7842.00,1.74
7841.00,1.74
7840.00,1.74
7839.00,1.74
7838.00,1.74
7837.00,1.74
7836.00,1.74
7835.00,1.74
7834.00,1.74
7833.00,1.74
7832.00,1.74
7831.00,1.74
7830.00,1.74
7829.00,1.74
7828.00,1.74
7827.00,1.74
7826.00,1.74
7825.00,1.74
7824.00,1.74
7823.00,1.74
7822.00,1.74
7821.00,1.74
7820.00,1.74
7819.00,1.74
7818.00,1.74
7817.00,1.74
7816.00,1.74
7815.00,1.74
7814.00,1.74
7813.00,1.74
7812.00,1.74
7811.00,1.74
7810.00,1.74
7809.00,1.74
7808.00,1.74
7807.00,1.74
7806.00,1.74
7805.00,1.74
7804.00,1.74
7803.00,1.74
7802.00,1.74
7801.00,1.75
7800.00,1.75
7799.00,1.75
7798.00,1.75
7797.00,1.75
7796.00,1.75
7795.00,1.75
7794.00,1.75
7793.00,1.75
7792.00,1.75
7791.00,1.75
7790.00,1.75
7789.00,1.75
7788.00,1.75
7787.00,1.75
7786.00,1.75
7785.00,1.75
7784.00,1.75
7783.00,1.75
7782.00,1.75
7781.00,1.75
7780.00,1.75
7779.00,1.75
7778.00,1.75
7777.00,1.75
7776.00,1.75
7775.00,1.75
7774.00,1.75
7773.00,1.75
7772.00,1.75
7771.00,1.75
7770.00,1.75
7769.00,1.74
7768.00,1.74
7767.00,1.74
7766.00,1.74
7765.00,1.74
7764.00,1.74
7763.00,1.74
7762.00,1.74
7761.00,1.74
7760.00,1.74
7759.00,1.74
7758.00,1.74
7757.00,1.74
7756.00,1.74
7755.00,1.75
7754.00,1.75
7753.00,1.75
7752.00,1.75
7751.00,1.75
7750.00,1.75
7749.00,1.75
7748.00,1.75
7747.00,1.75
7746.00,1.75
7745.00,1.75
7744.00,1.75
7743.00,1.75
7742.00,1.75
7741.00,1.75
7740.00,1.75
7739.00,1.75
7738.00,1.75
7737.00,1.75
7736.00,1.75
7735.00,1.75
7734.00,1.75
7733.00,1.75
7732.00,1.75
7731.00,1.75
7730.00,1.75
7729.00,1.75
7728.00,1.75
7727.00,1.76
7726.00,1.76
7725.00,1.76
7724.00,1.76
7723.00,1.76
7722.00,1.76
7721.00,1.76
7720.00,1.76
7719.00,1.76
7718.00,1.76
7717.00,1.76
7716.00,1.76
7715.00,1.76
7714.00,1.75
7713.00,1.75
7712.00,1.75
7711.00,1.75
7710.00,1.75
7709.00,1.75
7708.00,1.75
7707.00,1.75
7706.00,1.75
7705.00,1.75
7704.00,1.75
7703.00,1.75
7702.00,1.75
7701.00,1.75
7700.00,1.75
7699.00,1.75
7698.00,1.75
7697.00,1.75
7696.00,1.75
7695.00,1.75
7694.00,1.75
7693.00,1.75
7692.00,1.75
7691.00,1.75
7690.00,1.74
7689.00,1.74
7688.00,1.74
7687.00,1.74
7686.00,1.74
7685.00,1.74
7684.00,1.74
7683.00,1.74
7682.00,1.74
7681.00,1.74
7680.00,1.74
7679.00,1.74
7678.00,1.74
7677.00,1.74
7676.00,1.74
7675.00,1.74
7674.00,1.74
7673.00,1.74
7672.00,1.74
7671.00,1.74
7670.00,1.74
7669.00,1.74
7668.00,1.74
7667.00,1.75
7666.00,1.75
7665.00,1.75
7664.00,1.75
7663.00,1.75
7662.00,1.75
7661.00,1.75
7660.00,1.76
7659.00,1.76
7658.00,1.76
7657.00,1.76
7656.00,1.76
7655.00,1.76
7654.00,1.76
7653.00,1.76
7652.00,1.76
7651.00,1.76
7650.00,1.76
7649.00,1.76
7648.00,1.76
7647.00,1.76
7646.00,1.75
7645.00,1.75
7644.00,1.75
7643.00,1.75
7642.00,1.75
7641.00,1.75
7640.00,1.75
7639.00,1.75
7638.00,1.75
7637.00,1.75
7636.00,1.75
7635.00,1.75
7634.00,1.75
7633.00,1.75
7632.00,1.75
7631.00,1.75
7630.00,1.75
7629.00,1.75
7628.00,1.75
7627.00,1.75
7626.00,1.75
7625.00,1.75
7624.00,1.75
7623.00,1.75
7622.00,1.75
7621.00,1.75
7620.00,1.75
7619.00,1.75
7618.00,1.74
7617.00,1.74
7616.00,1.74
7615.00,1.74
7614.00,1.74
7613.00,1.74
7612.00,1.74
7611.00,1.74
7610.00,1.74
7609.00,1.74
7608.00,1.74
7607.00,1.74
7606.00,1.74
7605.00,1.74
7604.00,1.74
7603.00,1.74
7602.00,1.74
7601.00,1.74
7600.00,1.74
7599.00,1.74
7598.00,1.74
7597.00,1.74
7596.00,1.74
7595.00,1.74
7594.00,1.74
7593.00,1.74
7592.00,1.74
7591.00,1.74
7590.00,1.74
7589.00,1.74
7588.00,1.75
7587.00,1.75
7586.00,1.75
7585.00,1.75
7584.00,1.75
7583.00,1.75
7582.00,1.75
7581.00,1.75
7580.00,1.75
7579.00,1.75
7578.00,1.75
7577.00,1.75
7576.00,1.75
7575.00,1.75
7574.00,1.75
7573.00,1.75
7572.00,1.74
7571.00,1.74
7570.00,1.74
7569.00,1.74
7568.00,1.74
7567.00,1.74
7566.00,1.74
7565.00,1.74
7564.00,1.73
7563.00,1.73
7562.00,1.73
7561.00,1.73
7560.00,1.73
7559.00,1.73
7558.00,1.73
7557.00,1.73
7556.00,1.73
7555.00,1.73
7554.00,1.73
7553.00,1.73
7552.00,1.73
7551.00,1.73
7550.00,1.73
7549.00,1.73
7548.00,1.73
7547.00,1.73
7546.00,1.73
7545.00,1.73
7544.00,1.73
7543.00,1.73
7542.00,1.73
7541.00,1.73
7540.00,1.73
7539.00,1.73
7538.00,1.73
7537.00,1.73
7536.00,1.73
7535.00,1.73
7534.00,1.73
7533.00,1.73
7532.00,1.73
7531.00,1.73
7530.00,1.73
7529.00,1.73
7528.00,1.73
7527.00,1.73
7526.00,1.73
7525.00,1.73
7524.00,1.73
7523.00,1.73
7522.00,1.73
7521.00,1.73
7520.00,1.73
7519.00,1.73
7518.00,1.73
7517.00,1.73
7516.00,1.73
7515.00,1.73
7514.00,1.73
7513.00,1.73
7512.00,1.73
7511.00,1.73
7510.00,1.73
7509.00,1.73
7508.00,1.73
7507.00,1.72
7506.00,1.72
7505.00,1.72
7504.00,1.72
7503.00,1.72
7502.00,1.72
7501.00,1.72
7500.00,1.71
7499.00,1.71
7498.00,1.71
7497.00,1.71
7496.00,1.71
7495.00,1.71
7494.00,1.71
7493.00,1.71
7492.00,1.71
7491.00,1.71
7490.00,1.71
7489.00,1.70
7488.00,1.70
7487.00,1.70
7486.00,1.70
7485.00,1.70
7484.00,1.70
7483.00,1.70
7482.00,1.70
7481.00,1.70
7480.00,1.70
7479.00,1.70
7478.00,1.69
7477.00,1.69
7476.00,1.69
7475.00,1.69
7474.00,1.69
7473.00,1.69
7472.00,1.69
7471.00,1.69
7470.00,1.69
7469.00,1.69
7468.00,1.69
7467.00,1.69
7466.00,1.69
7465.00,1.69
7464.00,1.69
7463.00,1.69
7462.00,1.68
7461.00,1.68
7460.00,1.68
7459.00,1.68
7458.00,1.68
7457.00,1.68
7456.00,1.68
7455.00,1.68
7454.00,1.68
7453.00,1.68
7452.00,1.68
7451.00,1.68
7450.00,1.68
7449.00,1.68
7448.00,1.68
7447.00,1.68
7446.00,1.68
7445.00,1.68
7444.00,1.68
7443.00,1.68
7442.00,1.68
7441.00,1.68
7440.00,1.68
7439.00,1.68
7438.00,1.68
7437.00,1.67
7436.00,1.67
7435.00,1.67
7434.00,1.67
7433.00,1.67
7432.00,1.67
7431.00,1.67
7430.00,1.66
7429.00,1.66
7428.00,1.66
7427.00,1.66
7426.00,1.66
7425.00,1.66
7424.00,1.65
7423.00,1.65
7422.00,1.65
7421.00,1.65
7420.00,1.64
7419.00,1.64
7418.00,1.64
7417.00,1.64
7416.00,1.64
7415.00,1.64
7414.00,1.63
7413.00,1.63
7412.00,1.63
7411.00,1.63
7410.00,1.63
7409.00,1.63
7408.00,1.63
7407.00,1.63
7406.00,1.63
7405.00,1.63
7404.00,1.63
7403.00,1.63
7402.00,1.63
7401.00,1.63
7400.00,1.63
7399.00,1.63
7398.00,1.63
7397.00,1.62
7396.00,1.62
7395.00,1.62
7394.00,1.62
7393.00,1.62
7392.00,1.62
7391.00,1.62
7390.00,1.62
7389.00,1.62
7388.00,1.62
7387.00,1.62
7386.00,1.61
7385.00,1.61
7384.00,1.61
7383.00,1.61
7382.00,1.61
7381.00,1.61
7380.00,1.61
7379.00,1.61
7378.00,1.60
7377.00,1.60
7376.00,1.60
7375.00,1.60
7374.00,1.60
7373.00,1.60
7372.00,1.59
7371.00,1.59
7370.00,1.59
7369.00,1.59
7368.00,1.59
7367.00,1.59
7366.00,1.59
7365.00,1.59
7364.00,1.59
7363.00,1.59
7362.00,1.59
7361.00,1.59
7360.00,1.59
7359.00,1.59
7358.00,1.59
7357.00,1.59
7356.00,1.59
7355.00,1.59
7354.00,1.59
7353.00,1.59
7352.00,1.60
7351.00,1.60
7350.00,1.60
7349.00,1.60
7348.00,1.60
7347.00,1.60
7346.00,1.60
7345.00,1.60
7344.00,1.60
7343.00,1.60
7342.00,1.60
7341.00,1.60
7340.00,1.60
7339.00,1.60
7338.00,1.60
7337.00,1.60
7336.00,1.59
7335.00,1.59
7334.00,1.59
7333.00,1.59
7332.00,1.59
7331.00,1.59
7330.00,1.59
7329.00,1.58
7328.00,1.58
7327.00,1.58
7326.00,1.58
7325.00,1.58
7324.00,1.58
7323.00,1.57
7322.00,1.57
7321.00,1.57
7320.00,1.57
7319.00,1.57
7318.00,1.57
7317.00,1.57
7316.00,1.57
7315.00,1.57
7314.00,1.56
7313.00,1.56
7312.00,1.56
7311.00,1.56
7310.00,1.56
7309.00,1.56
7308.00,1.56
7307.00,1.56
7306.00,1.56
7305.00,1.56
7304.00,1.55
7303.00,1.55
7302.00,1.55
7301.00,1.55
7300.00,1.55
7299.00,1.55
7298.00,1.55
7297.00,1.55
7296.00,1.55
7295.00,1.54
7294.00,1.54
7293.00,1.54
7292.00,1.54
7291.00,1.54
7290.00,1.54
7289.00,1.54
7288.00,1.53
7287.00,1.53
7286.00,1.53
7285.00,1.53
7284.00,1.53
7283.00,1.53
7282.00,1.52
7281.00,1.52
7280.00,1.52
7279.00,1.52
7278.00,1.51
7277.00,1.51
7276.00,1.51
7275.00,1.51
7274.00,1.51
7273.00,1.50
7272.00,1.50
7271.00,1.50
7270.00,1.50
7269.00,1.50
7268.00,1.49
7267.00,1.49
7266.00,1.49
7265.00,1.49
7264.00,1.49
7263.00,1.48
7262.00,1.48
7261.00,1.48
7260.00,1.48
7259.00,1.47
7258.00,1.47
7257.00,1.47
7256.00,1.47
7255.00,1.47
7254.00,1.46
7253.00,1.46
7252.00,1.46
7251.00,1.46
7250.00,1.46
7249.00,1.45
7248.00,1.45
7247.00,1.45
7246.00,1.45
7245.00,1.44
7244.00,1.44
7243.00,1.44
7242.00,1.43
7241.00,1.43
7240.00,1.43
7239.00,1.42
7238.00,1.42
7237.00,1.42
7236.00,1.41
7235.00,1.41
7234.00,1.40
7233.00,1.40
7232.00,1.40
7231.00,1.39
7230.00,1.39
7229.00,1.38
7228.00,1.38
7227.00,1.37
7226.00,1.37
7225.00,1.36
7224.00,1.36
7223.00,1.35
7222.00,1.35
7221.00,1.34
7220.00,1.33
7219.00,1.33
7218.00,1.32
7217.00,1.32
7216.00,1.31
7215.00,1.31
7214.00,1.30
7213.00,1.30
7212.00,1.29
7211.00,1.28
7210.00,1.28
7209.00,1.27
7208.00,1.27
7207.00,1.26
7206.00,1.26
7205.00,1.26
7204.00,1.25
7203.00,1.25
7202.00,1.24
7201.00,1.24
7200.00,1.23
7199.00,1.23
7198.00,1.23
7197.00,1.22
7196.00,1.22
7195.00,1.21
7194.00,1.21
7193.00,1.21
7192.00,1.20
7191.00,1.20
7190.00,1.19
7189.00,1.19
7188.00,1.18
7187.00,1.18
7186.00,1.18
7185.00,1.17
7184.00,1.17
7183.00,1.16
7182.00,1.16
7181.00,1.15
7180.00,1.15
7179.00,1.14
7178.00,1.14
7177.00,1.13
7176.00,1.13
7175.00,1.13
7174.00,1.12
7173.00,1.12
7172.00,1.11
7171.00,1.11
7170.00,1.10
7169.00,1.10
7168.00,1.10
7167.00,1.09
7166.00,1.09
7165.00,1.08
7164.00,1.08
7163.00,1.08
7162.00,1.07
7161.00,1.07
7160.00,1.06
7159.00,1.06
7158.00,1.06
7157.00,1.05
7156.00,1.05
7155.00,1.04
7154.00,1.04
7153.00,1.04
7152.00,1.03
7151.00,1.03
7150.00,1.03
7149.00,1.02
7148.00,1.02
7147.00,1.02
7146.00,1.01
7145.00,1.01
7144.00,1.01
7143.00,1.00
7142.00,1.00
7141.00,1.00
7140.00,0.99
7139.00,0.99
7138.00,0.99
7137.00,0.98
7136.00,0.98
7135.00,0.98
7134.00,0.97
7133.00,0.97
7132.00,0.97
7131.00,0.96
7130.00,0.96
7129.00,0.95
7128.00,0.95
7127.00,0.94
7126.00,0.94
7125.00,0.93
7124.00,0.93
7123.00,0.93
7122.00,0.92
7121.00,0.92
7120.00,0.91
7119.00,0.91
7118.00,0.90
7117.00,0.90
7116.00,0.90
7115.00,0.89
7114.00,0.89
7113.00,0.89
7112.00,0.88
7111.00,0.88
7110.00,0.88
7109.00,0.87
7108.00,0.87
7107.00,0.87
7106.00,0.86
7105.00,0.86
7104.00,0.86
7103.00,0.85
7102.00,0.85
7101.00,0.85
7100.00,0.84
7099.00,0.84
7098.00,0.83
7097.00,0.83
7096.00,0.83
7095.00,0.82
7094.00,0.82
7093.00,0.82
7092.00,0.81
7091.00,0.81
7090.00,0.81
7089.00,0.81
7088.00,0.80
7087.00,0.80
7086.00,0.80
7085.00,0.80
7084.00,0.80
7083.00,0.80
7082.00,0.79
7081.00,0.79
7080.00,0.79
7079.00,0.79
7078.00,0.79
7077.00,0.79
7076.00,0.79
7075.00,0.78
7074.00,0.78
7073.00,0.78
7072.00,0.78
7071.00,0.78
7070.00,0.78
7069.00,0.77
7068.00,0.77
7067.00,0.77
7066.00,0.77
7065.00,0.76
7064.00,0.76
7063.00,0.76
7062.00,0.76
7061.00,0.75
7060.00,0.75
7059.00,0.75
7058.00,0.75
7057.00,0.74
7056.00,0.74
7055.00,0.74
7054.00,0.74
7053.00,0.74
7052.00,0.74
7051.00,0.73
7050.00,0.73
7049.00,0.73
7048.00,0.73
7047.00,0.73
7046.00,0.73
7045.00,0.72
7044.00,0.72
7043.00,0.72
7042.00,0.72
7041.00,0.72
7040.00,0.72
7039.00,0.71
7038.00,0.71
7037.00,0.71
7036.00,0.71
7035.00,0.71
7034.00,0.71
7033.00,0.70
7032.00,0.70
7031.00,0.70
7030.00,0.70
7029.00,0.70
7028.00,0.70
7027.00,0.70
7026.00,0.70
7025.00,0.69
7024.00,0.69
7023.00,0.69
7022.00,0.69
7021.00,0.69
7020.00,0.69
7019.00,0.69
7018.00,0.69
7017.00,0.68
7016.00,0.68
7015.00,0.68
7014.00,0.68
7013.00,0.68
7012.00,0.68
7011.00,0.67
7010.00,0.67
7009.00,0.67
7008.00,0.67
7007.00,0.67
7006.00,0.67
7005.00,0.66
7004.00,0.66
7003.00,0.66
7002.00,0.66
7001.00,0.66
7000.00,0.66
6999.00,0.66
6998.00,0.66
6997.00,0.66
6996.00,0.66
6995.00,0.66
6994.00,0.66
6993.00,0.66
6992.00,0.66
6991.00,0.66
6990.00,0.65
6989.00,0.65
6988.00,0.65
6987.00,0.65
6986.00,0.65
6985.00,0.65
6984.00,0.65
6983.00,0.65
6982.00,0.65
6981.00,0.65
6980.00,0.65
6979.00,0.65
6978.00,0.64
6977.00,0.64
6976.00,0.64
6975.00,0.64
6974.00,0.64
6973.00,0.64
6972.00,0.64
6971.00,0.64
6970.00,0.64
6969.00,0.64
6968.00,0.64
6967.00,0.64
6966.00,0.64
6965.00,0.64
6964.00,0.64
6963.00,0.64
6962.00,0.64
6961.00,0.64
6960.00,0.64
6959.00,0.64
6958.00,0.64
6957.00,0.64
6956.00,0.64
6955.00,0.64
6954.00,0.64
6953.00,0.64
6952.00,0.64
6951.00,0.64
6950.00,0.64
6949.00,0.64
6948.00,0.64
6947.00,0.64
6946.00,0.64
6945.00,0.64
6944.00,0.63
6943.00,0.63
6942.00,0.63
6941.00,0.63
6940.00,0.63
6939.00,0.63
6938.00,0.63
6937.00,0.63
6936.00,0.63
6935.00,0.63
6934.00,0.63
6933.00,0.63
6932.00,0.62
6931.00,0.62
6930.00,0.62
6929.00,0.62
6928.00,0.62
6927.00,0.62
6926.00,0.62
6925.00,0.62
6924.00,0.62
6923.00,0.62
6922.00,0.61
6921.00,0.61
6920.00,0.61
6919.00,0.61
6918.00,0.62
6917.00,0.62
6916.00,0.62
6915.00,0.62
6914.00,0.62
6913.00,0.62
6912.00,0.62
6911.00,0.62
6910.00,0.62
6909.00,0.62
6908.00,0.62
6907.00,0.62
6906.00,0.62
6905.00,0.62
6904.00,0.62
6903.00,0.62
6902.00,0.62
6901.00,0.62
6900.00,0.62
6899.00,0.62
6898.00,0.62
6897.00,0.62
6896.00,0.62
6895.00,0.62
6894.00,0.62
6893.00,0.62
6892.00,0.62
6891.00,0.62
6890.00,0.62
6889.00,0.62
6888.00,0.62
6887.00,0.62
6886.00,0.62
6885.00,0.62
6884.00,0.62
6883.00,0.62
6882.00,0.62
6881.00,0.62
6880.00,0.62
6879.00,0.62
6878.00,0.62
6877.00,0.62
6876.00,0.61
6875.00,0.61
6874.00,0.61
6873.00,0.61
6872.00,0.61
6871.00,0.61
6870.00,0.61
6869.00,0.61
6868.00,0.61
6867.00,0.61
6866.00,0.61
6865.00,0.61
6864.00,0.61
6863.00,0.61
6862.00,0.61
6861.00,0.61
6860.00,0.61
6859.00,0.61
6858.00,0.61
6857.00,0.61
6856.00,0.61
6855.00,0.61
6854.00,0.61
6853.00,0.61
6852.00,0.61
6851.00,0.61
6850.00,0.61
6849.00,0.61
6848.00,0.61
6847.00,0.61
6846.00,0.61
6845.00,0.61
6844.00,0.61
6843.00,0.61
6842.00,0.61
6841.00,0.61
6840.00,0.61
6839.00,0.61
6838.00,0.61
6837.00,0.61
6836.00,0.61
6835.00,0.61
6834.00,0.61
6833.00,0.61
6832.00,0.61
6831.00,0.61
6830.00,0.61
6829.00,0.62
6828.00,0.62
6827.00,0.62
6826.00,0.62
6825.00,0.62
6824.00,0.62
6823.00,0.62
6822.00,0.62
6821.00,0.62
6820.00,0.62
6819.00,0.62
6818.00,0.62
6817.00,0.62
6816.00,0.62
6815.00,0.62
6814.00,0.62
6813.00,0.62
6812.00,0.62
6811.00,0.63
6810.00,0.63
6809.00,0.63
6808.00,0.63
6807.00,0.63
6806.00,0.63
6805.00,0.63
6804.00,0.63
6803.00,0.63
6802.00,0.63
6801.00,0.63
6800.00,0.63
6799.00,0.63
6798.00,0.63
6797.00,0.63
6796.00,0.63
6795.00,0.63
6794.00,0.63
6793.00,0.63
6792.00,0.63
6791.00,0.63
6790.00,0.63
6789.00,0.63
6788.00,0.63
6787.00,0.63
6786.00,0.63
6785.00,0.63
6784.00,0.64
6783.00,0.64
6782.00,0.64
6781.00,0.64
6780.00,0.64
6779.00,0.64
6778.00,0.64
6777.00,0.64
6776.00,0.64
6775.00,0.64
6774.00,0.65
6773.00,0.65
6772.00,0.65
6771.00,0.65
6770.00,0.65
6769.00,0.65
6768.00,0.65
6767.00,0.66
6766.00,0.66
6765.00,0.66
6764.00,0.66
6763.00,0.66
6762.00,0.66
6761.00,0.66
6760.00,0.67
6759.00,0.67
6758.00,0.67
6757.00,0.67
6756.00,0.67
6755.00,0.67
6754.00,0.67
6753.00,0.67
6752.00,0.67
6751.00,0.67
6750.00,0.67
6749.00,0.67
6748.00,0.67
6747.00,0.67
6746.00,0.67
6745.00,0.67
6744.00,0.67
6743.00,0.67
6742.00,0.67
6741.00,0.67
6740.00,0.67
6739.00,0.67
6738.00,0.67
6737.00,0.67
6736.00,0.67
6735.00,0.68
6734.00,0.68
6733.00,0.68
6732.00,0.68
6731.00,0.68
6730.00,0.68
6729.00,0.68
6728.00,0.69
6727.00,0.69
6726.00,0.69
6725.00,0.69
6724.00,0.69
6723.00,0.69
6722.00,0.69
6721.00,0.69
6720.00,0.69
6719.00,0.69
6718.00,0.70
6717.00,0.70
6716.00,0.70
6715.00,0.70
6714.00,0.70
6713.00,0.70
6712.00,0.70
6711.00,0.70
6710.00,0.70
6709.00,0.70
6708.00,0.71
6707.00,0.71
6706.00,0.71
6705.00,0.71
6704.00,0.71
6703.00,0.71
6702.00,0.71
6701.00,0.72
6700.00,0.72
6699.00,0.72
6698.00,0.72
6697.00,0.72
6696.00,0.72
6695.00,0.72
6694.00,0.73
6693.00,0.73
6692.00,0.73
6691.00,0.73
6690.00,0.73
6689.00,0.73
6688.00,0.73
6687.00,0.73
6686.00,0.73
6685.00,0.73
6684.00,0.74
6683.00,0.74
6682.00,0.74
6681.00,0.74
6680.00,0.74
6679.00,0.74
6678.00,0.74
6677.00,0.74
6676.00,0.74
6675.00,0.74
6674.00,0.74
6673.00,0.74
6672.00,0.74
6671.00,0.74
6670.00,0.74
6669.00,0.74
6668.00,0.75
6667.00,0.75
6666.00,0.75
6665.00,0.75
6664.00,0.75
6663.00,0.75
6662.00,0.75
6661.00,0.76
6660.00,0.76
6659.00,0.76
6658.00,0.76
6657.00,0.76
6656.00,0.76
6655.00,0.77
6654.00,0.77
6653.00,0.77
6652.00,0.77
6651.00,0.77
6650.00,0.77
6649.00,0.78
6648.00,0.78
6647.00,0.78
6646.00,0.78
6645.00,0.78
6644.00,0.78
6643.00,0.79
6642.00,0.79
6641.00,0.79
6640.00,0.79
6639.00,0.79
6638.00,0.80
6637.00,0.80
6636.00,0.80
6635.00,0.80
6634.00,0.80
6633.00,0.80
6632.00,0.80
6631.00,0.81
6630.00,0.81
6629.00,0.81
6628.00,0.81
6627.00,0.81
6626.00,0.81
6625.00,0.81
6624.00,0.81
6623.00,0.81
6622.00,0.81
6621.00,0.82
6620.00,0.82
6619.00,0.82
6618.00,0.82
6617.00,0.82
6616.00,0.82
6615.00,0.82
6614.00,0.82
6613.00,0.82
6612.00,0.82
6611.00,0.82
6610.00,0.83
6609.00,0.83
6608.00,0.83
6607.00,0.83
6606.00,0.83
6605.00,0.83
6604.00,0.83
6603.00,0.84
6602.00,0.84
6601.00,0.84
6600.00,0.84
6599.00,0.84
6598.00,0.84
6597.00,0.85
6596.00,0.85
6595.00,0.85
6594.00,0.85
6593.00,0.85
6592.00,0.85
6591.00,0.85
6590.00,0.85
6589.00,0.86
6588.00,0.86
6587.00,0.86
6586.00,0.86
6585.00,0.86
6584.00,0.86
6583.00,0.86
6582.00,0.86
6581.00,0.87
6580.00,0.87
6579.00,0.87
6578.00,0.87
6577.00,0.87
6576.00,0.87
6575.00,0.87
6574.00,0.87
6573.00,0.87
6572.00,0.87
6571.00,0.88
6570.00,0.88
6569.00,0.88
6568.00,0.88
6567.00,0.88
6566.00,0.88
6565.00,0.88
6564.00,0.88
6563.00,0.88
6562.00,0.89
6561.00,0.89
6560.00,0.89
6559.00,0.89
6558.00,0.89
6557.00,0.89
6556.00,0.89
6555.00,0.90
6554.00,0.90
6553.00,0.90
6552.00,0.90
6551.00,0.90
6550.00,0.90
6549.00,0.90
6548.00,0.91
6547.00,0.91
6546.00,0.91
6545.00,0.91
6544.00,0.91
6543.00,0.91
6542.00,0.91
6541.00,0.91
6540.00,0.92
6539.00,0.92
6538.00,0.92
6537.00,0.92
6536.00,0.92
6535.00,0.92
6534.00,0.92
6533.00,0.92
6532.00,0.92
6531.00,0.92
6530.00,0.92
6529.00,0.92
6528.00,0.93
6527.00,0.93
6526.00,0.93
6525.00,0.93
6524.00,0.93
6523.00,0.93
6522.00,0.93
6521.00,0.93
6520.00,0.93
6519.00,0.94
6518.00,0.94
6517.00,0.94
6516.00,0.94
6515.00,0.94
6514.00,0.94
6513.00,0.94
6512.00,0.94
6511.00,0.94
6510.00,0.94
6509.00,0.95
6508.00,0.95
6507.00,0.95
6506.00,0.95
6505.00,0.95
6504.00,0.95
6503.00,0.95
6502.00,0.95
6501.00,0.96
6500.00,0.96
6499.00,0.96
6498.00,0.96
6497.00,0.96
6496.00,0.96
6495.00,0.96
6494.00,0.96
6493.00,0.97
6492.00,0.97
6491.00,0.97
6490.00,0.97
6489.00,0.97
6488.00,0.97
6487.00,0.97
6486.00,0.97
6485.00,0.97
6484.00,0.97
6483.00,0.97
6482.00,0.97
6481.00,0.97
6480.00,0.98
6479.00,0.98
6478.00,0.98
6477.00,0.98
6476.00,0.98
6475.00,0.98
6474.00,0.98
6473.00,0.98
6472.00,0.98
6471.00,0.98
6470.00,0.99
6469.00,0.99
6468.00,0.99
6467.00,0.99
6466.00,0.99
6465.00,0.99
6464.00,0.99
6463.00,0.99
6462.00,0.99
6461.00,1.00
6460.00,1.00
6459.00,1.00
6458.00,1.00
6457.00,1.00
6456.00,1.00
6455.00,1.00
6454.00,1.00
6453.00,1.00
6452.00,1.00
6451.00,1.00
6450.00,1.00
6449.00,1.00
6448.00,1.00
6447.00,1.00
6446.00,1.00
6445.00,1.01
6444.00,1.01
6443.00,1.01
6442.00,1.01
6441.00,1.01
6440.00,1.01
6439.00,1.01
6438.00,1.01
6437.00,1.01
6436.00,1.01
6435.00,1.01
6434.00,1.01
6433.00,1.01
6432.00,1.01
6431.00,1.02
6430.00,1.02
6429.00,1.02
6428.00,1.02
6427.00,1.02
6426.00,1.02
6425.00,1.02
6424.00,1.02
6423.00,1.02
6422.00,1.02
6421.00,1.02
6420.00,1.02
6419.00,1.02
6418.00,1.02
6417.00,1.03
6416.00,1.03
6415.00,1.03
6414.00,1.03
6413.00,1.03
6412.00,1.03
6411.00,1.03
6410.00,1.03
6409.00,1.04
6408.00,1.04
6407.00,1.04
6406.00,1.04
6405.00,1.04
6404.00,1.04
6403.00,1.04
6402.00,1.05
6401.00,1.05
6400.00,1.05
6399.00,1.05
6398.00,1.05
6397.00,1.05
6396.00,1.05
6395.00,1.05
6394.00,1.05
6393.00,1.05
6392.00,1.05
6391.00,1.05
6390.00,1.05
6389.00,1.05
6388.00,1.05
6387.00,1.06
6386.00,1.06
6385.00,1.06
6384.00,1.06
6383.00,1.06
6382.00,1.06
6381.00,1.06
6380.00,1.06
6379.00,1.06
6378.00,1.06
6377.00,1.07
6376.00,1.07
6375.00,1.07
6374.00,1.07
6373.00,1.07
6372.00,1.07
6371.00,1.07
6370.00,1.07
6369.00,1.07
6368.00,1.07
6367.00,1.07
6366.00,1.07
6365.00,1.07
6364.00,1.08
6363.00,1.08
6362.00,1.08
6361.00,1.08
6360.00,1.08
6359.00,1.08
6358.00,1.08
6357.00,1.08
6356.00,1.08
6355.00,1.09
6354.00,1.09
6353.00,1.09
6352.00,1.09
6351.00,1.09
6350.00,1.09
6349.00,1.09
6348.00,1.10
6347.00,1.10
6346.00,1.10
6345.00,1.10
6344.00,1.10
6343.00,1.10
6342.00,1.11
6341.00,1.11
6340.00,1.11
6339.00,1.11
6338.00,1.11
6337.00,1.11
6336.00,1.11
6335.00,1.12
6334.00,1.12
6333.00,1.12
6332.00,1.12
6331.00,1.12
6330.00,1.12
6329.00,1.12
6328.00,1.12
6327.00,1.12
6326.00,1.12
6325.00,1.13
6324.00,1.13
6323.00,1.13
6322.00,1.13
6321.00,1.13
6320.00,1.13
6319.00,1.13
6318.00,1.13
6317.00,1.14
6316.00,1.14
6315.00,1.14
6314.00,1.14
6313.00,1.14
6312.00,1.14
6311.00,1.14
6310.00,1.14
6309.00,1.15
6308.00,1.15
6307.00,1.15
6306.00,1.15
6305.00,1.15
6304.00,1.15
6303.00,1.16
6302.00,1.16
6301.00,1.16
6300.00,1.16
6299.00,1.16
6298.00,1.16
6297.00,1.16
6296.00,1.17
6295.00,1.17
6294.00,1.17
6293.00,1.17
6292.00,1.17
6291.00,1.17
6290.00,1.17
6289.00,1.17
6288.00,1.18
6287.00,1.18
6286.00,1.18
6285.00,1.18
6284.00,1.18
6283.00,1.18
6282.00,1.18
6281.00,1.19
6280.00,1.19
6279.00,1.19
6278.00,1.19
6277.00,1.19
6276.00,1.20
6275.00,1.20
6274.00,1.20
6273.00,1.20
6272.00,1.20
6271.00,1.21
6270.00,1.21
6269.00,1.21
6268.00,1.21
6267.00,1.21
6266.00,1.21
6265.00,1.22
6264.00,1.22
6263.00,1.22
6262.00,1.22
6261.00,1.22
6260.00,1.22
6259.00,1.23
6258.00,1.23
6257.00,1.23
6256.00,1.23
6255.00,1.23
6254.00,1.23
6253.00,1.23
6252.00,1.23
6251.00,1.23
6250.00,1.24
6249.00,1.24
6248.00,1.24
6247.00,1.24
6246.00,1.24
6245.00,1.24
6244.00,1.25
6243.00,1.25
6242.00,1.25
6241.00,1.25
6240.00,1.25
6239.00,1.26
6238.00,1.26
6237.00,1.26
6236.00,1.26
6235.00,1.26
6234.00,1.27
6233.00,1.27
6232.00,1.27
6231.00,1.27
6230.00,1.27
6229.00,1.28
6228.00,1.28
6227.00,1.28
6226.00,1.28
6225.00,1.28
6224.00,1.28
6223.00,1.28
6222.00,1.29
6221.00,1.29
6220.00,1.29
6219.00,1.29
6218.00,1.29
6217.00,1.29
6216.00,1.29
6215.00,1.30
6214.00,1.30
6213.00,1.30
6212.00,1.30
6211.00,1.30
6210.00,1.31
6209.00,1.31
6208.00,1.31
6207.00,1.31
6206.00,1.31
6205.00,1.32
6204.00,1.32
6203.00,1.32
6202.00,1.32
6201.00,1.32
6200.00,1.33
6199.00,1.33
6198.00,1.33
6197.00,1.33
6196.00,1.33
6195.00,1.34
6194.00,1.34
6193.00,1.34
6192.00,1.34
6191.00,1.35
6190.00,1.35
6189.00,1.35
6188.00,1.35
6187.00,1.35
6186.00,1.36
6185.00,1.36
6184.00,1.36
6183.00,1.36
6182.00,1.36
6181.00,1.37
6180.00,1.37
6179.00,1.37
6178.00,1.37
6177.00,1.37
6176.00,1.37
6175.00,1.38
6174.00,1.38
6173.00,1.38
6172.00,1.38
6171.00,1.38
6170.00,1.38
6169.00,1.39
6168.00,1.39
6167.00,1.39
6166.00,1.39
6165.00,1.39
6164.00,1.39
6163.00,1.40
6162.00,1.40
6161.00,1.40
6160.00,1.40
6159.00,1.40
6158.00,1.41
6157.00,1.41
6156.00,1.41
6155.00,1.41
6154.00,1.41
6153.00,1.42
6152.00,1.42
6151.00,1.42
6150.00,1.42
6149.00,1.42
6148.00,1.43
6147.00,1.43
6146.00,1.43
6145.00,1.43
6144.00,1.43
6143.00,1.44
6142.00,1.44
6141.00,1.44
6140.00,1.44
6139.00,1.44
6138.00,1.45
6137.00,1.45
6136.00,1.45
6135.00,1.45
6134.00,1.46
6133.00,1.46
6132.00,1.46
6131.00,1.46
6130.00,1.47
6129.00,1.47
6128.00,1.47
6127.00,1.47
6126.00,1.47
6125.00,1.48
6124.00,1.48
6123.00,1.48
6122.00,1.48
6121.00,1.48
6120.00,1.49
6119.00,1.49
6118.00,1.49
6117.00,1.49
6116.00,1.49
6115.00,1.50
6114.00,1.50
6113.00,1.50
6112.00,1.50
6111.00,1.50
6110.00,1.50
6109.00,1.51
6108.00,1.51
6107.00,1.51
6106.00,1.51
6105.00,1.51
6104.00,1.52
6103.00,1.52
6102.00,1.52
6101.00,1.52
6100.00,1.52
6099.00,1.53
6098.00,1.53
6097.00,1.53
6096.00,1.53
6095.00,1.53
6094.00,1.54
6093.00,1.54
6092.00,1.54
6091.00,1.54
6090.00,1.54
6089.00,1.55
6088.00,1.55
6087.00,1.55
6086.00,1.55
6085.00,1.55
6084.00,1.56
6083.00,1.56
6082.00,1.56
6081.00,1.56
6080.00,1.56
6079.00,1.57
6078.00,1.57
6077.00,1.57
6076.00,1.57
6075.00,1.57
6074.00,1.57
6073.00,1.57
6072.00,1.58
6071.00,1.58
6070.00,1.58
6069.00,1.58
6068.00,1.58
6067.00,1.58
6066.00,1.58
6065.00,1.58
6064.00,1.59
6063.00,1.59
6062.00,1.59
6061.00,1.59
6060.00,1.59
6059.00,1.59
6058.00,1.59
6057.00,1.60
6056.00,1.60
6055.00,1.60
6054.00,1.60
6053.00,1.60
6052.00,1.60
6051.00,1.61
6050.00,1.61
6049.00,1.61
6048.00,1.61
6047.00,1.61
6046.00,1.61
6045.00,1.61
6044.00,1.62
6043.00,1.62
6042.00,1.62
6041.00,1.62
6040.00,1.62
6039.00,1.62
6038.00,1.62
6037.00,1.62
6036.00,1.62
6035.00,1.62
6034.00,1.62
6033.00,1.62
6032.00,1.63
6031.00,1.63
6030.00,1.63
6029.00,1.63
6028.00,1.63
6027.00,1.63
6026.00,1.63
6025.00,1.63
6024.00,1.63
6023.00,1.63
6022.00,1.63
6021.00,1.63
6020.00,1.63
6019.00,1.63
6018.00,1.63
6017.00,1.63
6016.00,1.63
6015.00,1.63
6014.00,1.63
6013.00,1.63
6012.00,1.63
6011.00,1.63
6010.00,1.63
6009.00,1.63
6008.00,1.63
6007.00,1.63
6006.00,1.63
6005.00,1.63
6004.00,1.63
6003.00,1.63
6002.00,1.62
6001.00,1.62
6000.00,1.62
5999.00,1.62
5998.00,1.62
5997.00,1.62
5996.00,1.62
5995.00,1.62
5994.00,1.62
5993.00,1.62
5992.00,1.62
5991.00,1.62
5990.00,1.61
5989.00,1.61
5988.00,1.61
5987.00,1.61
5986.00,1.60
5985.00,1.60
5984.00,1.60
5983.00,1.59
5982.00,1.59
5981.00,1.58
5980.00,1.58
5979.00,1.57
5978.00,1.56
5977.00,1.56
5976.00,1.55
5975.00,1.55
5974.00,1.54
5973.00,1.53
5972.00,1.52
5971.00,1.52
5970.00,1.51
5969.00,1.50
5968.00,1.49
5967.00,1.48
5966.00,1.47
5965.00,1.46
5964.00,1.45
5963.00,1.44
5962.00,1.43
5961.00,1.42
5960.00,1.41
5959.00,1.40
5958.00,1.39
5957.00,1.38
5956.00,1.37
5955.00,1.36
5954.00,1.36
5953.00,1.35
5952.00,1.34
5951.00,1.33
5950.00,1.32
5949.00,1.32
5948.00,1.31
5947.00,1.30
5946.00,1.30
5945.00,1.29
5944.00,1.29
5943.00,1.28
5942.00,1.28
5941.00,1.28
5940.00,1.27
5939.00,1.27
5938.00,1.27
5937.00,1.27
5936.00,1.27
5935.00,1.26
5934.00,1.26
5933.00,1.26
5932.00,1.26
5931.00,1.26
5930.00,1.26
5929.00,1.26
5928.00,1.26
5927.00,1.25
5926.00,1.25
5925.00,1.25
5924.00,1.25
5923.00,1.24
5922.00,1.24
5921.00,1.24
5920.00,1.23
5919.00,1.23
5918.00,1.23
5917.00,1.22
5916.00,1.22
5915.00,1.22
5914.00,1.21
5913.00,1.21
5912.00,1.20
5911.00,1.20
5910.00,1.20
5909.00,1.20
5908.00,1.19
5907.00,1.19
5906.00,1.19
5905.00,1.19
5904.00,1.19
5903.00,1.19
5902.00,1.18
5901.00,1.18
5900.00,1.18
5899.00,1.18
5898.00,1.19
5897.00,1.19
5896.00,1.19
5895.00,1.19
5894.00,1.19
5893.00,1.19
5892.00,1.20
5891.00,1.20
5890.00,1.20
5889.00,1.21
5888.00,1.21
5887.00,1.21
5886.00,1.22
5885.00,1.22
5884.00,1.23
5883.00,1.23
5882.00,1.24
5881.00,1.24
5880.00,1.24
5879.00,1.25
5878.00,1.25
5877.00,1.25
5876.00,1.26
5875.00,1.26
5874.00,1.26
5873.00,1.27
5872.00,1.27
5871.00,1.27
5870.00,1.28
5869.00,1.28
5868.00,1.28
5867.00,1.28
5866.00,1.29
5865.00,1.29
5864.00,1.29
5863.00,1.30
5862.00,1.30
5861.00,1.30
5860.00,1.30
5859.00,1.31
5858.00,1.31
5857.00,1.31
5856.00,1.31
5855.00,1.31
5854.00,1.32
5853.00,1.32
5852.00,1.32
5851.00,1.32
5850.00,1.32
5849.00,1.32
5848.00,1.32
5847.00,1.33
5846.00,1.33
5845.00,1.33
5844.00,1.33
5843.00,1.33
5842.00,1.33
5841.00,1.33
5840.00,1.33
5839.00,1.33
5838.00,1.33
5837.00,1.33
5836.00,1.33
5835.00,1.33
5834.00,1.33
5833.00,1.33
5832.00,1.33
5831.00,1.33
5830.00,1.33
5829.00,1.33
5828.00,1.33
5827.00,1.33
5826.00,1.33
5825.00,1.33
5824.00,1.33
5823.00,1.33
5822.00,1.33
5821.00,1.33
5820.00,1.33
5819.00,1.33
5818.00,1.33
5817.00,1.33
5816.00,1.33
5815.00,1.33
5814.00,1.33
5813.00,1.33
5812.00,1.33
5811.00,1.33
5810.00,1.33
5809.00,1.33
5808.00,1.33
5807.00,1.33
5806.00,1.32
5805.00,1.32
5804.00,1.32
5803.00,1.32
5802.00,1.32
5801.00,1.32
5800.00,1.32
5799.00,1.32
5798.00,1.31
5797.00,1.31
5796.00,1.31
5795.00,1.31
5794.00,1.30
5793.00,1.30
5792.00,1.30
5791.00,1.29
5790.00,1.29
5789.00,1.29
5788.00,1.28
5787.00,1.28
5786.00,1.28
5785.00,1.27
5784.00,1.27
5783.00,1.27
5782.00,1.26
5781.00,1.26
5780.00,1.26
5779.00,1.26
5778.00,1.25
5777.00,1.25
5776.00,1.25
5775.00,1.25
5774.00,1.25
5773.00,1.25
5772.00,1.25
5771.00,1.25
5770.00,1.25
5769.00,1.25
5768.00,1.25
5767.00,1.25
5766.00,1.26
5765.00,1.26
5764.00,1.26
5763.00,1.27
5762.00,1.27
5761.00,1.27
5760.00,1.28
5759.00,1.28
5758.00,1.28
5757.00,1.29
5756.00,1.29
5755.00,1.30
5754.00,1.30
5753.00,1.30
5752.00,1.31
5751.00,1.31
5750.00,1.32
5749.00,1.32
5748.00,1.33
5747.00,1.33
5746.00,1.33
5745.00,1.34
5744.00,1.34
5743.00,1.35
5742.00,1.35
5741.00,1.35
5740.00,1.36
5739.00,1.36
5738.00,1.36
5737.00,1.37
5736.00,1.37
5735.00,1.37
5734.00,1.38
5733.00,1.38
5732.00,1.38
5731.00,1.39
5730.00,1.39
5729.00,1.39
5728.00,1.39
5727.00,1.39
5726.00,1.39
5725.00,1.40
5724.00,1.40
5723.00,1.40
5722.00,1.40
5721.00,1.40
5720.00,1.40
5719.00,1.40
5718.00,1.40
5717.00,1.40
5716.00,1.40
5715.00,1.40
5714.00,1.40
5713.00,1.40
5712.00,1.40
5711.00,1.40
5710.00,1.40
5709.00,1.40
5708.00,1.40
5707.00,1.40
5706.00,1.40
5705.00,1.40
5704.00,1.39
5703.00,1.39
5702.00,1.39
5701.00,1.39
5700.00,1.39
5699.00,1.39
5698.00,1.38
5697.00,1.38
5696.00,1.38
5695.00,1.38
5694.00,1.37
5693.00,1.37
5692.00,1.37
5691.00,1.37
5690.00,1.36
5689.00,1.36
5688.00,1.36
5687.00,1.36
5686.00,1.35
5685.00,1.35
5684.00,1.35
5683.00,1.35
5682.00,1.35
5681.00,1.35
5680.00,1.35
5679.00,1.34
5678.00,1.34
5677.00,1.34
5676.00,1.34
5675.00,1.34
5674.00,1.34
5673.00,1.34
5672.00,1.34
5671.00,1.34
5670.00,1.35
5669.00,1.35
5668.00,1.35
5667.00,1.35
5666.00,1.35
5665.00,1.35
5664.00,1.35
5663.00,1.35
5662.00,1.35
5661.00,1.36
5660.00,1.36
5659.00,1.36
5658.00,1.36
5657.00,1.36
5656.00,1.37
5655.00,1.37
5654.00,1.37
5653.00,1.37
5652.00,1.38
5651.00,1.38
5650.00,1.38
5649.00,1.39
5648.00,1.39
5647.00,1.39
5646.00,1.39
5645.00,1.40
5644.00,1.40
5643.00,1.40
5642.00,1.41
5641.00,1.41
5640.00,1.41
5639.00,1.41
5638.00,1.42
5637.00,1.42
5636.00,1.42
5635.00,1.42
5634.00,1.42
5633.00,1.43
5632.00,1.43
5631.00,1.43
5630.00,1.43
5629.00,1.43
5628.00,1.43
5627.00,1.44
5626.00,1.44
5625.00,1.44
5624.00,1.44
5623.00,1.44
5622.00,1.45
5621.00,1.45
5620.00,1.45
5619.00,1.45
5618.00,1.45
5617.00,1.46
5616.00,1.46
5615.00,1.46
5614.00,1.46
5613.00,1.46
5612.00,1.47
5611.00,1.47
5610.00,1.47
5609.00,1.47
5608.00,1.48
5607.00,1.48
5606.00,1.48
5605.00,1.48
5604.00,1.49
5603.00,1.49
5602.00,1.49
5601.00,1.49
5600.00,1.50
5599.00,1.50
5598.00,1.50
5597.00,1.50
5596.00,1.51
5595.00,1.51
5594.00,1.51
5593.00,1.51
5592.00,1.52
5591.00,1.52
5590.00,1.52
5589.00,1.52
5588.00,1.52
5587.00,1.53
5586.00,1.53
5585.00,1.53
5584.00,1.53
5583.00,1.54
5582.00,1.54
5581.00,1.54
5580.00,1.54
5579.00,1.55
5578.00,1.55
5577.00,1.55
5576.00,1.55
5575.00,1.55
5574.00,1.56
5573.00,1.56
5572.00,1.56
5571.00,1.56
5570.00,1.57
5569.00,1.57
5568.00,1.57
5567.00,1.57
5566.00,1.57
5565.00,1.57
5564.00,1.58
5563.00,1.58
5562.00,1.58
5561.00,1.58
5560.00,1.58
5559.00,1.59
5558.00,1.59
5557.00,1.59
5556.00,1.59
5555.00,1.60
5554.00,1.60
5553.00,1.60
5552.00,1.60
5551.00,1.60
5550.00,1.61
5549.00,1.61
5548.00,1.61
5547.00,1.61
5546.00,1.61
5545.00,1.62
5544.00,1.62
5543.00,1.62
5542.00,1.62
5541.00,1.63
5540.00,1.63
5539.00,1.63
5538.00,1.63
5537.00,1.63
5536.00,1.64
5535.00,1.64
5534.00,1.64
5533.00,1.64
5532.00,1.64
5531.00,1.64
5530.00,1.65
5529.00,1.65
5528.00,1.65
5527.00,1.65
5526.00,1.65
5525.00,1.65
5524.00,1.65
5523.00,1.65
5522.00,1.65
5521.00,1.65
5520.00,1.65
5519.00,1.65
5518.00,1.65
5517.00,1.65
5516.00,1.66
5515.00,1.66
5514.00,1.66
5513.00,1.66
5512.00,1.66
5511.00,1.66
5510.00,1.66
5509.00,1.66
5508.00,1.66
5507.00,1.66
5506.00,1.66
5505.00,1.67
5504.00,1.67
5503.00,1.67
5502.00,1.67
5501.00,1.67
5500.00,1.67
5499.00,1.67
5498.00,1.67
5497.00,1.68
5496.00,1.68
5495.00,1.68
5494.00,1.68
5493.00,1.68
5492.00,1.69
5491.00,1.69
5490.00,1.69
5489.00,1.69
5488.00,1.69
5487.00,1.69
5486.00,1.70
5485.00,1.70
5484.00,1.70
5483.00,1.70
5482.00,1.70
5481.00,1.70
5480.00,1.71
5479.00,1.71
5478.00,1.71
5477.00,1.71
5476.00,1.71
5475.00,1.71
5474.00,1.71
5473.00,1.72
5472.00,1.72
5471.00,1.72
5470.00,1.72
5469.00,1.72
5468.00,1.73
5467.00,1.73
5466.00,1.73
5465.00,1.73
5464.00,1.73
5463.00,1.74
5462.00,1.74
5461.00,1.74
5460.00,1.74
5459.00,1.74
5458.00,1.75
5457.00,1.75
5456.00,1.75
5455.00,1.75
5454.00,1.75
5453.00,1.75
5452.00,1.75
5451.00,1.75
5450.00,1.75
5449.00,1.75
5448.00,1.75
5447.00,1.75
5446.00,1.75
5445.00,1.76
5444.00,1.76
5443.00,1.76
5442.00,1.76
5441.00,1.76
5440.00,1.76
5439.00,1.76
5438.00,1.76
5437.00,1.76
5436.00,1.76
5435.00,1.76
5434.00,1.76
5433.00,1.76
5432.00,1.76
5431.00,1.76
5430.00,1.76
5429.00,1.76
5428.00,1.76
5427.00,1.76
5426.00,1.76
5425.00,1.76
5424.00,1.76
5423.00,1.76
5422.00,1.76
5421.00,1.76
5420.00,1.76
5419.00,1.76
5418.00,1.76
5417.00,1.76
5416.00,1.76
5415.00,1.76
5414.00,1.76
5413.00,1.76
5412.00,1.76
5411.00,1.76
5410.00,1.76
5409.00,1.76
5408.00,1.76
5407.00,1.76
5406.00,1.76
5405.00,1.76
5404.00,1.76
5403.00,1.76
5402.00,1.76
5401.00,1.76
5400.00,1.76
5399.00,1.76
5398.00,1.76
5397.00,1.75
5396.00,1.75
5395.00,1.75
5394.00,1.75
5393.00,1.75
5392.00,1.75
5391.00,1.74
5390.00,1.74
5389.00,1.74
5388.00,1.73
5387.00,1.73
5386.00,1.73
5385.00,1.72
5384.00,1.72
5383.00,1.72
5382.00,1.71
5381.00,1.71
5380.00,1.70
5379.00,1.70
5378.00,1.69
5377.00,1.69
5376.00,1.68
5375.00,1.67
5374.00,1.67
5373.00,1.66
5372.00,1.65
5371.00,1.65
5370.00,1.64
5369.00,1.63
5368.00,1.62
5367.00,1.62
5366.00,1.61
5365.00,1.60
5364.00,1.59
5363.00,1.58
5362.00,1.57
5361.00,1.56
5360.00,1.56
5359.00,1.55
5358.00,1.54
5357.00,1.53
5356.00,1.51
5355.00,1.50
5354.00,1.49
5353.00,1.48
5352.00,1.47
5351.00,1.46
5350.00,1.44
5349.00,1.43
5348.00,1.42
5347.00,1.40
5346.00,1.39
5345.00,1.38
5344.00,1.36
5343.00,1.35
5342.00,1.33
5341.00,1.32
5340.00,1.30
5339.00,1.29
5338.00,1.27
5337.00,1.26
5336.00,1.24
5335.00,1.23
5334.00,1.21
5333.00,1.19
5332.00,1.18
5331.00,1.16
5330.00,1.15
5329.00,1.13
5328.00,1.12
5327.00,1.10
5326.00,1.09
5325.00,1.07
5324.00,1.06
5323.00,1.04
5322.00,1.03
5321.00,1.01
5320.00,1.00
5319.00,0.99
5318.00,0.97
5317.00,0.96
5316.00,0.95
5315.00,0.93
5314.00,0.92
5313.00,0.91
5312.00,0.89
5311.00,0.88
5310.00,0.87
5309.00,0.86
5308.00,0.85
5307.00,0.84
5306.00,0.83
5305.00,0.82
5304.00,0.81
5303.00,0.81
5302.00,0.80
5301.00,0.79
5300.00,0.79
5299.00,0.78
5298.00,0.78
5297.00,0.77
5296.00,0.77
5295.00,0.76
5294.00,0.76
5293.00,0.75
5292.00,0.75
5291.00,0.75
5290.00,0.74
5289.00,0.74
5288.00,0.74
5287.00,0.74
5286.00,0.73
5285.00,0.73
5284.00,0.73
5283.00,0.73
5282.00,0.72
5281.00,0.72
5280.00,0.72
5279.00,0.72
5278.00,0.72
5277.00,0.72
5276.00,0.71
5275.00,0.71
5274.00,0.71
5273.00,0.71
5272.00,0.71
5271.00,0.71
5270.00,0.71
5269.00,0.71
5268.00,0.71
5267.00,0.71
5266.00,0.71
5265.00,0.71
5264.00,0.71
5263.00,0.71
5262.00,0.70
5261.00,0.70
5260.00,0.70
5259.00,0.70
5258.00,0.70
5257.00,0.70
5256.00,0.70
5255.00,0.70
5254.00,0.70
5253.00,0.70
5252.00,0.70
5251.00,0.70
5250.00,0.70
5249.00,0.70
5248.00,0.70
5247.00,0.70
5246.00,0.70
5245.00,0.70
5244.00,0.70
5243.00,0.70
5242.00,0.70
5241.00,0.70
5240.00,0.70
5239.00,0.70
5238.00,0.70
5237.00,0.71
5236.00,0.71
5235.00,0.71
5234.00,0.71
5233.00,0.71
5232.00,0.71
5231.00,0.71
5230.00,0.71
5229.00,0.71
5228.00,0.71
5227.00,0.71
5226.00,0.71
5225.00,0.71
5224.00,0.71
5223.00,0.72
5222.00,0.72
5221.00,0.72
5220.00,0.72
5219.00,0.72
5218.00,0.72
5217.00,0.72
5216.00,0.72
5215.00,0.72
5214.00,0.72
5213.00,0.72
5212.00,0.71
5211.00,0.71
5210.00,0.71
5209.00,0.71
5208.00,0.71
5207.00,0.71
5206.00,0.71
5205.00,0.71
5204.00,0.71
5203.00,0.71
5202.00,0.71
5201.00,0.71
5200.00,0.71
5199.00,0.71
5198.00,0.71
5197.00,0.71
5196.00,0.71
5195.00,0.71
5194.00,0.71
5193.00,0.72
5192.00,0.72
5191.00,0.72
5190.00,0.72
5189.00,0.72
5188.00,0.72
5187.00,0.72
5186.00,0.72
5185.00,0.72
5184.00,0.72
5183.00,0.73
5182.00,0.73
5181.00,0.73
5180.00,0.73
5179.00,0.73
5178.00,0.73
5177.00,0.73
5176.00,0.73
5175.00,0.73
5174.00,0.73
5173.00,0.73
5172.00,0.73
5171.00,0.73
5170.00,0.73
5169.00,0.73
5168.00,0.73
5167.00,0.73
5166.00,0.73
5165.00,0.73
5164.00,0.73
5163.00,0.73
5162.00,0.73
5161.00,0.73
5160.00,0.73
5159.00,0.73
5158.00,0.73
5157.00,0.73
5156.00,0.73
5155.00,0.73
5154.00,0.73
5153.00,0.73
5152.00,0.74
5151.00,0.74
5150.00,0.74
5149.00,0.74
5148.00,0.74
5147.00,0.74
5146.00,0.74
5145.00,0.74
5144.00,0.74
5143.00,0.74
5142.00,0.74
5141.00,0.75
5140.00,0.75
5139.00,0.75
5138.00,0.75
5137.00,0.75
5136.00,0.75
5135.00,0.75
5134.00,0.75
5133.00,0.75
5132.00,0.75
5131.00,0.75
5130.00,0.76
5129.00,0.76
5128.00,0.76
5127.00,0.76
5126.00,0.76
5125.00,0.76
5124.00,0.76
5123.00,0.76
5122.00,0.76
5121.00,0.76
5120.00,0.76
5119.00,0.76
5118.00,0.76
5117.00,0.76
5116.00,0.76
5115.00,0.76
5114.00,0.76
5113.00,0.76
5112.00,0.76
5111.00,0.77
5110.00,0.77
5109.00,0.77
5108.00,0.77
5107.00,0.77
5106.00,0.77
5105.00,0.77
5104.00,0.77
5103.00,0.77
5102.00,0.77
5101.00,0.77
5100.00,0.77
5099.00,0.77
5098.00,0.77
5097.00,0.77
5096.00,0.77
5095.00,0.78
5094.00,0.78
5093.00,0.78
5092.00,0.78
5091.00,0.78
5090.00,0.78
5089.00,0.78
5088.00,0.78
5087.00,0.78
5086.00,0.78
5085.00,0.78
5084.00,0.78
5083.00,0.78
5082.00,0.78
5081.00,0.78
5080.00,0.78
5079.00,0.78
5078.00,0.79
5077.00,0.79
5076.00,0.79
5075.00,0.79
5074.00,0.79
5073.00,0.79
5072.00,0.79
5071.00,0.79
5070.00,0.79
5069.00,0.80
5068.00,0.80
5067.00,0.80
5066.00,0.80
5065.00,0.80
5064.00,0.80
5063.00,0.80
5062.00,0.80
5061.00,0.80
5060.00,0.80
5059.00,0.80
5058.00,0.81
5057.00,0.81
5056.00,0.81
5055.00,0.81
5054.00,0.81
5053.00,0.81
5052.00,0.81
5051.00,0.81
5050.00,0.81
5049.00,0.81
5048.00,0.81
5047.00,0.81
5046.00,0.81
5045.00,0.81
5044.00,0.82
5043.00,0.82
5042.00,0.82
5041.00,0.82
5040.00,0.82
5039.00,0.82
5038.00,0.82
5037.00,0.82
5036.00,0.82
5035.00,0.82
5034.00,0.82
5033.00,0.82
5032.00,0.82
5031.00,0.83
5030.00,0.83
5029.00,0.83
5028.00,0.83
5027.00,0.83
5026.00,0.83
5025.00,0.83
5024.00,0.83
5023.00,0.83
5022.00,0.83
5021.00,0.83
5020.00,0.83
5019.00,0.84
5018.00,0.84
5017.00,0.84
5016.00,0.84
5015.00,0.84
5014.00,0.84
5013.00,0.85
5012.00,0.85
5011.00,0.85
5010.00,0.85
5009.00,0.85
5008.00,0.86
5007.00,0.86
5006.00,0.86
5005.00,0.86
5004.00,0.86
5003.00,0.86
5002.00,0.86
5001.00,0.86
5000.00,0.86
4999.00,0.87
4998.00,0.87
4997.00,0.87
4996.00,0.87
4995.00,0.87
4994.00,0.87
4993.00,0.87
4992.00,0.87
4991.00,0.87
4990.00,0.87
4989.00,0.87
4988.00,0.87
4987.00,0.87
4986.00,0.87
4985.00,0.87
4984.00,0.87
4983.00,0.87
4982.00,0.88
4981.00,0.88
4980.00,0.88
4979.00,0.88
4978.00,0.88
4977.00,0.88
4976.00,0.88
4975.00,0.88
4974.00,0.89
4973.00,0.89
4972.00,0.89
4971.00,0.89
4970.00,0.89
4969.00,0.89
4968.00,0.90
4967.00,0.90
4966.00,0.90
4965.00,0.90
4964.00,0.90
4963.00,0.90
4962.00,0.91
4961.00,0.91
4960.00,0.91
4959.00,0.91
4958.00,0.91
4957.00,0.92
4956.00,0.92
4955.00,0.92
4954.00,0.92
4953.00,0.92
4952.00,0.92
4951.00,0.92
4950.00,0.92
4949.00,0.92
4948.00,0.92
4947.00,0.93
4946.00,0.93
4945.00,0.93
4944.00,0.93
4943.00,0.93
4942.00,0.93
4941.00,0.93
4940.00,0.93
4939.00,0.93
4938.00,0.93
4937.00,0.93
4936.00,0.93
4935.00,0.94
4934.00,0.94
4933.00,0.94
4932.00,0.94
4931.00,0.94
4930.00,0.94
4929.00,0.94
4928.00,0.94
4927.00,0.95
4926.00,0.95
4925.00,0.95
4924.00,0.95
4923.00,0.95
4922.00,0.95
4921.00,0.96
4920.00,0.96
4919.00,0.96
4918.00,0.96
4917.00,0.96
4916.00,0.96
4915.00,0.96
4914.00,0.97
4913.00,0.97
4912.00,0.97
4911.00,0.97
4910.00,0.97
4909.00,0.97
4908.00,0.97
4907.00,0.97
4906.00,0.97
4905.00,0.97
4904.00,0.97
4903.00,0.97
4902.00,0.97
4901.00,0.97
4900.00,0.97
4899.00,0.97
4898.00,0.97
4897.00,0.97
4896.00,0.97
4895.00,0.97
4894.00,0.97
4893.00,0.97
4892.00,0.98
4891.00,0.98
4890.00,0.98
4889.00,0.98
4888.00,0.98
4887.00,0.98
4886.00,0.98
4885.00,0.99
4884.00,0.99
4883.00,0.99
4882.00,0.99
4881.00,0.99
4880.00,0.99
4879.00,0.99
4878.00,0.99
4877.00,0.99
4876.00,0.99
4875.00,0.99
4874.00,0.99
4873.00,0.99
4872.00,0.99
4871.00,0.99
4870.00,0.99
4869.00,0.99
4868.00,1.00
4867.00,1.00
4866.00,1.00
4865.00,1.00
4864.00,1.00
4863.00,1.00
4862.00,1.00
4861.00,1.00
4860.00,1.00
4859.00,1.00
4858.00,1.00
4857.00,1.00
4856.00,1.01
4855.00,1.01
4854.00,1.01
4853.00,1.01
4852.00,1.01
4851.00,1.01
4850.00,1.01
4849.00,1.01
4848.00,1.02
4847.00,1.02
4846.00,1.02
4845.00,1.02
4844.00,1.02
4843.00,1.02
4842.00,1.02
4841.00,1.02
4840.00,1.02
4839.00,1.03
4838.00,1.03
4837.00,1.03
4836.00,1.03
4835.00,1.03
4834.00,1.03
4833.00,1.03
4832.00,1.03
4831.00,1.03
4830.00,1.03
4829.00,1.03
4828.00,1.04
4827.00,1.04
4826.00,1.04
4825.00,1.04
4824.00,1.04
4823.00,1.04
4822.00,1.04
4821.00,1.05
4820.00,1.05
4819.00,1.05
4818.00,1.05
4817.00,1.05
4816.00,1.05
4815.00,1.05
4814.00,1.06
4813.00,1.06
4812.00,1.06
4811.00,1.06
4810.00,1.06
4809.00,1.06
4808.00,1.06
4807.00,1.06
4806.00,1.07
4805.00,1.07
4804.00,1.07
4803.00,1.07
4802.00,1.07
4801.00,1.07
4800.00,1.07
4799.00,1.07
4798.00,1.07
4797.00,1.07
4796.00,1.08
4795.00,1.08
4794.00,1.08
4793.00,1.08
4792.00,1.08
4791.00,1.08
4790.00,1.08
4789.00,1.08
4788.00,1.08
4787.00,1.09
4786.00,1.09
4785.00,1.09
4784.00,1.09
4783.00,1.09
4782.00,1.10
4781.00,1.10
4780.00,1.10
4779.00,1.10
4778.00,1.10
4777.00,1.11
4776.00,1.11
4775.00,1.11
4774.00,1.11
4773.00,1.12
4772.00,1.12
4771.00,1.12
4770.00,1.12
4769.00,1.13
4768.00,1.13
4767.00,1.13
4766.00,1.13
4765.00,1.14
4764.00,1.14
4763.00,1.14
4762.00,1.14
4761.00,1.15
4760.00,1.15
4759.00,1.15
4758.00,1.16
4757.00,1.16
4756.00,1.16
4755.00,1.17
4754.00,1.17
4753.00,1.17
4752.00,1.17
4751.00,1.18
4750.00,1.18
4749.00,1.18
4748.00,1.18
4747.00,1.19
4746.00,1.19
4745.00,1.19
4744.00,1.19
4743.00,1.19
4742.00,1.19
4741.00,1.19
4740.00,1.19
4739.00,1.20
4738.00,1.20
4737.00,1.20
4736.00,1.20
4735.00,1.20
4734.00,1.20
4733.00,1.21
4732.00,1.21
4731.00,1.21
4730.00,1.21
4729.00,1.22
4728.00,1.22
4727.00,1.22
4726.00,1.22
4725.00,1.23
4724.00,1.23
4723.00,1.23
4722.00,1.24
4721.00,1.24
4720.00,1.24
4719.00,1.24
4718.00,1.25
4717.00,1.25
4716.00,1.25
4715.00,1.25
4714.00,1.26
4713.00,1.26
4712.00,1.26
4711.00,1.26
4710.00,1.27
4709.00,1.27
4708.00,1.27
4707.00,1.27
4706.00,1.28
4705.00,1.28
4704.00,1.28
4703.00,1.28
4702.00,1.29
4701.00,1.29
4700.00,1.29
4699.00,1.29
4698.00,1.30
4697.00,1.30
4696.00,1.30
4695.00,1.30
4694.00,1.30
4693.00,1.31
4692.00,1.31
4691.00,1.31
4690.00,1.31
4689.00,1.31
4688.00,1.32
4687.00,1.32
4686.00,1.32
4685.00,1.32
4684.00,1.33
4683.00,1.33
4682.00,1.33
4681.00,1.34
4680.00,1.34
4679.00,1.35
4678.00,1.35
4677.00,1.35
4676.00,1.36
4675.00,1.36
4674.00,1.37
4673.00,1.37
4672.00,1.37
4671.00,1.38
4670.00,1.38
4669.00,1.38
4668.00,1.39
4667.00,1.39
4666.00,1.39
4665.00,1.39
4664.00,1.39
4663.00,1.40
4662.00,1.40
4661.00,1.40
4660.00,1.40
4659.00,1.40
4658.00,1.40
4657.00,1.40
4656.00,1.41
4655.00,1.41
4654.00,1.41
4653.00,1.41
4652.00,1.41
4651.00,1.41
4650.00,1.41
4649.00,1.41
4648.00,1.42
4647.00,1.42
4646.00,1.42
4645.00,1.42
4644.00,1.42
4643.00,1.42
4642.00,1.42
4641.00,1.43
4640.00,1.43
4639.00,1.43
4638.00,1.43
4637.00,1.43
4636.00,1.44
4635.00,1.44
4634.00,1.44
4633.00,1.44
4632.00,1.44
4631.00,1.44
4630.00,1.45
4629.00,1.45
4628.00,1.45
4627.00,1.45
4626.00,1.45
4625.00,1.45
4624.00,1.45
4623.00,1.45
4622.00,1.46
4621.00,1.46
4620.00,1.46
4619.00,1.46
4618.00,1.46
4617.00,1.47
4616.00,1.47
4615.00,1.47
4614.00,1.47
4613.00,1.47
4612.00,1.48
4611.00,1.48
4610.00,1.48
4609.00,1.48
4608.00,1.48
4607.00,1.48
4606.00,1.49
4605.00,1.49
4604.00,1.49
4603.00,1.49
4602.00,1.49
4601.00,1.49
4600.00,1.49
4599.00,1.50
4598.00,1.50
4597.00,1.50
4596.00,1.50
4595.00,1.50
4594.00,1.50
4593.00,1.50
4592.00,1.50
4591.00,1.51
4590.00,1.51
4589.00,1.51
4588.00,1.51
4587.00,1.51
4586.00,1.51
4585.00,1.51
4584.00,1.51
4583.00,1.51
4582.00,1.51
4581.00,1.51
4580.00,1.51
4579.00,1.52
4578.00,1.52
4577.00,1.52
4576.00,1.52
4575.00,1.52
4574.00,1.52
4573.00,1.52
4572.00,1.52
4571.00,1.53
4570.00,1.53
4569.00,1.53
4568.00,1.53
4567.00,1.53
4566.00,1.54
4565.00,1.54
4564.00,1.54
4563.00,1.54
4562.00,1.55
4561.00,1.55
4560.00,1.55
4559.00,1.55
4558.00,1.56
4557.00,1.56
4556.00,1.56
4555.00,1.56
4554.00,1.56
4553.00,1.57
4552.00,1.57
4551.00,1.57
4550.00,1.57
4549.00,1.57
4548.00,1.57
4547.00,1.57
4546.00,1.57
4545.00,1.57
4544.00,1.58
4543.00,1.58
4542.00,1.58
4541.00,1.58
4540.00,1.58
4539.00,1.58
4538.00,1.58
4537.00,1.58
4536.00,1.58
4535.00,1.58
4534.00,1.58
4533.00,1.58
4532.00,1.59
4531.00,1.59
4530.00,1.59
4529.00,1.59
4528.00,1.59
4527.00,1.59
4526.00,1.59
4525.00,1.59
4524.00,1.59
4523.00,1.59
4522.00,1.59
4521.00,1.59
4520.00,1.59
4519.00,1.59
4518.00,1.59
4517.00,1.60
4516.00,1.60
4515.00,1.60
4514.00,1.59
4513.00,1.59
4512.00,1.59
4511.00,1.59
4510.00,1.59
4509.00,1.59
4508.00,1.59
4507.00,1.59
4506.00,1.59
4505.00,1.59
4504.00,1.59
4503.00,1.59
4502.00,1.59
4501.00,1.59
4500.00,1.58
4499.00,1.58
4498.00,1.58
4497.00,1.58
4496.00,1.58
4495.00,1.58
4494.00,1.58
4493.00,1.58
4492.00,1.58
4491.00,1.57
4490.00,1.57
4489.00,1.57
4488.00,1.57
4487.00,1.57
4486.00,1.56
4485.00,1.56
4484.00,1.56
4483.00,1.55
4482.00,1.55
4481.00,1.55
4480.00,1.55
4479.00,1.54
4478.00,1.54
4477.00,1.54
4476.00,1.53
4475.00,1.53
4474.00,1.53
4473.00,1.52
4472.00,1.52
4471.00,1.52
4470.00,1.51
4469.00,1.51
4468.00,1.51
4467.00,1.50
4466.00,1.50
4465.00,1.50
4464.00,1.50
4463.00,1.49
4462.00,1.49
4461.00,1.48
4460.00,1.48
4459.00,1.48
4458.00,1.47
4457.00,1.47
4456.00,1.46
4455.00,1.46
4454.00,1.45
4453.00,1.45
4452.00,1.44
4451.00,1.44
4450.00,1.43
4449.00,1.43
4448.00,1.42
4447.00,1.41
4446.00,1.41
4445.00,1.40
4444.00,1.39
4443.00,1.39
4442.00,1.38
4441.00,1.37
4440.00,1.37
4439.00,1.36
4438.00,1.35
4437.00,1.35
4436.00,1.34
4435.00,1.34
4434.00,1.33
4433.00,1.33
4432.00,1.33
4431.00,1.32
4430.00,1.32
4429.00,1.31
4428.00,1.31
4427.00,1.31
4426.00,1.31
4425.00,1.30
4424.00,1.30
4423.00,1.30
4422.00,1.30
4421.00,1.30
4420.00,1.30
4419.00,1.29
4418.00,1.29
4417.00,1.29
4416.00,1.29
4415.00,1.29
4414.00,1.29
4413.00,1.29
4412.00,1.29
4411.00,1.29
4410.00,1.29
4409.00,1.29
4408.00,1.29
4407.00,1.29
4406.00,1.29
4405.00,1.29
4404.00,1.29
4403.00,1.29
4402.00,1.29
4401.00,1.29
4400.00,1.29
4399.00,1.30
4398.00,1.30
4397.00,1.30
4396.00,1.30
4395.00,1.30
4394.00,1.30
4393.00,1.30
4392.00,1.31
4391.00,1.31
4390.00,1.31
4389.00,1.31
4388.00,1.31
4387.00,1.31
4386.00,1.32
4385.00,1.32
4384.00,1.32
4383.00,1.32
4382.00,1.33
4381.00,1.33
4380.00,1.33
4379.00,1.33
4378.00,1.33
4377.00,1.34
4376.00,1.34
4375.00,1.34
4374.00,1.34
4373.00,1.34
4372.00,1.35
4371.00,1.35
4370.00,1.35
4369.00,1.35
4368.00,1.35
4367.00,1.35
4366.00,1.35
4365.00,1.35
4364.00,1.35
4363.00,1.35
4362.00,1.35
4361.00,1.35
4360.00,1.35
4359.00,1.35
4358.00,1.35
4357.00,1.35
4356.00,1.35
4355.00,1.35
4354.00,1.35
4353.00,1.35
4352.00,1.35
4351.00,1.35
4350.00,1.35
4349.00,1.35
4348.00,1.35
4347.00,1.35
4346.00,1.35
4345.00,1.35
4344.00,1.35
4343.00,1.35
4342.00,1.35
4341.00,1.35
4340.00,1.35
4339.00,1.35
4338.00,1.36
4337.00,1.36
4336.00,1.36
4335.00,1.36
4334.00,1.36
4333.00,1.36
4332.00,1.36
4331.00,1.36
4330.00,1.36
4329.00,1.36
4328.00,1.37
4327.00,1.37
4326.00,1.37
4325.00,1.37
4324.00,1.37
4323.00,1.37
4322.00,1.38
4321.00,1.38
4320.00,1.38
4319.00,1.38
4318.00,1.39
4317.00,1.39
4316.00,1.39
4315.00,1.40
4314.00,1.40
4313.00,1.40
4312.00,1.40
4311.00,1.41
4310.00,1.41
4309.00,1.41
4308.00,1.42
4307.00,1.42
4306.00,1.42
4305.00,1.42
4304.00,1.43
4303.00,1.43
4302.00,1.43
4301.00,1.44
4300.00,1.44
4299.00,1.44
4298.00,1.45
4297.00,1.45
4296.00,1.45
4295.00,1.45
4294.00,1.45
4293.00,1.45
4292.00,1.46
4291.00,1.46
4290.00,1.46
4289.00,1.46
4288.00,1.46
4287.00,1.46
4286.00,1.46
4285.00,1.46
4284.00,1.46
4283.00,1.46
4282.00,1.46
4281.00,1.46
4280.00,1.46
4279.00,1.46
4278.00,1.47
4277.00,1.47
4276.00,1.47
4275.00,1.47
4274.00,1.47
4273.00,1.47
4272.00,1.47
4271.00,1.47
4270.00,1.47
4269.00,1.47
4268.00,1.47
4267.00,1.47
4266.00,1.47
4265.00,1.47
4264.00,1.47
4263.00,1.47
4262.00,1.47
4261.00,1.47
4260.00,1.46
4259.00,1.46
4258.00,1.46
4257.00,1.46
4256.00,1.46
4255.00,1.46
4254.00,1.46
4253.00,1.47
4252.00,1.47
4251.00,1.47
4250.00,1.47
4249.00,1.47
4248.00,1.47
4247.00,1.47
4246.00,1.47
4245.00,1.47
4244.00,1.47
4243.00,1.47
4242.00,1.48
4241.00,1.48
4240.00,1.48
4239.00,1.48
4238.00,1.48
4237.00,1.48
4236.00,1.48
4235.00,1.48
4234.00,1.48
4233.00,1.48
4232.00,1.48
4231.00,1.49
4230.00,1.49
4229.00,1.49
4228.00,1.49
4227.00,1.50
4226.00,1.50
4225.00,1.50
4224.00,1.50
4223.00,1.51
4222.00,1.51
4221.00,1.51
4220.00,1.51
4219.00,1.52
4218.00,1.52
4217.00,1.52
4216.00,1.52
4215.00,1.52
4214.00,1.52
4213.00,1.52
4212.00,1.52
4211.00,1.52
4210.00,1.52
4209.00,1.52
4208.00,1.52
4207.00,1.52
4206.00,1.52
4205.00,1.53
4204.00,1.53
4203.00,1.53
4202.00,1.53
4201.00,1.53
4200.00,1.53
4199.00,1.53
4198.00,1.54
4197.00,1.54
4196.00,1.54
4195.00,1.55
4194.00,1.55
4193.00,1.55
4192.00,1.55
4191.00,1.56
4190.00,1.56
4189.00,1.56
4188.00,1.56
4187.00,1.56
4186.00,1.56
4185.00,1.56
4184.00,1.56
4183.00,1.56
4182.00,1.56
4181.00,1.56
4180.00,1.56
4179.00,1.56
4178.00,1.56
4177.00,1.56
4176.00,1.56
4175.00,1.56
4174.00,1.56
4173.00,1.56
4172.00,1.56
4171.00,1.56
4170.00,1.56
4169.00,1.56
4168.00,1.56
4167.00,1.56
4166.00,1.56
4165.00,1.56
4164.00,1.57
4163.00,1.57
4162.00,1.57
4161.00,1.57
4160.00,1.57
4159.00,1.57
4158.00,1.57
4157.00,1.57
4156.00,1.57
4155.00,1.57
4154.00,1.57
4153.00,1.58
4152.00,1.58
4151.00,1.58
4150.00,1.58
4149.00,1.58
4148.00,1.58
4147.00,1.58
4146.00,1.58
4145.00,1.58
4144.00,1.58
4143.00,1.58
4142.00,1.58
4141.00,1.58
4140.00,1.58
4139.00,1.58
4138.00,1.58
4137.00,1.58
4136.00,1.58
4135.00,1.58
4134.00,1.58
4133.00,1.58
4132.00,1.58
4131.00,1.58
4130.00,1.58
4129.00,1.58
4128.00,1.59
4127.00,1.59
4126.00,1.59
4125.00,1.59
4124.00,1.60
4123.00,1.60
4122.00,1.60
4121.00,1.61
4120.00,1.61
4119.00,1.61
4118.00,1.61
4117.00,1.61
4116.00,1.61
4115.00,1.62
4114.00,1.62
4113.00,1.62
4112.00,1.62
4111.00,1.62
4110.00,1.62
4109.00,1.62
4108.00,1.62
4107.00,1.62
4106.00,1.62
4105.00,1.62
4104.00,1.62
4103.00,1.62
4102.00,1.62
4101.00,1.62
4100.00,1.62
4099.00,1.62
4098.00,1.62
4097.00,1.62
4096.00,1.62
4095.00,1.62
4094.00,1.62
4093.00,1.62
4092.00,1.62
4091.00,1.62
4090.00,1.62
4089.00,1.63
4088.00,1.63
4087.00,1.63
4086.00,1.63
4085.00,1.63
4084.00,1.63
4083.00,1.63
4082.00,1.63
4081.00,1.63
4080.00,1.63
4079.00,1.63
4078.00,1.63
4077.00,1.63
4076.00,1.63
4075.00,1.63
4074.00,1.63
4073.00,1.63
4072.00,1.63
4071.00,1.63
4070.00,1.63
4069.00,1.62
4068.00,1.62
4067.00,1.62
4066.00,1.62
4065.00,1.63
4064.00,1.63
4063.00,1.63
4062.00,1.63
4061.00,1.63
4060.00,1.64
4059.00,1.64
4058.00,1.64
4057.00,1.65
4056.00,1.65
4055.00,1.66
4054.00,1.66
4053.00,1.66
4052.00,1.67
4051.00,1.67
4050.00,1.67
4049.00,1.68
4048.00,1.68
4047.00,1.68
4046.00,1.68
4045.00,1.69
4044.00,1.69
4043.00,1.69
4042.00,1.69
4041.00,1.69
4040.00,1.69
4039.00,1.69
4038.00,1.70
4037.00,1.70
4036.00,1.70
4035.00,1.70
4034.00,1.70
4033.00,1.70
4032.00,1.70
4031.00,1.70
4030.00,1.70
4029.00,1.71
4028.00,1.71
4027.00,1.71
4026.00,1.71
4025.00,1.71
4024.00,1.71
4023.00,1.71
4022.00,1.72
4021.00,1.72
4020.00,1.72
4019.00,1.72
4018.00,1.72
4017.00,1.72
4016.00,1.72
4015.00,1.73
4014.00,1.73
4013.00,1.73
4012.00,1.73
4011.00,1.73
4010.00,1.74
4009.00,1.74
4008.00,1.74
4007.00,1.74
4006.00,1.75
4005.00,1.75
4004.00,1.75
4003.00,1.75
4002.00,1.76
4001.00,1.76
4000.00,1.76
