创建为新数据集,样品 021 用户 Administrator 日期 星期三, 十一月 01 2017
cm-1,%T
10000.00,1.71
9999.00,1.70
9998.00,1.70
9997.00,1.70
9996.00,1.70
9995.00,1.70
9994.00,1.70
9993.00,1.70
9992.00,1.70
9991.00,1.70
9990.00,1.70
9989.00,1.70
9988.00,1.70
9987.00,1.70
9986.00,1.70
9985.00,1.70
9984.00,1.70
9983.00,1.70
9982.00,1.69
9981.00,1.69
9980.00,1.69
9979.00,1.69
9978.00,1.69
9977.00,1.69
9976.00,1.69
9975.00,1.68
9974.00,1.68
9973.00,1.68
9972.00,1.68
9971.00,1.67
9970.00,1.67
9969.00,1.67
9968.00,1.67
9967.00,1.66
9966.00,1.66
9965.00,1.66
9964.00,1.66
9963.00,1.66
9962.00,1.66
9961.00,1.66
9960.00,1.66
9959.00,1.66
9958.00,1.66
9957.00,1.66
9956.00,1.66
9955.00,1.66
9954.00,1.66
9953.00,1.67
9952.00,1.67
9951.00,1.67
9950.00,1.67
9949.00,1.68
9948.00,1.68
9947.00,1.68
9946.00,1.69
9945.00,1.69
9944.00,1.69
9943.00,1.69
9942.00,1.70
9941.00,1.70
9940.00,1.70
9939.00,1.70
9938.00,1.70
9937.00,1.70
9936.00,1.70
9935.00,1.70
9934.00,1.70
9933.00,1.70
9932.00,1.70
9931.00,1.69
9930.00,1.69
9929.00,1.69
9928.00,1.68
9927.00,1.68
9926.00,1.68
9925.00,1.67
9924.00,1.67
9923.00,1.67
9922.00,1.67
9921.00,1.67
9920.00,1.67
9919.00,1.67
9918.00,1.67
9917.00,1.67
9916.00,1.68
9915.00,1.68
9914.00,1.68
9913.00,1.68
9912.00,1.69
9911.00,1.69
9910.00,1.69
9909.00,1.69
9908.00,1.69
9907.00,1.69
9906.00,1.69
9905.00,1.69
9904.00,1.69
9903.00,1.69
9902.00,1.69
9901.00,1.68
9900.00,1.68
9899.00,1.68
9898.00,1.67
9897.00,1.67
9896.00,1.66
9895.00,1.66
9894.00,1.66
9893.00,1.66
9892.00,1.66
9891.00,1.65
9890.00,1.65
9889.00,1.65
9888.00,1.66
9887.00,1.66
9886.00,1.66
9885.00,1.66
9884.00,1.67
9883.00,1.67
9882.00,1.67
9881.00,1.68
9880.00,1.68
9879.00,1.68
9878.00,1.68
9877.00,1.69
9876.00,1.69
9875.00,1.69
9874.00,1.69
9873.00,1.69
9872.00,1.69
9871.00,1.69
9870.00,1.69
9869.00,1.69
9868.00,1.68
9867.00,1.68
9866.00,1.68
9865.00,1.68
9864.00,1.68
9863.00,1.68
9862.00,1.68
9861.00,1.68
9860.00,1.68
9859.00,1.68
9858.00,1.68
9857.00,1.68
9856.00,1.68
9855.00,1.68
9854.00,1.68
9853.00,1.68
9852.00,1.68
9851.00,1.68
9850.00,1.68
9849.00,1.68
9848.00,1.68
9847.00,1.68
9846.00,1.68
9845.00,1.68
9844.00,1.68
9843.00,1.68
9842.00,1.68
9841.00,1.68
9840.00,1.68
9839.00,1.68
9838.00,1.68
9837.00,1.68
9836.00,1.68
9835.00,1.68
9834.00,1.68
9833.00,1.68
9832.00,1.68
9831.00,1.68
9830.00,1.68
9829.00,1.68
9828.00,1.67
9827.00,1.67
9826.00,1.67
9825.00,1.67
9824.00,1.67
9823.00,1.67
9822.00,1.67
9821.00,1.67
9820.00,1.68
9819.00,1.68
9818.00,1.68
9817.00,1.68
9816.00,1.68
9815.00,1.68
9814.00,1.68
9813.00,1.68
9812.00,1.68
9811.00,1.68
9810.00,1.67
9809.00,1.67
9808.00,1.67
9807.00,1.67
9806.00,1.67
9805.00,1.67
9804.00,1.66
9803.00,1.66
9802.00,1.66
9801.00,1.66
9800.00,1.66
9799.00,1.66
9798.00,1.66
9797.00,1.66
9796.00,1.66
9795.00,1.66
9794.00,1.66
9793.00,1.66
9792.00,1.67
9791.00,1.67
9790.00,1.67
9789.00,1.67
9788.00,1.67
9787.00,1.67
9786.00,1.68
9785.00,1.68
9784.00,1.68
9783.00,1.68
9782.00,1.68
9781.00,1.68
9780.00,1.68
9779.00,1.68
9778.00,1.68
9777.00,1.68
9776.00,1.68
9775.00,1.68
9774.00,1.68
9773.00,1.68
9772.00,1.68
9771.00,1.68
9770.00,1.68
9769.00,1.68
9768.00,1.68
9767.00,1.67
9766.00,1.67
9765.00,1.67
9764.00,1.67
9763.00,1.67
9762.00,1.67
9761.00,1.66
9760.00,1.66
9759.00,1.66
9758.00,1.66
9757.00,1.66
9756.00,1.65
9755.00,1.65
9754.00,1.65
9753.00,1.65
9752.00,1.65
9751.00,1.65
9750.00,1.65
9749.00,1.65
9748.00,1.65
9747.00,1.65
9746.00,1.65
9745.00,1.65
9744.00,1.65
9743.00,1.65
9742.00,1.65
9741.00,1.65
9740.00,1.66
9739.00,1.66
9738.00,1.66
9737.00,1.66
9736.00,1.66
9735.00,1.67
9734.00,1.67
9733.00,1.67
9732.00,1.67
9731.00,1.67
9730.00,1.67
9729.00,1.67
9728.00,1.67
9727.00,1.67
9726.00,1.67
9725.00,1.67
9724.00,1.67
9723.00,1.67
9722.00,1.67
9721.00,1.67
9720.00,1.67
9719.00,1.67
9718.00,1.67
9717.00,1.67
9716.00,1.67
9715.00,1.67
9714.00,1.67
9713.00,1.67
9712.00,1.67
9711.00,1.67
9710.00,1.67
9709.00,1.67
9708.00,1.67
9707.00,1.67
9706.00,1.67
9705.00,1.67
9704.00,1.67
9703.00,1.67
9702.00,1.67
9701.00,1.67
9700.00,1.67
9699.00,1.67
9698.00,1.67
9697.00,1.67
9696.00,1.67
9695.00,1.67
9694.00,1.67
9693.00,1.67
9692.00,1.67
9691.00,1.67
9690.00,1.67
9689.00,1.67
9688.00,1.67
9687.00,1.67
9686.00,1.66
9685.00,1.66
9684.00,1.66
9683.00,1.66
9682.00,1.66
9681.00,1.66
9680.00,1.66
9679.00,1.66
9678.00,1.66
9677.00,1.66
9676.00,1.66
9675.00,1.66
9674.00,1.66
9673.00,1.66
9672.00,1.65
9671.00,1.65
9670.00,1.65
9669.00,1.65
9668.00,1.65
9667.00,1.65
9666.00,1.65
9665.00,1.65
9664.00,1.65
9663.00,1.65
9662.00,1.65
9661.00,1.65
9660.00,1.65
9659.00,1.65
9658.00,1.65
9657.00,1.65
9656.00,1.65
9655.00,1.65
9654.00,1.66
9653.00,1.66
9652.00,1.66
9651.00,1.66
9650.00,1.66
9649.00,1.66
9648.00,1.66
9647.00,1.66
9646.00,1.66
9645.00,1.67
9644.00,1.67
9643.00,1.67
9642.00,1.67
9641.00,1.67
9640.00,1.67
9639.00,1.67
9638.00,1.66
9637.00,1.66
9636.00,1.66
9635.00,1.66
9634.00,1.66
9633.00,1.66
9632.00,1.65
9631.00,1.65
9630.00,1.65
9629.00,1.65
9628.00,1.65
9627.00,1.65
9626.00,1.65
9625.00,1.65
9624.00,1.65
9623.00,1.65
9622.00,1.65
9621.00,1.65
9620.00,1.65
9619.00,1.66
9618.00,1.66
9617.00,1.66
9616.00,1.66
9615.00,1.66
9614.00,1.66
9613.00,1.66
9612.00,1.66
9611.00,1.66
9610.00,1.67
9609.00,1.67
9608.00,1.67
9607.00,1.67
9606.00,1.67
9605.00,1.67
9604.00,1.66
9603.00,1.66
9602.00,1.66
9601.00,1.66
9600.00,1.66
9599.00,1.66
9598.00,1.66
9597.00,1.66
9596.00,1.66
9595.00,1.66
9594.00,1.66
9593.00,1.66
9592.00,1.66
9591.00,1.66
9590.00,1.66
9589.00,1.66
9588.00,1.66
9587.00,1.66
9586.00,1.65
9585.00,1.65
9584.00,1.65
9583.00,1.65
9582.00,1.65
9581.00,1.65
9580.00,1.65
9579.00,1.65
9578.00,1.65
9577.00,1.65
9576.00,1.65
9575.00,1.65
9574.00,1.65
9573.00,1.65
9572.00,1.65
9571.00,1.65
9570.00,1.65
9569.00,1.65
9568.00,1.64
9567.00,1.64
9566.00,1.64
9565.00,1.64
9564.00,1.64
9563.00,1.64
9562.00,1.64
9561.00,1.64
9560.00,1.64
9559.00,1.64
9558.00,1.64
9557.00,1.64
9556.00,1.64
9555.00,1.64
9554.00,1.64
9553.00,1.64
9552.00,1.64
9551.00,1.64
9550.00,1.64
9549.00,1.64
9548.00,1.64
9547.00,1.64
9546.00,1.64
9545.00,1.64
9544.00,1.64
9543.00,1.64
9542.00,1.64
9541.00,1.64
9540.00,1.64
9539.00,1.64
9538.00,1.64
9537.00,1.64
9536.00,1.64
9535.00,1.64
9534.00,1.64
9533.00,1.64
9532.00,1.65
9531.00,1.65
9530.00,1.65
9529.00,1.65
9528.00,1.65
9527.00,1.65
9526.00,1.65
9525.00,1.65
9524.00,1.65
9523.00,1.65
9522.00,1.65
9521.00,1.65
9520.00,1.65
9519.00,1.65
9518.00,1.65
9517.00,1.65
9516.00,1.64
9515.00,1.64
9514.00,1.64
9513.00,1.64
9512.00,1.64
9511.00,1.64
9510.00,1.64
9509.00,1.64
9508.00,1.64
9507.00,1.64
9506.00,1.64
9505.00,1.64
9504.00,1.64
9503.00,1.64
9502.00,1.64
9501.00,1.64
9500.00,1.64
9499.00,1.65
9498.00,1.65
9497.00,1.65
9496.00,1.65
9495.00,1.66
9494.00,1.66
9493.00,1.66
9492.00,1.67
9491.00,1.67
9490.00,1.67
9489.00,1.68
9488.00,1.68
9487.00,1.68
9486.00,1.69
9485.00,1.69
9484.00,1.69
9483.00,1.70
9482.00,1.70
9481.00,1.70
9480.00,1.70
9479.00,1.70
9478.00,1.70
9477.00,1.70
9476.00,1.70
9475.00,1.70
9474.00,1.70
9473.00,1.70
9472.00,1.70
9471.00,1.69
9470.00,1.69
9469.00,1.69
9468.00,1.69
9467.00,1.68
9466.00,1.68
9465.00,1.68
9464.00,1.68
9463.00,1.67
9462.00,1.67
9461.00,1.67
9460.00,1.67
9459.00,1.67
9458.00,1.67
9457.00,1.67
9456.00,1.67
9455.00,1.67
9454.00,1.67
9453.00,1.67
9452.00,1.67
9451.00,1.67
9450.00,1.67
9449.00,1.67
9448.00,1.67
9447.00,1.66
9446.00,1.66
9445.00,1.66
9444.00,1.66
9443.00,1.66
9442.00,1.66
9441.00,1.65
9440.00,1.65
9439.00,1.65
9438.00,1.65
9437.00,1.65
9436.00,1.65
9435.00,1.65
9434.00,1.65
9433.00,1.65
9432.00,1.65
9431.00,1.65
9430.00,1.65
9429.00,1.65
9428.00,1.65
9427.00,1.65
9426.00,1.65
9425.00,1.65
9424.00,1.65
9423.00,1.65
9422.00,1.65
9421.00,1.65
9420.00,1.65
9419.00,1.65
9418.00,1.65
9417.00,1.65
9416.00,1.65
9415.00,1.65
9414.00,1.65
9413.00,1.65
9412.00,1.65
9411.00,1.65
9410.00,1.65
9409.00,1.65
9408.00,1.65
9407.00,1.65
9406.00,1.65
9405.00,1.65
9404.00,1.65
9403.00,1.65
9402.00,1.65
9401.00,1.65
9400.00,1.65
9399.00,1.65
9398.00,1.65
9397.00,1.65
9396.00,1.65
9395.00,1.65
9394.00,1.64
9393.00,1.64
9392.00,1.64
9391.00,1.64
9390.00,1.64
9389.00,1.64
9388.00,1.64
9387.00,1.64
9386.00,1.64
9385.00,1.64
9384.00,1.65
9383.00,1.65
9382.00,1.65
9381.00,1.65
9380.00,1.65
9379.00,1.65
9378.00,1.65
9377.00,1.66
9376.00,1.66
9375.00,1.66
9374.00,1.66
9373.00,1.66
9372.00,1.66
9371.00,1.66
9370.00,1.66
9369.00,1.66
9368.00,1.66
9367.00,1.66
9366.00,1.66
9365.00,1.66
9364.00,1.66
9363.00,1.66
9362.00,1.65
9361.00,1.65
9360.00,1.65
9359.00,1.65
9358.00,1.65
9357.00,1.65
9356.00,1.65
9355.00,1.65
9354.00,1.65
9353.00,1.65
9352.00,1.65
9351.00,1.66
9350.00,1.66
9349.00,1.66
9348.00,1.66
9347.00,1.66
9346.00,1.66
9345.00,1.66
9344.00,1.67
9343.00,1.67
9342.00,1.67
9341.00,1.67
9340.00,1.67
9339.00,1.67
9338.00,1.67
9337.00,1.67
9336.00,1.67
9335.00,1.67
9334.00,1.67
9333.00,1.67
9332.00,1.67
9331.00,1.67
9330.00,1.67
9329.00,1.67
9328.00,1.66
9327.00,1.66
9326.00,1.66
9325.00,1.66
9324.00,1.66
9323.00,1.66
9322.00,1.66
9321.00,1.66
9320.00,1.66
9319.00,1.66
9318.00,1.66
9317.00,1.66
9316.00,1.66
9315.00,1.66
9314.00,1.66
9313.00,1.66
9312.00,1.66
9311.00,1.66
9310.00,1.66
9309.00,1.66
9308.00,1.66
9307.00,1.66
9306.00,1.66
9305.00,1.66
9304.00,1.67
9303.00,1.67
9302.00,1.67
9301.00,1.67
9300.00,1.67
9299.00,1.67
9298.00,1.67
9297.00,1.67
9296.00,1.67
9295.00,1.67
9294.00,1.67
9293.00,1.67
9292.00,1.67
9291.00,1.67
9290.00,1.66
9289.00,1.66
9288.00,1.66
9287.00,1.66
9286.00,1.66
9285.00,1.66
9284.00,1.66
9283.00,1.66
9282.00,1.66
9281.00,1.66
9280.00,1.66
9279.00,1.66
9278.00,1.66
9277.00,1.66
9276.00,1.66
9275.00,1.66
9274.00,1.66
9273.00,1.66
9272.00,1.66
9271.00,1.67
9270.00,1.67
9269.00,1.67
9268.00,1.67
9267.00,1.67
9266.00,1.67
9265.00,1.67
9264.00,1.68
9263.00,1.68
9262.00,1.68
9261.00,1.68
9260.00,1.68
9259.00,1.68
9258.00,1.69
9257.00,1.69
9256.00,1.69
9255.00,1.69
9254.00,1.69
9253.00,1.69
9252.00,1.69
9251.00,1.69
9250.00,1.68
9249.00,1.68
9248.00,1.68
9247.00,1.68
9246.00,1.68
9245.00,1.68
9244.00,1.68
9243.00,1.68
9242.00,1.68
9241.00,1.68
9240.00,1.68
9239.00,1.68
9238.00,1.68
9237.00,1.68
9236.00,1.68
9235.00,1.68
9234.00,1.68
9233.00,1.68
9232.00,1.68
9231.00,1.68
9230.00,1.68
9229.00,1.68
9228.00,1.68
9227.00,1.68
9226.00,1.68
9225.00,1.67
9224.00,1.67
9223.00,1.67
9222.00,1.67
9221.00,1.67
9220.00,1.67
9219.00,1.67
9218.00,1.67
9217.00,1.67
9216.00,1.67
9215.00,1.67
9214.00,1.67
9213.00,1.67
9212.00,1.67
9211.00,1.67
9210.00,1.67
9209.00,1.67
9208.00,1.67
9207.00,1.67
9206.00,1.67
9205.00,1.66
9204.00,1.66
9203.00,1.66
9202.00,1.66
9201.00,1.66
9200.00,1.66
9199.00,1.66
9198.00,1.66
9197.00,1.66
9196.00,1.66
9195.00,1.66
9194.00,1.66
9193.00,1.66
9192.00,1.66
9191.00,1.66
9190.00,1.66
9189.00,1.66
9188.00,1.66
9187.00,1.66
9186.00,1.66
9185.00,1.66
9184.00,1.66
9183.00,1.66
9182.00,1.67
9181.00,1.67
9180.00,1.67
9179.00,1.67
9178.00,1.67
9177.00,1.67
9176.00,1.67
9175.00,1.67
9174.00,1.67
9173.00,1.67
9172.00,1.67
9171.00,1.67
9170.00,1.67
9169.00,1.67
9168.00,1.67
9167.00,1.67
9166.00,1.67
9165.00,1.67
9164.00,1.67
9163.00,1.67
9162.00,1.66
9161.00,1.66
9160.00,1.66
9159.00,1.66
9158.00,1.66
9157.00,1.66
9156.00,1.66
9155.00,1.65
9154.00,1.65
9153.00,1.65
9152.00,1.65
9151.00,1.65
9150.00,1.65
9149.00,1.65
9148.00,1.66
9147.00,1.66
9146.00,1.66
9145.00,1.66
9144.00,1.66
9143.00,1.66
9142.00,1.66
9141.00,1.66
9140.00,1.66
9139.00,1.66
9138.00,1.66
9137.00,1.66
9136.00,1.66
9135.00,1.65
9134.00,1.65
9133.00,1.66
9132.00,1.66
9131.00,1.66
9130.00,1.66
9129.00,1.66
9128.00,1.66
9127.00,1.66
9126.00,1.66
9125.00,1.66
9124.00,1.66
9123.00,1.66
9122.00,1.66
9121.00,1.67
9120.00,1.67
9119.00,1.67
9118.00,1.67
9117.00,1.67
9116.00,1.67
9115.00,1.67
9114.00,1.67
9113.00,1.67
9112.00,1.67
9111.00,1.67
9110.00,1.66
9109.00,1.66
9108.00,1.66
9107.00,1.66
9106.00,1.66
9105.00,1.66
9104.00,1.66
9103.00,1.66
9102.00,1.66
9101.00,1.67
9100.00,1.67
9099.00,1.67
9098.00,1.67
9097.00,1.67
9096.00,1.67
9095.00,1.67
9094.00,1.67
9093.00,1.67
9092.00,1.67
9091.00,1.67
9090.00,1.67
9089.00,1.67
9088.00,1.67
9087.00,1.67
9086.00,1.67
9085.00,1.67
9084.00,1.67
9083.00,1.67
9082.00,1.67
9081.00,1.67
9080.00,1.68
9079.00,1.68
9078.00,1.68
9077.00,1.68
9076.00,1.68
9075.00,1.68
9074.00,1.68
9073.00,1.68
9072.00,1.68
9071.00,1.68
9070.00,1.68
9069.00,1.68
9068.00,1.68
9067.00,1.68
9066.00,1.68
9065.00,1.68
9064.00,1.68
9063.00,1.68
9062.00,1.68
9061.00,1.68
9060.00,1.68
9059.00,1.68
9058.00,1.68
9057.00,1.69
9056.00,1.69
9055.00,1.69
9054.00,1.69
9053.00,1.69
9052.00,1.69
9051.00,1.69
9050.00,1.69
9049.00,1.69
9048.00,1.69
9047.00,1.69
9046.00,1.69
9045.00,1.69
9044.00,1.69
9043.00,1.69
9042.00,1.69
9041.00,1.69
9040.00,1.69
9039.00,1.69
9038.00,1.69
9037.00,1.69
9036.00,1.69
9035.00,1.69
9034.00,1.68
9033.00,1.68
9032.00,1.68
9031.00,1.68
9030.00,1.68
9029.00,1.68
9028.00,1.67
9027.00,1.67
9026.00,1.67
9025.00,1.67
9024.00,1.67
9023.00,1.66
9022.00,1.66
9021.00,1.66
9020.00,1.66
9019.00,1.66
9018.00,1.66
9017.00,1.66
9016.00,1.66
9015.00,1.66
9014.00,1.67
9013.00,1.67
9012.00,1.67
9011.00,1.67
9010.00,1.67
9009.00,1.67
9008.00,1.68
9007.00,1.68
9006.00,1.68
9005.00,1.68
9004.00,1.68
9003.00,1.69
9002.00,1.69
9001.00,1.69
9000.00,1.69
8999.00,1.69
8998.00,1.69
8997.00,1.69
8996.00,1.69
8995.00,1.69
8994.00,1.69
8993.00,1.69
8992.00,1.69
8991.00,1.69
8990.00,1.69
8989.00,1.69
8988.00,1.69
8987.00,1.69
8986.00,1.69
8985.00,1.69
8984.00,1.69
8983.00,1.69
8982.00,1.69
8981.00,1.69
8980.00,1.69
8979.00,1.69
8978.00,1.69
8977.00,1.69
8976.00,1.69
8975.00,1.69
8974.00,1.69
8973.00,1.69
8972.00,1.69
8971.00,1.69
8970.00,1.69
8969.00,1.68
8968.00,1.68
8967.00,1.68
8966.00,1.68
8965.00,1.68
8964.00,1.68
8963.00,1.68
8962.00,1.68
8961.00,1.68
8960.00,1.68
8959.00,1.68
8958.00,1.68
8957.00,1.67
8956.00,1.67
8955.00,1.67
8954.00,1.67
8953.00,1.67
8952.00,1.67
8951.00,1.67
8950.00,1.67
8949.00,1.67
8948.00,1.67
8947.00,1.67
8946.00,1.67
8945.00,1.67
8944.00,1.67
8943.00,1.68
8942.00,1.68
8941.00,1.68
8940.00,1.68
8939.00,1.68
8938.00,1.68
8937.00,1.68
8936.00,1.68
8935.00,1.68
8934.00,1.69
8933.00,1.69
8932.00,1.69
8931.00,1.69
8930.00,1.69
8929.00,1.69
8928.00,1.69
8927.00,1.69
8926.00,1.69
8925.00,1.69
8924.00,1.69
8923.00,1.69
8922.00,1.69
8921.00,1.69
8920.00,1.69
8919.00,1.69
8918.00,1.69
8917.00,1.69
8916.00,1.69
8915.00,1.69
8914.00,1.69
8913.00,1.69
8912.00,1.69
8911.00,1.69
8910.00,1.69
8909.00,1.68
8908.00,1.68
8907.00,1.68
8906.00,1.68
8905.00,1.68
8904.00,1.68
8903.00,1.68
8902.00,1.68
8901.00,1.68
8900.00,1.68
8899.00,1.68
8898.00,1.68
8897.00,1.68
8896.00,1.68
8895.00,1.68
8894.00,1.68
8893.00,1.68
8892.00,1.68
8891.00,1.68
8890.00,1.68
8889.00,1.69
8888.00,1.69
8887.00,1.69
8886.00,1.69
8885.00,1.69
8884.00,1.69
8883.00,1.69
8882.00,1.69
8881.00,1.69
8880.00,1.69
8879.00,1.69
8878.00,1.69
8877.00,1.69
8876.00,1.69
8875.00,1.69
8874.00,1.69
8873.00,1.69
8872.00,1.69
8871.00,1.70
8870.00,1.70
8869.00,1.70
8868.00,1.69
8867.00,1.69
8866.00,1.69
8865.00,1.69
8864.00,1.69
8863.00,1.69
8862.00,1.69
8861.00,1.69
8860.00,1.68
8859.00,1.68
8858.00,1.68
8857.00,1.68
8856.00,1.68
8855.00,1.67
8854.00,1.67
8853.00,1.67
8852.00,1.67
8851.00,1.67
8850.00,1.67
8849.00,1.67
8848.00,1.67
8847.00,1.67
8846.00,1.67
8845.00,1.67
8844.00,1.68
8843.00,1.68
8842.00,1.68
8841.00,1.68
8840.00,1.68
8839.00,1.68
8838.00,1.68
8837.00,1.68
8836.00,1.68
8835.00,1.68
8834.00,1.68
8833.00,1.68
8832.00,1.67
8831.00,1.67
8830.00,1.67
8829.00,1.67
8828.00,1.67
8827.00,1.67
8826.00,1.67
8825.00,1.67
8824.00,1.67
8823.00,1.66
8822.00,1.66
8821.00,1.66
8820.00,1.67
8819.00,1.67
8818.00,1.67
8817.00,1.67
8816.00,1.67
8815.00,1.67
8814.00,1.67
8813.00,1.67
8812.00,1.67
8811.00,1.67
8810.00,1.67
8809.00,1.67
8808.00,1.66
8807.00,1.66
8806.00,1.66
8805.00,1.66
8804.00,1.66
8803.00,1.66
8802.00,1.66
8801.00,1.65
8800.00,1.65
8799.00,1.65
8798.00,1.65
8797.00,1.65
8796.00,1.65
8795.00,1.64
8794.00,1.64
8793.00,1.64
8792.00,1.64
8791.00,1.64
8790.00,1.64
8789.00,1.64
8788.00,1.63
8787.00,1.63
8786.00,1.63
8785.00,1.63
8784.00,1.63
8783.00,1.63
8782.00,1.63
8781.00,1.63
8780.00,1.63
8779.00,1.62
8778.00,1.62
8777.00,1.62
8776.00,1.62
8775.00,1.62
8774.00,1.62
8773.00,1.62
8772.00,1.62
8771.00,1.62
8770.00,1.62
8769.00,1.62
8768.00,1.62
8767.00,1.62
8766.00,1.61
8765.00,1.61
8764.00,1.61
8763.00,1.61
8762.00,1.61
8761.00,1.61
8760.00,1.61
8759.00,1.61
8758.00,1.61
8757.00,1.61
8756.00,1.61
8755.00,1.61
8754.00,1.61
8753.00,1.61
8752.00,1.61
8751.00,1.61
8750.00,1.61
8749.00,1.61
8748.00,1.61
8747.00,1.61
8746.00,1.61
8745.00,1.61
8744.00,1.61
8743.00,1.61
8742.00,1.61
8741.00,1.61
8740.00,1.61
8739.00,1.61
8738.00,1.61
8737.00,1.61
8736.00,1.61
8735.00,1.61
8734.00,1.61
8733.00,1.61
8732.00,1.62
8731.00,1.62
8730.00,1.62
8729.00,1.62
8728.00,1.62
8727.00,1.61
8726.00,1.61
8725.00,1.61
8724.00,1.61
8723.00,1.61
8722.00,1.61
8721.00,1.61
8720.00,1.61
8719.00,1.61
8718.00,1.61
8717.00,1.60
8716.00,1.60
8715.00,1.60
8714.00,1.60
8713.00,1.60
8712.00,1.60
8711.00,1.60
8710.00,1.60
8709.00,1.60
8708.00,1.60
8707.00,1.60
8706.00,1.59
8705.00,1.59
8704.00,1.59
8703.00,1.59
8702.00,1.59
8701.00,1.59
8700.00,1.60
8699.00,1.60
8698.00,1.60
8697.00,1.60
8696.00,1.60
8695.00,1.60
8694.00,1.60
8693.00,1.60
8692.00,1.60
8691.00,1.60
8690.00,1.60
8689.00,1.61
8688.00,1.61
8687.00,1.61
8686.00,1.61
8685.00,1.61
8684.00,1.61
8683.00,1.61
8682.00,1.61
8681.00,1.61
8680.00,1.61
8679.00,1.61
8678.00,1.61
8677.00,1.61
8676.00,1.61
8675.00,1.61
8674.00,1.61
8673.00,1.61
8672.00,1.61
8671.00,1.60
8670.00,1.60
8669.00,1.60
8668.00,1.60
8667.00,1.60
8666.00,1.60
8665.00,1.60
8664.00,1.60
8663.00,1.60
8662.00,1.60
8661.00,1.60
8660.00,1.60
8659.00,1.60
8658.00,1.60
8657.00,1.60
8656.00,1.60
8655.00,1.60
8654.00,1.60
8653.00,1.60
8652.00,1.60
8651.00,1.60
8650.00,1.60
8649.00,1.60
8648.00,1.60
8647.00,1.60
8646.00,1.60
8645.00,1.60
8644.00,1.60
8643.00,1.60
8642.00,1.60
8641.00,1.60
8640.00,1.60
8639.00,1.60
8638.00,1.60
8637.00,1.60
8636.00,1.60
8635.00,1.60
8634.00,1.60
8633.00,1.60
8632.00,1.60
8631.00,1.60
8630.00,1.60
8629.00,1.60
8628.00,1.60
8627.00,1.60
8626.00,1.60
8625.00,1.60
8624.00,1.60
8623.00,1.60
8622.00,1.60
8621.00,1.61
8620.00,1.61
8619.00,1.61
8618.00,1.61
8617.00,1.61
8616.00,1.60
8615.00,1.60
8614.00,1.60
8613.00,1.60
8612.00,1.60
8611.00,1.60
8610.00,1.60
8609.00,1.60
8608.00,1.59
8607.00,1.59
8606.00,1.59
8605.00,1.59
8604.00,1.59
8603.00,1.58
8602.00,1.58
8601.00,1.58
8600.00,1.58
8599.00,1.58
8598.00,1.57
8597.00,1.57
8596.00,1.57
8595.00,1.57
8594.00,1.56
8593.00,1.56
8592.00,1.56
8591.00,1.56
8590.00,1.55
8589.00,1.55
8588.00,1.55
8587.00,1.55
8586.00,1.55
8585.00,1.54
8584.00,1.54
8583.00,1.54
8582.00,1.54
8581.00,1.54
8580.00,1.54
8579.00,1.54
8578.00,1.54
8577.00,1.54
8576.00,1.54
8575.00,1.54
8574.00,1.54
8573.00,1.53
8572.00,1.53
8571.00,1.53
8570.00,1.53
8569.00,1.53
8568.00,1.53
8567.00,1.53
8566.00,1.53
8565.00,1.53
8564.00,1.53
8563.00,1.53
8562.00,1.53
8561.00,1.53
8560.00,1.53
8559.00,1.53
8558.00,1.53
8557.00,1.53
8556.00,1.53
8555.00,1.53
8554.00,1.53
8553.00,1.53
8552.00,1.53
8551.00,1.53
8550.00,1.53
8549.00,1.53
8548.00,1.53
8547.00,1.53
8546.00,1.53
8545.00,1.53
8544.00,1.53
8543.00,1.53
8542.00,1.53
8541.00,1.53
8540.00,1.53
8539.00,1.53
8538.00,1.53
8537.00,1.53
8536.00,1.53
8535.00,1.52
8534.00,1.52
8533.00,1.52
8532.00,1.52
8531.00,1.52
8530.00,1.52
8529.00,1.52
8528.00,1.52
8527.00,1.52
8526.00,1.52
8525.00,1.52
8524.00,1.52
8523.00,1.52
8522.00,1.52
8521.00,1.51
8520.00,1.52
8519.00,1.52
8518.00,1.52
8517.00,1.52
8516.00,1.52
8515.00,1.52
8514.00,1.52
8513.00,1.52
8512.00,1.52
8511.00,1.52
8510.00,1.52
8509.00,1.52
8508.00,1.52
8507.00,1.52
8506.00,1.52
8505.00,1.52
8504.00,1.52
8503.00,1.52
8502.00,1.52
8501.00,1.52
8500.00,1.52
8499.00,1.52
8498.00,1.52
8497.00,1.52
8496.00,1.52
8495.00,1.51
8494.00,1.51
8493.00,1.51
8492.00,1.51
8491.00,1.51
8490.00,1.51
8489.00,1.51
8488.00,1.51
8487.00,1.50
8486.00,1.50
8485.00,1.50
8484.00,1.50
8483.00,1.50
8482.00,1.50
8481.00,1.49
8480.00,1.49
8479.00,1.49
8478.00,1.49
8477.00,1.49
8476.00,1.48
8475.00,1.48
8474.00,1.48
8473.00,1.48
8472.00,1.47
8471.00,1.47
8470.00,1.47
8469.00,1.47
8468.00,1.47
8467.00,1.47
8466.00,1.46
8465.00,1.46
8464.00,1.46
8463.00,1.46
8462.00,1.46
8461.00,1.46
8460.00,1.46
8459.00,1.46
8458.00,1.46
8457.00,1.46
8456.00,1.46
8455.00,1.46
8454.00,1.46
8453.00,1.46
8452.00,1.46
8451.00,1.46
8450.00,1.46
8449.00,1.46
8448.00,1.46
8447.00,1.46
8446.00,1.46
8445.00,1.46
8444.00,1.46
8443.00,1.46
8442.00,1.45
8441.00,1.45
8440.00,1.45
8439.00,1.45
8438.00,1.45
8437.00,1.45
8436.00,1.45
8435.00,1.45
8434.00,1.45
8433.00,1.45
8432.00,1.45
8431.00,1.45
8430.00,1.45
8429.00,1.45
8428.00,1.45
8427.00,1.45
8426.00,1.45
8425.00,1.45
8424.00,1.45
8423.00,1.45
8422.00,1.46
8421.00,1.46
8420.00,1.46
8419.00,1.46
8418.00,1.46
8417.00,1.46
8416.00,1.47
8415.00,1.47
8414.00,1.47
8413.00,1.47
8412.00,1.47
8411.00,1.47
8410.00,1.47
8409.00,1.47
8408.00,1.48
8407.00,1.48
8406.00,1.48
8405.00,1.48
8404.00,1.48
8403.00,1.48
8402.00,1.48
8401.00,1.49
8400.00,1.49
8399.00,1.49
8398.00,1.49
8397.00,1.49
8396.00,1.49
8395.00,1.49
8394.00,1.49
8393.00,1.49
8392.00,1.49
8391.00,1.49
8390.00,1.50
8389.00,1.50
8388.00,1.50
8387.00,1.50
8386.00,1.50
8385.00,1.50
8384.00,1.50
8383.00,1.50
8382.00,1.50
8381.00,1.50
8380.00,1.50
8379.00,1.50
8378.00,1.50
8377.00,1.50
8376.00,1.50
8375.00,1.50
8374.00,1.50
8373.00,1.51
8372.00,1.51
8371.00,1.51
8370.00,1.51
8369.00,1.51
8368.00,1.51
8367.00,1.51
8366.00,1.51
8365.00,1.51
8364.00,1.51
8363.00,1.51
8362.00,1.51
8361.00,1.51
8360.00,1.51
8359.00,1.51
8358.00,1.51
8357.00,1.51
8356.00,1.51
8355.00,1.51
8354.00,1.51
8353.00,1.51
8352.00,1.51
8351.00,1.51
8350.00,1.51
8349.00,1.51
8348.00,1.51
8347.00,1.51
8346.00,1.51
8345.00,1.51
8344.00,1.51
8343.00,1.51
8342.00,1.51
8341.00,1.51
8340.00,1.51
8339.00,1.51
8338.00,1.51
8337.00,1.51
8336.00,1.51
8335.00,1.51
8334.00,1.51
8333.00,1.51
8332.00,1.51
8331.00,1.52
8330.00,1.52
8329.00,1.52
8328.00,1.52
8327.00,1.52
8326.00,1.52
8325.00,1.52
8324.00,1.52
8323.00,1.52
8322.00,1.52
8321.00,1.52
8320.00,1.52
8319.00,1.52
8318.00,1.53
8317.00,1.53
8316.00,1.53
8315.00,1.53
8314.00,1.53
8313.00,1.53
8312.00,1.53
8311.00,1.53
8310.00,1.53
8309.00,1.53
8308.00,1.53
8307.00,1.53
8306.00,1.53
8305.00,1.53
8304.00,1.53
8303.00,1.53
8302.00,1.53
8301.00,1.53
8300.00,1.53
8299.00,1.53
8298.00,1.53
8297.00,1.53
8296.00,1.53
8295.00,1.53
8294.00,1.53
8293.00,1.53
8292.00,1.53
8291.00,1.53
8290.00,1.53
8289.00,1.53
8288.00,1.53
8287.00,1.53
8286.00,1.53
8285.00,1.53
8284.00,1.53
8283.00,1.53
8282.00,1.53
8281.00,1.53
8280.00,1.53
8279.00,1.53
8278.00,1.53
8277.00,1.53
8276.00,1.53
8275.00,1.53
8274.00,1.53
8273.00,1.54
8272.00,1.54
8271.00,1.54
8270.00,1.54
8269.00,1.54
8268.00,1.54
8267.00,1.54
8266.00,1.54
8265.00,1.54
8264.00,1.54
8263.00,1.54
8262.00,1.54
8261.00,1.53
8260.00,1.53
8259.00,1.53
8258.00,1.53
8257.00,1.53
8256.00,1.53
8255.00,1.53
8254.00,1.53
8253.00,1.53
8252.00,1.53
8251.00,1.53
8250.00,1.53
8249.00,1.53
8248.00,1.53
8247.00,1.53
8246.00,1.53
8245.00,1.54
8244.00,1.54
8243.00,1.54
8242.00,1.54
8241.00,1.54
8240.00,1.54
8239.00,1.54
8238.00,1.54
8237.00,1.54
8236.00,1.55
8235.00,1.55
8234.00,1.55
8233.00,1.55
8232.00,1.55
8231.00,1.55
8230.00,1.55
8229.00,1.55
8228.00,1.55
8227.00,1.55
8226.00,1.56
8225.00,1.56
8224.00,1.56
8223.00,1.56
8222.00,1.56
8221.00,1.56
8220.00,1.56
8219.00,1.56
8218.00,1.56
8217.00,1.56
8216.00,1.56
8215.00,1.56
8214.00,1.56
8213.00,1.56
8212.00,1.57
8211.00,1.57
8210.00,1.57
8209.00,1.57
8208.00,1.57
8207.00,1.57
8206.00,1.58
8205.00,1.58
8204.00,1.58
8203.00,1.58
8202.00,1.58
8201.00,1.59
8200.00,1.59
8199.00,1.59
8198.00,1.59
8197.00,1.59
8196.00,1.59
8195.00,1.59
8194.00,1.59
8193.00,1.59
8192.00,1.59
8191.00,1.59
8190.00,1.58
8189.00,1.58
8188.00,1.58
8187.00,1.58
8186.00,1.58
8185.00,1.58
8184.00,1.58
8183.00,1.58
8182.00,1.57
8181.00,1.57
8180.00,1.57
8179.00,1.57
8178.00,1.57
8177.00,1.57
8176.00,1.57
8175.00,1.57
8174.00,1.57
8173.00,1.57
8172.00,1.57
8171.00,1.57
8170.00,1.57
8169.00,1.57
8168.00,1.57
8167.00,1.57
8166.00,1.57
8165.00,1.57
8164.00,1.57
8163.00,1.57
8162.00,1.57
8161.00,1.58
8160.00,1.58
8159.00,1.58
8158.00,1.58
8157.00,1.58
8156.00,1.58
8155.00,1.58
8154.00,1.58
8153.00,1.58
8152.00,1.59
8151.00,1.59
8150.00,1.59
8149.00,1.59
8148.00,1.59
8147.00,1.59
8146.00,1.59
8145.00,1.59
8144.00,1.59
8143.00,1.59
8142.00,1.59
8141.00,1.60
8140.00,1.60
8139.00,1.60
8138.00,1.60
8137.00,1.60
8136.00,1.60
8135.00,1.60
8134.00,1.60
8133.00,1.60
8132.00,1.60
8131.00,1.60
8130.00,1.60
8129.00,1.60
8128.00,1.60
8127.00,1.60
8126.00,1.60
8125.00,1.60
8124.00,1.60
8123.00,1.60
8122.00,1.61
8121.00,1.61
8120.00,1.61
8119.00,1.61
8118.00,1.61
8117.00,1.61
8116.00,1.61
8115.00,1.61
8114.00,1.61
8113.00,1.61
8112.00,1.61
8111.00,1.61
8110.00,1.62
8109.00,1.62
8108.00,1.62
8107.00,1.62
8106.00,1.62
8105.00,1.62
8104.00,1.62
8103.00,1.62
8102.00,1.62
8101.00,1.61
8100.00,1.61
8099.00,1.61
8098.00,1.61
8097.00,1.62
8096.00,1.62
8095.00,1.62
8094.00,1.62
8093.00,1.62
8092.00,1.62
8091.00,1.62
8090.00,1.62
8089.00,1.62
8088.00,1.62
8087.00,1.62
8086.00,1.62
8085.00,1.62
8084.00,1.62
8083.00,1.62
8082.00,1.62
8081.00,1.62
8080.00,1.62
8079.00,1.62
8078.00,1.63
8077.00,1.63
8076.00,1.63
8075.00,1.63
8074.00,1.63
8073.00,1.63
8072.00,1.63
8071.00,1.63
8070.00,1.63
8069.00,1.63
8068.00,1.63
8067.00,1.63
8066.00,1.63
8065.00,1.63
8064.00,1.64
8063.00,1.64
8062.00,1.64
8061.00,1.64
8060.00,1.64
8059.00,1.64
8058.00,1.64
8057.00,1.64
8056.00,1.64
8055.00,1.64
8054.00,1.64
8053.00,1.64
8052.00,1.64
8051.00,1.64
8050.00,1.64
8049.00,1.64
8048.00,1.64
8047.00,1.65
8046.00,1.65
8045.00,1.65
8044.00,1.65
8043.00,1.65
8042.00,1.65
8041.00,1.65
8040.00,1.65
8039.00,1.65
8038.00,1.65
8037.00,1.65
8036.00,1.65
8035.00,1.65
8034.00,1.65
8033.00,1.65
8032.00,1.65
8031.00,1.65
8030.00,1.64
8029.00,1.64
8028.00,1.64
8027.00,1.64
8026.00,1.64
8025.00,1.64
8024.00,1.64
8023.00,1.64
8022.00,1.64
8021.00,1.64
8020.00,1.64
8019.00,1.64
8018.00,1.64
8017.00,1.64
8016.00,1.64
8015.00,1.64
8014.00,1.64
8013.00,1.64
8012.00,1.64
8011.00,1.64
8010.00,1.64
8009.00,1.64
8008.00,1.64
8007.00,1.64
8006.00,1.64
8005.00,1.64
8004.00,1.64
8003.00,1.64
8002.00,1.64
8001.00,1.64
8000.00,1.64
7999.00,1.64
7998.00,1.64
7997.00,1.64
7996.00,1.64
7995.00,1.64
7994.00,1.64
7993.00,1.64
7992.00,1.64
7991.00,1.64
7990.00,1.64
7989.00,1.64
7988.00,1.64
7987.00,1.64
7986.00,1.64
7985.00,1.64
7984.00,1.64
7983.00,1.64
7982.00,1.65
7981.00,1.65
7980.00,1.65
7979.00,1.65
7978.00,1.65
7977.00,1.65
7976.00,1.65
7975.00,1.65
7974.00,1.65
7973.00,1.65
7972.00,1.65
7971.00,1.65
7970.00,1.66
7969.00,1.66
7968.00,1.66
7967.00,1.66
7966.00,1.66
7965.00,1.66
7964.00,1.66
7963.00,1.66
7962.00,1.66
7961.00,1.66
7960.00,1.66
7959.00,1.66
7958.00,1.66
7957.00,1.66
7956.00,1.66
7955.00,1.66
7954.00,1.66
7953.00,1.66
7952.00,1.66
7951.00,1.66
7950.00,1.66
7949.00,1.66
7948.00,1.66
7947.00,1.66
7946.00,1.66
7945.00,1.66
7944.00,1.66
7943.00,1.66
7942.00,1.66
7941.00,1.67
7940.00,1.67
7939.00,1.67
7938.00,1.67
7937.00,1.67
7936.00,1.67
7935.00,1.67
7934.00,1.67
7933.00,1.67
7932.00,1.67
7931.00,1.67
7930.00,1.67
7929.00,1.67
7928.00,1.67
7927.00,1.66
7926.00,1.66
7925.00,1.66
7924.00,1.66
7923.00,1.66
7922.00,1.66
7921.00,1.66
7920.00,1.66
7919.00,1.66
7918.00,1.66
7917.00,1.66
7916.00,1.66
7915.00,1.66
7914.00,1.66
7913.00,1.66
7912.00,1.66
7911.00,1.66
7910.00,1.66
7909.00,1.66
7908.00,1.66
7907.00,1.66
7906.00,1.66
7905.00,1.66
7904.00,1.66
7903.00,1.66
7902.00,1.66
7901.00,1.66
7900.00,1.66
7899.00,1.66
7898.00,1.66
7897.00,1.67
7896.00,1.67
7895.00,1.67
7894.00,1.67
7893.00,1.67
7892.00,1.67
7891.00,1.67
7890.00,1.67
7889.00,1.67
7888.00,1.66
7887.00,1.66
7886.00,1.66
7885.00,1.66
7884.00,1.66
7883.00,1.66
7882.00,1.66
7881.00,1.67
7880.00,1.67
7879.00,1.67
7878.00,1.67
7877.00,1.67
7876.00,1.67
7875.00,1.67
7874.00,1.67
7873.00,1.67
7872.00,1.67
7871.00,1.67
7870.00,1.67
7869.00,1.67
7868.00,1.67
7867.00,1.67
7866.00,1.68
7865.00,1.68
7864.00,1.68
7863.00,1.68
7862.00,1.68
7861.00,1.68
7860.00,1.68
7859.00,1.68
7858.00,1.68
7857.00,1.68
7856.00,1.68
7855.00,1.68
7854.00,1.69
7853.00,1.69
7852.00,1.69
7851.00,1.69
7850.00,1.69
7849.00,1.69
7848.00,1.69
7847.00,1.69
7846.00,1.69
7845.00,1.69
7844.00,1.69
7843.00,1.69
7842.00,1.69
7841.00,1.69
7840.00,1.69
7839.00,1.69
7838.00,1.69
7837.00,1.69
7836.00,1.69
7835.00,1.69
7834.00,1.69
7833.00,1.69
7832.00,1.68
7831.00,1.68
7830.00,1.68
7829.00,1.68
7828.00,1.68
7827.00,1.68
7826.00,1.68
7825.00,1.68
7824.00,1.68
7823.00,1.68
7822.00,1.68
7821.00,1.68
7820.00,1.68
7819.00,1.68
7818.00,1.68
7817.00,1.68
7816.00,1.68
7815.00,1.68
7814.00,1.68
7813.00,1.68
7812.00,1.68
7811.00,1.67
7810.00,1.67
7809.00,1.67
7808.00,1.67
7807.00,1.67
7806.00,1.67
7805.00,1.67
7804.00,1.67
7803.00,1.67
7802.00,1.67
7801.00,1.67
7800.00,1.67
7799.00,1.67
7798.00,1.68
7797.00,1.68
7796.00,1.68
7795.00,1.68
7794.00,1.68
7793.00,1.69
7792.00,1.69
7791.00,1.69
7790.00,1.69
7789.00,1.69
7788.00,1.70
7787.00,1.70
7786.00,1.70
7785.00,1.70
7784.00,1.70
7783.00,1.70
7782.00,1.70
7781.00,1.70
7780.00,1.69
7779.00,1.69
7778.00,1.69
7777.00,1.69
7776.00,1.69
7775.00,1.69
7774.00,1.69
7773.00,1.69
7772.00,1.69
7771.00,1.68
7770.00,1.68
7769.00,1.68
7768.00,1.68
7767.00,1.68
7766.00,1.68
7765.00,1.68
7764.00,1.68
7763.00,1.68
7762.00,1.69
7761.00,1.69
7760.00,1.69
7759.00,1.69
7758.00,1.69
7757.00,1.69
7756.00,1.69
7755.00,1.69
7754.00,1.69
7753.00,1.69
7752.00,1.69
7751.00,1.69
7750.00,1.69
7749.00,1.69
7748.00,1.69
7747.00,1.69
7746.00,1.69
7745.00,1.69
7744.00,1.69
7743.00,1.69
7742.00,1.69
7741.00,1.69
7740.00,1.69
7739.00,1.69
7738.00,1.69
7737.00,1.69
7736.00,1.69
7735.00,1.69
7734.00,1.69
7733.00,1.69
7732.00,1.69
7731.00,1.69
7730.00,1.69
7729.00,1.69
7728.00,1.69
7727.00,1.69
7726.00,1.69
7725.00,1.69
7724.00,1.69
7723.00,1.69
7722.00,1.69
7721.00,1.69
7720.00,1.69
7719.00,1.70
7718.00,1.70
7717.00,1.70
7716.00,1.70
7715.00,1.70
7714.00,1.70
7713.00,1.70
7712.00,1.70
7711.00,1.70
7710.00,1.70
7709.00,1.70
7708.00,1.70
7707.00,1.70
7706.00,1.70
7705.00,1.70
7704.00,1.70
7703.00,1.70
7702.00,1.70
7701.00,1.70
7700.00,1.70
7699.00,1.70
7698.00,1.69
7697.00,1.69
7696.00,1.69
7695.00,1.69
7694.00,1.69
7693.00,1.69
7692.00,1.70
7691.00,1.70
7690.00,1.70
7689.00,1.70
7688.00,1.70
7687.00,1.70
7686.00,1.70
7685.00,1.70
7684.00,1.70
7683.00,1.70
7682.00,1.70
7681.00,1.70
7680.00,1.70
7679.00,1.70
7678.00,1.70
7677.00,1.70
7676.00,1.70
7675.00,1.70
7674.00,1.70
7673.00,1.70
7672.00,1.70
7671.00,1.70
7670.00,1.70
7669.00,1.70
7668.00,1.70
7667.00,1.70
7666.00,1.70
7665.00,1.70
7664.00,1.70
7663.00,1.70
7662.00,1.70
7661.00,1.70
7660.00,1.70
7659.00,1.70
7658.00,1.70
7657.00,1.69
7656.00,1.69
7655.00,1.69
7654.00,1.69
7653.00,1.69
7652.00,1.69
7651.00,1.69
7650.00,1.69
7649.00,1.69
7648.00,1.69
7647.00,1.69
7646.00,1.69
7645.00,1.69
7644.00,1.69
7643.00,1.69
7642.00,1.69
7641.00,1.69
7640.00,1.69
7639.00,1.69
7638.00,1.69
7637.00,1.69
7636.00,1.70
7635.00,1.70
7634.00,1.70
7633.00,1.70
7632.00,1.70
7631.00,1.70
7630.00,1.70
7629.00,1.70
7628.00,1.70
7627.00,1.70
7626.00,1.70
7625.00,1.70
7624.00,1.70
7623.00,1.70
7622.00,1.70
7621.00,1.70
7620.00,1.70
7619.00,1.70
7618.00,1.70
7617.00,1.70
7616.00,1.70
7615.00,1.70
7614.00,1.70
7613.00,1.70
7612.00,1.69
7611.00,1.69
7610.00,1.69
7609.00,1.69
7608.00,1.69
7607.00,1.69
7606.00,1.69
7605.00,1.69
7604.00,1.69
7603.00,1.69
7602.00,1.69
7601.00,1.69
7600.00,1.69
7599.00,1.69
7598.00,1.70
7597.00,1.70
7596.00,1.70
7595.00,1.70
7594.00,1.70
7593.00,1.70
7592.00,1.70
7591.00,1.70
7590.00,1.70
7589.00,1.70
7588.00,1.70
7587.00,1.70
7586.00,1.70
7585.00,1.70
7584.00,1.70
7583.00,1.70
7582.00,1.70
7581.00,1.70
7580.00,1.70
7579.00,1.70
7578.00,1.70
7577.00,1.70
7576.00,1.69
7575.00,1.69
7574.00,1.69
7573.00,1.69
7572.00,1.69
7571.00,1.69
7570.00,1.69
7569.00,1.69
7568.00,1.69
7567.00,1.69
7566.00,1.69
7565.00,1.69
7564.00,1.69
7563.00,1.69
7562.00,1.69
7561.00,1.69
7560.00,1.69
7559.00,1.69
7558.00,1.69
7557.00,1.69
7556.00,1.69
7555.00,1.69
7554.00,1.69
7553.00,1.69
7552.00,1.69
7551.00,1.69
7550.00,1.69
7549.00,1.69
7548.00,1.69
7547.00,1.69
7546.00,1.69
7545.00,1.69
7544.00,1.69
7543.00,1.69
7542.00,1.69
7541.00,1.69
7540.00,1.69
7539.00,1.69
7538.00,1.69
7537.00,1.69
7536.00,1.69
7535.00,1.69
7534.00,1.69
7533.00,1.69
7532.00,1.69
7531.00,1.69
7530.00,1.69
7529.00,1.69
7528.00,1.69
7527.00,1.69
7526.00,1.69
7525.00,1.68
7524.00,1.68
7523.00,1.68
7522.00,1.68
7521.00,1.68
7520.00,1.68
7519.00,1.68
7518.00,1.68
7517.00,1.68
7516.00,1.68
7515.00,1.68
7514.00,1.68
7513.00,1.68
7512.00,1.68
7511.00,1.68
7510.00,1.68
7509.00,1.68
7508.00,1.68
7507.00,1.68
7506.00,1.68
7505.00,1.68
7504.00,1.68
7503.00,1.68
7502.00,1.68
7501.00,1.68
7500.00,1.68
7499.00,1.68
7498.00,1.68
7497.00,1.68
7496.00,1.68
7495.00,1.68
7494.00,1.68
7493.00,1.68
7492.00,1.68
7491.00,1.68
7490.00,1.68
7489.00,1.68
7488.00,1.68
7487.00,1.68
7486.00,1.68
7485.00,1.68
7484.00,1.68
7483.00,1.68
7482.00,1.67
7481.00,1.67
7480.00,1.67
7479.00,1.67
7478.00,1.67
7477.00,1.67
7476.00,1.67
7475.00,1.67
7474.00,1.67
7473.00,1.67
7472.00,1.66
7471.00,1.66
7470.00,1.66
7469.00,1.66
7468.00,1.66
7467.00,1.66
7466.00,1.66
7465.00,1.66
7464.00,1.66
7463.00,1.66
7462.00,1.66
7461.00,1.65
7460.00,1.65
7459.00,1.65
7458.00,1.65
7457.00,1.65
7456.00,1.65
7455.00,1.65
7454.00,1.65
7453.00,1.65
7452.00,1.65
7451.00,1.65
7450.00,1.65
7449.00,1.65
7448.00,1.65
7447.00,1.64
7446.00,1.64
7445.00,1.64
7444.00,1.64
7443.00,1.64
7442.00,1.64
7441.00,1.64
7440.00,1.64
7439.00,1.64
7438.00,1.64
7437.00,1.64
7436.00,1.64
7435.00,1.64
7434.00,1.63
7433.00,1.63
7432.00,1.63
7431.00,1.63
7430.00,1.63
7429.00,1.63
7428.00,1.63
7427.00,1.63
7426.00,1.63
7425.00,1.63
7424.00,1.63
7423.00,1.63
7422.00,1.63
7421.00,1.63
7420.00,1.62
7419.00,1.62
7418.00,1.62
7417.00,1.62
7416.00,1.62
7415.00,1.62
7414.00,1.62
7413.00,1.62
7412.00,1.61
7411.00,1.61
7410.00,1.61
7409.00,1.61
7408.00,1.61
7407.00,1.61
7406.00,1.61
7405.00,1.61
7404.00,1.60
7403.00,1.60
7402.00,1.60
7401.00,1.60
7400.00,1.60
7399.00,1.60
7398.00,1.60
7397.00,1.60
7396.00,1.60
7395.00,1.59
7394.00,1.59
7393.00,1.59
7392.00,1.59
7391.00,1.59
7390.00,1.59
7389.00,1.58
7388.00,1.58
7387.00,1.58
7386.00,1.58
7385.00,1.58
7384.00,1.58
7383.00,1.58
7382.00,1.57
7381.00,1.57
7380.00,1.57
7379.00,1.57
7378.00,1.57
7377.00,1.57
7376.00,1.57
7375.00,1.57
7374.00,1.57
7373.00,1.57
7372.00,1.57
7371.00,1.57
7370.00,1.57
7369.00,1.57
7368.00,1.57
7367.00,1.57
7366.00,1.56
7365.00,1.56
7364.00,1.56
7363.00,1.56
7362.00,1.56
7361.00,1.56
7360.00,1.56
7359.00,1.56
7358.00,1.56
7357.00,1.56
7356.00,1.56
7355.00,1.56
7354.00,1.55
7353.00,1.55
7352.00,1.55
7351.00,1.55
7350.00,1.55
7349.00,1.55
7348.00,1.55
7347.00,1.55
7346.00,1.55
7345.00,1.55
7344.00,1.55
7343.00,1.55
7342.00,1.55
7341.00,1.55
7340.00,1.55
7339.00,1.55
7338.00,1.55
7337.00,1.55
7336.00,1.55
7335.00,1.55
7334.00,1.55
7333.00,1.55
7332.00,1.55
7331.00,1.55
7330.00,1.55
7329.00,1.55
7328.00,1.55
7327.00,1.55
7326.00,1.55
7325.00,1.54
7324.00,1.54
7323.00,1.54
7322.00,1.54
7321.00,1.54
7320.00,1.54
7319.00,1.54
7318.00,1.54
7317.00,1.54
7316.00,1.54
7315.00,1.53
7314.00,1.53
7313.00,1.53
7312.00,1.53
7311.00,1.53
7310.00,1.53
7309.00,1.53
7308.00,1.53
7307.00,1.52
7306.00,1.52
7305.00,1.52
7304.00,1.52
7303.00,1.52
7302.00,1.52
7301.00,1.52
7300.00,1.52
7299.00,1.52
7298.00,1.51
7297.00,1.51
7296.00,1.51
7295.00,1.51
7294.00,1.51
7293.00,1.51
7292.00,1.50
7291.00,1.50
7290.00,1.50
7289.00,1.50
7288.00,1.50
7287.00,1.50
7286.00,1.50
7285.00,1.50
7284.00,1.50
7283.00,1.49
7282.00,1.49
7281.00,1.49
7280.00,1.49
7279.00,1.49
7278.00,1.49
7277.00,1.49
7276.00,1.49
7275.00,1.49
7274.00,1.49
7273.00,1.49
7272.00,1.48
7271.00,1.48
7270.00,1.48
7269.00,1.48
7268.00,1.48
7267.00,1.48
7266.00,1.48
7265.00,1.48
7264.00,1.47
7263.00,1.47
7262.00,1.47
7261.00,1.47
7260.00,1.47
7259.00,1.47
7258.00,1.47
7257.00,1.46
7256.00,1.46
7255.00,1.46
7254.00,1.46
7253.00,1.46
7252.00,1.45
7251.00,1.45
7250.00,1.45
7249.00,1.45
7248.00,1.44
7247.00,1.44
7246.00,1.44
7245.00,1.43
7244.00,1.43
7243.00,1.43
7242.00,1.42
7241.00,1.42
7240.00,1.41
7239.00,1.41
7238.00,1.41
7237.00,1.40
7236.00,1.40
7235.00,1.39
7234.00,1.39
7233.00,1.39
7232.00,1.38
7231.00,1.38
7230.00,1.37
7229.00,1.37
7228.00,1.37
7227.00,1.36
7226.00,1.36
7225.00,1.35
7224.00,1.35
7223.00,1.35
7222.00,1.34
7221.00,1.34
7220.00,1.34
7219.00,1.33
7218.00,1.33
7217.00,1.32
7216.00,1.32
7215.00,1.32
7214.00,1.31
7213.00,1.31
7212.00,1.31
7211.00,1.30
7210.00,1.30
7209.00,1.29
7208.00,1.29
7207.00,1.29
7206.00,1.28
7205.00,1.28
7204.00,1.28
7203.00,1.27
7202.00,1.27
7201.00,1.26
7200.00,1.26
7199.00,1.26
7198.00,1.25
7197.00,1.25
7196.00,1.25
7195.00,1.24
7194.00,1.24
7193.00,1.23
7192.00,1.23
7191.00,1.23
7190.00,1.22
7189.00,1.22
7188.00,1.21
7187.00,1.21
7186.00,1.21
7185.00,1.20
7184.00,1.20
7183.00,1.20
7182.00,1.19
7181.00,1.19
7180.00,1.18
7179.00,1.18
7178.00,1.18
7177.00,1.17
7176.00,1.17
7175.00,1.17
7174.00,1.17
7173.00,1.16
7172.00,1.16
7171.00,1.16
7170.00,1.16
7169.00,1.15
7168.00,1.15
7167.00,1.15
7166.00,1.14
7165.00,1.14
7164.00,1.14
7163.00,1.13
7162.00,1.13
7161.00,1.13
7160.00,1.12
7159.00,1.12
7158.00,1.12
7157.00,1.11
7156.00,1.11
7155.00,1.11
7154.00,1.10
7153.00,1.10
7152.00,1.10
7151.00,1.09
7150.00,1.09
7149.00,1.09
7148.00,1.09
7147.00,1.08
7146.00,1.08
7145.00,1.08
7144.00,1.08
7143.00,1.07
7142.00,1.07
7141.00,1.07
7140.00,1.06
7139.00,1.06
7138.00,1.06
7137.00,1.06
7136.00,1.05
7135.00,1.05
7134.00,1.05
7133.00,1.04
7132.00,1.04
7131.00,1.04
7130.00,1.03
7129.00,1.03
7128.00,1.03
7127.00,1.02
7126.00,1.02
7125.00,1.02
7124.00,1.01
7123.00,1.01
7122.00,1.01
7121.00,1.00
7120.00,1.00
7119.00,0.99
7118.00,0.99
7117.00,0.99
7116.00,0.98
7115.00,0.98
7114.00,0.98
7113.00,0.97
7112.00,0.97
7111.00,0.97
7110.00,0.96
7109.00,0.96
7108.00,0.96
7107.00,0.95
7106.00,0.95
7105.00,0.95
7104.00,0.95
7103.00,0.94
7102.00,0.94
7101.00,0.94
7100.00,0.93
7099.00,0.93
7098.00,0.93
7097.00,0.92
7096.00,0.92
7095.00,0.92
7094.00,0.91
7093.00,0.91
7092.00,0.91
7091.00,0.91
7090.00,0.90
7089.00,0.90
7088.00,0.90
7087.00,0.89
7086.00,0.89
7085.00,0.89
7084.00,0.89
7083.00,0.89
7082.00,0.88
7081.00,0.88
7080.00,0.88
7079.00,0.88
7078.00,0.88
7077.00,0.87
7076.00,0.87
7075.00,0.87
7074.00,0.87
7073.00,0.87
7072.00,0.86
7071.00,0.86
7070.00,0.86
7069.00,0.86
7068.00,0.86
7067.00,0.85
7066.00,0.85
7065.00,0.85
7064.00,0.85
7063.00,0.84
7062.00,0.84
7061.00,0.84
7060.00,0.84
7059.00,0.84
7058.00,0.83
7057.00,0.83
7056.00,0.83
7055.00,0.83
7054.00,0.83
7053.00,0.83
7052.00,0.83
7051.00,0.82
7050.00,0.82
7049.00,0.82
7048.00,0.82
7047.00,0.82
7046.00,0.82
7045.00,0.82
7044.00,0.81
7043.00,0.81
7042.00,0.81
7041.00,0.81
7040.00,0.81
7039.00,0.81
7038.00,0.80
7037.00,0.80
7036.00,0.80
7035.00,0.80
7034.00,0.80
7033.00,0.79
7032.00,0.79
7031.00,0.79
7030.00,0.79
7029.00,0.78
7028.00,0.78
7027.00,0.78
7026.00,0.78
7025.00,0.78
7024.00,0.77
7023.00,0.77
7022.00,0.77
7021.00,0.77
7020.00,0.77
7019.00,0.77
7018.00,0.76
7017.00,0.76
7016.00,0.76
7015.00,0.76
7014.00,0.76
7013.00,0.76
7012.00,0.76
7011.00,0.75
7010.00,0.75
7009.00,0.75
7008.00,0.75
7007.00,0.75
7006.00,0.75
7005.00,0.75
7004.00,0.75
7003.00,0.75
7002.00,0.75
7001.00,0.74
7000.00,0.74
6999.00,0.74
6998.00,0.74
6997.00,0.74
6996.00,0.74
6995.00,0.74
6994.00,0.74
6993.00,0.74
6992.00,0.74
6991.00,0.74
6990.00,0.74
6989.00,0.73
6988.00,0.73
6987.00,0.73
6986.00,0.73
6985.00,0.73
6984.00,0.73
6983.00,0.73
6982.00,0.73
6981.00,0.73
6980.00,0.73
6979.00,0.73
6978.00,0.73
6977.00,0.73
6976.00,0.73
6975.00,0.73
6974.00,0.73
6973.00,0.73
6972.00,0.73
6971.00,0.73
6970.00,0.73
6969.00,0.73
6968.00,0.72
6967.00,0.72
6966.00,0.72
6965.00,0.72
6964.00,0.72
6963.00,0.72
6962.00,0.72
6961.00,0.72
6960.00,0.72
6959.00,0.72
6958.00,0.72
6957.00,0.72
6956.00,0.72
6955.00,0.71
6954.00,0.71
6953.00,0.71
6952.00,0.71
6951.00,0.71
6950.00,0.71
6949.00,0.71
6948.00,0.71
6947.00,0.71
6946.00,0.71
6945.00,0.71
6944.00,0.70
6943.00,0.70
6942.00,0.70
6941.00,0.70
6940.00,0.70
6939.00,0.70
6938.00,0.70
6937.00,0.70
6936.00,0.70
6935.00,0.70
6934.00,0.70
6933.00,0.70
6932.00,0.70
6931.00,0.70
6930.00,0.70
6929.00,0.70
6928.00,0.70
6927.00,0.70
6926.00,0.70
6925.00,0.69
6924.00,0.69
6923.00,0.69
6922.00,0.69
6921.00,0.69
6920.00,0.69
6919.00,0.69
6918.00,0.69
6917.00,0.69
6916.00,0.69
6915.00,0.69
6914.00,0.68
6913.00,0.68
6912.00,0.68
6911.00,0.68
6910.00,0.68
6909.00,0.68
6908.00,0.68
6907.00,0.68
6906.00,0.68
6905.00,0.68
6904.00,0.68
6903.00,0.68
6902.00,0.68
6901.00,0.68
6900.00,0.68
6899.00,0.68
6898.00,0.68
6897.00,0.68
6896.00,0.68
6895.00,0.68
6894.00,0.68
6893.00,0.68
6892.00,0.68
6891.00,0.68
6890.00,0.68
6889.00,0.68
6888.00,0.68
6887.00,0.68
6886.00,0.68
6885.00,0.68
6884.00,0.68
6883.00,0.68
6882.00,0.67
6881.00,0.67
6880.00,0.67
6879.00,0.67
6878.00,0.67
6877.00,0.67
6876.00,0.67
6875.00,0.67
6874.00,0.67
6873.00,0.67
6872.00,0.67
6871.00,0.67
6870.00,0.67
6869.00,0.67
6868.00,0.67
6867.00,0.67
6866.00,0.67
6865.00,0.67
6864.00,0.67
6863.00,0.67
6862.00,0.67
6861.00,0.67
6860.00,0.67
6859.00,0.67
6858.00,0.67
6857.00,0.67
6856.00,0.67
6855.00,0.67
6854.00,0.67
6853.00,0.67
6852.00,0.67
6851.00,0.67
6850.00,0.67
6849.00,0.67
6848.00,0.67
6847.00,0.67
6846.00,0.67
6845.00,0.67
6844.00,0.67
6843.00,0.67
6842.00,0.67
6841.00,0.67
6840.00,0.67
6839.00,0.67
6838.00,0.67
6837.00,0.67
6836.00,0.67
6835.00,0.67
6834.00,0.67
6833.00,0.67
6832.00,0.67
6831.00,0.67
6830.00,0.67
6829.00,0.67
6828.00,0.67
6827.00,0.67
6826.00,0.67
6825.00,0.67
6824.00,0.67
6823.00,0.67
6822.00,0.67
6821.00,0.67
6820.00,0.67
6819.00,0.67
6818.00,0.68
6817.00,0.68
6816.00,0.68
6815.00,0.68
6814.00,0.68
6813.00,0.68
6812.00,0.68
6811.00,0.68
6810.00,0.68
6809.00,0.68
6808.00,0.68
6807.00,0.68
6806.00,0.68
6805.00,0.68
6804.00,0.68
6803.00,0.69
6802.00,0.69
6801.00,0.69
6800.00,0.69
6799.00,0.69
6798.00,0.69
6797.00,0.69
6796.00,0.69
6795.00,0.69
6794.00,0.69
6793.00,0.69
6792.00,0.70
6791.00,0.70
6790.00,0.70
6789.00,0.70
6788.00,0.70
6787.00,0.70
6786.00,0.70
6785.00,0.70
6784.00,0.70
6783.00,0.70
6782.00,0.70
6781.00,0.70
6780.00,0.70
6779.00,0.70
6778.00,0.70
6777.00,0.70
6776.00,0.70
6775.00,0.70
6774.00,0.71
6773.00,0.71
6772.00,0.71
6771.00,0.71
6770.00,0.71
6769.00,0.71
6768.00,0.71
6767.00,0.71
6766.00,0.71
6765.00,0.71
6764.00,0.71
6763.00,0.71
6762.00,0.71
6761.00,0.72
6760.00,0.72
6759.00,0.72
6758.00,0.72
6757.00,0.72
6756.00,0.72
6755.00,0.72
6754.00,0.72
6753.00,0.72
6752.00,0.72
6751.00,0.72
6750.00,0.73
6749.00,0.73
6748.00,0.73
6747.00,0.73
6746.00,0.73
6745.00,0.73
6744.00,0.73
6743.00,0.73
6742.00,0.73
6741.00,0.73
6740.00,0.73
6739.00,0.73
6738.00,0.73
6737.00,0.73
6736.00,0.73
6735.00,0.73
6734.00,0.73
6733.00,0.73
6732.00,0.73
6731.00,0.74
6730.00,0.74
6729.00,0.74
6728.00,0.74
6727.00,0.74
6726.00,0.74
6725.00,0.74
6724.00,0.74
6723.00,0.74
6722.00,0.74
6721.00,0.74
6720.00,0.74
6719.00,0.75
6718.00,0.75
6717.00,0.75
6716.00,0.75
6715.00,0.75
6714.00,0.75
6713.00,0.75
6712.00,0.76
6711.00,0.76
6710.00,0.76
6709.00,0.76
6708.00,0.76
6707.00,0.76
6706.00,0.76
6705.00,0.77
6704.00,0.77
6703.00,0.77
6702.00,0.77
6701.00,0.77
6700.00,0.77
6699.00,0.77
6698.00,0.77
6697.00,0.77
6696.00,0.78
6695.00,0.78
6694.00,0.78
6693.00,0.78
6692.00,0.78
6691.00,0.78
6690.00,0.78
6689.00,0.78
6688.00,0.79
6687.00,0.79
6686.00,0.79
6685.00,0.79
6684.00,0.79
6683.00,0.79
6682.00,0.79
6681.00,0.79
6680.00,0.79
6679.00,0.79
6678.00,0.80
6677.00,0.80
6676.00,0.80
6675.00,0.80
6674.00,0.80
6673.00,0.80
6672.00,0.80
6671.00,0.80
6670.00,0.81
6669.00,0.81
6668.00,0.81
6667.00,0.81
6666.00,0.81
6665.00,0.81
6664.00,0.82
6663.00,0.82
6662.00,0.82
6661.00,0.82
6660.00,0.82
6659.00,0.82
6658.00,0.82
6657.00,0.82
6656.00,0.82
6655.00,0.83
6654.00,0.83
6653.00,0.83
6652.00,0.83
6651.00,0.83
6650.00,0.83
6649.00,0.83
6648.00,0.83
6647.00,0.83
6646.00,0.83
6645.00,0.84
6644.00,0.84
6643.00,0.84
6642.00,0.84
6641.00,0.84
6640.00,0.84
6639.00,0.84
6638.00,0.84
6637.00,0.84
6636.00,0.85
6635.00,0.85
6634.00,0.85
6633.00,0.85
6632.00,0.85
6631.00,0.85
6630.00,0.85
6629.00,0.85
6628.00,0.86
6627.00,0.86
6626.00,0.86
6625.00,0.86
6624.00,0.86
6623.00,0.86
6622.00,0.87
6621.00,0.87
6620.00,0.87
6619.00,0.87
6618.00,0.87
6617.00,0.88
6616.00,0.88
6615.00,0.88
6614.00,0.88
6613.00,0.88
6612.00,0.88
6611.00,0.88
6610.00,0.88
6609.00,0.88
6608.00,0.89
6607.00,0.89
6606.00,0.89
6605.00,0.89
6604.00,0.89
6603.00,0.89
6602.00,0.89
6601.00,0.89
6600.00,0.89
6599.00,0.89
6598.00,0.89
6597.00,0.89
6596.00,0.89
6595.00,0.89
6594.00,0.89
6593.00,0.90
6592.00,0.90
6591.00,0.90
6590.00,0.90
6589.00,0.90
6588.00,0.90
6587.00,0.90
6586.00,0.90
6585.00,0.90
6584.00,0.91
6583.00,0.91
6582.00,0.91
6581.00,0.91
6580.00,0.91
6579.00,0.91
6578.00,0.91
6577.00,0.91
6576.00,0.91
6575.00,0.91
6574.00,0.91
6573.00,0.91
6572.00,0.92
6571.00,0.92
6570.00,0.92
6569.00,0.92
6568.00,0.92
6567.00,0.92
6566.00,0.92
6565.00,0.92
6564.00,0.92
6563.00,0.93
6562.00,0.93
6561.00,0.93
6560.00,0.93
6559.00,0.93
6558.00,0.94
6557.00,0.94
6556.00,0.94
6555.00,0.94
6554.00,0.94
6553.00,0.94
6552.00,0.95
6551.00,0.95
6550.00,0.95
6549.00,0.95
6548.00,0.95
6547.00,0.95
6546.00,0.95
6545.00,0.95
6544.00,0.95
6543.00,0.96
6542.00,0.96
6541.00,0.96
6540.00,0.96
6539.00,0.96
6538.00,0.96
6537.00,0.96
6536.00,0.96
6535.00,0.97
6534.00,0.97
6533.00,0.97
6532.00,0.97
6531.00,0.97
6530.00,0.97
6529.00,0.97
6528.00,0.97
6527.00,0.97
6526.00,0.97
6525.00,0.97
6524.00,0.97
6523.00,0.97
6522.00,0.98
6521.00,0.98
6520.00,0.98
6519.00,0.98
6518.00,0.98
6517.00,0.98
6516.00,0.98
6515.00,0.98
6514.00,0.98
6513.00,0.98
6512.00,0.98
6511.00,0.98
6510.00,0.98
6509.00,0.98
6508.00,0.99
6507.00,0.99
6506.00,0.99
6505.00,0.99
6504.00,0.99
6503.00,0.99
6502.00,0.99
6501.00,0.99
6500.00,0.99
6499.00,0.99
6498.00,0.99
6497.00,0.99
6496.00,1.00
6495.00,1.00
6494.00,1.00
6493.00,1.00
6492.00,1.00
6491.00,1.00
6490.00,1.00
6489.00,1.00
6488.00,1.00
6487.00,1.00
6486.00,1.00
6485.00,1.01
6484.00,1.01
6483.00,1.01
6482.00,1.01
6481.00,1.01
6480.00,1.01
6479.00,1.01
6478.00,1.01
6477.00,1.01
6476.00,1.01
6475.00,1.01
6474.00,1.01
6473.00,1.01
6472.00,1.01
6471.00,1.01
6470.00,1.01
6469.00,1.01
6468.00,1.01
6467.00,1.01
6466.00,1.01
6465.00,1.01
6464.00,1.01
6463.00,1.01
6462.00,1.01
6461.00,1.01
6460.00,1.02
6459.00,1.02
6458.00,1.02
6457.00,1.02
6456.00,1.02
6455.00,1.02
6454.00,1.02
6453.00,1.02
6452.00,1.02
6451.00,1.02
6450.00,1.02
6449.00,1.03
6448.00,1.03
6447.00,1.03
6446.00,1.03
6445.00,1.03
6444.00,1.03
6443.00,1.03
6442.00,1.03
6441.00,1.03
6440.00,1.03
6439.00,1.03
6438.00,1.03
6437.00,1.03
6436.00,1.03
6435.00,1.03
6434.00,1.03
6433.00,1.03
6432.00,1.03
6431.00,1.03
6430.00,1.03
6429.00,1.03
6428.00,1.03
6427.00,1.03
6426.00,1.03
6425.00,1.03
6424.00,1.04
6423.00,1.04
6422.00,1.04
6421.00,1.04
6420.00,1.04
6419.00,1.04
6418.00,1.04
6417.00,1.04
6416.00,1.04
6415.00,1.04
6414.00,1.04
6413.00,1.04
6412.00,1.04
6411.00,1.04
6410.00,1.04
6409.00,1.04
6408.00,1.05
6407.00,1.05
6406.00,1.05
6405.00,1.05
6404.00,1.05
6403.00,1.05
6402.00,1.05
6401.00,1.05
6400.00,1.05
6399.00,1.05
6398.00,1.05
6397.00,1.05
6396.00,1.05
6395.00,1.05
6394.00,1.05
6393.00,1.05
6392.00,1.05
6391.00,1.05
6390.00,1.05
6389.00,1.05
6388.00,1.05
6387.00,1.05
6386.00,1.06
6385.00,1.06
6384.00,1.06
6383.00,1.06
6382.00,1.06
6381.00,1.06
6380.00,1.06
6379.00,1.06
6378.00,1.06
6377.00,1.06
6376.00,1.07
6375.00,1.07
6374.00,1.07
6373.00,1.07
6372.00,1.07
6371.00,1.07
6370.00,1.07
6369.00,1.07
6368.00,1.08
6367.00,1.08
6366.00,1.08
6365.00,1.08
6364.00,1.08
6363.00,1.08
6362.00,1.08
6361.00,1.08
6360.00,1.08
6359.00,1.08
6358.00,1.08
6357.00,1.08
6356.00,1.09
6355.00,1.09
6354.00,1.09
6353.00,1.09
6352.00,1.09
6351.00,1.09
6350.00,1.09
6349.00,1.09
6348.00,1.09
6347.00,1.09
6346.00,1.10
6345.00,1.10
6344.00,1.10
6343.00,1.10
6342.00,1.10
6341.00,1.10
6340.00,1.10
6339.00,1.10
6338.00,1.10
6337.00,1.10
6336.00,1.10
6335.00,1.11
6334.00,1.11
6333.00,1.11
6332.00,1.11
6331.00,1.11
6330.00,1.11
6329.00,1.11
6328.00,1.11
6327.00,1.11
6326.00,1.11
6325.00,1.12
6324.00,1.12
6323.00,1.12
6322.00,1.12
6321.00,1.12
6320.00,1.12
6319.00,1.12
6318.00,1.12
6317.00,1.12
6316.00,1.13
6315.00,1.13
6314.00,1.13
6313.00,1.13
6312.00,1.13
6311.00,1.13
6310.00,1.13
6309.00,1.13
6308.00,1.13
6307.00,1.14
6306.00,1.14
6305.00,1.14
6304.00,1.14
6303.00,1.14
6302.00,1.14
6301.00,1.14
6300.00,1.14
6299.00,1.14
6298.00,1.14
6297.00,1.15
6296.00,1.15
6295.00,1.15
6294.00,1.15
6293.00,1.15
6292.00,1.15
6291.00,1.15
6290.00,1.15
6289.00,1.15
6288.00,1.16
6287.00,1.16
6286.00,1.16
6285.00,1.16
6284.00,1.16
6283.00,1.16
6282.00,1.17
6281.00,1.17
6280.00,1.17
6279.00,1.17
6278.00,1.17
6277.00,1.18
6276.00,1.18
6275.00,1.18
6274.00,1.18
6273.00,1.18
6272.00,1.19
6271.00,1.19
6270.00,1.19
6269.00,1.19
6268.00,1.19
6267.00,1.19
6266.00,1.20
6265.00,1.20
6264.00,1.20
6263.00,1.20
6262.00,1.20
6261.00,1.20
6260.00,1.20
6259.00,1.20
6258.00,1.20
6257.00,1.20
6256.00,1.21
6255.00,1.21
6254.00,1.21
6253.00,1.21
6252.00,1.21
6251.00,1.21
6250.00,1.21
6249.00,1.21
6248.00,1.21
6247.00,1.22
6246.00,1.22
6245.00,1.22
6244.00,1.22
6243.00,1.22
6242.00,1.22
6241.00,1.22
6240.00,1.23
6239.00,1.23
6238.00,1.23
6237.00,1.23
6236.00,1.23
6235.00,1.24
6234.00,1.24
6233.00,1.24
6232.00,1.24
6231.00,1.24
6230.00,1.24
6229.00,1.25
6228.00,1.25
6227.00,1.25
6226.00,1.25
6225.00,1.25
6224.00,1.25
6223.00,1.25
6222.00,1.26
6221.00,1.26
6220.00,1.26
6219.00,1.26
6218.00,1.26
6217.00,1.27
6216.00,1.27
6215.00,1.27
6214.00,1.27
6213.00,1.27
6212.00,1.28
6211.00,1.28
6210.00,1.28
6209.00,1.28
6208.00,1.29
6207.00,1.29
6206.00,1.29
6205.00,1.29
6204.00,1.29
6203.00,1.30
6202.00,1.30
6201.00,1.30
6200.00,1.30
6199.00,1.30
6198.00,1.30
6197.00,1.31
6196.00,1.31
6195.00,1.31
6194.00,1.31
6193.00,1.31
6192.00,1.31
6191.00,1.31
6190.00,1.31
6189.00,1.32
6188.00,1.32
6187.00,1.32
6186.00,1.32
6185.00,1.32
6184.00,1.32
6183.00,1.33
6182.00,1.33
6181.00,1.33
6180.00,1.33
6179.00,1.34
6178.00,1.34
6177.00,1.34
6176.00,1.34
6175.00,1.34
6174.00,1.35
6173.00,1.35
6172.00,1.35
6171.00,1.35
6170.00,1.36
6169.00,1.36
6168.00,1.36
6167.00,1.36
6166.00,1.36
6165.00,1.36
6164.00,1.36
6163.00,1.37
6162.00,1.37
6161.00,1.37
6160.00,1.37
6159.00,1.37
6158.00,1.37
6157.00,1.37
6156.00,1.38
6155.00,1.38
6154.00,1.38
6153.00,1.38
6152.00,1.38
6151.00,1.38
6150.00,1.39
6149.00,1.39
6148.00,1.39
6147.00,1.39
6146.00,1.39
6145.00,1.40
6144.00,1.40
6143.00,1.40
6142.00,1.40
6141.00,1.40
6140.00,1.41
6139.00,1.41
6138.00,1.41
6137.00,1.41
6136.00,1.41
6135.00,1.42
6134.00,1.42
6133.00,1.42
6132.00,1.42
6131.00,1.42
6130.00,1.43
6129.00,1.43
6128.00,1.43
6127.00,1.43
6126.00,1.44
6125.00,1.44
6124.00,1.44
6123.00,1.44
6122.00,1.44
6121.00,1.45
6120.00,1.45
6119.00,1.45
6118.00,1.45
6117.00,1.45
6116.00,1.45
6115.00,1.46
6114.00,1.46
6113.00,1.46
6112.00,1.46
6111.00,1.46
6110.00,1.46
6109.00,1.46
6108.00,1.47
6107.00,1.47
6106.00,1.47
6105.00,1.47
6104.00,1.47
6103.00,1.47
6102.00,1.47
6101.00,1.48
6100.00,1.48
6099.00,1.48
6098.00,1.48
6097.00,1.48
6096.00,1.49
6095.00,1.49
6094.00,1.49
6093.00,1.49
6092.00,1.49
6091.00,1.49
6090.00,1.50
6089.00,1.50
6088.00,1.50
6087.00,1.50
6086.00,1.50
6085.00,1.50
6084.00,1.50
6083.00,1.51
6082.00,1.51
6081.00,1.51
6080.00,1.51
6079.00,1.51
6078.00,1.51
6077.00,1.52
6076.00,1.52
6075.00,1.52
6074.00,1.52
6073.00,1.52
6072.00,1.52
6071.00,1.53
6070.00,1.53
6069.00,1.53
6068.00,1.53
6067.00,1.53
6066.00,1.54
6065.00,1.54
6064.00,1.54
6063.00,1.54
6062.00,1.54
6061.00,1.55
6060.00,1.55
6059.00,1.55
6058.00,1.55
6057.00,1.55
6056.00,1.55
6055.00,1.55
6054.00,1.55
6053.00,1.55
6052.00,1.55
6051.00,1.55
6050.00,1.56
6049.00,1.56
6048.00,1.56
6047.00,1.56
6046.00,1.56
6045.00,1.56
6044.00,1.56
6043.00,1.56
6042.00,1.56
6041.00,1.56
6040.00,1.56
6039.00,1.56
6038.00,1.56
6037.00,1.56
6036.00,1.56
6035.00,1.56
6034.00,1.56
6033.00,1.56
6032.00,1.56
6031.00,1.56
6030.00,1.56
6029.00,1.56
6028.00,1.56
6027.00,1.56
6026.00,1.56
6025.00,1.56
6024.00,1.56
6023.00,1.56
6022.00,1.56
6021.00,1.56
6020.00,1.56
6019.00,1.56
6018.00,1.56
6017.00,1.56
6016.00,1.56
6015.00,1.56
6014.00,1.56
6013.00,1.56
6012.00,1.56
6011.00,1.56
6010.00,1.56
6009.00,1.56
6008.00,1.56
6007.00,1.56
6006.00,1.56
6005.00,1.56
6004.00,1.56
6003.00,1.56
6002.00,1.56
6001.00,1.56
6000.00,1.56
5999.00,1.56
5998.00,1.56
5997.00,1.55
5996.00,1.55
5995.00,1.55
5994.00,1.55
5993.00,1.55
5992.00,1.54
5991.00,1.54
5990.00,1.54
5989.00,1.54
5988.00,1.53
5987.00,1.53
5986.00,1.53
5985.00,1.53
5984.00,1.52
5983.00,1.52
5982.00,1.51
5981.00,1.51
5980.00,1.51
5979.00,1.50
5978.00,1.50
5977.00,1.49
5976.00,1.49
5975.00,1.48
5974.00,1.48
5973.00,1.47
5972.00,1.46
5971.00,1.46
5970.00,1.45
5969.00,1.44
5968.00,1.43
5967.00,1.42
5966.00,1.41
5965.00,1.41
5964.00,1.40
5963.00,1.39
5962.00,1.38
5961.00,1.37
5960.00,1.35
5959.00,1.34
5958.00,1.33
5957.00,1.32
5956.00,1.31
5955.00,1.30
5954.00,1.29
5953.00,1.28
5952.00,1.28
5951.00,1.27
5950.00,1.26
5949.00,1.25
5948.00,1.24
5947.00,1.24
5946.00,1.23
5945.00,1.23
5944.00,1.22
5943.00,1.22
5942.00,1.21
5941.00,1.21
5940.00,1.21
5939.00,1.20
5938.00,1.20
5937.00,1.20
5936.00,1.20
5935.00,1.20
5934.00,1.20
5933.00,1.19
5932.00,1.19
5931.00,1.19
5930.00,1.19
5929.00,1.19
5928.00,1.19
5927.00,1.19
5926.00,1.18
5925.00,1.18
5924.00,1.18
5923.00,1.17
5922.00,1.17
5921.00,1.17
5920.00,1.16
5919.00,1.16
5918.00,1.16
5917.00,1.15
5916.00,1.15
5915.00,1.14
5914.00,1.14
5913.00,1.14
5912.00,1.13
5911.00,1.13
5910.00,1.13
5909.00,1.12
5908.00,1.12
5907.00,1.12
5906.00,1.12
5905.00,1.12
5904.00,1.12
5903.00,1.11
5902.00,1.11
5901.00,1.11
5900.00,1.11
5899.00,1.11
5898.00,1.11
5897.00,1.11
5896.00,1.12
5895.00,1.12
5894.00,1.12
5893.00,1.12
5892.00,1.12
5891.00,1.13
5890.00,1.13
5889.00,1.13
5888.00,1.14
5887.00,1.14
5886.00,1.15
5885.00,1.15
5884.00,1.16
5883.00,1.16
5882.00,1.16
5881.00,1.17
5880.00,1.17
5879.00,1.18
5878.00,1.18
5877.00,1.18
5876.00,1.19
5875.00,1.19
5874.00,1.19
5873.00,1.20
5872.00,1.20
5871.00,1.20
5870.00,1.20
5869.00,1.21
5868.00,1.21
5867.00,1.21
5866.00,1.21
5865.00,1.22
5864.00,1.22
5863.00,1.22
5862.00,1.22
5861.00,1.22
5860.00,1.23
5859.00,1.23
5858.00,1.23
5857.00,1.23
5856.00,1.23
5855.00,1.23
5854.00,1.23
5853.00,1.24
5852.00,1.24
5851.00,1.24
5850.00,1.24
5849.00,1.24
5848.00,1.24
5847.00,1.24
5846.00,1.24
5845.00,1.24
5844.00,1.24
5843.00,1.24
5842.00,1.24
5841.00,1.24
5840.00,1.24
5839.00,1.24
5838.00,1.24
5837.00,1.24
5836.00,1.24
5835.00,1.24
5834.00,1.24
5833.00,1.24
5832.00,1.24
5831.00,1.24
5830.00,1.24
5829.00,1.24
5828.00,1.24
5827.00,1.24
5826.00,1.24
5825.00,1.24
5824.00,1.24
5823.00,1.24
5822.00,1.24
5821.00,1.24
5820.00,1.24
5819.00,1.24
5818.00,1.24
5817.00,1.25
5816.00,1.25
5815.00,1.25
5814.00,1.25
5813.00,1.25
5812.00,1.25
5811.00,1.25
5810.00,1.25
5809.00,1.25
5808.00,1.25
5807.00,1.25
5806.00,1.25
5805.00,1.25
5804.00,1.24
5803.00,1.24
5802.00,1.24
5801.00,1.24
5800.00,1.24
5799.00,1.24
5798.00,1.23
5797.00,1.23
5796.00,1.23
5795.00,1.23
5794.00,1.22
5793.00,1.22
5792.00,1.22
5791.00,1.21
5790.00,1.21
5789.00,1.21
5788.00,1.21
5787.00,1.20
5786.00,1.20
5785.00,1.20
5784.00,1.19
5783.00,1.19
5782.00,1.19
5781.00,1.19
5780.00,1.18
5779.00,1.18
5778.00,1.18
5777.00,1.18
5776.00,1.18
5775.00,1.18
5774.00,1.17
5773.00,1.17
5772.00,1.17
5771.00,1.17
5770.00,1.17
5769.00,1.17
5768.00,1.18
5767.00,1.18
5766.00,1.18
5765.00,1.18
5764.00,1.18
5763.00,1.19
5762.00,1.19
5761.00,1.19
5760.00,1.20
5759.00,1.20
5758.00,1.21
5757.00,1.21
5756.00,1.21
5755.00,1.22
5754.00,1.22
5753.00,1.23
5752.00,1.23
5751.00,1.24
5750.00,1.24
5749.00,1.25
5748.00,1.25
5747.00,1.26
5746.00,1.26
5745.00,1.27
5744.00,1.27
5743.00,1.28
5742.00,1.28
5741.00,1.29
5740.00,1.29
5739.00,1.29
5738.00,1.30
5737.00,1.30
5736.00,1.30
5735.00,1.31
5734.00,1.31
5733.00,1.31
5732.00,1.32
5731.00,1.32
5730.00,1.32
5729.00,1.32
5728.00,1.32
5727.00,1.33
5726.00,1.33
5725.00,1.33
5724.00,1.33
5723.00,1.33
5722.00,1.33
5721.00,1.33
5720.00,1.33
5719.00,1.33
5718.00,1.34
5717.00,1.34
5716.00,1.34
5715.00,1.34
5714.00,1.34
5713.00,1.34
5712.00,1.34
5711.00,1.34
5710.00,1.34
5709.00,1.34
5708.00,1.33
5707.00,1.33
5706.00,1.33
5705.00,1.33
5704.00,1.33
5703.00,1.33
5702.00,1.33
5701.00,1.33
5700.00,1.33
5699.00,1.33
5698.00,1.32
5697.00,1.32
5696.00,1.32
5695.00,1.32
5694.00,1.32
5693.00,1.32
5692.00,1.32
5691.00,1.31
5690.00,1.31
5689.00,1.31
5688.00,1.31
5687.00,1.31
5686.00,1.31
5685.00,1.30
5684.00,1.30
5683.00,1.30
5682.00,1.30
5681.00,1.30
5680.00,1.30
5679.00,1.30
5678.00,1.30
5677.00,1.30
5676.00,1.29
5675.00,1.29
5674.00,1.29
5673.00,1.29
5672.00,1.29
5671.00,1.29
5670.00,1.29
5669.00,1.30
5668.00,1.30
5667.00,1.30
5666.00,1.30
5665.00,1.30
5664.00,1.30
5663.00,1.30
5662.00,1.30
5661.00,1.31
5660.00,1.31
5659.00,1.31
5658.00,1.31
5657.00,1.31
5656.00,1.32
5655.00,1.32
5654.00,1.32
5653.00,1.32
5652.00,1.33
5651.00,1.33
5650.00,1.33
5649.00,1.34
5648.00,1.34
5647.00,1.34
5646.00,1.35
5645.00,1.35
5644.00,1.35
5643.00,1.36
5642.00,1.36
5641.00,1.36
5640.00,1.36
5639.00,1.37
5638.00,1.37
5637.00,1.37
5636.00,1.37
5635.00,1.38
5634.00,1.38
5633.00,1.38
5632.00,1.38
5631.00,1.38
5630.00,1.39
5629.00,1.39
5628.00,1.39
5627.00,1.39
5626.00,1.39
5625.00,1.40
5624.00,1.40
5623.00,1.40
5622.00,1.40
5621.00,1.41
5620.00,1.41
5619.00,1.41
5618.00,1.41
5617.00,1.42
5616.00,1.42
5615.00,1.42
5614.00,1.43
5613.00,1.43
5612.00,1.43
5611.00,1.43
5610.00,1.44
5609.00,1.44
5608.00,1.44
5607.00,1.44
5606.00,1.45
5605.00,1.45
5604.00,1.45
5603.00,1.45
5602.00,1.46
5601.00,1.46
5600.00,1.46
5599.00,1.46
5598.00,1.47
5597.00,1.47
5596.00,1.47
5595.00,1.47
5594.00,1.47
5593.00,1.48
5592.00,1.48
5591.00,1.48
5590.00,1.48
5589.00,1.49
5588.00,1.49
5587.00,1.49
5586.00,1.49
5585.00,1.49
5584.00,1.50
5583.00,1.50
5582.00,1.50
5581.00,1.50
5580.00,1.50
5579.00,1.51
5578.00,1.51
5577.00,1.51
5576.00,1.51
5575.00,1.51
5574.00,1.51
5573.00,1.52
5572.00,1.52
5571.00,1.52
5570.00,1.52
5569.00,1.52
5568.00,1.52
5567.00,1.53
5566.00,1.53
5565.00,1.53
5564.00,1.53
5563.00,1.54
5562.00,1.54
5561.00,1.54
5560.00,1.54
5559.00,1.54
5558.00,1.55
5557.00,1.55
5556.00,1.55
5555.00,1.55
5554.00,1.55
5553.00,1.56
5552.00,1.56
5551.00,1.56
5550.00,1.56
5549.00,1.56
5548.00,1.56
5547.00,1.56
5546.00,1.57
5545.00,1.57
5544.00,1.57
5543.00,1.57
5542.00,1.57
5541.00,1.57
5540.00,1.57
5539.00,1.57
5538.00,1.58
5537.00,1.58
5536.00,1.58
5535.00,1.58
5534.00,1.58
5533.00,1.58
5532.00,1.58
5531.00,1.58
5530.00,1.59
5529.00,1.59
5528.00,1.59
5527.00,1.59
5526.00,1.59
5525.00,1.59
5524.00,1.59
5523.00,1.60
5522.00,1.60
5521.00,1.60
5520.00,1.60
5519.00,1.60
5518.00,1.60
5517.00,1.60
5516.00,1.60
5515.00,1.60
5514.00,1.60
5513.00,1.60
5512.00,1.61
5511.00,1.61
5510.00,1.61
5509.00,1.61
5508.00,1.61
5507.00,1.61
5506.00,1.61
5505.00,1.61
5504.00,1.61
5503.00,1.61
5502.00,1.61
5501.00,1.61
5500.00,1.61
5499.00,1.62
5498.00,1.62
5497.00,1.62
5496.00,1.62
5495.00,1.62
5494.00,1.62
5493.00,1.62
5492.00,1.62
5491.00,1.63
5490.00,1.63
5489.00,1.63
5488.00,1.63
5487.00,1.63
5486.00,1.63
5485.00,1.63
5484.00,1.64
5483.00,1.64
5482.00,1.64
5481.00,1.64
5480.00,1.64
5479.00,1.64
5478.00,1.65
5477.00,1.65
5476.00,1.65
5475.00,1.65
5474.00,1.65
5473.00,1.65
5472.00,1.66
5471.00,1.66
5470.00,1.66
5469.00,1.66
5468.00,1.66
5467.00,1.67
5466.00,1.67
5465.00,1.67
5464.00,1.67
5463.00,1.68
5462.00,1.68
5461.00,1.68
5460.00,1.68
5459.00,1.68
5458.00,1.68
5457.00,1.69
5456.00,1.69
5455.00,1.69
5454.00,1.69
5453.00,1.69
5452.00,1.69
5451.00,1.69
5450.00,1.69
5449.00,1.69
5448.00,1.69
5447.00,1.69
5446.00,1.69
5445.00,1.69
5444.00,1.69
5443.00,1.69
5442.00,1.69
5441.00,1.69
5440.00,1.69
5439.00,1.69
5438.00,1.69
5437.00,1.69
5436.00,1.69
5435.00,1.69
5434.00,1.69
5433.00,1.69
5432.00,1.69
5431.00,1.70
5430.00,1.70
5429.00,1.70
5428.00,1.70
5427.00,1.70
5426.00,1.70
5425.00,1.70
5424.00,1.70
5423.00,1.70
5422.00,1.70
5421.00,1.70
5420.00,1.70
5419.00,1.70
5418.00,1.70
5417.00,1.70
5416.00,1.70
5415.00,1.70
5414.00,1.70
5413.00,1.70
5412.00,1.70
5411.00,1.70
5410.00,1.70
5409.00,1.70
5408.00,1.71
5407.00,1.71
5406.00,1.71
5405.00,1.71
5404.00,1.71
5403.00,1.71
5402.00,1.71
5401.00,1.71
5400.00,1.71
5399.00,1.70
5398.00,1.70
5397.00,1.70
5396.00,1.70
5395.00,1.70
5394.00,1.70
5393.00,1.70
5392.00,1.70
5391.00,1.70
5390.00,1.70
5389.00,1.70
5388.00,1.69
5387.00,1.69
5386.00,1.69
5385.00,1.69
5384.00,1.69
5383.00,1.69
5382.00,1.68
5381.00,1.68
5380.00,1.68
5379.00,1.68
5378.00,1.67
5377.00,1.67
5376.00,1.67
5375.00,1.66
5374.00,1.66
5373.00,1.66
5372.00,1.65
5371.00,1.65
5370.00,1.64
5369.00,1.64
5368.00,1.63
5367.00,1.63
5366.00,1.62
5365.00,1.62
5364.00,1.61
5363.00,1.60
5362.00,1.60
5361.00,1.59
5360.00,1.58
5359.00,1.57
5358.00,1.56
5357.00,1.56
5356.00,1.55
5355.00,1.54
5354.00,1.53
5353.00,1.52
5352.00,1.51
5351.00,1.50
5350.00,1.48
5349.00,1.47
5348.00,1.46
5347.00,1.45
5346.00,1.44
5345.00,1.43
5344.00,1.41
5343.00,1.40
5342.00,1.39
5341.00,1.38
5340.00,1.36
5339.00,1.35
5338.00,1.34
5337.00,1.33
5336.00,1.31
5335.00,1.30
5334.00,1.28
5333.00,1.27
5332.00,1.26
5331.00,1.24
5330.00,1.23
5329.00,1.21
5328.00,1.20
5327.00,1.18
5326.00,1.17
5325.00,1.15
5324.00,1.14
5323.00,1.12
5322.00,1.11
5321.00,1.09
5320.00,1.07
5319.00,1.06
5318.00,1.04
5317.00,1.03
5316.00,1.01
5315.00,1.00
5314.00,0.99
5313.00,0.97
5312.00,0.96
5311.00,0.94
5310.00,0.93
5309.00,0.92
5308.00,0.90
5307.00,0.89
5306.00,0.88
5305.00,0.87
5304.00,0.86
5303.00,0.85
5302.00,0.84
5301.00,0.83
5300.00,0.82
5299.00,0.81
5298.00,0.80
5297.00,0.80
5296.00,0.79
5295.00,0.78
5294.00,0.78
5293.00,0.77
5292.00,0.76
5291.00,0.76
5290.00,0.75
5289.00,0.75
5288.00,0.74
5287.00,0.74
5286.00,0.73
5285.00,0.73
5284.00,0.72
5283.00,0.72
5282.00,0.72
5281.00,0.71
5280.00,0.71
5279.00,0.71
5278.00,0.70
5277.00,0.70
5276.00,0.70
5275.00,0.70
5274.00,0.69
5273.00,0.69
5272.00,0.69
5271.00,0.69
5270.00,0.68
5269.00,0.68
5268.00,0.68
5267.00,0.68
5266.00,0.68
5265.00,0.68
5264.00,0.67
5263.00,0.67
5262.00,0.67
5261.00,0.67
5260.00,0.67
5259.00,0.67
5258.00,0.67
5257.00,0.66
5256.00,0.66
5255.00,0.66
5254.00,0.66
5253.00,0.66
5252.00,0.66
5251.00,0.66
5250.00,0.66
5249.00,0.66
5248.00,0.66
5247.00,0.66
5246.00,0.66
5245.00,0.66
5244.00,0.66
5243.00,0.66
5242.00,0.66
5241.00,0.66
5240.00,0.66
5239.00,0.66
5238.00,0.66
5237.00,0.66
5236.00,0.66
5235.00,0.66
5234.00,0.66
5233.00,0.66
5232.00,0.66
5231.00,0.66
5230.00,0.65
5229.00,0.65
5228.00,0.65
5227.00,0.65
5226.00,0.65
5225.00,0.65
5224.00,0.65
5223.00,0.65
5222.00,0.65
5221.00,0.65
5220.00,0.65
5219.00,0.65
5218.00,0.65
5217.00,0.65
5216.00,0.65
5215.00,0.65
5214.00,0.65
5213.00,0.65
5212.00,0.65
5211.00,0.65
5210.00,0.65
5209.00,0.65
5208.00,0.65
5207.00,0.65
5206.00,0.65
5205.00,0.65
5204.00,0.65
5203.00,0.65
5202.00,0.66
5201.00,0.66
5200.00,0.66
5199.00,0.66
5198.00,0.66
5197.00,0.66
5196.00,0.66
5195.00,0.66
5194.00,0.66
5193.00,0.66
5192.00,0.66
5191.00,0.66
5190.00,0.66
5189.00,0.66
5188.00,0.66
5187.00,0.66
5186.00,0.66
5185.00,0.66
5184.00,0.66
5183.00,0.66
5182.00,0.66
5181.00,0.66
5180.00,0.66
5179.00,0.66
5178.00,0.66
5177.00,0.67
5176.00,0.67
5175.00,0.67
5174.00,0.67
5173.00,0.67
5172.00,0.67
5171.00,0.67
5170.00,0.67
5169.00,0.67
5168.00,0.67
5167.00,0.67
5166.00,0.67
5165.00,0.67
5164.00,0.67
5163.00,0.67
5162.00,0.67
5161.00,0.67
5160.00,0.67
5159.00,0.68
5158.00,0.68
5157.00,0.68
5156.00,0.68
5155.00,0.68
5154.00,0.68
5153.00,0.68
5152.00,0.68
5151.00,0.68
5150.00,0.68
5149.00,0.68
5148.00,0.68
5147.00,0.68
5146.00,0.69
5145.00,0.69
5144.00,0.69
5143.00,0.69
5142.00,0.69
5141.00,0.69
5140.00,0.69
5139.00,0.69
5138.00,0.69
5137.00,0.69
5136.00,0.69
5135.00,0.69
5134.00,0.70
5133.00,0.70
5132.00,0.70
5131.00,0.70
5130.00,0.70
5129.00,0.70
5128.00,0.70
5127.00,0.70
5126.00,0.70
5125.00,0.70
5124.00,0.70
5123.00,0.70
5122.00,0.71
5121.00,0.71
5120.00,0.71
5119.00,0.71
5118.00,0.71
5117.00,0.71
5116.00,0.71
5115.00,0.71
5114.00,0.71
5113.00,0.71
5112.00,0.71
5111.00,0.71
5110.00,0.71
5109.00,0.71
5108.00,0.71
5107.00,0.71
5106.00,0.71
5105.00,0.72
5104.00,0.72
5103.00,0.72
5102.00,0.72
5101.00,0.72
5100.00,0.72
5099.00,0.72
5098.00,0.72
5097.00,0.72
5096.00,0.72
5095.00,0.72
5094.00,0.72
5093.00,0.73
5092.00,0.73
5091.00,0.73
5090.00,0.73
5089.00,0.73
5088.00,0.73
5087.00,0.73
5086.00,0.73
5085.00,0.73
5084.00,0.73
5083.00,0.73
5082.00,0.73
5081.00,0.73
5080.00,0.74
5079.00,0.74
5078.00,0.74
5077.00,0.74
5076.00,0.74
5075.00,0.74
5074.00,0.74
5073.00,0.74
5072.00,0.74
5071.00,0.75
5070.00,0.75
5069.00,0.75
5068.00,0.75
5067.00,0.75
5066.00,0.75
5065.00,0.75
5064.00,0.75
5063.00,0.76
5062.00,0.76
5061.00,0.76
5060.00,0.76
5059.00,0.76
5058.00,0.76
5057.00,0.76
5056.00,0.76
5055.00,0.77
5054.00,0.77
5053.00,0.77
5052.00,0.77
5051.00,0.77
5050.00,0.77
5049.00,0.77
5048.00,0.77
5047.00,0.78
5046.00,0.78
5045.00,0.78
5044.00,0.78
5043.00,0.78
5042.00,0.78
5041.00,0.78
5040.00,0.78
5039.00,0.78
5038.00,0.79
5037.00,0.79
5036.00,0.79
5035.00,0.79
5034.00,0.79
5033.00,0.79
5032.00,0.80
5031.00,0.80
5030.00,0.80
5029.00,0.80
5028.00,0.80
5027.00,0.81
5026.00,0.81
5025.00,0.81
5024.00,0.81
5023.00,0.81
5022.00,0.81
5021.00,0.81
5020.00,0.82
5019.00,0.82
5018.00,0.82
5017.00,0.82
5016.00,0.82
5015.00,0.82
5014.00,0.83
5013.00,0.83
5012.00,0.83
5011.00,0.83
5010.00,0.83
5009.00,0.83
5008.00,0.83
5007.00,0.84
5006.00,0.84
5005.00,0.84
5004.00,0.84
5003.00,0.84
5002.00,0.84
5001.00,0.84
5000.00,0.85
4999.00,0.85
4998.00,0.85
4997.00,0.85
4996.00,0.85
4995.00,0.85
4994.00,0.86
4993.00,0.86
4992.00,0.86
4991.00,0.86
4990.00,0.86
4989.00,0.87
4988.00,0.87
4987.00,0.87
4986.00,0.87
4985.00,0.87
4984.00,0.87
4983.00,0.87
4982.00,0.87
4981.00,0.88
4980.00,0.88
4979.00,0.88
4978.00,0.88
4977.00,0.88
4976.00,0.88
4975.00,0.88
4974.00,0.89
4973.00,0.89
4972.00,0.89
4971.00,0.89
4970.00,0.89
4969.00,0.90
4968.00,0.90
4967.00,0.90
4966.00,0.90
4965.00,0.90
4964.00,0.90
4963.00,0.91
4962.00,0.91
4961.00,0.91
4960.00,0.91
4959.00,0.91
4958.00,0.91
4957.00,0.91
4956.00,0.91
4955.00,0.91
4954.00,0.92
4953.00,0.92
4952.00,0.92
4951.00,0.92
4950.00,0.92
4949.00,0.92
4948.00,0.92
4947.00,0.92
4946.00,0.92
4945.00,0.93
4944.00,0.93
4943.00,0.93
4942.00,0.93
4941.00,0.93
4940.00,0.93
4939.00,0.94
4938.00,0.94
4937.00,0.94
4936.00,0.94
4935.00,0.94
4934.00,0.94
4933.00,0.95
4932.00,0.95
4931.00,0.95
4930.00,0.95
4929.00,0.95
4928.00,0.95
4927.00,0.95
4926.00,0.96
4925.00,0.96
4924.00,0.96
4923.00,0.96
4922.00,0.96
4921.00,0.96
4920.00,0.96
4919.00,0.96
4918.00,0.97
4917.00,0.97
4916.00,0.97
4915.00,0.97
4914.00,0.97
4913.00,0.97
4912.00,0.97
4911.00,0.97
4910.00,0.97
4909.00,0.97
4908.00,0.97
4907.00,0.97
4906.00,0.97
4905.00,0.97
4904.00,0.97
4903.00,0.97
4902.00,0.97
4901.00,0.97
4900.00,0.97
4899.00,0.97
4898.00,0.97
4897.00,0.97
4896.00,0.98
4895.00,0.98
4894.00,0.98
4893.00,0.98
4892.00,0.98
4891.00,0.98
4890.00,0.98
4889.00,0.98
4888.00,0.98
4887.00,0.98
4886.00,0.98
4885.00,0.98
4884.00,0.99
4883.00,0.99
4882.00,0.99
4881.00,0.99
4880.00,0.99
4879.00,0.99
4878.00,0.99
4877.00,0.99
4876.00,1.00
4875.00,1.00
4874.00,1.00
4873.00,1.00
4872.00,1.00
4871.00,1.00
4870.00,1.00
4869.00,1.00
4868.00,1.01
4867.00,1.01
4866.00,1.01
4865.00,1.01
4864.00,1.01
4863.00,1.01
4862.00,1.01
4861.00,1.01
4860.00,1.01
4859.00,1.01
4858.00,1.01
4857.00,1.01
4856.00,1.02
4855.00,1.02
4854.00,1.02
4853.00,1.02
4852.00,1.02
4851.00,1.02
4850.00,1.02
4849.00,1.02
4848.00,1.02
4847.00,1.02
4846.00,1.02
4845.00,1.02
4844.00,1.03
4843.00,1.03
4842.00,1.03
4841.00,1.03
4840.00,1.03
4839.00,1.03
4838.00,1.03
4837.00,1.03
4836.00,1.03
4835.00,1.03
4834.00,1.03
4833.00,1.03
4832.00,1.03
4831.00,1.03
4830.00,1.03
4829.00,1.03
4828.00,1.04
4827.00,1.04
4826.00,1.04
4825.00,1.04
4824.00,1.04
4823.00,1.04
4822.00,1.04
4821.00,1.04
4820.00,1.04
4819.00,1.04
4818.00,1.04
4817.00,1.05
4816.00,1.05
4815.00,1.05
4814.00,1.05
4813.00,1.05
4812.00,1.05
4811.00,1.05
4810.00,1.05
4809.00,1.06
4808.00,1.06
4807.00,1.06
4806.00,1.06
4805.00,1.06
4804.00,1.06
4803.00,1.07
4802.00,1.07
4801.00,1.07
4800.00,1.07
4799.00,1.07
4798.00,1.08
4797.00,1.08
4796.00,1.08
4795.00,1.08
4794.00,1.08
4793.00,1.08
4792.00,1.09
4791.00,1.09
4790.00,1.09
4789.00,1.09
4788.00,1.09
4787.00,1.10
4786.00,1.10
4785.00,1.10
4784.00,1.10
4783.00,1.10
4782.00,1.10
4781.00,1.11
4780.00,1.11
4779.00,1.11
4778.00,1.11
4777.00,1.12
4776.00,1.12
4775.00,1.12
4774.00,1.12
4773.00,1.12
4772.00,1.13
4771.00,1.13
4770.00,1.13
4769.00,1.13
4768.00,1.14
4767.00,1.14
4766.00,1.14
4765.00,1.14
4764.00,1.15
4763.00,1.15
4762.00,1.15
4761.00,1.16
4760.00,1.16
4759.00,1.16
4758.00,1.16
4757.00,1.17
4756.00,1.17
4755.00,1.17
4754.00,1.18
4753.00,1.18
4752.00,1.18
4751.00,1.19
4750.00,1.19
4749.00,1.19
4748.00,1.19
4747.00,1.20
4746.00,1.20
4745.00,1.20
4744.00,1.20
4743.00,1.20
4742.00,1.21
4741.00,1.21
4740.00,1.21
4739.00,1.21
4738.00,1.21
4737.00,1.21
4736.00,1.21
4735.00,1.21
4734.00,1.22
4733.00,1.22
4732.00,1.22
4731.00,1.22
4730.00,1.22
4729.00,1.22
4728.00,1.23
4727.00,1.23
4726.00,1.23
4725.00,1.23
4724.00,1.24
4723.00,1.24
4722.00,1.24
4721.00,1.24
4720.00,1.25
4719.00,1.25
4718.00,1.25
4717.00,1.26
4716.00,1.26
4715.00,1.26
4714.00,1.27
4713.00,1.27
4712.00,1.27
4711.00,1.28
4710.00,1.28
4709.00,1.28
4708.00,1.29
4707.00,1.29
4706.00,1.29
4705.00,1.30
4704.00,1.30
4703.00,1.31
4702.00,1.31
4701.00,1.31
4700.00,1.32
4699.00,1.32
4698.00,1.33
4697.00,1.33
4696.00,1.33
4695.00,1.34
4694.00,1.34
4693.00,1.34
4692.00,1.35
4691.00,1.35
4690.00,1.35
4689.00,1.36
4688.00,1.36
4687.00,1.36
4686.00,1.37
4685.00,1.37
4684.00,1.37
4683.00,1.37
4682.00,1.38
4681.00,1.38
4680.00,1.38
4679.00,1.38
4678.00,1.39
4677.00,1.39
4676.00,1.39
4675.00,1.39
4674.00,1.39
4673.00,1.39
4672.00,1.40
4671.00,1.40
4670.00,1.40
4669.00,1.40
4668.00,1.40
4667.00,1.40
4666.00,1.40
4665.00,1.41
4664.00,1.41
4663.00,1.41
4662.00,1.41
4661.00,1.41
4660.00,1.42
4659.00,1.42
4658.00,1.42
4657.00,1.42
4656.00,1.43
4655.00,1.43
4654.00,1.43
4653.00,1.43
4652.00,1.44
4651.00,1.44
4650.00,1.44
4649.00,1.45
4648.00,1.45
4647.00,1.45
4646.00,1.46
4645.00,1.46
4644.00,1.46
4643.00,1.46
4642.00,1.47
4641.00,1.47
4640.00,1.47
4639.00,1.47
4638.00,1.47
4637.00,1.48
4636.00,1.48
4635.00,1.48
4634.00,1.48
4633.00,1.48
4632.00,1.49
4631.00,1.49
4630.00,1.49
4629.00,1.49
4628.00,1.49
4627.00,1.50
4626.00,1.50
4625.00,1.50
4624.00,1.50
4623.00,1.50
4622.00,1.50
4621.00,1.51
4620.00,1.51
4619.00,1.51
4618.00,1.51
4617.00,1.51
4616.00,1.51
4615.00,1.51
4614.00,1.52
4613.00,1.52
4612.00,1.52
4611.00,1.52
4610.00,1.52
4609.00,1.52
4608.00,1.52
4607.00,1.52
4606.00,1.53
4605.00,1.53
4604.00,1.53
4603.00,1.53
4602.00,1.53
4601.00,1.53
4600.00,1.53
4599.00,1.53
4598.00,1.54
4597.00,1.54
4596.00,1.54
4595.00,1.54
4594.00,1.54
4593.00,1.54
4592.00,1.54
4591.00,1.54
4590.00,1.54
4589.00,1.55
4588.00,1.55
4587.00,1.55
4586.00,1.55
4585.00,1.55
4584.00,1.55
4583.00,1.56
4582.00,1.56
4581.00,1.56
4580.00,1.56
4579.00,1.57
4578.00,1.57
4577.00,1.57
4576.00,1.57
4575.00,1.58
4574.00,1.58
4573.00,1.58
4572.00,1.58
4571.00,1.58
4570.00,1.59
4569.00,1.59
4568.00,1.59
4567.00,1.59
4566.00,1.59
4565.00,1.60
4564.00,1.60
4563.00,1.60
4562.00,1.60
4561.00,1.60
4560.00,1.60
4559.00,1.60
4558.00,1.60
4557.00,1.61
4556.00,1.61
4555.00,1.61
4554.00,1.61
4553.00,1.61
4552.00,1.61
4551.00,1.61
4550.00,1.61
4549.00,1.61
4548.00,1.62
4547.00,1.62
4546.00,1.62
4545.00,1.62
4544.00,1.62
4543.00,1.62
4542.00,1.62
4541.00,1.62
4540.00,1.62
4539.00,1.63
4538.00,1.63
4537.00,1.63
4536.00,1.63
4535.00,1.63
4534.00,1.63
4533.00,1.63
4532.00,1.63
4531.00,1.63
4530.00,1.63
4529.00,1.63
4528.00,1.64
4527.00,1.64
4526.00,1.64
4525.00,1.64
4524.00,1.64
4523.00,1.64
4522.00,1.64
4521.00,1.64
4520.00,1.65
4519.00,1.65
4518.00,1.65
4517.00,1.65
4516.00,1.65
4515.00,1.65
4514.00,1.65
4513.00,1.65
4512.00,1.66
4511.00,1.66
4510.00,1.66
4509.00,1.66
4508.00,1.66
4507.00,1.66
4506.00,1.66
4505.00,1.65
4504.00,1.65
4503.00,1.65
4502.00,1.65
4501.00,1.65
4500.00,1.65
4499.00,1.65
4498.00,1.65
4497.00,1.65
4496.00,1.65
4495.00,1.64
4494.00,1.64
4493.00,1.64
4492.00,1.64
4491.00,1.64
4490.00,1.63
4489.00,1.63
4488.00,1.63
4487.00,1.63
4486.00,1.62
4485.00,1.62
4484.00,1.62
4483.00,1.62
4482.00,1.61
4481.00,1.61
4480.00,1.61
4479.00,1.60
4478.00,1.60
4477.00,1.59
4476.00,1.59
4475.00,1.59
4474.00,1.58
4473.00,1.58
4472.00,1.57
4471.00,1.57
4470.00,1.56
4469.00,1.56
4468.00,1.55
4467.00,1.55
4466.00,1.54
4465.00,1.54
4464.00,1.53
4463.00,1.53
4462.00,1.52
4461.00,1.52
4460.00,1.51
4459.00,1.51
4458.00,1.50
4457.00,1.49
4456.00,1.49
4455.00,1.48
4454.00,1.47
4453.00,1.47
4452.00,1.46
4451.00,1.45
4450.00,1.44
4449.00,1.44
4448.00,1.43
4447.00,1.42
4446.00,1.41
4445.00,1.40
4444.00,1.40
4443.00,1.39
4442.00,1.38
4441.00,1.37
4440.00,1.36
4439.00,1.36
4438.00,1.35
4437.00,1.34
4436.00,1.33
4435.00,1.32
4434.00,1.32
4433.00,1.31
4432.00,1.30
4431.00,1.30
4430.00,1.29
4429.00,1.28
4428.00,1.28
4427.00,1.27
4426.00,1.27
4425.00,1.27
4424.00,1.26
4423.00,1.26
4422.00,1.26
4421.00,1.25
4420.00,1.25
4419.00,1.25
4418.00,1.25
4417.00,1.25
4416.00,1.25
4415.00,1.25
4414.00,1.25
4413.00,1.25
4412.00,1.25
4411.00,1.25
4410.00,1.25
4409.00,1.25
4408.00,1.25
4407.00,1.25
4406.00,1.25
4405.00,1.25
4404.00,1.26
4403.00,1.26
4402.00,1.26
4401.00,1.26
4400.00,1.26
4399.00,1.26
4398.00,1.27
4397.00,1.27
4396.00,1.27
4395.00,1.27
4394.00,1.27
4393.00,1.28
4392.00,1.28
4391.00,1.28
4390.00,1.28
4389.00,1.28
4388.00,1.29
4387.00,1.29
4386.00,1.29
4385.00,1.29
4384.00,1.29
4383.00,1.30
4382.00,1.30
4381.00,1.30
4380.00,1.30
4379.00,1.30
4378.00,1.31
4377.00,1.31
4376.00,1.31
4375.00,1.31
4374.00,1.31
4373.00,1.31
4372.00,1.32
4371.00,1.32
4370.00,1.32
4369.00,1.32
4368.00,1.32
4367.00,1.32
4366.00,1.32
4365.00,1.32
4364.00,1.32
4363.00,1.32
4362.00,1.33
4361.00,1.33
4360.00,1.33
4359.00,1.33
4358.00,1.33
4357.00,1.32
4356.00,1.32
4355.00,1.32
4354.00,1.32
4353.00,1.32
4352.00,1.32
4351.00,1.32
4350.00,1.32
4349.00,1.32
4348.00,1.32
4347.00,1.32
4346.00,1.32
4345.00,1.32
4344.00,1.32
4343.00,1.32
4342.00,1.33
4341.00,1.33
4340.00,1.33
4339.00,1.33
4338.00,1.33
4337.00,1.33
4336.00,1.33
4335.00,1.33
4334.00,1.34
4333.00,1.34
4332.00,1.34
4331.00,1.34
4330.00,1.34
4329.00,1.34
4328.00,1.34
4327.00,1.34
4326.00,1.35
4325.00,1.35
4324.00,1.35
4323.00,1.35
4322.00,1.35
4321.00,1.35
4320.00,1.35
4319.00,1.36
4318.00,1.36
4317.00,1.36
4316.00,1.36
4315.00,1.37
4314.00,1.37
4313.00,1.37
4312.00,1.38
4311.00,1.38
4310.00,1.38
4309.00,1.39
4308.00,1.39
4307.00,1.40
4306.00,1.40
4305.00,1.40
4304.00,1.41
4303.00,1.41
4302.00,1.42
4301.00,1.42
4300.00,1.42
4299.00,1.43
4298.00,1.43
4297.00,1.44
4296.00,1.44
4295.00,1.44
4294.00,1.45
4293.00,1.45
4292.00,1.45
4291.00,1.46
4290.00,1.46
4289.00,1.46
4288.00,1.47
4287.00,1.47
4286.00,1.47
4285.00,1.47
4284.00,1.47
4283.00,1.48
4282.00,1.48
4281.00,1.48
4280.00,1.48
4279.00,1.48
4278.00,1.48
4277.00,1.48
4276.00,1.48
4275.00,1.48
4274.00,1.48
4273.00,1.48
4272.00,1.48
4271.00,1.48
4270.00,1.48
4269.00,1.48
4268.00,1.48
4267.00,1.48
4266.00,1.48
4265.00,1.48
4264.00,1.47
4263.00,1.47
4262.00,1.47
4261.00,1.47
4260.00,1.47
4259.00,1.47
4258.00,1.47
4257.00,1.47
4256.00,1.47
4255.00,1.47
4254.00,1.47
4253.00,1.47
4252.00,1.47
4251.00,1.47
4250.00,1.47
4249.00,1.47
4248.00,1.47
4247.00,1.47
4246.00,1.48
4245.00,1.48
4244.00,1.48
4243.00,1.48
4242.00,1.48
4241.00,1.49
4240.00,1.49
4239.00,1.49
4238.00,1.49
4237.00,1.50
4236.00,1.50
4235.00,1.50
4234.00,1.50
4233.00,1.51
4232.00,1.51
4231.00,1.51
4230.00,1.51
4229.00,1.52
4228.00,1.52
4227.00,1.52
4226.00,1.52
4225.00,1.53
4224.00,1.53
4223.00,1.53
4222.00,1.53
4221.00,1.53
4220.00,1.53
4219.00,1.54
4218.00,1.54
4217.00,1.54
4216.00,1.54
4215.00,1.54
4214.00,1.54
4213.00,1.55
4212.00,1.55
4211.00,1.55
4210.00,1.55
4209.00,1.55
4208.00,1.55
4207.00,1.56
4206.00,1.56
4205.00,1.56
4204.00,1.56
4203.00,1.56
4202.00,1.56
4201.00,1.56
4200.00,1.56
4199.00,1.56
4198.00,1.56
4197.00,1.56
4196.00,1.56
4195.00,1.56
4194.00,1.57
4193.00,1.57
4192.00,1.57
4191.00,1.57
4190.00,1.57
4189.00,1.57
4188.00,1.57
4187.00,1.57
4186.00,1.57
4185.00,1.57
4184.00,1.57
4183.00,1.57
4182.00,1.57
4181.00,1.57
4180.00,1.57
4179.00,1.57
4178.00,1.58
4177.00,1.58
4176.00,1.58
4175.00,1.58
4174.00,1.58
4173.00,1.58
4172.00,1.58
4171.00,1.58
4170.00,1.58
4169.00,1.58
4168.00,1.58
4167.00,1.58
4166.00,1.58
4165.00,1.58
4164.00,1.58
4163.00,1.58
4162.00,1.58
4161.00,1.58
4160.00,1.58
4159.00,1.58
4158.00,1.58
4157.00,1.58
4156.00,1.58
4155.00,1.58
4154.00,1.58
4153.00,1.59
4152.00,1.59
4151.00,1.59
4150.00,1.59
4149.00,1.59
4148.00,1.59
4147.00,1.59
4146.00,1.59
4145.00,1.59
4144.00,1.59
4143.00,1.59
4142.00,1.59
4141.00,1.59
4140.00,1.59
4139.00,1.59
4138.00,1.59
4137.00,1.58
4136.00,1.58
4135.00,1.58
4134.00,1.58
4133.00,1.58
4132.00,1.58
4131.00,1.58
4130.00,1.58
4129.00,1.58
4128.00,1.58
4127.00,1.58
4126.00,1.58
4125.00,1.58
4124.00,1.58
4123.00,1.59
4122.00,1.59
4121.00,1.59
4120.00,1.59
4119.00,1.59
4118.00,1.60
4117.00,1.60
4116.00,1.60
4115.00,1.60
4114.00,1.60
4113.00,1.61
4112.00,1.61
4111.00,1.61
4110.00,1.61
4109.00,1.61
4108.00,1.61
4107.00,1.61
4106.00,1.61
4105.00,1.61
4104.00,1.61
4103.00,1.61
4102.00,1.61
4101.00,1.61
4100.00,1.61
4099.00,1.61
4098.00,1.61
4097.00,1.61
4096.00,1.61
4095.00,1.61
4094.00,1.61
4093.00,1.61
4092.00,1.61
4091.00,1.61
4090.00,1.61
4089.00,1.61
4088.00,1.62
4087.00,1.62
4086.00,1.62
4085.00,1.62
4084.00,1.62
4083.00,1.63
4082.00,1.63
4081.00,1.63
4080.00,1.63
4079.00,1.63
4078.00,1.64
4077.00,1.64
4076.00,1.64
4075.00,1.64
4074.00,1.64
4073.00,1.64
4072.00,1.64
4071.00,1.64
4070.00,1.64
4069.00,1.64
4068.00,1.64
4067.00,1.65
4066.00,1.65
4065.00,1.65
4064.00,1.65
4063.00,1.65
4062.00,1.65
4061.00,1.65
4060.00,1.65
4059.00,1.65
4058.00,1.65
4057.00,1.65
4056.00,1.65
4055.00,1.66
4054.00,1.66
4053.00,1.66
4052.00,1.66
4051.00,1.66
4050.00,1.66
4049.00,1.65
4048.00,1.65
4047.00,1.65
4046.00,1.65
4045.00,1.65
4044.00,1.65
4043.00,1.65
4042.00,1.65
4041.00,1.65
4040.00,1.65
4039.00,1.65
4038.00,1.65
4037.00,1.65
4036.00,1.65
4035.00,1.66
4034.00,1.66
4033.00,1.66
4032.00,1.66
4031.00,1.66
4030.00,1.66
4029.00,1.67
4028.00,1.67
4027.00,1.67
4026.00,1.67
4025.00,1.67
4024.00,1.67
4023.00,1.67
4022.00,1.67
4021.00,1.67
4020.00,1.67
4019.00,1.67
4018.00,1.67
4017.00,1.68
4016.00,1.68
4015.00,1.68
4014.00,1.68
4013.00,1.68
4012.00,1.68
4011.00,1.68
4010.00,1.68
4009.00,1.68
4008.00,1.68
4007.00,1.69
4006.00,1.69
4005.00,1.69
4004.00,1.69
4003.00,1.70
4002.00,1.70
4001.00,1.70
4000.00,1.71
