创建为新数据集,样品 046 用户 Administrator 日期 星期三, 十一月 01 2017
cm-1,%T
10000.00,1.26
9999.00,1.26
9998.00,1.26
9997.00,1.26
9996.00,1.26
9995.00,1.26
9994.00,1.26
9993.00,1.26
9992.00,1.26
9991.00,1.26
9990.00,1.26
9989.00,1.26
9988.00,1.26
9987.00,1.26
9986.00,1.26
9985.00,1.26
9984.00,1.26
9983.00,1.26
9982.00,1.26
9981.00,1.26
9980.00,1.26
9979.00,1.25
9978.00,1.25
9977.00,1.25
9976.00,1.25
9975.00,1.25
9974.00,1.25
9973.00,1.25
9972.00,1.25
9971.00,1.25
9970.00,1.25
9969.00,1.25
9968.00,1.25
9967.00,1.25
9966.00,1.25
9965.00,1.25
9964.00,1.25
9963.00,1.25
9962.00,1.25
9961.00,1.25
9960.00,1.25
9959.00,1.25
9958.00,1.26
9957.00,1.26
9956.00,1.26
9955.00,1.26
9954.00,1.26
9953.00,1.26
9952.00,1.26
9951.00,1.26
9950.00,1.26
9949.00,1.26
9948.00,1.26
9947.00,1.26
9946.00,1.26
9945.00,1.26
9944.00,1.26
9943.00,1.26
9942.00,1.26
9941.00,1.26
9940.00,1.26
9939.00,1.26
9938.00,1.26
9937.00,1.26
9936.00,1.26
9935.00,1.26
9934.00,1.26
9933.00,1.26
9932.00,1.26
9931.00,1.26
9930.00,1.26
9929.00,1.26
9928.00,1.26
9927.00,1.26
9926.00,1.26
9925.00,1.26
9924.00,1.26
9923.00,1.26
9922.00,1.26
9921.00,1.26
9920.00,1.26
9919.00,1.26
9918.00,1.26
9917.00,1.25
9916.00,1.25
9915.00,1.25
9914.00,1.25
9913.00,1.25
9912.00,1.25
9911.00,1.24
9910.00,1.24
9909.00,1.24
9908.00,1.24
9907.00,1.24
9906.00,1.24
9905.00,1.24
9904.00,1.23
9903.00,1.23
9902.00,1.23
9901.00,1.23
9900.00,1.23
9899.00,1.23
9898.00,1.23
9897.00,1.23
9896.00,1.23
9895.00,1.23
9894.00,1.23
9893.00,1.24
9892.00,1.24
9891.00,1.24
9890.00,1.24
9889.00,1.24
9888.00,1.24
9887.00,1.25
9886.00,1.25
9885.00,1.25
9884.00,1.25
9883.00,1.25
9882.00,1.26
9881.00,1.26
9880.00,1.26
9879.00,1.26
9878.00,1.26
9877.00,1.26
9876.00,1.26
9875.00,1.26
9874.00,1.26
9873.00,1.26
9872.00,1.26
9871.00,1.26
9870.00,1.26
9869.00,1.26
9868.00,1.26
9867.00,1.26
9866.00,1.26
9865.00,1.26
9864.00,1.26
9863.00,1.26
9862.00,1.26
9861.00,1.26
9860.00,1.26
9859.00,1.26
9858.00,1.26
9857.00,1.26
9856.00,1.26
9855.00,1.26
9854.00,1.26
9853.00,1.26
9852.00,1.26
9851.00,1.26
9850.00,1.26
9849.00,1.26
9848.00,1.26
9847.00,1.26
9846.00,1.26
9845.00,1.26
9844.00,1.26
9843.00,1.26
9842.00,1.26
9841.00,1.26
9840.00,1.26
9839.00,1.25
9838.00,1.25
9837.00,1.25
9836.00,1.25
9835.00,1.25
9834.00,1.25
9833.00,1.25
9832.00,1.25
9831.00,1.25
9830.00,1.25
9829.00,1.25
9828.00,1.25
9827.00,1.25
9826.00,1.25
9825.00,1.25
9824.00,1.25
9823.00,1.25
9822.00,1.24
9821.00,1.24
9820.00,1.24
9819.00,1.24
9818.00,1.24
9817.00,1.24
9816.00,1.24
9815.00,1.24
9814.00,1.24
9813.00,1.24
9812.00,1.24
9811.00,1.24
9810.00,1.24
9809.00,1.24
9808.00,1.24
9807.00,1.24
9806.00,1.24
9805.00,1.24
9804.00,1.24
9803.00,1.24
9802.00,1.24
9801.00,1.24
9800.00,1.24
9799.00,1.24
9798.00,1.24
9797.00,1.25
9796.00,1.25
9795.00,1.25
9794.00,1.25
9793.00,1.25
9792.00,1.25
9791.00,1.25
9790.00,1.25
9789.00,1.25
9788.00,1.25
9787.00,1.25
9786.00,1.25
9785.00,1.25
9784.00,1.24
9783.00,1.24
9782.00,1.24
9781.00,1.24
9780.00,1.24
9779.00,1.24
9778.00,1.24
9777.00,1.24
9776.00,1.24
9775.00,1.24
9774.00,1.24
9773.00,1.24
9772.00,1.24
9771.00,1.24
9770.00,1.23
9769.00,1.23
9768.00,1.23
9767.00,1.23
9766.00,1.23
9765.00,1.23
9764.00,1.23
9763.00,1.23
9762.00,1.23
9761.00,1.23
9760.00,1.23
9759.00,1.23
9758.00,1.23
9757.00,1.23
9756.00,1.23
9755.00,1.23
9754.00,1.23
9753.00,1.23
9752.00,1.23
9751.00,1.23
9750.00,1.23
9749.00,1.23
9748.00,1.23
9747.00,1.23
9746.00,1.23
9745.00,1.22
9744.00,1.23
9743.00,1.23
9742.00,1.23
9741.00,1.23
9740.00,1.23
9739.00,1.23
9738.00,1.23
9737.00,1.23
9736.00,1.23
9735.00,1.23
9734.00,1.23
9733.00,1.23
9732.00,1.23
9731.00,1.24
9730.00,1.24
9729.00,1.24
9728.00,1.24
9727.00,1.24
9726.00,1.24
9725.00,1.24
9724.00,1.24
9723.00,1.24
9722.00,1.24
9721.00,1.24
9720.00,1.24
9719.00,1.24
9718.00,1.23
9717.00,1.23
9716.00,1.23
9715.00,1.23
9714.00,1.23
9713.00,1.23
9712.00,1.22
9711.00,1.22
9710.00,1.22
9709.00,1.22
9708.00,1.22
9707.00,1.22
9706.00,1.22
9705.00,1.22
9704.00,1.22
9703.00,1.22
9702.00,1.22
9701.00,1.22
9700.00,1.22
9699.00,1.22
9698.00,1.23
9697.00,1.23
9696.00,1.23
9695.00,1.23
9694.00,1.23
9693.00,1.24
9692.00,1.24
9691.00,1.24
9690.00,1.24
9689.00,1.25
9688.00,1.25
9687.00,1.25
9686.00,1.25
9685.00,1.25
9684.00,1.25
9683.00,1.25
9682.00,1.25
9681.00,1.25
9680.00,1.25
9679.00,1.24
9678.00,1.24
9677.00,1.24
9676.00,1.24
9675.00,1.24
9674.00,1.23
9673.00,1.23
9672.00,1.23
9671.00,1.23
9670.00,1.23
9669.00,1.23
9668.00,1.23
9667.00,1.23
9666.00,1.23
9665.00,1.23
9664.00,1.23
9663.00,1.23
9662.00,1.23
9661.00,1.23
9660.00,1.23
9659.00,1.23
9658.00,1.23
9657.00,1.24
9656.00,1.24
9655.00,1.24
9654.00,1.24
9653.00,1.24
9652.00,1.24
9651.00,1.24
9650.00,1.24
9649.00,1.24
9648.00,1.24
9647.00,1.25
9646.00,1.25
9645.00,1.25
9644.00,1.25
9643.00,1.25
9642.00,1.25
9641.00,1.25
9640.00,1.25
9639.00,1.25
9638.00,1.25
9637.00,1.25
9636.00,1.25
9635.00,1.25
9634.00,1.25
9633.00,1.25
9632.00,1.25
9631.00,1.25
9630.00,1.25
9629.00,1.25
9628.00,1.25
9627.00,1.25
9626.00,1.25
9625.00,1.25
9624.00,1.25
9623.00,1.25
9622.00,1.25
9621.00,1.25
9620.00,1.25
9619.00,1.25
9618.00,1.25
9617.00,1.25
9616.00,1.25
9615.00,1.25
9614.00,1.25
9613.00,1.25
9612.00,1.25
9611.00,1.25
9610.00,1.25
9609.00,1.25
9608.00,1.25
9607.00,1.25
9606.00,1.25
9605.00,1.25
9604.00,1.24
9603.00,1.24
9602.00,1.24
9601.00,1.24
9600.00,1.24
9599.00,1.24
9598.00,1.24
9597.00,1.24
9596.00,1.24
9595.00,1.23
9594.00,1.23
9593.00,1.23
9592.00,1.23
9591.00,1.23
9590.00,1.23
9589.00,1.23
9588.00,1.24
9587.00,1.24
9586.00,1.24
9585.00,1.24
9584.00,1.24
9583.00,1.24
9582.00,1.24
9581.00,1.24
9580.00,1.24
9579.00,1.24
9578.00,1.24
9577.00,1.24
9576.00,1.24
9575.00,1.24
9574.00,1.24
9573.00,1.24
9572.00,1.24
9571.00,1.24
9570.00,1.24
9569.00,1.24
9568.00,1.24
9567.00,1.24
9566.00,1.24
9565.00,1.24
9564.00,1.24
9563.00,1.24
9562.00,1.24
9561.00,1.24
9560.00,1.24
9559.00,1.23
9558.00,1.23
9557.00,1.23
9556.00,1.23
9555.00,1.23
9554.00,1.23
9553.00,1.23
9552.00,1.23
9551.00,1.23
9550.00,1.23
9549.00,1.23
9548.00,1.23
9547.00,1.23
9546.00,1.23
9545.00,1.22
9544.00,1.22
9543.00,1.22
9542.00,1.22
9541.00,1.22
9540.00,1.22
9539.00,1.22
9538.00,1.23
9537.00,1.23
9536.00,1.23
9535.00,1.23
9534.00,1.23
9533.00,1.23
9532.00,1.23
9531.00,1.23
9530.00,1.23
9529.00,1.23
9528.00,1.23
9527.00,1.23
9526.00,1.23
9525.00,1.23
9524.00,1.24
9523.00,1.24
9522.00,1.24
9521.00,1.24
9520.00,1.24
9519.00,1.24
9518.00,1.24
9517.00,1.24
9516.00,1.24
9515.00,1.24
9514.00,1.24
9513.00,1.24
9512.00,1.24
9511.00,1.24
9510.00,1.24
9509.00,1.24
9508.00,1.24
9507.00,1.24
9506.00,1.24
9505.00,1.24
9504.00,1.24
9503.00,1.24
9502.00,1.24
9501.00,1.24
9500.00,1.24
9499.00,1.24
9498.00,1.25
9497.00,1.25
9496.00,1.25
9495.00,1.25
9494.00,1.25
9493.00,1.25
9492.00,1.25
9491.00,1.25
9490.00,1.25
9489.00,1.25
9488.00,1.25
9487.00,1.25
9486.00,1.25
9485.00,1.25
9484.00,1.25
9483.00,1.25
9482.00,1.25
9481.00,1.25
9480.00,1.25
9479.00,1.25
9478.00,1.25
9477.00,1.25
9476.00,1.25
9475.00,1.25
9474.00,1.25
9473.00,1.25
9472.00,1.25
9471.00,1.25
9470.00,1.25
9469.00,1.25
9468.00,1.25
9467.00,1.25
9466.00,1.25
9465.00,1.25
9464.00,1.25
9463.00,1.25
9462.00,1.25
9461.00,1.25
9460.00,1.25
9459.00,1.25
9458.00,1.25
9457.00,1.25
9456.00,1.25
9455.00,1.25
9454.00,1.25
9453.00,1.25
9452.00,1.25
9451.00,1.25
9450.00,1.25
9449.00,1.25
9448.00,1.25
9447.00,1.25
9446.00,1.24
9445.00,1.24
9444.00,1.24
9443.00,1.24
9442.00,1.24
9441.00,1.23
9440.00,1.23
9439.00,1.23
9438.00,1.23
9437.00,1.22
9436.00,1.22
9435.00,1.22
9434.00,1.22
9433.00,1.22
9432.00,1.22
9431.00,1.22
9430.00,1.22
9429.00,1.22
9428.00,1.23
9427.00,1.23
9426.00,1.23
9425.00,1.23
9424.00,1.23
9423.00,1.24
9422.00,1.24
9421.00,1.24
9420.00,1.24
9419.00,1.24
9418.00,1.24
9417.00,1.24
9416.00,1.24
9415.00,1.24
9414.00,1.24
9413.00,1.25
9412.00,1.25
9411.00,1.25
9410.00,1.25
9409.00,1.24
9408.00,1.24
9407.00,1.24
9406.00,1.24
9405.00,1.24
9404.00,1.24
9403.00,1.24
9402.00,1.24
9401.00,1.24
9400.00,1.24
9399.00,1.24
9398.00,1.24
9397.00,1.24
9396.00,1.24
9395.00,1.24
9394.00,1.24
9393.00,1.24
9392.00,1.24
9391.00,1.24
9390.00,1.24
9389.00,1.24
9388.00,1.24
9387.00,1.24
9386.00,1.24
9385.00,1.24
9384.00,1.24
9383.00,1.24
9382.00,1.24
9381.00,1.24
9380.00,1.24
9379.00,1.24
9378.00,1.24
9377.00,1.24
9376.00,1.24
9375.00,1.24
9374.00,1.24
9373.00,1.24
9372.00,1.24
9371.00,1.24
9370.00,1.24
9369.00,1.24
9368.00,1.24
9367.00,1.24
9366.00,1.24
9365.00,1.24
9364.00,1.24
9363.00,1.25
9362.00,1.25
9361.00,1.25
9360.00,1.25
9359.00,1.25
9358.00,1.25
9357.00,1.25
9356.00,1.25
9355.00,1.25
9354.00,1.25
9353.00,1.25
9352.00,1.25
9351.00,1.25
9350.00,1.25
9349.00,1.25
9348.00,1.25
9347.00,1.25
9346.00,1.25
9345.00,1.25
9344.00,1.25
9343.00,1.25
9342.00,1.25
9341.00,1.25
9340.00,1.25
9339.00,1.25
9338.00,1.25
9337.00,1.24
9336.00,1.24
9335.00,1.24
9334.00,1.24
9333.00,1.24
9332.00,1.23
9331.00,1.23
9330.00,1.23
9329.00,1.23
9328.00,1.23
9327.00,1.23
9326.00,1.23
9325.00,1.23
9324.00,1.23
9323.00,1.23
9322.00,1.23
9321.00,1.23
9320.00,1.23
9319.00,1.23
9318.00,1.24
9317.00,1.24
9316.00,1.24
9315.00,1.24
9314.00,1.24
9313.00,1.24
9312.00,1.24
9311.00,1.24
9310.00,1.24
9309.00,1.24
9308.00,1.24
9307.00,1.24
9306.00,1.24
9305.00,1.24
9304.00,1.25
9303.00,1.25
9302.00,1.25
9301.00,1.25
9300.00,1.25
9299.00,1.25
9298.00,1.25
9297.00,1.25
9296.00,1.25
9295.00,1.26
9294.00,1.26
9293.00,1.26
9292.00,1.26
9291.00,1.26
9290.00,1.26
9289.00,1.26
9288.00,1.26
9287.00,1.26
9286.00,1.26
9285.00,1.26
9284.00,1.26
9283.00,1.26
9282.00,1.26
9281.00,1.26
9280.00,1.26
9279.00,1.26
9278.00,1.26
9277.00,1.26
9276.00,1.26
9275.00,1.26
9274.00,1.26
9273.00,1.26
9272.00,1.26
9271.00,1.26
9270.00,1.26
9269.00,1.26
9268.00,1.26
9267.00,1.26
9266.00,1.26
9265.00,1.26
9264.00,1.26
9263.00,1.26
9262.00,1.26
9261.00,1.26
9260.00,1.26
9259.00,1.26
9258.00,1.26
9257.00,1.26
9256.00,1.25
9255.00,1.25
9254.00,1.25
9253.00,1.25
9252.00,1.25
9251.00,1.25
9250.00,1.25
9249.00,1.25
9248.00,1.25
9247.00,1.25
9246.00,1.25
9245.00,1.25
9244.00,1.25
9243.00,1.25
9242.00,1.25
9241.00,1.25
9240.00,1.25
9239.00,1.25
9238.00,1.25
9237.00,1.25
9236.00,1.25
9235.00,1.24
9234.00,1.24
9233.00,1.24
9232.00,1.24
9231.00,1.24
9230.00,1.24
9229.00,1.24
9228.00,1.24
9227.00,1.24
9226.00,1.24
9225.00,1.24
9224.00,1.24
9223.00,1.23
9222.00,1.23
9221.00,1.23
9220.00,1.24
9219.00,1.24
9218.00,1.24
9217.00,1.24
9216.00,1.24
9215.00,1.24
9214.00,1.24
9213.00,1.24
9212.00,1.25
9211.00,1.25
9210.00,1.25
9209.00,1.25
9208.00,1.25
9207.00,1.25
9206.00,1.25
9205.00,1.26
9204.00,1.26
9203.00,1.26
9202.00,1.26
9201.00,1.26
9200.00,1.26
9199.00,1.26
9198.00,1.26
9197.00,1.26
9196.00,1.26
9195.00,1.26
9194.00,1.26
9193.00,1.26
9192.00,1.26
9191.00,1.26
9190.00,1.26
9189.00,1.26
9188.00,1.26
9187.00,1.26
9186.00,1.26
9185.00,1.26
9184.00,1.26
9183.00,1.26
9182.00,1.26
9181.00,1.26
9180.00,1.26
9179.00,1.26
9178.00,1.26
9177.00,1.26
9176.00,1.26
9175.00,1.26
9174.00,1.26
9173.00,1.26
9172.00,1.26
9171.00,1.26
9170.00,1.26
9169.00,1.26
9168.00,1.26
9167.00,1.26
9166.00,1.26
9165.00,1.26
9164.00,1.26
9163.00,1.26
9162.00,1.26
9161.00,1.26
9160.00,1.26
9159.00,1.26
9158.00,1.26
9157.00,1.26
9156.00,1.26
9155.00,1.26
9154.00,1.26
9153.00,1.25
9152.00,1.25
9151.00,1.25
9150.00,1.25
9149.00,1.25
9148.00,1.25
9147.00,1.25
9146.00,1.25
9145.00,1.25
9144.00,1.25
9143.00,1.25
9142.00,1.25
9141.00,1.25
9140.00,1.25
9139.00,1.25
9138.00,1.25
9137.00,1.25
9136.00,1.25
9135.00,1.25
9134.00,1.25
9133.00,1.25
9132.00,1.25
9131.00,1.25
9130.00,1.25
9129.00,1.25
9128.00,1.25
9127.00,1.25
9126.00,1.25
9125.00,1.25
9124.00,1.25
9123.00,1.24
9122.00,1.24
9121.00,1.24
9120.00,1.24
9119.00,1.24
9118.00,1.24
9117.00,1.24
9116.00,1.24
9115.00,1.24
9114.00,1.24
9113.00,1.24
9112.00,1.24
9111.00,1.24
9110.00,1.24
9109.00,1.24
9108.00,1.24
9107.00,1.25
9106.00,1.25
9105.00,1.25
9104.00,1.25
9103.00,1.25
9102.00,1.25
9101.00,1.25
9100.00,1.25
9099.00,1.25
9098.00,1.25
9097.00,1.25
9096.00,1.25
9095.00,1.25
9094.00,1.25
9093.00,1.25
9092.00,1.25
9091.00,1.25
9090.00,1.25
9089.00,1.25
9088.00,1.25
9087.00,1.25
9086.00,1.25
9085.00,1.25
9084.00,1.25
9083.00,1.25
9082.00,1.25
9081.00,1.25
9080.00,1.25
9079.00,1.25
9078.00,1.25
9077.00,1.25
9076.00,1.25
9075.00,1.25
9074.00,1.25
9073.00,1.24
9072.00,1.24
9071.00,1.24
9070.00,1.24
9069.00,1.24
9068.00,1.24
9067.00,1.24
9066.00,1.24
9065.00,1.24
9064.00,1.24
9063.00,1.24
9062.00,1.24
9061.00,1.24
9060.00,1.24
9059.00,1.24
9058.00,1.24
9057.00,1.24
9056.00,1.24
9055.00,1.24
9054.00,1.24
9053.00,1.24
9052.00,1.24
9051.00,1.24
9050.00,1.24
9049.00,1.24
9048.00,1.24
9047.00,1.24
9046.00,1.24
9045.00,1.24
9044.00,1.24
9043.00,1.24
9042.00,1.24
9041.00,1.24
9040.00,1.24
9039.00,1.24
9038.00,1.24
9037.00,1.24
9036.00,1.24
9035.00,1.24
9034.00,1.24
9033.00,1.24
9032.00,1.25
9031.00,1.25
9030.00,1.25
9029.00,1.25
9028.00,1.25
9027.00,1.25
9026.00,1.25
9025.00,1.25
9024.00,1.25
9023.00,1.25
9022.00,1.25
9021.00,1.25
9020.00,1.25
9019.00,1.25
9018.00,1.25
9017.00,1.25
9016.00,1.25
9015.00,1.25
9014.00,1.25
9013.00,1.25
9012.00,1.25
9011.00,1.25
9010.00,1.25
9009.00,1.25
9008.00,1.25
9007.00,1.25
9006.00,1.25
9005.00,1.25
9004.00,1.25
9003.00,1.25
9002.00,1.24
9001.00,1.24
9000.00,1.24
8999.00,1.24
8998.00,1.24
8997.00,1.24
8996.00,1.24
8995.00,1.24
8994.00,1.24
8993.00,1.24
8992.00,1.24
8991.00,1.24
8990.00,1.24
8989.00,1.24
8988.00,1.24
8987.00,1.24
8986.00,1.24
8985.00,1.24
8984.00,1.24
8983.00,1.24
8982.00,1.24
8981.00,1.24
8980.00,1.24
8979.00,1.24
8978.00,1.24
8977.00,1.24
8976.00,1.24
8975.00,1.24
8974.00,1.24
8973.00,1.24
8972.00,1.24
8971.00,1.24
8970.00,1.23
8969.00,1.23
8968.00,1.23
8967.00,1.23
8966.00,1.23
8965.00,1.23
8964.00,1.23
8963.00,1.23
8962.00,1.23
8961.00,1.23
8960.00,1.24
8959.00,1.24
8958.00,1.24
8957.00,1.24
8956.00,1.24
8955.00,1.24
8954.00,1.24
8953.00,1.24
8952.00,1.24
8951.00,1.24
8950.00,1.24
8949.00,1.24
8948.00,1.24
8947.00,1.24
8946.00,1.24
8945.00,1.24
8944.00,1.24
8943.00,1.24
8942.00,1.24
8941.00,1.24
8940.00,1.24
8939.00,1.24
8938.00,1.24
8937.00,1.24
8936.00,1.24
8935.00,1.24
8934.00,1.24
8933.00,1.24
8932.00,1.24
8931.00,1.24
8930.00,1.25
8929.00,1.25
8928.00,1.25
8927.00,1.25
8926.00,1.25
8925.00,1.25
8924.00,1.26
8923.00,1.26
8922.00,1.26
8921.00,1.26
8920.00,1.26
8919.00,1.26
8918.00,1.26
8917.00,1.26
8916.00,1.26
8915.00,1.26
8914.00,1.26
8913.00,1.26
8912.00,1.26
8911.00,1.26
8910.00,1.26
8909.00,1.25
8908.00,1.25
8907.00,1.25
8906.00,1.25
8905.00,1.25
8904.00,1.24
8903.00,1.24
8902.00,1.24
8901.00,1.24
8900.00,1.24
8899.00,1.23
8898.00,1.23
8897.00,1.23
8896.00,1.23
8895.00,1.23
8894.00,1.23
8893.00,1.23
8892.00,1.23
8891.00,1.23
8890.00,1.23
8889.00,1.23
8888.00,1.23
8887.00,1.23
8886.00,1.23
8885.00,1.23
8884.00,1.23
8883.00,1.23
8882.00,1.23
8881.00,1.23
8880.00,1.23
8879.00,1.24
8878.00,1.24
8877.00,1.24
8876.00,1.24
8875.00,1.24
8874.00,1.24
8873.00,1.24
8872.00,1.24
8871.00,1.24
8870.00,1.24
8869.00,1.24
8868.00,1.24
8867.00,1.24
8866.00,1.24
8865.00,1.24
8864.00,1.24
8863.00,1.24
8862.00,1.24
8861.00,1.24
8860.00,1.24
8859.00,1.24
8858.00,1.24
8857.00,1.24
8856.00,1.24
8855.00,1.24
8854.00,1.24
8853.00,1.24
8852.00,1.24
8851.00,1.24
8850.00,1.24
8849.00,1.24
8848.00,1.24
8847.00,1.24
8846.00,1.24
8845.00,1.24
8844.00,1.24
8843.00,1.24
8842.00,1.24
8841.00,1.24
8840.00,1.24
8839.00,1.24
8838.00,1.24
8837.00,1.24
8836.00,1.24
8835.00,1.24
8834.00,1.24
8833.00,1.24
8832.00,1.24
8831.00,1.24
8830.00,1.23
8829.00,1.23
8828.00,1.23
8827.00,1.23
8826.00,1.23
8825.00,1.23
8824.00,1.22
8823.00,1.22
8822.00,1.22
8821.00,1.22
8820.00,1.22
8819.00,1.22
8818.00,1.22
8817.00,1.22
8816.00,1.21
8815.00,1.21
8814.00,1.21
8813.00,1.21
8812.00,1.21
8811.00,1.21
8810.00,1.21
8809.00,1.22
8808.00,1.22
8807.00,1.22
8806.00,1.22
8805.00,1.22
8804.00,1.22
8803.00,1.22
8802.00,1.22
8801.00,1.22
8800.00,1.22
8799.00,1.22
8798.00,1.22
8797.00,1.22
8796.00,1.22
8795.00,1.22
8794.00,1.22
8793.00,1.22
8792.00,1.22
8791.00,1.22
8790.00,1.22
8789.00,1.22
8788.00,1.22
8787.00,1.22
8786.00,1.22
8785.00,1.22
8784.00,1.22
8783.00,1.22
8782.00,1.22
8781.00,1.22
8780.00,1.22
8779.00,1.22
8778.00,1.22
8777.00,1.22
8776.00,1.22
8775.00,1.22
8774.00,1.22
8773.00,1.22
8772.00,1.22
8771.00,1.22
8770.00,1.22
8769.00,1.21
8768.00,1.21
8767.00,1.21
8766.00,1.21
8765.00,1.21
8764.00,1.21
8763.00,1.21
8762.00,1.21
8761.00,1.21
8760.00,1.21
8759.00,1.20
8758.00,1.20
8757.00,1.20
8756.00,1.20
8755.00,1.20
8754.00,1.20
8753.00,1.20
8752.00,1.20
8751.00,1.20
8750.00,1.20
8749.00,1.21
8748.00,1.21
8747.00,1.21
8746.00,1.21
8745.00,1.21
8744.00,1.21
8743.00,1.21
8742.00,1.21
8741.00,1.21
8740.00,1.21
8739.00,1.21
8738.00,1.21
8737.00,1.21
8736.00,1.21
8735.00,1.21
8734.00,1.21
8733.00,1.21
8732.00,1.21
8731.00,1.21
8730.00,1.21
8729.00,1.20
8728.00,1.20
8727.00,1.20
8726.00,1.20
8725.00,1.20
8724.00,1.20
8723.00,1.20
8722.00,1.20
8721.00,1.20
8720.00,1.19
8719.00,1.19
8718.00,1.19
8717.00,1.19
8716.00,1.19
8715.00,1.19
8714.00,1.19
8713.00,1.19
8712.00,1.19
8711.00,1.19
8710.00,1.19
8709.00,1.19
8708.00,1.19
8707.00,1.19
8706.00,1.19
8705.00,1.19
8704.00,1.19
8703.00,1.19
8702.00,1.19
8701.00,1.19
8700.00,1.19
8699.00,1.19
8698.00,1.19
8697.00,1.19
8696.00,1.19
8695.00,1.19
8694.00,1.19
8693.00,1.20
8692.00,1.20
8691.00,1.20
8690.00,1.19
8689.00,1.19
8688.00,1.19
8687.00,1.19
8686.00,1.19
8685.00,1.19
8684.00,1.19
8683.00,1.19
8682.00,1.19
8681.00,1.19
8680.00,1.18
8679.00,1.18
8678.00,1.18
8677.00,1.18
8676.00,1.18
8675.00,1.18
8674.00,1.18
8673.00,1.18
8672.00,1.18
8671.00,1.18
8670.00,1.18
8669.00,1.18
8668.00,1.18
8667.00,1.18
8666.00,1.18
8665.00,1.18
8664.00,1.19
8663.00,1.19
8662.00,1.19
8661.00,1.19
8660.00,1.19
8659.00,1.19
8658.00,1.19
8657.00,1.19
8656.00,1.19
8655.00,1.20
8654.00,1.20
8653.00,1.20
8652.00,1.20
8651.00,1.20
8650.00,1.20
8649.00,1.20
8648.00,1.20
8647.00,1.20
8646.00,1.20
8645.00,1.20
8644.00,1.20
8643.00,1.19
8642.00,1.19
8641.00,1.19
8640.00,1.19
8639.00,1.19
8638.00,1.18
8637.00,1.18
8636.00,1.18
8635.00,1.18
8634.00,1.18
8633.00,1.18
8632.00,1.18
8631.00,1.18
8630.00,1.18
8629.00,1.18
8628.00,1.18
8627.00,1.18
8626.00,1.18
8625.00,1.18
8624.00,1.18
8623.00,1.18
8622.00,1.18
8621.00,1.18
8620.00,1.18
8619.00,1.18
8618.00,1.18
8617.00,1.18
8616.00,1.18
8615.00,1.18
8614.00,1.18
8613.00,1.18
8612.00,1.18
8611.00,1.18
8610.00,1.18
8609.00,1.18
8608.00,1.18
8607.00,1.18
8606.00,1.17
8605.00,1.17
8604.00,1.17
8603.00,1.17
8602.00,1.17
8601.00,1.17
8600.00,1.17
8599.00,1.17
8598.00,1.17
8597.00,1.17
8596.00,1.17
8595.00,1.17
8594.00,1.17
8593.00,1.17
8592.00,1.17
8591.00,1.17
8590.00,1.16
8589.00,1.16
8588.00,1.16
8587.00,1.16
8586.00,1.16
8585.00,1.16
8584.00,1.16
8583.00,1.16
8582.00,1.16
8581.00,1.16
8580.00,1.16
8579.00,1.15
8578.00,1.15
8577.00,1.15
8576.00,1.15
8575.00,1.15
8574.00,1.15
8573.00,1.15
8572.00,1.15
8571.00,1.15
8570.00,1.15
8569.00,1.15
8568.00,1.15
8567.00,1.15
8566.00,1.15
8565.00,1.15
8564.00,1.15
8563.00,1.16
8562.00,1.16
8561.00,1.16
8560.00,1.16
8559.00,1.16
8558.00,1.16
8557.00,1.16
8556.00,1.16
8555.00,1.16
8554.00,1.16
8553.00,1.16
8552.00,1.15
8551.00,1.15
8550.00,1.15
8549.00,1.15
8548.00,1.15
8547.00,1.15
8546.00,1.15
8545.00,1.14
8544.00,1.14
8543.00,1.14
8542.00,1.14
8541.00,1.14
8540.00,1.14
8539.00,1.14
8538.00,1.14
8537.00,1.14
8536.00,1.14
8535.00,1.13
8534.00,1.13
8533.00,1.13
8532.00,1.13
8531.00,1.13
8530.00,1.13
8529.00,1.13
8528.00,1.13
8527.00,1.14
8526.00,1.14
8525.00,1.14
8524.00,1.14
8523.00,1.14
8522.00,1.14
8521.00,1.14
8520.00,1.14
8519.00,1.14
8518.00,1.14
8517.00,1.14
8516.00,1.14
8515.00,1.14
8514.00,1.14
8513.00,1.14
8512.00,1.14
8511.00,1.14
8510.00,1.14
8509.00,1.14
8508.00,1.14
8507.00,1.14
8506.00,1.14
8505.00,1.14
8504.00,1.14
8503.00,1.14
8502.00,1.14
8501.00,1.14
8500.00,1.14
8499.00,1.14
8498.00,1.14
8497.00,1.14
8496.00,1.14
8495.00,1.14
8494.00,1.14
8493.00,1.14
8492.00,1.14
8491.00,1.14
8490.00,1.14
8489.00,1.14
8488.00,1.14
8487.00,1.14
8486.00,1.14
8485.00,1.14
8484.00,1.14
8483.00,1.14
8482.00,1.14
8481.00,1.14
8480.00,1.14
8479.00,1.14
8478.00,1.14
8477.00,1.14
8476.00,1.13
8475.00,1.13
8474.00,1.13
8473.00,1.13
8472.00,1.13
8471.00,1.13
8470.00,1.13
8469.00,1.12
8468.00,1.12
8467.00,1.12
8466.00,1.12
8465.00,1.12
8464.00,1.11
8463.00,1.11
8462.00,1.11
8461.00,1.11
8460.00,1.11
8459.00,1.11
8458.00,1.11
8457.00,1.10
8456.00,1.10
8455.00,1.10
8454.00,1.10
8453.00,1.10
8452.00,1.10
8451.00,1.10
8450.00,1.10
8449.00,1.10
8448.00,1.10
8447.00,1.10
8446.00,1.10
8445.00,1.10
8444.00,1.10
8443.00,1.10
8442.00,1.10
8441.00,1.10
8440.00,1.10
8439.00,1.10
8438.00,1.10
8437.00,1.10
8436.00,1.10
8435.00,1.10
8434.00,1.10
8433.00,1.10
8432.00,1.10
8431.00,1.10
8430.00,1.10
8429.00,1.10
8428.00,1.10
8427.00,1.10
8426.00,1.10
8425.00,1.10
8424.00,1.10
8423.00,1.10
8422.00,1.10
8421.00,1.10
8420.00,1.10
8419.00,1.10
8418.00,1.10
8417.00,1.10
8416.00,1.10
8415.00,1.10
8414.00,1.10
8413.00,1.10
8412.00,1.11
8411.00,1.11
8410.00,1.11
8409.00,1.11
8408.00,1.11
8407.00,1.11
8406.00,1.11
8405.00,1.11
8404.00,1.12
8403.00,1.12
8402.00,1.12
8401.00,1.12
8400.00,1.12
8399.00,1.12
8398.00,1.12
8397.00,1.12
8396.00,1.12
8395.00,1.13
8394.00,1.13
8393.00,1.13
8392.00,1.13
8391.00,1.13
8390.00,1.13
8389.00,1.13
8388.00,1.13
8387.00,1.13
8386.00,1.13
8385.00,1.13
8384.00,1.13
8383.00,1.13
8382.00,1.13
8381.00,1.13
8380.00,1.13
8379.00,1.13
8378.00,1.13
8377.00,1.13
8376.00,1.14
8375.00,1.14
8374.00,1.14
8373.00,1.14
8372.00,1.14
8371.00,1.14
8370.00,1.14
8369.00,1.14
8368.00,1.14
8367.00,1.14
8366.00,1.14
8365.00,1.14
8364.00,1.14
8363.00,1.14
8362.00,1.14
8361.00,1.14
8360.00,1.14
8359.00,1.14
8358.00,1.14
8357.00,1.14
8356.00,1.14
8355.00,1.14
8354.00,1.14
8353.00,1.14
8352.00,1.14
8351.00,1.14
8350.00,1.14
8349.00,1.14
8348.00,1.14
8347.00,1.14
8346.00,1.14
8345.00,1.14
8344.00,1.14
8343.00,1.14
8342.00,1.14
8341.00,1.14
8340.00,1.14
8339.00,1.14
8338.00,1.14
8337.00,1.14
8336.00,1.14
8335.00,1.14
8334.00,1.14
8333.00,1.14
8332.00,1.14
8331.00,1.14
8330.00,1.14
8329.00,1.14
8328.00,1.14
8327.00,1.14
8326.00,1.14
8325.00,1.14
8324.00,1.14
8323.00,1.14
8322.00,1.14
8321.00,1.14
8320.00,1.14
8319.00,1.14
8318.00,1.14
8317.00,1.14
8316.00,1.15
8315.00,1.15
8314.00,1.15
8313.00,1.15
8312.00,1.15
8311.00,1.15
8310.00,1.15
8309.00,1.15
8308.00,1.15
8307.00,1.15
8306.00,1.15
8305.00,1.15
8304.00,1.15
8303.00,1.15
8302.00,1.15
8301.00,1.16
8300.00,1.16
8299.00,1.16
8298.00,1.16
8297.00,1.16
8296.00,1.16
8295.00,1.16
8294.00,1.16
8293.00,1.16
8292.00,1.16
8291.00,1.16
8290.00,1.16
8289.00,1.16
8288.00,1.16
8287.00,1.16
8286.00,1.16
8285.00,1.16
8284.00,1.15
8283.00,1.15
8282.00,1.15
8281.00,1.15
8280.00,1.15
8279.00,1.15
8278.00,1.15
8277.00,1.15
8276.00,1.15
8275.00,1.15
8274.00,1.15
8273.00,1.15
8272.00,1.15
8271.00,1.15
8270.00,1.15
8269.00,1.15
8268.00,1.15
8267.00,1.15
8266.00,1.15
8265.00,1.15
8264.00,1.15
8263.00,1.15
8262.00,1.16
8261.00,1.16
8260.00,1.16
8259.00,1.16
8258.00,1.16
8257.00,1.16
8256.00,1.16
8255.00,1.17
8254.00,1.17
8253.00,1.17
8252.00,1.17
8251.00,1.17
8250.00,1.17
8249.00,1.17
8248.00,1.17
8247.00,1.17
8246.00,1.17
8245.00,1.17
8244.00,1.17
8243.00,1.17
8242.00,1.17
8241.00,1.17
8240.00,1.17
8239.00,1.17
8238.00,1.16
8237.00,1.16
8236.00,1.16
8235.00,1.16
8234.00,1.16
8233.00,1.16
8232.00,1.16
8231.00,1.16
8230.00,1.16
8229.00,1.16
8228.00,1.16
8227.00,1.16
8226.00,1.16
8225.00,1.16
8224.00,1.17
8223.00,1.17
8222.00,1.17
8221.00,1.17
8220.00,1.17
8219.00,1.17
8218.00,1.18
8217.00,1.18
8216.00,1.18
8215.00,1.18
8214.00,1.18
8213.00,1.18
8212.00,1.18
8211.00,1.18
8210.00,1.18
8209.00,1.18
8208.00,1.18
8207.00,1.18
8206.00,1.18
8205.00,1.18
8204.00,1.18
8203.00,1.18
8202.00,1.18
8201.00,1.18
8200.00,1.18
8199.00,1.18
8198.00,1.18
8197.00,1.18
8196.00,1.18
8195.00,1.18
8194.00,1.18
8193.00,1.18
8192.00,1.18
8191.00,1.18
8190.00,1.19
8189.00,1.19
8188.00,1.19
8187.00,1.19
8186.00,1.19
8185.00,1.19
8184.00,1.19
8183.00,1.19
8182.00,1.19
8181.00,1.19
8180.00,1.19
8179.00,1.19
8178.00,1.19
8177.00,1.19
8176.00,1.19
8175.00,1.19
8174.00,1.19
8173.00,1.19
8172.00,1.19
8171.00,1.19
8170.00,1.18
8169.00,1.18
8168.00,1.18
8167.00,1.18
8166.00,1.18
8165.00,1.18
8164.00,1.18
8163.00,1.18
8162.00,1.18
8161.00,1.18
8160.00,1.18
8159.00,1.18
8158.00,1.18
8157.00,1.18
8156.00,1.18
8155.00,1.18
8154.00,1.18
8153.00,1.18
8152.00,1.18
8151.00,1.18
8150.00,1.18
8149.00,1.18
8148.00,1.19
8147.00,1.19
8146.00,1.19
8145.00,1.19
8144.00,1.19
8143.00,1.19
8142.00,1.19
8141.00,1.19
8140.00,1.20
8139.00,1.20
8138.00,1.20
8137.00,1.20
8136.00,1.20
8135.00,1.20
8134.00,1.20
8133.00,1.20
8132.00,1.20
8131.00,1.20
8130.00,1.20
8129.00,1.20
8128.00,1.20
8127.00,1.19
8126.00,1.19
8125.00,1.19
8124.00,1.19
8123.00,1.19
8122.00,1.19
8121.00,1.19
8120.00,1.19
8119.00,1.19
8118.00,1.19
8117.00,1.19
8116.00,1.19
8115.00,1.19
8114.00,1.19
8113.00,1.19
8112.00,1.19
8111.00,1.19
8110.00,1.20
8109.00,1.20
8108.00,1.20
8107.00,1.20
8106.00,1.20
8105.00,1.20
8104.00,1.20
8103.00,1.20
8102.00,1.20
8101.00,1.20
8100.00,1.20
8099.00,1.20
8098.00,1.20
8097.00,1.20
8096.00,1.20
8095.00,1.20
8094.00,1.20
8093.00,1.20
8092.00,1.20
8091.00,1.20
8090.00,1.20
8089.00,1.20
8088.00,1.20
8087.00,1.20
8086.00,1.20
8085.00,1.21
8084.00,1.21
8083.00,1.21
8082.00,1.21
8081.00,1.21
8080.00,1.21
8079.00,1.21
8078.00,1.21
8077.00,1.21
8076.00,1.21
8075.00,1.21
8074.00,1.21
8073.00,1.22
8072.00,1.22
8071.00,1.22
8070.00,1.22
8069.00,1.22
8068.00,1.22
8067.00,1.22
8066.00,1.22
8065.00,1.22
8064.00,1.22
8063.00,1.22
8062.00,1.22
8061.00,1.22
8060.00,1.22
8059.00,1.22
8058.00,1.22
8057.00,1.22
8056.00,1.22
8055.00,1.22
8054.00,1.22
8053.00,1.22
8052.00,1.22
8051.00,1.22
8050.00,1.22
8049.00,1.22
8048.00,1.22
8047.00,1.23
8046.00,1.23
8045.00,1.23
8044.00,1.23
8043.00,1.23
8042.00,1.23
8041.00,1.23
8040.00,1.23
8039.00,1.23
8038.00,1.23
8037.00,1.23
8036.00,1.23
8035.00,1.23
8034.00,1.23
8033.00,1.23
8032.00,1.23
8031.00,1.23
8030.00,1.22
8029.00,1.22
8028.00,1.22
8027.00,1.22
8026.00,1.22
8025.00,1.22
8024.00,1.22
8023.00,1.22
8022.00,1.21
8021.00,1.21
8020.00,1.21
8019.00,1.21
8018.00,1.21
8017.00,1.21
8016.00,1.21
8015.00,1.21
8014.00,1.21
8013.00,1.21
8012.00,1.21
8011.00,1.22
8010.00,1.22
8009.00,1.22
8008.00,1.22
8007.00,1.22
8006.00,1.22
8005.00,1.22
8004.00,1.22
8003.00,1.22
8002.00,1.23
8001.00,1.23
8000.00,1.23
7999.00,1.23
7998.00,1.23
7997.00,1.23
7996.00,1.23
7995.00,1.23
7994.00,1.23
7993.00,1.23
7992.00,1.23
7991.00,1.23
7990.00,1.23
7989.00,1.23
7988.00,1.23
7987.00,1.23
7986.00,1.23
7985.00,1.23
7984.00,1.23
7983.00,1.23
7982.00,1.23
7981.00,1.23
7980.00,1.23
7979.00,1.23
7978.00,1.23
7977.00,1.23
7976.00,1.23
7975.00,1.23
7974.00,1.23
7973.00,1.23
7972.00,1.23
7971.00,1.23
7970.00,1.23
7969.00,1.23
7968.00,1.23
7967.00,1.23
7966.00,1.23
7965.00,1.23
7964.00,1.23
7963.00,1.23
7962.00,1.23
7961.00,1.23
7960.00,1.23
7959.00,1.23
7958.00,1.23
7957.00,1.23
7956.00,1.23
7955.00,1.23
7954.00,1.23
7953.00,1.23
7952.00,1.23
7951.00,1.23
7950.00,1.23
7949.00,1.23
7948.00,1.23
7947.00,1.23
7946.00,1.23
7945.00,1.23
7944.00,1.24
7943.00,1.24
7942.00,1.24
7941.00,1.24
7940.00,1.24
7939.00,1.24
7938.00,1.24
7937.00,1.24
7936.00,1.24
7935.00,1.24
7934.00,1.24
7933.00,1.24
7932.00,1.24
7931.00,1.24
7930.00,1.24
7929.00,1.24
7928.00,1.24
7927.00,1.23
7926.00,1.23
7925.00,1.23
7924.00,1.23
7923.00,1.23
7922.00,1.23
7921.00,1.23
7920.00,1.23
7919.00,1.23
7918.00,1.23
7917.00,1.23
7916.00,1.23
7915.00,1.23
7914.00,1.23
7913.00,1.23
7912.00,1.23
7911.00,1.23
7910.00,1.23
7909.00,1.24
7908.00,1.24
7907.00,1.24
7906.00,1.24
7905.00,1.24
7904.00,1.24
7903.00,1.24
7902.00,1.24
7901.00,1.24
7900.00,1.24
7899.00,1.24
7898.00,1.24
7897.00,1.24
7896.00,1.25
7895.00,1.25
7894.00,1.25
7893.00,1.25
7892.00,1.25
7891.00,1.25
7890.00,1.25
7889.00,1.25
7888.00,1.25
7887.00,1.25
7886.00,1.25
7885.00,1.25
7884.00,1.25
7883.00,1.25
7882.00,1.25
7881.00,1.25
7880.00,1.25
7879.00,1.25
7878.00,1.25
7877.00,1.25
7876.00,1.25
7875.00,1.25
7874.00,1.25
7873.00,1.25
7872.00,1.25
7871.00,1.25
7870.00,1.25
7869.00,1.25
7868.00,1.25
7867.00,1.25
7866.00,1.25
7865.00,1.25
7864.00,1.24
7863.00,1.24
7862.00,1.24
7861.00,1.24
7860.00,1.24
7859.00,1.24
7858.00,1.24
7857.00,1.24
7856.00,1.24
7855.00,1.24
7854.00,1.24
7853.00,1.24
7852.00,1.24
7851.00,1.24
7850.00,1.24
7849.00,1.24
7848.00,1.24
7847.00,1.24
7846.00,1.24
7845.00,1.24
7844.00,1.24
7843.00,1.24
7842.00,1.25
7841.00,1.25
7840.00,1.25
7839.00,1.25
7838.00,1.25
7837.00,1.25
7836.00,1.25
7835.00,1.25
7834.00,1.25
7833.00,1.25
7832.00,1.25
7831.00,1.25
7830.00,1.25
7829.00,1.25
7828.00,1.25
7827.00,1.25
7826.00,1.25
7825.00,1.25
7824.00,1.25
7823.00,1.25
7822.00,1.25
7821.00,1.24
7820.00,1.24
7819.00,1.24
7818.00,1.24
7817.00,1.24
7816.00,1.24
7815.00,1.24
7814.00,1.24
7813.00,1.24
7812.00,1.24
7811.00,1.24
7810.00,1.24
7809.00,1.24
7808.00,1.24
7807.00,1.24
7806.00,1.24
7805.00,1.24
7804.00,1.24
7803.00,1.25
7802.00,1.25
7801.00,1.25
7800.00,1.25
7799.00,1.25
7798.00,1.25
7797.00,1.25
7796.00,1.25
7795.00,1.25
7794.00,1.25
7793.00,1.25
7792.00,1.25
7791.00,1.25
7790.00,1.25
7789.00,1.25
7788.00,1.25
7787.00,1.25
7786.00,1.25
7785.00,1.25
7784.00,1.25
7783.00,1.25
7782.00,1.25
7781.00,1.25
7780.00,1.25
7779.00,1.25
7778.00,1.25
7777.00,1.25
7776.00,1.25
7775.00,1.25
7774.00,1.25
7773.00,1.25
7772.00,1.25
7771.00,1.25
7770.00,1.25
7769.00,1.25
7768.00,1.25
7767.00,1.25
7766.00,1.25
7765.00,1.25
7764.00,1.25
7763.00,1.25
7762.00,1.25
7761.00,1.25
7760.00,1.25
7759.00,1.26
7758.00,1.26
7757.00,1.26
7756.00,1.26
7755.00,1.26
7754.00,1.26
7753.00,1.26
7752.00,1.26
7751.00,1.26
7750.00,1.26
7749.00,1.26
7748.00,1.26
7747.00,1.26
7746.00,1.26
7745.00,1.26
7744.00,1.26
7743.00,1.26
7742.00,1.26
7741.00,1.26
7740.00,1.26
7739.00,1.26
7738.00,1.26
7737.00,1.26
7736.00,1.26
7735.00,1.26
7734.00,1.26
7733.00,1.26
7732.00,1.26
7731.00,1.26
7730.00,1.26
7729.00,1.26
7728.00,1.26
7727.00,1.26
7726.00,1.25
7725.00,1.25
7724.00,1.25
7723.00,1.25
7722.00,1.25
7721.00,1.25
7720.00,1.25
7719.00,1.25
7718.00,1.25
7717.00,1.25
7716.00,1.25
7715.00,1.25
7714.00,1.25
7713.00,1.25
7712.00,1.25
7711.00,1.26
7710.00,1.26
7709.00,1.26
7708.00,1.26
7707.00,1.26
7706.00,1.26
7705.00,1.26
7704.00,1.26
7703.00,1.26
7702.00,1.26
7701.00,1.26
7700.00,1.26
7699.00,1.26
7698.00,1.26
7697.00,1.26
7696.00,1.26
7695.00,1.26
7694.00,1.26
7693.00,1.26
7692.00,1.26
7691.00,1.25
7690.00,1.25
7689.00,1.25
7688.00,1.25
7687.00,1.25
7686.00,1.25
7685.00,1.25
7684.00,1.26
7683.00,1.26
7682.00,1.26
7681.00,1.26
7680.00,1.26
7679.00,1.26
7678.00,1.26
7677.00,1.26
7676.00,1.26
7675.00,1.26
7674.00,1.26
7673.00,1.26
7672.00,1.26
7671.00,1.26
7670.00,1.26
7669.00,1.26
7668.00,1.26
7667.00,1.26
7666.00,1.26
7665.00,1.26
7664.00,1.26
7663.00,1.26
7662.00,1.26
7661.00,1.26
7660.00,1.26
7659.00,1.26
7658.00,1.26
7657.00,1.26
7656.00,1.26
7655.00,1.26
7654.00,1.26
7653.00,1.26
7652.00,1.26
7651.00,1.25
7650.00,1.25
7649.00,1.25
7648.00,1.25
7647.00,1.25
7646.00,1.25
7645.00,1.25
7644.00,1.25
7643.00,1.25
7642.00,1.25
7641.00,1.25
7640.00,1.25
7639.00,1.25
7638.00,1.25
7637.00,1.25
7636.00,1.25
7635.00,1.25
7634.00,1.25
7633.00,1.25
7632.00,1.25
7631.00,1.25
7630.00,1.25
7629.00,1.25
7628.00,1.25
7627.00,1.25
7626.00,1.25
7625.00,1.25
7624.00,1.25
7623.00,1.25
7622.00,1.25
7621.00,1.25
7620.00,1.25
7619.00,1.25
7618.00,1.25
7617.00,1.25
7616.00,1.25
7615.00,1.25
7614.00,1.25
7613.00,1.26
7612.00,1.26
7611.00,1.26
7610.00,1.26
7609.00,1.26
7608.00,1.26
7607.00,1.26
7606.00,1.26
7605.00,1.26
7604.00,1.26
7603.00,1.26
7602.00,1.26
7601.00,1.26
7600.00,1.26
7599.00,1.26
7598.00,1.26
7597.00,1.26
7596.00,1.26
7595.00,1.26
7594.00,1.26
7593.00,1.26
7592.00,1.26
7591.00,1.26
7590.00,1.26
7589.00,1.26
7588.00,1.26
7587.00,1.26
7586.00,1.26
7585.00,1.25
7584.00,1.25
7583.00,1.25
7582.00,1.25
7581.00,1.25
7580.00,1.25
7579.00,1.25
7578.00,1.25
7577.00,1.25
7576.00,1.25
7575.00,1.25
7574.00,1.25
7573.00,1.25
7572.00,1.25
7571.00,1.25
7570.00,1.25
7569.00,1.25
7568.00,1.25
7567.00,1.25
7566.00,1.25
7565.00,1.25
7564.00,1.25
7563.00,1.25
7562.00,1.25
7561.00,1.25
7560.00,1.25
7559.00,1.25
7558.00,1.25
7557.00,1.25
7556.00,1.25
7555.00,1.25
7554.00,1.25
7553.00,1.25
7552.00,1.25
7551.00,1.25
7550.00,1.25
7549.00,1.25
7548.00,1.25
7547.00,1.25
7546.00,1.25
7545.00,1.25
7544.00,1.25
7543.00,1.25
7542.00,1.25
7541.00,1.25
7540.00,1.25
7539.00,1.25
7538.00,1.25
7537.00,1.25
7536.00,1.25
7535.00,1.25
7534.00,1.25
7533.00,1.25
7532.00,1.25
7531.00,1.25
7530.00,1.25
7529.00,1.24
7528.00,1.24
7527.00,1.24
7526.00,1.24
7525.00,1.24
7524.00,1.24
7523.00,1.24
7522.00,1.24
7521.00,1.24
7520.00,1.24
7519.00,1.24
7518.00,1.24
7517.00,1.24
7516.00,1.24
7515.00,1.24
7514.00,1.24
7513.00,1.24
7512.00,1.24
7511.00,1.24
7510.00,1.24
7509.00,1.24
7508.00,1.24
7507.00,1.24
7506.00,1.24
7505.00,1.23
7504.00,1.23
7503.00,1.23
7502.00,1.23
7501.00,1.23
7500.00,1.23
7499.00,1.23
7498.00,1.23
7497.00,1.23
7496.00,1.23
7495.00,1.22
7494.00,1.22
7493.00,1.22
7492.00,1.22
7491.00,1.22
7490.00,1.22
7489.00,1.22
7488.00,1.22
7487.00,1.22
7486.00,1.22
7485.00,1.22
7484.00,1.22
7483.00,1.22
7482.00,1.22
7481.00,1.22
7480.00,1.22
7479.00,1.22
7478.00,1.22
7477.00,1.22
7476.00,1.22
7475.00,1.22
7474.00,1.22
7473.00,1.22
7472.00,1.22
7471.00,1.22
7470.00,1.22
7469.00,1.22
7468.00,1.22
7467.00,1.22
7466.00,1.22
7465.00,1.22
7464.00,1.22
7463.00,1.21
7462.00,1.21
7461.00,1.21
7460.00,1.21
7459.00,1.21
7458.00,1.21
7457.00,1.21
7456.00,1.21
7455.00,1.21
7454.00,1.21
7453.00,1.21
7452.00,1.21
7451.00,1.21
7450.00,1.21
7449.00,1.21
7448.00,1.21
7447.00,1.21
7446.00,1.21
7445.00,1.21
7444.00,1.21
7443.00,1.21
7442.00,1.21
7441.00,1.21
7440.00,1.21
7439.00,1.21
7438.00,1.21
7437.00,1.21
7436.00,1.21
7435.00,1.21
7434.00,1.21
7433.00,1.21
7432.00,1.21
7431.00,1.21
7430.00,1.21
7429.00,1.21
7428.00,1.20
7427.00,1.20
7426.00,1.20
7425.00,1.20
7424.00,1.20
7423.00,1.20
7422.00,1.20
7421.00,1.20
7420.00,1.20
7419.00,1.20
7418.00,1.19
7417.00,1.19
7416.00,1.19
7415.00,1.19
7414.00,1.19
7413.00,1.19
7412.00,1.19
7411.00,1.19
7410.00,1.18
7409.00,1.18
7408.00,1.18
7407.00,1.18
7406.00,1.18
7405.00,1.18
7404.00,1.18
7403.00,1.18
7402.00,1.18
7401.00,1.18
7400.00,1.17
7399.00,1.17
7398.00,1.17
7397.00,1.17
7396.00,1.17
7395.00,1.17
7394.00,1.17
7393.00,1.17
7392.00,1.17
7391.00,1.17
7390.00,1.17
7389.00,1.17
7388.00,1.16
7387.00,1.16
7386.00,1.16
7385.00,1.16
7384.00,1.16
7383.00,1.16
7382.00,1.16
7381.00,1.16
7380.00,1.16
7379.00,1.16
7378.00,1.16
7377.00,1.16
7376.00,1.16
7375.00,1.15
7374.00,1.15
7373.00,1.15
7372.00,1.15
7371.00,1.15
7370.00,1.15
7369.00,1.15
7368.00,1.15
7367.00,1.15
7366.00,1.15
7365.00,1.15
7364.00,1.15
7363.00,1.15
7362.00,1.15
7361.00,1.15
7360.00,1.15
7359.00,1.15
7358.00,1.15
7357.00,1.15
7356.00,1.15
7355.00,1.15
7354.00,1.15
7353.00,1.15
7352.00,1.15
7351.00,1.15
7350.00,1.15
7349.00,1.15
7348.00,1.15
7347.00,1.15
7346.00,1.15
7345.00,1.15
7344.00,1.15
7343.00,1.15
7342.00,1.15
7341.00,1.15
7340.00,1.15
7339.00,1.15
7338.00,1.15
7337.00,1.15
7336.00,1.15
7335.00,1.15
7334.00,1.15
7333.00,1.15
7332.00,1.15
7331.00,1.15
7330.00,1.15
7329.00,1.15
7328.00,1.15
7327.00,1.15
7326.00,1.15
7325.00,1.14
7324.00,1.14
7323.00,1.14
7322.00,1.14
7321.00,1.14
7320.00,1.14
7319.00,1.14
7318.00,1.14
7317.00,1.14
7316.00,1.14
7315.00,1.14
7314.00,1.14
7313.00,1.14
7312.00,1.14
7311.00,1.14
7310.00,1.14
7309.00,1.14
7308.00,1.14
7307.00,1.13
7306.00,1.13
7305.00,1.13
7304.00,1.13
7303.00,1.13
7302.00,1.13
7301.00,1.13
7300.00,1.13
7299.00,1.13
7298.00,1.12
7297.00,1.12
7296.00,1.12
7295.00,1.12
7294.00,1.12
7293.00,1.12
7292.00,1.12
7291.00,1.12
7290.00,1.11
7289.00,1.11
7288.00,1.11
7287.00,1.11
7286.00,1.11
7285.00,1.11
7284.00,1.11
7283.00,1.11
7282.00,1.11
7281.00,1.11
7280.00,1.10
7279.00,1.10
7278.00,1.10
7277.00,1.10
7276.00,1.10
7275.00,1.10
7274.00,1.10
7273.00,1.10
7272.00,1.10
7271.00,1.10
7270.00,1.10
7269.00,1.10
7268.00,1.10
7267.00,1.10
7266.00,1.09
7265.00,1.09
7264.00,1.09
7263.00,1.09
7262.00,1.09
7261.00,1.09
7260.00,1.09
7259.00,1.09
7258.00,1.09
7257.00,1.09
7256.00,1.09
7255.00,1.08
7254.00,1.08
7253.00,1.08
7252.00,1.08
7251.00,1.08
7250.00,1.08
7249.00,1.07
7248.00,1.07
7247.00,1.07
7246.00,1.07
7245.00,1.07
7244.00,1.06
7243.00,1.06
7242.00,1.06
7241.00,1.06
7240.00,1.05
7239.00,1.05
7238.00,1.05
7237.00,1.04
7236.00,1.04
7235.00,1.04
7234.00,1.04
7233.00,1.03
7232.00,1.03
7231.00,1.03
7230.00,1.02
7229.00,1.02
7228.00,1.02
7227.00,1.01
7226.00,1.01
7225.00,1.01
7224.00,1.00
7223.00,1.00
7222.00,1.00
7221.00,1.00
7220.00,1.00
7219.00,0.99
7218.00,0.99
7217.00,0.99
7216.00,0.99
7215.00,0.98
7214.00,0.98
7213.00,0.98
7212.00,0.98
7211.00,0.98
7210.00,0.97
7209.00,0.97
7208.00,0.97
7207.00,0.96
7206.00,0.96
7205.00,0.96
7204.00,0.95
7203.00,0.95
7202.00,0.94
7201.00,0.94
7200.00,0.94
7199.00,0.93
7198.00,0.93
7197.00,0.93
7196.00,0.92
7195.00,0.92
7194.00,0.92
7193.00,0.91
7192.00,0.91
7191.00,0.91
7190.00,0.91
7189.00,0.90
7188.00,0.90
7187.00,0.90
7186.00,0.89
7185.00,0.89
7184.00,0.89
7183.00,0.89
7182.00,0.88
7181.00,0.88
7180.00,0.88
7179.00,0.88
7178.00,0.87
7177.00,0.87
7176.00,0.87
7175.00,0.87
7174.00,0.86
7173.00,0.86
7172.00,0.86
7171.00,0.86
7170.00,0.85
7169.00,0.85
7168.00,0.85
7167.00,0.84
7166.00,0.84
7165.00,0.84
7164.00,0.83
7163.00,0.83
7162.00,0.83
7161.00,0.83
7160.00,0.82
7159.00,0.82
7158.00,0.82
7157.00,0.82
7156.00,0.82
7155.00,0.81
7154.00,0.81
7153.00,0.81
7152.00,0.81
7151.00,0.81
7150.00,0.81
7149.00,0.80
7148.00,0.80
7147.00,0.80
7146.00,0.80
7145.00,0.80
7144.00,0.80
7143.00,0.79
7142.00,0.79
7141.00,0.79
7140.00,0.79
7139.00,0.78
7138.00,0.78
7137.00,0.78
7136.00,0.77
7135.00,0.77
7134.00,0.77
7133.00,0.77
7132.00,0.76
7131.00,0.76
7130.00,0.76
7129.00,0.76
7128.00,0.76
7127.00,0.75
7126.00,0.75
7125.00,0.75
7124.00,0.75
7123.00,0.75
7122.00,0.74
7121.00,0.74
7120.00,0.74
7119.00,0.74
7118.00,0.74
7117.00,0.73
7116.00,0.73
7115.00,0.73
7114.00,0.73
7113.00,0.73
7112.00,0.73
7111.00,0.72
7110.00,0.72
7109.00,0.72
7108.00,0.72
7107.00,0.72
7106.00,0.71
7105.00,0.71
7104.00,0.71
7103.00,0.71
7102.00,0.71
7101.00,0.70
7100.00,0.70
7099.00,0.70
7098.00,0.70
7097.00,0.69
7096.00,0.69
7095.00,0.69
7094.00,0.69
7093.00,0.69
7092.00,0.68
7091.00,0.68
7090.00,0.68
7089.00,0.68
7088.00,0.68
7087.00,0.68
7086.00,0.67
7085.00,0.67
7084.00,0.67
7083.00,0.67
7082.00,0.67
7081.00,0.67
7080.00,0.67
7079.00,0.67
7078.00,0.67
7077.00,0.67
7076.00,0.67
7075.00,0.67
7074.00,0.66
7073.00,0.66
7072.00,0.66
7071.00,0.66
7070.00,0.66
7069.00,0.66
7068.00,0.66
7067.00,0.66
7066.00,0.66
7065.00,0.66
7064.00,0.65
7063.00,0.65
7062.00,0.65
7061.00,0.65
7060.00,0.65
7059.00,0.65
7058.00,0.65
7057.00,0.65
7056.00,0.65
7055.00,0.65
7054.00,0.64
7053.00,0.64
7052.00,0.64
7051.00,0.64
7050.00,0.64
7049.00,0.64
7048.00,0.64
7047.00,0.64
7046.00,0.64
7045.00,0.64
7044.00,0.64
7043.00,0.63
7042.00,0.63
7041.00,0.63
7040.00,0.63
7039.00,0.63
7038.00,0.63
7037.00,0.63
7036.00,0.63
7035.00,0.63
7034.00,0.63
7033.00,0.63
7032.00,0.63
7031.00,0.63
7030.00,0.63
7029.00,0.63
7028.00,0.62
7027.00,0.62
7026.00,0.62
7025.00,0.62
7024.00,0.62
7023.00,0.62
7022.00,0.62
7021.00,0.62
7020.00,0.62
7019.00,0.61
7018.00,0.61
7017.00,0.61
7016.00,0.61
7015.00,0.61
7014.00,0.61
7013.00,0.61
7012.00,0.61
7011.00,0.61
7010.00,0.61
7009.00,0.61
7008.00,0.61
7007.00,0.61
7006.00,0.61
7005.00,0.61
7004.00,0.61
7003.00,0.61
7002.00,0.61
7001.00,0.61
7000.00,0.61
6999.00,0.60
6998.00,0.60
6997.00,0.60
6996.00,0.60
6995.00,0.60
6994.00,0.60
6993.00,0.60
6992.00,0.60
6991.00,0.60
6990.00,0.60
6989.00,0.60
6988.00,0.59
6987.00,0.59
6986.00,0.59
6985.00,0.59
6984.00,0.59
6983.00,0.59
6982.00,0.59
6981.00,0.59
6980.00,0.59
6979.00,0.59
6978.00,0.59
6977.00,0.59
6976.00,0.59
6975.00,0.59
6974.00,0.59
6973.00,0.59
6972.00,0.59
6971.00,0.59
6970.00,0.59
6969.00,0.59
6968.00,0.58
6967.00,0.58
6966.00,0.58
6965.00,0.58
6964.00,0.58
6963.00,0.58
6962.00,0.58
6961.00,0.58
6960.00,0.58
6959.00,0.58
6958.00,0.58
6957.00,0.58
6956.00,0.58
6955.00,0.58
6954.00,0.58
6953.00,0.58
6952.00,0.58
6951.00,0.58
6950.00,0.58
6949.00,0.58
6948.00,0.58
6947.00,0.58
6946.00,0.58
6945.00,0.57
6944.00,0.57
6943.00,0.57
6942.00,0.57
6941.00,0.57
6940.00,0.57
6939.00,0.57
6938.00,0.57
6937.00,0.57
6936.00,0.57
6935.00,0.57
6934.00,0.57
6933.00,0.57
6932.00,0.57
6931.00,0.57
6930.00,0.57
6929.00,0.57
6928.00,0.57
6927.00,0.57
6926.00,0.57
6925.00,0.57
6924.00,0.57
6923.00,0.57
6922.00,0.57
6921.00,0.57
6920.00,0.57
6919.00,0.57
6918.00,0.57
6917.00,0.57
6916.00,0.57
6915.00,0.57
6914.00,0.57
6913.00,0.57
6912.00,0.57
6911.00,0.57
6910.00,0.57
6909.00,0.57
6908.00,0.57
6907.00,0.57
6906.00,0.57
6905.00,0.57
6904.00,0.57
6903.00,0.57
6902.00,0.57
6901.00,0.57
6900.00,0.57
6899.00,0.57
6898.00,0.57
6897.00,0.57
6896.00,0.57
6895.00,0.57
6894.00,0.57
6893.00,0.57
6892.00,0.57
6891.00,0.57
6890.00,0.57
6889.00,0.57
6888.00,0.57
6887.00,0.57
6886.00,0.57
6885.00,0.57
6884.00,0.57
6883.00,0.57
6882.00,0.57
6881.00,0.57
6880.00,0.57
6879.00,0.57
6878.00,0.57
6877.00,0.57
6876.00,0.57
6875.00,0.58
6874.00,0.58
6873.00,0.58
6872.00,0.58
6871.00,0.58
6870.00,0.58
6869.00,0.58
6868.00,0.58
6867.00,0.58
6866.00,0.58
6865.00,0.58
6864.00,0.58
6863.00,0.58
6862.00,0.58
6861.00,0.58
6860.00,0.58
6859.00,0.57
6858.00,0.57
6857.00,0.57
6856.00,0.57
6855.00,0.57
6854.00,0.57
6853.00,0.57
6852.00,0.57
6851.00,0.57
6850.00,0.57
6849.00,0.57
6848.00,0.57
6847.00,0.57
6846.00,0.57
6845.00,0.57
6844.00,0.57
6843.00,0.57
6842.00,0.57
6841.00,0.57
6840.00,0.57
6839.00,0.57
6838.00,0.57
6837.00,0.57
6836.00,0.57
6835.00,0.57
6834.00,0.57
6833.00,0.57
6832.00,0.57
6831.00,0.57
6830.00,0.58
6829.00,0.58
6828.00,0.58
6827.00,0.58
6826.00,0.58
6825.00,0.58
6824.00,0.58
6823.00,0.58
6822.00,0.58
6821.00,0.58
6820.00,0.58
6819.00,0.58
6818.00,0.58
6817.00,0.58
6816.00,0.58
6815.00,0.58
6814.00,0.58
6813.00,0.58
6812.00,0.58
6811.00,0.58
6810.00,0.58
6809.00,0.58
6808.00,0.58
6807.00,0.58
6806.00,0.58
6805.00,0.58
6804.00,0.58
6803.00,0.58
6802.00,0.58
6801.00,0.58
6800.00,0.58
6799.00,0.58
6798.00,0.58
6797.00,0.58
6796.00,0.58
6795.00,0.58
6794.00,0.58
6793.00,0.58
6792.00,0.59
6791.00,0.59
6790.00,0.59
6789.00,0.59
6788.00,0.59
6787.00,0.59
6786.00,0.59
6785.00,0.59
6784.00,0.59
6783.00,0.59
6782.00,0.59
6781.00,0.59
6780.00,0.59
6779.00,0.59
6778.00,0.60
6777.00,0.60
6776.00,0.60
6775.00,0.60
6774.00,0.60
6773.00,0.60
6772.00,0.60
6771.00,0.60
6770.00,0.60
6769.00,0.60
6768.00,0.60
6767.00,0.60
6766.00,0.60
6765.00,0.60
6764.00,0.60
6763.00,0.60
6762.00,0.60
6761.00,0.60
6760.00,0.60
6759.00,0.60
6758.00,0.60
6757.00,0.60
6756.00,0.60
6755.00,0.60
6754.00,0.60
6753.00,0.60
6752.00,0.60
6751.00,0.60
6750.00,0.61
6749.00,0.61
6748.00,0.61
6747.00,0.61
6746.00,0.61
6745.00,0.61
6744.00,0.61
6743.00,0.61
6742.00,0.61
6741.00,0.61
6740.00,0.61
6739.00,0.61
6738.00,0.61
6737.00,0.61
6736.00,0.61
6735.00,0.61
6734.00,0.61
6733.00,0.61
6732.00,0.61
6731.00,0.61
6730.00,0.61
6729.00,0.61
6728.00,0.61
6727.00,0.62
6726.00,0.62
6725.00,0.62
6724.00,0.62
6723.00,0.62
6722.00,0.62
6721.00,0.62
6720.00,0.62
6719.00,0.62
6718.00,0.62
6717.00,0.63
6716.00,0.63
6715.00,0.63
6714.00,0.63
6713.00,0.63
6712.00,0.63
6711.00,0.63
6710.00,0.63
6709.00,0.64
6708.00,0.64
6707.00,0.64
6706.00,0.64
6705.00,0.64
6704.00,0.64
6703.00,0.64
6702.00,0.64
6701.00,0.64
6700.00,0.64
6699.00,0.64
6698.00,0.64
6697.00,0.64
6696.00,0.64
6695.00,0.64
6694.00,0.64
6693.00,0.64
6692.00,0.64
6691.00,0.64
6690.00,0.65
6689.00,0.65
6688.00,0.65
6687.00,0.65
6686.00,0.65
6685.00,0.65
6684.00,0.65
6683.00,0.65
6682.00,0.65
6681.00,0.65
6680.00,0.65
6679.00,0.65
6678.00,0.65
6677.00,0.65
6676.00,0.65
6675.00,0.65
6674.00,0.65
6673.00,0.66
6672.00,0.66
6671.00,0.66
6670.00,0.66
6669.00,0.66
6668.00,0.66
6667.00,0.66
6666.00,0.66
6665.00,0.66
6664.00,0.66
6663.00,0.66
6662.00,0.66
6661.00,0.66
6660.00,0.67
6659.00,0.67
6658.00,0.67
6657.00,0.67
6656.00,0.67
6655.00,0.67
6654.00,0.67
6653.00,0.67
6652.00,0.67
6651.00,0.67
6650.00,0.67
6649.00,0.67
6648.00,0.67
6647.00,0.67
6646.00,0.67
6645.00,0.67
6644.00,0.68
6643.00,0.68
6642.00,0.68
6641.00,0.68
6640.00,0.68
6639.00,0.68
6638.00,0.68
6637.00,0.68
6636.00,0.68
6635.00,0.68
6634.00,0.68
6633.00,0.68
6632.00,0.69
6631.00,0.69
6630.00,0.69
6629.00,0.69
6628.00,0.69
6627.00,0.69
6626.00,0.69
6625.00,0.69
6624.00,0.69
6623.00,0.70
6622.00,0.70
6621.00,0.70
6620.00,0.70
6619.00,0.70
6618.00,0.70
6617.00,0.70
6616.00,0.70
6615.00,0.70
6614.00,0.70
6613.00,0.70
6612.00,0.70
6611.00,0.71
6610.00,0.71
6609.00,0.71
6608.00,0.71
6607.00,0.71
6606.00,0.71
6605.00,0.71
6604.00,0.71
6603.00,0.71
6602.00,0.71
6601.00,0.71
6600.00,0.72
6599.00,0.72
6598.00,0.72
6597.00,0.72
6596.00,0.72
6595.00,0.72
6594.00,0.72
6593.00,0.72
6592.00,0.72
6591.00,0.72
6590.00,0.72
6589.00,0.72
6588.00,0.72
6587.00,0.73
6586.00,0.73
6585.00,0.73
6584.00,0.73
6583.00,0.73
6582.00,0.73
6581.00,0.73
6580.00,0.73
6579.00,0.73
6578.00,0.73
6577.00,0.73
6576.00,0.73
6575.00,0.73
6574.00,0.73
6573.00,0.74
6572.00,0.74
6571.00,0.74
6570.00,0.74
6569.00,0.74
6568.00,0.74
6567.00,0.74
6566.00,0.74
6565.00,0.74
6564.00,0.74
6563.00,0.74
6562.00,0.74
6561.00,0.74
6560.00,0.75
6559.00,0.75
6558.00,0.75
6557.00,0.75
6556.00,0.75
6555.00,0.75
6554.00,0.75
6553.00,0.75
6552.00,0.75
6551.00,0.76
6550.00,0.76
6549.00,0.76
6548.00,0.76
6547.00,0.76
6546.00,0.76
6545.00,0.76
6544.00,0.76
6543.00,0.76
6542.00,0.76
6541.00,0.76
6540.00,0.77
6539.00,0.77
6538.00,0.77
6537.00,0.77
6536.00,0.77
6535.00,0.77
6534.00,0.77
6533.00,0.77
6532.00,0.77
6531.00,0.77
6530.00,0.77
6529.00,0.77
6528.00,0.77
6527.00,0.77
6526.00,0.77
6525.00,0.77
6524.00,0.77
6523.00,0.77
6522.00,0.77
6521.00,0.77
6520.00,0.77
6519.00,0.77
6518.00,0.77
6517.00,0.78
6516.00,0.78
6515.00,0.78
6514.00,0.78
6513.00,0.78
6512.00,0.78
6511.00,0.78
6510.00,0.78
6509.00,0.78
6508.00,0.78
6507.00,0.78
6506.00,0.79
6505.00,0.79
6504.00,0.79
6503.00,0.79
6502.00,0.79
6501.00,0.79
6500.00,0.79
6499.00,0.79
6498.00,0.79
6497.00,0.79
6496.00,0.79
6495.00,0.79
6494.00,0.79
6493.00,0.79
6492.00,0.80
6491.00,0.80
6490.00,0.80
6489.00,0.80
6488.00,0.80
6487.00,0.80
6486.00,0.80
6485.00,0.80
6484.00,0.80
6483.00,0.80
6482.00,0.80
6481.00,0.80
6480.00,0.80
6479.00,0.80
6478.00,0.80
6477.00,0.80
6476.00,0.80
6475.00,0.80
6474.00,0.80
6473.00,0.80
6472.00,0.80
6471.00,0.80
6470.00,0.80
6469.00,0.81
6468.00,0.81
6467.00,0.81
6466.00,0.81
6465.00,0.81
6464.00,0.81
6463.00,0.81
6462.00,0.81
6461.00,0.81
6460.00,0.81
6459.00,0.81
6458.00,0.81
6457.00,0.81
6456.00,0.81
6455.00,0.81
6454.00,0.81
6453.00,0.81
6452.00,0.81
6451.00,0.81
6450.00,0.81
6449.00,0.81
6448.00,0.81
6447.00,0.81
6446.00,0.81
6445.00,0.81
6444.00,0.81
6443.00,0.81
6442.00,0.81
6441.00,0.81
6440.00,0.82
6439.00,0.82
6438.00,0.82
6437.00,0.82
6436.00,0.82
6435.00,0.82
6434.00,0.82
6433.00,0.82
6432.00,0.82
6431.00,0.82
6430.00,0.82
6429.00,0.82
6428.00,0.82
6427.00,0.83
6426.00,0.83
6425.00,0.83
6424.00,0.83
6423.00,0.83
6422.00,0.83
6421.00,0.83
6420.00,0.83
6419.00,0.83
6418.00,0.83
6417.00,0.83
6416.00,0.83
6415.00,0.83
6414.00,0.84
6413.00,0.84
6412.00,0.84
6411.00,0.84
6410.00,0.84
6409.00,0.84
6408.00,0.84
6407.00,0.84
6406.00,0.84
6405.00,0.84
6404.00,0.84
6403.00,0.84
6402.00,0.84
6401.00,0.85
6400.00,0.85
6399.00,0.85
6398.00,0.85
6397.00,0.85
6396.00,0.85
6395.00,0.85
6394.00,0.85
6393.00,0.85
6392.00,0.85
6391.00,0.85
6390.00,0.85
6389.00,0.85
6388.00,0.85
6387.00,0.85
6386.00,0.85
6385.00,0.85
6384.00,0.85
6383.00,0.85
6382.00,0.85
6381.00,0.85
6380.00,0.85
6379.00,0.85
6378.00,0.85
6377.00,0.85
6376.00,0.85
6375.00,0.85
6374.00,0.85
6373.00,0.85
6372.00,0.86
6371.00,0.86
6370.00,0.86
6369.00,0.86
6368.00,0.86
6367.00,0.86
6366.00,0.86
6365.00,0.86
6364.00,0.86
6363.00,0.86
6362.00,0.86
6361.00,0.86
6360.00,0.86
6359.00,0.86
6358.00,0.87
6357.00,0.87
6356.00,0.87
6355.00,0.87
6354.00,0.87
6353.00,0.87
6352.00,0.87
6351.00,0.87
6350.00,0.87
6349.00,0.87
6348.00,0.87
6347.00,0.87
6346.00,0.87
6345.00,0.87
6344.00,0.87
6343.00,0.88
6342.00,0.88
6341.00,0.88
6340.00,0.88
6339.00,0.88
6338.00,0.88
6337.00,0.88
6336.00,0.89
6335.00,0.89
6334.00,0.89
6333.00,0.89
6332.00,0.89
6331.00,0.89
6330.00,0.89
6329.00,0.89
6328.00,0.89
6327.00,0.89
6326.00,0.89
6325.00,0.89
6324.00,0.89
6323.00,0.89
6322.00,0.89
6321.00,0.90
6320.00,0.90
6319.00,0.90
6318.00,0.90
6317.00,0.90
6316.00,0.90
6315.00,0.90
6314.00,0.90
6313.00,0.90
6312.00,0.90
6311.00,0.90
6310.00,0.90
6309.00,0.90
6308.00,0.90
6307.00,0.90
6306.00,0.90
6305.00,0.91
6304.00,0.91
6303.00,0.91
6302.00,0.91
6301.00,0.91
6300.00,0.91
6299.00,0.91
6298.00,0.91
6297.00,0.91
6296.00,0.91
6295.00,0.91
6294.00,0.91
6293.00,0.91
6292.00,0.91
6291.00,0.92
6290.00,0.92
6289.00,0.92
6288.00,0.92
6287.00,0.92
6286.00,0.92
6285.00,0.92
6284.00,0.92
6283.00,0.93
6282.00,0.93
6281.00,0.93
6280.00,0.93
6279.00,0.93
6278.00,0.93
6277.00,0.93
6276.00,0.93
6275.00,0.93
6274.00,0.93
6273.00,0.93
6272.00,0.93
6271.00,0.93
6270.00,0.93
6269.00,0.93
6268.00,0.93
6267.00,0.94
6266.00,0.94
6265.00,0.94
6264.00,0.94
6263.00,0.94
6262.00,0.94
6261.00,0.94
6260.00,0.94
6259.00,0.94
6258.00,0.94
6257.00,0.94
6256.00,0.95
6255.00,0.95
6254.00,0.95
6253.00,0.95
6252.00,0.95
6251.00,0.95
6250.00,0.95
6249.00,0.95
6248.00,0.95
6247.00,0.96
6246.00,0.96
6245.00,0.96
6244.00,0.96
6243.00,0.96
6242.00,0.96
6241.00,0.96
6240.00,0.97
6239.00,0.97
6238.00,0.97
6237.00,0.97
6236.00,0.97
6235.00,0.97
6234.00,0.97
6233.00,0.98
6232.00,0.98
6231.00,0.98
6230.00,0.98
6229.00,0.98
6228.00,0.98
6227.00,0.98
6226.00,0.99
6225.00,0.99
6224.00,0.99
6223.00,0.99
6222.00,0.99
6221.00,0.99
6220.00,0.99
6219.00,0.99
6218.00,0.99
6217.00,1.00
6216.00,1.00
6215.00,1.00
6214.00,1.00
6213.00,1.00
6212.00,1.00
6211.00,1.00
6210.00,1.00
6209.00,1.00
6208.00,1.00
6207.00,1.00
6206.00,1.00
6205.00,1.00
6204.00,1.00
6203.00,1.00
6202.00,1.00
6201.00,1.00
6200.00,1.00
6199.00,1.01
6198.00,1.01
6197.00,1.01
6196.00,1.01
6195.00,1.01
6194.00,1.01
6193.00,1.01
6192.00,1.01
6191.00,1.01
6190.00,1.02
6189.00,1.02
6188.00,1.02
6187.00,1.02
6186.00,1.02
6185.00,1.02
6184.00,1.02
6183.00,1.03
6182.00,1.03
6181.00,1.03
6180.00,1.03
6179.00,1.03
6178.00,1.03
6177.00,1.03
6176.00,1.03
6175.00,1.04
6174.00,1.04
6173.00,1.04
6172.00,1.04
6171.00,1.04
6170.00,1.04
6169.00,1.04
6168.00,1.05
6167.00,1.05
6166.00,1.05
6165.00,1.05
6164.00,1.05
6163.00,1.05
6162.00,1.06
6161.00,1.06
6160.00,1.06
6159.00,1.06
6158.00,1.06
6157.00,1.06
6156.00,1.06
6155.00,1.06
6154.00,1.06
6153.00,1.07
6152.00,1.07
6151.00,1.07
6150.00,1.07
6149.00,1.07
6148.00,1.07
6147.00,1.07
6146.00,1.07
6145.00,1.07
6144.00,1.07
6143.00,1.08
6142.00,1.08
6141.00,1.08
6140.00,1.08
6139.00,1.08
6138.00,1.08
6137.00,1.08
6136.00,1.08
6135.00,1.09
6134.00,1.09
6133.00,1.09
6132.00,1.09
6131.00,1.09
6130.00,1.09
6129.00,1.09
6128.00,1.09
6127.00,1.10
6126.00,1.10
6125.00,1.10
6124.00,1.10
6123.00,1.10
6122.00,1.10
6121.00,1.10
6120.00,1.10
6119.00,1.10
6118.00,1.10
6117.00,1.10
6116.00,1.11
6115.00,1.11
6114.00,1.11
6113.00,1.11
6112.00,1.11
6111.00,1.11
6110.00,1.11
6109.00,1.11
6108.00,1.11
6107.00,1.12
6106.00,1.12
6105.00,1.12
6104.00,1.12
6103.00,1.12
6102.00,1.12
6101.00,1.12
6100.00,1.12
6099.00,1.13
6098.00,1.13
6097.00,1.13
6096.00,1.13
6095.00,1.13
6094.00,1.13
6093.00,1.13
6092.00,1.13
6091.00,1.14
6090.00,1.14
6089.00,1.14
6088.00,1.14
6087.00,1.14
6086.00,1.14
6085.00,1.14
6084.00,1.14
6083.00,1.14
6082.00,1.15
6081.00,1.15
6080.00,1.15
6079.00,1.15
6078.00,1.15
6077.00,1.15
6076.00,1.15
6075.00,1.15
6074.00,1.15
6073.00,1.15
6072.00,1.15
6071.00,1.15
6070.00,1.15
6069.00,1.15
6068.00,1.15
6067.00,1.15
6066.00,1.15
6065.00,1.16
6064.00,1.16
6063.00,1.16
6062.00,1.16
6061.00,1.16
6060.00,1.16
6059.00,1.16
6058.00,1.16
6057.00,1.16
6056.00,1.17
6055.00,1.17
6054.00,1.17
6053.00,1.17
6052.00,1.17
6051.00,1.17
6050.00,1.17
6049.00,1.17
6048.00,1.17
6047.00,1.17
6046.00,1.18
6045.00,1.18
6044.00,1.18
6043.00,1.18
6042.00,1.18
6041.00,1.18
6040.00,1.18
6039.00,1.18
6038.00,1.18
6037.00,1.18
6036.00,1.18
6035.00,1.18
6034.00,1.18
6033.00,1.18
6032.00,1.18
6031.00,1.18
6030.00,1.18
6029.00,1.18
6028.00,1.18
6027.00,1.18
6026.00,1.18
6025.00,1.18
6024.00,1.18
6023.00,1.19
6022.00,1.19
6021.00,1.19
6020.00,1.19
6019.00,1.19
6018.00,1.19
6017.00,1.19
6016.00,1.19
6015.00,1.19
6014.00,1.19
6013.00,1.19
6012.00,1.19
6011.00,1.19
6010.00,1.19
6009.00,1.19
6008.00,1.19
6007.00,1.19
6006.00,1.19
6005.00,1.19
6004.00,1.19
6003.00,1.19
6002.00,1.19
6001.00,1.19
6000.00,1.18
5999.00,1.18
5998.00,1.18
5997.00,1.18
5996.00,1.18
5995.00,1.18
5994.00,1.18
5993.00,1.18
5992.00,1.18
5991.00,1.18
5990.00,1.17
5989.00,1.17
5988.00,1.17
5987.00,1.17
5986.00,1.17
5985.00,1.16
5984.00,1.16
5983.00,1.16
5982.00,1.16
5981.00,1.16
5980.00,1.15
5979.00,1.15
5978.00,1.15
5977.00,1.15
5976.00,1.14
5975.00,1.14
5974.00,1.14
5973.00,1.13
5972.00,1.13
5971.00,1.12
5970.00,1.12
5969.00,1.11
5968.00,1.11
5967.00,1.10
5966.00,1.10
5965.00,1.09
5964.00,1.09
5963.00,1.08
5962.00,1.08
5961.00,1.07
5960.00,1.06
5959.00,1.06
5958.00,1.05
5957.00,1.05
5956.00,1.04
5955.00,1.03
5954.00,1.03
5953.00,1.02
5952.00,1.02
5951.00,1.01
5950.00,1.01
5949.00,1.00
5948.00,1.00
5947.00,1.00
5946.00,0.99
5945.00,0.99
5944.00,0.99
5943.00,0.99
5942.00,0.98
5941.00,0.98
5940.00,0.98
5939.00,0.98
5938.00,0.98
5937.00,0.98
5936.00,0.98
5935.00,0.97
5934.00,0.97
5933.00,0.97
5932.00,0.97
5931.00,0.97
5930.00,0.97
5929.00,0.97
5928.00,0.97
5927.00,0.97
5926.00,0.96
5925.00,0.96
5924.00,0.96
5923.00,0.96
5922.00,0.96
5921.00,0.96
5920.00,0.95
5919.00,0.95
5918.00,0.95
5917.00,0.95
5916.00,0.94
5915.00,0.94
5914.00,0.94
5913.00,0.94
5912.00,0.94
5911.00,0.93
5910.00,0.93
5909.00,0.93
5908.00,0.93
5907.00,0.93
5906.00,0.93
5905.00,0.93
5904.00,0.93
5903.00,0.93
5902.00,0.93
5901.00,0.93
5900.00,0.93
5899.00,0.93
5898.00,0.93
5897.00,0.93
5896.00,0.93
5895.00,0.93
5894.00,0.93
5893.00,0.94
5892.00,0.94
5891.00,0.94
5890.00,0.94
5889.00,0.94
5888.00,0.95
5887.00,0.95
5886.00,0.95
5885.00,0.96
5884.00,0.96
5883.00,0.96
5882.00,0.96
5881.00,0.97
5880.00,0.97
5879.00,0.97
5878.00,0.97
5877.00,0.97
5876.00,0.98
5875.00,0.98
5874.00,0.98
5873.00,0.98
5872.00,0.98
5871.00,0.99
5870.00,0.99
5869.00,0.99
5868.00,0.99
5867.00,0.99
5866.00,0.99
5865.00,0.99
5864.00,1.00
5863.00,1.00
5862.00,1.00
5861.00,1.00
5860.00,1.00
5859.00,1.00
5858.00,1.00
5857.00,1.00
5856.00,1.00
5855.00,1.00
5854.00,1.01
5853.00,1.01
5852.00,1.01
5851.00,1.01
5850.00,1.01
5849.00,1.01
5848.00,1.01
5847.00,1.01
5846.00,1.01
5845.00,1.01
5844.00,1.01
5843.00,1.01
5842.00,1.01
5841.00,1.01
5840.00,1.01
5839.00,1.01
5838.00,1.01
5837.00,1.01
5836.00,1.01
5835.00,1.01
5834.00,1.01
5833.00,1.02
5832.00,1.02
5831.00,1.02
5830.00,1.02
5829.00,1.02
5828.00,1.02
5827.00,1.02
5826.00,1.02
5825.00,1.02
5824.00,1.02
5823.00,1.02
5822.00,1.02
5821.00,1.02
5820.00,1.02
5819.00,1.02
5818.00,1.02
5817.00,1.02
5816.00,1.02
5815.00,1.02
5814.00,1.02
5813.00,1.02
5812.00,1.02
5811.00,1.02
5810.00,1.02
5809.00,1.02
5808.00,1.02
5807.00,1.02
5806.00,1.02
5805.00,1.02
5804.00,1.02
5803.00,1.02
5802.00,1.02
5801.00,1.02
5800.00,1.01
5799.00,1.01
5798.00,1.01
5797.00,1.01
5796.00,1.01
5795.00,1.01
5794.00,1.00
5793.00,1.00
5792.00,1.00
5791.00,1.00
5790.00,1.00
5789.00,0.99
5788.00,0.99
5787.00,0.99
5786.00,0.99
5785.00,0.99
5784.00,0.99
5783.00,0.98
5782.00,0.98
5781.00,0.98
5780.00,0.98
5779.00,0.98
5778.00,0.98
5777.00,0.98
5776.00,0.98
5775.00,0.98
5774.00,0.98
5773.00,0.98
5772.00,0.98
5771.00,0.98
5770.00,0.98
5769.00,0.98
5768.00,0.98
5767.00,0.98
5766.00,0.98
5765.00,0.98
5764.00,0.98
5763.00,0.98
5762.00,0.98
5761.00,0.98
5760.00,0.98
5759.00,0.99
5758.00,0.99
5757.00,0.99
5756.00,0.99
5755.00,1.00
5754.00,1.00
5753.00,1.00
5752.00,1.00
5751.00,1.01
5750.00,1.01
5749.00,1.01
5748.00,1.01
5747.00,1.02
5746.00,1.02
5745.00,1.02
5744.00,1.03
5743.00,1.03
5742.00,1.03
5741.00,1.03
5740.00,1.04
5739.00,1.04
5738.00,1.04
5737.00,1.04
5736.00,1.05
5735.00,1.05
5734.00,1.05
5733.00,1.05
5732.00,1.05
5731.00,1.05
5730.00,1.05
5729.00,1.05
5728.00,1.05
5727.00,1.05
5726.00,1.06
5725.00,1.06
5724.00,1.06
5723.00,1.06
5722.00,1.06
5721.00,1.06
5720.00,1.06
5719.00,1.06
5718.00,1.06
5717.00,1.06
5716.00,1.06
5715.00,1.06
5714.00,1.06
5713.00,1.06
5712.00,1.06
5711.00,1.06
5710.00,1.06
5709.00,1.06
5708.00,1.06
5707.00,1.06
5706.00,1.06
5705.00,1.06
5704.00,1.06
5703.00,1.06
5702.00,1.06
5701.00,1.06
5700.00,1.05
5699.00,1.05
5698.00,1.05
5697.00,1.05
5696.00,1.05
5695.00,1.05
5694.00,1.05
5693.00,1.05
5692.00,1.04
5691.00,1.04
5690.00,1.04
5689.00,1.04
5688.00,1.04
5687.00,1.04
5686.00,1.04
5685.00,1.04
5684.00,1.04
5683.00,1.04
5682.00,1.04
5681.00,1.04
5680.00,1.03
5679.00,1.03
5678.00,1.03
5677.00,1.03
5676.00,1.03
5675.00,1.03
5674.00,1.03
5673.00,1.03
5672.00,1.03
5671.00,1.03
5670.00,1.03
5669.00,1.03
5668.00,1.03
5667.00,1.03
5666.00,1.03
5665.00,1.03
5664.00,1.03
5663.00,1.03
5662.00,1.04
5661.00,1.04
5660.00,1.04
5659.00,1.04
5658.00,1.04
5657.00,1.04
5656.00,1.04
5655.00,1.04
5654.00,1.04
5653.00,1.05
5652.00,1.05
5651.00,1.05
5650.00,1.05
5649.00,1.05
5648.00,1.05
5647.00,1.05
5646.00,1.05
5645.00,1.06
5644.00,1.06
5643.00,1.06
5642.00,1.06
5641.00,1.06
5640.00,1.06
5639.00,1.06
5638.00,1.07
5637.00,1.07
5636.00,1.07
5635.00,1.07
5634.00,1.07
5633.00,1.07
5632.00,1.08
5631.00,1.08
5630.00,1.08
5629.00,1.08
5628.00,1.08
5627.00,1.08
5626.00,1.08
5625.00,1.09
5624.00,1.09
5623.00,1.09
5622.00,1.09
5621.00,1.09
5620.00,1.09
5619.00,1.09
5618.00,1.10
5617.00,1.10
5616.00,1.10
5615.00,1.10
5614.00,1.10
5613.00,1.10
5612.00,1.10
5611.00,1.11
5610.00,1.11
5609.00,1.11
5608.00,1.11
5607.00,1.11
5606.00,1.11
5605.00,1.11
5604.00,1.11
5603.00,1.11
5602.00,1.12
5601.00,1.12
5600.00,1.12
5599.00,1.12
5598.00,1.12
5597.00,1.12
5596.00,1.12
5595.00,1.12
5594.00,1.12
5593.00,1.12
5592.00,1.12
5591.00,1.13
5590.00,1.13
5589.00,1.13
5588.00,1.13
5587.00,1.13
5586.00,1.13
5585.00,1.13
5584.00,1.14
5583.00,1.14
5582.00,1.14
5581.00,1.14
5580.00,1.14
5579.00,1.14
5578.00,1.14
5577.00,1.15
5576.00,1.15
5575.00,1.15
5574.00,1.15
5573.00,1.15
5572.00,1.15
5571.00,1.15
5570.00,1.15
5569.00,1.16
5568.00,1.16
5567.00,1.16
5566.00,1.16
5565.00,1.16
5564.00,1.16
5563.00,1.16
5562.00,1.16
5561.00,1.16
5560.00,1.17
5559.00,1.17
5558.00,1.17
5557.00,1.17
5556.00,1.17
5555.00,1.17
5554.00,1.17
5553.00,1.17
5552.00,1.18
5551.00,1.18
5550.00,1.18
5549.00,1.18
5548.00,1.18
5547.00,1.18
5546.00,1.18
5545.00,1.18
5544.00,1.18
5543.00,1.19
5542.00,1.19
5541.00,1.19
5540.00,1.19
5539.00,1.19
5538.00,1.19
5537.00,1.19
5536.00,1.19
5535.00,1.19
5534.00,1.19
5533.00,1.20
5532.00,1.20
5531.00,1.20
5530.00,1.20
5529.00,1.20
5528.00,1.20
5527.00,1.20
5526.00,1.20
5525.00,1.20
5524.00,1.20
5523.00,1.20
5522.00,1.20
5521.00,1.20
5520.00,1.20
5519.00,1.20
5518.00,1.20
5517.00,1.20
5516.00,1.20
5515.00,1.21
5514.00,1.21
5513.00,1.21
5512.00,1.21
5511.00,1.21
5510.00,1.21
5509.00,1.21
5508.00,1.21
5507.00,1.21
5506.00,1.21
5505.00,1.21
5504.00,1.21
5503.00,1.21
5502.00,1.21
5501.00,1.21
5500.00,1.21
5499.00,1.21
5498.00,1.21
5497.00,1.21
5496.00,1.21
5495.00,1.21
5494.00,1.22
5493.00,1.22
5492.00,1.22
5491.00,1.22
5490.00,1.22
5489.00,1.22
5488.00,1.22
5487.00,1.22
5486.00,1.22
5485.00,1.22
5484.00,1.22
5483.00,1.23
5482.00,1.23
5481.00,1.23
5480.00,1.23
5479.00,1.23
5478.00,1.23
5477.00,1.23
5476.00,1.23
5475.00,1.23
5474.00,1.24
5473.00,1.24
5472.00,1.24
5471.00,1.24
5470.00,1.24
5469.00,1.24
5468.00,1.24
5467.00,1.24
5466.00,1.24
5465.00,1.24
5464.00,1.25
5463.00,1.25
5462.00,1.25
5461.00,1.25
5460.00,1.25
5459.00,1.25
5458.00,1.25
5457.00,1.25
5456.00,1.25
5455.00,1.25
5454.00,1.26
5453.00,1.26
5452.00,1.26
5451.00,1.26
5450.00,1.26
5449.00,1.26
5448.00,1.26
5447.00,1.26
5446.00,1.26
5445.00,1.26
5444.00,1.26
5443.00,1.26
5442.00,1.26
5441.00,1.26
5440.00,1.26
5439.00,1.26
5438.00,1.26
5437.00,1.26
5436.00,1.26
5435.00,1.26
5434.00,1.26
5433.00,1.26
5432.00,1.26
5431.00,1.26
5430.00,1.26
5429.00,1.26
5428.00,1.26
5427.00,1.26
5426.00,1.26
5425.00,1.26
5424.00,1.26
5423.00,1.26
5422.00,1.26
5421.00,1.26
5420.00,1.26
5419.00,1.26
5418.00,1.26
5417.00,1.26
5416.00,1.26
5415.00,1.26
5414.00,1.26
5413.00,1.26
5412.00,1.26
5411.00,1.26
5410.00,1.26
5409.00,1.26
5408.00,1.26
5407.00,1.26
5406.00,1.26
5405.00,1.25
5404.00,1.25
5403.00,1.25
5402.00,1.25
5401.00,1.25
5400.00,1.25
5399.00,1.25
5398.00,1.25
5397.00,1.25
5396.00,1.25
5395.00,1.25
5394.00,1.25
5393.00,1.24
5392.00,1.24
5391.00,1.24
5390.00,1.24
5389.00,1.24
5388.00,1.24
5387.00,1.23
5386.00,1.23
5385.00,1.23
5384.00,1.23
5383.00,1.22
5382.00,1.22
5381.00,1.22
5380.00,1.21
5379.00,1.21
5378.00,1.21
5377.00,1.21
5376.00,1.20
5375.00,1.20
5374.00,1.19
5373.00,1.19
5372.00,1.19
5371.00,1.18
5370.00,1.18
5369.00,1.18
5368.00,1.17
5367.00,1.17
5366.00,1.16
5365.00,1.16
5364.00,1.16
5363.00,1.15
5362.00,1.15
5361.00,1.14
5360.00,1.14
5359.00,1.13
5358.00,1.13
5357.00,1.12
5356.00,1.11
5355.00,1.11
5354.00,1.10
5353.00,1.09
5352.00,1.09
5351.00,1.08
5350.00,1.07
5349.00,1.07
5348.00,1.06
5347.00,1.05
5346.00,1.04
5345.00,1.04
5344.00,1.03
5343.00,1.02
5342.00,1.01
5341.00,1.00
5340.00,0.99
5339.00,0.99
5338.00,0.98
5337.00,0.97
5336.00,0.96
5335.00,0.95
5334.00,0.94
5333.00,0.93
5332.00,0.93
5331.00,0.92
5330.00,0.91
5329.00,0.90
5328.00,0.89
5327.00,0.88
5326.00,0.88
5325.00,0.87
5324.00,0.86
5323.00,0.85
5322.00,0.85
5321.00,0.84
5320.00,0.83
5319.00,0.82
5318.00,0.82
5317.00,0.81
5316.00,0.80
5315.00,0.79
5314.00,0.79
5313.00,0.78
5312.00,0.77
5311.00,0.77
5310.00,0.76
5309.00,0.75
5308.00,0.75
5307.00,0.74
5306.00,0.74
5305.00,0.73
5304.00,0.73
5303.00,0.72
5302.00,0.72
5301.00,0.71
5300.00,0.71
5299.00,0.71
5298.00,0.70
5297.00,0.70
5296.00,0.70
5295.00,0.70
5294.00,0.69
5293.00,0.69
5292.00,0.69
5291.00,0.69
5290.00,0.69
5289.00,0.69
5288.00,0.68
5287.00,0.68
5286.00,0.68
5285.00,0.68
5284.00,0.68
5283.00,0.68
5282.00,0.68
5281.00,0.68
5280.00,0.68
5279.00,0.68
5278.00,0.67
5277.00,0.67
5276.00,0.67
5275.00,0.67
5274.00,0.67
5273.00,0.67
5272.00,0.67
5271.00,0.67
5270.00,0.67
5269.00,0.67
5268.00,0.67
5267.00,0.67
5266.00,0.67
5265.00,0.67
5264.00,0.67
5263.00,0.67
5262.00,0.67
5261.00,0.67
5260.00,0.67
5259.00,0.67
5258.00,0.67
5257.00,0.67
5256.00,0.67
5255.00,0.67
5254.00,0.67
5253.00,0.67
5252.00,0.67
5251.00,0.67
5250.00,0.67
5249.00,0.67
5248.00,0.67
5247.00,0.67
5246.00,0.67
5245.00,0.67
5244.00,0.67
5243.00,0.67
5242.00,0.67
5241.00,0.67
5240.00,0.67
5239.00,0.67
5238.00,0.67
5237.00,0.67
5236.00,0.67
5235.00,0.67
5234.00,0.67
5233.00,0.67
5232.00,0.67
5231.00,0.67
5230.00,0.67
5229.00,0.67
5228.00,0.67
5227.00,0.67
5226.00,0.67
5225.00,0.67
5224.00,0.67
5223.00,0.67
5222.00,0.67
5221.00,0.67
5220.00,0.67
5219.00,0.67
5218.00,0.67
5217.00,0.67
5216.00,0.67
5215.00,0.67
5214.00,0.67
5213.00,0.68
5212.00,0.68
5211.00,0.68
5210.00,0.68
5209.00,0.68
5208.00,0.68
5207.00,0.68
5206.00,0.68
5205.00,0.68
5204.00,0.68
5203.00,0.68
5202.00,0.68
5201.00,0.68
5200.00,0.68
5199.00,0.68
5198.00,0.68
5197.00,0.68
5196.00,0.68
5195.00,0.68
5194.00,0.68
5193.00,0.68
5192.00,0.68
5191.00,0.68
5190.00,0.68
5189.00,0.68
5188.00,0.68
5187.00,0.68
5186.00,0.68
5185.00,0.68
5184.00,0.68
5183.00,0.68
5182.00,0.68
5181.00,0.68
5180.00,0.68
5179.00,0.69
5178.00,0.69
5177.00,0.69
5176.00,0.69
5175.00,0.69
5174.00,0.69
5173.00,0.69
5172.00,0.69
5171.00,0.69
5170.00,0.69
5169.00,0.69
5168.00,0.69
5167.00,0.69
5166.00,0.69
5165.00,0.69
5164.00,0.69
5163.00,0.69
5162.00,0.69
5161.00,0.69
5160.00,0.69
5159.00,0.69
5158.00,0.69
5157.00,0.69
5156.00,0.69
5155.00,0.69
5154.00,0.69
5153.00,0.69
5152.00,0.69
5151.00,0.69
5150.00,0.69
5149.00,0.70
5148.00,0.70
5147.00,0.70
5146.00,0.70
5145.00,0.70
5144.00,0.70
5143.00,0.70
5142.00,0.70
5141.00,0.70
5140.00,0.70
5139.00,0.70
5138.00,0.70
5137.00,0.70
5136.00,0.70
5135.00,0.70
5134.00,0.71
5133.00,0.71
5132.00,0.71
5131.00,0.71
5130.00,0.71
5129.00,0.71
5128.00,0.71
5127.00,0.71
5126.00,0.71
5125.00,0.71
5124.00,0.71
5123.00,0.71
5122.00,0.71
5121.00,0.71
5120.00,0.71
5119.00,0.71
5118.00,0.71
5117.00,0.71
5116.00,0.71
5115.00,0.71
5114.00,0.71
5113.00,0.71
5112.00,0.71
5111.00,0.71
5110.00,0.71
5109.00,0.72
5108.00,0.72
5107.00,0.72
5106.00,0.72
5105.00,0.72
5104.00,0.72
5103.00,0.72
5102.00,0.72
5101.00,0.72
5100.00,0.72
5099.00,0.72
5098.00,0.72
5097.00,0.72
5096.00,0.72
5095.00,0.72
5094.00,0.72
5093.00,0.72
5092.00,0.72
5091.00,0.72
5090.00,0.72
5089.00,0.72
5088.00,0.72
5087.00,0.72
5086.00,0.72
5085.00,0.73
5084.00,0.73
5083.00,0.73
5082.00,0.73
5081.00,0.73
5080.00,0.73
5079.00,0.73
5078.00,0.73
5077.00,0.73
5076.00,0.73
5075.00,0.73
5074.00,0.73
5073.00,0.73
5072.00,0.74
5071.00,0.74
5070.00,0.74
5069.00,0.74
5068.00,0.74
5067.00,0.74
5066.00,0.74
5065.00,0.74
5064.00,0.74
5063.00,0.74
5062.00,0.74
5061.00,0.74
5060.00,0.74
5059.00,0.74
5058.00,0.74
5057.00,0.74
5056.00,0.74
5055.00,0.74
5054.00,0.74
5053.00,0.74
5052.00,0.74
5051.00,0.74
5050.00,0.74
5049.00,0.74
5048.00,0.74
5047.00,0.74
5046.00,0.75
5045.00,0.75
5044.00,0.75
5043.00,0.75
5042.00,0.75
5041.00,0.75
5040.00,0.75
5039.00,0.75
5038.00,0.75
5037.00,0.75
5036.00,0.75
5035.00,0.75
5034.00,0.75
5033.00,0.76
5032.00,0.76
5031.00,0.76
5030.00,0.76
5029.00,0.76
5028.00,0.76
5027.00,0.76
5026.00,0.76
5025.00,0.76
5024.00,0.76
5023.00,0.76
5022.00,0.76
5021.00,0.76
5020.00,0.76
5019.00,0.76
5018.00,0.76
5017.00,0.76
5016.00,0.77
5015.00,0.77
5014.00,0.77
5013.00,0.77
5012.00,0.77
5011.00,0.77
5010.00,0.77
5009.00,0.77
5008.00,0.77
5007.00,0.77
5006.00,0.77
5005.00,0.77
5004.00,0.77
5003.00,0.77
5002.00,0.77
5001.00,0.77
5000.00,0.77
4999.00,0.77
4998.00,0.77
4997.00,0.77
4996.00,0.77
4995.00,0.77
4994.00,0.78
4993.00,0.78
4992.00,0.78
4991.00,0.78
4990.00,0.78
4989.00,0.78
4988.00,0.78
4987.00,0.78
4986.00,0.78
4985.00,0.78
4984.00,0.78
4983.00,0.78
4982.00,0.79
4981.00,0.79
4980.00,0.79
4979.00,0.79
4978.00,0.79
4977.00,0.79
4976.00,0.79
4975.00,0.79
4974.00,0.79
4973.00,0.79
4972.00,0.79
4971.00,0.79
4970.00,0.79
4969.00,0.79
4968.00,0.80
4967.00,0.80
4966.00,0.80
4965.00,0.80
4964.00,0.80
4963.00,0.80
4962.00,0.80
4961.00,0.80
4960.00,0.80
4959.00,0.80
4958.00,0.80
4957.00,0.80
4956.00,0.80
4955.00,0.81
4954.00,0.81
4953.00,0.81
4952.00,0.81
4951.00,0.81
4950.00,0.81
4949.00,0.81
4948.00,0.81
4947.00,0.81
4946.00,0.81
4945.00,0.82
4944.00,0.82
4943.00,0.82
4942.00,0.82
4941.00,0.82
4940.00,0.82
4939.00,0.82
4938.00,0.82
4937.00,0.82
4936.00,0.82
4935.00,0.82
4934.00,0.82
4933.00,0.82
4932.00,0.82
4931.00,0.82
4930.00,0.82
4929.00,0.82
4928.00,0.82
4927.00,0.82
4926.00,0.82
4925.00,0.82
4924.00,0.82
4923.00,0.82
4922.00,0.82
4921.00,0.82
4920.00,0.82
4919.00,0.82
4918.00,0.83
4917.00,0.83
4916.00,0.83
4915.00,0.83
4914.00,0.83
4913.00,0.83
4912.00,0.83
4911.00,0.83
4910.00,0.83
4909.00,0.83
4908.00,0.83
4907.00,0.83
4906.00,0.83
4905.00,0.83
4904.00,0.83
4903.00,0.83
4902.00,0.83
4901.00,0.83
4900.00,0.83
4899.00,0.84
4898.00,0.84
4897.00,0.84
4896.00,0.84
4895.00,0.84
4894.00,0.84
4893.00,0.84
4892.00,0.84
4891.00,0.84
4890.00,0.84
4889.00,0.84
4888.00,0.84
4887.00,0.84
4886.00,0.84
4885.00,0.84
4884.00,0.84
4883.00,0.84
4882.00,0.84
4881.00,0.84
4880.00,0.85
4879.00,0.85
4878.00,0.85
4877.00,0.85
4876.00,0.85
4875.00,0.85
4874.00,0.85
4873.00,0.85
4872.00,0.85
4871.00,0.85
4870.00,0.85
4869.00,0.85
4868.00,0.85
4867.00,0.86
4866.00,0.86
4865.00,0.86
4864.00,0.86
4863.00,0.86
4862.00,0.86
4861.00,0.86
4860.00,0.86
4859.00,0.86
4858.00,0.86
4857.00,0.86
4856.00,0.86
4855.00,0.86
4854.00,0.86
4853.00,0.86
4852.00,0.86
4851.00,0.86
4850.00,0.87
4849.00,0.87
4848.00,0.87
4847.00,0.87
4846.00,0.87
4845.00,0.87
4844.00,0.87
4843.00,0.87
4842.00,0.87
4841.00,0.87
4840.00,0.87
4839.00,0.87
4838.00,0.87
4837.00,0.87
4836.00,0.87
4835.00,0.87
4834.00,0.87
4833.00,0.88
4832.00,0.88
4831.00,0.88
4830.00,0.88
4829.00,0.88
4828.00,0.88
4827.00,0.88
4826.00,0.88
4825.00,0.89
4824.00,0.89
4823.00,0.89
4822.00,0.89
4821.00,0.89
4820.00,0.89
4819.00,0.89
4818.00,0.89
4817.00,0.89
4816.00,0.89
4815.00,0.90
4814.00,0.90
4813.00,0.90
4812.00,0.90
4811.00,0.90
4810.00,0.90
4809.00,0.90
4808.00,0.90
4807.00,0.90
4806.00,0.90
4805.00,0.90
4804.00,0.90
4803.00,0.90
4802.00,0.90
4801.00,0.90
4800.00,0.90
4799.00,0.90
4798.00,0.90
4797.00,0.90
4796.00,0.91
4795.00,0.91
4794.00,0.91
4793.00,0.91
4792.00,0.91
4791.00,0.91
4790.00,0.91
4789.00,0.91
4788.00,0.91
4787.00,0.91
4786.00,0.91
4785.00,0.91
4784.00,0.91
4783.00,0.91
4782.00,0.91
4781.00,0.92
4780.00,0.92
4779.00,0.92
4778.00,0.92
4777.00,0.92
4776.00,0.92
4775.00,0.92
4774.00,0.92
4773.00,0.92
4772.00,0.92
4771.00,0.92
4770.00,0.92
4769.00,0.93
4768.00,0.93
4767.00,0.93
4766.00,0.93
4765.00,0.93
4764.00,0.93
4763.00,0.93
4762.00,0.93
4761.00,0.93
4760.00,0.94
4759.00,0.94
4758.00,0.94
4757.00,0.94
4756.00,0.94
4755.00,0.94
4754.00,0.94
4753.00,0.95
4752.00,0.95
4751.00,0.95
4750.00,0.95
4749.00,0.95
4748.00,0.95
4747.00,0.96
4746.00,0.96
4745.00,0.96
4744.00,0.96
4743.00,0.96
4742.00,0.96
4741.00,0.97
4740.00,0.97
4739.00,0.97
4738.00,0.97
4737.00,0.97
4736.00,0.97
4735.00,0.97
4734.00,0.97
4733.00,0.97
4732.00,0.97
4731.00,0.97
4730.00,0.97
4729.00,0.98
4728.00,0.98
4727.00,0.98
4726.00,0.98
4725.00,0.98
4724.00,0.98
4723.00,0.98
4722.00,0.98
4721.00,0.99
4720.00,0.99
4719.00,0.99
4718.00,0.99
4717.00,0.99
4716.00,0.99
4715.00,0.99
4714.00,1.00
4713.00,1.00
4712.00,1.00
4711.00,1.00
4710.00,1.00
4709.00,1.00
4708.00,1.00
4707.00,1.00
4706.00,1.01
4705.00,1.01
4704.00,1.01
4703.00,1.01
4702.00,1.01
4701.00,1.01
4700.00,1.01
4699.00,1.01
4698.00,1.02
4697.00,1.02
4696.00,1.02
4695.00,1.02
4694.00,1.02
4693.00,1.02
4692.00,1.02
4691.00,1.02
4690.00,1.03
4689.00,1.03
4688.00,1.03
4687.00,1.03
4686.00,1.03
4685.00,1.03
4684.00,1.03
4683.00,1.03
4682.00,1.03
4681.00,1.03
4680.00,1.03
4679.00,1.03
4678.00,1.04
4677.00,1.04
4676.00,1.04
4675.00,1.04
4674.00,1.04
4673.00,1.04
4672.00,1.04
4671.00,1.04
4670.00,1.04
4669.00,1.04
4668.00,1.05
4667.00,1.05
4666.00,1.05
4665.00,1.05
4664.00,1.05
4663.00,1.05
4662.00,1.05
4661.00,1.06
4660.00,1.06
4659.00,1.06
4658.00,1.06
4657.00,1.06
4656.00,1.06
4655.00,1.06
4654.00,1.07
4653.00,1.07
4652.00,1.07
4651.00,1.07
4650.00,1.07
4649.00,1.07
4648.00,1.07
4647.00,1.07
4646.00,1.07
4645.00,1.07
4644.00,1.07
4643.00,1.07
4642.00,1.08
4641.00,1.08
4640.00,1.08
4639.00,1.08
4638.00,1.08
4637.00,1.08
4636.00,1.08
4635.00,1.08
4634.00,1.08
4633.00,1.08
4632.00,1.08
4631.00,1.08
4630.00,1.09
4629.00,1.09
4628.00,1.09
4627.00,1.09
4626.00,1.09
4625.00,1.09
4624.00,1.09
4623.00,1.09
4622.00,1.10
4621.00,1.10
4620.00,1.10
4619.00,1.10
4618.00,1.10
4617.00,1.10
4616.00,1.10
4615.00,1.10
4614.00,1.10
4613.00,1.10
4612.00,1.10
4611.00,1.10
4610.00,1.10
4609.00,1.10
4608.00,1.11
4607.00,1.11
4606.00,1.11
4605.00,1.11
4604.00,1.11
4603.00,1.11
4602.00,1.11
4601.00,1.11
4600.00,1.11
4599.00,1.12
4598.00,1.12
4597.00,1.12
4596.00,1.12
4595.00,1.12
4594.00,1.12
4593.00,1.12
4592.00,1.12
4591.00,1.12
4590.00,1.12
4589.00,1.12
4588.00,1.12
4587.00,1.12
4586.00,1.12
4585.00,1.12
4584.00,1.12
4583.00,1.12
4582.00,1.13
4581.00,1.13
4580.00,1.13
4579.00,1.13
4578.00,1.13
4577.00,1.13
4576.00,1.13
4575.00,1.13
4574.00,1.13
4573.00,1.13
4572.00,1.13
4571.00,1.13
4570.00,1.13
4569.00,1.14
4568.00,1.14
4567.00,1.14
4566.00,1.14
4565.00,1.14
4564.00,1.14
4563.00,1.14
4562.00,1.14
4561.00,1.15
4560.00,1.15
4559.00,1.15
4558.00,1.15
4557.00,1.15
4556.00,1.15
4555.00,1.15
4554.00,1.15
4553.00,1.15
4552.00,1.15
4551.00,1.15
4550.00,1.15
4549.00,1.15
4548.00,1.15
4547.00,1.15
4546.00,1.15
4545.00,1.15
4544.00,1.15
4543.00,1.16
4542.00,1.16
4541.00,1.16
4540.00,1.16
4539.00,1.16
4538.00,1.16
4537.00,1.16
4536.00,1.16
4535.00,1.16
4534.00,1.16
4533.00,1.16
4532.00,1.16
4531.00,1.16
4530.00,1.16
4529.00,1.16
4528.00,1.16
4527.00,1.16
4526.00,1.16
4525.00,1.16
4524.00,1.16
4523.00,1.16
4522.00,1.16
4521.00,1.17
4520.00,1.17
4519.00,1.17
4518.00,1.17
4517.00,1.17
4516.00,1.17
4515.00,1.17
4514.00,1.17
4513.00,1.17
4512.00,1.17
4511.00,1.17
4510.00,1.17
4509.00,1.17
4508.00,1.17
4507.00,1.17
4506.00,1.17
4505.00,1.17
4504.00,1.17
4503.00,1.17
4502.00,1.17
4501.00,1.17
4500.00,1.17
4499.00,1.17
4498.00,1.17
4497.00,1.16
4496.00,1.16
4495.00,1.16
4494.00,1.16
4493.00,1.16
4492.00,1.16
4491.00,1.16
4490.00,1.16
4489.00,1.16
4488.00,1.16
4487.00,1.16
4486.00,1.16
4485.00,1.16
4484.00,1.16
4483.00,1.16
4482.00,1.16
4481.00,1.15
4480.00,1.15
4479.00,1.15
4478.00,1.15
4477.00,1.15
4476.00,1.15
4475.00,1.15
4474.00,1.15
4473.00,1.15
4472.00,1.14
4471.00,1.14
4470.00,1.14
4469.00,1.14
4468.00,1.14
4467.00,1.14
4466.00,1.13
4465.00,1.13
4464.00,1.13
4463.00,1.13
4462.00,1.13
4461.00,1.12
4460.00,1.12
4459.00,1.12
4458.00,1.12
4457.00,1.11
4456.00,1.11
4455.00,1.11
4454.00,1.11
4453.00,1.10
4452.00,1.10
4451.00,1.10
4450.00,1.10
4449.00,1.09
4448.00,1.09
4447.00,1.09
4446.00,1.08
4445.00,1.08
4444.00,1.08
4443.00,1.07
4442.00,1.07
4441.00,1.07
4440.00,1.07
4439.00,1.06
4438.00,1.06
4437.00,1.06
4436.00,1.06
4435.00,1.05
4434.00,1.05
4433.00,1.05
4432.00,1.05
4431.00,1.04
4430.00,1.04
4429.00,1.04
4428.00,1.04
4427.00,1.04
4426.00,1.03
4425.00,1.03
4424.00,1.03
4423.00,1.03
4422.00,1.03
4421.00,1.03
4420.00,1.03
4419.00,1.03
4418.00,1.03
4417.00,1.03
4416.00,1.03
4415.00,1.03
4414.00,1.03
4413.00,1.03
4412.00,1.03
4411.00,1.03
4410.00,1.03
4409.00,1.03
4408.00,1.03
4407.00,1.03
4406.00,1.04
4405.00,1.04
4404.00,1.04
4403.00,1.04
4402.00,1.04
4401.00,1.04
4400.00,1.04
4399.00,1.04
4398.00,1.04
4397.00,1.04
4396.00,1.04
4395.00,1.04
4394.00,1.04
4393.00,1.04
4392.00,1.04
4391.00,1.04
4390.00,1.04
4389.00,1.04
4388.00,1.05
4387.00,1.05
4386.00,1.05
4385.00,1.05
4384.00,1.05
4383.00,1.05
4382.00,1.05
4381.00,1.05
4380.00,1.05
4379.00,1.05
4378.00,1.05
4377.00,1.05
4376.00,1.06
4375.00,1.06
4374.00,1.06
4373.00,1.06
4372.00,1.06
4371.00,1.06
4370.00,1.06
4369.00,1.06
4368.00,1.06
4367.00,1.06
4366.00,1.06
4365.00,1.06
4364.00,1.06
4363.00,1.06
4362.00,1.06
4361.00,1.06
4360.00,1.06
4359.00,1.06
4358.00,1.06
4357.00,1.06
4356.00,1.06
4355.00,1.06
4354.00,1.06
4353.00,1.06
4352.00,1.06
4351.00,1.06
4350.00,1.06
4349.00,1.06
4348.00,1.06
4347.00,1.06
4346.00,1.06
4345.00,1.06
4344.00,1.06
4343.00,1.06
4342.00,1.07
4341.00,1.07
4340.00,1.07
4339.00,1.07
4338.00,1.07
4337.00,1.07
4336.00,1.07
4335.00,1.07
4334.00,1.07
4333.00,1.07
4332.00,1.07
4331.00,1.07
4330.00,1.07
4329.00,1.08
4328.00,1.08
4327.00,1.08
4326.00,1.08
4325.00,1.08
4324.00,1.08
4323.00,1.08
4322.00,1.08
4321.00,1.08
4320.00,1.09
4319.00,1.09
4318.00,1.09
4317.00,1.09
4316.00,1.09
4315.00,1.09
4314.00,1.09
4313.00,1.09
4312.00,1.09
4311.00,1.10
4310.00,1.10
4309.00,1.10
4308.00,1.10
4307.00,1.10
4306.00,1.10
4305.00,1.10
4304.00,1.10
4303.00,1.11
4302.00,1.11
4301.00,1.11
4300.00,1.11
4299.00,1.11
4298.00,1.11
4297.00,1.12
4296.00,1.12
4295.00,1.12
4294.00,1.12
4293.00,1.12
4292.00,1.13
4291.00,1.13
4290.00,1.13
4289.00,1.13
4288.00,1.13
4287.00,1.13
4286.00,1.13
4285.00,1.14
4284.00,1.14
4283.00,1.14
4282.00,1.14
4281.00,1.14
4280.00,1.14
4279.00,1.14
4278.00,1.14
4277.00,1.14
4276.00,1.14
4275.00,1.14
4274.00,1.14
4273.00,1.14
4272.00,1.14
4271.00,1.14
4270.00,1.14
4269.00,1.14
4268.00,1.14
4267.00,1.14
4266.00,1.14
4265.00,1.14
4264.00,1.14
4263.00,1.14
4262.00,1.14
4261.00,1.14
4260.00,1.14
4259.00,1.14
4258.00,1.14
4257.00,1.14
4256.00,1.14
4255.00,1.14
4254.00,1.13
4253.00,1.13
4252.00,1.13
4251.00,1.13
4250.00,1.13
4249.00,1.13
4248.00,1.13
4247.00,1.13
4246.00,1.13
4245.00,1.13
4244.00,1.13
4243.00,1.13
4242.00,1.13
4241.00,1.13
4240.00,1.14
4239.00,1.14
4238.00,1.14
4237.00,1.14
4236.00,1.14
4235.00,1.14
4234.00,1.14
4233.00,1.14
4232.00,1.15
4231.00,1.15
4230.00,1.15
4229.00,1.15
4228.00,1.15
4227.00,1.15
4226.00,1.15
4225.00,1.15
4224.00,1.15
4223.00,1.16
4222.00,1.16
4221.00,1.16
4220.00,1.16
4219.00,1.16
4218.00,1.16
4217.00,1.16
4216.00,1.16
4215.00,1.16
4214.00,1.16
4213.00,1.16
4212.00,1.16
4211.00,1.16
4210.00,1.16
4209.00,1.16
4208.00,1.16
4207.00,1.16
4206.00,1.16
4205.00,1.16
4204.00,1.16
4203.00,1.16
4202.00,1.16
4201.00,1.16
4200.00,1.17
4199.00,1.17
4198.00,1.17
4197.00,1.17
4196.00,1.17
4195.00,1.17
4194.00,1.17
4193.00,1.17
4192.00,1.17
4191.00,1.17
4190.00,1.17
4189.00,1.17
4188.00,1.17
4187.00,1.17
4186.00,1.17
4185.00,1.17
4184.00,1.17
4183.00,1.17
4182.00,1.17
4181.00,1.17
4180.00,1.17
4179.00,1.17
4178.00,1.17
4177.00,1.18
4176.00,1.18
4175.00,1.18
4174.00,1.18
4173.00,1.18
4172.00,1.18
4171.00,1.18
4170.00,1.18
4169.00,1.18
4168.00,1.18
4167.00,1.19
4166.00,1.19
4165.00,1.19
4164.00,1.19
4163.00,1.19
4162.00,1.19
4161.00,1.19
4160.00,1.19
4159.00,1.19
4158.00,1.19
4157.00,1.18
4156.00,1.18
4155.00,1.18
4154.00,1.18
4153.00,1.18
4152.00,1.18
4151.00,1.18
4150.00,1.18
4149.00,1.18
4148.00,1.18
4147.00,1.18
4146.00,1.18
4145.00,1.18
4144.00,1.18
4143.00,1.18
4142.00,1.18
4141.00,1.18
4140.00,1.18
4139.00,1.18
4138.00,1.18
4137.00,1.18
4136.00,1.18
4135.00,1.19
4134.00,1.19
4133.00,1.19
4132.00,1.19
4131.00,1.19
4130.00,1.20
4129.00,1.20
4128.00,1.20
4127.00,1.20
4126.00,1.20
4125.00,1.20
4124.00,1.20
4123.00,1.20
4122.00,1.20
4121.00,1.20
4120.00,1.20
4119.00,1.20
4118.00,1.21
4117.00,1.21
4116.00,1.21
4115.00,1.21
4114.00,1.21
4113.00,1.21
4112.00,1.21
4111.00,1.21
4110.00,1.21
4109.00,1.21
4108.00,1.21
4107.00,1.21
4106.00,1.21
4105.00,1.21
4104.00,1.21
4103.00,1.21
4102.00,1.21
4101.00,1.21
4100.00,1.21
4099.00,1.21
4098.00,1.21
4097.00,1.21
4096.00,1.21
4095.00,1.21
4094.00,1.21
4093.00,1.21
4092.00,1.21
4091.00,1.21
4090.00,1.21
4089.00,1.21
4088.00,1.21
4087.00,1.21
4086.00,1.21
4085.00,1.21
4084.00,1.21
4083.00,1.21
4082.00,1.21
4081.00,1.21
4080.00,1.21
4079.00,1.21
4078.00,1.21
4077.00,1.21
4076.00,1.21
4075.00,1.21
4074.00,1.21
4073.00,1.21
4072.00,1.21
4071.00,1.21
4070.00,1.21
4069.00,1.21
4068.00,1.21
4067.00,1.21
4066.00,1.21
4065.00,1.21
4064.00,1.21
4063.00,1.21
4062.00,1.21
4061.00,1.21
4060.00,1.21
4059.00,1.21
4058.00,1.21
4057.00,1.21
4056.00,1.21
4055.00,1.21
4054.00,1.21
4053.00,1.21
4052.00,1.22
4051.00,1.22
4050.00,1.22
4049.00,1.22
4048.00,1.22
4047.00,1.23
4046.00,1.23
4045.00,1.23
4044.00,1.23
4043.00,1.23
4042.00,1.24
4041.00,1.24
4040.00,1.24
4039.00,1.24
4038.00,1.24
4037.00,1.25
4036.00,1.25
4035.00,1.25
4034.00,1.25
4033.00,1.25
4032.00,1.25
4031.00,1.26
4030.00,1.26
4029.00,1.26
4028.00,1.26
4027.00,1.26
4026.00,1.26
4025.00,1.26
4024.00,1.26
4023.00,1.26
4022.00,1.26
4021.00,1.26
4020.00,1.26
4019.00,1.26
4018.00,1.26
4017.00,1.26
4016.00,1.26
4015.00,1.25
4014.00,1.25
4013.00,1.25
4012.00,1.25
4011.00,1.25
4010.00,1.25
4009.00,1.25
4008.00,1.25
4007.00,1.25
4006.00,1.26
4005.00,1.26
4004.00,1.26
4003.00,1.26
4002.00,1.26
4001.00,1.26
4000.00,1.26
