创建为新数据集,样品 003 用户 Administrator 日期 星期二, 十月 31 2017
cm-1,%T
10000.00,1.78
9999.00,1.78
9998.00,1.78
9997.00,1.77
9996.00,1.77
9995.00,1.77
9994.00,1.77
9993.00,1.76
9992.00,1.76
9991.00,1.76
9990.00,1.76
9989.00,1.76
9988.00,1.76
9987.00,1.75
9986.00,1.75
9985.00,1.75
9984.00,1.75
9983.00,1.75
9982.00,1.76
9981.00,1.76
9980.00,1.76
9979.00,1.76
9978.00,1.76
9977.00,1.76
9976.00,1.77
9975.00,1.77
9974.00,1.77
9973.00,1.77
9972.00,1.77
9971.00,1.78
9970.00,1.78
9969.00,1.78
9968.00,1.78
9967.00,1.78
9966.00,1.78
9965.00,1.78
9964.00,1.78
9963.00,1.78
9962.00,1.78
9961.00,1.78
9960.00,1.77
9959.00,1.77
9958.00,1.77
9957.00,1.76
9956.00,1.76
9955.00,1.76
9954.00,1.75
9953.00,1.75
9952.00,1.75
9951.00,1.74
9950.00,1.74
9949.00,1.74
9948.00,1.74
9947.00,1.74
9946.00,1.74
9945.00,1.74
9944.00,1.74
9943.00,1.74
9942.00,1.74
9941.00,1.74
9940.00,1.74
9939.00,1.75
9938.00,1.75
9937.00,1.75
9936.00,1.75
9935.00,1.75
9934.00,1.75
9933.00,1.75
9932.00,1.76
9931.00,1.76
9930.00,1.76
9929.00,1.76
9928.00,1.75
9927.00,1.75
9926.00,1.75
9925.00,1.75
9924.00,1.75
9923.00,1.75
9922.00,1.75
9921.00,1.75
9920.00,1.74
9919.00,1.74
9918.00,1.74
9917.00,1.74
9916.00,1.74
9915.00,1.74
9914.00,1.74
9913.00,1.74
9912.00,1.74
9911.00,1.73
9910.00,1.73
9909.00,1.73
9908.00,1.73
9907.00,1.73
9906.00,1.73
9905.00,1.73
9904.00,1.73
9903.00,1.73
9902.00,1.73
9901.00,1.73
9900.00,1.73
9899.00,1.73
9898.00,1.73
9897.00,1.73
9896.00,1.73
9895.00,1.73
9894.00,1.73
9893.00,1.73
9892.00,1.73
9891.00,1.73
9890.00,1.73
9889.00,1.74
9888.00,1.74
9887.00,1.74
9886.00,1.74
9885.00,1.74
9884.00,1.74
9883.00,1.74
9882.00,1.74
9881.00,1.74
9880.00,1.75
9879.00,1.75
9878.00,1.75
9877.00,1.75
9876.00,1.75
9875.00,1.75
9874.00,1.75
9873.00,1.75
9872.00,1.75
9871.00,1.75
9870.00,1.75
9869.00,1.75
9868.00,1.75
9867.00,1.75
9866.00,1.75
9865.00,1.75
9864.00,1.75
9863.00,1.75
9862.00,1.75
9861.00,1.75
9860.00,1.74
9859.00,1.74
9858.00,1.74
9857.00,1.74
9856.00,1.74
9855.00,1.74
9854.00,1.74
9853.00,1.74
9852.00,1.74
9851.00,1.73
9850.00,1.73
9849.00,1.74
9848.00,1.74
9847.00,1.74
9846.00,1.74
9845.00,1.74
9844.00,1.74
9843.00,1.74
9842.00,1.74
9841.00,1.74
9840.00,1.74
9839.00,1.74
9838.00,1.74
9837.00,1.74
9836.00,1.74
9835.00,1.74
9834.00,1.74
9833.00,1.74
9832.00,1.73
9831.00,1.73
9830.00,1.73
9829.00,1.73
9828.00,1.73
9827.00,1.73
9826.00,1.73
9825.00,1.73
9824.00,1.73
9823.00,1.73
9822.00,1.73
9821.00,1.73
9820.00,1.73
9819.00,1.73
9818.00,1.74
9817.00,1.74
9816.00,1.74
9815.00,1.74
9814.00,1.74
9813.00,1.74
9812.00,1.74
9811.00,1.74
9810.00,1.74
9809.00,1.74
9808.00,1.74
9807.00,1.74
9806.00,1.74
9805.00,1.74
9804.00,1.74
9803.00,1.73
9802.00,1.73
9801.00,1.73
9800.00,1.73
9799.00,1.73
9798.00,1.73
9797.00,1.73
9796.00,1.73
9795.00,1.73
9794.00,1.73
9793.00,1.73
9792.00,1.73
9791.00,1.73
9790.00,1.73
9789.00,1.73
9788.00,1.73
9787.00,1.73
9786.00,1.73
9785.00,1.73
9784.00,1.73
9783.00,1.73
9782.00,1.73
9781.00,1.73
9780.00,1.73
9779.00,1.73
9778.00,1.74
9777.00,1.74
9776.00,1.74
9775.00,1.74
9774.00,1.74
9773.00,1.74
9772.00,1.74
9771.00,1.75
9770.00,1.75
9769.00,1.75
9768.00,1.75
9767.00,1.75
9766.00,1.75
9765.00,1.75
9764.00,1.75
9763.00,1.75
9762.00,1.75
9761.00,1.75
9760.00,1.75
9759.00,1.74
9758.00,1.74
9757.00,1.74
9756.00,1.74
9755.00,1.74
9754.00,1.74
9753.00,1.74
9752.00,1.74
9751.00,1.74
9750.00,1.74
9749.00,1.74
9748.00,1.75
9747.00,1.75
9746.00,1.75
9745.00,1.75
9744.00,1.75
9743.00,1.75
9742.00,1.76
9741.00,1.76
9740.00,1.76
9739.00,1.76
9738.00,1.76
9737.00,1.76
9736.00,1.76
9735.00,1.76
9734.00,1.75
9733.00,1.75
9732.00,1.75
9731.00,1.75
9730.00,1.75
9729.00,1.75
9728.00,1.75
9727.00,1.75
9726.00,1.75
9725.00,1.75
9724.00,1.75
9723.00,1.74
9722.00,1.75
9721.00,1.75
9720.00,1.75
9719.00,1.75
9718.00,1.75
9717.00,1.75
9716.00,1.75
9715.00,1.75
9714.00,1.75
9713.00,1.75
9712.00,1.76
9711.00,1.76
9710.00,1.76
9709.00,1.76
9708.00,1.76
9707.00,1.76
9706.00,1.76
9705.00,1.76
9704.00,1.76
9703.00,1.76
9702.00,1.77
9701.00,1.77
9700.00,1.77
9699.00,1.77
9698.00,1.77
9697.00,1.77
9696.00,1.77
9695.00,1.77
9694.00,1.77
9693.00,1.78
9692.00,1.78
9691.00,1.78
9690.00,1.78
9689.00,1.78
9688.00,1.78
9687.00,1.78
9686.00,1.78
9685.00,1.78
9684.00,1.78
9683.00,1.78
9682.00,1.78
9681.00,1.77
9680.00,1.77
9679.00,1.77
9678.00,1.77
9677.00,1.77
9676.00,1.77
9675.00,1.76
9674.00,1.76
9673.00,1.76
9672.00,1.76
9671.00,1.76
9670.00,1.76
9669.00,1.76
9668.00,1.75
9667.00,1.75
9666.00,1.75
9665.00,1.75
9664.00,1.75
9663.00,1.75
9662.00,1.75
9661.00,1.75
9660.00,1.75
9659.00,1.75
9658.00,1.75
9657.00,1.75
9656.00,1.75
9655.00,1.75
9654.00,1.75
9653.00,1.75
9652.00,1.75
9651.00,1.75
9650.00,1.75
9649.00,1.75
9648.00,1.75
9647.00,1.75
9646.00,1.75
9645.00,1.75
9644.00,1.75
9643.00,1.75
9642.00,1.75
9641.00,1.74
9640.00,1.74
9639.00,1.75
9638.00,1.75
9637.00,1.75
9636.00,1.75
9635.00,1.75
9634.00,1.75
9633.00,1.75
9632.00,1.75
9631.00,1.76
9630.00,1.76
9629.00,1.76
9628.00,1.76
9627.00,1.76
9626.00,1.76
9625.00,1.77
9624.00,1.77
9623.00,1.77
9622.00,1.77
9621.00,1.77
9620.00,1.77
9619.00,1.77
9618.00,1.77
9617.00,1.76
9616.00,1.76
9615.00,1.76
9614.00,1.76
9613.00,1.76
9612.00,1.76
9611.00,1.76
9610.00,1.76
9609.00,1.76
9608.00,1.76
9607.00,1.76
9606.00,1.76
9605.00,1.76
9604.00,1.76
9603.00,1.76
9602.00,1.76
9601.00,1.76
9600.00,1.75
9599.00,1.75
9598.00,1.75
9597.00,1.75
9596.00,1.75
9595.00,1.75
9594.00,1.75
9593.00,1.75
9592.00,1.75
9591.00,1.74
9590.00,1.74
9589.00,1.74
9588.00,1.74
9587.00,1.75
9586.00,1.75
9585.00,1.75
9584.00,1.75
9583.00,1.75
9582.00,1.75
9581.00,1.75
9580.00,1.76
9579.00,1.76
9578.00,1.76
9577.00,1.76
9576.00,1.77
9575.00,1.77
9574.00,1.77
9573.00,1.77
9572.00,1.77
9571.00,1.77
9570.00,1.77
9569.00,1.77
9568.00,1.77
9567.00,1.77
9566.00,1.77
9565.00,1.77
9564.00,1.77
9563.00,1.77
9562.00,1.77
9561.00,1.77
9560.00,1.77
9559.00,1.77
9558.00,1.77
9557.00,1.77
9556.00,1.77
9555.00,1.77
9554.00,1.77
9553.00,1.77
9552.00,1.77
9551.00,1.77
9550.00,1.77
9549.00,1.77
9548.00,1.77
9547.00,1.77
9546.00,1.77
9545.00,1.77
9544.00,1.77
9543.00,1.77
9542.00,1.77
9541.00,1.77
9540.00,1.77
9539.00,1.77
9538.00,1.77
9537.00,1.77
9536.00,1.77
9535.00,1.77
9534.00,1.77
9533.00,1.77
9532.00,1.77
9531.00,1.77
9530.00,1.77
9529.00,1.77
9528.00,1.77
9527.00,1.77
9526.00,1.77
9525.00,1.77
9524.00,1.77
9523.00,1.77
9522.00,1.77
9521.00,1.77
9520.00,1.77
9519.00,1.77
9518.00,1.77
9517.00,1.76
9516.00,1.76
9515.00,1.76
9514.00,1.76
9513.00,1.76
9512.00,1.76
9511.00,1.76
9510.00,1.76
9509.00,1.76
9508.00,1.76
9507.00,1.76
9506.00,1.76
9505.00,1.76
9504.00,1.76
9503.00,1.76
9502.00,1.76
9501.00,1.76
9500.00,1.76
9499.00,1.76
9498.00,1.76
9497.00,1.76
9496.00,1.76
9495.00,1.76
9494.00,1.76
9493.00,1.76
9492.00,1.76
9491.00,1.76
9490.00,1.75
9489.00,1.75
9488.00,1.75
9487.00,1.75
9486.00,1.75
9485.00,1.75
9484.00,1.75
9483.00,1.75
9482.00,1.74
9481.00,1.74
9480.00,1.74
9479.00,1.74
9478.00,1.74
9477.00,1.74
9476.00,1.74
9475.00,1.74
9474.00,1.74
9473.00,1.74
9472.00,1.74
9471.00,1.74
9470.00,1.74
9469.00,1.74
9468.00,1.74
9467.00,1.74
9466.00,1.73
9465.00,1.73
9464.00,1.73
9463.00,1.73
9462.00,1.73
9461.00,1.73
9460.00,1.74
9459.00,1.74
9458.00,1.74
9457.00,1.74
9456.00,1.74
9455.00,1.74
9454.00,1.74
9453.00,1.74
9452.00,1.75
9451.00,1.75
9450.00,1.75
9449.00,1.75
9448.00,1.75
9447.00,1.76
9446.00,1.76
9445.00,1.76
9444.00,1.76
9443.00,1.76
9442.00,1.76
9441.00,1.76
9440.00,1.76
9439.00,1.76
9438.00,1.76
9437.00,1.76
9436.00,1.76
9435.00,1.76
9434.00,1.76
9433.00,1.76
9432.00,1.76
9431.00,1.76
9430.00,1.75
9429.00,1.75
9428.00,1.75
9427.00,1.75
9426.00,1.75
9425.00,1.75
9424.00,1.75
9423.00,1.76
9422.00,1.76
9421.00,1.76
9420.00,1.76
9419.00,1.76
9418.00,1.76
9417.00,1.76
9416.00,1.77
9415.00,1.77
9414.00,1.77
9413.00,1.77
9412.00,1.77
9411.00,1.77
9410.00,1.77
9409.00,1.78
9408.00,1.78
9407.00,1.78
9406.00,1.78
9405.00,1.78
9404.00,1.78
9403.00,1.78
9402.00,1.78
9401.00,1.78
9400.00,1.78
9399.00,1.78
9398.00,1.78
9397.00,1.77
9396.00,1.77
9395.00,1.77
9394.00,1.77
9393.00,1.77
9392.00,1.76
9391.00,1.76
9390.00,1.76
9389.00,1.76
9388.00,1.76
9387.00,1.76
9386.00,1.76
9385.00,1.76
9384.00,1.76
9383.00,1.76
9382.00,1.76
9381.00,1.76
9380.00,1.76
9379.00,1.76
9378.00,1.76
9377.00,1.76
9376.00,1.76
9375.00,1.76
9374.00,1.76
9373.00,1.76
9372.00,1.75
9371.00,1.75
9370.00,1.75
9369.00,1.75
9368.00,1.75
9367.00,1.75
9366.00,1.75
9365.00,1.75
9364.00,1.75
9363.00,1.74
9362.00,1.74
9361.00,1.74
9360.00,1.74
9359.00,1.74
9358.00,1.74
9357.00,1.74
9356.00,1.74
9355.00,1.74
9354.00,1.74
9353.00,1.74
9352.00,1.74
9351.00,1.74
9350.00,1.74
9349.00,1.74
9348.00,1.74
9347.00,1.74
9346.00,1.74
9345.00,1.74
9344.00,1.74
9343.00,1.74
9342.00,1.74
9341.00,1.74
9340.00,1.74
9339.00,1.74
9338.00,1.74
9337.00,1.74
9336.00,1.75
9335.00,1.75
9334.00,1.75
9333.00,1.75
9332.00,1.75
9331.00,1.75
9330.00,1.75
9329.00,1.75
9328.00,1.75
9327.00,1.75
9326.00,1.75
9325.00,1.75
9324.00,1.75
9323.00,1.75
9322.00,1.74
9321.00,1.74
9320.00,1.74
9319.00,1.74
9318.00,1.74
9317.00,1.74
9316.00,1.74
9315.00,1.74
9314.00,1.74
9313.00,1.74
9312.00,1.74
9311.00,1.74
9310.00,1.74
9309.00,1.74
9308.00,1.74
9307.00,1.74
9306.00,1.74
9305.00,1.74
9304.00,1.75
9303.00,1.75
9302.00,1.75
9301.00,1.75
9300.00,1.75
9299.00,1.75
9298.00,1.75
9297.00,1.75
9296.00,1.75
9295.00,1.75
9294.00,1.75
9293.00,1.75
9292.00,1.75
9291.00,1.75
9290.00,1.75
9289.00,1.76
9288.00,1.76
9287.00,1.76
9286.00,1.76
9285.00,1.76
9284.00,1.76
9283.00,1.76
9282.00,1.76
9281.00,1.76
9280.00,1.76
9279.00,1.76
9278.00,1.76
9277.00,1.76
9276.00,1.76
9275.00,1.76
9274.00,1.76
9273.00,1.77
9272.00,1.77
9271.00,1.77
9270.00,1.77
9269.00,1.77
9268.00,1.76
9267.00,1.76
9266.00,1.76
9265.00,1.76
9264.00,1.76
9263.00,1.76
9262.00,1.76
9261.00,1.76
9260.00,1.75
9259.00,1.75
9258.00,1.75
9257.00,1.75
9256.00,1.75
9255.00,1.75
9254.00,1.75
9253.00,1.75
9252.00,1.75
9251.00,1.75
9250.00,1.75
9249.00,1.75
9248.00,1.75
9247.00,1.76
9246.00,1.75
9245.00,1.75
9244.00,1.75
9243.00,1.75
9242.00,1.75
9241.00,1.75
9240.00,1.75
9239.00,1.75
9238.00,1.74
9237.00,1.74
9236.00,1.74
9235.00,1.74
9234.00,1.74
9233.00,1.74
9232.00,1.74
9231.00,1.74
9230.00,1.74
9229.00,1.74
9228.00,1.74
9227.00,1.74
9226.00,1.74
9225.00,1.74
9224.00,1.75
9223.00,1.75
9222.00,1.75
9221.00,1.75
9220.00,1.75
9219.00,1.76
9218.00,1.76
9217.00,1.76
9216.00,1.76
9215.00,1.77
9214.00,1.77
9213.00,1.77
9212.00,1.77
9211.00,1.77
9210.00,1.77
9209.00,1.77
9208.00,1.77
9207.00,1.77
9206.00,1.77
9205.00,1.77
9204.00,1.76
9203.00,1.76
9202.00,1.76
9201.00,1.76
9200.00,1.76
9199.00,1.75
9198.00,1.75
9197.00,1.75
9196.00,1.75
9195.00,1.75
9194.00,1.75
9193.00,1.75
9192.00,1.75
9191.00,1.75
9190.00,1.75
9189.00,1.75
9188.00,1.76
9187.00,1.76
9186.00,1.76
9185.00,1.76
9184.00,1.76
9183.00,1.77
9182.00,1.77
9181.00,1.77
9180.00,1.77
9179.00,1.77
9178.00,1.77
9177.00,1.77
9176.00,1.77
9175.00,1.77
9174.00,1.77
9173.00,1.77
9172.00,1.77
9171.00,1.77
9170.00,1.77
9169.00,1.77
9168.00,1.77
9167.00,1.77
9166.00,1.77
9165.00,1.77
9164.00,1.77
9163.00,1.77
9162.00,1.77
9161.00,1.77
9160.00,1.77
9159.00,1.77
9158.00,1.77
9157.00,1.77
9156.00,1.77
9155.00,1.77
9154.00,1.77
9153.00,1.77
9152.00,1.77
9151.00,1.77
9150.00,1.76
9149.00,1.76
9148.00,1.76
9147.00,1.76
9146.00,1.76
9145.00,1.76
9144.00,1.76
9143.00,1.76
9142.00,1.75
9141.00,1.75
9140.00,1.75
9139.00,1.75
9138.00,1.75
9137.00,1.75
9136.00,1.76
9135.00,1.76
9134.00,1.76
9133.00,1.76
9132.00,1.76
9131.00,1.76
9130.00,1.76
9129.00,1.77
9128.00,1.77
9127.00,1.77
9126.00,1.77
9125.00,1.77
9124.00,1.77
9123.00,1.77
9122.00,1.77
9121.00,1.77
9120.00,1.77
9119.00,1.77
9118.00,1.77
9117.00,1.77
9116.00,1.77
9115.00,1.77
9114.00,1.77
9113.00,1.77
9112.00,1.77
9111.00,1.77
9110.00,1.77
9109.00,1.77
9108.00,1.77
9107.00,1.77
9106.00,1.77
9105.00,1.77
9104.00,1.77
9103.00,1.77
9102.00,1.76
9101.00,1.76
9100.00,1.76
9099.00,1.76
9098.00,1.76
9097.00,1.76
9096.00,1.76
9095.00,1.76
9094.00,1.76
9093.00,1.76
9092.00,1.76
9091.00,1.76
9090.00,1.76
9089.00,1.77
9088.00,1.77
9087.00,1.77
9086.00,1.77
9085.00,1.77
9084.00,1.77
9083.00,1.77
9082.00,1.78
9081.00,1.78
9080.00,1.78
9079.00,1.78
9078.00,1.78
9077.00,1.78
9076.00,1.78
9075.00,1.78
9074.00,1.78
9073.00,1.78
9072.00,1.78
9071.00,1.78
9070.00,1.77
9069.00,1.77
9068.00,1.77
9067.00,1.77
9066.00,1.77
9065.00,1.77
9064.00,1.77
9063.00,1.77
9062.00,1.77
9061.00,1.77
9060.00,1.76
9059.00,1.76
9058.00,1.77
9057.00,1.77
9056.00,1.77
9055.00,1.77
9054.00,1.77
9053.00,1.77
9052.00,1.77
9051.00,1.77
9050.00,1.77
9049.00,1.77
9048.00,1.77
9047.00,1.77
9046.00,1.77
9045.00,1.77
9044.00,1.77
9043.00,1.77
9042.00,1.77
9041.00,1.77
9040.00,1.77
9039.00,1.77
9038.00,1.77
9037.00,1.77
9036.00,1.77
9035.00,1.77
9034.00,1.77
9033.00,1.77
9032.00,1.77
9031.00,1.77
9030.00,1.77
9029.00,1.77
9028.00,1.77
9027.00,1.77
9026.00,1.77
9025.00,1.77
9024.00,1.77
9023.00,1.77
9022.00,1.77
9021.00,1.77
9020.00,1.76
9019.00,1.76
9018.00,1.76
9017.00,1.76
9016.00,1.76
9015.00,1.76
9014.00,1.76
9013.00,1.76
9012.00,1.75
9011.00,1.75
9010.00,1.75
9009.00,1.75
9008.00,1.75
9007.00,1.75
9006.00,1.75
9005.00,1.75
9004.00,1.75
9003.00,1.75
9002.00,1.75
9001.00,1.75
9000.00,1.75
8999.00,1.75
8998.00,1.76
8997.00,1.76
8996.00,1.76
8995.00,1.76
8994.00,1.76
8993.00,1.76
8992.00,1.76
8991.00,1.77
8990.00,1.77
8989.00,1.77
8988.00,1.77
8987.00,1.77
8986.00,1.77
8985.00,1.77
8984.00,1.77
8983.00,1.77
8982.00,1.77
8981.00,1.77
8980.00,1.77
8979.00,1.77
8978.00,1.77
8977.00,1.77
8976.00,1.77
8975.00,1.77
8974.00,1.77
8973.00,1.77
8972.00,1.77
8971.00,1.77
8970.00,1.77
8969.00,1.77
8968.00,1.77
8967.00,1.77
8966.00,1.77
8965.00,1.77
8964.00,1.77
8963.00,1.77
8962.00,1.77
8961.00,1.77
8960.00,1.77
8959.00,1.77
8958.00,1.77
8957.00,1.77
8956.00,1.77
8955.00,1.76
8954.00,1.76
8953.00,1.76
8952.00,1.76
8951.00,1.76
8950.00,1.75
8949.00,1.75
8948.00,1.75
8947.00,1.75
8946.00,1.75
8945.00,1.75
8944.00,1.75
8943.00,1.75
8942.00,1.75
8941.00,1.75
8940.00,1.75
8939.00,1.75
8938.00,1.75
8937.00,1.76
8936.00,1.76
8935.00,1.76
8934.00,1.76
8933.00,1.76
8932.00,1.76
8931.00,1.76
8930.00,1.76
8929.00,1.76
8928.00,1.76
8927.00,1.76
8926.00,1.76
8925.00,1.76
8924.00,1.76
8923.00,1.75
8922.00,1.75
8921.00,1.75
8920.00,1.75
8919.00,1.75
8918.00,1.75
8917.00,1.75
8916.00,1.76
8915.00,1.76
8914.00,1.76
8913.00,1.76
8912.00,1.76
8911.00,1.76
8910.00,1.76
8909.00,1.77
8908.00,1.77
8907.00,1.77
8906.00,1.77
8905.00,1.77
8904.00,1.77
8903.00,1.77
8902.00,1.77
8901.00,1.77
8900.00,1.77
8899.00,1.77
8898.00,1.77
8897.00,1.77
8896.00,1.77
8895.00,1.77
8894.00,1.77
8893.00,1.77
8892.00,1.76
8891.00,1.76
8890.00,1.76
8889.00,1.76
8888.00,1.76
8887.00,1.76
8886.00,1.76
8885.00,1.75
8884.00,1.75
8883.00,1.75
8882.00,1.75
8881.00,1.75
8880.00,1.75
8879.00,1.75
8878.00,1.74
8877.00,1.74
8876.00,1.74
8875.00,1.74
8874.00,1.74
8873.00,1.75
8872.00,1.75
8871.00,1.75
8870.00,1.75
8869.00,1.75
8868.00,1.75
8867.00,1.75
8866.00,1.75
8865.00,1.76
8864.00,1.76
8863.00,1.76
8862.00,1.76
8861.00,1.76
8860.00,1.77
8859.00,1.77
8858.00,1.77
8857.00,1.77
8856.00,1.77
8855.00,1.77
8854.00,1.78
8853.00,1.78
8852.00,1.78
8851.00,1.78
8850.00,1.78
8849.00,1.78
8848.00,1.78
8847.00,1.78
8846.00,1.78
8845.00,1.78
8844.00,1.78
8843.00,1.78
8842.00,1.77
8841.00,1.77
8840.00,1.77
8839.00,1.77
8838.00,1.77
8837.00,1.77
8836.00,1.77
8835.00,1.77
8834.00,1.76
8833.00,1.76
8832.00,1.76
8831.00,1.76
8830.00,1.76
8829.00,1.76
8828.00,1.76
8827.00,1.76
8826.00,1.75
8825.00,1.75
8824.00,1.75
8823.00,1.75
8822.00,1.75
8821.00,1.75
8820.00,1.75
8819.00,1.75
8818.00,1.74
8817.00,1.74
8816.00,1.74
8815.00,1.74
8814.00,1.74
8813.00,1.74
8812.00,1.74
8811.00,1.74
8810.00,1.74
8809.00,1.74
8808.00,1.74
8807.00,1.74
8806.00,1.74
8805.00,1.74
8804.00,1.74
8803.00,1.73
8802.00,1.73
8801.00,1.73
8800.00,1.73
8799.00,1.73
8798.00,1.73
8797.00,1.73
8796.00,1.73
8795.00,1.72
8794.00,1.72
8793.00,1.72
8792.00,1.72
8791.00,1.72
8790.00,1.72
8789.00,1.72
8788.00,1.72
8787.00,1.72
8786.00,1.72
8785.00,1.72
8784.00,1.72
8783.00,1.72
8782.00,1.72
8781.00,1.72
8780.00,1.72
8779.00,1.71
8778.00,1.71
8777.00,1.71
8776.00,1.71
8775.00,1.71
8774.00,1.71
8773.00,1.71
8772.00,1.71
8771.00,1.71
8770.00,1.71
8769.00,1.71
8768.00,1.71
8767.00,1.70
8766.00,1.70
8765.00,1.70
8764.00,1.70
8763.00,1.70
8762.00,1.70
8761.00,1.70
8760.00,1.70
8759.00,1.70
8758.00,1.70
8757.00,1.70
8756.00,1.70
8755.00,1.70
8754.00,1.70
8753.00,1.70
8752.00,1.70
8751.00,1.70
8750.00,1.71
8749.00,1.71
8748.00,1.71
8747.00,1.71
8746.00,1.71
8745.00,1.71
8744.00,1.71
8743.00,1.71
8742.00,1.71
8741.00,1.71
8740.00,1.71
8739.00,1.71
8738.00,1.71
8737.00,1.71
8736.00,1.71
8735.00,1.71
8734.00,1.70
8733.00,1.70
8732.00,1.70
8731.00,1.70
8730.00,1.69
8729.00,1.69
8728.00,1.69
8727.00,1.69
8726.00,1.69
8725.00,1.69
8724.00,1.69
8723.00,1.69
8722.00,1.69
8721.00,1.69
8720.00,1.69
8719.00,1.69
8718.00,1.69
8717.00,1.69
8716.00,1.69
8715.00,1.69
8714.00,1.69
8713.00,1.69
8712.00,1.69
8711.00,1.69
8710.00,1.69
8709.00,1.69
8708.00,1.69
8707.00,1.69
8706.00,1.69
8705.00,1.69
8704.00,1.69
8703.00,1.69
8702.00,1.70
8701.00,1.70
8700.00,1.70
8699.00,1.70
8698.00,1.70
8697.00,1.70
8696.00,1.70
8695.00,1.70
8694.00,1.70
8693.00,1.70
8692.00,1.70
8691.00,1.70
8690.00,1.70
8689.00,1.70
8688.00,1.69
8687.00,1.69
8686.00,1.69
8685.00,1.69
8684.00,1.69
8683.00,1.69
8682.00,1.69
8681.00,1.69
8680.00,1.69
8679.00,1.69
8678.00,1.69
8677.00,1.68
8676.00,1.68
8675.00,1.68
8674.00,1.68
8673.00,1.68
8672.00,1.68
8671.00,1.68
8670.00,1.68
8669.00,1.68
8668.00,1.68
8667.00,1.68
8666.00,1.68
8665.00,1.68
8664.00,1.69
8663.00,1.69
8662.00,1.69
8661.00,1.69
8660.00,1.69
8659.00,1.69
8658.00,1.69
8657.00,1.69
8656.00,1.69
8655.00,1.69
8654.00,1.69
8653.00,1.69
8652.00,1.69
8651.00,1.68
8650.00,1.68
8649.00,1.68
8648.00,1.68
8647.00,1.68
8646.00,1.68
8645.00,1.68
8644.00,1.67
8643.00,1.67
8642.00,1.67
8641.00,1.67
8640.00,1.67
8639.00,1.66
8638.00,1.66
8637.00,1.66
8636.00,1.66
8635.00,1.66
8634.00,1.66
8633.00,1.66
8632.00,1.66
8631.00,1.66
8630.00,1.66
8629.00,1.66
8628.00,1.66
8627.00,1.66
8626.00,1.66
8625.00,1.66
8624.00,1.66
8623.00,1.66
8622.00,1.66
8621.00,1.66
8620.00,1.66
8619.00,1.66
8618.00,1.66
8617.00,1.66
8616.00,1.66
8615.00,1.66
8614.00,1.66
8613.00,1.65
8612.00,1.65
8611.00,1.65
8610.00,1.65
8609.00,1.64
8608.00,1.64
8607.00,1.64
8606.00,1.64
8605.00,1.63
8604.00,1.63
8603.00,1.63
8602.00,1.63
8601.00,1.63
8600.00,1.63
8599.00,1.62
8598.00,1.62
8597.00,1.62
8596.00,1.62
8595.00,1.62
8594.00,1.62
8593.00,1.62
8592.00,1.62
8591.00,1.62
8590.00,1.62
8589.00,1.62
8588.00,1.62
8587.00,1.62
8586.00,1.62
8585.00,1.62
8584.00,1.62
8583.00,1.62
8582.00,1.62
8581.00,1.62
8580.00,1.62
8579.00,1.62
8578.00,1.62
8577.00,1.62
8576.00,1.62
8575.00,1.62
8574.00,1.62
8573.00,1.62
8572.00,1.62
8571.00,1.62
8570.00,1.62
8569.00,1.62
8568.00,1.62
8567.00,1.62
8566.00,1.62
8565.00,1.62
8564.00,1.62
8563.00,1.62
8562.00,1.62
8561.00,1.62
8560.00,1.62
8559.00,1.62
8558.00,1.62
8557.00,1.62
8556.00,1.62
8555.00,1.62
8554.00,1.62
8553.00,1.61
8552.00,1.61
8551.00,1.61
8550.00,1.61
8549.00,1.61
8548.00,1.61
8547.00,1.61
8546.00,1.61
8545.00,1.61
8544.00,1.61
8543.00,1.61
8542.00,1.61
8541.00,1.61
8540.00,1.61
8539.00,1.61
8538.00,1.61
8537.00,1.61
8536.00,1.61
8535.00,1.61
8534.00,1.60
8533.00,1.60
8532.00,1.60
8531.00,1.60
8530.00,1.60
8529.00,1.60
8528.00,1.60
8527.00,1.59
8526.00,1.59
8525.00,1.59
8524.00,1.59
8523.00,1.59
8522.00,1.59
8521.00,1.59
8520.00,1.59
8519.00,1.59
8518.00,1.59
8517.00,1.59
8516.00,1.58
8515.00,1.58
8514.00,1.58
8513.00,1.58
8512.00,1.58
8511.00,1.58
8510.00,1.58
8509.00,1.58
8508.00,1.58
8507.00,1.59
8506.00,1.59
8505.00,1.59
8504.00,1.59
8503.00,1.59
8502.00,1.59
8501.00,1.59
8500.00,1.59
8499.00,1.59
8498.00,1.59
8497.00,1.59
8496.00,1.59
8495.00,1.59
8494.00,1.59
8493.00,1.59
8492.00,1.59
8491.00,1.59
8490.00,1.59
8489.00,1.59
8488.00,1.59
8487.00,1.58
8486.00,1.58
8485.00,1.58
8484.00,1.58
8483.00,1.58
8482.00,1.58
8481.00,1.58
8480.00,1.58
8479.00,1.57
8478.00,1.57
8477.00,1.57
8476.00,1.57
8475.00,1.57
8474.00,1.57
8473.00,1.56
8472.00,1.56
8471.00,1.56
8470.00,1.56
8469.00,1.56
8468.00,1.56
8467.00,1.56
8466.00,1.56
8465.00,1.56
8464.00,1.56
8463.00,1.56
8462.00,1.56
8461.00,1.55
8460.00,1.55
8459.00,1.55
8458.00,1.55
8457.00,1.55
8456.00,1.55
8455.00,1.55
8454.00,1.55
8453.00,1.55
8452.00,1.55
8451.00,1.54
8450.00,1.54
8449.00,1.54
8448.00,1.54
8447.00,1.54
8446.00,1.53
8445.00,1.53
8444.00,1.53
8443.00,1.53
8442.00,1.53
8441.00,1.53
8440.00,1.52
8439.00,1.52
8438.00,1.52
8437.00,1.52
8436.00,1.52
8435.00,1.52
8434.00,1.52
8433.00,1.52
8432.00,1.52
8431.00,1.52
8430.00,1.52
8429.00,1.52
8428.00,1.52
8427.00,1.52
8426.00,1.52
8425.00,1.53
8424.00,1.53
8423.00,1.53
8422.00,1.53
8421.00,1.53
8420.00,1.53
8419.00,1.53
8418.00,1.54
8417.00,1.54
8416.00,1.54
8415.00,1.54
8414.00,1.54
8413.00,1.55
8412.00,1.55
8411.00,1.55
8410.00,1.55
8409.00,1.56
8408.00,1.56
8407.00,1.56
8406.00,1.56
8405.00,1.56
8404.00,1.57
8403.00,1.57
8402.00,1.57
8401.00,1.57
8400.00,1.57
8399.00,1.57
8398.00,1.57
8397.00,1.57
8396.00,1.57
8395.00,1.57
8394.00,1.57
8393.00,1.57
8392.00,1.57
8391.00,1.57
8390.00,1.57
8389.00,1.57
8388.00,1.57
8387.00,1.57
8386.00,1.57
8385.00,1.57
8384.00,1.57
8383.00,1.57
8382.00,1.57
8381.00,1.57
8380.00,1.57
8379.00,1.57
8378.00,1.57
8377.00,1.57
8376.00,1.57
8375.00,1.57
8374.00,1.57
8373.00,1.57
8372.00,1.57
8371.00,1.58
8370.00,1.58
8369.00,1.58
8368.00,1.58
8367.00,1.58
8366.00,1.58
8365.00,1.58
8364.00,1.58
8363.00,1.58
8362.00,1.58
8361.00,1.59
8360.00,1.59
8359.00,1.59
8358.00,1.59
8357.00,1.59
8356.00,1.59
8355.00,1.59
8354.00,1.59
8353.00,1.59
8352.00,1.59
8351.00,1.59
8350.00,1.59
8349.00,1.58
8348.00,1.58
8347.00,1.58
8346.00,1.58
8345.00,1.58
8344.00,1.58
8343.00,1.58
8342.00,1.57
8341.00,1.57
8340.00,1.57
8339.00,1.57
8338.00,1.57
8337.00,1.57
8336.00,1.57
8335.00,1.58
8334.00,1.58
8333.00,1.58
8332.00,1.58
8331.00,1.58
8330.00,1.58
8329.00,1.59
8328.00,1.59
8327.00,1.59
8326.00,1.59
8325.00,1.59
8324.00,1.60
8323.00,1.60
8322.00,1.60
8321.00,1.60
8320.00,1.60
8319.00,1.60
8318.00,1.60
8317.00,1.60
8316.00,1.61
8315.00,1.61
8314.00,1.61
8313.00,1.61
8312.00,1.61
8311.00,1.61
8310.00,1.61
8309.00,1.61
8308.00,1.61
8307.00,1.61
8306.00,1.61
8305.00,1.61
8304.00,1.61
8303.00,1.61
8302.00,1.61
8301.00,1.61
8300.00,1.61
8299.00,1.61
8298.00,1.61
8297.00,1.61
8296.00,1.61
8295.00,1.61
8294.00,1.61
8293.00,1.61
8292.00,1.61
8291.00,1.61
8290.00,1.61
8289.00,1.61
8288.00,1.61
8287.00,1.61
8286.00,1.61
8285.00,1.61
8284.00,1.61
8283.00,1.61
8282.00,1.61
8281.00,1.61
8280.00,1.61
8279.00,1.61
8278.00,1.61
8277.00,1.61
8276.00,1.61
8275.00,1.61
8274.00,1.61
8273.00,1.61
8272.00,1.61
8271.00,1.61
8270.00,1.61
8269.00,1.61
8268.00,1.61
8267.00,1.61
8266.00,1.61
8265.00,1.61
8264.00,1.61
8263.00,1.61
8262.00,1.61
8261.00,1.61
8260.00,1.61
8259.00,1.61
8258.00,1.61
8257.00,1.61
8256.00,1.61
8255.00,1.61
8254.00,1.61
8253.00,1.61
8252.00,1.61
8251.00,1.61
8250.00,1.61
8249.00,1.61
8248.00,1.61
8247.00,1.61
8246.00,1.61
8245.00,1.61
8244.00,1.61
8243.00,1.61
8242.00,1.61
8241.00,1.61
8240.00,1.62
8239.00,1.62
8238.00,1.62
8237.00,1.62
8236.00,1.62
8235.00,1.62
8234.00,1.62
8233.00,1.63
8232.00,1.63
8231.00,1.63
8230.00,1.63
8229.00,1.63
8228.00,1.63
8227.00,1.63
8226.00,1.63
8225.00,1.64
8224.00,1.64
8223.00,1.64
8222.00,1.64
8221.00,1.64
8220.00,1.64
8219.00,1.64
8218.00,1.64
8217.00,1.64
8216.00,1.64
8215.00,1.64
8214.00,1.64
8213.00,1.64
8212.00,1.64
8211.00,1.64
8210.00,1.64
8209.00,1.64
8208.00,1.64
8207.00,1.64
8206.00,1.64
8205.00,1.64
8204.00,1.64
8203.00,1.64
8202.00,1.64
8201.00,1.64
8200.00,1.64
8199.00,1.64
8198.00,1.64
8197.00,1.64
8196.00,1.64
8195.00,1.64
8194.00,1.64
8193.00,1.65
8192.00,1.65
8191.00,1.65
8190.00,1.65
8189.00,1.65
8188.00,1.65
8187.00,1.65
8186.00,1.66
8185.00,1.66
8184.00,1.66
8183.00,1.66
8182.00,1.66
8181.00,1.66
8180.00,1.66
8179.00,1.66
8178.00,1.66
8177.00,1.67
8176.00,1.67
8175.00,1.67
8174.00,1.67
8173.00,1.67
8172.00,1.67
8171.00,1.67
8170.00,1.67
8169.00,1.67
8168.00,1.67
8167.00,1.67
8166.00,1.67
8165.00,1.67
8164.00,1.67
8163.00,1.67
8162.00,1.67
8161.00,1.67
8160.00,1.67
8159.00,1.67
8158.00,1.67
8157.00,1.67
8156.00,1.67
8155.00,1.67
8154.00,1.67
8153.00,1.67
8152.00,1.67
8151.00,1.67
8150.00,1.67
8149.00,1.67
8148.00,1.67
8147.00,1.67
8146.00,1.67
8145.00,1.67
8144.00,1.67
8143.00,1.67
8142.00,1.67
8141.00,1.68
8140.00,1.68
8139.00,1.68
8138.00,1.68
8137.00,1.68
8136.00,1.68
8135.00,1.69
8134.00,1.69
8133.00,1.69
8132.00,1.69
8131.00,1.69
8130.00,1.69
8129.00,1.69
8128.00,1.69
8127.00,1.69
8126.00,1.69
8125.00,1.69
8124.00,1.69
8123.00,1.69
8122.00,1.70
8121.00,1.70
8120.00,1.70
8119.00,1.70
8118.00,1.70
8117.00,1.70
8116.00,1.70
8115.00,1.70
8114.00,1.70
8113.00,1.70
8112.00,1.70
8111.00,1.70
8110.00,1.70
8109.00,1.70
8108.00,1.70
8107.00,1.70
8106.00,1.70
8105.00,1.69
8104.00,1.69
8103.00,1.69
8102.00,1.69
8101.00,1.69
8100.00,1.69
8099.00,1.69
8098.00,1.69
8097.00,1.69
8096.00,1.69
8095.00,1.69
8094.00,1.69
8093.00,1.69
8092.00,1.69
8091.00,1.69
8090.00,1.69
8089.00,1.69
8088.00,1.69
8087.00,1.70
8086.00,1.70
8085.00,1.70
8084.00,1.70
8083.00,1.70
8082.00,1.70
8081.00,1.70
8080.00,1.70
8079.00,1.70
8078.00,1.70
8077.00,1.70
8076.00,1.70
8075.00,1.70
8074.00,1.70
8073.00,1.70
8072.00,1.70
8071.00,1.70
8070.00,1.70
8069.00,1.70
8068.00,1.70
8067.00,1.70
8066.00,1.70
8065.00,1.70
8064.00,1.70
8063.00,1.70
8062.00,1.70
8061.00,1.70
8060.00,1.70
8059.00,1.70
8058.00,1.71
8057.00,1.71
8056.00,1.71
8055.00,1.71
8054.00,1.71
8053.00,1.71
8052.00,1.71
8051.00,1.71
8050.00,1.71
8049.00,1.71
8048.00,1.71
8047.00,1.71
8046.00,1.71
8045.00,1.71
8044.00,1.71
8043.00,1.71
8042.00,1.71
8041.00,1.71
8040.00,1.71
8039.00,1.71
8038.00,1.71
8037.00,1.71
8036.00,1.71
8035.00,1.71
8034.00,1.71
8033.00,1.71
8032.00,1.71
8031.00,1.71
8030.00,1.71
8029.00,1.71
8028.00,1.71
8027.00,1.71
8026.00,1.71
8025.00,1.71
8024.00,1.71
8023.00,1.71
8022.00,1.71
8021.00,1.71
8020.00,1.71
8019.00,1.71
8018.00,1.71
8017.00,1.70
8016.00,1.70
8015.00,1.70
8014.00,1.70
8013.00,1.70
8012.00,1.70
8011.00,1.70
8010.00,1.70
8009.00,1.70
8008.00,1.70
8007.00,1.70
8006.00,1.70
8005.00,1.70
8004.00,1.71
8003.00,1.71
8002.00,1.71
8001.00,1.71
8000.00,1.71
7999.00,1.71
7998.00,1.71
7997.00,1.72
7996.00,1.72
7995.00,1.72
7994.00,1.72
7993.00,1.72
7992.00,1.72
7991.00,1.72
7990.00,1.73
7989.00,1.73
7988.00,1.73
7987.00,1.73
7986.00,1.73
7985.00,1.73
7984.00,1.73
7983.00,1.73
7982.00,1.73
7981.00,1.73
7980.00,1.73
7979.00,1.73
7978.00,1.73
7977.00,1.73
7976.00,1.73
7975.00,1.73
7974.00,1.72
7973.00,1.72
7972.00,1.72
7971.00,1.72
7970.00,1.72
7969.00,1.72
7968.00,1.72
7967.00,1.72
7966.00,1.72
7965.00,1.72
7964.00,1.72
7963.00,1.72
7962.00,1.72
7961.00,1.72
7960.00,1.72
7959.00,1.72
7958.00,1.72
7957.00,1.72
7956.00,1.72
7955.00,1.72
7954.00,1.72
7953.00,1.72
7952.00,1.72
7951.00,1.72
7950.00,1.72
7949.00,1.72
7948.00,1.72
7947.00,1.72
7946.00,1.72
7945.00,1.73
7944.00,1.73
7943.00,1.73
7942.00,1.73
7941.00,1.73
7940.00,1.73
7939.00,1.73
7938.00,1.73
7937.00,1.73
7936.00,1.73
7935.00,1.73
7934.00,1.73
7933.00,1.74
7932.00,1.74
7931.00,1.74
7930.00,1.74
7929.00,1.74
7928.00,1.74
7927.00,1.74
7926.00,1.74
7925.00,1.74
7924.00,1.74
7923.00,1.75
7922.00,1.75
7921.00,1.75
7920.00,1.75
7919.00,1.75
7918.00,1.75
7917.00,1.75
7916.00,1.75
7915.00,1.75
7914.00,1.75
7913.00,1.75
7912.00,1.75
7911.00,1.75
7910.00,1.75
7909.00,1.75
7908.00,1.75
7907.00,1.75
7906.00,1.75
7905.00,1.75
7904.00,1.75
7903.00,1.75
7902.00,1.75
7901.00,1.75
7900.00,1.75
7899.00,1.75
7898.00,1.75
7897.00,1.75
7896.00,1.75
7895.00,1.75
7894.00,1.75
7893.00,1.75
7892.00,1.75
7891.00,1.75
7890.00,1.75
7889.00,1.75
7888.00,1.75
7887.00,1.75
7886.00,1.75
7885.00,1.75
7884.00,1.75
7883.00,1.75
7882.00,1.75
7881.00,1.75
7880.00,1.75
7879.00,1.75
7878.00,1.75
7877.00,1.75
7876.00,1.75
7875.00,1.75
7874.00,1.76
7873.00,1.76
7872.00,1.76
7871.00,1.76
7870.00,1.76
7869.00,1.76
7868.00,1.76
7867.00,1.76
7866.00,1.76
7865.00,1.76
7864.00,1.76
7863.00,1.76
7862.00,1.76
7861.00,1.76
7860.00,1.76
7859.00,1.76
7858.00,1.76
7857.00,1.76
7856.00,1.76
7855.00,1.76
7854.00,1.76
7853.00,1.76
7852.00,1.76
7851.00,1.76
7850.00,1.76
7849.00,1.76
7848.00,1.76
7847.00,1.76
7846.00,1.76
7845.00,1.76
7844.00,1.76
7843.00,1.76
7842.00,1.76
7841.00,1.76
7840.00,1.76
7839.00,1.76
7838.00,1.76
7837.00,1.76
7836.00,1.76
7835.00,1.76
7834.00,1.76
7833.00,1.76
7832.00,1.76
7831.00,1.76
7830.00,1.76
7829.00,1.76
7828.00,1.77
7827.00,1.77
7826.00,1.77
7825.00,1.77
7824.00,1.77
7823.00,1.77
7822.00,1.78
7821.00,1.78
7820.00,1.78
7819.00,1.78
7818.00,1.78
7817.00,1.78
7816.00,1.78
7815.00,1.78
7814.00,1.78
7813.00,1.78
7812.00,1.77
7811.00,1.77
7810.00,1.77
7809.00,1.77
7808.00,1.77
7807.00,1.77
7806.00,1.77
7805.00,1.77
7804.00,1.77
7803.00,1.77
7802.00,1.77
7801.00,1.77
7800.00,1.77
7799.00,1.77
7798.00,1.77
7797.00,1.77
7796.00,1.77
7795.00,1.77
7794.00,1.77
7793.00,1.77
7792.00,1.77
7791.00,1.77
7790.00,1.78
7789.00,1.78
7788.00,1.78
7787.00,1.78
7786.00,1.78
7785.00,1.77
7784.00,1.77
7783.00,1.77
7782.00,1.77
7781.00,1.77
7780.00,1.77
7779.00,1.77
7778.00,1.77
7777.00,1.77
7776.00,1.77
7775.00,1.77
7774.00,1.77
7773.00,1.77
7772.00,1.77
7771.00,1.77
7770.00,1.77
7769.00,1.77
7768.00,1.77
7767.00,1.77
7766.00,1.77
7765.00,1.77
7764.00,1.77
7763.00,1.77
7762.00,1.77
7761.00,1.77
7760.00,1.77
7759.00,1.77
7758.00,1.77
7757.00,1.77
7756.00,1.77
7755.00,1.77
7754.00,1.77
7753.00,1.77
7752.00,1.77
7751.00,1.77
7750.00,1.77
7749.00,1.77
7748.00,1.77
7747.00,1.77
7746.00,1.77
7745.00,1.77
7744.00,1.77
7743.00,1.77
7742.00,1.77
7741.00,1.77
7740.00,1.77
7739.00,1.77
7738.00,1.77
7737.00,1.78
7736.00,1.78
7735.00,1.78
7734.00,1.78
7733.00,1.78
7732.00,1.78
7731.00,1.78
7730.00,1.78
7729.00,1.78
7728.00,1.78
7727.00,1.78
7726.00,1.78
7725.00,1.78
7724.00,1.78
7723.00,1.78
7722.00,1.78
7721.00,1.78
7720.00,1.78
7719.00,1.78
7718.00,1.78
7717.00,1.78
7716.00,1.78
7715.00,1.77
7714.00,1.77
7713.00,1.77
7712.00,1.77
7711.00,1.77
7710.00,1.77
7709.00,1.77
7708.00,1.77
7707.00,1.77
7706.00,1.77
7705.00,1.77
7704.00,1.78
7703.00,1.78
7702.00,1.78
7701.00,1.78
7700.00,1.78
7699.00,1.78
7698.00,1.78
7697.00,1.78
7696.00,1.78
7695.00,1.78
7694.00,1.78
7693.00,1.78
7692.00,1.78
7691.00,1.78
7690.00,1.78
7689.00,1.78
7688.00,1.78
7687.00,1.78
7686.00,1.78
7685.00,1.78
7684.00,1.78
7683.00,1.78
7682.00,1.78
7681.00,1.78
7680.00,1.78
7679.00,1.78
7678.00,1.78
7677.00,1.78
7676.00,1.78
7675.00,1.78
7674.00,1.78
7673.00,1.77
7672.00,1.77
7671.00,1.77
7670.00,1.77
7669.00,1.78
7668.00,1.78
7667.00,1.78
7666.00,1.78
7665.00,1.78
7664.00,1.78
7663.00,1.78
7662.00,1.78
7661.00,1.78
7660.00,1.78
7659.00,1.78
7658.00,1.78
7657.00,1.78
7656.00,1.78
7655.00,1.78
7654.00,1.78
7653.00,1.78
7652.00,1.78
7651.00,1.78
7650.00,1.78
7649.00,1.78
7648.00,1.78
7647.00,1.78
7646.00,1.78
7645.00,1.78
7644.00,1.78
7643.00,1.78
7642.00,1.78
7641.00,1.78
7640.00,1.78
7639.00,1.78
7638.00,1.78
7637.00,1.78
7636.00,1.78
7635.00,1.78
7634.00,1.78
7633.00,1.78
7632.00,1.78
7631.00,1.78
7630.00,1.78
7629.00,1.78
7628.00,1.78
7627.00,1.78
7626.00,1.78
7625.00,1.78
7624.00,1.78
7623.00,1.78
7622.00,1.78
7621.00,1.78
7620.00,1.78
7619.00,1.78
7618.00,1.78
7617.00,1.78
7616.00,1.78
7615.00,1.78
7614.00,1.78
7613.00,1.78
7612.00,1.78
7611.00,1.78
7610.00,1.77
7609.00,1.77
7608.00,1.77
7607.00,1.77
7606.00,1.77
7605.00,1.77
7604.00,1.77
7603.00,1.77
7602.00,1.77
7601.00,1.77
7600.00,1.77
7599.00,1.77
7598.00,1.77
7597.00,1.77
7596.00,1.77
7595.00,1.77
7594.00,1.77
7593.00,1.77
7592.00,1.77
7591.00,1.77
7590.00,1.77
7589.00,1.77
7588.00,1.77
7587.00,1.77
7586.00,1.77
7585.00,1.77
7584.00,1.77
7583.00,1.77
7582.00,1.77
7581.00,1.77
7580.00,1.77
7579.00,1.77
7578.00,1.77
7577.00,1.77
7576.00,1.77
7575.00,1.77
7574.00,1.77
7573.00,1.77
7572.00,1.77
7571.00,1.77
7570.00,1.78
7569.00,1.78
7568.00,1.78
7567.00,1.78
7566.00,1.78
7565.00,1.78
7564.00,1.78
7563.00,1.78
7562.00,1.78
7561.00,1.78
7560.00,1.78
7559.00,1.78
7558.00,1.78
7557.00,1.78
7556.00,1.78
7555.00,1.78
7554.00,1.77
7553.00,1.77
7552.00,1.77
7551.00,1.77
7550.00,1.77
7549.00,1.77
7548.00,1.77
7547.00,1.77
7546.00,1.77
7545.00,1.77
7544.00,1.77
7543.00,1.77
7542.00,1.77
7541.00,1.77
7540.00,1.77
7539.00,1.77
7538.00,1.76
7537.00,1.76
7536.00,1.76
7535.00,1.76
7534.00,1.76
7533.00,1.76
7532.00,1.76
7531.00,1.76
7530.00,1.76
7529.00,1.76
7528.00,1.76
7527.00,1.76
7526.00,1.76
7525.00,1.76
7524.00,1.76
7523.00,1.76
7522.00,1.76
7521.00,1.76
7520.00,1.76
7519.00,1.76
7518.00,1.76
7517.00,1.76
7516.00,1.76
7515.00,1.76
7514.00,1.76
7513.00,1.76
7512.00,1.76
7511.00,1.76
7510.00,1.76
7509.00,1.76
7508.00,1.76
7507.00,1.76
7506.00,1.76
7505.00,1.76
7504.00,1.76
7503.00,1.76
7502.00,1.76
7501.00,1.76
7500.00,1.76
7499.00,1.76
7498.00,1.76
7497.00,1.76
7496.00,1.75
7495.00,1.75
7494.00,1.75
7493.00,1.75
7492.00,1.75
7491.00,1.75
7490.00,1.75
7489.00,1.75
7488.00,1.75
7487.00,1.75
7486.00,1.75
7485.00,1.75
7484.00,1.75
7483.00,1.74
7482.00,1.74
7481.00,1.74
7480.00,1.74
7479.00,1.74
7478.00,1.74
7477.00,1.74
7476.00,1.73
7475.00,1.73
7474.00,1.73
7473.00,1.73
7472.00,1.73
7471.00,1.73
7470.00,1.73
7469.00,1.73
7468.00,1.73
7467.00,1.73
7466.00,1.73
7465.00,1.72
7464.00,1.72
7463.00,1.72
7462.00,1.72
7461.00,1.72
7460.00,1.72
7459.00,1.72
7458.00,1.71
7457.00,1.71
7456.00,1.71
7455.00,1.71
7454.00,1.71
7453.00,1.71
7452.00,1.70
7451.00,1.70
7450.00,1.70
7449.00,1.70
7448.00,1.70
7447.00,1.70
7446.00,1.70
7445.00,1.70
7444.00,1.70
7443.00,1.70
7442.00,1.70
7441.00,1.70
7440.00,1.70
7439.00,1.70
7438.00,1.70
7437.00,1.70
7436.00,1.70
7435.00,1.70
7434.00,1.70
7433.00,1.71
7432.00,1.71
7431.00,1.71
7430.00,1.70
7429.00,1.70
7428.00,1.70
7427.00,1.70
7426.00,1.70
7425.00,1.70
7424.00,1.70
7423.00,1.70
7422.00,1.69
7421.00,1.69
7420.00,1.69
7419.00,1.69
7418.00,1.69
7417.00,1.69
7416.00,1.68
7415.00,1.68
7414.00,1.68
7413.00,1.68
7412.00,1.68
7411.00,1.68
7410.00,1.68
7409.00,1.68
7408.00,1.68
7407.00,1.68
7406.00,1.68
7405.00,1.67
7404.00,1.67
7403.00,1.67
7402.00,1.67
7401.00,1.67
7400.00,1.67
7399.00,1.67
7398.00,1.67
7397.00,1.67
7396.00,1.67
7395.00,1.66
7394.00,1.66
7393.00,1.66
7392.00,1.66
7391.00,1.66
7390.00,1.65
7389.00,1.65
7388.00,1.65
7387.00,1.65
7386.00,1.65
7385.00,1.64
7384.00,1.64
7383.00,1.64
7382.00,1.64
7381.00,1.64
7380.00,1.64
7379.00,1.64
7378.00,1.64
7377.00,1.64
7376.00,1.64
7375.00,1.64
7374.00,1.64
7373.00,1.64
7372.00,1.64
7371.00,1.64
7370.00,1.64
7369.00,1.64
7368.00,1.64
7367.00,1.64
7366.00,1.64
7365.00,1.64
7364.00,1.64
7363.00,1.64
7362.00,1.64
7361.00,1.64
7360.00,1.64
7359.00,1.64
7358.00,1.64
7357.00,1.64
7356.00,1.64
7355.00,1.64
7354.00,1.64
7353.00,1.63
7352.00,1.63
7351.00,1.63
7350.00,1.63
7349.00,1.63
7348.00,1.63
7347.00,1.63
7346.00,1.63
7345.00,1.62
7344.00,1.62
7343.00,1.62
7342.00,1.62
7341.00,1.62
7340.00,1.62
7339.00,1.62
7338.00,1.62
7337.00,1.62
7336.00,1.62
7335.00,1.62
7334.00,1.62
7333.00,1.62
7332.00,1.62
7331.00,1.62
7330.00,1.62
7329.00,1.62
7328.00,1.62
7327.00,1.62
7326.00,1.62
7325.00,1.62
7324.00,1.62
7323.00,1.62
7322.00,1.62
7321.00,1.62
7320.00,1.62
7319.00,1.62
7318.00,1.62
7317.00,1.61
7316.00,1.61
7315.00,1.61
7314.00,1.61
7313.00,1.61
7312.00,1.61
7311.00,1.61
7310.00,1.60
7309.00,1.60
7308.00,1.60
7307.00,1.60
7306.00,1.60
7305.00,1.60
7304.00,1.60
7303.00,1.60
7302.00,1.59
7301.00,1.59
7300.00,1.59
7299.00,1.59
7298.00,1.59
7297.00,1.59
7296.00,1.59
7295.00,1.58
7294.00,1.58
7293.00,1.58
7292.00,1.58
7291.00,1.58
7290.00,1.58
7289.00,1.57
7288.00,1.57
7287.00,1.57
7286.00,1.57
7285.00,1.57
7284.00,1.56
7283.00,1.56
7282.00,1.56
7281.00,1.56
7280.00,1.56
7279.00,1.56
7278.00,1.55
7277.00,1.55
7276.00,1.55
7275.00,1.55
7274.00,1.55
7273.00,1.55
7272.00,1.55
7271.00,1.55
7270.00,1.55
7269.00,1.55
7268.00,1.54
7267.00,1.54
7266.00,1.54
7265.00,1.54
7264.00,1.54
7263.00,1.54
7262.00,1.54
7261.00,1.54
7260.00,1.53
7259.00,1.53
7258.00,1.53
7257.00,1.53
7256.00,1.53
7255.00,1.52
7254.00,1.52
7253.00,1.52
7252.00,1.52
7251.00,1.51
7250.00,1.51
7249.00,1.51
7248.00,1.50
7247.00,1.50
7246.00,1.50
7245.00,1.49
7244.00,1.49
7243.00,1.48
7242.00,1.48
7241.00,1.48
7240.00,1.47
7239.00,1.47
7238.00,1.46
7237.00,1.46
7236.00,1.45
7235.00,1.45
7234.00,1.45
7233.00,1.44
7232.00,1.44
7231.00,1.43
7230.00,1.43
7229.00,1.42
7228.00,1.42
7227.00,1.41
7226.00,1.41
7225.00,1.40
7224.00,1.40
7223.00,1.39
7222.00,1.39
7221.00,1.38
7220.00,1.38
7219.00,1.37
7218.00,1.37
7217.00,1.36
7216.00,1.36
7215.00,1.35
7214.00,1.35
7213.00,1.34
7212.00,1.34
7211.00,1.33
7210.00,1.33
7209.00,1.33
7208.00,1.32
7207.00,1.32
7206.00,1.31
7205.00,1.31
7204.00,1.30
7203.00,1.30
7202.00,1.29
7201.00,1.29
7200.00,1.28
7199.00,1.28
7198.00,1.27
7197.00,1.27
7196.00,1.27
7195.00,1.26
7194.00,1.26
7193.00,1.25
7192.00,1.25
7191.00,1.24
7190.00,1.24
7189.00,1.23
7188.00,1.23
7187.00,1.22
7186.00,1.22
7185.00,1.21
7184.00,1.21
7183.00,1.20
7182.00,1.20
7181.00,1.19
7180.00,1.19
7179.00,1.18
7178.00,1.18
7177.00,1.18
7176.00,1.17
7175.00,1.17
7174.00,1.16
7173.00,1.16
7172.00,1.16
7171.00,1.16
7170.00,1.15
7169.00,1.15
7168.00,1.15
7167.00,1.14
7166.00,1.14
7165.00,1.14
7164.00,1.13
7163.00,1.13
7162.00,1.13
7161.00,1.12
7160.00,1.12
7159.00,1.11
7158.00,1.11
7157.00,1.11
7156.00,1.10
7155.00,1.10
7154.00,1.09
7153.00,1.09
7152.00,1.09
7151.00,1.08
7150.00,1.08
7149.00,1.07
7148.00,1.07
7147.00,1.07
7146.00,1.06
7145.00,1.06
7144.00,1.05
7143.00,1.05
7142.00,1.05
7141.00,1.04
7140.00,1.04
7139.00,1.04
7138.00,1.03
7137.00,1.03
7136.00,1.02
7135.00,1.02
7134.00,1.02
7133.00,1.01
7132.00,1.01
7131.00,1.01
7130.00,1.00
7129.00,1.00
7128.00,1.00
7127.00,0.99
7126.00,0.99
7125.00,0.99
7124.00,0.98
7123.00,0.98
7122.00,0.97
7121.00,0.97
7120.00,0.97
7119.00,0.96
7118.00,0.96
7117.00,0.96
7116.00,0.95
7115.00,0.95
7114.00,0.94
7113.00,0.94
7112.00,0.94
7111.00,0.93
7110.00,0.93
7109.00,0.92
7108.00,0.92
7107.00,0.91
7106.00,0.91
7105.00,0.91
7104.00,0.90
7103.00,0.90
7102.00,0.90
7101.00,0.89
7100.00,0.89
7099.00,0.89
7098.00,0.88
7097.00,0.88
7096.00,0.88
7095.00,0.88
7094.00,0.87
7093.00,0.87
7092.00,0.87
7091.00,0.87
7090.00,0.87
7089.00,0.86
7088.00,0.86
7087.00,0.86
7086.00,0.86
7085.00,0.85
7084.00,0.85
7083.00,0.85
7082.00,0.85
7081.00,0.84
7080.00,0.84
7079.00,0.84
7078.00,0.84
7077.00,0.83
7076.00,0.83
7075.00,0.83
7074.00,0.83
7073.00,0.82
7072.00,0.82
7071.00,0.82
7070.00,0.82
7069.00,0.81
7068.00,0.81
7067.00,0.81
7066.00,0.81
7065.00,0.81
7064.00,0.80
7063.00,0.80
7062.00,0.80
7061.00,0.80
7060.00,0.80
7059.00,0.80
7058.00,0.79
7057.00,0.79
7056.00,0.79
7055.00,0.79
7054.00,0.79
7053.00,0.79
7052.00,0.78
7051.00,0.78
7050.00,0.78
7049.00,0.78
7048.00,0.78
7047.00,0.78
7046.00,0.77
7045.00,0.77
7044.00,0.77
7043.00,0.77
7042.00,0.77
7041.00,0.76
7040.00,0.76
7039.00,0.76
7038.00,0.76
7037.00,0.76
7036.00,0.76
7035.00,0.75
7034.00,0.75
7033.00,0.75
7032.00,0.75
7031.00,0.75
7030.00,0.75
7029.00,0.75
7028.00,0.74
7027.00,0.74
7026.00,0.74
7025.00,0.74
7024.00,0.74
7023.00,0.74
7022.00,0.74
7021.00,0.73
7020.00,0.73
7019.00,0.73
7018.00,0.73
7017.00,0.73
7016.00,0.73
7015.00,0.72
7014.00,0.72
7013.00,0.72
7012.00,0.72
7011.00,0.72
7010.00,0.72
7009.00,0.72
7008.00,0.72
7007.00,0.71
7006.00,0.71
7005.00,0.71
7004.00,0.71
7003.00,0.71
7002.00,0.71
7001.00,0.71
7000.00,0.71
6999.00,0.70
6998.00,0.70
6997.00,0.70
6996.00,0.70
6995.00,0.70
6994.00,0.70
6993.00,0.70
6992.00,0.70
6991.00,0.70
6990.00,0.70
6989.00,0.70
6988.00,0.70
6987.00,0.70
6986.00,0.70
6985.00,0.69
6984.00,0.69
6983.00,0.69
6982.00,0.69
6981.00,0.69
6980.00,0.69
6979.00,0.69
6978.00,0.69
6977.00,0.69
6976.00,0.69
6975.00,0.69
6974.00,0.69
6973.00,0.68
6972.00,0.68
6971.00,0.68
6970.00,0.68
6969.00,0.68
6968.00,0.68
6967.00,0.68
6966.00,0.68
6965.00,0.68
6964.00,0.67
6963.00,0.67
6962.00,0.67
6961.00,0.67
6960.00,0.67
6959.00,0.67
6958.00,0.67
6957.00,0.67
6956.00,0.67
6955.00,0.67
6954.00,0.67
6953.00,0.67
6952.00,0.67
6951.00,0.67
6950.00,0.67
6949.00,0.67
6948.00,0.67
6947.00,0.67
6946.00,0.67
6945.00,0.67
6944.00,0.67
6943.00,0.67
6942.00,0.67
6941.00,0.67
6940.00,0.67
6939.00,0.67
6938.00,0.67
6937.00,0.67
6936.00,0.67
6935.00,0.67
6934.00,0.67
6933.00,0.67
6932.00,0.67
6931.00,0.67
6930.00,0.67
6929.00,0.66
6928.00,0.66
6927.00,0.66
6926.00,0.66
6925.00,0.66
6924.00,0.66
6923.00,0.66
6922.00,0.66
6921.00,0.66
6920.00,0.66
6919.00,0.66
6918.00,0.66
6917.00,0.66
6916.00,0.66
6915.00,0.66
6914.00,0.66
6913.00,0.66
6912.00,0.66
6911.00,0.66
6910.00,0.66
6909.00,0.66
6908.00,0.66
6907.00,0.66
6906.00,0.65
6905.00,0.65
6904.00,0.65
6903.00,0.65
6902.00,0.65
6901.00,0.65
6900.00,0.65
6899.00,0.65
6898.00,0.65
6897.00,0.65
6896.00,0.65
6895.00,0.65
6894.00,0.65
6893.00,0.66
6892.00,0.66
6891.00,0.66
6890.00,0.66
6889.00,0.66
6888.00,0.66
6887.00,0.66
6886.00,0.66
6885.00,0.66
6884.00,0.66
6883.00,0.66
6882.00,0.67
6881.00,0.67
6880.00,0.67
6879.00,0.67
6878.00,0.66
6877.00,0.66
6876.00,0.66
6875.00,0.66
6874.00,0.66
6873.00,0.66
6872.00,0.66
6871.00,0.66
6870.00,0.66
6869.00,0.65
6868.00,0.65
6867.00,0.65
6866.00,0.65
6865.00,0.65
6864.00,0.65
6863.00,0.64
6862.00,0.64
6861.00,0.64
6860.00,0.64
6859.00,0.64
6858.00,0.64
6857.00,0.64
6856.00,0.64
6855.00,0.64
6854.00,0.64
6853.00,0.64
6852.00,0.64
6851.00,0.64
6850.00,0.64
6849.00,0.64
6848.00,0.64
6847.00,0.64
6846.00,0.64
6845.00,0.64
6844.00,0.64
6843.00,0.64
6842.00,0.64
6841.00,0.64
6840.00,0.64
6839.00,0.65
6838.00,0.65
6837.00,0.65
6836.00,0.65
6835.00,0.65
6834.00,0.65
6833.00,0.65
6832.00,0.65
6831.00,0.65
6830.00,0.66
6829.00,0.66
6828.00,0.66
6827.00,0.66
6826.00,0.66
6825.00,0.66
6824.00,0.66
6823.00,0.66
6822.00,0.66
6821.00,0.66
6820.00,0.66
6819.00,0.66
6818.00,0.66
6817.00,0.66
6816.00,0.66
6815.00,0.66
6814.00,0.66
6813.00,0.66
6812.00,0.66
6811.00,0.66
6810.00,0.66
6809.00,0.66
6808.00,0.66
6807.00,0.66
6806.00,0.67
6805.00,0.67
6804.00,0.67
6803.00,0.67
6802.00,0.67
6801.00,0.67
6800.00,0.67
6799.00,0.67
6798.00,0.67
6797.00,0.67
6796.00,0.67
6795.00,0.67
6794.00,0.67
6793.00,0.67
6792.00,0.67
6791.00,0.67
6790.00,0.67
6789.00,0.67
6788.00,0.67
6787.00,0.67
6786.00,0.67
6785.00,0.67
6784.00,0.67
6783.00,0.67
6782.00,0.67
6781.00,0.67
6780.00,0.67
6779.00,0.67
6778.00,0.68
6777.00,0.68
6776.00,0.68
6775.00,0.68
6774.00,0.68
6773.00,0.68
6772.00,0.68
6771.00,0.68
6770.00,0.68
6769.00,0.68
6768.00,0.68
6767.00,0.68
6766.00,0.68
6765.00,0.68
6764.00,0.68
6763.00,0.68
6762.00,0.68
6761.00,0.68
6760.00,0.69
6759.00,0.69
6758.00,0.69
6757.00,0.69
6756.00,0.69
6755.00,0.69
6754.00,0.69
6753.00,0.69
6752.00,0.69
6751.00,0.69
6750.00,0.70
6749.00,0.70
6748.00,0.70
6747.00,0.70
6746.00,0.70
6745.00,0.70
6744.00,0.71
6743.00,0.71
6742.00,0.71
6741.00,0.71
6740.00,0.71
6739.00,0.71
6738.00,0.71
6737.00,0.72
6736.00,0.72
6735.00,0.72
6734.00,0.72
6733.00,0.72
6732.00,0.72
6731.00,0.72
6730.00,0.72
6729.00,0.72
6728.00,0.73
6727.00,0.73
6726.00,0.73
6725.00,0.73
6724.00,0.73
6723.00,0.73
6722.00,0.74
6721.00,0.74
6720.00,0.74
6719.00,0.74
6718.00,0.74
6717.00,0.74
6716.00,0.74
6715.00,0.75
6714.00,0.75
6713.00,0.75
6712.00,0.75
6711.00,0.75
6710.00,0.75
6709.00,0.75
6708.00,0.75
6707.00,0.75
6706.00,0.75
6705.00,0.75
6704.00,0.75
6703.00,0.75
6702.00,0.75
6701.00,0.75
6700.00,0.75
6699.00,0.75
6698.00,0.75
6697.00,0.75
6696.00,0.75
6695.00,0.75
6694.00,0.75
6693.00,0.75
6692.00,0.76
6691.00,0.76
6690.00,0.76
6689.00,0.76
6688.00,0.76
6687.00,0.76
6686.00,0.76
6685.00,0.77
6684.00,0.77
6683.00,0.77
6682.00,0.77
6681.00,0.77
6680.00,0.78
6679.00,0.78
6678.00,0.78
6677.00,0.78
6676.00,0.78
6675.00,0.78
6674.00,0.79
6673.00,0.79
6672.00,0.79
6671.00,0.79
6670.00,0.79
6669.00,0.79
6668.00,0.80
6667.00,0.80
6666.00,0.80
6665.00,0.80
6664.00,0.80
6663.00,0.80
6662.00,0.80
6661.00,0.80
6660.00,0.80
6659.00,0.81
6658.00,0.81
6657.00,0.81
6656.00,0.81
6655.00,0.81
6654.00,0.81
6653.00,0.81
6652.00,0.81
6651.00,0.81
6650.00,0.81
6649.00,0.81
6648.00,0.81
6647.00,0.82
6646.00,0.82
6645.00,0.82
6644.00,0.82
6643.00,0.82
6642.00,0.82
6641.00,0.83
6640.00,0.83
6639.00,0.83
6638.00,0.83
6637.00,0.83
6636.00,0.84
6635.00,0.84
6634.00,0.84
6633.00,0.84
6632.00,0.84
6631.00,0.84
6630.00,0.84
6629.00,0.85
6628.00,0.85
6627.00,0.85
6626.00,0.85
6625.00,0.85
6624.00,0.85
6623.00,0.85
6622.00,0.85
6621.00,0.85
6620.00,0.85
6619.00,0.85
6618.00,0.85
6617.00,0.86
6616.00,0.86
6615.00,0.86
6614.00,0.86
6613.00,0.86
6612.00,0.86
6611.00,0.86
6610.00,0.86
6609.00,0.87
6608.00,0.87
6607.00,0.87
6606.00,0.87
6605.00,0.87
6604.00,0.87
6603.00,0.87
6602.00,0.87
6601.00,0.88
6600.00,0.88
6599.00,0.88
6598.00,0.88
6597.00,0.88
6596.00,0.88
6595.00,0.88
6594.00,0.89
6593.00,0.89
6592.00,0.89
6591.00,0.89
6590.00,0.89
6589.00,0.90
6588.00,0.90
6587.00,0.90
6586.00,0.90
6585.00,0.90
6584.00,0.90
6583.00,0.91
6582.00,0.91
6581.00,0.91
6580.00,0.91
6579.00,0.91
6578.00,0.91
6577.00,0.91
6576.00,0.91
6575.00,0.91
6574.00,0.92
6573.00,0.92
6572.00,0.92
6571.00,0.92
6570.00,0.92
6569.00,0.92
6568.00,0.92
6567.00,0.92
6566.00,0.92
6565.00,0.92
6564.00,0.93
6563.00,0.93
6562.00,0.93
6561.00,0.93
6560.00,0.93
6559.00,0.93
6558.00,0.94
6557.00,0.94
6556.00,0.94
6555.00,0.94
6554.00,0.94
6553.00,0.94
6552.00,0.94
6551.00,0.94
6550.00,0.95
6549.00,0.95
6548.00,0.95
6547.00,0.95
6546.00,0.95
6545.00,0.95
6544.00,0.95
6543.00,0.95
6542.00,0.95
6541.00,0.96
6540.00,0.96
6539.00,0.96
6538.00,0.96
6537.00,0.96
6536.00,0.96
6535.00,0.96
6534.00,0.96
6533.00,0.96
6532.00,0.97
6531.00,0.97
6530.00,0.97
6529.00,0.97
6528.00,0.97
6527.00,0.97
6526.00,0.97
6525.00,0.97
6524.00,0.98
6523.00,0.98
6522.00,0.98
6521.00,0.98
6520.00,0.98
6519.00,0.98
6518.00,0.98
6517.00,0.99
6516.00,0.99
6515.00,0.99
6514.00,0.99
6513.00,0.99
6512.00,0.99
6511.00,0.99
6510.00,0.99
6509.00,0.99
6508.00,1.00
6507.00,1.00
6506.00,1.00
6505.00,1.00
6504.00,1.00
6503.00,1.00
6502.00,1.00
6501.00,1.00
6500.00,1.00
6499.00,1.00
6498.00,1.00
6497.00,1.00
6496.00,1.00
6495.00,1.00
6494.00,1.00
6493.00,1.00
6492.00,1.00
6491.00,1.00
6490.00,1.00
6489.00,1.01
6488.00,1.01
6487.00,1.01
6486.00,1.01
6485.00,1.01
6484.00,1.01
6483.00,1.02
6482.00,1.02
6481.00,1.02
6480.00,1.02
6479.00,1.02
6478.00,1.02
6477.00,1.02
6476.00,1.03
6475.00,1.03
6474.00,1.03
6473.00,1.03
6472.00,1.03
6471.00,1.03
6470.00,1.03
6469.00,1.04
6468.00,1.04
6467.00,1.04
6466.00,1.04
6465.00,1.04
6464.00,1.04
6463.00,1.04
6462.00,1.04
6461.00,1.04
6460.00,1.04
6459.00,1.04
6458.00,1.05
6457.00,1.05
6456.00,1.05
6455.00,1.05
6454.00,1.05
6453.00,1.05
6452.00,1.05
6451.00,1.05
6450.00,1.05
6449.00,1.05
6448.00,1.05
6447.00,1.05
6446.00,1.05
6445.00,1.06
6444.00,1.06
6443.00,1.06
6442.00,1.06
6441.00,1.06
6440.00,1.06
6439.00,1.06
6438.00,1.06
6437.00,1.06
6436.00,1.06
6435.00,1.06
6434.00,1.06
6433.00,1.07
6432.00,1.07
6431.00,1.07
6430.00,1.07
6429.00,1.07
6428.00,1.07
6427.00,1.07
6426.00,1.07
6425.00,1.07
6424.00,1.07
6423.00,1.07
6422.00,1.07
6421.00,1.07
6420.00,1.07
6419.00,1.07
6418.00,1.07
6417.00,1.07
6416.00,1.07
6415.00,1.07
6414.00,1.07
6413.00,1.08
6412.00,1.08
6411.00,1.08
6410.00,1.08
6409.00,1.08
6408.00,1.08
6407.00,1.08
6406.00,1.08
6405.00,1.08
6404.00,1.08
6403.00,1.08
6402.00,1.08
6401.00,1.08
6400.00,1.08
6399.00,1.08
6398.00,1.09
6397.00,1.09
6396.00,1.09
6395.00,1.09
6394.00,1.09
6393.00,1.09
6392.00,1.09
6391.00,1.09
6390.00,1.09
6389.00,1.09
6388.00,1.09
6387.00,1.09
6386.00,1.09
6385.00,1.09
6384.00,1.09
6383.00,1.10
6382.00,1.10
6381.00,1.10
6380.00,1.10
6379.00,1.10
6378.00,1.10
6377.00,1.10
6376.00,1.11
6375.00,1.11
6374.00,1.11
6373.00,1.11
6372.00,1.11
6371.00,1.11
6370.00,1.11
6369.00,1.12
6368.00,1.12
6367.00,1.12
6366.00,1.12
6365.00,1.12
6364.00,1.12
6363.00,1.13
6362.00,1.13
6361.00,1.13
6360.00,1.13
6359.00,1.13
6358.00,1.13
6357.00,1.13
6356.00,1.14
6355.00,1.14
6354.00,1.14
6353.00,1.14
6352.00,1.14
6351.00,1.14
6350.00,1.14
6349.00,1.14
6348.00,1.14
6347.00,1.14
6346.00,1.14
6345.00,1.14
6344.00,1.15
6343.00,1.15
6342.00,1.15
6341.00,1.15
6340.00,1.15
6339.00,1.15
6338.00,1.15
6337.00,1.15
6336.00,1.15
6335.00,1.15
6334.00,1.15
6333.00,1.15
6332.00,1.16
6331.00,1.16
6330.00,1.16
6329.00,1.16
6328.00,1.16
6327.00,1.16
6326.00,1.16
6325.00,1.17
6324.00,1.17
6323.00,1.17
6322.00,1.17
6321.00,1.17
6320.00,1.18
6319.00,1.18
6318.00,1.18
6317.00,1.18
6316.00,1.18
6315.00,1.19
6314.00,1.19
6313.00,1.19
6312.00,1.19
6311.00,1.19
6310.00,1.19
6309.00,1.20
6308.00,1.20
6307.00,1.20
6306.00,1.20
6305.00,1.20
6304.00,1.20
6303.00,1.20
6302.00,1.21
6301.00,1.21
6300.00,1.21
6299.00,1.21
6298.00,1.21
6297.00,1.22
6296.00,1.22
6295.00,1.22
6294.00,1.22
6293.00,1.22
6292.00,1.23
6291.00,1.23
6290.00,1.23
6289.00,1.23
6288.00,1.23
6287.00,1.24
6286.00,1.24
6285.00,1.24
6284.00,1.24
6283.00,1.24
6282.00,1.24
6281.00,1.24
6280.00,1.24
6279.00,1.25
6278.00,1.25
6277.00,1.25
6276.00,1.25
6275.00,1.25
6274.00,1.25
6273.00,1.25
6272.00,1.26
6271.00,1.26
6270.00,1.26
6269.00,1.26
6268.00,1.26
6267.00,1.26
6266.00,1.27
6265.00,1.27
6264.00,1.27
6263.00,1.27
6262.00,1.27
6261.00,1.27
6260.00,1.27
6259.00,1.27
6258.00,1.28
6257.00,1.28
6256.00,1.28
6255.00,1.28
6254.00,1.28
6253.00,1.28
6252.00,1.28
6251.00,1.28
6250.00,1.28
6249.00,1.28
6248.00,1.28
6247.00,1.29
6246.00,1.29
6245.00,1.29
6244.00,1.29
6243.00,1.29
6242.00,1.29
6241.00,1.29
6240.00,1.29
6239.00,1.30
6238.00,1.30
6237.00,1.30
6236.00,1.30
6235.00,1.30
6234.00,1.30
6233.00,1.30
6232.00,1.31
6231.00,1.31
6230.00,1.31
6229.00,1.31
6228.00,1.31
6227.00,1.31
6226.00,1.31
6225.00,1.32
6224.00,1.32
6223.00,1.32
6222.00,1.32
6221.00,1.32
6220.00,1.32
6219.00,1.33
6218.00,1.33
6217.00,1.33
6216.00,1.33
6215.00,1.34
6214.00,1.34
6213.00,1.34
6212.00,1.34
6211.00,1.34
6210.00,1.35
6209.00,1.35
6208.00,1.35
6207.00,1.35
6206.00,1.35
6205.00,1.36
6204.00,1.36
6203.00,1.36
6202.00,1.36
6201.00,1.36
6200.00,1.37
6199.00,1.37
6198.00,1.37
6197.00,1.37
6196.00,1.37
6195.00,1.38
6194.00,1.38
6193.00,1.38
6192.00,1.38
6191.00,1.39
6190.00,1.39
6189.00,1.39
6188.00,1.39
6187.00,1.40
6186.00,1.40
6185.00,1.40
6184.00,1.40
6183.00,1.41
6182.00,1.41
6181.00,1.41
6180.00,1.41
6179.00,1.41
6178.00,1.42
6177.00,1.42
6176.00,1.42
6175.00,1.42
6174.00,1.42
6173.00,1.42
6172.00,1.43
6171.00,1.43
6170.00,1.43
6169.00,1.43
6168.00,1.43
6167.00,1.43
6166.00,1.44
6165.00,1.44
6164.00,1.44
6163.00,1.44
6162.00,1.44
6161.00,1.44
6160.00,1.45
6159.00,1.45
6158.00,1.45
6157.00,1.45
6156.00,1.45
6155.00,1.46
6154.00,1.46
6153.00,1.46
6152.00,1.46
6151.00,1.46
6150.00,1.46
6149.00,1.47
6148.00,1.47
6147.00,1.47
6146.00,1.47
6145.00,1.47
6144.00,1.48
6143.00,1.48
6142.00,1.48
6141.00,1.48
6140.00,1.48
6139.00,1.48
6138.00,1.49
6137.00,1.49
6136.00,1.49
6135.00,1.49
6134.00,1.49
6133.00,1.50
6132.00,1.50
6131.00,1.50
6130.00,1.50
6129.00,1.50
6128.00,1.51
6127.00,1.51
6126.00,1.51
6125.00,1.51
6124.00,1.51
6123.00,1.52
6122.00,1.52
6121.00,1.52
6120.00,1.52
6119.00,1.53
6118.00,1.53
6117.00,1.53
6116.00,1.53
6115.00,1.53
6114.00,1.54
6113.00,1.54
6112.00,1.54
6111.00,1.54
6110.00,1.54
6109.00,1.54
6108.00,1.55
6107.00,1.55
6106.00,1.55
6105.00,1.55
6104.00,1.55
6103.00,1.55
6102.00,1.55
6101.00,1.56
6100.00,1.56
6099.00,1.56
6098.00,1.56
6097.00,1.56
6096.00,1.56
6095.00,1.57
6094.00,1.57
6093.00,1.57
6092.00,1.57
6091.00,1.58
6090.00,1.58
6089.00,1.58
6088.00,1.58
6087.00,1.58
6086.00,1.59
6085.00,1.59
6084.00,1.59
6083.00,1.59
6082.00,1.60
6081.00,1.60
6080.00,1.60
6079.00,1.60
6078.00,1.61
6077.00,1.61
6076.00,1.61
6075.00,1.61
6074.00,1.61
6073.00,1.62
6072.00,1.62
6071.00,1.62
6070.00,1.62
6069.00,1.62
6068.00,1.62
6067.00,1.63
6066.00,1.63
6065.00,1.63
6064.00,1.63
6063.00,1.63
6062.00,1.63
6061.00,1.64
6060.00,1.64
6059.00,1.64
6058.00,1.64
6057.00,1.64
6056.00,1.64
6055.00,1.64
6054.00,1.64
6053.00,1.64
6052.00,1.64
6051.00,1.65
6050.00,1.65
6049.00,1.65
6048.00,1.65
6047.00,1.65
6046.00,1.65
6045.00,1.65
6044.00,1.65
6043.00,1.65
6042.00,1.65
6041.00,1.65
6040.00,1.65
6039.00,1.65
6038.00,1.65
6037.00,1.65
6036.00,1.65
6035.00,1.65
6034.00,1.66
6033.00,1.66
6032.00,1.66
6031.00,1.66
6030.00,1.66
6029.00,1.66
6028.00,1.66
6027.00,1.66
6026.00,1.66
6025.00,1.66
6024.00,1.66
6023.00,1.66
6022.00,1.66
6021.00,1.66
6020.00,1.66
6019.00,1.66
6018.00,1.66
6017.00,1.66
6016.00,1.66
6015.00,1.66
6014.00,1.66
6013.00,1.66
6012.00,1.66
6011.00,1.66
6010.00,1.66
6009.00,1.66
6008.00,1.66
6007.00,1.66
6006.00,1.66
6005.00,1.66
6004.00,1.66
6003.00,1.66
6002.00,1.66
6001.00,1.66
6000.00,1.66
5999.00,1.65
5998.00,1.65
5997.00,1.65
5996.00,1.65
5995.00,1.65
5994.00,1.65
5993.00,1.65
5992.00,1.64
5991.00,1.64
5990.00,1.64
5989.00,1.64
5988.00,1.63
5987.00,1.63
5986.00,1.63
5985.00,1.63
5984.00,1.62
5983.00,1.62
5982.00,1.61
5981.00,1.61
5980.00,1.60
5979.00,1.60
5978.00,1.59
5977.00,1.59
5976.00,1.58
5975.00,1.58
5974.00,1.57
5973.00,1.56
5972.00,1.56
5971.00,1.55
5970.00,1.54
5969.00,1.53
5968.00,1.53
5967.00,1.52
5966.00,1.51
5965.00,1.50
5964.00,1.49
5963.00,1.48
5962.00,1.47
5961.00,1.46
5960.00,1.46
5959.00,1.45
5958.00,1.44
5957.00,1.43
5956.00,1.42
5955.00,1.41
5954.00,1.40
5953.00,1.39
5952.00,1.38
5951.00,1.38
5950.00,1.37
5949.00,1.36
5948.00,1.36
5947.00,1.35
5946.00,1.34
5945.00,1.34
5944.00,1.34
5943.00,1.33
5942.00,1.33
5941.00,1.33
5940.00,1.32
5939.00,1.32
5938.00,1.32
5937.00,1.32
5936.00,1.32
5935.00,1.31
5934.00,1.31
5933.00,1.31
5932.00,1.31
5931.00,1.31
5930.00,1.31
5929.00,1.31
5928.00,1.30
5927.00,1.30
5926.00,1.30
5925.00,1.30
5924.00,1.29
5923.00,1.29
5922.00,1.29
5921.00,1.29
5920.00,1.28
5919.00,1.28
5918.00,1.28
5917.00,1.27
5916.00,1.27
5915.00,1.27
5914.00,1.26
5913.00,1.26
5912.00,1.26
5911.00,1.25
5910.00,1.25
5909.00,1.25
5908.00,1.24
5907.00,1.24
5906.00,1.24
5905.00,1.24
5904.00,1.24
5903.00,1.23
5902.00,1.23
5901.00,1.23
5900.00,1.23
5899.00,1.23
5898.00,1.24
5897.00,1.24
5896.00,1.24
5895.00,1.24
5894.00,1.24
5893.00,1.25
5892.00,1.25
5891.00,1.25
5890.00,1.26
5889.00,1.26
5888.00,1.27
5887.00,1.27
5886.00,1.27
5885.00,1.28
5884.00,1.28
5883.00,1.29
5882.00,1.29
5881.00,1.29
5880.00,1.30
5879.00,1.30
5878.00,1.30
5877.00,1.31
5876.00,1.31
5875.00,1.31
5874.00,1.32
5873.00,1.32
5872.00,1.32
5871.00,1.33
5870.00,1.33
5869.00,1.33
5868.00,1.33
5867.00,1.34
5866.00,1.34
5865.00,1.34
5864.00,1.34
5863.00,1.35
5862.00,1.35
5861.00,1.35
5860.00,1.35
5859.00,1.35
5858.00,1.36
5857.00,1.36
5856.00,1.36
5855.00,1.36
5854.00,1.37
5853.00,1.37
5852.00,1.37
5851.00,1.37
5850.00,1.37
5849.00,1.37
5848.00,1.37
5847.00,1.38
5846.00,1.38
5845.00,1.38
5844.00,1.38
5843.00,1.38
5842.00,1.38
5841.00,1.38
5840.00,1.38
5839.00,1.37
5838.00,1.37
5837.00,1.37
5836.00,1.37
5835.00,1.37
5834.00,1.37
5833.00,1.37
5832.00,1.37
5831.00,1.37
5830.00,1.37
5829.00,1.37
5828.00,1.36
5827.00,1.36
5826.00,1.36
5825.00,1.36
5824.00,1.36
5823.00,1.36
5822.00,1.36
5821.00,1.36
5820.00,1.36
5819.00,1.36
5818.00,1.36
5817.00,1.36
5816.00,1.37
5815.00,1.37
5814.00,1.37
5813.00,1.37
5812.00,1.37
5811.00,1.37
5810.00,1.37
5809.00,1.37
5808.00,1.37
5807.00,1.37
5806.00,1.37
5805.00,1.37
5804.00,1.37
5803.00,1.36
5802.00,1.36
5801.00,1.36
5800.00,1.36
5799.00,1.36
5798.00,1.36
5797.00,1.35
5796.00,1.35
5795.00,1.35
5794.00,1.35
5793.00,1.34
5792.00,1.34
5791.00,1.34
5790.00,1.33
5789.00,1.33
5788.00,1.33
5787.00,1.32
5786.00,1.32
5785.00,1.32
5784.00,1.31
5783.00,1.31
5782.00,1.31
5781.00,1.30
5780.00,1.30
5779.00,1.30
5778.00,1.30
5777.00,1.30
5776.00,1.29
5775.00,1.29
5774.00,1.29
5773.00,1.29
5772.00,1.29
5771.00,1.29
5770.00,1.29
5769.00,1.29
5768.00,1.29
5767.00,1.30
5766.00,1.30
5765.00,1.30
5764.00,1.30
5763.00,1.31
5762.00,1.31
5761.00,1.32
5760.00,1.32
5759.00,1.32
5758.00,1.33
5757.00,1.33
5756.00,1.34
5755.00,1.34
5754.00,1.35
5753.00,1.35
5752.00,1.36
5751.00,1.36
5750.00,1.37
5749.00,1.37
5748.00,1.38
5747.00,1.38
5746.00,1.39
5745.00,1.39
5744.00,1.40
5743.00,1.40
5742.00,1.40
5741.00,1.41
5740.00,1.41
5739.00,1.41
5738.00,1.42
5737.00,1.42
5736.00,1.42
5735.00,1.43
5734.00,1.43
5733.00,1.43
5732.00,1.43
5731.00,1.44
5730.00,1.44
5729.00,1.44
5728.00,1.44
5727.00,1.44
5726.00,1.44
5725.00,1.44
5724.00,1.44
5723.00,1.44
5722.00,1.44
5721.00,1.44
5720.00,1.44
5719.00,1.44
5718.00,1.44
5717.00,1.44
5716.00,1.44
5715.00,1.44
5714.00,1.44
5713.00,1.44
5712.00,1.44
5711.00,1.44
5710.00,1.44
5709.00,1.44
5708.00,1.44
5707.00,1.44
5706.00,1.44
5705.00,1.43
5704.00,1.43
5703.00,1.43
5702.00,1.43
5701.00,1.43
5700.00,1.43
5699.00,1.42
5698.00,1.42
5697.00,1.42
5696.00,1.42
5695.00,1.42
5694.00,1.42
5693.00,1.41
5692.00,1.41
5691.00,1.41
5690.00,1.41
5689.00,1.41
5688.00,1.41
5687.00,1.40
5686.00,1.40
5685.00,1.40
5684.00,1.40
5683.00,1.40
5682.00,1.40
5681.00,1.40
5680.00,1.40
5679.00,1.40
5678.00,1.39
5677.00,1.39
5676.00,1.39
5675.00,1.39
5674.00,1.39
5673.00,1.39
5672.00,1.39
5671.00,1.39
5670.00,1.39
5669.00,1.39
5668.00,1.39
5667.00,1.40
5666.00,1.40
5665.00,1.40
5664.00,1.40
5663.00,1.40
5662.00,1.40
5661.00,1.40
5660.00,1.41
5659.00,1.41
5658.00,1.41
5657.00,1.41
5656.00,1.41
5655.00,1.42
5654.00,1.42
5653.00,1.42
5652.00,1.42
5651.00,1.42
5650.00,1.43
5649.00,1.43
5648.00,1.43
5647.00,1.43
5646.00,1.44
5645.00,1.44
5644.00,1.44
5643.00,1.44
5642.00,1.45
5641.00,1.45
5640.00,1.45
5639.00,1.46
5638.00,1.46
5637.00,1.46
5636.00,1.46
5635.00,1.47
5634.00,1.47
5633.00,1.47
5632.00,1.47
5631.00,1.48
5630.00,1.48
5629.00,1.48
5628.00,1.48
5627.00,1.49
5626.00,1.49
5625.00,1.49
5624.00,1.49
5623.00,1.50
5622.00,1.50
5621.00,1.50
5620.00,1.50
5619.00,1.50
5618.00,1.51
5617.00,1.51
5616.00,1.51
5615.00,1.51
5614.00,1.51
5613.00,1.52
5612.00,1.52
5611.00,1.52
5610.00,1.52
5609.00,1.52
5608.00,1.52
5607.00,1.53
5606.00,1.53
5605.00,1.53
5604.00,1.53
5603.00,1.53
5602.00,1.53
5601.00,1.54
5600.00,1.54
5599.00,1.54
5598.00,1.54
5597.00,1.55
5596.00,1.55
5595.00,1.55
5594.00,1.55
5593.00,1.55
5592.00,1.56
5591.00,1.56
5590.00,1.56
5589.00,1.56
5588.00,1.57
5587.00,1.57
5586.00,1.57
5585.00,1.57
5584.00,1.57
5583.00,1.58
5582.00,1.58
5581.00,1.58
5580.00,1.58
5579.00,1.58
5578.00,1.59
5577.00,1.59
5576.00,1.59
5575.00,1.59
5574.00,1.59
5573.00,1.60
5572.00,1.60
5571.00,1.60
5570.00,1.60
5569.00,1.60
5568.00,1.61
5567.00,1.61
5566.00,1.61
5565.00,1.61
5564.00,1.61
5563.00,1.61
5562.00,1.62
5561.00,1.62
5560.00,1.62
5559.00,1.62
5558.00,1.62
5557.00,1.62
5556.00,1.62
5555.00,1.63
5554.00,1.63
5553.00,1.63
5552.00,1.63
5551.00,1.63
5550.00,1.64
5549.00,1.64
5548.00,1.64
5547.00,1.64
5546.00,1.65
5545.00,1.65
5544.00,1.65
5543.00,1.65
5542.00,1.65
5541.00,1.66
5540.00,1.66
5539.00,1.66
5538.00,1.66
5537.00,1.66
5536.00,1.66
5535.00,1.67
5534.00,1.67
5533.00,1.67
5532.00,1.67
5531.00,1.67
5530.00,1.67
5529.00,1.67
5528.00,1.67
5527.00,1.67
5526.00,1.68
5525.00,1.68
5524.00,1.68
5523.00,1.68
5522.00,1.68
5521.00,1.68
5520.00,1.68
5519.00,1.68
5518.00,1.68
5517.00,1.69
5516.00,1.69
5515.00,1.69
5514.00,1.69
5513.00,1.69
5512.00,1.69
5511.00,1.69
5510.00,1.69
5509.00,1.69
5508.00,1.69
5507.00,1.70
5506.00,1.70
5505.00,1.70
5504.00,1.70
5503.00,1.70
5502.00,1.70
5501.00,1.70
5500.00,1.70
5499.00,1.70
5498.00,1.71
5497.00,1.71
5496.00,1.71
5495.00,1.71
5494.00,1.71
5493.00,1.71
5492.00,1.71
5491.00,1.71
5490.00,1.72
5489.00,1.72
5488.00,1.72
5487.00,1.72
5486.00,1.72
5485.00,1.72
5484.00,1.72
5483.00,1.73
5482.00,1.73
5481.00,1.73
5480.00,1.73
5479.00,1.73
5478.00,1.73
5477.00,1.74
5476.00,1.74
5475.00,1.74
5474.00,1.74
5473.00,1.74
5472.00,1.75
5471.00,1.75
5470.00,1.75
5469.00,1.75
5468.00,1.75
5467.00,1.75
5466.00,1.75
5465.00,1.76
5464.00,1.76
5463.00,1.76
5462.00,1.76
5461.00,1.76
5460.00,1.76
5459.00,1.76
5458.00,1.76
5457.00,1.76
5456.00,1.77
5455.00,1.77
5454.00,1.77
5453.00,1.77
5452.00,1.77
5451.00,1.77
5450.00,1.77
5449.00,1.77
5448.00,1.77
5447.00,1.77
5446.00,1.77
5445.00,1.78
5444.00,1.78
5443.00,1.78
5442.00,1.78
5441.00,1.78
5440.00,1.78
5439.00,1.78
5438.00,1.78
5437.00,1.78
5436.00,1.78
5435.00,1.78
5434.00,1.78
5433.00,1.78
5432.00,1.78
5431.00,1.78
5430.00,1.78
5429.00,1.78
5428.00,1.78
5427.00,1.78
5426.00,1.78
5425.00,1.78
5424.00,1.78
5423.00,1.78
5422.00,1.78
5421.00,1.78
5420.00,1.78
5419.00,1.78
5418.00,1.78
5417.00,1.78
5416.00,1.78
5415.00,1.78
5414.00,1.78
5413.00,1.78
5412.00,1.78
5411.00,1.78
5410.00,1.78
5409.00,1.78
5408.00,1.78
5407.00,1.78
5406.00,1.78
5405.00,1.78
5404.00,1.78
5403.00,1.78
5402.00,1.78
5401.00,1.78
5400.00,1.78
5399.00,1.78
5398.00,1.78
5397.00,1.78
5396.00,1.78
5395.00,1.77
5394.00,1.77
5393.00,1.77
5392.00,1.77
5391.00,1.77
5390.00,1.77
5389.00,1.76
5388.00,1.76
5387.00,1.76
5386.00,1.76
5385.00,1.75
5384.00,1.75
5383.00,1.75
5382.00,1.74
5381.00,1.74
5380.00,1.73
5379.00,1.73
5378.00,1.72
5377.00,1.72
5376.00,1.71
5375.00,1.71
5374.00,1.70
5373.00,1.70
5372.00,1.69
5371.00,1.68
5370.00,1.68
5369.00,1.67
5368.00,1.66
5367.00,1.66
5366.00,1.65
5365.00,1.64
5364.00,1.63
5363.00,1.62
5362.00,1.62
5361.00,1.61
5360.00,1.60
5359.00,1.59
5358.00,1.58
5357.00,1.57
5356.00,1.56
5355.00,1.55
5354.00,1.54
5353.00,1.52
5352.00,1.51
5351.00,1.50
5350.00,1.49
5349.00,1.48
5348.00,1.46
5347.00,1.45
5346.00,1.44
5345.00,1.42
5344.00,1.41
5343.00,1.40
5342.00,1.38
5341.00,1.37
5340.00,1.35
5339.00,1.34
5338.00,1.33
5337.00,1.31
5336.00,1.30
5335.00,1.28
5334.00,1.27
5333.00,1.25
5332.00,1.24
5331.00,1.23
5330.00,1.21
5329.00,1.20
5328.00,1.18
5327.00,1.17
5326.00,1.15
5325.00,1.14
5324.00,1.12
5323.00,1.11
5322.00,1.09
5321.00,1.08
5320.00,1.06
5319.00,1.05
5318.00,1.04
5317.00,1.02
5316.00,1.01
5315.00,0.99
5314.00,0.98
5313.00,0.97
5312.00,0.96
5311.00,0.94
5310.00,0.93
5309.00,0.92
5308.00,0.91
5307.00,0.90
5306.00,0.89
5305.00,0.88
5304.00,0.87
5303.00,0.86
5302.00,0.85
5301.00,0.84
5300.00,0.83
5299.00,0.83
5298.00,0.82
5297.00,0.81
5296.00,0.81
5295.00,0.80
5294.00,0.79
5293.00,0.79
5292.00,0.78
5291.00,0.78
5290.00,0.77
5289.00,0.77
5288.00,0.77
5287.00,0.76
5286.00,0.76
5285.00,0.76
5284.00,0.75
5283.00,0.75
5282.00,0.75
5281.00,0.75
5280.00,0.74
5279.00,0.74
5278.00,0.74
5277.00,0.74
5276.00,0.74
5275.00,0.74
5274.00,0.73
5273.00,0.73
5272.00,0.73
5271.00,0.73
5270.00,0.73
5269.00,0.73
5268.00,0.73
5267.00,0.73
5266.00,0.73
5265.00,0.72
5264.00,0.72
5263.00,0.72
5262.00,0.72
5261.00,0.72
5260.00,0.72
5259.00,0.72
5258.00,0.72
5257.00,0.72
5256.00,0.72
5255.00,0.72
5254.00,0.72
5253.00,0.72
5252.00,0.72
5251.00,0.72
5250.00,0.72
5249.00,0.72
5248.00,0.72
5247.00,0.72
5246.00,0.72
5245.00,0.72
5244.00,0.72
5243.00,0.72
5242.00,0.72
5241.00,0.72
5240.00,0.72
5239.00,0.72
5238.00,0.72
5237.00,0.72
5236.00,0.72
5235.00,0.72
5234.00,0.72
5233.00,0.72
5232.00,0.72
5231.00,0.72
5230.00,0.72
5229.00,0.72
5228.00,0.72
5227.00,0.72
5226.00,0.72
5225.00,0.72
5224.00,0.72
5223.00,0.72
5222.00,0.72
5221.00,0.72
5220.00,0.72
5219.00,0.72
5218.00,0.73
5217.00,0.73
5216.00,0.73
5215.00,0.73
5214.00,0.73
5213.00,0.73
5212.00,0.73
5211.00,0.73
5210.00,0.73
5209.00,0.73
5208.00,0.73
5207.00,0.73
5206.00,0.73
5205.00,0.73
5204.00,0.73
5203.00,0.73
5202.00,0.73
5201.00,0.73
5200.00,0.73
5199.00,0.73
5198.00,0.73
5197.00,0.73
5196.00,0.73
5195.00,0.73
5194.00,0.73
5193.00,0.73
5192.00,0.73
5191.00,0.73
5190.00,0.74
5189.00,0.74
5188.00,0.74
5187.00,0.74
5186.00,0.74
5185.00,0.74
5184.00,0.74
5183.00,0.74
5182.00,0.74
5181.00,0.74
5180.00,0.74
5179.00,0.74
5178.00,0.74
5177.00,0.74
5176.00,0.74
5175.00,0.74
5174.00,0.74
5173.00,0.74
5172.00,0.74
5171.00,0.74
5170.00,0.74
5169.00,0.74
5168.00,0.74
5167.00,0.74
5166.00,0.74
5165.00,0.74
5164.00,0.74
5163.00,0.74
5162.00,0.74
5161.00,0.74
5160.00,0.74
5159.00,0.74
5158.00,0.74
5157.00,0.74
5156.00,0.75
5155.00,0.75
5154.00,0.75
5153.00,0.75
5152.00,0.75
5151.00,0.75
5150.00,0.75
5149.00,0.75
5148.00,0.75
5147.00,0.76
5146.00,0.76
5145.00,0.76
5144.00,0.76
5143.00,0.76
5142.00,0.76
5141.00,0.76
5140.00,0.76
5139.00,0.76
5138.00,0.76
5137.00,0.76
5136.00,0.77
5135.00,0.77
5134.00,0.77
5133.00,0.77
5132.00,0.77
5131.00,0.77
5130.00,0.77
5129.00,0.77
5128.00,0.77
5127.00,0.77
5126.00,0.77
5125.00,0.78
5124.00,0.78
5123.00,0.78
5122.00,0.78
5121.00,0.78
5120.00,0.78
5119.00,0.78
5118.00,0.78
5117.00,0.78
5116.00,0.78
5115.00,0.78
5114.00,0.78
5113.00,0.79
5112.00,0.79
5111.00,0.79
5110.00,0.79
5109.00,0.79
5108.00,0.79
5107.00,0.79
5106.00,0.79
5105.00,0.79
5104.00,0.79
5103.00,0.79
5102.00,0.79
5101.00,0.79
5100.00,0.79
5099.00,0.79
5098.00,0.79
5097.00,0.79
5096.00,0.79
5095.00,0.79
5094.00,0.79
5093.00,0.79
5092.00,0.80
5091.00,0.80
5090.00,0.80
5089.00,0.80
5088.00,0.80
5087.00,0.80
5086.00,0.80
5085.00,0.80
5084.00,0.80
5083.00,0.80
5082.00,0.80
5081.00,0.80
5080.00,0.81
5079.00,0.81
5078.00,0.81
5077.00,0.81
5076.00,0.81
5075.00,0.81
5074.00,0.81
5073.00,0.81
5072.00,0.81
5071.00,0.81
5070.00,0.82
5069.00,0.82
5068.00,0.82
5067.00,0.82
5066.00,0.82
5065.00,0.82
5064.00,0.82
5063.00,0.82
5062.00,0.82
5061.00,0.82
5060.00,0.82
5059.00,0.82
5058.00,0.82
5057.00,0.82
5056.00,0.82
5055.00,0.82
5054.00,0.82
5053.00,0.82
5052.00,0.83
5051.00,0.83
5050.00,0.83
5049.00,0.83
5048.00,0.83
5047.00,0.83
5046.00,0.83
5045.00,0.83
5044.00,0.84
5043.00,0.84
5042.00,0.84
5041.00,0.84
5040.00,0.84
5039.00,0.85
5038.00,0.85
5037.00,0.85
5036.00,0.85
5035.00,0.85
5034.00,0.85
5033.00,0.86
5032.00,0.86
5031.00,0.86
5030.00,0.86
5029.00,0.86
5028.00,0.86
5027.00,0.86
5026.00,0.86
5025.00,0.86
5024.00,0.87
5023.00,0.87
5022.00,0.87
5021.00,0.87
5020.00,0.87
5019.00,0.87
5018.00,0.87
5017.00,0.87
5016.00,0.87
5015.00,0.87
5014.00,0.87
5013.00,0.87
5012.00,0.87
5011.00,0.88
5010.00,0.88
5009.00,0.88
5008.00,0.88
5007.00,0.88
5006.00,0.88
5005.00,0.88
5004.00,0.88
5003.00,0.88
5002.00,0.88
5001.00,0.88
5000.00,0.89
4999.00,0.89
4998.00,0.89
4997.00,0.89
4996.00,0.89
4995.00,0.89
4994.00,0.89
4993.00,0.90
4992.00,0.90
4991.00,0.90
4990.00,0.90
4989.00,0.90
4988.00,0.90
4987.00,0.90
4986.00,0.91
4985.00,0.91
4984.00,0.91
4983.00,0.91
4982.00,0.91
4981.00,0.91
4980.00,0.91
4979.00,0.92
4978.00,0.92
4977.00,0.92
4976.00,0.92
4975.00,0.92
4974.00,0.92
4973.00,0.92
4972.00,0.92
4971.00,0.92
4970.00,0.93
4969.00,0.93
4968.00,0.93
4967.00,0.93
4966.00,0.93
4965.00,0.93
4964.00,0.93
4963.00,0.93
4962.00,0.93
4961.00,0.94
4960.00,0.94
4959.00,0.94
4958.00,0.94
4957.00,0.94
4956.00,0.94
4955.00,0.94
4954.00,0.95
4953.00,0.95
4952.00,0.95
4951.00,0.95
4950.00,0.95
4949.00,0.95
4948.00,0.96
4947.00,0.96
4946.00,0.96
4945.00,0.96
4944.00,0.96
4943.00,0.96
4942.00,0.96
4941.00,0.97
4940.00,0.97
4939.00,0.97
4938.00,0.97
4937.00,0.97
4936.00,0.97
4935.00,0.97
4934.00,0.97
4933.00,0.97
4932.00,0.97
4931.00,0.97
4930.00,0.98
4929.00,0.98
4928.00,0.98
4927.00,0.98
4926.00,0.98
4925.00,0.98
4924.00,0.98
4923.00,0.98
4922.00,0.98
4921.00,0.98
4920.00,0.98
4919.00,0.98
4918.00,0.98
4917.00,0.99
4916.00,0.99
4915.00,0.99
4914.00,0.99
4913.00,0.99
4912.00,0.99
4911.00,0.99
4910.00,0.99
4909.00,0.99
4908.00,0.99
4907.00,0.99
4906.00,0.99
4905.00,0.99
4904.00,0.99
4903.00,0.99
4902.00,0.99
4901.00,0.99
4900.00,1.00
4899.00,1.00
4898.00,1.00
4897.00,1.00
4896.00,1.00
4895.00,1.00
4894.00,1.00
4893.00,1.00
4892.00,1.00
4891.00,1.01
4890.00,1.01
4889.00,1.01
4888.00,1.01
4887.00,1.01
4886.00,1.01
4885.00,1.01
4884.00,1.01
4883.00,1.02
4882.00,1.02
4881.00,1.02
4880.00,1.02
4879.00,1.02
4878.00,1.02
4877.00,1.02
4876.00,1.03
4875.00,1.03
4874.00,1.03
4873.00,1.03
4872.00,1.03
4871.00,1.03
4870.00,1.03
4869.00,1.03
4868.00,1.03
4867.00,1.03
4866.00,1.04
4865.00,1.04
4864.00,1.04
4863.00,1.04
4862.00,1.04
4861.00,1.04
4860.00,1.04
4859.00,1.04
4858.00,1.04
4857.00,1.04
4856.00,1.04
4855.00,1.04
4854.00,1.04
4853.00,1.04
4852.00,1.04
4851.00,1.04
4850.00,1.04
4849.00,1.05
4848.00,1.05
4847.00,1.05
4846.00,1.05
4845.00,1.05
4844.00,1.05
4843.00,1.06
4842.00,1.06
4841.00,1.06
4840.00,1.06
4839.00,1.06
4838.00,1.07
4837.00,1.07
4836.00,1.07
4835.00,1.07
4834.00,1.07
4833.00,1.07
4832.00,1.08
4831.00,1.08
4830.00,1.08
4829.00,1.08
4828.00,1.08
4827.00,1.08
4826.00,1.08
4825.00,1.08
4824.00,1.08
4823.00,1.08
4822.00,1.08
4821.00,1.09
4820.00,1.09
4819.00,1.09
4818.00,1.09
4817.00,1.09
4816.00,1.09
4815.00,1.09
4814.00,1.10
4813.00,1.10
4812.00,1.10
4811.00,1.10
4810.00,1.10
4809.00,1.11
4808.00,1.11
4807.00,1.11
4806.00,1.11
4805.00,1.11
4804.00,1.12
4803.00,1.12
4802.00,1.12
4801.00,1.12
4800.00,1.12
4799.00,1.12
4798.00,1.12
4797.00,1.13
4796.00,1.13
4795.00,1.13
4794.00,1.13
4793.00,1.13
4792.00,1.13
4791.00,1.14
4790.00,1.14
4789.00,1.14
4788.00,1.14
4787.00,1.14
4786.00,1.15
4785.00,1.15
4784.00,1.15
4783.00,1.15
4782.00,1.16
4781.00,1.16
4780.00,1.16
4779.00,1.17
4778.00,1.17
4777.00,1.17
4776.00,1.17
4775.00,1.18
4774.00,1.18
4773.00,1.18
4772.00,1.18
4771.00,1.19
4770.00,1.19
4769.00,1.19
4768.00,1.19
4767.00,1.19
4766.00,1.19
4765.00,1.19
4764.00,1.20
4763.00,1.20
4762.00,1.20
4761.00,1.20
4760.00,1.20
4759.00,1.20
4758.00,1.20
4757.00,1.20
4756.00,1.21
4755.00,1.21
4754.00,1.21
4753.00,1.21
4752.00,1.21
4751.00,1.22
4750.00,1.22
4749.00,1.22
4748.00,1.22
4747.00,1.23
4746.00,1.23
4745.00,1.23
4744.00,1.24
4743.00,1.24
4742.00,1.24
4741.00,1.24
4740.00,1.25
4739.00,1.25
4738.00,1.25
4737.00,1.25
4736.00,1.26
4735.00,1.26
4734.00,1.26
4733.00,1.26
4732.00,1.26
4731.00,1.27
4730.00,1.27
4729.00,1.27
4728.00,1.27
4727.00,1.27
4726.00,1.28
4725.00,1.28
4724.00,1.28
4723.00,1.28
4722.00,1.29
4721.00,1.29
4720.00,1.29
4719.00,1.30
4718.00,1.30
4717.00,1.30
4716.00,1.30
4715.00,1.31
4714.00,1.31
4713.00,1.31
4712.00,1.31
4711.00,1.32
4710.00,1.32
4709.00,1.32
4708.00,1.32
4707.00,1.33
4706.00,1.33
4705.00,1.33
4704.00,1.33
4703.00,1.33
4702.00,1.34
4701.00,1.34
4700.00,1.34
4699.00,1.34
4698.00,1.34
4697.00,1.35
4696.00,1.35
4695.00,1.35
4694.00,1.35
4693.00,1.35
4692.00,1.36
4691.00,1.36
4690.00,1.36
4689.00,1.36
4688.00,1.37
4687.00,1.37
4686.00,1.37
4685.00,1.37
4684.00,1.38
4683.00,1.38
4682.00,1.38
4681.00,1.39
4680.00,1.39
4679.00,1.39
4678.00,1.39
4677.00,1.40
4676.00,1.40
4675.00,1.40
4674.00,1.41
4673.00,1.41
4672.00,1.41
4671.00,1.42
4670.00,1.42
4669.00,1.42
4668.00,1.43
4667.00,1.43
4666.00,1.43
4665.00,1.43
4664.00,1.44
4663.00,1.44
4662.00,1.44
4661.00,1.45
4660.00,1.45
4659.00,1.45
4658.00,1.45
4657.00,1.46
4656.00,1.46
4655.00,1.46
4654.00,1.46
4653.00,1.46
4652.00,1.47
4651.00,1.47
4650.00,1.47
4649.00,1.47
4648.00,1.47
4647.00,1.47
4646.00,1.47
4645.00,1.48
4644.00,1.48
4643.00,1.48
4642.00,1.48
4641.00,1.48
4640.00,1.48
4639.00,1.49
4638.00,1.49
4637.00,1.49
4636.00,1.49
4635.00,1.49
4634.00,1.49
4633.00,1.50
4632.00,1.50
4631.00,1.50
4630.00,1.50
4629.00,1.50
4628.00,1.50
4627.00,1.51
4626.00,1.51
4625.00,1.51
4624.00,1.51
4623.00,1.51
4622.00,1.51
4621.00,1.51
4620.00,1.52
4619.00,1.52
4618.00,1.52
4617.00,1.52
4616.00,1.52
4615.00,1.52
4614.00,1.52
4613.00,1.52
4612.00,1.53
4611.00,1.53
4610.00,1.53
4609.00,1.53
4608.00,1.53
4607.00,1.53
4606.00,1.54
4605.00,1.54
4604.00,1.54
4603.00,1.54
4602.00,1.55
4601.00,1.55
4600.00,1.55
4599.00,1.55
4598.00,1.56
4597.00,1.56
4596.00,1.56
4595.00,1.56
4594.00,1.57
4593.00,1.57
4592.00,1.57
4591.00,1.57
4590.00,1.58
4589.00,1.58
4588.00,1.58
4587.00,1.58
4586.00,1.59
4585.00,1.59
4584.00,1.59
4583.00,1.59
4582.00,1.59
4581.00,1.59
4580.00,1.60
4579.00,1.60
4578.00,1.60
4577.00,1.60
4576.00,1.60
4575.00,1.60
4574.00,1.60
4573.00,1.60
4572.00,1.61
4571.00,1.61
4570.00,1.61
4569.00,1.61
4568.00,1.61
4567.00,1.61
4566.00,1.62
4565.00,1.62
4564.00,1.62
4563.00,1.62
4562.00,1.62
4561.00,1.63
4560.00,1.63
4559.00,1.63
4558.00,1.63
4557.00,1.63
4556.00,1.63
4555.00,1.64
4554.00,1.64
4553.00,1.64
4552.00,1.64
4551.00,1.64
4550.00,1.64
4549.00,1.64
4548.00,1.64
4547.00,1.65
4546.00,1.65
4545.00,1.65
4544.00,1.65
4543.00,1.65
4542.00,1.65
4541.00,1.65
4540.00,1.65
4539.00,1.65
4538.00,1.65
4537.00,1.65
4536.00,1.65
4535.00,1.65
4534.00,1.65
4533.00,1.65
4532.00,1.65
4531.00,1.65
4530.00,1.65
4529.00,1.65
4528.00,1.65
4527.00,1.65
4526.00,1.65
4525.00,1.65
4524.00,1.65
4523.00,1.66
4522.00,1.66
4521.00,1.66
4520.00,1.66
4519.00,1.66
4518.00,1.66
4517.00,1.66
4516.00,1.66
4515.00,1.66
4514.00,1.66
4513.00,1.66
4512.00,1.67
4511.00,1.67
4510.00,1.67
4509.00,1.67
4508.00,1.67
4507.00,1.67
4506.00,1.67
4505.00,1.67
4504.00,1.67
4503.00,1.66
4502.00,1.66
4501.00,1.66
4500.00,1.66
4499.00,1.66
4498.00,1.66
4497.00,1.66
4496.00,1.66
4495.00,1.66
4494.00,1.66
4493.00,1.66
4492.00,1.65
4491.00,1.65
4490.00,1.65
4489.00,1.65
4488.00,1.65
4487.00,1.65
4486.00,1.64
4485.00,1.64
4484.00,1.64
4483.00,1.64
4482.00,1.64
4481.00,1.63
4480.00,1.63
4479.00,1.63
4478.00,1.62
4477.00,1.62
4476.00,1.62
4475.00,1.61
4474.00,1.61
4473.00,1.61
4472.00,1.60
4471.00,1.60
4470.00,1.60
4469.00,1.59
4468.00,1.59
4467.00,1.58
4466.00,1.58
4465.00,1.57
4464.00,1.57
4463.00,1.56
4462.00,1.56
4461.00,1.55
4460.00,1.55
4459.00,1.54
4458.00,1.54
4457.00,1.53
4456.00,1.52
4455.00,1.52
4454.00,1.51
4453.00,1.50
4452.00,1.50
4451.00,1.49
4450.00,1.49
4449.00,1.48
4448.00,1.47
4447.00,1.47
4446.00,1.46
4445.00,1.45
4444.00,1.45
4443.00,1.44
4442.00,1.43
4441.00,1.43
4440.00,1.42
4439.00,1.41
4438.00,1.41
4437.00,1.40
4436.00,1.39
4435.00,1.39
4434.00,1.38
4433.00,1.38
4432.00,1.37
4431.00,1.37
4430.00,1.36
4429.00,1.36
4428.00,1.36
4427.00,1.35
4426.00,1.35
4425.00,1.35
4424.00,1.34
4423.00,1.34
4422.00,1.34
4421.00,1.34
4420.00,1.34
4419.00,1.34
4418.00,1.34
4417.00,1.34
4416.00,1.34
4415.00,1.34
4414.00,1.34
4413.00,1.34
4412.00,1.34
4411.00,1.34
4410.00,1.34
4409.00,1.34
4408.00,1.34
4407.00,1.34
4406.00,1.34
4405.00,1.34
4404.00,1.34
4403.00,1.34
4402.00,1.34
4401.00,1.34
4400.00,1.34
4399.00,1.34
4398.00,1.34
4397.00,1.35
4396.00,1.35
4395.00,1.35
4394.00,1.35
4393.00,1.35
4392.00,1.35
4391.00,1.36
4390.00,1.36
4389.00,1.36
4388.00,1.36
4387.00,1.36
4386.00,1.37
4385.00,1.37
4384.00,1.37
4383.00,1.37
4382.00,1.37
4381.00,1.38
4380.00,1.38
4379.00,1.38
4378.00,1.38
4377.00,1.38
4376.00,1.39
4375.00,1.39
4374.00,1.39
4373.00,1.39
4372.00,1.39
4371.00,1.40
4370.00,1.40
4369.00,1.40
4368.00,1.40
4367.00,1.40
4366.00,1.40
4365.00,1.40
4364.00,1.40
4363.00,1.40
4362.00,1.40
4361.00,1.40
4360.00,1.40
4359.00,1.39
4358.00,1.39
4357.00,1.39
4356.00,1.39
4355.00,1.38
4354.00,1.38
4353.00,1.38
4352.00,1.38
4351.00,1.38
4350.00,1.38
4349.00,1.37
4348.00,1.37
4347.00,1.37
4346.00,1.37
4345.00,1.37
4344.00,1.37
4343.00,1.37
4342.00,1.37
4341.00,1.38
4340.00,1.38
4339.00,1.38
4338.00,1.38
4337.00,1.38
4336.00,1.38
4335.00,1.39
4334.00,1.39
4333.00,1.39
4332.00,1.39
4331.00,1.40
4330.00,1.40
4329.00,1.40
4328.00,1.41
4327.00,1.41
4326.00,1.41
4325.00,1.41
4324.00,1.42
4323.00,1.42
4322.00,1.42
4321.00,1.42
4320.00,1.42
4319.00,1.43
4318.00,1.43
4317.00,1.43
4316.00,1.43
4315.00,1.43
4314.00,1.44
4313.00,1.44
4312.00,1.44
4311.00,1.45
4310.00,1.45
4309.00,1.45
4308.00,1.46
4307.00,1.46
4306.00,1.47
4305.00,1.47
4304.00,1.47
4303.00,1.48
4302.00,1.48
4301.00,1.49
4300.00,1.49
4299.00,1.49
4298.00,1.50
4297.00,1.50
4296.00,1.50
4295.00,1.51
4294.00,1.51
4293.00,1.51
4292.00,1.51
4291.00,1.51
4290.00,1.51
4289.00,1.51
4288.00,1.52
4287.00,1.52
4286.00,1.52
4285.00,1.52
4284.00,1.52
4283.00,1.52
4282.00,1.52
4281.00,1.52
4280.00,1.52
4279.00,1.52
4278.00,1.52
4277.00,1.52
4276.00,1.51
4275.00,1.51
4274.00,1.51
4273.00,1.51
4272.00,1.51
4271.00,1.51
4270.00,1.51
4269.00,1.51
4268.00,1.50
4267.00,1.50
4266.00,1.50
4265.00,1.50
4264.00,1.50
4263.00,1.50
4262.00,1.50
4261.00,1.50
4260.00,1.50
4259.00,1.50
4258.00,1.50
4257.00,1.50
4256.00,1.50
4255.00,1.50
4254.00,1.50
4253.00,1.50
4252.00,1.50
4251.00,1.51
4250.00,1.51
4249.00,1.51
4248.00,1.51
4247.00,1.52
4246.00,1.52
4245.00,1.52
4244.00,1.52
4243.00,1.53
4242.00,1.53
4241.00,1.53
4240.00,1.53
4239.00,1.53
4238.00,1.54
4237.00,1.54
4236.00,1.54
4235.00,1.54
4234.00,1.54
4233.00,1.55
4232.00,1.55
4231.00,1.55
4230.00,1.55
4229.00,1.55
4228.00,1.56
4227.00,1.56
4226.00,1.56
4225.00,1.56
4224.00,1.56
4223.00,1.56
4222.00,1.57
4221.00,1.57
4220.00,1.57
4219.00,1.57
4218.00,1.57
4217.00,1.57
4216.00,1.57
4215.00,1.57
4214.00,1.57
4213.00,1.57
4212.00,1.57
4211.00,1.57
4210.00,1.57
4209.00,1.57
4208.00,1.57
4207.00,1.57
4206.00,1.57
4205.00,1.57
4204.00,1.58
4203.00,1.58
4202.00,1.58
4201.00,1.58
4200.00,1.58
4199.00,1.58
4198.00,1.58
4197.00,1.58
4196.00,1.59
4195.00,1.59
4194.00,1.59
4193.00,1.59
4192.00,1.59
4191.00,1.59
4190.00,1.60
4189.00,1.60
4188.00,1.60
4187.00,1.60
4186.00,1.60
4185.00,1.60
4184.00,1.61
4183.00,1.61
4182.00,1.61
4181.00,1.61
4180.00,1.61
4179.00,1.61
4178.00,1.61
4177.00,1.61
4176.00,1.61
4175.00,1.61
4174.00,1.61
4173.00,1.61
4172.00,1.61
4171.00,1.61
4170.00,1.61
4169.00,1.61
4168.00,1.61
4167.00,1.61
4166.00,1.61
4165.00,1.60
4164.00,1.60
4163.00,1.60
4162.00,1.60
4161.00,1.60
4160.00,1.60
4159.00,1.60
4158.00,1.60
4157.00,1.60
4156.00,1.60
4155.00,1.60
4154.00,1.60
4153.00,1.60
4152.00,1.60
4151.00,1.60
4150.00,1.61
4149.00,1.61
4148.00,1.61
4147.00,1.61
4146.00,1.62
4145.00,1.62
4144.00,1.62
4143.00,1.63
4142.00,1.63
4141.00,1.63
4140.00,1.63
4139.00,1.64
4138.00,1.64
4137.00,1.64
4136.00,1.64
4135.00,1.64
4134.00,1.65
4133.00,1.65
4132.00,1.65
4131.00,1.65
4130.00,1.65
4129.00,1.65
4128.00,1.65
4127.00,1.66
4126.00,1.66
4125.00,1.66
4124.00,1.66
4123.00,1.66
4122.00,1.66
4121.00,1.66
4120.00,1.66
4119.00,1.66
4118.00,1.66
4117.00,1.66
4116.00,1.66
4115.00,1.66
4114.00,1.66
4113.00,1.66
4112.00,1.66
4111.00,1.66
4110.00,1.66
4109.00,1.66
4108.00,1.66
4107.00,1.66
4106.00,1.66
4105.00,1.66
4104.00,1.66
4103.00,1.66
4102.00,1.66
4101.00,1.66
4100.00,1.66
4099.00,1.67
4098.00,1.67
4097.00,1.67
4096.00,1.67
4095.00,1.67
4094.00,1.67
4093.00,1.68
4092.00,1.68
4091.00,1.68
4090.00,1.68
4089.00,1.68
4088.00,1.68
4087.00,1.68
4086.00,1.68
4085.00,1.68
4084.00,1.68
4083.00,1.68
4082.00,1.69
4081.00,1.69
4080.00,1.69
4079.00,1.69
4078.00,1.69
4077.00,1.69
4076.00,1.69
4075.00,1.69
4074.00,1.69
4073.00,1.69
4072.00,1.69
4071.00,1.69
4070.00,1.69
4069.00,1.69
4068.00,1.69
4067.00,1.69
4066.00,1.69
4065.00,1.69
4064.00,1.69
4063.00,1.69
4062.00,1.69
4061.00,1.69
4060.00,1.69
4059.00,1.69
4058.00,1.69
4057.00,1.69
4056.00,1.69
4055.00,1.69
4054.00,1.69
4053.00,1.69
4052.00,1.69
4051.00,1.69
4050.00,1.70
4049.00,1.70
4048.00,1.70
4047.00,1.70
4046.00,1.70
4045.00,1.71
4044.00,1.71
4043.00,1.71
4042.00,1.71
4041.00,1.72
4040.00,1.72
4039.00,1.72
4038.00,1.73
4037.00,1.73
4036.00,1.73
4035.00,1.73
4034.00,1.74
4033.00,1.74
4032.00,1.74
4031.00,1.74
4030.00,1.74
4029.00,1.74
4028.00,1.74
4027.00,1.74
4026.00,1.74
4025.00,1.74
4024.00,1.74
4023.00,1.73
4022.00,1.73
4021.00,1.73
4020.00,1.73
4019.00,1.73
4018.00,1.73
4017.00,1.73
4016.00,1.73
4015.00,1.73
4014.00,1.74
4013.00,1.74
4012.00,1.74
4011.00,1.74
4010.00,1.75
4009.00,1.75
4008.00,1.75
4007.00,1.76
4006.00,1.76
4005.00,1.77
4004.00,1.77
4003.00,1.77
4002.00,1.78
4001.00,1.78
4000.00,1.78
