创建为新数据集,样品 057 用户 Administrator 日期 星期三, 十一月 01 2017
cm-1,%T
10000.00,1.52
9999.00,1.51
9998.00,1.51
9997.00,1.51
9996.00,1.51
9995.00,1.51
9994.00,1.51
9993.00,1.51
9992.00,1.51
9991.00,1.51
9990.00,1.51
9989.00,1.51
9988.00,1.51
9987.00,1.51
9986.00,1.51
9985.00,1.51
9984.00,1.51
9983.00,1.51
9982.00,1.51
9981.00,1.51
9980.00,1.51
9979.00,1.51
9978.00,1.51
9977.00,1.51
9976.00,1.51
9975.00,1.51
9974.00,1.51
9973.00,1.51
9972.00,1.51
9971.00,1.50
9970.00,1.50
9969.00,1.50
9968.00,1.50
9967.00,1.49
9966.00,1.49
9965.00,1.49
9964.00,1.48
9963.00,1.48
9962.00,1.47
9961.00,1.47
9960.00,1.47
9959.00,1.47
9958.00,1.46
9957.00,1.46
9956.00,1.46
9955.00,1.46
9954.00,1.46
9953.00,1.46
9952.00,1.46
9951.00,1.46
9950.00,1.46
9949.00,1.47
9948.00,1.47
9947.00,1.47
9946.00,1.47
9945.00,1.48
9944.00,1.48
9943.00,1.48
9942.00,1.49
9941.00,1.49
9940.00,1.49
9939.00,1.49
9938.00,1.49
9937.00,1.50
9936.00,1.50
9935.00,1.50
9934.00,1.50
9933.00,1.50
9932.00,1.50
9931.00,1.50
9930.00,1.50
9929.00,1.50
9928.00,1.50
9927.00,1.50
9926.00,1.49
9925.00,1.49
9924.00,1.49
9923.00,1.49
9922.00,1.49
9921.00,1.49
9920.00,1.49
9919.00,1.49
9918.00,1.49
9917.00,1.49
9916.00,1.49
9915.00,1.49
9914.00,1.48
9913.00,1.48
9912.00,1.48
9911.00,1.48
9910.00,1.48
9909.00,1.48
9908.00,1.47
9907.00,1.47
9906.00,1.47
9905.00,1.47
9904.00,1.47
9903.00,1.47
9902.00,1.47
9901.00,1.47
9900.00,1.47
9899.00,1.47
9898.00,1.47
9897.00,1.47
9896.00,1.47
9895.00,1.47
9894.00,1.47
9893.00,1.47
9892.00,1.47
9891.00,1.47
9890.00,1.47
9889.00,1.47
9888.00,1.47
9887.00,1.47
9886.00,1.47
9885.00,1.47
9884.00,1.47
9883.00,1.47
9882.00,1.47
9881.00,1.47
9880.00,1.47
9879.00,1.46
9878.00,1.46
9877.00,1.46
9876.00,1.46
9875.00,1.46
9874.00,1.46
9873.00,1.46
9872.00,1.46
9871.00,1.46
9870.00,1.46
9869.00,1.46
9868.00,1.46
9867.00,1.46
9866.00,1.47
9865.00,1.47
9864.00,1.47
9863.00,1.48
9862.00,1.48
9861.00,1.48
9860.00,1.49
9859.00,1.49
9858.00,1.49
9857.00,1.49
9856.00,1.50
9855.00,1.50
9854.00,1.50
9853.00,1.51
9852.00,1.51
9851.00,1.51
9850.00,1.51
9849.00,1.51
9848.00,1.51
9847.00,1.51
9846.00,1.51
9845.00,1.51
9844.00,1.51
9843.00,1.51
9842.00,1.51
9841.00,1.51
9840.00,1.51
9839.00,1.50
9838.00,1.50
9837.00,1.50
9836.00,1.50
9835.00,1.50
9834.00,1.49
9833.00,1.49
9832.00,1.49
9831.00,1.49
9830.00,1.49
9829.00,1.49
9828.00,1.49
9827.00,1.50
9826.00,1.50
9825.00,1.50
9824.00,1.50
9823.00,1.50
9822.00,1.50
9821.00,1.50
9820.00,1.50
9819.00,1.50
9818.00,1.51
9817.00,1.51
9816.00,1.50
9815.00,1.50
9814.00,1.50
9813.00,1.50
9812.00,1.50
9811.00,1.50
9810.00,1.50
9809.00,1.50
9808.00,1.50
9807.00,1.50
9806.00,1.49
9805.00,1.49
9804.00,1.49
9803.00,1.49
9802.00,1.49
9801.00,1.49
9800.00,1.49
9799.00,1.50
9798.00,1.50
9797.00,1.50
9796.00,1.50
9795.00,1.50
9794.00,1.50
9793.00,1.50
9792.00,1.50
9791.00,1.50
9790.00,1.50
9789.00,1.50
9788.00,1.50
9787.00,1.50
9786.00,1.50
9785.00,1.50
9784.00,1.50
9783.00,1.50
9782.00,1.50
9781.00,1.50
9780.00,1.50
9779.00,1.50
9778.00,1.50
9777.00,1.50
9776.00,1.50
9775.00,1.49
9774.00,1.49
9773.00,1.49
9772.00,1.49
9771.00,1.49
9770.00,1.49
9769.00,1.49
9768.00,1.49
9767.00,1.49
9766.00,1.49
9765.00,1.49
9764.00,1.49
9763.00,1.49
9762.00,1.49
9761.00,1.48
9760.00,1.48
9759.00,1.48
9758.00,1.48
9757.00,1.48
9756.00,1.49
9755.00,1.49
9754.00,1.49
9753.00,1.49
9752.00,1.49
9751.00,1.49
9750.00,1.49
9749.00,1.49
9748.00,1.49
9747.00,1.49
9746.00,1.49
9745.00,1.49
9744.00,1.50
9743.00,1.50
9742.00,1.50
9741.00,1.50
9740.00,1.50
9739.00,1.50
9738.00,1.51
9737.00,1.51
9736.00,1.51
9735.00,1.51
9734.00,1.51
9733.00,1.51
9732.00,1.51
9731.00,1.51
9730.00,1.51
9729.00,1.51
9728.00,1.51
9727.00,1.51
9726.00,1.51
9725.00,1.51
9724.00,1.51
9723.00,1.50
9722.00,1.50
9721.00,1.50
9720.00,1.50
9719.00,1.50
9718.00,1.50
9717.00,1.49
9716.00,1.49
9715.00,1.49
9714.00,1.49
9713.00,1.49
9712.00,1.49
9711.00,1.49
9710.00,1.49
9709.00,1.49
9708.00,1.50
9707.00,1.50
9706.00,1.50
9705.00,1.50
9704.00,1.50
9703.00,1.50
9702.00,1.51
9701.00,1.51
9700.00,1.51
9699.00,1.51
9698.00,1.51
9697.00,1.51
9696.00,1.51
9695.00,1.51
9694.00,1.51
9693.00,1.51
9692.00,1.51
9691.00,1.50
9690.00,1.50
9689.00,1.50
9688.00,1.50
9687.00,1.49
9686.00,1.49
9685.00,1.49
9684.00,1.49
9683.00,1.49
9682.00,1.49
9681.00,1.49
9680.00,1.49
9679.00,1.49
9678.00,1.49
9677.00,1.49
9676.00,1.49
9675.00,1.49
9674.00,1.49
9673.00,1.49
9672.00,1.49
9671.00,1.49
9670.00,1.49
9669.00,1.49
9668.00,1.49
9667.00,1.49
9666.00,1.49
9665.00,1.48
9664.00,1.48
9663.00,1.48
9662.00,1.48
9661.00,1.48
9660.00,1.48
9659.00,1.48
9658.00,1.48
9657.00,1.48
9656.00,1.47
9655.00,1.47
9654.00,1.47
9653.00,1.47
9652.00,1.47
9651.00,1.48
9650.00,1.48
9649.00,1.48
9648.00,1.48
9647.00,1.48
9646.00,1.48
9645.00,1.48
9644.00,1.49
9643.00,1.49
9642.00,1.49
9641.00,1.49
9640.00,1.49
9639.00,1.49
9638.00,1.49
9637.00,1.50
9636.00,1.50
9635.00,1.50
9634.00,1.50
9633.00,1.50
9632.00,1.50
9631.00,1.50
9630.00,1.50
9629.00,1.50
9628.00,1.50
9627.00,1.50
9626.00,1.50
9625.00,1.50
9624.00,1.50
9623.00,1.50
9622.00,1.50
9621.00,1.50
9620.00,1.50
9619.00,1.50
9618.00,1.50
9617.00,1.50
9616.00,1.50
9615.00,1.50
9614.00,1.50
9613.00,1.50
9612.00,1.50
9611.00,1.50
9610.00,1.50
9609.00,1.50
9608.00,1.50
9607.00,1.50
9606.00,1.50
9605.00,1.50
9604.00,1.50
9603.00,1.50
9602.00,1.50
9601.00,1.50
9600.00,1.50
9599.00,1.50
9598.00,1.50
9597.00,1.50
9596.00,1.50
9595.00,1.50
9594.00,1.50
9593.00,1.50
9592.00,1.50
9591.00,1.50
9590.00,1.50
9589.00,1.49
9588.00,1.49
9587.00,1.49
9586.00,1.49
9585.00,1.49
9584.00,1.49
9583.00,1.49
9582.00,1.49
9581.00,1.48
9580.00,1.48
9579.00,1.48
9578.00,1.48
9577.00,1.49
9576.00,1.49
9575.00,1.49
9574.00,1.49
9573.00,1.49
9572.00,1.49
9571.00,1.49
9570.00,1.50
9569.00,1.50
9568.00,1.50
9567.00,1.50
9566.00,1.50
9565.00,1.50
9564.00,1.50
9563.00,1.50
9562.00,1.50
9561.00,1.50
9560.00,1.50
9559.00,1.50
9558.00,1.50
9557.00,1.50
9556.00,1.50
9555.00,1.50
9554.00,1.49
9553.00,1.49
9552.00,1.49
9551.00,1.49
9550.00,1.49
9549.00,1.49
9548.00,1.48
9547.00,1.48
9546.00,1.48
9545.00,1.48
9544.00,1.48
9543.00,1.48
9542.00,1.48
9541.00,1.48
9540.00,1.48
9539.00,1.48
9538.00,1.48
9537.00,1.48
9536.00,1.48
9535.00,1.48
9534.00,1.48
9533.00,1.48
9532.00,1.48
9531.00,1.48
9530.00,1.48
9529.00,1.48
9528.00,1.48
9527.00,1.48
9526.00,1.48
9525.00,1.48
9524.00,1.48
9523.00,1.48
9522.00,1.48
9521.00,1.48
9520.00,1.48
9519.00,1.48
9518.00,1.48
9517.00,1.48
9516.00,1.48
9515.00,1.48
9514.00,1.48
9513.00,1.48
9512.00,1.48
9511.00,1.48
9510.00,1.48
9509.00,1.48
9508.00,1.48
9507.00,1.48
9506.00,1.48
9505.00,1.48
9504.00,1.48
9503.00,1.48
9502.00,1.48
9501.00,1.48
9500.00,1.49
9499.00,1.49
9498.00,1.49
9497.00,1.49
9496.00,1.49
9495.00,1.49
9494.00,1.49
9493.00,1.49
9492.00,1.49
9491.00,1.49
9490.00,1.49
9489.00,1.49
9488.00,1.49
9487.00,1.49
9486.00,1.49
9485.00,1.49
9484.00,1.49
9483.00,1.49
9482.00,1.49
9481.00,1.49
9480.00,1.49
9479.00,1.49
9478.00,1.49
9477.00,1.49
9476.00,1.49
9475.00,1.49
9474.00,1.49
9473.00,1.50
9472.00,1.50
9471.00,1.50
9470.00,1.50
9469.00,1.50
9468.00,1.51
9467.00,1.51
9466.00,1.51
9465.00,1.51
9464.00,1.51
9463.00,1.51
9462.00,1.51
9461.00,1.51
9460.00,1.51
9459.00,1.51
9458.00,1.51
9457.00,1.51
9456.00,1.51
9455.00,1.51
9454.00,1.50
9453.00,1.50
9452.00,1.50
9451.00,1.50
9450.00,1.50
9449.00,1.50
9448.00,1.50
9447.00,1.49
9446.00,1.49
9445.00,1.49
9444.00,1.49
9443.00,1.49
9442.00,1.49
9441.00,1.49
9440.00,1.49
9439.00,1.49
9438.00,1.50
9437.00,1.50
9436.00,1.50
9435.00,1.50
9434.00,1.50
9433.00,1.50
9432.00,1.50
9431.00,1.50
9430.00,1.50
9429.00,1.50
9428.00,1.50
9427.00,1.50
9426.00,1.50
9425.00,1.50
9424.00,1.50
9423.00,1.50
9422.00,1.50
9421.00,1.50
9420.00,1.50
9419.00,1.49
9418.00,1.49
9417.00,1.49
9416.00,1.49
9415.00,1.49
9414.00,1.49
9413.00,1.49
9412.00,1.49
9411.00,1.49
9410.00,1.49
9409.00,1.49
9408.00,1.49
9407.00,1.49
9406.00,1.50
9405.00,1.50
9404.00,1.50
9403.00,1.50
9402.00,1.49
9401.00,1.49
9400.00,1.49
9399.00,1.49
9398.00,1.49
9397.00,1.49
9396.00,1.49
9395.00,1.49
9394.00,1.49
9393.00,1.49
9392.00,1.49
9391.00,1.49
9390.00,1.49
9389.00,1.49
9388.00,1.49
9387.00,1.49
9386.00,1.49
9385.00,1.49
9384.00,1.49
9383.00,1.49
9382.00,1.49
9381.00,1.49
9380.00,1.49
9379.00,1.50
9378.00,1.50
9377.00,1.50
9376.00,1.50
9375.00,1.50
9374.00,1.50
9373.00,1.50
9372.00,1.50
9371.00,1.50
9370.00,1.50
9369.00,1.50
9368.00,1.50
9367.00,1.50
9366.00,1.50
9365.00,1.50
9364.00,1.50
9363.00,1.50
9362.00,1.50
9361.00,1.49
9360.00,1.49
9359.00,1.49
9358.00,1.49
9357.00,1.49
9356.00,1.49
9355.00,1.49
9354.00,1.49
9353.00,1.49
9352.00,1.49
9351.00,1.49
9350.00,1.49
9349.00,1.49
9348.00,1.49
9347.00,1.49
9346.00,1.49
9345.00,1.49
9344.00,1.49
9343.00,1.49
9342.00,1.49
9341.00,1.49
9340.00,1.48
9339.00,1.48
9338.00,1.48
9337.00,1.48
9336.00,1.48
9335.00,1.48
9334.00,1.47
9333.00,1.47
9332.00,1.47
9331.00,1.47
9330.00,1.47
9329.00,1.47
9328.00,1.47
9327.00,1.47
9326.00,1.47
9325.00,1.47
9324.00,1.47
9323.00,1.47
9322.00,1.47
9321.00,1.47
9320.00,1.47
9319.00,1.47
9318.00,1.47
9317.00,1.47
9316.00,1.48
9315.00,1.48
9314.00,1.48
9313.00,1.48
9312.00,1.48
9311.00,1.48
9310.00,1.48
9309.00,1.48
9308.00,1.48
9307.00,1.49
9306.00,1.49
9305.00,1.49
9304.00,1.49
9303.00,1.49
9302.00,1.49
9301.00,1.49
9300.00,1.49
9299.00,1.49
9298.00,1.49
9297.00,1.49
9296.00,1.49
9295.00,1.49
9294.00,1.49
9293.00,1.49
9292.00,1.49
9291.00,1.48
9290.00,1.48
9289.00,1.48
9288.00,1.48
9287.00,1.48
9286.00,1.48
9285.00,1.48
9284.00,1.48
9283.00,1.48
9282.00,1.48
9281.00,1.48
9280.00,1.48
9279.00,1.49
9278.00,1.49
9277.00,1.49
9276.00,1.49
9275.00,1.49
9274.00,1.49
9273.00,1.49
9272.00,1.49
9271.00,1.49
9270.00,1.49
9269.00,1.49
9268.00,1.49
9267.00,1.49
9266.00,1.49
9265.00,1.49
9264.00,1.49
9263.00,1.49
9262.00,1.49
9261.00,1.50
9260.00,1.50
9259.00,1.50
9258.00,1.50
9257.00,1.50
9256.00,1.50
9255.00,1.50
9254.00,1.50
9253.00,1.50
9252.00,1.50
9251.00,1.50
9250.00,1.50
9249.00,1.50
9248.00,1.50
9247.00,1.50
9246.00,1.50
9245.00,1.50
9244.00,1.50
9243.00,1.50
9242.00,1.50
9241.00,1.50
9240.00,1.50
9239.00,1.50
9238.00,1.50
9237.00,1.50
9236.00,1.50
9235.00,1.50
9234.00,1.50
9233.00,1.50
9232.00,1.50
9231.00,1.50
9230.00,1.50
9229.00,1.50
9228.00,1.50
9227.00,1.50
9226.00,1.50
9225.00,1.50
9224.00,1.50
9223.00,1.50
9222.00,1.50
9221.00,1.50
9220.00,1.50
9219.00,1.50
9218.00,1.50
9217.00,1.50
9216.00,1.50
9215.00,1.50
9214.00,1.50
9213.00,1.50
9212.00,1.50
9211.00,1.50
9210.00,1.50
9209.00,1.50
9208.00,1.50
9207.00,1.50
9206.00,1.51
9205.00,1.51
9204.00,1.51
9203.00,1.51
9202.00,1.51
9201.00,1.51
9200.00,1.51
9199.00,1.51
9198.00,1.51
9197.00,1.51
9196.00,1.51
9195.00,1.51
9194.00,1.51
9193.00,1.51
9192.00,1.51
9191.00,1.51
9190.00,1.50
9189.00,1.50
9188.00,1.50
9187.00,1.50
9186.00,1.50
9185.00,1.50
9184.00,1.49
9183.00,1.49
9182.00,1.49
9181.00,1.49
9180.00,1.49
9179.00,1.49
9178.00,1.49
9177.00,1.49
9176.00,1.49
9175.00,1.49
9174.00,1.49
9173.00,1.49
9172.00,1.49
9171.00,1.49
9170.00,1.49
9169.00,1.49
9168.00,1.49
9167.00,1.49
9166.00,1.49
9165.00,1.49
9164.00,1.49
9163.00,1.50
9162.00,1.50
9161.00,1.50
9160.00,1.50
9159.00,1.50
9158.00,1.50
9157.00,1.50
9156.00,1.50
9155.00,1.50
9154.00,1.50
9153.00,1.50
9152.00,1.50
9151.00,1.50
9150.00,1.50
9149.00,1.50
9148.00,1.50
9147.00,1.50
9146.00,1.50
9145.00,1.50
9144.00,1.50
9143.00,1.50
9142.00,1.50
9141.00,1.50
9140.00,1.50
9139.00,1.50
9138.00,1.50
9137.00,1.50
9136.00,1.50
9135.00,1.50
9134.00,1.49
9133.00,1.49
9132.00,1.49
9131.00,1.49
9130.00,1.49
9129.00,1.49
9128.00,1.49
9127.00,1.49
9126.00,1.49
9125.00,1.49
9124.00,1.49
9123.00,1.49
9122.00,1.49
9121.00,1.49
9120.00,1.50
9119.00,1.50
9118.00,1.50
9117.00,1.50
9116.00,1.50
9115.00,1.50
9114.00,1.50
9113.00,1.50
9112.00,1.50
9111.00,1.50
9110.00,1.50
9109.00,1.50
9108.00,1.50
9107.00,1.50
9106.00,1.50
9105.00,1.50
9104.00,1.50
9103.00,1.50
9102.00,1.50
9101.00,1.50
9100.00,1.50
9099.00,1.50
9098.00,1.50
9097.00,1.50
9096.00,1.49
9095.00,1.49
9094.00,1.49
9093.00,1.49
9092.00,1.49
9091.00,1.49
9090.00,1.49
9089.00,1.49
9088.00,1.50
9087.00,1.50
9086.00,1.50
9085.00,1.50
9084.00,1.50
9083.00,1.50
9082.00,1.50
9081.00,1.50
9080.00,1.50
9079.00,1.50
9078.00,1.50
9077.00,1.50
9076.00,1.50
9075.00,1.50
9074.00,1.50
9073.00,1.50
9072.00,1.50
9071.00,1.49
9070.00,1.49
9069.00,1.49
9068.00,1.49
9067.00,1.49
9066.00,1.49
9065.00,1.49
9064.00,1.48
9063.00,1.48
9062.00,1.48
9061.00,1.48
9060.00,1.48
9059.00,1.48
9058.00,1.48
9057.00,1.48
9056.00,1.48
9055.00,1.48
9054.00,1.48
9053.00,1.48
9052.00,1.48
9051.00,1.48
9050.00,1.49
9049.00,1.49
9048.00,1.49
9047.00,1.49
9046.00,1.49
9045.00,1.49
9044.00,1.50
9043.00,1.50
9042.00,1.50
9041.00,1.50
9040.00,1.50
9039.00,1.50
9038.00,1.50
9037.00,1.50
9036.00,1.50
9035.00,1.50
9034.00,1.51
9033.00,1.51
9032.00,1.51
9031.00,1.51
9030.00,1.51
9029.00,1.51
9028.00,1.51
9027.00,1.51
9026.00,1.51
9025.00,1.51
9024.00,1.51
9023.00,1.51
9022.00,1.51
9021.00,1.51
9020.00,1.51
9019.00,1.51
9018.00,1.50
9017.00,1.50
9016.00,1.50
9015.00,1.50
9014.00,1.50
9013.00,1.50
9012.00,1.50
9011.00,1.50
9010.00,1.50
9009.00,1.50
9008.00,1.49
9007.00,1.49
9006.00,1.49
9005.00,1.49
9004.00,1.49
9003.00,1.49
9002.00,1.49
9001.00,1.49
9000.00,1.49
8999.00,1.49
8998.00,1.49
8997.00,1.50
8996.00,1.50
8995.00,1.50
8994.00,1.50
8993.00,1.50
8992.00,1.50
8991.00,1.50
8990.00,1.50
8989.00,1.50
8988.00,1.50
8987.00,1.50
8986.00,1.50
8985.00,1.50
8984.00,1.50
8983.00,1.50
8982.00,1.50
8981.00,1.49
8980.00,1.49
8979.00,1.49
8978.00,1.49
8977.00,1.49
8976.00,1.49
8975.00,1.49
8974.00,1.49
8973.00,1.49
8972.00,1.49
8971.00,1.49
8970.00,1.49
8969.00,1.49
8968.00,1.49
8967.00,1.49
8966.00,1.49
8965.00,1.49
8964.00,1.49
8963.00,1.49
8962.00,1.49
8961.00,1.49
8960.00,1.49
8959.00,1.49
8958.00,1.49
8957.00,1.49
8956.00,1.49
8955.00,1.49
8954.00,1.49
8953.00,1.49
8952.00,1.49
8951.00,1.50
8950.00,1.50
8949.00,1.50
8948.00,1.50
8947.00,1.50
8946.00,1.50
8945.00,1.51
8944.00,1.51
8943.00,1.51
8942.00,1.51
8941.00,1.51
8940.00,1.51
8939.00,1.51
8938.00,1.51
8937.00,1.51
8936.00,1.51
8935.00,1.51
8934.00,1.51
8933.00,1.51
8932.00,1.51
8931.00,1.51
8930.00,1.51
8929.00,1.51
8928.00,1.51
8927.00,1.51
8926.00,1.51
8925.00,1.51
8924.00,1.51
8923.00,1.51
8922.00,1.51
8921.00,1.51
8920.00,1.51
8919.00,1.51
8918.00,1.51
8917.00,1.51
8916.00,1.51
8915.00,1.51
8914.00,1.51
8913.00,1.51
8912.00,1.50
8911.00,1.50
8910.00,1.50
8909.00,1.50
8908.00,1.50
8907.00,1.50
8906.00,1.50
8905.00,1.50
8904.00,1.49
8903.00,1.49
8902.00,1.49
8901.00,1.49
8900.00,1.49
8899.00,1.49
8898.00,1.49
8897.00,1.49
8896.00,1.49
8895.00,1.49
8894.00,1.49
8893.00,1.50
8892.00,1.50
8891.00,1.50
8890.00,1.50
8889.00,1.50
8888.00,1.50
8887.00,1.50
8886.00,1.50
8885.00,1.50
8884.00,1.50
8883.00,1.50
8882.00,1.49
8881.00,1.49
8880.00,1.49
8879.00,1.49
8878.00,1.49
8877.00,1.49
8876.00,1.49
8875.00,1.48
8874.00,1.48
8873.00,1.48
8872.00,1.48
8871.00,1.48
8870.00,1.48
8869.00,1.48
8868.00,1.48
8867.00,1.48
8866.00,1.48
8865.00,1.48
8864.00,1.48
8863.00,1.48
8862.00,1.48
8861.00,1.48
8860.00,1.48
8859.00,1.48
8858.00,1.48
8857.00,1.48
8856.00,1.48
8855.00,1.48
8854.00,1.48
8853.00,1.48
8852.00,1.48
8851.00,1.48
8850.00,1.49
8849.00,1.49
8848.00,1.49
8847.00,1.49
8846.00,1.49
8845.00,1.49
8844.00,1.49
8843.00,1.49
8842.00,1.49
8841.00,1.49
8840.00,1.49
8839.00,1.49
8838.00,1.49
8837.00,1.49
8836.00,1.49
8835.00,1.49
8834.00,1.49
8833.00,1.49
8832.00,1.49
8831.00,1.49
8830.00,1.49
8829.00,1.49
8828.00,1.49
8827.00,1.49
8826.00,1.49
8825.00,1.49
8824.00,1.49
8823.00,1.49
8822.00,1.49
8821.00,1.49
8820.00,1.49
8819.00,1.49
8818.00,1.49
8817.00,1.48
8816.00,1.48
8815.00,1.48
8814.00,1.48
8813.00,1.48
8812.00,1.48
8811.00,1.48
8810.00,1.48
8809.00,1.48
8808.00,1.47
8807.00,1.47
8806.00,1.47
8805.00,1.47
8804.00,1.47
8803.00,1.47
8802.00,1.47
8801.00,1.47
8800.00,1.47
8799.00,1.47
8798.00,1.47
8797.00,1.46
8796.00,1.46
8795.00,1.46
8794.00,1.46
8793.00,1.46
8792.00,1.46
8791.00,1.46
8790.00,1.46
8789.00,1.46
8788.00,1.46
8787.00,1.46
8786.00,1.46
8785.00,1.46
8784.00,1.46
8783.00,1.46
8782.00,1.46
8781.00,1.46
8780.00,1.46
8779.00,1.46
8778.00,1.46
8777.00,1.46
8776.00,1.46
8775.00,1.46
8774.00,1.46
8773.00,1.46
8772.00,1.46
8771.00,1.46
8770.00,1.46
8769.00,1.46
8768.00,1.46
8767.00,1.46
8766.00,1.46
8765.00,1.46
8764.00,1.46
8763.00,1.46
8762.00,1.46
8761.00,1.46
8760.00,1.46
8759.00,1.46
8758.00,1.46
8757.00,1.46
8756.00,1.46
8755.00,1.46
8754.00,1.46
8753.00,1.46
8752.00,1.46
8751.00,1.46
8750.00,1.46
8749.00,1.46
8748.00,1.46
8747.00,1.46
8746.00,1.46
8745.00,1.46
8744.00,1.46
8743.00,1.46
8742.00,1.46
8741.00,1.46
8740.00,1.46
8739.00,1.45
8738.00,1.45
8737.00,1.45
8736.00,1.45
8735.00,1.45
8734.00,1.45
8733.00,1.45
8732.00,1.45
8731.00,1.45
8730.00,1.45
8729.00,1.45
8728.00,1.45
8727.00,1.45
8726.00,1.45
8725.00,1.45
8724.00,1.45
8723.00,1.45
8722.00,1.45
8721.00,1.45
8720.00,1.45
8719.00,1.45
8718.00,1.45
8717.00,1.45
8716.00,1.45
8715.00,1.45
8714.00,1.45
8713.00,1.45
8712.00,1.45
8711.00,1.45
8710.00,1.45
8709.00,1.45
8708.00,1.45
8707.00,1.44
8706.00,1.44
8705.00,1.44
8704.00,1.44
8703.00,1.44
8702.00,1.44
8701.00,1.44
8700.00,1.44
8699.00,1.44
8698.00,1.44
8697.00,1.44
8696.00,1.44
8695.00,1.44
8694.00,1.43
8693.00,1.43
8692.00,1.43
8691.00,1.43
8690.00,1.43
8689.00,1.43
8688.00,1.43
8687.00,1.43
8686.00,1.43
8685.00,1.43
8684.00,1.43
8683.00,1.43
8682.00,1.43
8681.00,1.43
8680.00,1.43
8679.00,1.43
8678.00,1.43
8677.00,1.43
8676.00,1.43
8675.00,1.43
8674.00,1.43
8673.00,1.43
8672.00,1.43
8671.00,1.43
8670.00,1.43
8669.00,1.43
8668.00,1.43
8667.00,1.43
8666.00,1.43
8665.00,1.43
8664.00,1.43
8663.00,1.43
8662.00,1.43
8661.00,1.43
8660.00,1.43
8659.00,1.43
8658.00,1.43
8657.00,1.43
8656.00,1.43
8655.00,1.43
8654.00,1.43
8653.00,1.43
8652.00,1.43
8651.00,1.43
8650.00,1.43
8649.00,1.43
8648.00,1.43
8647.00,1.43
8646.00,1.43
8645.00,1.43
8644.00,1.43
8643.00,1.43
8642.00,1.43
8641.00,1.43
8640.00,1.42
8639.00,1.42
8638.00,1.42
8637.00,1.42
8636.00,1.42
8635.00,1.42
8634.00,1.42
8633.00,1.42
8632.00,1.42
8631.00,1.42
8630.00,1.42
8629.00,1.41
8628.00,1.41
8627.00,1.41
8626.00,1.41
8625.00,1.41
8624.00,1.41
8623.00,1.41
8622.00,1.41
8621.00,1.41
8620.00,1.41
8619.00,1.41
8618.00,1.41
8617.00,1.41
8616.00,1.41
8615.00,1.41
8614.00,1.40
8613.00,1.40
8612.00,1.40
8611.00,1.40
8610.00,1.40
8609.00,1.40
8608.00,1.40
8607.00,1.40
8606.00,1.40
8605.00,1.40
8604.00,1.40
8603.00,1.40
8602.00,1.40
8601.00,1.40
8600.00,1.40
8599.00,1.40
8598.00,1.40
8597.00,1.40
8596.00,1.39
8595.00,1.39
8594.00,1.39
8593.00,1.39
8592.00,1.39
8591.00,1.39
8590.00,1.39
8589.00,1.39
8588.00,1.39
8587.00,1.39
8586.00,1.39
8585.00,1.39
8584.00,1.39
8583.00,1.39
8582.00,1.39
8581.00,1.39
8580.00,1.39
8579.00,1.39
8578.00,1.39
8577.00,1.39
8576.00,1.39
8575.00,1.39
8574.00,1.39
8573.00,1.39
8572.00,1.38
8571.00,1.38
8570.00,1.38
8569.00,1.38
8568.00,1.38
8567.00,1.38
8566.00,1.38
8565.00,1.38
8564.00,1.38
8563.00,1.38
8562.00,1.38
8561.00,1.38
8560.00,1.38
8559.00,1.38
8558.00,1.38
8557.00,1.38
8556.00,1.38
8555.00,1.37
8554.00,1.37
8553.00,1.37
8552.00,1.37
8551.00,1.37
8550.00,1.37
8549.00,1.37
8548.00,1.37
8547.00,1.37
8546.00,1.37
8545.00,1.37
8544.00,1.37
8543.00,1.37
8542.00,1.37
8541.00,1.37
8540.00,1.37
8539.00,1.37
8538.00,1.37
8537.00,1.37
8536.00,1.37
8535.00,1.37
8534.00,1.37
8533.00,1.37
8532.00,1.37
8531.00,1.37
8530.00,1.37
8529.00,1.37
8528.00,1.37
8527.00,1.37
8526.00,1.37
8525.00,1.37
8524.00,1.37
8523.00,1.37
8522.00,1.37
8521.00,1.37
8520.00,1.37
8519.00,1.37
8518.00,1.37
8517.00,1.37
8516.00,1.37
8515.00,1.37
8514.00,1.37
8513.00,1.36
8512.00,1.36
8511.00,1.36
8510.00,1.36
8509.00,1.36
8508.00,1.36
8507.00,1.36
8506.00,1.36
8505.00,1.36
8504.00,1.36
8503.00,1.36
8502.00,1.36
8501.00,1.36
8500.00,1.36
8499.00,1.36
8498.00,1.36
8497.00,1.36
8496.00,1.36
8495.00,1.35
8494.00,1.35
8493.00,1.35
8492.00,1.35
8491.00,1.35
8490.00,1.35
8489.00,1.35
8488.00,1.35
8487.00,1.35
8486.00,1.35
8485.00,1.34
8484.00,1.34
8483.00,1.34
8482.00,1.34
8481.00,1.34
8480.00,1.34
8479.00,1.33
8478.00,1.33
8477.00,1.33
8476.00,1.33
8475.00,1.33
8474.00,1.33
8473.00,1.32
8472.00,1.32
8471.00,1.32
8470.00,1.32
8469.00,1.32
8468.00,1.32
8467.00,1.32
8466.00,1.32
8465.00,1.32
8464.00,1.32
8463.00,1.32
8462.00,1.32
8461.00,1.32
8460.00,1.32
8459.00,1.33
8458.00,1.33
8457.00,1.33
8456.00,1.33
8455.00,1.33
8454.00,1.33
8453.00,1.33
8452.00,1.33
8451.00,1.33
8450.00,1.32
8449.00,1.32
8448.00,1.32
8447.00,1.32
8446.00,1.32
8445.00,1.32
8444.00,1.32
8443.00,1.32
8442.00,1.32
8441.00,1.32
8440.00,1.31
8439.00,1.31
8438.00,1.31
8437.00,1.31
8436.00,1.31
8435.00,1.31
8434.00,1.31
8433.00,1.31
8432.00,1.31
8431.00,1.31
8430.00,1.31
8429.00,1.31
8428.00,1.31
8427.00,1.31
8426.00,1.31
8425.00,1.31
8424.00,1.31
8423.00,1.31
8422.00,1.31
8421.00,1.31
8420.00,1.31
8419.00,1.31
8418.00,1.31
8417.00,1.32
8416.00,1.32
8415.00,1.32
8414.00,1.32
8413.00,1.32
8412.00,1.32
8411.00,1.32
8410.00,1.33
8409.00,1.33
8408.00,1.33
8407.00,1.33
8406.00,1.33
8405.00,1.34
8404.00,1.34
8403.00,1.34
8402.00,1.34
8401.00,1.35
8400.00,1.35
8399.00,1.35
8398.00,1.35
8397.00,1.35
8396.00,1.35
8395.00,1.36
8394.00,1.36
8393.00,1.36
8392.00,1.36
8391.00,1.36
8390.00,1.36
8389.00,1.36
8388.00,1.36
8387.00,1.36
8386.00,1.36
8385.00,1.36
8384.00,1.36
8383.00,1.36
8382.00,1.36
8381.00,1.36
8380.00,1.36
8379.00,1.36
8378.00,1.36
8377.00,1.36
8376.00,1.36
8375.00,1.36
8374.00,1.36
8373.00,1.36
8372.00,1.36
8371.00,1.36
8370.00,1.36
8369.00,1.36
8368.00,1.36
8367.00,1.36
8366.00,1.36
8365.00,1.36
8364.00,1.36
8363.00,1.36
8362.00,1.36
8361.00,1.36
8360.00,1.36
8359.00,1.36
8358.00,1.36
8357.00,1.36
8356.00,1.36
8355.00,1.36
8354.00,1.36
8353.00,1.36
8352.00,1.36
8351.00,1.36
8350.00,1.36
8349.00,1.36
8348.00,1.36
8347.00,1.36
8346.00,1.36
8345.00,1.36
8344.00,1.36
8343.00,1.36
8342.00,1.37
8341.00,1.37
8340.00,1.37
8339.00,1.37
8338.00,1.37
8337.00,1.37
8336.00,1.37
8335.00,1.38
8334.00,1.38
8333.00,1.38
8332.00,1.38
8331.00,1.38
8330.00,1.38
8329.00,1.38
8328.00,1.38
8327.00,1.38
8326.00,1.38
8325.00,1.38
8324.00,1.38
8323.00,1.38
8322.00,1.38
8321.00,1.38
8320.00,1.38
8319.00,1.38
8318.00,1.38
8317.00,1.37
8316.00,1.37
8315.00,1.37
8314.00,1.37
8313.00,1.37
8312.00,1.37
8311.00,1.37
8310.00,1.37
8309.00,1.37
8308.00,1.37
8307.00,1.37
8306.00,1.37
8305.00,1.37
8304.00,1.37
8303.00,1.37
8302.00,1.37
8301.00,1.37
8300.00,1.37
8299.00,1.37
8298.00,1.38
8297.00,1.38
8296.00,1.38
8295.00,1.38
8294.00,1.38
8293.00,1.38
8292.00,1.38
8291.00,1.38
8290.00,1.38
8289.00,1.38
8288.00,1.38
8287.00,1.38
8286.00,1.38
8285.00,1.38
8284.00,1.38
8283.00,1.38
8282.00,1.38
8281.00,1.38
8280.00,1.38
8279.00,1.38
8278.00,1.38
8277.00,1.38
8276.00,1.38
8275.00,1.38
8274.00,1.38
8273.00,1.38
8272.00,1.38
8271.00,1.38
8270.00,1.38
8269.00,1.38
8268.00,1.38
8267.00,1.38
8266.00,1.38
8265.00,1.38
8264.00,1.38
8263.00,1.38
8262.00,1.38
8261.00,1.38
8260.00,1.38
8259.00,1.38
8258.00,1.38
8257.00,1.38
8256.00,1.38
8255.00,1.38
8254.00,1.38
8253.00,1.39
8252.00,1.39
8251.00,1.39
8250.00,1.39
8249.00,1.39
8248.00,1.39
8247.00,1.39
8246.00,1.39
8245.00,1.39
8244.00,1.39
8243.00,1.39
8242.00,1.39
8241.00,1.39
8240.00,1.39
8239.00,1.39
8238.00,1.39
8237.00,1.39
8236.00,1.39
8235.00,1.39
8234.00,1.39
8233.00,1.39
8232.00,1.39
8231.00,1.39
8230.00,1.39
8229.00,1.40
8228.00,1.40
8227.00,1.40
8226.00,1.40
8225.00,1.40
8224.00,1.40
8223.00,1.40
8222.00,1.40
8221.00,1.40
8220.00,1.40
8219.00,1.40
8218.00,1.40
8217.00,1.41
8216.00,1.41
8215.00,1.41
8214.00,1.41
8213.00,1.41
8212.00,1.41
8211.00,1.41
8210.00,1.41
8209.00,1.41
8208.00,1.41
8207.00,1.41
8206.00,1.41
8205.00,1.41
8204.00,1.41
8203.00,1.41
8202.00,1.41
8201.00,1.41
8200.00,1.41
8199.00,1.41
8198.00,1.41
8197.00,1.41
8196.00,1.42
8195.00,1.42
8194.00,1.42
8193.00,1.42
8192.00,1.42
8191.00,1.42
8190.00,1.42
8189.00,1.42
8188.00,1.42
8187.00,1.42
8186.00,1.42
8185.00,1.42
8184.00,1.42
8183.00,1.42
8182.00,1.41
8181.00,1.41
8180.00,1.41
8179.00,1.41
8178.00,1.41
8177.00,1.41
8176.00,1.41
8175.00,1.41
8174.00,1.41
8173.00,1.41
8172.00,1.41
8171.00,1.41
8170.00,1.41
8169.00,1.41
8168.00,1.41
8167.00,1.41
8166.00,1.41
8165.00,1.41
8164.00,1.41
8163.00,1.41
8162.00,1.41
8161.00,1.41
8160.00,1.41
8159.00,1.42
8158.00,1.42
8157.00,1.42
8156.00,1.42
8155.00,1.42
8154.00,1.42
8153.00,1.42
8152.00,1.42
8151.00,1.43
8150.00,1.43
8149.00,1.43
8148.00,1.43
8147.00,1.43
8146.00,1.44
8145.00,1.44
8144.00,1.44
8143.00,1.44
8142.00,1.44
8141.00,1.44
8140.00,1.44
8139.00,1.45
8138.00,1.45
8137.00,1.45
8136.00,1.45
8135.00,1.45
8134.00,1.45
8133.00,1.45
8132.00,1.45
8131.00,1.45
8130.00,1.45
8129.00,1.45
8128.00,1.45
8127.00,1.45
8126.00,1.45
8125.00,1.45
8124.00,1.45
8123.00,1.45
8122.00,1.45
8121.00,1.45
8120.00,1.45
8119.00,1.45
8118.00,1.45
8117.00,1.45
8116.00,1.45
8115.00,1.46
8114.00,1.46
8113.00,1.45
8112.00,1.45
8111.00,1.45
8110.00,1.45
8109.00,1.45
8108.00,1.45
8107.00,1.45
8106.00,1.45
8105.00,1.45
8104.00,1.45
8103.00,1.46
8102.00,1.46
8101.00,1.46
8100.00,1.46
8099.00,1.46
8098.00,1.46
8097.00,1.46
8096.00,1.46
8095.00,1.46
8094.00,1.46
8093.00,1.46
8092.00,1.46
8091.00,1.46
8090.00,1.46
8089.00,1.46
8088.00,1.46
8087.00,1.46
8086.00,1.46
8085.00,1.46
8084.00,1.46
8083.00,1.46
8082.00,1.46
8081.00,1.45
8080.00,1.45
8079.00,1.45
8078.00,1.45
8077.00,1.45
8076.00,1.45
8075.00,1.45
8074.00,1.45
8073.00,1.45
8072.00,1.45
8071.00,1.45
8070.00,1.45
8069.00,1.45
8068.00,1.45
8067.00,1.45
8066.00,1.45
8065.00,1.45
8064.00,1.45
8063.00,1.45
8062.00,1.46
8061.00,1.46
8060.00,1.46
8059.00,1.46
8058.00,1.46
8057.00,1.46
8056.00,1.46
8055.00,1.46
8054.00,1.46
8053.00,1.46
8052.00,1.46
8051.00,1.46
8050.00,1.46
8049.00,1.46
8048.00,1.46
8047.00,1.46
8046.00,1.46
8045.00,1.46
8044.00,1.46
8043.00,1.46
8042.00,1.46
8041.00,1.46
8040.00,1.46
8039.00,1.46
8038.00,1.46
8037.00,1.46
8036.00,1.46
8035.00,1.46
8034.00,1.46
8033.00,1.46
8032.00,1.46
8031.00,1.46
8030.00,1.46
8029.00,1.46
8028.00,1.46
8027.00,1.46
8026.00,1.46
8025.00,1.46
8024.00,1.46
8023.00,1.46
8022.00,1.47
8021.00,1.47
8020.00,1.47
8019.00,1.47
8018.00,1.47
8017.00,1.47
8016.00,1.47
8015.00,1.47
8014.00,1.47
8013.00,1.47
8012.00,1.47
8011.00,1.47
8010.00,1.48
8009.00,1.48
8008.00,1.48
8007.00,1.48
8006.00,1.48
8005.00,1.48
8004.00,1.48
8003.00,1.48
8002.00,1.48
8001.00,1.48
8000.00,1.48
7999.00,1.48
7998.00,1.48
7997.00,1.48
7996.00,1.47
7995.00,1.47
7994.00,1.47
7993.00,1.47
7992.00,1.47
7991.00,1.47
7990.00,1.47
7989.00,1.47
7988.00,1.47
7987.00,1.47
7986.00,1.47
7985.00,1.47
7984.00,1.47
7983.00,1.47
7982.00,1.47
7981.00,1.48
7980.00,1.48
7979.00,1.48
7978.00,1.48
7977.00,1.48
7976.00,1.48
7975.00,1.48
7974.00,1.48
7973.00,1.48
7972.00,1.48
7971.00,1.48
7970.00,1.48
7969.00,1.48
7968.00,1.48
7967.00,1.48
7966.00,1.47
7965.00,1.47
7964.00,1.47
7963.00,1.47
7962.00,1.47
7961.00,1.47
7960.00,1.47
7959.00,1.47
7958.00,1.47
7957.00,1.47
7956.00,1.47
7955.00,1.48
7954.00,1.48
7953.00,1.48
7952.00,1.48
7951.00,1.48
7950.00,1.48
7949.00,1.48
7948.00,1.48
7947.00,1.48
7946.00,1.48
7945.00,1.48
7944.00,1.48
7943.00,1.48
7942.00,1.49
7941.00,1.49
7940.00,1.49
7939.00,1.49
7938.00,1.49
7937.00,1.49
7936.00,1.49
7935.00,1.49
7934.00,1.49
7933.00,1.49
7932.00,1.49
7931.00,1.49
7930.00,1.49
7929.00,1.49
7928.00,1.49
7927.00,1.49
7926.00,1.49
7925.00,1.49
7924.00,1.49
7923.00,1.49
7922.00,1.48
7921.00,1.48
7920.00,1.48
7919.00,1.48
7918.00,1.48
7917.00,1.48
7916.00,1.48
7915.00,1.48
7914.00,1.48
7913.00,1.48
7912.00,1.48
7911.00,1.48
7910.00,1.48
7909.00,1.48
7908.00,1.48
7907.00,1.48
7906.00,1.48
7905.00,1.48
7904.00,1.48
7903.00,1.48
7902.00,1.48
7901.00,1.48
7900.00,1.48
7899.00,1.48
7898.00,1.48
7897.00,1.48
7896.00,1.48
7895.00,1.48
7894.00,1.48
7893.00,1.48
7892.00,1.48
7891.00,1.48
7890.00,1.48
7889.00,1.48
7888.00,1.49
7887.00,1.49
7886.00,1.49
7885.00,1.49
7884.00,1.49
7883.00,1.49
7882.00,1.49
7881.00,1.49
7880.00,1.49
7879.00,1.49
7878.00,1.49
7877.00,1.49
7876.00,1.49
7875.00,1.49
7874.00,1.49
7873.00,1.49
7872.00,1.49
7871.00,1.49
7870.00,1.49
7869.00,1.49
7868.00,1.49
7867.00,1.49
7866.00,1.49
7865.00,1.49
7864.00,1.49
7863.00,1.49
7862.00,1.49
7861.00,1.49
7860.00,1.49
7859.00,1.49
7858.00,1.49
7857.00,1.49
7856.00,1.49
7855.00,1.49
7854.00,1.49
7853.00,1.49
7852.00,1.49
7851.00,1.49
7850.00,1.49
7849.00,1.49
7848.00,1.49
7847.00,1.49
7846.00,1.49
7845.00,1.49
7844.00,1.49
7843.00,1.49
7842.00,1.49
7841.00,1.50
7840.00,1.50
7839.00,1.50
7838.00,1.50
7837.00,1.50
7836.00,1.50
7835.00,1.50
7834.00,1.50
7833.00,1.50
7832.00,1.50
7831.00,1.50
7830.00,1.50
7829.00,1.50
7828.00,1.50
7827.00,1.50
7826.00,1.50
7825.00,1.50
7824.00,1.50
7823.00,1.50
7822.00,1.50
7821.00,1.50
7820.00,1.50
7819.00,1.50
7818.00,1.50
7817.00,1.50
7816.00,1.50
7815.00,1.50
7814.00,1.50
7813.00,1.50
7812.00,1.50
7811.00,1.50
7810.00,1.50
7809.00,1.50
7808.00,1.50
7807.00,1.50
7806.00,1.50
7805.00,1.50
7804.00,1.50
7803.00,1.50
7802.00,1.50
7801.00,1.50
7800.00,1.50
7799.00,1.50
7798.00,1.50
7797.00,1.50
7796.00,1.50
7795.00,1.51
7794.00,1.51
7793.00,1.51
7792.00,1.51
7791.00,1.51
7790.00,1.51
7789.00,1.51
7788.00,1.51
7787.00,1.51
7786.00,1.51
7785.00,1.51
7784.00,1.51
7783.00,1.51
7782.00,1.51
7781.00,1.51
7780.00,1.51
7779.00,1.51
7778.00,1.51
7777.00,1.51
7776.00,1.51
7775.00,1.51
7774.00,1.51
7773.00,1.51
7772.00,1.51
7771.00,1.51
7770.00,1.50
7769.00,1.50
7768.00,1.50
7767.00,1.50
7766.00,1.50
7765.00,1.50
7764.00,1.50
7763.00,1.50
7762.00,1.50
7761.00,1.50
7760.00,1.50
7759.00,1.51
7758.00,1.51
7757.00,1.51
7756.00,1.51
7755.00,1.51
7754.00,1.51
7753.00,1.51
7752.00,1.51
7751.00,1.51
7750.00,1.51
7749.00,1.51
7748.00,1.51
7747.00,1.51
7746.00,1.51
7745.00,1.51
7744.00,1.51
7743.00,1.51
7742.00,1.51
7741.00,1.51
7740.00,1.51
7739.00,1.51
7738.00,1.51
7737.00,1.51
7736.00,1.51
7735.00,1.51
7734.00,1.51
7733.00,1.51
7732.00,1.51
7731.00,1.51
7730.00,1.51
7729.00,1.51
7728.00,1.51
7727.00,1.51
7726.00,1.51
7725.00,1.51
7724.00,1.51
7723.00,1.51
7722.00,1.51
7721.00,1.51
7720.00,1.51
7719.00,1.51
7718.00,1.51
7717.00,1.51
7716.00,1.51
7715.00,1.51
7714.00,1.51
7713.00,1.51
7712.00,1.51
7711.00,1.51
7710.00,1.51
7709.00,1.51
7708.00,1.51
7707.00,1.50
7706.00,1.50
7705.00,1.50
7704.00,1.50
7703.00,1.50
7702.00,1.50
7701.00,1.50
7700.00,1.50
7699.00,1.50
7698.00,1.50
7697.00,1.50
7696.00,1.50
7695.00,1.50
7694.00,1.50
7693.00,1.50
7692.00,1.50
7691.00,1.50
7690.00,1.50
7689.00,1.51
7688.00,1.51
7687.00,1.51
7686.00,1.51
7685.00,1.51
7684.00,1.51
7683.00,1.51
7682.00,1.51
7681.00,1.51
7680.00,1.50
7679.00,1.50
7678.00,1.50
7677.00,1.50
7676.00,1.50
7675.00,1.50
7674.00,1.50
7673.00,1.50
7672.00,1.50
7671.00,1.50
7670.00,1.50
7669.00,1.50
7668.00,1.50
7667.00,1.50
7666.00,1.50
7665.00,1.50
7664.00,1.50
7663.00,1.50
7662.00,1.50
7661.00,1.50
7660.00,1.50
7659.00,1.50
7658.00,1.50
7657.00,1.50
7656.00,1.50
7655.00,1.50
7654.00,1.50
7653.00,1.50
7652.00,1.50
7651.00,1.50
7650.00,1.50
7649.00,1.50
7648.00,1.50
7647.00,1.51
7646.00,1.51
7645.00,1.51
7644.00,1.51
7643.00,1.51
7642.00,1.51
7641.00,1.51
7640.00,1.51
7639.00,1.51
7638.00,1.51
7637.00,1.51
7636.00,1.51
7635.00,1.51
7634.00,1.51
7633.00,1.51
7632.00,1.51
7631.00,1.51
7630.00,1.51
7629.00,1.51
7628.00,1.51
7627.00,1.51
7626.00,1.51
7625.00,1.51
7624.00,1.51
7623.00,1.51
7622.00,1.51
7621.00,1.51
7620.00,1.51
7619.00,1.51
7618.00,1.51
7617.00,1.51
7616.00,1.51
7615.00,1.51
7614.00,1.51
7613.00,1.51
7612.00,1.51
7611.00,1.51
7610.00,1.51
7609.00,1.51
7608.00,1.51
7607.00,1.51
7606.00,1.51
7605.00,1.51
7604.00,1.51
7603.00,1.51
7602.00,1.51
7601.00,1.51
7600.00,1.51
7599.00,1.51
7598.00,1.51
7597.00,1.51
7596.00,1.51
7595.00,1.51
7594.00,1.51
7593.00,1.51
7592.00,1.51
7591.00,1.51
7590.00,1.51
7589.00,1.51
7588.00,1.51
7587.00,1.51
7586.00,1.51
7585.00,1.51
7584.00,1.51
7583.00,1.51
7582.00,1.51
7581.00,1.51
7580.00,1.51
7579.00,1.51
7578.00,1.51
7577.00,1.51
7576.00,1.51
7575.00,1.51
7574.00,1.51
7573.00,1.50
7572.00,1.50
7571.00,1.50
7570.00,1.50
7569.00,1.50
7568.00,1.50
7567.00,1.50
7566.00,1.50
7565.00,1.50
7564.00,1.50
7563.00,1.50
7562.00,1.50
7561.00,1.50
7560.00,1.50
7559.00,1.50
7558.00,1.50
7557.00,1.50
7556.00,1.50
7555.00,1.50
7554.00,1.50
7553.00,1.50
7552.00,1.50
7551.00,1.50
7550.00,1.50
7549.00,1.50
7548.00,1.50
7547.00,1.50
7546.00,1.50
7545.00,1.50
7544.00,1.50
7543.00,1.50
7542.00,1.50
7541.00,1.50
7540.00,1.50
7539.00,1.50
7538.00,1.50
7537.00,1.50
7536.00,1.50
7535.00,1.50
7534.00,1.50
7533.00,1.50
7532.00,1.50
7531.00,1.50
7530.00,1.50
7529.00,1.50
7528.00,1.50
7527.00,1.50
7526.00,1.50
7525.00,1.50
7524.00,1.50
7523.00,1.50
7522.00,1.50
7521.00,1.50
7520.00,1.50
7519.00,1.50
7518.00,1.50
7517.00,1.49
7516.00,1.49
7515.00,1.49
7514.00,1.49
7513.00,1.49
7512.00,1.49
7511.00,1.49
7510.00,1.49
7509.00,1.49
7508.00,1.49
7507.00,1.49
7506.00,1.49
7505.00,1.49
7504.00,1.49
7503.00,1.49
7502.00,1.49
7501.00,1.48
7500.00,1.48
7499.00,1.48
7498.00,1.48
7497.00,1.48
7496.00,1.48
7495.00,1.48
7494.00,1.48
7493.00,1.48
7492.00,1.48
7491.00,1.48
7490.00,1.48
7489.00,1.48
7488.00,1.48
7487.00,1.48
7486.00,1.48
7485.00,1.48
7484.00,1.48
7483.00,1.48
7482.00,1.47
7481.00,1.47
7480.00,1.47
7479.00,1.47
7478.00,1.47
7477.00,1.47
7476.00,1.47
7475.00,1.47
7474.00,1.47
7473.00,1.47
7472.00,1.46
7471.00,1.46
7470.00,1.46
7469.00,1.46
7468.00,1.46
7467.00,1.46
7466.00,1.46
7465.00,1.46
7464.00,1.46
7463.00,1.45
7462.00,1.45
7461.00,1.45
7460.00,1.45
7459.00,1.45
7458.00,1.45
7457.00,1.45
7456.00,1.45
7455.00,1.45
7454.00,1.46
7453.00,1.46
7452.00,1.46
7451.00,1.46
7450.00,1.45
7449.00,1.45
7448.00,1.45
7447.00,1.45
7446.00,1.45
7445.00,1.45
7444.00,1.45
7443.00,1.45
7442.00,1.45
7441.00,1.45
7440.00,1.45
7439.00,1.45
7438.00,1.45
7437.00,1.44
7436.00,1.44
7435.00,1.44
7434.00,1.44
7433.00,1.44
7432.00,1.44
7431.00,1.44
7430.00,1.44
7429.00,1.44
7428.00,1.44
7427.00,1.44
7426.00,1.43
7425.00,1.43
7424.00,1.43
7423.00,1.43
7422.00,1.43
7421.00,1.43
7420.00,1.43
7419.00,1.43
7418.00,1.43
7417.00,1.43
7416.00,1.43
7415.00,1.43
7414.00,1.43
7413.00,1.43
7412.00,1.43
7411.00,1.43
7410.00,1.43
7409.00,1.43
7408.00,1.43
7407.00,1.43
7406.00,1.43
7405.00,1.43
7404.00,1.43
7403.00,1.43
7402.00,1.43
7401.00,1.42
7400.00,1.42
7399.00,1.42
7398.00,1.42
7397.00,1.42
7396.00,1.42
7395.00,1.41
7394.00,1.41
7393.00,1.41
7392.00,1.41
7391.00,1.41
7390.00,1.41
7389.00,1.41
7388.00,1.40
7387.00,1.40
7386.00,1.40
7385.00,1.40
7384.00,1.40
7383.00,1.40
7382.00,1.40
7381.00,1.40
7380.00,1.40
7379.00,1.40
7378.00,1.40
7377.00,1.40
7376.00,1.40
7375.00,1.40
7374.00,1.40
7373.00,1.39
7372.00,1.39
7371.00,1.39
7370.00,1.39
7369.00,1.39
7368.00,1.39
7367.00,1.39
7366.00,1.39
7365.00,1.39
7364.00,1.39
7363.00,1.39
7362.00,1.39
7361.00,1.39
7360.00,1.39
7359.00,1.39
7358.00,1.39
7357.00,1.39
7356.00,1.39
7355.00,1.39
7354.00,1.39
7353.00,1.39
7352.00,1.39
7351.00,1.39
7350.00,1.39
7349.00,1.39
7348.00,1.39
7347.00,1.39
7346.00,1.39
7345.00,1.39
7344.00,1.39
7343.00,1.39
7342.00,1.39
7341.00,1.39
7340.00,1.39
7339.00,1.39
7338.00,1.39
7337.00,1.39
7336.00,1.39
7335.00,1.39
7334.00,1.39
7333.00,1.39
7332.00,1.39
7331.00,1.39
7330.00,1.39
7329.00,1.39
7328.00,1.39
7327.00,1.39
7326.00,1.39
7325.00,1.39
7324.00,1.39
7323.00,1.39
7322.00,1.39
7321.00,1.38
7320.00,1.38
7319.00,1.38
7318.00,1.38
7317.00,1.38
7316.00,1.38
7315.00,1.38
7314.00,1.38
7313.00,1.38
7312.00,1.37
7311.00,1.37
7310.00,1.37
7309.00,1.37
7308.00,1.37
7307.00,1.37
7306.00,1.37
7305.00,1.37
7304.00,1.37
7303.00,1.37
7302.00,1.36
7301.00,1.36
7300.00,1.36
7299.00,1.36
7298.00,1.36
7297.00,1.36
7296.00,1.36
7295.00,1.35
7294.00,1.35
7293.00,1.35
7292.00,1.35
7291.00,1.35
7290.00,1.35
7289.00,1.35
7288.00,1.34
7287.00,1.34
7286.00,1.34
7285.00,1.34
7284.00,1.34
7283.00,1.34
7282.00,1.34
7281.00,1.34
7280.00,1.34
7279.00,1.34
7278.00,1.34
7277.00,1.33
7276.00,1.33
7275.00,1.33
7274.00,1.33
7273.00,1.33
7272.00,1.33
7271.00,1.33
7270.00,1.33
7269.00,1.33
7268.00,1.33
7267.00,1.33
7266.00,1.33
7265.00,1.32
7264.00,1.32
7263.00,1.32
7262.00,1.32
7261.00,1.32
7260.00,1.32
7259.00,1.32
7258.00,1.31
7257.00,1.31
7256.00,1.31
7255.00,1.31
7254.00,1.30
7253.00,1.30
7252.00,1.30
7251.00,1.30
7250.00,1.29
7249.00,1.29
7248.00,1.29
7247.00,1.28
7246.00,1.28
7245.00,1.28
7244.00,1.27
7243.00,1.27
7242.00,1.27
7241.00,1.26
7240.00,1.26
7239.00,1.26
7238.00,1.26
7237.00,1.25
7236.00,1.25
7235.00,1.25
7234.00,1.24
7233.00,1.24
7232.00,1.24
7231.00,1.23
7230.00,1.23
7229.00,1.23
7228.00,1.22
7227.00,1.22
7226.00,1.22
7225.00,1.21
7224.00,1.21
7223.00,1.21
7222.00,1.20
7221.00,1.20
7220.00,1.19
7219.00,1.19
7218.00,1.18
7217.00,1.18
7216.00,1.18
7215.00,1.17
7214.00,1.17
7213.00,1.16
7212.00,1.16
7211.00,1.15
7210.00,1.15
7209.00,1.14
7208.00,1.14
7207.00,1.13
7206.00,1.13
7205.00,1.13
7204.00,1.12
7203.00,1.12
7202.00,1.11
7201.00,1.11
7200.00,1.11
7199.00,1.10
7198.00,1.10
7197.00,1.09
7196.00,1.09
7195.00,1.09
7194.00,1.08
7193.00,1.08
7192.00,1.08
7191.00,1.07
7190.00,1.07
7189.00,1.07
7188.00,1.06
7187.00,1.06
7186.00,1.06
7185.00,1.05
7184.00,1.05
7183.00,1.05
7182.00,1.04
7181.00,1.04
7180.00,1.04
7179.00,1.03
7178.00,1.03
7177.00,1.03
7176.00,1.02
7175.00,1.02
7174.00,1.02
7173.00,1.01
7172.00,1.01
7171.00,1.01
7170.00,1.00
7169.00,1.00
7168.00,1.00
7167.00,1.00
7166.00,0.99
7165.00,0.99
7164.00,0.99
7163.00,0.98
7162.00,0.98
7161.00,0.98
7160.00,0.98
7159.00,0.97
7158.00,0.97
7157.00,0.97
7156.00,0.96
7155.00,0.96
7154.00,0.96
7153.00,0.95
7152.00,0.95
7151.00,0.95
7150.00,0.94
7149.00,0.94
7148.00,0.93
7147.00,0.93
7146.00,0.93
7145.00,0.92
7144.00,0.92
7143.00,0.92
7142.00,0.91
7141.00,0.91
7140.00,0.90
7139.00,0.90
7138.00,0.90
7137.00,0.89
7136.00,0.89
7135.00,0.89
7134.00,0.88
7133.00,0.88
7132.00,0.88
7131.00,0.87
7130.00,0.87
7129.00,0.87
7128.00,0.86
7127.00,0.86
7126.00,0.86
7125.00,0.86
7124.00,0.85
7123.00,0.85
7122.00,0.85
7121.00,0.84
7120.00,0.84
7119.00,0.84
7118.00,0.84
7117.00,0.83
7116.00,0.83
7115.00,0.83
7114.00,0.82
7113.00,0.82
7112.00,0.82
7111.00,0.82
7110.00,0.81
7109.00,0.81
7108.00,0.81
7107.00,0.81
7106.00,0.81
7105.00,0.80
7104.00,0.80
7103.00,0.80
7102.00,0.80
7101.00,0.79
7100.00,0.79
7099.00,0.79
7098.00,0.79
7097.00,0.79
7096.00,0.78
7095.00,0.78
7094.00,0.78
7093.00,0.78
7092.00,0.77
7091.00,0.77
7090.00,0.77
7089.00,0.77
7088.00,0.76
7087.00,0.76
7086.00,0.76
7085.00,0.76
7084.00,0.75
7083.00,0.75
7082.00,0.75
7081.00,0.75
7080.00,0.74
7079.00,0.74
7078.00,0.74
7077.00,0.74
7076.00,0.74
7075.00,0.73
7074.00,0.73
7073.00,0.73
7072.00,0.73
7071.00,0.72
7070.00,0.72
7069.00,0.72
7068.00,0.72
7067.00,0.72
7066.00,0.71
7065.00,0.71
7064.00,0.71
7063.00,0.71
7062.00,0.71
7061.00,0.71
7060.00,0.70
7059.00,0.70
7058.00,0.70
7057.00,0.70
7056.00,0.70
7055.00,0.70
7054.00,0.70
7053.00,0.70
7052.00,0.70
7051.00,0.69
7050.00,0.69
7049.00,0.69
7048.00,0.69
7047.00,0.69
7046.00,0.69
7045.00,0.69
7044.00,0.68
7043.00,0.68
7042.00,0.68
7041.00,0.68
7040.00,0.68
7039.00,0.68
7038.00,0.67
7037.00,0.67
7036.00,0.67
7035.00,0.67
7034.00,0.67
7033.00,0.67
7032.00,0.67
7031.00,0.67
7030.00,0.66
7029.00,0.66
7028.00,0.66
7027.00,0.66
7026.00,0.66
7025.00,0.66
7024.00,0.66
7023.00,0.66
7022.00,0.66
7021.00,0.66
7020.00,0.66
7019.00,0.66
7018.00,0.65
7017.00,0.65
7016.00,0.65
7015.00,0.65
7014.00,0.65
7013.00,0.65
7012.00,0.65
7011.00,0.64
7010.00,0.64
7009.00,0.64
7008.00,0.64
7007.00,0.64
7006.00,0.64
7005.00,0.64
7004.00,0.64
7003.00,0.63
7002.00,0.63
7001.00,0.63
7000.00,0.63
6999.00,0.63
6998.00,0.63
6997.00,0.63
6996.00,0.63
6995.00,0.63
6994.00,0.63
6993.00,0.63
6992.00,0.63
6991.00,0.63
6990.00,0.63
6989.00,0.63
6988.00,0.63
6987.00,0.63
6986.00,0.63
6985.00,0.63
6984.00,0.63
6983.00,0.63
6982.00,0.63
6981.00,0.63
6980.00,0.63
6979.00,0.62
6978.00,0.62
6977.00,0.62
6976.00,0.62
6975.00,0.62
6974.00,0.62
6973.00,0.62
6972.00,0.62
6971.00,0.62
6970.00,0.62
6969.00,0.62
6968.00,0.62
6967.00,0.61
6966.00,0.61
6965.00,0.61
6964.00,0.61
6963.00,0.61
6962.00,0.61
6961.00,0.61
6960.00,0.61
6959.00,0.61
6958.00,0.61
6957.00,0.61
6956.00,0.61
6955.00,0.61
6954.00,0.61
6953.00,0.61
6952.00,0.61
6951.00,0.61
6950.00,0.61
6949.00,0.61
6948.00,0.61
6947.00,0.61
6946.00,0.61
6945.00,0.61
6944.00,0.61
6943.00,0.61
6942.00,0.61
6941.00,0.61
6940.00,0.61
6939.00,0.61
6938.00,0.60
6937.00,0.60
6936.00,0.60
6935.00,0.60
6934.00,0.60
6933.00,0.60
6932.00,0.60
6931.00,0.60
6930.00,0.60
6929.00,0.60
6928.00,0.60
6927.00,0.60
6926.00,0.60
6925.00,0.60
6924.00,0.60
6923.00,0.60
6922.00,0.60
6921.00,0.59
6920.00,0.59
6919.00,0.59
6918.00,0.59
6917.00,0.59
6916.00,0.59
6915.00,0.59
6914.00,0.59
6913.00,0.59
6912.00,0.59
6911.00,0.59
6910.00,0.59
6909.00,0.59
6908.00,0.59
6907.00,0.59
6906.00,0.59
6905.00,0.59
6904.00,0.59
6903.00,0.59
6902.00,0.59
6901.00,0.59
6900.00,0.59
6899.00,0.59
6898.00,0.59
6897.00,0.59
6896.00,0.59
6895.00,0.59
6894.00,0.59
6893.00,0.59
6892.00,0.59
6891.00,0.59
6890.00,0.59
6889.00,0.59
6888.00,0.59
6887.00,0.59
6886.00,0.59
6885.00,0.59
6884.00,0.59
6883.00,0.59
6882.00,0.59
6881.00,0.59
6880.00,0.59
6879.00,0.59
6878.00,0.59
6877.00,0.59
6876.00,0.59
6875.00,0.59
6874.00,0.59
6873.00,0.59
6872.00,0.59
6871.00,0.59
6870.00,0.59
6869.00,0.59
6868.00,0.59
6867.00,0.59
6866.00,0.59
6865.00,0.59
6864.00,0.59
6863.00,0.59
6862.00,0.59
6861.00,0.59
6860.00,0.59
6859.00,0.59
6858.00,0.59
6857.00,0.59
6856.00,0.59
6855.00,0.58
6854.00,0.58
6853.00,0.58
6852.00,0.58
6851.00,0.58
6850.00,0.58
6849.00,0.58
6848.00,0.58
6847.00,0.58
6846.00,0.58
6845.00,0.58
6844.00,0.58
6843.00,0.58
6842.00,0.59
6841.00,0.59
6840.00,0.59
6839.00,0.59
6838.00,0.59
6837.00,0.59
6836.00,0.59
6835.00,0.59
6834.00,0.59
6833.00,0.59
6832.00,0.59
6831.00,0.59
6830.00,0.59
6829.00,0.59
6828.00,0.59
6827.00,0.59
6826.00,0.59
6825.00,0.59
6824.00,0.59
6823.00,0.59
6822.00,0.59
6821.00,0.59
6820.00,0.60
6819.00,0.60
6818.00,0.60
6817.00,0.60
6816.00,0.60
6815.00,0.60
6814.00,0.60
6813.00,0.60
6812.00,0.60
6811.00,0.60
6810.00,0.60
6809.00,0.60
6808.00,0.60
6807.00,0.60
6806.00,0.60
6805.00,0.60
6804.00,0.60
6803.00,0.60
6802.00,0.60
6801.00,0.60
6800.00,0.60
6799.00,0.60
6798.00,0.60
6797.00,0.60
6796.00,0.61
6795.00,0.61
6794.00,0.61
6793.00,0.61
6792.00,0.61
6791.00,0.61
6790.00,0.61
6789.00,0.61
6788.00,0.61
6787.00,0.62
6786.00,0.62
6785.00,0.62
6784.00,0.62
6783.00,0.62
6782.00,0.62
6781.00,0.62
6780.00,0.62
6779.00,0.62
6778.00,0.62
6777.00,0.62
6776.00,0.62
6775.00,0.62
6774.00,0.62
6773.00,0.62
6772.00,0.62
6771.00,0.62
6770.00,0.62
6769.00,0.62
6768.00,0.62
6767.00,0.62
6766.00,0.63
6765.00,0.63
6764.00,0.63
6763.00,0.63
6762.00,0.63
6761.00,0.63
6760.00,0.63
6759.00,0.63
6758.00,0.63
6757.00,0.63
6756.00,0.63
6755.00,0.63
6754.00,0.63
6753.00,0.64
6752.00,0.64
6751.00,0.64
6750.00,0.64
6749.00,0.64
6748.00,0.64
6747.00,0.64
6746.00,0.64
6745.00,0.64
6744.00,0.64
6743.00,0.64
6742.00,0.64
6741.00,0.64
6740.00,0.64
6739.00,0.64
6738.00,0.65
6737.00,0.65
6736.00,0.65
6735.00,0.65
6734.00,0.65
6733.00,0.65
6732.00,0.65
6731.00,0.65
6730.00,0.65
6729.00,0.65
6728.00,0.65
6727.00,0.65
6726.00,0.65
6725.00,0.65
6724.00,0.65
6723.00,0.66
6722.00,0.66
6721.00,0.66
6720.00,0.66
6719.00,0.66
6718.00,0.66
6717.00,0.66
6716.00,0.66
6715.00,0.67
6714.00,0.67
6713.00,0.67
6712.00,0.67
6711.00,0.67
6710.00,0.67
6709.00,0.67
6708.00,0.68
6707.00,0.68
6706.00,0.68
6705.00,0.68
6704.00,0.68
6703.00,0.68
6702.00,0.68
6701.00,0.68
6700.00,0.68
6699.00,0.68
6698.00,0.68
6697.00,0.68
6696.00,0.68
6695.00,0.68
6694.00,0.68
6693.00,0.68
6692.00,0.68
6691.00,0.68
6690.00,0.69
6689.00,0.69
6688.00,0.69
6687.00,0.69
6686.00,0.69
6685.00,0.69
6684.00,0.69
6683.00,0.69
6682.00,0.70
6681.00,0.70
6680.00,0.70
6679.00,0.70
6678.00,0.70
6677.00,0.70
6676.00,0.70
6675.00,0.70
6674.00,0.71
6673.00,0.71
6672.00,0.71
6671.00,0.71
6670.00,0.71
6669.00,0.71
6668.00,0.71
6667.00,0.71
6666.00,0.71
6665.00,0.72
6664.00,0.72
6663.00,0.72
6662.00,0.72
6661.00,0.72
6660.00,0.72
6659.00,0.72
6658.00,0.73
6657.00,0.73
6656.00,0.73
6655.00,0.73
6654.00,0.73
6653.00,0.73
6652.00,0.73
6651.00,0.73
6650.00,0.74
6649.00,0.74
6648.00,0.74
6647.00,0.74
6646.00,0.74
6645.00,0.74
6644.00,0.74
6643.00,0.74
6642.00,0.75
6641.00,0.75
6640.00,0.75
6639.00,0.75
6638.00,0.75
6637.00,0.75
6636.00,0.75
6635.00,0.75
6634.00,0.75
6633.00,0.76
6632.00,0.76
6631.00,0.76
6630.00,0.76
6629.00,0.76
6628.00,0.76
6627.00,0.76
6626.00,0.76
6625.00,0.76
6624.00,0.76
6623.00,0.77
6622.00,0.77
6621.00,0.77
6620.00,0.77
6619.00,0.77
6618.00,0.77
6617.00,0.77
6616.00,0.77
6615.00,0.77
6614.00,0.77
6613.00,0.78
6612.00,0.78
6611.00,0.78
6610.00,0.78
6609.00,0.78
6608.00,0.78
6607.00,0.78
6606.00,0.78
6605.00,0.78
6604.00,0.79
6603.00,0.79
6602.00,0.79
6601.00,0.79
6600.00,0.79
6599.00,0.79
6598.00,0.79
6597.00,0.79
6596.00,0.79
6595.00,0.79
6594.00,0.79
6593.00,0.79
6592.00,0.79
6591.00,0.79
6590.00,0.79
6589.00,0.79
6588.00,0.79
6587.00,0.80
6586.00,0.80
6585.00,0.80
6584.00,0.80
6583.00,0.80
6582.00,0.80
6581.00,0.80
6580.00,0.80
6579.00,0.81
6578.00,0.81
6577.00,0.81
6576.00,0.81
6575.00,0.81
6574.00,0.81
6573.00,0.82
6572.00,0.82
6571.00,0.82
6570.00,0.82
6569.00,0.82
6568.00,0.82
6567.00,0.82
6566.00,0.82
6565.00,0.83
6564.00,0.83
6563.00,0.83
6562.00,0.83
6561.00,0.83
6560.00,0.83
6559.00,0.83
6558.00,0.83
6557.00,0.83
6556.00,0.83
6555.00,0.83
6554.00,0.83
6553.00,0.83
6552.00,0.83
6551.00,0.84
6550.00,0.84
6549.00,0.84
6548.00,0.84
6547.00,0.84
6546.00,0.84
6545.00,0.84
6544.00,0.84
6543.00,0.84
6542.00,0.85
6541.00,0.85
6540.00,0.85
6539.00,0.85
6538.00,0.85
6537.00,0.85
6536.00,0.85
6535.00,0.86
6534.00,0.86
6533.00,0.86
6532.00,0.86
6531.00,0.86
6530.00,0.86
6529.00,0.86
6528.00,0.86
6527.00,0.87
6526.00,0.87
6525.00,0.87
6524.00,0.87
6523.00,0.87
6522.00,0.87
6521.00,0.87
6520.00,0.87
6519.00,0.87
6518.00,0.88
6517.00,0.88
6516.00,0.88
6515.00,0.88
6514.00,0.88
6513.00,0.88
6512.00,0.88
6511.00,0.88
6510.00,0.89
6509.00,0.89
6508.00,0.89
6507.00,0.89
6506.00,0.89
6505.00,0.89
6504.00,0.89
6503.00,0.89
6502.00,0.89
6501.00,0.89
6500.00,0.89
6499.00,0.90
6498.00,0.90
6497.00,0.90
6496.00,0.90
6495.00,0.90
6494.00,0.90
6493.00,0.90
6492.00,0.90
6491.00,0.90
6490.00,0.90
6489.00,0.90
6488.00,0.90
6487.00,0.90
6486.00,0.90
6485.00,0.90
6484.00,0.90
6483.00,0.90
6482.00,0.90
6481.00,0.90
6480.00,0.91
6479.00,0.91
6478.00,0.91
6477.00,0.91
6476.00,0.91
6475.00,0.91
6474.00,0.91
6473.00,0.91
6472.00,0.91
6471.00,0.91
6470.00,0.91
6469.00,0.91
6468.00,0.91
6467.00,0.91
6466.00,0.91
6465.00,0.91
6464.00,0.92
6463.00,0.92
6462.00,0.92
6461.00,0.92
6460.00,0.92
6459.00,0.92
6458.00,0.92
6457.00,0.92
6456.00,0.92
6455.00,0.92
6454.00,0.92
6453.00,0.92
6452.00,0.92
6451.00,0.92
6450.00,0.93
6449.00,0.93
6448.00,0.93
6447.00,0.93
6446.00,0.93
6445.00,0.93
6444.00,0.93
6443.00,0.93
6442.00,0.93
6441.00,0.93
6440.00,0.94
6439.00,0.94
6438.00,0.94
6437.00,0.94
6436.00,0.94
6435.00,0.94
6434.00,0.94
6433.00,0.94
6432.00,0.94
6431.00,0.94
6430.00,0.94
6429.00,0.94
6428.00,0.94
6427.00,0.94
6426.00,0.94
6425.00,0.94
6424.00,0.94
6423.00,0.94
6422.00,0.95
6421.00,0.95
6420.00,0.95
6419.00,0.95
6418.00,0.95
6417.00,0.95
6416.00,0.95
6415.00,0.95
6414.00,0.95
6413.00,0.95
6412.00,0.95
6411.00,0.95
6410.00,0.95
6409.00,0.95
6408.00,0.95
6407.00,0.95
6406.00,0.95
6405.00,0.95
6404.00,0.95
6403.00,0.95
6402.00,0.95
6401.00,0.95
6400.00,0.96
6399.00,0.96
6398.00,0.96
6397.00,0.96
6396.00,0.96
6395.00,0.96
6394.00,0.96
6393.00,0.96
6392.00,0.96
6391.00,0.96
6390.00,0.97
6389.00,0.97
6388.00,0.97
6387.00,0.97
6386.00,0.97
6385.00,0.97
6384.00,0.97
6383.00,0.97
6382.00,0.97
6381.00,0.97
6380.00,0.97
6379.00,0.97
6378.00,0.97
6377.00,0.97
6376.00,0.98
6375.00,0.98
6374.00,0.98
6373.00,0.98
6372.00,0.98
6371.00,0.98
6370.00,0.98
6369.00,0.98
6368.00,0.98
6367.00,0.99
6366.00,0.99
6365.00,0.99
6364.00,0.99
6363.00,0.99
6362.00,0.99
6361.00,0.99
6360.00,0.99
6359.00,0.99
6358.00,0.99
6357.00,0.99
6356.00,0.99
6355.00,1.00
6354.00,1.00
6353.00,1.00
6352.00,1.00
6351.00,1.00
6350.00,1.00
6349.00,1.00
6348.00,1.00
6347.00,1.00
6346.00,1.00
6345.00,1.00
6344.00,1.00
6343.00,1.01
6342.00,1.01
6341.00,1.01
6340.00,1.01
6339.00,1.01
6338.00,1.01
6337.00,1.01
6336.00,1.02
6335.00,1.02
6334.00,1.02
6333.00,1.02
6332.00,1.02
6331.00,1.02
6330.00,1.02
6329.00,1.02
6328.00,1.02
6327.00,1.02
6326.00,1.03
6325.00,1.03
6324.00,1.03
6323.00,1.03
6322.00,1.03
6321.00,1.03
6320.00,1.03
6319.00,1.03
6318.00,1.03
6317.00,1.03
6316.00,1.04
6315.00,1.04
6314.00,1.04
6313.00,1.04
6312.00,1.04
6311.00,1.04
6310.00,1.04
6309.00,1.04
6308.00,1.04
6307.00,1.04
6306.00,1.05
6305.00,1.05
6304.00,1.05
6303.00,1.05
6302.00,1.05
6301.00,1.05
6300.00,1.05
6299.00,1.06
6298.00,1.06
6297.00,1.06
6296.00,1.06
6295.00,1.06
6294.00,1.06
6293.00,1.06
6292.00,1.07
6291.00,1.07
6290.00,1.07
6289.00,1.07
6288.00,1.07
6287.00,1.07
6286.00,1.07
6285.00,1.07
6284.00,1.08
6283.00,1.08
6282.00,1.08
6281.00,1.08
6280.00,1.08
6279.00,1.08
6278.00,1.08
6277.00,1.08
6276.00,1.08
6275.00,1.08
6274.00,1.09
6273.00,1.09
6272.00,1.09
6271.00,1.09
6270.00,1.09
6269.00,1.09
6268.00,1.09
6267.00,1.09
6266.00,1.09
6265.00,1.09
6264.00,1.10
6263.00,1.10
6262.00,1.10
6261.00,1.10
6260.00,1.10
6259.00,1.10
6258.00,1.10
6257.00,1.11
6256.00,1.11
6255.00,1.11
6254.00,1.11
6253.00,1.11
6252.00,1.11
6251.00,1.12
6250.00,1.12
6249.00,1.12
6248.00,1.12
6247.00,1.12
6246.00,1.12
6245.00,1.13
6244.00,1.13
6243.00,1.13
6242.00,1.13
6241.00,1.13
6240.00,1.13
6239.00,1.13
6238.00,1.14
6237.00,1.14
6236.00,1.14
6235.00,1.14
6234.00,1.14
6233.00,1.14
6232.00,1.14
6231.00,1.14
6230.00,1.15
6229.00,1.15
6228.00,1.15
6227.00,1.15
6226.00,1.15
6225.00,1.15
6224.00,1.15
6223.00,1.15
6222.00,1.16
6221.00,1.16
6220.00,1.16
6219.00,1.16
6218.00,1.16
6217.00,1.16
6216.00,1.16
6215.00,1.17
6214.00,1.17
6213.00,1.17
6212.00,1.17
6211.00,1.17
6210.00,1.17
6209.00,1.18
6208.00,1.18
6207.00,1.18
6206.00,1.18
6205.00,1.18
6204.00,1.18
6203.00,1.19
6202.00,1.19
6201.00,1.19
6200.00,1.19
6199.00,1.19
6198.00,1.19
6197.00,1.20
6196.00,1.20
6195.00,1.20
6194.00,1.20
6193.00,1.20
6192.00,1.20
6191.00,1.20
6190.00,1.21
6189.00,1.21
6188.00,1.21
6187.00,1.21
6186.00,1.21
6185.00,1.21
6184.00,1.21
6183.00,1.22
6182.00,1.22
6181.00,1.22
6180.00,1.22
6179.00,1.22
6178.00,1.22
6177.00,1.22
6176.00,1.22
6175.00,1.23
6174.00,1.23
6173.00,1.23
6172.00,1.23
6171.00,1.23
6170.00,1.23
6169.00,1.23
6168.00,1.24
6167.00,1.24
6166.00,1.24
6165.00,1.24
6164.00,1.24
6163.00,1.24
6162.00,1.24
6161.00,1.25
6160.00,1.25
6159.00,1.25
6158.00,1.25
6157.00,1.25
6156.00,1.25
6155.00,1.26
6154.00,1.26
6153.00,1.26
6152.00,1.26
6151.00,1.26
6150.00,1.26
6149.00,1.27
6148.00,1.27
6147.00,1.27
6146.00,1.27
6145.00,1.27
6144.00,1.27
6143.00,1.28
6142.00,1.28
6141.00,1.28
6140.00,1.28
6139.00,1.28
6138.00,1.29
6137.00,1.29
6136.00,1.29
6135.00,1.29
6134.00,1.29
6133.00,1.29
6132.00,1.30
6131.00,1.30
6130.00,1.30
6129.00,1.30
6128.00,1.30
6127.00,1.30
6126.00,1.30
6125.00,1.31
6124.00,1.31
6123.00,1.31
6122.00,1.31
6121.00,1.31
6120.00,1.31
6119.00,1.31
6118.00,1.32
6117.00,1.32
6116.00,1.32
6115.00,1.32
6114.00,1.32
6113.00,1.32
6112.00,1.32
6111.00,1.32
6110.00,1.33
6109.00,1.33
6108.00,1.33
6107.00,1.33
6106.00,1.33
6105.00,1.33
6104.00,1.33
6103.00,1.34
6102.00,1.34
6101.00,1.34
6100.00,1.34
6099.00,1.34
6098.00,1.34
6097.00,1.34
6096.00,1.34
6095.00,1.35
6094.00,1.35
6093.00,1.35
6092.00,1.35
6091.00,1.35
6090.00,1.35
6089.00,1.36
6088.00,1.36
6087.00,1.36
6086.00,1.36
6085.00,1.36
6084.00,1.36
6083.00,1.37
6082.00,1.37
6081.00,1.37
6080.00,1.37
6079.00,1.37
6078.00,1.37
6077.00,1.38
6076.00,1.38
6075.00,1.38
6074.00,1.38
6073.00,1.38
6072.00,1.38
6071.00,1.38
6070.00,1.39
6069.00,1.39
6068.00,1.39
6067.00,1.39
6066.00,1.39
6065.00,1.39
6064.00,1.39
6063.00,1.39
6062.00,1.40
6061.00,1.40
6060.00,1.40
6059.00,1.40
6058.00,1.40
6057.00,1.40
6056.00,1.40
6055.00,1.40
6054.00,1.40
6053.00,1.40
6052.00,1.40
6051.00,1.40
6050.00,1.41
6049.00,1.41
6048.00,1.41
6047.00,1.41
6046.00,1.41
6045.00,1.41
6044.00,1.41
6043.00,1.41
6042.00,1.41
6041.00,1.41
6040.00,1.41
6039.00,1.41
6038.00,1.41
6037.00,1.41
6036.00,1.41
6035.00,1.41
6034.00,1.41
6033.00,1.41
6032.00,1.42
6031.00,1.42
6030.00,1.42
6029.00,1.42
6028.00,1.42
6027.00,1.42
6026.00,1.42
6025.00,1.42
6024.00,1.42
6023.00,1.42
6022.00,1.42
6021.00,1.42
6020.00,1.42
6019.00,1.42
6018.00,1.42
6017.00,1.42
6016.00,1.42
6015.00,1.42
6014.00,1.42
6013.00,1.42
6012.00,1.42
6011.00,1.42
6010.00,1.42
6009.00,1.42
6008.00,1.42
6007.00,1.42
6006.00,1.42
6005.00,1.42
6004.00,1.42
6003.00,1.42
6002.00,1.42
6001.00,1.42
6000.00,1.42
5999.00,1.42
5998.00,1.41
5997.00,1.41
5996.00,1.41
5995.00,1.41
5994.00,1.41
5993.00,1.41
5992.00,1.41
5991.00,1.41
5990.00,1.40
5989.00,1.40
5988.00,1.40
5987.00,1.40
5986.00,1.39
5985.00,1.39
5984.00,1.39
5983.00,1.39
5982.00,1.38
5981.00,1.38
5980.00,1.37
5979.00,1.37
5978.00,1.37
5977.00,1.36
5976.00,1.36
5975.00,1.35
5974.00,1.35
5973.00,1.34
5972.00,1.34
5971.00,1.33
5970.00,1.32
5969.00,1.32
5968.00,1.31
5967.00,1.30
5966.00,1.30
5965.00,1.29
5964.00,1.28
5963.00,1.27
5962.00,1.26
5961.00,1.25
5960.00,1.25
5959.00,1.24
5958.00,1.23
5957.00,1.22
5956.00,1.21
5955.00,1.21
5954.00,1.20
5953.00,1.19
5952.00,1.18
5951.00,1.18
5950.00,1.17
5949.00,1.17
5948.00,1.16
5947.00,1.16
5946.00,1.15
5945.00,1.15
5944.00,1.14
5943.00,1.14
5942.00,1.14
5941.00,1.14
5940.00,1.13
5939.00,1.13
5938.00,1.13
5937.00,1.13
5936.00,1.13
5935.00,1.13
5934.00,1.13
5933.00,1.13
5932.00,1.13
5931.00,1.12
5930.00,1.12
5929.00,1.12
5928.00,1.12
5927.00,1.12
5926.00,1.12
5925.00,1.11
5924.00,1.11
5923.00,1.11
5922.00,1.11
5921.00,1.10
5920.00,1.10
5919.00,1.10
5918.00,1.10
5917.00,1.09
5916.00,1.09
5915.00,1.09
5914.00,1.09
5913.00,1.08
5912.00,1.08
5911.00,1.08
5910.00,1.08
5909.00,1.07
5908.00,1.07
5907.00,1.07
5906.00,1.07
5905.00,1.07
5904.00,1.07
5903.00,1.07
5902.00,1.07
5901.00,1.07
5900.00,1.07
5899.00,1.07
5898.00,1.07
5897.00,1.07
5896.00,1.08
5895.00,1.08
5894.00,1.08
5893.00,1.08
5892.00,1.09
5891.00,1.09
5890.00,1.09
5889.00,1.10
5888.00,1.10
5887.00,1.10
5886.00,1.11
5885.00,1.11
5884.00,1.11
5883.00,1.12
5882.00,1.12
5881.00,1.12
5880.00,1.13
5879.00,1.13
5878.00,1.13
5877.00,1.14
5876.00,1.14
5875.00,1.14
5874.00,1.14
5873.00,1.15
5872.00,1.15
5871.00,1.15
5870.00,1.15
5869.00,1.15
5868.00,1.16
5867.00,1.16
5866.00,1.16
5865.00,1.16
5864.00,1.17
5863.00,1.17
5862.00,1.17
5861.00,1.17
5860.00,1.17
5859.00,1.17
5858.00,1.18
5857.00,1.18
5856.00,1.18
5855.00,1.18
5854.00,1.18
5853.00,1.18
5852.00,1.18
5851.00,1.19
5850.00,1.19
5849.00,1.19
5848.00,1.19
5847.00,1.19
5846.00,1.19
5845.00,1.19
5844.00,1.19
5843.00,1.19
5842.00,1.19
5841.00,1.19
5840.00,1.19
5839.00,1.19
5838.00,1.19
5837.00,1.19
5836.00,1.19
5835.00,1.19
5834.00,1.19
5833.00,1.19
5832.00,1.19
5831.00,1.19
5830.00,1.19
5829.00,1.19
5828.00,1.19
5827.00,1.19
5826.00,1.19
5825.00,1.19
5824.00,1.19
5823.00,1.19
5822.00,1.19
5821.00,1.19
5820.00,1.19
5819.00,1.19
5818.00,1.19
5817.00,1.19
5816.00,1.19
5815.00,1.19
5814.00,1.19
5813.00,1.19
5812.00,1.19
5811.00,1.19
5810.00,1.19
5809.00,1.19
5808.00,1.19
5807.00,1.19
5806.00,1.19
5805.00,1.19
5804.00,1.18
5803.00,1.18
5802.00,1.18
5801.00,1.18
5800.00,1.18
5799.00,1.18
5798.00,1.18
5797.00,1.17
5796.00,1.17
5795.00,1.17
5794.00,1.17
5793.00,1.17
5792.00,1.16
5791.00,1.16
5790.00,1.16
5789.00,1.16
5788.00,1.15
5787.00,1.15
5786.00,1.15
5785.00,1.15
5784.00,1.14
5783.00,1.14
5782.00,1.14
5781.00,1.14
5780.00,1.14
5779.00,1.13
5778.00,1.13
5777.00,1.13
5776.00,1.13
5775.00,1.13
5774.00,1.13
5773.00,1.13
5772.00,1.13
5771.00,1.13
5770.00,1.13
5769.00,1.13
5768.00,1.13
5767.00,1.13
5766.00,1.13
5765.00,1.13
5764.00,1.14
5763.00,1.14
5762.00,1.14
5761.00,1.14
5760.00,1.15
5759.00,1.15
5758.00,1.15
5757.00,1.15
5756.00,1.16
5755.00,1.16
5754.00,1.17
5753.00,1.17
5752.00,1.17
5751.00,1.18
5750.00,1.18
5749.00,1.19
5748.00,1.19
5747.00,1.19
5746.00,1.20
5745.00,1.20
5744.00,1.21
5743.00,1.21
5742.00,1.21
5741.00,1.22
5740.00,1.22
5739.00,1.22
5738.00,1.22
5737.00,1.23
5736.00,1.23
5735.00,1.23
5734.00,1.23
5733.00,1.23
5732.00,1.24
5731.00,1.24
5730.00,1.24
5729.00,1.24
5728.00,1.24
5727.00,1.24
5726.00,1.24
5725.00,1.24
5724.00,1.24
5723.00,1.24
5722.00,1.24
5721.00,1.24
5720.00,1.25
5719.00,1.25
5718.00,1.25
5717.00,1.25
5716.00,1.25
5715.00,1.25
5714.00,1.25
5713.00,1.25
5712.00,1.25
5711.00,1.25
5710.00,1.25
5709.00,1.25
5708.00,1.25
5707.00,1.24
5706.00,1.24
5705.00,1.24
5704.00,1.24
5703.00,1.24
5702.00,1.24
5701.00,1.24
5700.00,1.24
5699.00,1.23
5698.00,1.23
5697.00,1.23
5696.00,1.23
5695.00,1.23
5694.00,1.23
5693.00,1.22
5692.00,1.22
5691.00,1.22
5690.00,1.22
5689.00,1.22
5688.00,1.21
5687.00,1.21
5686.00,1.21
5685.00,1.21
5684.00,1.21
5683.00,1.20
5682.00,1.20
5681.00,1.20
5680.00,1.20
5679.00,1.20
5678.00,1.20
5677.00,1.20
5676.00,1.20
5675.00,1.20
5674.00,1.20
5673.00,1.20
5672.00,1.20
5671.00,1.20
5670.00,1.20
5669.00,1.20
5668.00,1.20
5667.00,1.20
5666.00,1.20
5665.00,1.20
5664.00,1.20
5663.00,1.21
5662.00,1.21
5661.00,1.21
5660.00,1.21
5659.00,1.21
5658.00,1.22
5657.00,1.22
5656.00,1.22
5655.00,1.22
5654.00,1.23
5653.00,1.23
5652.00,1.23
5651.00,1.23
5650.00,1.23
5649.00,1.24
5648.00,1.24
5647.00,1.24
5646.00,1.24
5645.00,1.24
5644.00,1.25
5643.00,1.25
5642.00,1.25
5641.00,1.25
5640.00,1.25
5639.00,1.26
5638.00,1.26
5637.00,1.26
5636.00,1.26
5635.00,1.26
5634.00,1.26
5633.00,1.27
5632.00,1.27
5631.00,1.27
5630.00,1.27
5629.00,1.27
5628.00,1.27
5627.00,1.28
5626.00,1.28
5625.00,1.28
5624.00,1.28
5623.00,1.28
5622.00,1.29
5621.00,1.29
5620.00,1.29
5619.00,1.29
5618.00,1.29
5617.00,1.29
5616.00,1.30
5615.00,1.30
5614.00,1.30
5613.00,1.30
5612.00,1.30
5611.00,1.30
5610.00,1.31
5609.00,1.31
5608.00,1.31
5607.00,1.31
5606.00,1.31
5605.00,1.31
5604.00,1.31
5603.00,1.31
5602.00,1.32
5601.00,1.32
5600.00,1.32
5599.00,1.32
5598.00,1.32
5597.00,1.32
5596.00,1.33
5595.00,1.33
5594.00,1.33
5593.00,1.33
5592.00,1.33
5591.00,1.34
5590.00,1.34
5589.00,1.34
5588.00,1.34
5587.00,1.34
5586.00,1.34
5585.00,1.35
5584.00,1.35
5583.00,1.35
5582.00,1.35
5581.00,1.35
5580.00,1.35
5579.00,1.35
5578.00,1.36
5577.00,1.36
5576.00,1.36
5575.00,1.36
5574.00,1.36
5573.00,1.36
5572.00,1.36
5571.00,1.37
5570.00,1.37
5569.00,1.37
5568.00,1.37
5567.00,1.37
5566.00,1.37
5565.00,1.38
5564.00,1.38
5563.00,1.38
5562.00,1.38
5561.00,1.38
5560.00,1.38
5559.00,1.39
5558.00,1.39
5557.00,1.39
5556.00,1.39
5555.00,1.39
5554.00,1.39
5553.00,1.39
5552.00,1.40
5551.00,1.40
5550.00,1.40
5549.00,1.40
5548.00,1.40
5547.00,1.40
5546.00,1.41
5545.00,1.41
5544.00,1.41
5543.00,1.41
5542.00,1.41
5541.00,1.41
5540.00,1.41
5539.00,1.42
5538.00,1.42
5537.00,1.42
5536.00,1.42
5535.00,1.42
5534.00,1.42
5533.00,1.43
5532.00,1.43
5531.00,1.43
5530.00,1.43
5529.00,1.43
5528.00,1.43
5527.00,1.43
5526.00,1.43
5525.00,1.43
5524.00,1.43
5523.00,1.44
5522.00,1.44
5521.00,1.44
5520.00,1.44
5519.00,1.44
5518.00,1.44
5517.00,1.44
5516.00,1.44
5515.00,1.44
5514.00,1.44
5513.00,1.44
5512.00,1.44
5511.00,1.44
5510.00,1.44
5509.00,1.44
5508.00,1.44
5507.00,1.44
5506.00,1.44
5505.00,1.45
5504.00,1.45
5503.00,1.45
5502.00,1.45
5501.00,1.45
5500.00,1.45
5499.00,1.45
5498.00,1.45
5497.00,1.45
5496.00,1.45
5495.00,1.46
5494.00,1.46
5493.00,1.46
5492.00,1.46
5491.00,1.46
5490.00,1.46
5489.00,1.46
5488.00,1.46
5487.00,1.46
5486.00,1.47
5485.00,1.47
5484.00,1.47
5483.00,1.47
5482.00,1.47
5481.00,1.47
5480.00,1.47
5479.00,1.47
5478.00,1.48
5477.00,1.48
5476.00,1.48
5475.00,1.48
5474.00,1.48
5473.00,1.48
5472.00,1.48
5471.00,1.49
5470.00,1.49
5469.00,1.49
5468.00,1.49
5467.00,1.49
5466.00,1.49
5465.00,1.49
5464.00,1.50
5463.00,1.50
5462.00,1.50
5461.00,1.50
5460.00,1.50
5459.00,1.50
5458.00,1.51
5457.00,1.51
5456.00,1.51
5455.00,1.51
5454.00,1.51
5453.00,1.51
5452.00,1.51
5451.00,1.51
5450.00,1.51
5449.00,1.51
5448.00,1.51
5447.00,1.51
5446.00,1.51
5445.00,1.51
5444.00,1.51
5443.00,1.51
5442.00,1.51
5441.00,1.51
5440.00,1.51
5439.00,1.51
5438.00,1.51
5437.00,1.51
5436.00,1.51
5435.00,1.51
5434.00,1.51
5433.00,1.51
5432.00,1.51
5431.00,1.51
5430.00,1.51
5429.00,1.51
5428.00,1.51
5427.00,1.51
5426.00,1.51
5425.00,1.51
5424.00,1.52
5423.00,1.52
5422.00,1.52
5421.00,1.52
5420.00,1.52
5419.00,1.52
5418.00,1.52
5417.00,1.52
5416.00,1.52
5415.00,1.52
5414.00,1.52
5413.00,1.52
5412.00,1.52
5411.00,1.51
5410.00,1.51
5409.00,1.51
5408.00,1.51
5407.00,1.51
5406.00,1.51
5405.00,1.51
5404.00,1.51
5403.00,1.51
5402.00,1.51
5401.00,1.51
5400.00,1.51
5399.00,1.51
5398.00,1.51
5397.00,1.51
5396.00,1.50
5395.00,1.50
5394.00,1.50
5393.00,1.50
5392.00,1.50
5391.00,1.50
5390.00,1.50
5389.00,1.49
5388.00,1.49
5387.00,1.49
5386.00,1.49
5385.00,1.48
5384.00,1.48
5383.00,1.48
5382.00,1.47
5381.00,1.47
5380.00,1.47
5379.00,1.46
5378.00,1.46
5377.00,1.45
5376.00,1.45
5375.00,1.44
5374.00,1.44
5373.00,1.43
5372.00,1.43
5371.00,1.42
5370.00,1.42
5369.00,1.41
5368.00,1.41
5367.00,1.40
5366.00,1.40
5365.00,1.39
5364.00,1.38
5363.00,1.38
5362.00,1.37
5361.00,1.36
5360.00,1.36
5359.00,1.35
5358.00,1.34
5357.00,1.33
5356.00,1.33
5355.00,1.32
5354.00,1.31
5353.00,1.30
5352.00,1.29
5351.00,1.28
5350.00,1.27
5349.00,1.26
5348.00,1.25
5347.00,1.24
5346.00,1.23
5345.00,1.22
5344.00,1.20
5343.00,1.19
5342.00,1.18
5341.00,1.17
5340.00,1.16
5339.00,1.15
5338.00,1.13
5337.00,1.12
5336.00,1.11
5335.00,1.10
5334.00,1.09
5333.00,1.07
5332.00,1.06
5331.00,1.05
5330.00,1.04
5329.00,1.02
5328.00,1.01
5327.00,1.00
5326.00,0.99
5325.00,0.97
5324.00,0.96
5323.00,0.95
5322.00,0.94
5321.00,0.93
5320.00,0.91
5319.00,0.90
5318.00,0.89
5317.00,0.88
5316.00,0.87
5315.00,0.86
5314.00,0.85
5313.00,0.84
5312.00,0.83
5311.00,0.82
5310.00,0.81
5309.00,0.80
5308.00,0.79
5307.00,0.78
5306.00,0.77
5305.00,0.76
5304.00,0.76
5303.00,0.75
5302.00,0.74
5301.00,0.74
5300.00,0.73
5299.00,0.73
5298.00,0.72
5297.00,0.72
5296.00,0.71
5295.00,0.71
5294.00,0.70
5293.00,0.70
5292.00,0.70
5291.00,0.69
5290.00,0.69
5289.00,0.69
5288.00,0.69
5287.00,0.68
5286.00,0.68
5285.00,0.68
5284.00,0.68
5283.00,0.68
5282.00,0.67
5281.00,0.67
5280.00,0.67
5279.00,0.67
5278.00,0.67
5277.00,0.67
5276.00,0.66
5275.00,0.66
5274.00,0.66
5273.00,0.66
5272.00,0.66
5271.00,0.66
5270.00,0.66
5269.00,0.66
5268.00,0.65
5267.00,0.65
5266.00,0.65
5265.00,0.65
5264.00,0.65
5263.00,0.65
5262.00,0.65
5261.00,0.65
5260.00,0.65
5259.00,0.65
5258.00,0.65
5257.00,0.65
5256.00,0.65
5255.00,0.65
5254.00,0.65
5253.00,0.65
5252.00,0.65
5251.00,0.65
5250.00,0.65
5249.00,0.65
5248.00,0.65
5247.00,0.65
5246.00,0.65
5245.00,0.65
5244.00,0.65
5243.00,0.65
5242.00,0.65
5241.00,0.65
5240.00,0.65
5239.00,0.65
5238.00,0.65
5237.00,0.65
5236.00,0.65
5235.00,0.65
5234.00,0.65
5233.00,0.65
5232.00,0.65
5231.00,0.65
5230.00,0.65
5229.00,0.65
5228.00,0.65
5227.00,0.65
5226.00,0.65
5225.00,0.65
5224.00,0.65
5223.00,0.66
5222.00,0.66
5221.00,0.66
5220.00,0.66
5219.00,0.66
5218.00,0.66
5217.00,0.66
5216.00,0.66
5215.00,0.66
5214.00,0.66
5213.00,0.66
5212.00,0.66
5211.00,0.66
5210.00,0.66
5209.00,0.66
5208.00,0.66
5207.00,0.66
5206.00,0.66
5205.00,0.66
5204.00,0.66
5203.00,0.67
5202.00,0.67
5201.00,0.67
5200.00,0.67
5199.00,0.67
5198.00,0.67
5197.00,0.67
5196.00,0.67
5195.00,0.67
5194.00,0.67
5193.00,0.67
5192.00,0.67
5191.00,0.67
5190.00,0.68
5189.00,0.68
5188.00,0.68
5187.00,0.68
5186.00,0.68
5185.00,0.68
5184.00,0.68
5183.00,0.68
5182.00,0.68
5181.00,0.68
5180.00,0.68
5179.00,0.68
5178.00,0.68
5177.00,0.68
5176.00,0.68
5175.00,0.68
5174.00,0.68
5173.00,0.68
5172.00,0.68
5171.00,0.68
5170.00,0.68
5169.00,0.68
5168.00,0.68
5167.00,0.68
5166.00,0.68
5165.00,0.68
5164.00,0.68
5163.00,0.68
5162.00,0.68
5161.00,0.68
5160.00,0.68
5159.00,0.68
5158.00,0.68
5157.00,0.68
5156.00,0.68
5155.00,0.68
5154.00,0.68
5153.00,0.69
5152.00,0.69
5151.00,0.69
5150.00,0.69
5149.00,0.69
5148.00,0.69
5147.00,0.69
5146.00,0.69
5145.00,0.69
5144.00,0.69
5143.00,0.69
5142.00,0.69
5141.00,0.69
5140.00,0.69
5139.00,0.70
5138.00,0.70
5137.00,0.70
5136.00,0.70
5135.00,0.70
5134.00,0.70
5133.00,0.70
5132.00,0.70
5131.00,0.70
5130.00,0.70
5129.00,0.70
5128.00,0.70
5127.00,0.71
5126.00,0.71
5125.00,0.71
5124.00,0.71
5123.00,0.71
5122.00,0.71
5121.00,0.71
5120.00,0.71
5119.00,0.71
5118.00,0.71
5117.00,0.71
5116.00,0.71
5115.00,0.71
5114.00,0.71
5113.00,0.71
5112.00,0.71
5111.00,0.72
5110.00,0.72
5109.00,0.72
5108.00,0.72
5107.00,0.72
5106.00,0.72
5105.00,0.72
5104.00,0.72
5103.00,0.72
5102.00,0.72
5101.00,0.72
5100.00,0.72
5099.00,0.72
5098.00,0.72
5097.00,0.72
5096.00,0.72
5095.00,0.72
5094.00,0.72
5093.00,0.72
5092.00,0.72
5091.00,0.72
5090.00,0.72
5089.00,0.72
5088.00,0.72
5087.00,0.72
5086.00,0.72
5085.00,0.72
5084.00,0.72
5083.00,0.72
5082.00,0.72
5081.00,0.72
5080.00,0.72
5079.00,0.73
5078.00,0.73
5077.00,0.73
5076.00,0.73
5075.00,0.73
5074.00,0.73
5073.00,0.73
5072.00,0.73
5071.00,0.73
5070.00,0.74
5069.00,0.74
5068.00,0.74
5067.00,0.74
5066.00,0.74
5065.00,0.74
5064.00,0.74
5063.00,0.74
5062.00,0.74
5061.00,0.74
5060.00,0.74
5059.00,0.74
5058.00,0.75
5057.00,0.75
5056.00,0.75
5055.00,0.75
5054.00,0.75
5053.00,0.75
5052.00,0.75
5051.00,0.75
5050.00,0.75
5049.00,0.75
5048.00,0.75
5047.00,0.75
5046.00,0.75
5045.00,0.75
5044.00,0.75
5043.00,0.75
5042.00,0.75
5041.00,0.75
5040.00,0.75
5039.00,0.75
5038.00,0.76
5037.00,0.76
5036.00,0.76
5035.00,0.76
5034.00,0.76
5033.00,0.76
5032.00,0.76
5031.00,0.76
5030.00,0.76
5029.00,0.77
5028.00,0.77
5027.00,0.77
5026.00,0.77
5025.00,0.77
5024.00,0.77
5023.00,0.77
5022.00,0.77
5021.00,0.77
5020.00,0.78
5019.00,0.78
5018.00,0.78
5017.00,0.78
5016.00,0.78
5015.00,0.78
5014.00,0.78
5013.00,0.78
5012.00,0.78
5011.00,0.78
5010.00,0.78
5009.00,0.78
5008.00,0.78
5007.00,0.79
5006.00,0.79
5005.00,0.79
5004.00,0.79
5003.00,0.79
5002.00,0.79
5001.00,0.79
5000.00,0.79
4999.00,0.79
4998.00,0.79
4997.00,0.79
4996.00,0.80
4995.00,0.80
4994.00,0.80
4993.00,0.80
4992.00,0.80
4991.00,0.80
4990.00,0.80
4989.00,0.81
4988.00,0.81
4987.00,0.81
4986.00,0.81
4985.00,0.81
4984.00,0.81
4983.00,0.82
4982.00,0.82
4981.00,0.82
4980.00,0.82
4979.00,0.82
4978.00,0.82
4977.00,0.82
4976.00,0.82
4975.00,0.82
4974.00,0.83
4973.00,0.83
4972.00,0.83
4971.00,0.83
4970.00,0.83
4969.00,0.83
4968.00,0.83
4967.00,0.83
4966.00,0.83
4965.00,0.83
4964.00,0.83
4963.00,0.83
4962.00,0.83
4961.00,0.83
4960.00,0.84
4959.00,0.84
4958.00,0.84
4957.00,0.84
4956.00,0.84
4955.00,0.84
4954.00,0.84
4953.00,0.84
4952.00,0.84
4951.00,0.84
4950.00,0.84
4949.00,0.84
4948.00,0.85
4947.00,0.85
4946.00,0.85
4945.00,0.85
4944.00,0.85
4943.00,0.85
4942.00,0.85
4941.00,0.85
4940.00,0.85
4939.00,0.85
4938.00,0.86
4937.00,0.86
4936.00,0.86
4935.00,0.86
4934.00,0.86
4933.00,0.86
4932.00,0.86
4931.00,0.86
4930.00,0.86
4929.00,0.86
4928.00,0.86
4927.00,0.86
4926.00,0.87
4925.00,0.87
4924.00,0.87
4923.00,0.87
4922.00,0.87
4921.00,0.87
4920.00,0.87
4919.00,0.87
4918.00,0.87
4917.00,0.87
4916.00,0.87
4915.00,0.87
4914.00,0.88
4913.00,0.88
4912.00,0.88
4911.00,0.88
4910.00,0.88
4909.00,0.88
4908.00,0.88
4907.00,0.88
4906.00,0.88
4905.00,0.88
4904.00,0.88
4903.00,0.88
4902.00,0.88
4901.00,0.88
4900.00,0.88
4899.00,0.88
4898.00,0.89
4897.00,0.89
4896.00,0.89
4895.00,0.89
4894.00,0.89
4893.00,0.89
4892.00,0.89
4891.00,0.89
4890.00,0.89
4889.00,0.89
4888.00,0.89
4887.00,0.90
4886.00,0.90
4885.00,0.90
4884.00,0.90
4883.00,0.90
4882.00,0.90
4881.00,0.90
4880.00,0.90
4879.00,0.91
4878.00,0.91
4877.00,0.91
4876.00,0.91
4875.00,0.91
4874.00,0.91
4873.00,0.91
4872.00,0.91
4871.00,0.91
4870.00,0.91
4869.00,0.91
4868.00,0.91
4867.00,0.91
4866.00,0.91
4865.00,0.92
4864.00,0.92
4863.00,0.92
4862.00,0.92
4861.00,0.92
4860.00,0.92
4859.00,0.92
4858.00,0.92
4857.00,0.92
4856.00,0.92
4855.00,0.92
4854.00,0.93
4853.00,0.93
4852.00,0.93
4851.00,0.93
4850.00,0.93
4849.00,0.93
4848.00,0.93
4847.00,0.93
4846.00,0.93
4845.00,0.93
4844.00,0.93
4843.00,0.93
4842.00,0.93
4841.00,0.93
4840.00,0.93
4839.00,0.93
4838.00,0.94
4837.00,0.94
4836.00,0.94
4835.00,0.94
4834.00,0.94
4833.00,0.94
4832.00,0.94
4831.00,0.94
4830.00,0.94
4829.00,0.95
4828.00,0.95
4827.00,0.95
4826.00,0.95
4825.00,0.95
4824.00,0.95
4823.00,0.96
4822.00,0.96
4821.00,0.96
4820.00,0.96
4819.00,0.96
4818.00,0.96
4817.00,0.96
4816.00,0.97
4815.00,0.97
4814.00,0.97
4813.00,0.97
4812.00,0.97
4811.00,0.97
4810.00,0.97
4809.00,0.97
4808.00,0.98
4807.00,0.98
4806.00,0.98
4805.00,0.98
4804.00,0.98
4803.00,0.98
4802.00,0.98
4801.00,0.98
4800.00,0.99
4799.00,0.99
4798.00,0.99
4797.00,0.99
4796.00,0.99
4795.00,0.99
4794.00,0.99
4793.00,0.99
4792.00,0.99
4791.00,1.00
4790.00,1.00
4789.00,1.00
4788.00,1.00
4787.00,1.00
4786.00,1.00
4785.00,1.00
4784.00,1.00
4783.00,1.00
4782.00,1.00
4781.00,1.01
4780.00,1.01
4779.00,1.01
4778.00,1.01
4777.00,1.01
4776.00,1.02
4775.00,1.02
4774.00,1.02
4773.00,1.02
4772.00,1.02
4771.00,1.03
4770.00,1.03
4769.00,1.03
4768.00,1.03
4767.00,1.04
4766.00,1.04
4765.00,1.04
4764.00,1.04
4763.00,1.04
4762.00,1.05
4761.00,1.05
4760.00,1.05
4759.00,1.05
4758.00,1.05
4757.00,1.05
4756.00,1.05
4755.00,1.06
4754.00,1.06
4753.00,1.06
4752.00,1.06
4751.00,1.06
4750.00,1.07
4749.00,1.07
4748.00,1.07
4747.00,1.07
4746.00,1.08
4745.00,1.08
4744.00,1.08
4743.00,1.08
4742.00,1.08
4741.00,1.09
4740.00,1.09
4739.00,1.09
4738.00,1.09
4737.00,1.09
4736.00,1.09
4735.00,1.10
4734.00,1.10
4733.00,1.10
4732.00,1.10
4731.00,1.10
4730.00,1.11
4729.00,1.11
4728.00,1.11
4727.00,1.11
4726.00,1.12
4725.00,1.12
4724.00,1.12
4723.00,1.12
4722.00,1.13
4721.00,1.13
4720.00,1.13
4719.00,1.13
4718.00,1.14
4717.00,1.14
4716.00,1.14
4715.00,1.14
4714.00,1.15
4713.00,1.15
4712.00,1.15
4711.00,1.15
4710.00,1.15
4709.00,1.16
4708.00,1.16
4707.00,1.16
4706.00,1.16
4705.00,1.16
4704.00,1.17
4703.00,1.17
4702.00,1.17
4701.00,1.17
4700.00,1.17
4699.00,1.18
4698.00,1.18
4697.00,1.18
4696.00,1.18
4695.00,1.18
4694.00,1.19
4693.00,1.19
4692.00,1.19
4691.00,1.19
4690.00,1.19
4689.00,1.20
4688.00,1.20
4687.00,1.20
4686.00,1.20
4685.00,1.21
4684.00,1.21
4683.00,1.21
4682.00,1.21
4681.00,1.22
4680.00,1.22
4679.00,1.22
4678.00,1.22
4677.00,1.23
4676.00,1.23
4675.00,1.23
4674.00,1.23
4673.00,1.24
4672.00,1.24
4671.00,1.24
4670.00,1.24
4669.00,1.24
4668.00,1.24
4667.00,1.25
4666.00,1.25
4665.00,1.25
4664.00,1.25
4663.00,1.25
4662.00,1.25
4661.00,1.25
4660.00,1.25
4659.00,1.25
4658.00,1.26
4657.00,1.26
4656.00,1.26
4655.00,1.26
4654.00,1.26
4653.00,1.26
4652.00,1.26
4651.00,1.27
4650.00,1.27
4649.00,1.27
4648.00,1.27
4647.00,1.27
4646.00,1.28
4645.00,1.28
4644.00,1.28
4643.00,1.28
4642.00,1.28
4641.00,1.29
4640.00,1.29
4639.00,1.29
4638.00,1.29
4637.00,1.29
4636.00,1.29
4635.00,1.30
4634.00,1.30
4633.00,1.30
4632.00,1.30
4631.00,1.30
4630.00,1.30
4629.00,1.30
4628.00,1.31
4627.00,1.31
4626.00,1.31
4625.00,1.31
4624.00,1.31
4623.00,1.31
4622.00,1.31
4621.00,1.32
4620.00,1.32
4619.00,1.32
4618.00,1.32
4617.00,1.32
4616.00,1.32
4615.00,1.32
4614.00,1.32
4613.00,1.32
4612.00,1.33
4611.00,1.33
4610.00,1.33
4609.00,1.33
4608.00,1.33
4607.00,1.33
4606.00,1.33
4605.00,1.33
4604.00,1.33
4603.00,1.33
4602.00,1.34
4601.00,1.34
4600.00,1.34
4599.00,1.34
4598.00,1.34
4597.00,1.34
4596.00,1.34
4595.00,1.35
4594.00,1.35
4593.00,1.35
4592.00,1.35
4591.00,1.35
4590.00,1.35
4589.00,1.36
4588.00,1.36
4587.00,1.36
4586.00,1.36
4585.00,1.36
4584.00,1.36
4583.00,1.36
4582.00,1.37
4581.00,1.37
4580.00,1.37
4579.00,1.37
4578.00,1.37
4577.00,1.37
4576.00,1.37
4575.00,1.38
4574.00,1.38
4573.00,1.38
4572.00,1.38
4571.00,1.38
4570.00,1.38
4569.00,1.39
4568.00,1.39
4567.00,1.39
4566.00,1.39
4565.00,1.39
4564.00,1.39
4563.00,1.39
4562.00,1.40
4561.00,1.40
4560.00,1.40
4559.00,1.40
4558.00,1.40
4557.00,1.40
4556.00,1.40
4555.00,1.41
4554.00,1.41
4553.00,1.41
4552.00,1.41
4551.00,1.41
4550.00,1.41
4549.00,1.41
4548.00,1.41
4547.00,1.42
4546.00,1.42
4545.00,1.42
4544.00,1.42
4543.00,1.42
4542.00,1.42
4541.00,1.42
4540.00,1.42
4539.00,1.42
4538.00,1.42
4537.00,1.43
4536.00,1.43
4535.00,1.43
4534.00,1.43
4533.00,1.43
4532.00,1.43
4531.00,1.43
4530.00,1.43
4529.00,1.43
4528.00,1.43
4527.00,1.44
4526.00,1.44
4525.00,1.44
4524.00,1.44
4523.00,1.44
4522.00,1.44
4521.00,1.44
4520.00,1.44
4519.00,1.44
4518.00,1.44
4517.00,1.44
4516.00,1.44
4515.00,1.44
4514.00,1.44
4513.00,1.44
4512.00,1.44
4511.00,1.44
4510.00,1.44
4509.00,1.44
4508.00,1.44
4507.00,1.44
4506.00,1.44
4505.00,1.44
4504.00,1.44
4503.00,1.44
4502.00,1.44
4501.00,1.44
4500.00,1.44
4499.00,1.44
4498.00,1.43
4497.00,1.43
4496.00,1.43
4495.00,1.43
4494.00,1.43
4493.00,1.43
4492.00,1.43
4491.00,1.43
4490.00,1.42
4489.00,1.42
4488.00,1.42
4487.00,1.42
4486.00,1.42
4485.00,1.41
4484.00,1.41
4483.00,1.41
4482.00,1.41
4481.00,1.40
4480.00,1.40
4479.00,1.40
4478.00,1.39
4477.00,1.39
4476.00,1.39
4475.00,1.38
4474.00,1.38
4473.00,1.38
4472.00,1.38
4471.00,1.37
4470.00,1.37
4469.00,1.37
4468.00,1.36
4467.00,1.36
4466.00,1.36
4465.00,1.35
4464.00,1.35
4463.00,1.35
4462.00,1.34
4461.00,1.34
4460.00,1.33
4459.00,1.33
4458.00,1.32
4457.00,1.32
4456.00,1.32
4455.00,1.31
4454.00,1.31
4453.00,1.30
4452.00,1.30
4451.00,1.29
4450.00,1.29
4449.00,1.28
4448.00,1.27
4447.00,1.27
4446.00,1.26
4445.00,1.26
4444.00,1.25
4443.00,1.25
4442.00,1.24
4441.00,1.24
4440.00,1.23
4439.00,1.22
4438.00,1.22
4437.00,1.21
4436.00,1.21
4435.00,1.20
4434.00,1.20
4433.00,1.19
4432.00,1.19
4431.00,1.19
4430.00,1.18
4429.00,1.18
4428.00,1.17
4427.00,1.17
4426.00,1.17
4425.00,1.17
4424.00,1.16
4423.00,1.16
4422.00,1.16
4421.00,1.16
4420.00,1.16
4419.00,1.16
4418.00,1.15
4417.00,1.15
4416.00,1.15
4415.00,1.15
4414.00,1.15
4413.00,1.15
4412.00,1.15
4411.00,1.15
4410.00,1.15
4409.00,1.15
4408.00,1.15
4407.00,1.15
4406.00,1.15
4405.00,1.15
4404.00,1.16
4403.00,1.16
4402.00,1.16
4401.00,1.16
4400.00,1.16
4399.00,1.16
4398.00,1.16
4397.00,1.17
4396.00,1.17
4395.00,1.17
4394.00,1.17
4393.00,1.17
4392.00,1.17
4391.00,1.18
4390.00,1.18
4389.00,1.18
4388.00,1.18
4387.00,1.18
4386.00,1.18
4385.00,1.19
4384.00,1.19
4383.00,1.19
4382.00,1.19
4381.00,1.19
4380.00,1.19
4379.00,1.20
4378.00,1.20
4377.00,1.20
4376.00,1.20
4375.00,1.20
4374.00,1.20
4373.00,1.20
4372.00,1.20
4371.00,1.20
4370.00,1.20
4369.00,1.20
4368.00,1.20
4367.00,1.20
4366.00,1.20
4365.00,1.20
4364.00,1.20
4363.00,1.20
4362.00,1.20
4361.00,1.20
4360.00,1.20
4359.00,1.19
4358.00,1.19
4357.00,1.19
4356.00,1.19
4355.00,1.19
4354.00,1.19
4353.00,1.19
4352.00,1.19
4351.00,1.19
4350.00,1.19
4349.00,1.19
4348.00,1.19
4347.00,1.20
4346.00,1.20
4345.00,1.20
4344.00,1.20
4343.00,1.20
4342.00,1.20
4341.00,1.20
4340.00,1.20
4339.00,1.20
4338.00,1.20
4337.00,1.21
4336.00,1.21
4335.00,1.21
4334.00,1.21
4333.00,1.21
4332.00,1.21
4331.00,1.21
4330.00,1.22
4329.00,1.22
4328.00,1.22
4327.00,1.22
4326.00,1.22
4325.00,1.23
4324.00,1.23
4323.00,1.23
4322.00,1.24
4321.00,1.24
4320.00,1.24
4319.00,1.24
4318.00,1.25
4317.00,1.25
4316.00,1.25
4315.00,1.26
4314.00,1.26
4313.00,1.26
4312.00,1.27
4311.00,1.27
4310.00,1.27
4309.00,1.27
4308.00,1.27
4307.00,1.28
4306.00,1.28
4305.00,1.28
4304.00,1.28
4303.00,1.29
4302.00,1.29
4301.00,1.29
4300.00,1.29
4299.00,1.29
4298.00,1.29
4297.00,1.30
4296.00,1.30
4295.00,1.30
4294.00,1.30
4293.00,1.30
4292.00,1.30
4291.00,1.31
4290.00,1.31
4289.00,1.31
4288.00,1.31
4287.00,1.31
4286.00,1.31
4285.00,1.31
4284.00,1.31
4283.00,1.32
4282.00,1.32
4281.00,1.32
4280.00,1.32
4279.00,1.32
4278.00,1.32
4277.00,1.32
4276.00,1.32
4275.00,1.32
4274.00,1.32
4273.00,1.32
4272.00,1.32
4271.00,1.32
4270.00,1.32
4269.00,1.32
4268.00,1.32
4267.00,1.32
4266.00,1.31
4265.00,1.31
4264.00,1.31
4263.00,1.31
4262.00,1.31
4261.00,1.31
4260.00,1.31
4259.00,1.31
4258.00,1.31
4257.00,1.31
4256.00,1.31
4255.00,1.31
4254.00,1.31
4253.00,1.31
4252.00,1.31
4251.00,1.31
4250.00,1.31
4249.00,1.31
4248.00,1.31
4247.00,1.31
4246.00,1.31
4245.00,1.31
4244.00,1.31
4243.00,1.31
4242.00,1.31
4241.00,1.31
4240.00,1.32
4239.00,1.32
4238.00,1.32
4237.00,1.32
4236.00,1.32
4235.00,1.32
4234.00,1.32
4233.00,1.33
4232.00,1.33
4231.00,1.33
4230.00,1.33
4229.00,1.33
4228.00,1.33
4227.00,1.34
4226.00,1.34
4225.00,1.34
4224.00,1.34
4223.00,1.34
4222.00,1.34
4221.00,1.34
4220.00,1.35
4219.00,1.35
4218.00,1.35
4217.00,1.35
4216.00,1.35
4215.00,1.35
4214.00,1.35
4213.00,1.35
4212.00,1.35
4211.00,1.36
4210.00,1.36
4209.00,1.36
4208.00,1.36
4207.00,1.36
4206.00,1.36
4205.00,1.36
4204.00,1.36
4203.00,1.36
4202.00,1.36
4201.00,1.37
4200.00,1.37
4199.00,1.37
4198.00,1.37
4197.00,1.37
4196.00,1.37
4195.00,1.37
4194.00,1.37
4193.00,1.37
4192.00,1.37
4191.00,1.37
4190.00,1.37
4189.00,1.37
4188.00,1.37
4187.00,1.37
4186.00,1.37
4185.00,1.37
4184.00,1.37
4183.00,1.37
4182.00,1.37
4181.00,1.38
4180.00,1.38
4179.00,1.38
4178.00,1.38
4177.00,1.38
4176.00,1.38
4175.00,1.39
4174.00,1.39
4173.00,1.39
4172.00,1.39
4171.00,1.39
4170.00,1.39
4169.00,1.39
4168.00,1.39
4167.00,1.39
4166.00,1.39
4165.00,1.39
4164.00,1.39
4163.00,1.39
4162.00,1.39
4161.00,1.39
4160.00,1.39
4159.00,1.39
4158.00,1.39
4157.00,1.39
4156.00,1.39
4155.00,1.39
4154.00,1.39
4153.00,1.39
4152.00,1.39
4151.00,1.40
4150.00,1.40
4149.00,1.40
4148.00,1.40
4147.00,1.40
4146.00,1.40
4145.00,1.40
4144.00,1.40
4143.00,1.40
4142.00,1.40
4141.00,1.40
4140.00,1.40
4139.00,1.40
4138.00,1.40
4137.00,1.40
4136.00,1.40
4135.00,1.40
4134.00,1.40
4133.00,1.40
4132.00,1.40
4131.00,1.40
4130.00,1.40
4129.00,1.40
4128.00,1.40
4127.00,1.40
4126.00,1.40
4125.00,1.40
4124.00,1.40
4123.00,1.40
4122.00,1.41
4121.00,1.41
4120.00,1.41
4119.00,1.41
4118.00,1.41
4117.00,1.41
4116.00,1.41
4115.00,1.41
4114.00,1.42
4113.00,1.42
4112.00,1.42
4111.00,1.42
4110.00,1.42
4109.00,1.43
4108.00,1.43
4107.00,1.43
4106.00,1.43
4105.00,1.43
4104.00,1.43
4103.00,1.43
4102.00,1.43
4101.00,1.44
4100.00,1.44
4099.00,1.44
4098.00,1.44
4097.00,1.44
4096.00,1.44
4095.00,1.44
4094.00,1.44
4093.00,1.44
4092.00,1.44
4091.00,1.44
4090.00,1.44
4089.00,1.44
4088.00,1.44
4087.00,1.44
4086.00,1.44
4085.00,1.44
4084.00,1.44
4083.00,1.44
4082.00,1.44
4081.00,1.44
4080.00,1.44
4079.00,1.44
4078.00,1.44
4077.00,1.44
4076.00,1.44
4075.00,1.44
4074.00,1.44
4073.00,1.44
4072.00,1.45
4071.00,1.45
4070.00,1.45
4069.00,1.45
4068.00,1.45
4067.00,1.45
4066.00,1.45
4065.00,1.45
4064.00,1.45
4063.00,1.45
4062.00,1.45
4061.00,1.45
4060.00,1.45
4059.00,1.45
4058.00,1.45
4057.00,1.45
4056.00,1.45
4055.00,1.46
4054.00,1.46
4053.00,1.46
4052.00,1.46
4051.00,1.46
4050.00,1.46
4049.00,1.47
4048.00,1.47
4047.00,1.47
4046.00,1.48
4045.00,1.48
4044.00,1.48
4043.00,1.49
4042.00,1.49
4041.00,1.49
4040.00,1.49
4039.00,1.50
4038.00,1.50
4037.00,1.50
4036.00,1.50
4035.00,1.50
4034.00,1.50
4033.00,1.50
4032.00,1.50
4031.00,1.50
4030.00,1.50
4029.00,1.50
4028.00,1.50
4027.00,1.50
4026.00,1.50
4025.00,1.50
4024.00,1.50
4023.00,1.50
4022.00,1.50
4021.00,1.50
4020.00,1.50
4019.00,1.50
4018.00,1.51
4017.00,1.51
4016.00,1.51
4015.00,1.51
4014.00,1.51
4013.00,1.51
4012.00,1.51
4011.00,1.51
4010.00,1.51
4009.00,1.51
4008.00,1.51
4007.00,1.51
4006.00,1.51
4005.00,1.51
4004.00,1.51
4003.00,1.51
4002.00,1.51
4001.00,1.51
4000.00,1.51
