创建为新数据集,样品 053 用户 Administrator 日期 星期三, 十一月 01 2017
cm-1,%T
10000.00,1.65
9999.00,1.65
9998.00,1.65
9997.00,1.64
9996.00,1.64
9995.00,1.64
9994.00,1.64
9993.00,1.64
9992.00,1.63
9991.00,1.63
9990.00,1.63
9989.00,1.63
9988.00,1.63
9987.00,1.63
9986.00,1.63
9985.00,1.62
9984.00,1.62
9983.00,1.62
9982.00,1.62
9981.00,1.62
9980.00,1.62
9979.00,1.62
9978.00,1.62
9977.00,1.62
9976.00,1.62
9975.00,1.62
9974.00,1.62
9973.00,1.62
9972.00,1.62
9971.00,1.62
9970.00,1.62
9969.00,1.62
9968.00,1.62
9967.00,1.63
9966.00,1.63
9965.00,1.63
9964.00,1.63
9963.00,1.64
9962.00,1.64
9961.00,1.64
9960.00,1.64
9959.00,1.64
9958.00,1.65
9957.00,1.65
9956.00,1.65
9955.00,1.64
9954.00,1.64
9953.00,1.64
9952.00,1.64
9951.00,1.64
9950.00,1.63
9949.00,1.63
9948.00,1.63
9947.00,1.62
9946.00,1.62
9945.00,1.62
9944.00,1.62
9943.00,1.61
9942.00,1.61
9941.00,1.61
9940.00,1.61
9939.00,1.61
9938.00,1.61
9937.00,1.61
9936.00,1.62
9935.00,1.62
9934.00,1.62
9933.00,1.62
9932.00,1.62
9931.00,1.63
9930.00,1.63
9929.00,1.63
9928.00,1.63
9927.00,1.63
9926.00,1.63
9925.00,1.63
9924.00,1.64
9923.00,1.63
9922.00,1.63
9921.00,1.63
9920.00,1.63
9919.00,1.63
9918.00,1.63
9917.00,1.63
9916.00,1.63
9915.00,1.63
9914.00,1.63
9913.00,1.63
9912.00,1.63
9911.00,1.63
9910.00,1.63
9909.00,1.63
9908.00,1.63
9907.00,1.63
9906.00,1.63
9905.00,1.63
9904.00,1.64
9903.00,1.64
9902.00,1.64
9901.00,1.64
9900.00,1.64
9899.00,1.64
9898.00,1.63
9897.00,1.63
9896.00,1.63
9895.00,1.63
9894.00,1.63
9893.00,1.62
9892.00,1.62
9891.00,1.62
9890.00,1.61
9889.00,1.61
9888.00,1.61
9887.00,1.60
9886.00,1.60
9885.00,1.60
9884.00,1.60
9883.00,1.60
9882.00,1.60
9881.00,1.60
9880.00,1.60
9879.00,1.60
9878.00,1.60
9877.00,1.60
9876.00,1.60
9875.00,1.60
9874.00,1.60
9873.00,1.60
9872.00,1.61
9871.00,1.61
9870.00,1.61
9869.00,1.61
9868.00,1.61
9867.00,1.61
9866.00,1.62
9865.00,1.62
9864.00,1.62
9863.00,1.62
9862.00,1.62
9861.00,1.62
9860.00,1.62
9859.00,1.62
9858.00,1.62
9857.00,1.62
9856.00,1.62
9855.00,1.62
9854.00,1.62
9853.00,1.62
9852.00,1.62
9851.00,1.62
9850.00,1.62
9849.00,1.62
9848.00,1.62
9847.00,1.62
9846.00,1.62
9845.00,1.63
9844.00,1.63
9843.00,1.63
9842.00,1.63
9841.00,1.63
9840.00,1.63
9839.00,1.64
9838.00,1.64
9837.00,1.64
9836.00,1.64
9835.00,1.64
9834.00,1.64
9833.00,1.64
9832.00,1.64
9831.00,1.64
9830.00,1.64
9829.00,1.64
9828.00,1.64
9827.00,1.64
9826.00,1.64
9825.00,1.64
9824.00,1.64
9823.00,1.64
9822.00,1.64
9821.00,1.64
9820.00,1.64
9819.00,1.64
9818.00,1.64
9817.00,1.64
9816.00,1.64
9815.00,1.64
9814.00,1.64
9813.00,1.64
9812.00,1.64
9811.00,1.64
9810.00,1.64
9809.00,1.64
9808.00,1.65
9807.00,1.65
9806.00,1.65
9805.00,1.65
9804.00,1.65
9803.00,1.64
9802.00,1.64
9801.00,1.64
9800.00,1.64
9799.00,1.64
9798.00,1.63
9797.00,1.63
9796.00,1.63
9795.00,1.63
9794.00,1.62
9793.00,1.62
9792.00,1.62
9791.00,1.61
9790.00,1.61
9789.00,1.61
9788.00,1.61
9787.00,1.60
9786.00,1.60
9785.00,1.60
9784.00,1.60
9783.00,1.60
9782.00,1.60
9781.00,1.60
9780.00,1.60
9779.00,1.60
9778.00,1.60
9777.00,1.60
9776.00,1.60
9775.00,1.60
9774.00,1.61
9773.00,1.61
9772.00,1.61
9771.00,1.61
9770.00,1.61
9769.00,1.61
9768.00,1.62
9767.00,1.62
9766.00,1.62
9765.00,1.62
9764.00,1.63
9763.00,1.63
9762.00,1.63
9761.00,1.63
9760.00,1.63
9759.00,1.64
9758.00,1.64
9757.00,1.64
9756.00,1.64
9755.00,1.64
9754.00,1.64
9753.00,1.64
9752.00,1.64
9751.00,1.64
9750.00,1.64
9749.00,1.64
9748.00,1.64
9747.00,1.64
9746.00,1.64
9745.00,1.64
9744.00,1.64
9743.00,1.64
9742.00,1.64
9741.00,1.64
9740.00,1.64
9739.00,1.64
9738.00,1.64
9737.00,1.64
9736.00,1.64
9735.00,1.64
9734.00,1.64
9733.00,1.63
9732.00,1.63
9731.00,1.63
9730.00,1.63
9729.00,1.63
9728.00,1.63
9727.00,1.63
9726.00,1.63
9725.00,1.62
9724.00,1.62
9723.00,1.62
9722.00,1.62
9721.00,1.61
9720.00,1.61
9719.00,1.61
9718.00,1.61
9717.00,1.61
9716.00,1.60
9715.00,1.60
9714.00,1.60
9713.00,1.60
9712.00,1.60
9711.00,1.60
9710.00,1.60
9709.00,1.60
9708.00,1.60
9707.00,1.60
9706.00,1.61
9705.00,1.61
9704.00,1.61
9703.00,1.61
9702.00,1.61
9701.00,1.61
9700.00,1.61
9699.00,1.61
9698.00,1.61
9697.00,1.61
9696.00,1.61
9695.00,1.61
9694.00,1.61
9693.00,1.61
9692.00,1.61
9691.00,1.61
9690.00,1.61
9689.00,1.62
9688.00,1.62
9687.00,1.62
9686.00,1.62
9685.00,1.62
9684.00,1.62
9683.00,1.63
9682.00,1.63
9681.00,1.63
9680.00,1.63
9679.00,1.63
9678.00,1.63
9677.00,1.63
9676.00,1.63
9675.00,1.63
9674.00,1.63
9673.00,1.63
9672.00,1.63
9671.00,1.63
9670.00,1.63
9669.00,1.63
9668.00,1.63
9667.00,1.63
9666.00,1.63
9665.00,1.63
9664.00,1.63
9663.00,1.63
9662.00,1.63
9661.00,1.63
9660.00,1.63
9659.00,1.63
9658.00,1.63
9657.00,1.63
9656.00,1.63
9655.00,1.63
9654.00,1.62
9653.00,1.62
9652.00,1.62
9651.00,1.62
9650.00,1.62
9649.00,1.61
9648.00,1.61
9647.00,1.61
9646.00,1.61
9645.00,1.61
9644.00,1.60
9643.00,1.60
9642.00,1.60
9641.00,1.60
9640.00,1.60
9639.00,1.60
9638.00,1.60
9637.00,1.60
9636.00,1.60
9635.00,1.60
9634.00,1.60
9633.00,1.61
9632.00,1.61
9631.00,1.61
9630.00,1.61
9629.00,1.61
9628.00,1.62
9627.00,1.62
9626.00,1.62
9625.00,1.62
9624.00,1.62
9623.00,1.62
9622.00,1.62
9621.00,1.63
9620.00,1.63
9619.00,1.63
9618.00,1.63
9617.00,1.63
9616.00,1.63
9615.00,1.63
9614.00,1.63
9613.00,1.63
9612.00,1.63
9611.00,1.63
9610.00,1.62
9609.00,1.62
9608.00,1.62
9607.00,1.62
9606.00,1.62
9605.00,1.61
9604.00,1.61
9603.00,1.61
9602.00,1.60
9601.00,1.60
9600.00,1.60
9599.00,1.60
9598.00,1.60
9597.00,1.59
9596.00,1.59
9595.00,1.59
9594.00,1.59
9593.00,1.59
9592.00,1.59
9591.00,1.60
9590.00,1.60
9589.00,1.60
9588.00,1.60
9587.00,1.61
9586.00,1.61
9585.00,1.61
9584.00,1.62
9583.00,1.62
9582.00,1.62
9581.00,1.62
9580.00,1.63
9579.00,1.63
9578.00,1.63
9577.00,1.63
9576.00,1.63
9575.00,1.63
9574.00,1.64
9573.00,1.64
9572.00,1.64
9571.00,1.64
9570.00,1.64
9569.00,1.64
9568.00,1.64
9567.00,1.64
9566.00,1.64
9565.00,1.64
9564.00,1.64
9563.00,1.64
9562.00,1.64
9561.00,1.64
9560.00,1.64
9559.00,1.64
9558.00,1.64
9557.00,1.64
9556.00,1.64
9555.00,1.64
9554.00,1.64
9553.00,1.63
9552.00,1.63
9551.00,1.63
9550.00,1.63
9549.00,1.63
9548.00,1.63
9547.00,1.63
9546.00,1.63
9545.00,1.63
9544.00,1.63
9543.00,1.63
9542.00,1.63
9541.00,1.63
9540.00,1.63
9539.00,1.63
9538.00,1.63
9537.00,1.63
9536.00,1.63
9535.00,1.63
9534.00,1.63
9533.00,1.63
9532.00,1.63
9531.00,1.63
9530.00,1.63
9529.00,1.63
9528.00,1.63
9527.00,1.63
9526.00,1.63
9525.00,1.63
9524.00,1.63
9523.00,1.63
9522.00,1.63
9521.00,1.63
9520.00,1.63
9519.00,1.63
9518.00,1.63
9517.00,1.63
9516.00,1.63
9515.00,1.63
9514.00,1.63
9513.00,1.63
9512.00,1.63
9511.00,1.63
9510.00,1.63
9509.00,1.63
9508.00,1.63
9507.00,1.63
9506.00,1.63
9505.00,1.62
9504.00,1.62
9503.00,1.62
9502.00,1.62
9501.00,1.62
9500.00,1.62
9499.00,1.62
9498.00,1.62
9497.00,1.62
9496.00,1.62
9495.00,1.62
9494.00,1.62
9493.00,1.62
9492.00,1.62
9491.00,1.62
9490.00,1.62
9489.00,1.62
9488.00,1.63
9487.00,1.63
9486.00,1.63
9485.00,1.63
9484.00,1.63
9483.00,1.63
9482.00,1.63
9481.00,1.63
9480.00,1.63
9479.00,1.63
9478.00,1.63
9477.00,1.63
9476.00,1.63
9475.00,1.63
9474.00,1.63
9473.00,1.63
9472.00,1.63
9471.00,1.63
9470.00,1.63
9469.00,1.63
9468.00,1.63
9467.00,1.62
9466.00,1.62
9465.00,1.62
9464.00,1.62
9463.00,1.62
9462.00,1.62
9461.00,1.62
9460.00,1.62
9459.00,1.62
9458.00,1.62
9457.00,1.62
9456.00,1.62
9455.00,1.62
9454.00,1.62
9453.00,1.62
9452.00,1.62
9451.00,1.62
9450.00,1.62
9449.00,1.62
9448.00,1.62
9447.00,1.62
9446.00,1.63
9445.00,1.63
9444.00,1.63
9443.00,1.63
9442.00,1.63
9441.00,1.63
9440.00,1.63
9439.00,1.63
9438.00,1.63
9437.00,1.63
9436.00,1.63
9435.00,1.63
9434.00,1.63
9433.00,1.63
9432.00,1.62
9431.00,1.62
9430.00,1.62
9429.00,1.62
9428.00,1.62
9427.00,1.62
9426.00,1.62
9425.00,1.62
9424.00,1.62
9423.00,1.62
9422.00,1.63
9421.00,1.63
9420.00,1.63
9419.00,1.63
9418.00,1.63
9417.00,1.63
9416.00,1.63
9415.00,1.63
9414.00,1.63
9413.00,1.63
9412.00,1.63
9411.00,1.63
9410.00,1.63
9409.00,1.63
9408.00,1.63
9407.00,1.63
9406.00,1.63
9405.00,1.63
9404.00,1.63
9403.00,1.63
9402.00,1.63
9401.00,1.63
9400.00,1.63
9399.00,1.63
9398.00,1.63
9397.00,1.63
9396.00,1.63
9395.00,1.63
9394.00,1.63
9393.00,1.63
9392.00,1.63
9391.00,1.63
9390.00,1.63
9389.00,1.63
9388.00,1.63
9387.00,1.63
9386.00,1.63
9385.00,1.63
9384.00,1.63
9383.00,1.63
9382.00,1.63
9381.00,1.63
9380.00,1.63
9379.00,1.63
9378.00,1.63
9377.00,1.63
9376.00,1.63
9375.00,1.63
9374.00,1.63
9373.00,1.63
9372.00,1.63
9371.00,1.63
9370.00,1.63
9369.00,1.63
9368.00,1.63
9367.00,1.63
9366.00,1.62
9365.00,1.62
9364.00,1.62
9363.00,1.63
9362.00,1.63
9361.00,1.63
9360.00,1.63
9359.00,1.63
9358.00,1.63
9357.00,1.64
9356.00,1.64
9355.00,1.64
9354.00,1.64
9353.00,1.64
9352.00,1.64
9351.00,1.65
9350.00,1.65
9349.00,1.65
9348.00,1.65
9347.00,1.64
9346.00,1.64
9345.00,1.64
9344.00,1.64
9343.00,1.64
9342.00,1.63
9341.00,1.63
9340.00,1.63
9339.00,1.62
9338.00,1.62
9337.00,1.62
9336.00,1.61
9335.00,1.61
9334.00,1.61
9333.00,1.60
9332.00,1.60
9331.00,1.60
9330.00,1.60
9329.00,1.60
9328.00,1.60
9327.00,1.60
9326.00,1.60
9325.00,1.60
9324.00,1.60
9323.00,1.60
9322.00,1.60
9321.00,1.60
9320.00,1.60
9319.00,1.60
9318.00,1.60
9317.00,1.60
9316.00,1.60
9315.00,1.60
9314.00,1.60
9313.00,1.60
9312.00,1.60
9311.00,1.60
9310.00,1.60
9309.00,1.60
9308.00,1.61
9307.00,1.61
9306.00,1.61
9305.00,1.61
9304.00,1.61
9303.00,1.61
9302.00,1.61
9301.00,1.61
9300.00,1.61
9299.00,1.61
9298.00,1.61
9297.00,1.61
9296.00,1.61
9295.00,1.61
9294.00,1.62
9293.00,1.62
9292.00,1.62
9291.00,1.62
9290.00,1.62
9289.00,1.61
9288.00,1.61
9287.00,1.61
9286.00,1.61
9285.00,1.61
9284.00,1.61
9283.00,1.61
9282.00,1.61
9281.00,1.61
9280.00,1.61
9279.00,1.61
9278.00,1.62
9277.00,1.62
9276.00,1.62
9275.00,1.62
9274.00,1.62
9273.00,1.62
9272.00,1.62
9271.00,1.62
9270.00,1.62
9269.00,1.62
9268.00,1.62
9267.00,1.62
9266.00,1.62
9265.00,1.62
9264.00,1.62
9263.00,1.62
9262.00,1.62
9261.00,1.62
9260.00,1.62
9259.00,1.62
9258.00,1.62
9257.00,1.62
9256.00,1.62
9255.00,1.62
9254.00,1.61
9253.00,1.61
9252.00,1.61
9251.00,1.61
9250.00,1.61
9249.00,1.61
9248.00,1.61
9247.00,1.61
9246.00,1.61
9245.00,1.61
9244.00,1.61
9243.00,1.61
9242.00,1.61
9241.00,1.62
9240.00,1.62
9239.00,1.62
9238.00,1.62
9237.00,1.62
9236.00,1.62
9235.00,1.62
9234.00,1.62
9233.00,1.62
9232.00,1.62
9231.00,1.62
9230.00,1.62
9229.00,1.62
9228.00,1.62
9227.00,1.62
9226.00,1.62
9225.00,1.62
9224.00,1.62
9223.00,1.62
9222.00,1.62
9221.00,1.61
9220.00,1.61
9219.00,1.61
9218.00,1.61
9217.00,1.61
9216.00,1.61
9215.00,1.61
9214.00,1.61
9213.00,1.61
9212.00,1.62
9211.00,1.62
9210.00,1.62
9209.00,1.62
9208.00,1.62
9207.00,1.62
9206.00,1.62
9205.00,1.62
9204.00,1.62
9203.00,1.62
9202.00,1.62
9201.00,1.62
9200.00,1.62
9199.00,1.62
9198.00,1.62
9197.00,1.61
9196.00,1.61
9195.00,1.61
9194.00,1.61
9193.00,1.61
9192.00,1.61
9191.00,1.61
9190.00,1.61
9189.00,1.61
9188.00,1.61
9187.00,1.61
9186.00,1.61
9185.00,1.61
9184.00,1.61
9183.00,1.61
9182.00,1.61
9181.00,1.61
9180.00,1.61
9179.00,1.61
9178.00,1.61
9177.00,1.61
9176.00,1.61
9175.00,1.61
9174.00,1.61
9173.00,1.61
9172.00,1.62
9171.00,1.62
9170.00,1.62
9169.00,1.62
9168.00,1.62
9167.00,1.63
9166.00,1.63
9165.00,1.63
9164.00,1.63
9163.00,1.63
9162.00,1.63
9161.00,1.63
9160.00,1.63
9159.00,1.63
9158.00,1.63
9157.00,1.63
9156.00,1.63
9155.00,1.63
9154.00,1.63
9153.00,1.63
9152.00,1.63
9151.00,1.63
9150.00,1.63
9149.00,1.63
9148.00,1.63
9147.00,1.63
9146.00,1.63
9145.00,1.63
9144.00,1.63
9143.00,1.63
9142.00,1.63
9141.00,1.63
9140.00,1.63
9139.00,1.63
9138.00,1.63
9137.00,1.63
9136.00,1.63
9135.00,1.63
9134.00,1.63
9133.00,1.63
9132.00,1.63
9131.00,1.63
9130.00,1.63
9129.00,1.63
9128.00,1.62
9127.00,1.62
9126.00,1.62
9125.00,1.62
9124.00,1.62
9123.00,1.62
9122.00,1.62
9121.00,1.61
9120.00,1.61
9119.00,1.61
9118.00,1.61
9117.00,1.61
9116.00,1.61
9115.00,1.61
9114.00,1.61
9113.00,1.61
9112.00,1.61
9111.00,1.61
9110.00,1.61
9109.00,1.61
9108.00,1.61
9107.00,1.62
9106.00,1.62
9105.00,1.62
9104.00,1.62
9103.00,1.62
9102.00,1.62
9101.00,1.62
9100.00,1.63
9099.00,1.63
9098.00,1.63
9097.00,1.63
9096.00,1.63
9095.00,1.63
9094.00,1.63
9093.00,1.63
9092.00,1.63
9091.00,1.63
9090.00,1.63
9089.00,1.63
9088.00,1.63
9087.00,1.63
9086.00,1.63
9085.00,1.63
9084.00,1.63
9083.00,1.63
9082.00,1.63
9081.00,1.63
9080.00,1.63
9079.00,1.62
9078.00,1.62
9077.00,1.62
9076.00,1.62
9075.00,1.62
9074.00,1.62
9073.00,1.62
9072.00,1.62
9071.00,1.62
9070.00,1.62
9069.00,1.62
9068.00,1.62
9067.00,1.62
9066.00,1.62
9065.00,1.62
9064.00,1.62
9063.00,1.62
9062.00,1.62
9061.00,1.62
9060.00,1.62
9059.00,1.63
9058.00,1.63
9057.00,1.63
9056.00,1.63
9055.00,1.63
9054.00,1.63
9053.00,1.63
9052.00,1.63
9051.00,1.63
9050.00,1.63
9049.00,1.63
9048.00,1.63
9047.00,1.63
9046.00,1.63
9045.00,1.63
9044.00,1.63
9043.00,1.63
9042.00,1.63
9041.00,1.63
9040.00,1.62
9039.00,1.62
9038.00,1.62
9037.00,1.62
9036.00,1.62
9035.00,1.62
9034.00,1.62
9033.00,1.62
9032.00,1.62
9031.00,1.62
9030.00,1.61
9029.00,1.61
9028.00,1.61
9027.00,1.61
9026.00,1.62
9025.00,1.62
9024.00,1.62
9023.00,1.62
9022.00,1.62
9021.00,1.62
9020.00,1.62
9019.00,1.62
9018.00,1.62
9017.00,1.62
9016.00,1.62
9015.00,1.62
9014.00,1.62
9013.00,1.62
9012.00,1.63
9011.00,1.63
9010.00,1.63
9009.00,1.63
9008.00,1.63
9007.00,1.63
9006.00,1.63
9005.00,1.63
9004.00,1.63
9003.00,1.63
9002.00,1.63
9001.00,1.64
9000.00,1.64
8999.00,1.64
8998.00,1.64
8997.00,1.64
8996.00,1.63
8995.00,1.63
8994.00,1.63
8993.00,1.63
8992.00,1.63
8991.00,1.63
8990.00,1.63
8989.00,1.63
8988.00,1.63
8987.00,1.63
8986.00,1.63
8985.00,1.63
8984.00,1.63
8983.00,1.63
8982.00,1.63
8981.00,1.63
8980.00,1.63
8979.00,1.64
8978.00,1.64
8977.00,1.64
8976.00,1.64
8975.00,1.64
8974.00,1.64
8973.00,1.64
8972.00,1.64
8971.00,1.64
8970.00,1.64
8969.00,1.64
8968.00,1.64
8967.00,1.64
8966.00,1.64
8965.00,1.64
8964.00,1.64
8963.00,1.65
8962.00,1.65
8961.00,1.65
8960.00,1.65
8959.00,1.65
8958.00,1.65
8957.00,1.64
8956.00,1.64
8955.00,1.64
8954.00,1.64
8953.00,1.64
8952.00,1.64
8951.00,1.63
8950.00,1.63
8949.00,1.63
8948.00,1.63
8947.00,1.62
8946.00,1.62
8945.00,1.62
8944.00,1.62
8943.00,1.62
8942.00,1.62
8941.00,1.62
8940.00,1.62
8939.00,1.62
8938.00,1.62
8937.00,1.62
8936.00,1.62
8935.00,1.62
8934.00,1.62
8933.00,1.63
8932.00,1.63
8931.00,1.63
8930.00,1.63
8929.00,1.63
8928.00,1.63
8927.00,1.64
8926.00,1.64
8925.00,1.64
8924.00,1.64
8923.00,1.64
8922.00,1.64
8921.00,1.64
8920.00,1.64
8919.00,1.64
8918.00,1.64
8917.00,1.64
8916.00,1.64
8915.00,1.63
8914.00,1.63
8913.00,1.63
8912.00,1.63
8911.00,1.63
8910.00,1.62
8909.00,1.62
8908.00,1.62
8907.00,1.62
8906.00,1.62
8905.00,1.62
8904.00,1.61
8903.00,1.61
8902.00,1.61
8901.00,1.61
8900.00,1.62
8899.00,1.62
8898.00,1.62
8897.00,1.62
8896.00,1.62
8895.00,1.62
8894.00,1.62
8893.00,1.62
8892.00,1.63
8891.00,1.63
8890.00,1.63
8889.00,1.63
8888.00,1.63
8887.00,1.63
8886.00,1.63
8885.00,1.63
8884.00,1.63
8883.00,1.63
8882.00,1.63
8881.00,1.63
8880.00,1.63
8879.00,1.63
8878.00,1.63
8877.00,1.63
8876.00,1.63
8875.00,1.63
8874.00,1.63
8873.00,1.63
8872.00,1.63
8871.00,1.63
8870.00,1.63
8869.00,1.63
8868.00,1.63
8867.00,1.63
8866.00,1.63
8865.00,1.63
8864.00,1.63
8863.00,1.63
8862.00,1.63
8861.00,1.63
8860.00,1.63
8859.00,1.63
8858.00,1.63
8857.00,1.62
8856.00,1.62
8855.00,1.62
8854.00,1.62
8853.00,1.62
8852.00,1.62
8851.00,1.62
8850.00,1.62
8849.00,1.62
8848.00,1.62
8847.00,1.62
8846.00,1.62
8845.00,1.62
8844.00,1.62
8843.00,1.61
8842.00,1.61
8841.00,1.61
8840.00,1.61
8839.00,1.61
8838.00,1.61
8837.00,1.61
8836.00,1.61
8835.00,1.61
8834.00,1.61
8833.00,1.61
8832.00,1.61
8831.00,1.61
8830.00,1.61
8829.00,1.61
8828.00,1.61
8827.00,1.61
8826.00,1.60
8825.00,1.60
8824.00,1.60
8823.00,1.60
8822.00,1.60
8821.00,1.60
8820.00,1.60
8819.00,1.60
8818.00,1.60
8817.00,1.60
8816.00,1.60
8815.00,1.60
8814.00,1.60
8813.00,1.60
8812.00,1.59
8811.00,1.59
8810.00,1.59
8809.00,1.59
8808.00,1.59
8807.00,1.59
8806.00,1.59
8805.00,1.59
8804.00,1.59
8803.00,1.59
8802.00,1.59
8801.00,1.60
8800.00,1.60
8799.00,1.60
8798.00,1.60
8797.00,1.60
8796.00,1.60
8795.00,1.60
8794.00,1.60
8793.00,1.60
8792.00,1.60
8791.00,1.60
8790.00,1.60
8789.00,1.60
8788.00,1.60
8787.00,1.60
8786.00,1.60
8785.00,1.60
8784.00,1.60
8783.00,1.60
8782.00,1.60
8781.00,1.60
8780.00,1.60
8779.00,1.60
8778.00,1.60
8777.00,1.59
8776.00,1.59
8775.00,1.59
8774.00,1.59
8773.00,1.59
8772.00,1.59
8771.00,1.59
8770.00,1.59
8769.00,1.59
8768.00,1.59
8767.00,1.58
8766.00,1.58
8765.00,1.58
8764.00,1.58
8763.00,1.59
8762.00,1.59
8761.00,1.59
8760.00,1.59
8759.00,1.59
8758.00,1.59
8757.00,1.59
8756.00,1.59
8755.00,1.59
8754.00,1.59
8753.00,1.59
8752.00,1.59
8751.00,1.59
8750.00,1.59
8749.00,1.59
8748.00,1.58
8747.00,1.58
8746.00,1.58
8745.00,1.58
8744.00,1.58
8743.00,1.58
8742.00,1.58
8741.00,1.58
8740.00,1.57
8739.00,1.57
8738.00,1.57
8737.00,1.57
8736.00,1.57
8735.00,1.57
8734.00,1.57
8733.00,1.57
8732.00,1.57
8731.00,1.57
8730.00,1.57
8729.00,1.57
8728.00,1.58
8727.00,1.58
8726.00,1.58
8725.00,1.58
8724.00,1.58
8723.00,1.58
8722.00,1.58
8721.00,1.58
8720.00,1.58
8719.00,1.58
8718.00,1.58
8717.00,1.58
8716.00,1.58
8715.00,1.58
8714.00,1.58
8713.00,1.58
8712.00,1.58
8711.00,1.58
8710.00,1.58
8709.00,1.58
8708.00,1.57
8707.00,1.57
8706.00,1.57
8705.00,1.57
8704.00,1.57
8703.00,1.57
8702.00,1.56
8701.00,1.56
8700.00,1.56
8699.00,1.56
8698.00,1.56
8697.00,1.56
8696.00,1.56
8695.00,1.55
8694.00,1.55
8693.00,1.55
8692.00,1.55
8691.00,1.55
8690.00,1.55
8689.00,1.55
8688.00,1.55
8687.00,1.55
8686.00,1.55
8685.00,1.55
8684.00,1.55
8683.00,1.55
8682.00,1.55
8681.00,1.55
8680.00,1.55
8679.00,1.55
8678.00,1.55
8677.00,1.55
8676.00,1.55
8675.00,1.55
8674.00,1.55
8673.00,1.55
8672.00,1.55
8671.00,1.55
8670.00,1.55
8669.00,1.55
8668.00,1.55
8667.00,1.55
8666.00,1.55
8665.00,1.55
8664.00,1.55
8663.00,1.55
8662.00,1.56
8661.00,1.56
8660.00,1.56
8659.00,1.56
8658.00,1.56
8657.00,1.56
8656.00,1.55
8655.00,1.55
8654.00,1.55
8653.00,1.55
8652.00,1.55
8651.00,1.55
8650.00,1.55
8649.00,1.55
8648.00,1.55
8647.00,1.55
8646.00,1.55
8645.00,1.55
8644.00,1.54
8643.00,1.54
8642.00,1.54
8641.00,1.54
8640.00,1.54
8639.00,1.54
8638.00,1.54
8637.00,1.54
8636.00,1.54
8635.00,1.54
8634.00,1.54
8633.00,1.54
8632.00,1.54
8631.00,1.55
8630.00,1.55
8629.00,1.55
8628.00,1.55
8627.00,1.55
8626.00,1.55
8625.00,1.55
8624.00,1.55
8623.00,1.55
8622.00,1.55
8621.00,1.55
8620.00,1.55
8619.00,1.55
8618.00,1.55
8617.00,1.55
8616.00,1.55
8615.00,1.54
8614.00,1.54
8613.00,1.54
8612.00,1.54
8611.00,1.54
8610.00,1.54
8609.00,1.54
8608.00,1.54
8607.00,1.54
8606.00,1.53
8605.00,1.53
8604.00,1.53
8603.00,1.53
8602.00,1.53
8601.00,1.53
8600.00,1.53
8599.00,1.52
8598.00,1.52
8597.00,1.52
8596.00,1.52
8595.00,1.52
8594.00,1.52
8593.00,1.52
8592.00,1.52
8591.00,1.51
8590.00,1.51
8589.00,1.51
8588.00,1.51
8587.00,1.51
8586.00,1.51
8585.00,1.51
8584.00,1.51
8583.00,1.51
8582.00,1.52
8581.00,1.52
8580.00,1.52
8579.00,1.52
8578.00,1.52
8577.00,1.52
8576.00,1.52
8575.00,1.52
8574.00,1.52
8573.00,1.52
8572.00,1.52
8571.00,1.52
8570.00,1.52
8569.00,1.52
8568.00,1.52
8567.00,1.52
8566.00,1.52
8565.00,1.52
8564.00,1.52
8563.00,1.52
8562.00,1.52
8561.00,1.52
8560.00,1.52
8559.00,1.52
8558.00,1.52
8557.00,1.52
8556.00,1.52
8555.00,1.52
8554.00,1.52
8553.00,1.52
8552.00,1.52
8551.00,1.52
8550.00,1.52
8549.00,1.52
8548.00,1.52
8547.00,1.52
8546.00,1.52
8545.00,1.52
8544.00,1.52
8543.00,1.52
8542.00,1.52
8541.00,1.52
8540.00,1.52
8539.00,1.51
8538.00,1.51
8537.00,1.51
8536.00,1.51
8535.00,1.51
8534.00,1.51
8533.00,1.51
8532.00,1.51
8531.00,1.51
8530.00,1.51
8529.00,1.51
8528.00,1.51
8527.00,1.51
8526.00,1.51
8525.00,1.51
8524.00,1.51
8523.00,1.51
8522.00,1.51
8521.00,1.51
8520.00,1.51
8519.00,1.51
8518.00,1.50
8517.00,1.50
8516.00,1.50
8515.00,1.50
8514.00,1.50
8513.00,1.49
8512.00,1.49
8511.00,1.49
8510.00,1.49
8509.00,1.49
8508.00,1.48
8507.00,1.48
8506.00,1.48
8505.00,1.48
8504.00,1.48
8503.00,1.48
8502.00,1.48
8501.00,1.48
8500.00,1.48
8499.00,1.48
8498.00,1.48
8497.00,1.48
8496.00,1.48
8495.00,1.48
8494.00,1.47
8493.00,1.47
8492.00,1.47
8491.00,1.47
8490.00,1.47
8489.00,1.47
8488.00,1.47
8487.00,1.47
8486.00,1.47
8485.00,1.47
8484.00,1.47
8483.00,1.47
8482.00,1.47
8481.00,1.46
8480.00,1.46
8479.00,1.46
8478.00,1.46
8477.00,1.46
8476.00,1.46
8475.00,1.46
8474.00,1.46
8473.00,1.46
8472.00,1.46
8471.00,1.46
8470.00,1.46
8469.00,1.46
8468.00,1.46
8467.00,1.46
8466.00,1.46
8465.00,1.46
8464.00,1.46
8463.00,1.46
8462.00,1.46
8461.00,1.46
8460.00,1.46
8459.00,1.46
8458.00,1.46
8457.00,1.46
8456.00,1.46
8455.00,1.46
8454.00,1.46
8453.00,1.46
8452.00,1.46
8451.00,1.46
8450.00,1.46
8449.00,1.46
8448.00,1.45
8447.00,1.45
8446.00,1.45
8445.00,1.45
8444.00,1.45
8443.00,1.45
8442.00,1.45
8441.00,1.45
8440.00,1.45
8439.00,1.45
8438.00,1.45
8437.00,1.45
8436.00,1.45
8435.00,1.45
8434.00,1.45
8433.00,1.45
8432.00,1.45
8431.00,1.45
8430.00,1.45
8429.00,1.45
8428.00,1.45
8427.00,1.45
8426.00,1.45
8425.00,1.45
8424.00,1.45
8423.00,1.45
8422.00,1.46
8421.00,1.46
8420.00,1.46
8419.00,1.46
8418.00,1.46
8417.00,1.46
8416.00,1.46
8415.00,1.46
8414.00,1.46
8413.00,1.46
8412.00,1.46
8411.00,1.46
8410.00,1.46
8409.00,1.47
8408.00,1.47
8407.00,1.47
8406.00,1.47
8405.00,1.47
8404.00,1.47
8403.00,1.47
8402.00,1.47
8401.00,1.47
8400.00,1.48
8399.00,1.48
8398.00,1.48
8397.00,1.48
8396.00,1.48
8395.00,1.48
8394.00,1.47
8393.00,1.47
8392.00,1.47
8391.00,1.47
8390.00,1.47
8389.00,1.47
8388.00,1.47
8387.00,1.47
8386.00,1.47
8385.00,1.47
8384.00,1.46
8383.00,1.46
8382.00,1.46
8381.00,1.47
8380.00,1.47
8379.00,1.47
8378.00,1.47
8377.00,1.47
8376.00,1.47
8375.00,1.48
8374.00,1.48
8373.00,1.48
8372.00,1.48
8371.00,1.48
8370.00,1.49
8369.00,1.49
8368.00,1.49
8367.00,1.49
8366.00,1.49
8365.00,1.50
8364.00,1.50
8363.00,1.50
8362.00,1.50
8361.00,1.50
8360.00,1.50
8359.00,1.50
8358.00,1.50
8357.00,1.50
8356.00,1.50
8355.00,1.50
8354.00,1.50
8353.00,1.50
8352.00,1.50
8351.00,1.50
8350.00,1.50
8349.00,1.50
8348.00,1.50
8347.00,1.50
8346.00,1.50
8345.00,1.50
8344.00,1.50
8343.00,1.51
8342.00,1.51
8341.00,1.51
8340.00,1.51
8339.00,1.51
8338.00,1.51
8337.00,1.51
8336.00,1.51
8335.00,1.51
8334.00,1.51
8333.00,1.51
8332.00,1.51
8331.00,1.51
8330.00,1.51
8329.00,1.51
8328.00,1.51
8327.00,1.51
8326.00,1.51
8325.00,1.51
8324.00,1.51
8323.00,1.51
8322.00,1.51
8321.00,1.51
8320.00,1.51
8319.00,1.51
8318.00,1.51
8317.00,1.51
8316.00,1.51
8315.00,1.51
8314.00,1.51
8313.00,1.51
8312.00,1.51
8311.00,1.51
8310.00,1.51
8309.00,1.51
8308.00,1.51
8307.00,1.51
8306.00,1.51
8305.00,1.51
8304.00,1.51
8303.00,1.51
8302.00,1.51
8301.00,1.51
8300.00,1.51
8299.00,1.51
8298.00,1.51
8297.00,1.51
8296.00,1.51
8295.00,1.51
8294.00,1.51
8293.00,1.51
8292.00,1.51
8291.00,1.51
8290.00,1.51
8289.00,1.51
8288.00,1.51
8287.00,1.51
8286.00,1.51
8285.00,1.51
8284.00,1.51
8283.00,1.51
8282.00,1.51
8281.00,1.51
8280.00,1.51
8279.00,1.51
8278.00,1.51
8277.00,1.51
8276.00,1.51
8275.00,1.51
8274.00,1.51
8273.00,1.51
8272.00,1.50
8271.00,1.50
8270.00,1.50
8269.00,1.50
8268.00,1.50
8267.00,1.50
8266.00,1.51
8265.00,1.51
8264.00,1.51
8263.00,1.51
8262.00,1.51
8261.00,1.51
8260.00,1.51
8259.00,1.51
8258.00,1.51
8257.00,1.52
8256.00,1.52
8255.00,1.52
8254.00,1.52
8253.00,1.52
8252.00,1.52
8251.00,1.52
8250.00,1.52
8249.00,1.52
8248.00,1.52
8247.00,1.52
8246.00,1.52
8245.00,1.52
8244.00,1.52
8243.00,1.52
8242.00,1.52
8241.00,1.52
8240.00,1.52
8239.00,1.52
8238.00,1.52
8237.00,1.52
8236.00,1.52
8235.00,1.52
8234.00,1.52
8233.00,1.52
8232.00,1.52
8231.00,1.52
8230.00,1.52
8229.00,1.52
8228.00,1.52
8227.00,1.52
8226.00,1.52
8225.00,1.52
8224.00,1.52
8223.00,1.52
8222.00,1.52
8221.00,1.53
8220.00,1.53
8219.00,1.53
8218.00,1.53
8217.00,1.53
8216.00,1.53
8215.00,1.54
8214.00,1.54
8213.00,1.54
8212.00,1.54
8211.00,1.54
8210.00,1.54
8209.00,1.54
8208.00,1.54
8207.00,1.54
8206.00,1.54
8205.00,1.54
8204.00,1.53
8203.00,1.53
8202.00,1.53
8201.00,1.53
8200.00,1.53
8199.00,1.53
8198.00,1.53
8197.00,1.52
8196.00,1.52
8195.00,1.52
8194.00,1.52
8193.00,1.52
8192.00,1.52
8191.00,1.52
8190.00,1.52
8189.00,1.52
8188.00,1.53
8187.00,1.53
8186.00,1.53
8185.00,1.53
8184.00,1.53
8183.00,1.53
8182.00,1.53
8181.00,1.53
8180.00,1.53
8179.00,1.53
8178.00,1.54
8177.00,1.54
8176.00,1.54
8175.00,1.54
8174.00,1.54
8173.00,1.54
8172.00,1.54
8171.00,1.54
8170.00,1.54
8169.00,1.54
8168.00,1.55
8167.00,1.55
8166.00,1.55
8165.00,1.55
8164.00,1.55
8163.00,1.55
8162.00,1.55
8161.00,1.55
8160.00,1.55
8159.00,1.55
8158.00,1.55
8157.00,1.56
8156.00,1.56
8155.00,1.56
8154.00,1.56
8153.00,1.56
8152.00,1.56
8151.00,1.56
8150.00,1.56
8149.00,1.56
8148.00,1.56
8147.00,1.56
8146.00,1.56
8145.00,1.56
8144.00,1.56
8143.00,1.56
8142.00,1.56
8141.00,1.56
8140.00,1.56
8139.00,1.56
8138.00,1.56
8137.00,1.56
8136.00,1.57
8135.00,1.57
8134.00,1.57
8133.00,1.57
8132.00,1.57
8131.00,1.57
8130.00,1.57
8129.00,1.57
8128.00,1.57
8127.00,1.57
8126.00,1.57
8125.00,1.57
8124.00,1.57
8123.00,1.57
8122.00,1.57
8121.00,1.57
8120.00,1.57
8119.00,1.57
8118.00,1.57
8117.00,1.57
8116.00,1.57
8115.00,1.57
8114.00,1.57
8113.00,1.57
8112.00,1.57
8111.00,1.57
8110.00,1.57
8109.00,1.57
8108.00,1.57
8107.00,1.58
8106.00,1.58
8105.00,1.58
8104.00,1.58
8103.00,1.58
8102.00,1.58
8101.00,1.58
8100.00,1.58
8099.00,1.58
8098.00,1.58
8097.00,1.58
8096.00,1.58
8095.00,1.58
8094.00,1.58
8093.00,1.58
8092.00,1.58
8091.00,1.58
8090.00,1.58
8089.00,1.58
8088.00,1.58
8087.00,1.58
8086.00,1.58
8085.00,1.58
8084.00,1.58
8083.00,1.58
8082.00,1.58
8081.00,1.58
8080.00,1.58
8079.00,1.58
8078.00,1.58
8077.00,1.58
8076.00,1.58
8075.00,1.58
8074.00,1.58
8073.00,1.58
8072.00,1.58
8071.00,1.58
8070.00,1.58
8069.00,1.58
8068.00,1.57
8067.00,1.57
8066.00,1.57
8065.00,1.57
8064.00,1.57
8063.00,1.57
8062.00,1.57
8061.00,1.58
8060.00,1.58
8059.00,1.58
8058.00,1.58
8057.00,1.58
8056.00,1.58
8055.00,1.58
8054.00,1.58
8053.00,1.58
8052.00,1.58
8051.00,1.58
8050.00,1.58
8049.00,1.58
8048.00,1.58
8047.00,1.58
8046.00,1.59
8045.00,1.59
8044.00,1.59
8043.00,1.59
8042.00,1.59
8041.00,1.59
8040.00,1.59
8039.00,1.59
8038.00,1.59
8037.00,1.60
8036.00,1.60
8035.00,1.60
8034.00,1.60
8033.00,1.60
8032.00,1.60
8031.00,1.60
8030.00,1.60
8029.00,1.60
8028.00,1.60
8027.00,1.60
8026.00,1.61
8025.00,1.61
8024.00,1.61
8023.00,1.61
8022.00,1.61
8021.00,1.61
8020.00,1.61
8019.00,1.61
8018.00,1.61
8017.00,1.61
8016.00,1.61
8015.00,1.61
8014.00,1.61
8013.00,1.61
8012.00,1.61
8011.00,1.61
8010.00,1.61
8009.00,1.61
8008.00,1.61
8007.00,1.60
8006.00,1.60
8005.00,1.60
8004.00,1.60
8003.00,1.60
8002.00,1.60
8001.00,1.60
8000.00,1.60
7999.00,1.60
7998.00,1.60
7997.00,1.60
7996.00,1.60
7995.00,1.60
7994.00,1.60
7993.00,1.60
7992.00,1.60
7991.00,1.60
7990.00,1.60
7989.00,1.60
7988.00,1.60
7987.00,1.60
7986.00,1.60
7985.00,1.60
7984.00,1.60
7983.00,1.60
7982.00,1.60
7981.00,1.60
7980.00,1.60
7979.00,1.60
7978.00,1.60
7977.00,1.60
7976.00,1.60
7975.00,1.60
7974.00,1.60
7973.00,1.60
7972.00,1.60
7971.00,1.60
7970.00,1.60
7969.00,1.60
7968.00,1.60
7967.00,1.60
7966.00,1.60
7965.00,1.60
7964.00,1.60
7963.00,1.60
7962.00,1.60
7961.00,1.60
7960.00,1.60
7959.00,1.60
7958.00,1.60
7957.00,1.60
7956.00,1.60
7955.00,1.60
7954.00,1.61
7953.00,1.61
7952.00,1.61
7951.00,1.61
7950.00,1.61
7949.00,1.61
7948.00,1.61
7947.00,1.61
7946.00,1.61
7945.00,1.61
7944.00,1.61
7943.00,1.61
7942.00,1.62
7941.00,1.62
7940.00,1.62
7939.00,1.61
7938.00,1.61
7937.00,1.61
7936.00,1.61
7935.00,1.61
7934.00,1.61
7933.00,1.61
7932.00,1.61
7931.00,1.61
7930.00,1.61
7929.00,1.61
7928.00,1.61
7927.00,1.61
7926.00,1.61
7925.00,1.61
7924.00,1.61
7923.00,1.61
7922.00,1.61
7921.00,1.61
7920.00,1.61
7919.00,1.61
7918.00,1.61
7917.00,1.61
7916.00,1.61
7915.00,1.61
7914.00,1.61
7913.00,1.61
7912.00,1.61
7911.00,1.61
7910.00,1.61
7909.00,1.61
7908.00,1.61
7907.00,1.61
7906.00,1.61
7905.00,1.61
7904.00,1.61
7903.00,1.61
7902.00,1.61
7901.00,1.61
7900.00,1.61
7899.00,1.61
7898.00,1.61
7897.00,1.62
7896.00,1.62
7895.00,1.62
7894.00,1.62
7893.00,1.62
7892.00,1.62
7891.00,1.62
7890.00,1.62
7889.00,1.62
7888.00,1.62
7887.00,1.62
7886.00,1.62
7885.00,1.62
7884.00,1.62
7883.00,1.63
7882.00,1.63
7881.00,1.63
7880.00,1.63
7879.00,1.63
7878.00,1.63
7877.00,1.63
7876.00,1.63
7875.00,1.63
7874.00,1.63
7873.00,1.63
7872.00,1.63
7871.00,1.63
7870.00,1.63
7869.00,1.63
7868.00,1.63
7867.00,1.63
7866.00,1.63
7865.00,1.63
7864.00,1.63
7863.00,1.62
7862.00,1.62
7861.00,1.62
7860.00,1.62
7859.00,1.62
7858.00,1.62
7857.00,1.62
7856.00,1.63
7855.00,1.63
7854.00,1.63
7853.00,1.63
7852.00,1.63
7851.00,1.63
7850.00,1.63
7849.00,1.63
7848.00,1.63
7847.00,1.63
7846.00,1.63
7845.00,1.63
7844.00,1.63
7843.00,1.63
7842.00,1.63
7841.00,1.63
7840.00,1.63
7839.00,1.63
7838.00,1.63
7837.00,1.63
7836.00,1.63
7835.00,1.63
7834.00,1.63
7833.00,1.63
7832.00,1.63
7831.00,1.63
7830.00,1.63
7829.00,1.63
7828.00,1.63
7827.00,1.63
7826.00,1.63
7825.00,1.63
7824.00,1.63
7823.00,1.63
7822.00,1.63
7821.00,1.63
7820.00,1.63
7819.00,1.63
7818.00,1.63
7817.00,1.63
7816.00,1.63
7815.00,1.63
7814.00,1.63
7813.00,1.63
7812.00,1.63
7811.00,1.63
7810.00,1.63
7809.00,1.63
7808.00,1.63
7807.00,1.63
7806.00,1.64
7805.00,1.64
7804.00,1.64
7803.00,1.64
7802.00,1.64
7801.00,1.64
7800.00,1.64
7799.00,1.64
7798.00,1.64
7797.00,1.64
7796.00,1.64
7795.00,1.64
7794.00,1.64
7793.00,1.64
7792.00,1.64
7791.00,1.64
7790.00,1.64
7789.00,1.63
7788.00,1.63
7787.00,1.63
7786.00,1.63
7785.00,1.63
7784.00,1.63
7783.00,1.63
7782.00,1.63
7781.00,1.63
7780.00,1.63
7779.00,1.63
7778.00,1.63
7777.00,1.63
7776.00,1.63
7775.00,1.63
7774.00,1.63
7773.00,1.63
7772.00,1.63
7771.00,1.64
7770.00,1.64
7769.00,1.64
7768.00,1.64
7767.00,1.64
7766.00,1.64
7765.00,1.64
7764.00,1.64
7763.00,1.64
7762.00,1.63
7761.00,1.63
7760.00,1.63
7759.00,1.63
7758.00,1.63
7757.00,1.63
7756.00,1.63
7755.00,1.63
7754.00,1.63
7753.00,1.63
7752.00,1.63
7751.00,1.63
7750.00,1.63
7749.00,1.63
7748.00,1.63
7747.00,1.63
7746.00,1.64
7745.00,1.64
7744.00,1.64
7743.00,1.64
7742.00,1.64
7741.00,1.64
7740.00,1.64
7739.00,1.64
7738.00,1.64
7737.00,1.64
7736.00,1.64
7735.00,1.64
7734.00,1.64
7733.00,1.64
7732.00,1.65
7731.00,1.65
7730.00,1.65
7729.00,1.65
7728.00,1.65
7727.00,1.65
7726.00,1.65
7725.00,1.65
7724.00,1.65
7723.00,1.65
7722.00,1.65
7721.00,1.65
7720.00,1.65
7719.00,1.65
7718.00,1.65
7717.00,1.65
7716.00,1.65
7715.00,1.65
7714.00,1.65
7713.00,1.65
7712.00,1.65
7711.00,1.65
7710.00,1.64
7709.00,1.64
7708.00,1.64
7707.00,1.64
7706.00,1.64
7705.00,1.64
7704.00,1.64
7703.00,1.64
7702.00,1.64
7701.00,1.64
7700.00,1.64
7699.00,1.64
7698.00,1.64
7697.00,1.64
7696.00,1.64
7695.00,1.64
7694.00,1.64
7693.00,1.64
7692.00,1.64
7691.00,1.64
7690.00,1.64
7689.00,1.64
7688.00,1.64
7687.00,1.64
7686.00,1.64
7685.00,1.64
7684.00,1.64
7683.00,1.64
7682.00,1.64
7681.00,1.64
7680.00,1.64
7679.00,1.64
7678.00,1.64
7677.00,1.64
7676.00,1.64
7675.00,1.64
7674.00,1.64
7673.00,1.64
7672.00,1.64
7671.00,1.64
7670.00,1.64
7669.00,1.64
7668.00,1.64
7667.00,1.64
7666.00,1.64
7665.00,1.64
7664.00,1.64
7663.00,1.64
7662.00,1.64
7661.00,1.64
7660.00,1.65
7659.00,1.65
7658.00,1.65
7657.00,1.65
7656.00,1.65
7655.00,1.65
7654.00,1.65
7653.00,1.65
7652.00,1.65
7651.00,1.65
7650.00,1.65
7649.00,1.65
7648.00,1.65
7647.00,1.65
7646.00,1.65
7645.00,1.65
7644.00,1.64
7643.00,1.64
7642.00,1.64
7641.00,1.64
7640.00,1.64
7639.00,1.64
7638.00,1.64
7637.00,1.64
7636.00,1.64
7635.00,1.64
7634.00,1.64
7633.00,1.63
7632.00,1.63
7631.00,1.63
7630.00,1.63
7629.00,1.63
7628.00,1.63
7627.00,1.63
7626.00,1.63
7625.00,1.63
7624.00,1.63
7623.00,1.63
7622.00,1.63
7621.00,1.63
7620.00,1.63
7619.00,1.63
7618.00,1.64
7617.00,1.64
7616.00,1.64
7615.00,1.64
7614.00,1.64
7613.00,1.64
7612.00,1.64
7611.00,1.64
7610.00,1.64
7609.00,1.64
7608.00,1.64
7607.00,1.64
7606.00,1.64
7605.00,1.64
7604.00,1.64
7603.00,1.64
7602.00,1.64
7601.00,1.64
7600.00,1.64
7599.00,1.64
7598.00,1.64
7597.00,1.64
7596.00,1.64
7595.00,1.64
7594.00,1.64
7593.00,1.64
7592.00,1.64
7591.00,1.64
7590.00,1.64
7589.00,1.64
7588.00,1.64
7587.00,1.64
7586.00,1.64
7585.00,1.64
7584.00,1.64
7583.00,1.64
7582.00,1.64
7581.00,1.64
7580.00,1.64
7579.00,1.64
7578.00,1.64
7577.00,1.64
7576.00,1.64
7575.00,1.64
7574.00,1.64
7573.00,1.64
7572.00,1.64
7571.00,1.64
7570.00,1.64
7569.00,1.64
7568.00,1.64
7567.00,1.64
7566.00,1.64
7565.00,1.64
7564.00,1.64
7563.00,1.63
7562.00,1.63
7561.00,1.63
7560.00,1.63
7559.00,1.63
7558.00,1.63
7557.00,1.63
7556.00,1.63
7555.00,1.63
7554.00,1.63
7553.00,1.63
7552.00,1.63
7551.00,1.63
7550.00,1.63
7549.00,1.63
7548.00,1.63
7547.00,1.62
7546.00,1.62
7545.00,1.62
7544.00,1.62
7543.00,1.62
7542.00,1.62
7541.00,1.62
7540.00,1.62
7539.00,1.62
7538.00,1.62
7537.00,1.62
7536.00,1.62
7535.00,1.62
7534.00,1.62
7533.00,1.62
7532.00,1.62
7531.00,1.62
7530.00,1.62
7529.00,1.62
7528.00,1.62
7527.00,1.62
7526.00,1.62
7525.00,1.62
7524.00,1.62
7523.00,1.62
7522.00,1.62
7521.00,1.62
7520.00,1.62
7519.00,1.62
7518.00,1.62
7517.00,1.62
7516.00,1.62
7515.00,1.62
7514.00,1.62
7513.00,1.61
7512.00,1.61
7511.00,1.61
7510.00,1.61
7509.00,1.61
7508.00,1.61
7507.00,1.61
7506.00,1.61
7505.00,1.61
7504.00,1.60
7503.00,1.60
7502.00,1.60
7501.00,1.60
7500.00,1.60
7499.00,1.60
7498.00,1.60
7497.00,1.60
7496.00,1.60
7495.00,1.60
7494.00,1.60
7493.00,1.60
7492.00,1.60
7491.00,1.60
7490.00,1.60
7489.00,1.60
7488.00,1.60
7487.00,1.60
7486.00,1.60
7485.00,1.60
7484.00,1.60
7483.00,1.60
7482.00,1.60
7481.00,1.60
7480.00,1.60
7479.00,1.60
7478.00,1.60
7477.00,1.60
7476.00,1.60
7475.00,1.60
7474.00,1.60
7473.00,1.60
7472.00,1.60
7471.00,1.60
7470.00,1.60
7469.00,1.60
7468.00,1.60
7467.00,1.60
7466.00,1.60
7465.00,1.59
7464.00,1.59
7463.00,1.59
7462.00,1.59
7461.00,1.59
7460.00,1.59
7459.00,1.59
7458.00,1.59
7457.00,1.59
7456.00,1.59
7455.00,1.59
7454.00,1.59
7453.00,1.59
7452.00,1.59
7451.00,1.59
7450.00,1.58
7449.00,1.58
7448.00,1.58
7447.00,1.58
7446.00,1.58
7445.00,1.58
7444.00,1.58
7443.00,1.58
7442.00,1.58
7441.00,1.58
7440.00,1.58
7439.00,1.57
7438.00,1.57
7437.00,1.57
7436.00,1.57
7435.00,1.57
7434.00,1.57
7433.00,1.57
7432.00,1.57
7431.00,1.57
7430.00,1.57
7429.00,1.57
7428.00,1.56
7427.00,1.56
7426.00,1.56
7425.00,1.56
7424.00,1.56
7423.00,1.56
7422.00,1.56
7421.00,1.56
7420.00,1.56
7419.00,1.56
7418.00,1.56
7417.00,1.56
7416.00,1.56
7415.00,1.56
7414.00,1.56
7413.00,1.56
7412.00,1.56
7411.00,1.56
7410.00,1.55
7409.00,1.55
7408.00,1.55
7407.00,1.55
7406.00,1.55
7405.00,1.55
7404.00,1.55
7403.00,1.55
7402.00,1.55
7401.00,1.54
7400.00,1.54
7399.00,1.54
7398.00,1.54
7397.00,1.54
7396.00,1.54
7395.00,1.54
7394.00,1.54
7393.00,1.54
7392.00,1.54
7391.00,1.53
7390.00,1.53
7389.00,1.53
7388.00,1.53
7387.00,1.53
7386.00,1.53
7385.00,1.53
7384.00,1.53
7383.00,1.53
7382.00,1.52
7381.00,1.52
7380.00,1.52
7379.00,1.52
7378.00,1.52
7377.00,1.52
7376.00,1.52
7375.00,1.52
7374.00,1.52
7373.00,1.52
7372.00,1.52
7371.00,1.52
7370.00,1.51
7369.00,1.51
7368.00,1.51
7367.00,1.51
7366.00,1.51
7365.00,1.51
7364.00,1.51
7363.00,1.51
7362.00,1.51
7361.00,1.51
7360.00,1.51
7359.00,1.51
7358.00,1.51
7357.00,1.51
7356.00,1.51
7355.00,1.51
7354.00,1.51
7353.00,1.51
7352.00,1.51
7351.00,1.51
7350.00,1.51
7349.00,1.51
7348.00,1.51
7347.00,1.51
7346.00,1.51
7345.00,1.51
7344.00,1.51
7343.00,1.51
7342.00,1.51
7341.00,1.51
7340.00,1.51
7339.00,1.51
7338.00,1.51
7337.00,1.51
7336.00,1.51
7335.00,1.51
7334.00,1.51
7333.00,1.51
7332.00,1.51
7331.00,1.51
7330.00,1.50
7329.00,1.50
7328.00,1.50
7327.00,1.50
7326.00,1.50
7325.00,1.50
7324.00,1.50
7323.00,1.50
7322.00,1.50
7321.00,1.50
7320.00,1.50
7319.00,1.49
7318.00,1.49
7317.00,1.49
7316.00,1.49
7315.00,1.49
7314.00,1.49
7313.00,1.49
7312.00,1.49
7311.00,1.48
7310.00,1.48
7309.00,1.48
7308.00,1.48
7307.00,1.48
7306.00,1.48
7305.00,1.47
7304.00,1.47
7303.00,1.47
7302.00,1.47
7301.00,1.47
7300.00,1.47
7299.00,1.47
7298.00,1.47
7297.00,1.47
7296.00,1.46
7295.00,1.46
7294.00,1.46
7293.00,1.46
7292.00,1.46
7291.00,1.46
7290.00,1.46
7289.00,1.46
7288.00,1.46
7287.00,1.46
7286.00,1.46
7285.00,1.46
7284.00,1.46
7283.00,1.46
7282.00,1.45
7281.00,1.45
7280.00,1.45
7279.00,1.45
7278.00,1.45
7277.00,1.45
7276.00,1.45
7275.00,1.45
7274.00,1.44
7273.00,1.44
7272.00,1.44
7271.00,1.44
7270.00,1.44
7269.00,1.44
7268.00,1.43
7267.00,1.43
7266.00,1.43
7265.00,1.43
7264.00,1.43
7263.00,1.43
7262.00,1.43
7261.00,1.42
7260.00,1.42
7259.00,1.42
7258.00,1.42
7257.00,1.41
7256.00,1.41
7255.00,1.41
7254.00,1.41
7253.00,1.40
7252.00,1.40
7251.00,1.40
7250.00,1.39
7249.00,1.39
7248.00,1.38
7247.00,1.38
7246.00,1.38
7245.00,1.37
7244.00,1.37
7243.00,1.37
7242.00,1.36
7241.00,1.36
7240.00,1.36
7239.00,1.35
7238.00,1.35
7237.00,1.35
7236.00,1.34
7235.00,1.34
7234.00,1.34
7233.00,1.33
7232.00,1.33
7231.00,1.33
7230.00,1.32
7229.00,1.32
7228.00,1.31
7227.00,1.31
7226.00,1.31
7225.00,1.30
7224.00,1.30
7223.00,1.29
7222.00,1.29
7221.00,1.29
7220.00,1.28
7219.00,1.28
7218.00,1.27
7217.00,1.27
7216.00,1.26
7215.00,1.26
7214.00,1.25
7213.00,1.25
7212.00,1.25
7211.00,1.24
7210.00,1.24
7209.00,1.23
7208.00,1.23
7207.00,1.22
7206.00,1.22
7205.00,1.21
7204.00,1.21
7203.00,1.21
7202.00,1.20
7201.00,1.20
7200.00,1.19
7199.00,1.19
7198.00,1.18
7197.00,1.18
7196.00,1.18
7195.00,1.17
7194.00,1.17
7193.00,1.16
7192.00,1.16
7191.00,1.15
7190.00,1.15
7189.00,1.15
7188.00,1.14
7187.00,1.14
7186.00,1.13
7185.00,1.13
7184.00,1.12
7183.00,1.12
7182.00,1.12
7181.00,1.11
7180.00,1.11
7179.00,1.10
7178.00,1.10
7177.00,1.10
7176.00,1.09
7175.00,1.09
7174.00,1.08
7173.00,1.08
7172.00,1.08
7171.00,1.07
7170.00,1.07
7169.00,1.07
7168.00,1.06
7167.00,1.06
7166.00,1.05
7165.00,1.05
7164.00,1.05
7163.00,1.04
7162.00,1.04
7161.00,1.04
7160.00,1.03
7159.00,1.03
7158.00,1.02
7157.00,1.02
7156.00,1.02
7155.00,1.01
7154.00,1.01
7153.00,1.00
7152.00,1.00
7151.00,1.00
7150.00,0.99
7149.00,0.99
7148.00,0.98
7147.00,0.98
7146.00,0.98
7145.00,0.97
7144.00,0.97
7143.00,0.96
7142.00,0.96
7141.00,0.95
7140.00,0.95
7139.00,0.95
7138.00,0.94
7137.00,0.94
7136.00,0.94
7135.00,0.93
7134.00,0.93
7133.00,0.93
7132.00,0.92
7131.00,0.92
7130.00,0.92
7129.00,0.91
7128.00,0.91
7127.00,0.91
7126.00,0.90
7125.00,0.90
7124.00,0.90
7123.00,0.89
7122.00,0.89
7121.00,0.89
7120.00,0.88
7119.00,0.88
7118.00,0.88
7117.00,0.87
7116.00,0.87
7115.00,0.86
7114.00,0.86
7113.00,0.86
7112.00,0.85
7111.00,0.85
7110.00,0.85
7109.00,0.84
7108.00,0.84
7107.00,0.84
7106.00,0.84
7105.00,0.83
7104.00,0.83
7103.00,0.83
7102.00,0.83
7101.00,0.83
7100.00,0.82
7099.00,0.82
7098.00,0.82
7097.00,0.82
7096.00,0.82
7095.00,0.81
7094.00,0.81
7093.00,0.81
7092.00,0.81
7091.00,0.80
7090.00,0.80
7089.00,0.80
7088.00,0.80
7087.00,0.80
7086.00,0.79
7085.00,0.79
7084.00,0.79
7083.00,0.79
7082.00,0.78
7081.00,0.78
7080.00,0.78
7079.00,0.78
7078.00,0.77
7077.00,0.77
7076.00,0.77
7075.00,0.77
7074.00,0.77
7073.00,0.76
7072.00,0.76
7071.00,0.76
7070.00,0.76
7069.00,0.76
7068.00,0.75
7067.00,0.75
7066.00,0.75
7065.00,0.75
7064.00,0.75
7063.00,0.74
7062.00,0.74
7061.00,0.74
7060.00,0.74
7059.00,0.74
7058.00,0.74
7057.00,0.73
7056.00,0.73
7055.00,0.73
7054.00,0.73
7053.00,0.73
7052.00,0.73
7051.00,0.73
7050.00,0.72
7049.00,0.72
7048.00,0.72
7047.00,0.72
7046.00,0.72
7045.00,0.72
7044.00,0.72
7043.00,0.71
7042.00,0.71
7041.00,0.71
7040.00,0.71
7039.00,0.71
7038.00,0.71
7037.00,0.71
7036.00,0.71
7035.00,0.71
7034.00,0.71
7033.00,0.71
7032.00,0.71
7031.00,0.71
7030.00,0.71
7029.00,0.71
7028.00,0.70
7027.00,0.70
7026.00,0.70
7025.00,0.70
7024.00,0.70
7023.00,0.70
7022.00,0.70
7021.00,0.70
7020.00,0.70
7019.00,0.70
7018.00,0.69
7017.00,0.69
7016.00,0.69
7015.00,0.69
7014.00,0.69
7013.00,0.69
7012.00,0.68
7011.00,0.68
7010.00,0.68
7009.00,0.68
7008.00,0.68
7007.00,0.68
7006.00,0.68
7005.00,0.68
7004.00,0.67
7003.00,0.67
7002.00,0.67
7001.00,0.67
7000.00,0.67
6999.00,0.67
6998.00,0.67
6997.00,0.67
6996.00,0.67
6995.00,0.67
6994.00,0.67
6993.00,0.67
6992.00,0.66
6991.00,0.66
6990.00,0.66
6989.00,0.66
6988.00,0.66
6987.00,0.66
6986.00,0.66
6985.00,0.66
6984.00,0.66
6983.00,0.65
6982.00,0.65
6981.00,0.65
6980.00,0.65
6979.00,0.65
6978.00,0.65
6977.00,0.65
6976.00,0.65
6975.00,0.65
6974.00,0.65
6973.00,0.65
6972.00,0.65
6971.00,0.65
6970.00,0.65
6969.00,0.65
6968.00,0.65
6967.00,0.65
6966.00,0.65
6965.00,0.65
6964.00,0.65
6963.00,0.65
6962.00,0.64
6961.00,0.64
6960.00,0.64
6959.00,0.64
6958.00,0.64
6957.00,0.64
6956.00,0.64
6955.00,0.64
6954.00,0.64
6953.00,0.64
6952.00,0.64
6951.00,0.64
6950.00,0.64
6949.00,0.64
6948.00,0.64
6947.00,0.64
6946.00,0.64
6945.00,0.64
6944.00,0.64
6943.00,0.64
6942.00,0.64
6941.00,0.64
6940.00,0.64
6939.00,0.64
6938.00,0.64
6937.00,0.64
6936.00,0.64
6935.00,0.63
6934.00,0.63
6933.00,0.63
6932.00,0.63
6931.00,0.63
6930.00,0.63
6929.00,0.63
6928.00,0.63
6927.00,0.63
6926.00,0.63
6925.00,0.63
6924.00,0.63
6923.00,0.63
6922.00,0.63
6921.00,0.63
6920.00,0.63
6919.00,0.63
6918.00,0.63
6917.00,0.63
6916.00,0.63
6915.00,0.63
6914.00,0.63
6913.00,0.63
6912.00,0.63
6911.00,0.63
6910.00,0.63
6909.00,0.63
6908.00,0.63
6907.00,0.63
6906.00,0.63
6905.00,0.63
6904.00,0.63
6903.00,0.63
6902.00,0.63
6901.00,0.63
6900.00,0.63
6899.00,0.63
6898.00,0.63
6897.00,0.63
6896.00,0.63
6895.00,0.63
6894.00,0.63
6893.00,0.63
6892.00,0.63
6891.00,0.63
6890.00,0.63
6889.00,0.63
6888.00,0.63
6887.00,0.63
6886.00,0.63
6885.00,0.63
6884.00,0.63
6883.00,0.63
6882.00,0.63
6881.00,0.63
6880.00,0.62
6879.00,0.62
6878.00,0.62
6877.00,0.62
6876.00,0.62
6875.00,0.62
6874.00,0.62
6873.00,0.62
6872.00,0.62
6871.00,0.62
6870.00,0.62
6869.00,0.62
6868.00,0.62
6867.00,0.62
6866.00,0.62
6865.00,0.62
6864.00,0.62
6863.00,0.62
6862.00,0.62
6861.00,0.62
6860.00,0.62
6859.00,0.62
6858.00,0.63
6857.00,0.63
6856.00,0.63
6855.00,0.63
6854.00,0.63
6853.00,0.63
6852.00,0.63
6851.00,0.63
6850.00,0.63
6849.00,0.63
6848.00,0.62
6847.00,0.62
6846.00,0.62
6845.00,0.62
6844.00,0.62
6843.00,0.62
6842.00,0.62
6841.00,0.62
6840.00,0.62
6839.00,0.62
6838.00,0.62
6837.00,0.62
6836.00,0.62
6835.00,0.62
6834.00,0.62
6833.00,0.62
6832.00,0.62
6831.00,0.62
6830.00,0.62
6829.00,0.62
6828.00,0.63
6827.00,0.63
6826.00,0.63
6825.00,0.63
6824.00,0.63
6823.00,0.63
6822.00,0.63
6821.00,0.63
6820.00,0.63
6819.00,0.63
6818.00,0.63
6817.00,0.63
6816.00,0.64
6815.00,0.64
6814.00,0.64
6813.00,0.64
6812.00,0.64
6811.00,0.64
6810.00,0.64
6809.00,0.64
6808.00,0.64
6807.00,0.64
6806.00,0.64
6805.00,0.64
6804.00,0.64
6803.00,0.64
6802.00,0.64
6801.00,0.64
6800.00,0.64
6799.00,0.64
6798.00,0.65
6797.00,0.65
6796.00,0.65
6795.00,0.65
6794.00,0.65
6793.00,0.65
6792.00,0.65
6791.00,0.65
6790.00,0.65
6789.00,0.65
6788.00,0.65
6787.00,0.65
6786.00,0.65
6785.00,0.65
6784.00,0.65
6783.00,0.65
6782.00,0.65
6781.00,0.65
6780.00,0.65
6779.00,0.65
6778.00,0.65
6777.00,0.65
6776.00,0.65
6775.00,0.66
6774.00,0.66
6773.00,0.66
6772.00,0.66
6771.00,0.66
6770.00,0.66
6769.00,0.66
6768.00,0.66
6767.00,0.66
6766.00,0.66
6765.00,0.66
6764.00,0.66
6763.00,0.66
6762.00,0.66
6761.00,0.67
6760.00,0.67
6759.00,0.67
6758.00,0.67
6757.00,0.67
6756.00,0.67
6755.00,0.67
6754.00,0.67
6753.00,0.67
6752.00,0.67
6751.00,0.67
6750.00,0.67
6749.00,0.68
6748.00,0.68
6747.00,0.68
6746.00,0.68
6745.00,0.68
6744.00,0.68
6743.00,0.68
6742.00,0.68
6741.00,0.68
6740.00,0.69
6739.00,0.69
6738.00,0.69
6737.00,0.69
6736.00,0.69
6735.00,0.69
6734.00,0.69
6733.00,0.69
6732.00,0.69
6731.00,0.69
6730.00,0.70
6729.00,0.70
6728.00,0.70
6727.00,0.70
6726.00,0.70
6725.00,0.70
6724.00,0.70
6723.00,0.70
6722.00,0.70
6721.00,0.70
6720.00,0.71
6719.00,0.71
6718.00,0.71
6717.00,0.71
6716.00,0.71
6715.00,0.71
6714.00,0.71
6713.00,0.71
6712.00,0.71
6711.00,0.72
6710.00,0.72
6709.00,0.72
6708.00,0.72
6707.00,0.72
6706.00,0.72
6705.00,0.72
6704.00,0.72
6703.00,0.72
6702.00,0.72
6701.00,0.72
6700.00,0.73
6699.00,0.73
6698.00,0.73
6697.00,0.73
6696.00,0.73
6695.00,0.73
6694.00,0.73
6693.00,0.73
6692.00,0.73
6691.00,0.73
6690.00,0.74
6689.00,0.74
6688.00,0.74
6687.00,0.74
6686.00,0.74
6685.00,0.74
6684.00,0.74
6683.00,0.74
6682.00,0.74
6681.00,0.75
6680.00,0.75
6679.00,0.75
6678.00,0.75
6677.00,0.75
6676.00,0.75
6675.00,0.75
6674.00,0.75
6673.00,0.76
6672.00,0.76
6671.00,0.76
6670.00,0.76
6669.00,0.76
6668.00,0.76
6667.00,0.76
6666.00,0.77
6665.00,0.77
6664.00,0.77
6663.00,0.77
6662.00,0.77
6661.00,0.77
6660.00,0.78
6659.00,0.78
6658.00,0.78
6657.00,0.78
6656.00,0.78
6655.00,0.78
6654.00,0.78
6653.00,0.79
6652.00,0.79
6651.00,0.79
6650.00,0.79
6649.00,0.79
6648.00,0.79
6647.00,0.79
6646.00,0.79
6645.00,0.79
6644.00,0.80
6643.00,0.80
6642.00,0.80
6641.00,0.80
6640.00,0.80
6639.00,0.80
6638.00,0.80
6637.00,0.80
6636.00,0.80
6635.00,0.81
6634.00,0.81
6633.00,0.81
6632.00,0.81
6631.00,0.81
6630.00,0.81
6629.00,0.81
6628.00,0.81
6627.00,0.82
6626.00,0.82
6625.00,0.82
6624.00,0.82
6623.00,0.82
6622.00,0.82
6621.00,0.83
6620.00,0.83
6619.00,0.83
6618.00,0.83
6617.00,0.83
6616.00,0.83
6615.00,0.84
6614.00,0.84
6613.00,0.84
6612.00,0.84
6611.00,0.84
6610.00,0.84
6609.00,0.85
6608.00,0.85
6607.00,0.85
6606.00,0.85
6605.00,0.85
6604.00,0.85
6603.00,0.85
6602.00,0.86
6601.00,0.86
6600.00,0.86
6599.00,0.86
6598.00,0.86
6597.00,0.86
6596.00,0.86
6595.00,0.87
6594.00,0.87
6593.00,0.87
6592.00,0.87
6591.00,0.87
6590.00,0.87
6589.00,0.87
6588.00,0.88
6587.00,0.88
6586.00,0.88
6585.00,0.88
6584.00,0.88
6583.00,0.88
6582.00,0.88
6581.00,0.88
6580.00,0.88
6579.00,0.88
6578.00,0.88
6577.00,0.89
6576.00,0.89
6575.00,0.89
6574.00,0.89
6573.00,0.89
6572.00,0.89
6571.00,0.89
6570.00,0.90
6569.00,0.90
6568.00,0.90
6567.00,0.90
6566.00,0.90
6565.00,0.90
6564.00,0.90
6563.00,0.91
6562.00,0.91
6561.00,0.91
6560.00,0.91
6559.00,0.91
6558.00,0.91
6557.00,0.92
6556.00,0.92
6555.00,0.92
6554.00,0.92
6553.00,0.92
6552.00,0.92
6551.00,0.92
6550.00,0.92
6549.00,0.92
6548.00,0.93
6547.00,0.93
6546.00,0.93
6545.00,0.93
6544.00,0.93
6543.00,0.93
6542.00,0.93
6541.00,0.93
6540.00,0.93
6539.00,0.94
6538.00,0.94
6537.00,0.94
6536.00,0.94
6535.00,0.94
6534.00,0.94
6533.00,0.94
6532.00,0.94
6531.00,0.94
6530.00,0.94
6529.00,0.95
6528.00,0.95
6527.00,0.95
6526.00,0.95
6525.00,0.95
6524.00,0.95
6523.00,0.95
6522.00,0.95
6521.00,0.95
6520.00,0.95
6519.00,0.95
6518.00,0.95
6517.00,0.95
6516.00,0.96
6515.00,0.96
6514.00,0.96
6513.00,0.96
6512.00,0.96
6511.00,0.96
6510.00,0.96
6509.00,0.96
6508.00,0.96
6507.00,0.96
6506.00,0.97
6505.00,0.97
6504.00,0.97
6503.00,0.97
6502.00,0.97
6501.00,0.97
6500.00,0.97
6499.00,0.97
6498.00,0.98
6497.00,0.98
6496.00,0.98
6495.00,0.98
6494.00,0.98
6493.00,0.99
6492.00,0.99
6491.00,0.99
6490.00,0.99
6489.00,0.99
6488.00,0.99
6487.00,1.00
6486.00,1.00
6485.00,1.00
6484.00,1.00
6483.00,1.00
6482.00,1.00
6481.00,1.00
6480.00,1.00
6479.00,1.00
6478.00,1.00
6477.00,1.00
6476.00,1.00
6475.00,1.00
6474.00,1.00
6473.00,1.00
6472.00,1.01
6471.00,1.01
6470.00,1.01
6469.00,1.01
6468.00,1.01
6467.00,1.01
6466.00,1.01
6465.00,1.01
6464.00,1.01
6463.00,1.01
6462.00,1.01
6461.00,1.02
6460.00,1.02
6459.00,1.02
6458.00,1.02
6457.00,1.02
6456.00,1.02
6455.00,1.02
6454.00,1.02
6453.00,1.03
6452.00,1.03
6451.00,1.03
6450.00,1.03
6449.00,1.03
6448.00,1.03
6447.00,1.03
6446.00,1.03
6445.00,1.04
6444.00,1.04
6443.00,1.04
6442.00,1.04
6441.00,1.04
6440.00,1.04
6439.00,1.04
6438.00,1.04
6437.00,1.05
6436.00,1.05
6435.00,1.05
6434.00,1.05
6433.00,1.05
6432.00,1.05
6431.00,1.05
6430.00,1.05
6429.00,1.05
6428.00,1.05
6427.00,1.05
6426.00,1.05
6425.00,1.05
6424.00,1.06
6423.00,1.06
6422.00,1.06
6421.00,1.06
6420.00,1.06
6419.00,1.06
6418.00,1.06
6417.00,1.06
6416.00,1.06
6415.00,1.06
6414.00,1.06
6413.00,1.06
6412.00,1.06
6411.00,1.06
6410.00,1.07
6409.00,1.07
6408.00,1.07
6407.00,1.07
6406.00,1.07
6405.00,1.07
6404.00,1.07
6403.00,1.07
6402.00,1.07
6401.00,1.07
6400.00,1.07
6399.00,1.08
6398.00,1.08
6397.00,1.08
6396.00,1.08
6395.00,1.08
6394.00,1.08
6393.00,1.08
6392.00,1.08
6391.00,1.08
6390.00,1.08
6389.00,1.09
6388.00,1.09
6387.00,1.09
6386.00,1.09
6385.00,1.09
6384.00,1.09
6383.00,1.09
6382.00,1.09
6381.00,1.09
6380.00,1.10
6379.00,1.10
6378.00,1.10
6377.00,1.10
6376.00,1.10
6375.00,1.10
6374.00,1.10
6373.00,1.10
6372.00,1.10
6371.00,1.10
6370.00,1.10
6369.00,1.11
6368.00,1.11
6367.00,1.11
6366.00,1.11
6365.00,1.11
6364.00,1.11
6363.00,1.11
6362.00,1.11
6361.00,1.12
6360.00,1.12
6359.00,1.12
6358.00,1.12
6357.00,1.12
6356.00,1.12
6355.00,1.12
6354.00,1.12
6353.00,1.12
6352.00,1.13
6351.00,1.13
6350.00,1.13
6349.00,1.13
6348.00,1.13
6347.00,1.13
6346.00,1.13
6345.00,1.13
6344.00,1.14
6343.00,1.14
6342.00,1.14
6341.00,1.14
6340.00,1.14
6339.00,1.14
6338.00,1.14
6337.00,1.14
6336.00,1.15
6335.00,1.15
6334.00,1.15
6333.00,1.15
6332.00,1.15
6331.00,1.15
6330.00,1.16
6329.00,1.16
6328.00,1.16
6327.00,1.16
6326.00,1.16
6325.00,1.16
6324.00,1.16
6323.00,1.17
6322.00,1.17
6321.00,1.17
6320.00,1.17
6319.00,1.17
6318.00,1.17
6317.00,1.18
6316.00,1.18
6315.00,1.18
6314.00,1.18
6313.00,1.18
6312.00,1.18
6311.00,1.18
6310.00,1.18
6309.00,1.18
6308.00,1.19
6307.00,1.19
6306.00,1.19
6305.00,1.19
6304.00,1.19
6303.00,1.19
6302.00,1.19
6301.00,1.20
6300.00,1.20
6299.00,1.20
6298.00,1.20
6297.00,1.20
6296.00,1.20
6295.00,1.21
6294.00,1.21
6293.00,1.21
6292.00,1.21
6291.00,1.21
6290.00,1.21
6289.00,1.21
6288.00,1.21
6287.00,1.22
6286.00,1.22
6285.00,1.22
6284.00,1.22
6283.00,1.22
6282.00,1.22
6281.00,1.22
6280.00,1.22
6279.00,1.23
6278.00,1.23
6277.00,1.23
6276.00,1.23
6275.00,1.23
6274.00,1.23
6273.00,1.24
6272.00,1.24
6271.00,1.24
6270.00,1.24
6269.00,1.24
6268.00,1.25
6267.00,1.25
6266.00,1.25
6265.00,1.25
6264.00,1.25
6263.00,1.26
6262.00,1.26
6261.00,1.26
6260.00,1.26
6259.00,1.26
6258.00,1.27
6257.00,1.27
6256.00,1.27
6255.00,1.27
6254.00,1.27
6253.00,1.27
6252.00,1.27
6251.00,1.28
6250.00,1.28
6249.00,1.28
6248.00,1.28
6247.00,1.28
6246.00,1.28
6245.00,1.28
6244.00,1.28
6243.00,1.28
6242.00,1.29
6241.00,1.29
6240.00,1.29
6239.00,1.29
6238.00,1.29
6237.00,1.29
6236.00,1.29
6235.00,1.29
6234.00,1.30
6233.00,1.30
6232.00,1.30
6231.00,1.30
6230.00,1.30
6229.00,1.30
6228.00,1.30
6227.00,1.30
6226.00,1.30
6225.00,1.31
6224.00,1.31
6223.00,1.31
6222.00,1.31
6221.00,1.31
6220.00,1.31
6219.00,1.31
6218.00,1.31
6217.00,1.31
6216.00,1.32
6215.00,1.32
6214.00,1.32
6213.00,1.32
6212.00,1.32
6211.00,1.33
6210.00,1.33
6209.00,1.33
6208.00,1.33
6207.00,1.33
6206.00,1.34
6205.00,1.34
6204.00,1.34
6203.00,1.34
6202.00,1.35
6201.00,1.35
6200.00,1.35
6199.00,1.35
6198.00,1.35
6197.00,1.35
6196.00,1.36
6195.00,1.36
6194.00,1.36
6193.00,1.36
6192.00,1.36
6191.00,1.36
6190.00,1.37
6189.00,1.37
6188.00,1.37
6187.00,1.37
6186.00,1.37
6185.00,1.37
6184.00,1.37
6183.00,1.38
6182.00,1.38
6181.00,1.38
6180.00,1.38
6179.00,1.38
6178.00,1.38
6177.00,1.38
6176.00,1.39
6175.00,1.39
6174.00,1.39
6173.00,1.39
6172.00,1.39
6171.00,1.39
6170.00,1.40
6169.00,1.40
6168.00,1.40
6167.00,1.40
6166.00,1.40
6165.00,1.40
6164.00,1.40
6163.00,1.41
6162.00,1.41
6161.00,1.41
6160.00,1.41
6159.00,1.41
6158.00,1.42
6157.00,1.42
6156.00,1.42
6155.00,1.42
6154.00,1.42
6153.00,1.43
6152.00,1.43
6151.00,1.43
6150.00,1.43
6149.00,1.43
6148.00,1.44
6147.00,1.44
6146.00,1.44
6145.00,1.44
6144.00,1.44
6143.00,1.44
6142.00,1.45
6141.00,1.45
6140.00,1.45
6139.00,1.45
6138.00,1.45
6137.00,1.45
6136.00,1.46
6135.00,1.46
6134.00,1.46
6133.00,1.46
6132.00,1.46
6131.00,1.46
6130.00,1.47
6129.00,1.47
6128.00,1.47
6127.00,1.47
6126.00,1.47
6125.00,1.47
6124.00,1.48
6123.00,1.48
6122.00,1.48
6121.00,1.48
6120.00,1.48
6119.00,1.49
6118.00,1.49
6117.00,1.49
6116.00,1.49
6115.00,1.49
6114.00,1.49
6113.00,1.50
6112.00,1.50
6111.00,1.50
6110.00,1.50
6109.00,1.50
6108.00,1.50
6107.00,1.50
6106.00,1.51
6105.00,1.51
6104.00,1.51
6103.00,1.51
6102.00,1.51
6101.00,1.51
6100.00,1.51
6099.00,1.52
6098.00,1.52
6097.00,1.52
6096.00,1.52
6095.00,1.52
6094.00,1.52
6093.00,1.52
6092.00,1.53
6091.00,1.53
6090.00,1.53
6089.00,1.53
6088.00,1.53
6087.00,1.53
6086.00,1.53
6085.00,1.53
6084.00,1.54
6083.00,1.54
6082.00,1.54
6081.00,1.54
6080.00,1.54
6079.00,1.54
6078.00,1.55
6077.00,1.55
6076.00,1.55
6075.00,1.55
6074.00,1.55
6073.00,1.56
6072.00,1.56
6071.00,1.56
6070.00,1.56
6069.00,1.56
6068.00,1.56
6067.00,1.57
6066.00,1.57
6065.00,1.57
6064.00,1.57
6063.00,1.57
6062.00,1.57
6061.00,1.57
6060.00,1.57
6059.00,1.57
6058.00,1.57
6057.00,1.57
6056.00,1.58
6055.00,1.58
6054.00,1.58
6053.00,1.58
6052.00,1.58
6051.00,1.58
6050.00,1.58
6049.00,1.58
6048.00,1.58
6047.00,1.58
6046.00,1.58
6045.00,1.58
6044.00,1.58
6043.00,1.59
6042.00,1.59
6041.00,1.59
6040.00,1.59
6039.00,1.59
6038.00,1.59
6037.00,1.59
6036.00,1.59
6035.00,1.59
6034.00,1.59
6033.00,1.59
6032.00,1.59
6031.00,1.59
6030.00,1.60
6029.00,1.60
6028.00,1.60
6027.00,1.60
6026.00,1.60
6025.00,1.60
6024.00,1.60
6023.00,1.60
6022.00,1.60
6021.00,1.60
6020.00,1.60
6019.00,1.60
6018.00,1.60
6017.00,1.60
6016.00,1.60
6015.00,1.60
6014.00,1.60
6013.00,1.60
6012.00,1.60
6011.00,1.60
6010.00,1.60
6009.00,1.60
6008.00,1.60
6007.00,1.60
6006.00,1.60
6005.00,1.59
6004.00,1.59
6003.00,1.59
6002.00,1.59
6001.00,1.59
6000.00,1.59
5999.00,1.59
5998.00,1.59
5997.00,1.59
5996.00,1.59
5995.00,1.59
5994.00,1.59
5993.00,1.59
5992.00,1.58
5991.00,1.58
5990.00,1.58
5989.00,1.58
5988.00,1.58
5987.00,1.58
5986.00,1.57
5985.00,1.57
5984.00,1.57
5983.00,1.56
5982.00,1.56
5981.00,1.56
5980.00,1.55
5979.00,1.55
5978.00,1.54
5977.00,1.54
5976.00,1.53
5975.00,1.53
5974.00,1.52
5973.00,1.52
5972.00,1.51
5971.00,1.50
5970.00,1.50
5969.00,1.49
5968.00,1.49
5967.00,1.48
5966.00,1.47
5965.00,1.47
5964.00,1.46
5963.00,1.45
5962.00,1.44
5961.00,1.44
5960.00,1.43
5959.00,1.42
5958.00,1.42
5957.00,1.41
5956.00,1.41
5955.00,1.40
5954.00,1.39
5953.00,1.39
5952.00,1.38
5951.00,1.38
5950.00,1.37
5949.00,1.37
5948.00,1.36
5947.00,1.36
5946.00,1.36
5945.00,1.35
5944.00,1.35
5943.00,1.35
5942.00,1.35
5941.00,1.34
5940.00,1.34
5939.00,1.34
5938.00,1.34
5937.00,1.34
5936.00,1.34
5935.00,1.34
5934.00,1.33
5933.00,1.33
5932.00,1.33
5931.00,1.33
5930.00,1.33
5929.00,1.33
5928.00,1.33
5927.00,1.32
5926.00,1.32
5925.00,1.32
5924.00,1.32
5923.00,1.31
5922.00,1.31
5921.00,1.31
5920.00,1.31
5919.00,1.30
5918.00,1.30
5917.00,1.30
5916.00,1.30
5915.00,1.29
5914.00,1.29
5913.00,1.29
5912.00,1.29
5911.00,1.28
5910.00,1.28
5909.00,1.28
5908.00,1.28
5907.00,1.28
5906.00,1.28
5905.00,1.28
5904.00,1.27
5903.00,1.27
5902.00,1.27
5901.00,1.28
5900.00,1.28
5899.00,1.28
5898.00,1.28
5897.00,1.28
5896.00,1.28
5895.00,1.28
5894.00,1.29
5893.00,1.29
5892.00,1.29
5891.00,1.29
5890.00,1.30
5889.00,1.30
5888.00,1.30
5887.00,1.31
5886.00,1.31
5885.00,1.31
5884.00,1.32
5883.00,1.32
5882.00,1.32
5881.00,1.33
5880.00,1.33
5879.00,1.33
5878.00,1.34
5877.00,1.34
5876.00,1.34
5875.00,1.34
5874.00,1.35
5873.00,1.35
5872.00,1.35
5871.00,1.35
5870.00,1.36
5869.00,1.36
5868.00,1.36
5867.00,1.36
5866.00,1.36
5865.00,1.37
5864.00,1.37
5863.00,1.37
5862.00,1.37
5861.00,1.37
5860.00,1.37
5859.00,1.38
5858.00,1.38
5857.00,1.38
5856.00,1.38
5855.00,1.38
5854.00,1.38
5853.00,1.38
5852.00,1.38
5851.00,1.39
5850.00,1.39
5849.00,1.39
5848.00,1.39
5847.00,1.39
5846.00,1.39
5845.00,1.39
5844.00,1.39
5843.00,1.39
5842.00,1.39
5841.00,1.39
5840.00,1.39
5839.00,1.39
5838.00,1.39
5837.00,1.39
5836.00,1.39
5835.00,1.39
5834.00,1.39
5833.00,1.39
5832.00,1.38
5831.00,1.38
5830.00,1.38
5829.00,1.38
5828.00,1.38
5827.00,1.38
5826.00,1.38
5825.00,1.38
5824.00,1.38
5823.00,1.38
5822.00,1.38
5821.00,1.38
5820.00,1.38
5819.00,1.38
5818.00,1.38
5817.00,1.38
5816.00,1.38
5815.00,1.38
5814.00,1.38
5813.00,1.38
5812.00,1.38
5811.00,1.38
5810.00,1.38
5809.00,1.38
5808.00,1.38
5807.00,1.38
5806.00,1.38
5805.00,1.38
5804.00,1.38
5803.00,1.38
5802.00,1.37
5801.00,1.37
5800.00,1.37
5799.00,1.37
5798.00,1.37
5797.00,1.36
5796.00,1.36
5795.00,1.36
5794.00,1.36
5793.00,1.35
5792.00,1.35
5791.00,1.35
5790.00,1.35
5789.00,1.35
5788.00,1.34
5787.00,1.34
5786.00,1.34
5785.00,1.34
5784.00,1.34
5783.00,1.34
5782.00,1.33
5781.00,1.33
5780.00,1.33
5779.00,1.33
5778.00,1.33
5777.00,1.33
5776.00,1.33
5775.00,1.33
5774.00,1.33
5773.00,1.33
5772.00,1.33
5771.00,1.33
5770.00,1.33
5769.00,1.33
5768.00,1.33
5767.00,1.33
5766.00,1.34
5765.00,1.34
5764.00,1.34
5763.00,1.34
5762.00,1.35
5761.00,1.35
5760.00,1.35
5759.00,1.35
5758.00,1.36
5757.00,1.36
5756.00,1.36
5755.00,1.37
5754.00,1.37
5753.00,1.37
5752.00,1.38
5751.00,1.38
5750.00,1.38
5749.00,1.38
5748.00,1.39
5747.00,1.39
5746.00,1.39
5745.00,1.40
5744.00,1.40
5743.00,1.40
5742.00,1.40
5741.00,1.41
5740.00,1.41
5739.00,1.41
5738.00,1.41
5737.00,1.41
5736.00,1.42
5735.00,1.42
5734.00,1.42
5733.00,1.42
5732.00,1.42
5731.00,1.42
5730.00,1.42
5729.00,1.42
5728.00,1.42
5727.00,1.42
5726.00,1.42
5725.00,1.43
5724.00,1.43
5723.00,1.43
5722.00,1.43
5721.00,1.43
5720.00,1.43
5719.00,1.43
5718.00,1.43
5717.00,1.43
5716.00,1.42
5715.00,1.42
5714.00,1.42
5713.00,1.42
5712.00,1.42
5711.00,1.42
5710.00,1.42
5709.00,1.42
5708.00,1.42
5707.00,1.42
5706.00,1.42
5705.00,1.41
5704.00,1.41
5703.00,1.41
5702.00,1.41
5701.00,1.41
5700.00,1.41
5699.00,1.41
5698.00,1.40
5697.00,1.40
5696.00,1.40
5695.00,1.40
5694.00,1.40
5693.00,1.39
5692.00,1.39
5691.00,1.39
5690.00,1.39
5689.00,1.39
5688.00,1.38
5687.00,1.38
5686.00,1.38
5685.00,1.38
5684.00,1.38
5683.00,1.38
5682.00,1.38
5681.00,1.38
5680.00,1.38
5679.00,1.37
5678.00,1.37
5677.00,1.37
5676.00,1.37
5675.00,1.37
5674.00,1.37
5673.00,1.38
5672.00,1.38
5671.00,1.38
5670.00,1.38
5669.00,1.38
5668.00,1.38
5667.00,1.38
5666.00,1.38
5665.00,1.38
5664.00,1.38
5663.00,1.38
5662.00,1.38
5661.00,1.38
5660.00,1.38
5659.00,1.38
5658.00,1.38
5657.00,1.38
5656.00,1.38
5655.00,1.39
5654.00,1.39
5653.00,1.39
5652.00,1.39
5651.00,1.39
5650.00,1.39
5649.00,1.39
5648.00,1.40
5647.00,1.40
5646.00,1.40
5645.00,1.40
5644.00,1.40
5643.00,1.40
5642.00,1.41
5641.00,1.41
5640.00,1.41
5639.00,1.41
5638.00,1.41
5637.00,1.41
5636.00,1.42
5635.00,1.42
5634.00,1.42
5633.00,1.42
5632.00,1.42
5631.00,1.42
5630.00,1.42
5629.00,1.43
5628.00,1.43
5627.00,1.43
5626.00,1.43
5625.00,1.43
5624.00,1.44
5623.00,1.44
5622.00,1.44
5621.00,1.44
5620.00,1.44
5619.00,1.44
5618.00,1.45
5617.00,1.45
5616.00,1.45
5615.00,1.45
5614.00,1.45
5613.00,1.45
5612.00,1.45
5611.00,1.46
5610.00,1.46
5609.00,1.46
5608.00,1.46
5607.00,1.46
5606.00,1.46
5605.00,1.46
5604.00,1.47
5603.00,1.47
5602.00,1.47
5601.00,1.47
5600.00,1.47
5599.00,1.47
5598.00,1.48
5597.00,1.48
5596.00,1.48
5595.00,1.48
5594.00,1.48
5593.00,1.48
5592.00,1.49
5591.00,1.49
5590.00,1.49
5589.00,1.49
5588.00,1.49
5587.00,1.49
5586.00,1.49
5585.00,1.50
5584.00,1.50
5583.00,1.50
5582.00,1.50
5581.00,1.50
5580.00,1.50
5579.00,1.50
5578.00,1.51
5577.00,1.51
5576.00,1.51
5575.00,1.51
5574.00,1.51
5573.00,1.51
5572.00,1.51
5571.00,1.52
5570.00,1.52
5569.00,1.52
5568.00,1.52
5567.00,1.52
5566.00,1.52
5565.00,1.53
5564.00,1.53
5563.00,1.53
5562.00,1.53
5561.00,1.53
5560.00,1.53
5559.00,1.54
5558.00,1.54
5557.00,1.54
5556.00,1.54
5555.00,1.54
5554.00,1.55
5553.00,1.55
5552.00,1.55
5551.00,1.55
5550.00,1.55
5549.00,1.55
5548.00,1.55
5547.00,1.56
5546.00,1.56
5545.00,1.56
5544.00,1.56
5543.00,1.56
5542.00,1.56
5541.00,1.56
5540.00,1.56
5539.00,1.57
5538.00,1.57
5537.00,1.57
5536.00,1.57
5535.00,1.57
5534.00,1.57
5533.00,1.57
5532.00,1.58
5531.00,1.58
5530.00,1.58
5529.00,1.58
5528.00,1.58
5527.00,1.58
5526.00,1.58
5525.00,1.58
5524.00,1.58
5523.00,1.58
5522.00,1.58
5521.00,1.58
5520.00,1.58
5519.00,1.58
5518.00,1.58
5517.00,1.58
5516.00,1.59
5515.00,1.59
5514.00,1.59
5513.00,1.59
5512.00,1.59
5511.00,1.59
5510.00,1.59
5509.00,1.59
5508.00,1.59
5507.00,1.59
5506.00,1.59
5505.00,1.59
5504.00,1.59
5503.00,1.59
5502.00,1.59
5501.00,1.60
5500.00,1.60
5499.00,1.60
5498.00,1.60
5497.00,1.60
5496.00,1.60
5495.00,1.60
5494.00,1.60
5493.00,1.61
5492.00,1.61
5491.00,1.61
5490.00,1.61
5489.00,1.61
5488.00,1.61
5487.00,1.61
5486.00,1.62
5485.00,1.62
5484.00,1.62
5483.00,1.62
5482.00,1.62
5481.00,1.62
5480.00,1.62
5479.00,1.62
5478.00,1.62
5477.00,1.63
5476.00,1.63
5475.00,1.63
5474.00,1.63
5473.00,1.63
5472.00,1.63
5471.00,1.63
5470.00,1.63
5469.00,1.63
5468.00,1.63
5467.00,1.63
5466.00,1.64
5465.00,1.64
5464.00,1.64
5463.00,1.64
5462.00,1.64
5461.00,1.64
5460.00,1.64
5459.00,1.64
5458.00,1.64
5457.00,1.64
5456.00,1.64
5455.00,1.65
5454.00,1.65
5453.00,1.65
5452.00,1.65
5451.00,1.65
5450.00,1.65
5449.00,1.65
5448.00,1.65
5447.00,1.65
5446.00,1.65
5445.00,1.65
5444.00,1.65
5443.00,1.65
5442.00,1.65
5441.00,1.65
5440.00,1.65
5439.00,1.65
5438.00,1.65
5437.00,1.65
5436.00,1.65
5435.00,1.65
5434.00,1.65
5433.00,1.65
5432.00,1.65
5431.00,1.65
5430.00,1.65
5429.00,1.65
5428.00,1.65
5427.00,1.65
5426.00,1.65
5425.00,1.65
5424.00,1.65
5423.00,1.65
5422.00,1.65
5421.00,1.65
5420.00,1.65
5419.00,1.65
5418.00,1.65
5417.00,1.65
5416.00,1.65
5415.00,1.65
5414.00,1.65
5413.00,1.65
5412.00,1.65
5411.00,1.65
5410.00,1.65
5409.00,1.65
5408.00,1.65
5407.00,1.65
5406.00,1.64
5405.00,1.64
5404.00,1.64
5403.00,1.64
5402.00,1.64
5401.00,1.64
5400.00,1.64
5399.00,1.63
5398.00,1.63
5397.00,1.63
5396.00,1.63
5395.00,1.62
5394.00,1.62
5393.00,1.62
5392.00,1.62
5391.00,1.61
5390.00,1.61
5389.00,1.61
5388.00,1.60
5387.00,1.60
5386.00,1.60
5385.00,1.59
5384.00,1.59
5383.00,1.59
5382.00,1.58
5381.00,1.58
5380.00,1.57
5379.00,1.57
5378.00,1.56
5377.00,1.56
5376.00,1.55
5375.00,1.55
5374.00,1.54
5373.00,1.54
5372.00,1.53
5371.00,1.52
5370.00,1.52
5369.00,1.51
5368.00,1.50
5367.00,1.50
5366.00,1.49
5365.00,1.48
5364.00,1.47
5363.00,1.47
5362.00,1.46
5361.00,1.45
5360.00,1.44
5359.00,1.43
5358.00,1.42
5357.00,1.41
5356.00,1.40
5355.00,1.39
5354.00,1.38
5353.00,1.37
5352.00,1.36
5351.00,1.35
5350.00,1.34
5349.00,1.33
5348.00,1.32
5347.00,1.31
5346.00,1.30
5345.00,1.28
5344.00,1.27
5343.00,1.26
5342.00,1.25
5341.00,1.24
5340.00,1.22
5339.00,1.21
5338.00,1.20
5337.00,1.19
5336.00,1.17
5335.00,1.16
5334.00,1.15
5333.00,1.13
5332.00,1.12
5331.00,1.11
5330.00,1.10
5329.00,1.08
5328.00,1.07
5327.00,1.06
5326.00,1.05
5325.00,1.03
5324.00,1.02
5323.00,1.01
5322.00,0.99
5321.00,0.98
5320.00,0.97
5319.00,0.96
5318.00,0.95
5317.00,0.93
5316.00,0.92
5315.00,0.91
5314.00,0.90
5313.00,0.89
5312.00,0.88
5311.00,0.87
5310.00,0.86
5309.00,0.85
5308.00,0.84
5307.00,0.83
5306.00,0.82
5305.00,0.82
5304.00,0.81
5303.00,0.80
5302.00,0.80
5301.00,0.79
5300.00,0.78
5299.00,0.78
5298.00,0.77
5297.00,0.77
5296.00,0.76
5295.00,0.76
5294.00,0.75
5293.00,0.75
5292.00,0.75
5291.00,0.74
5290.00,0.74
5289.00,0.74
5288.00,0.73
5287.00,0.73
5286.00,0.73
5285.00,0.72
5284.00,0.72
5283.00,0.72
5282.00,0.72
5281.00,0.72
5280.00,0.71
5279.00,0.71
5278.00,0.71
5277.00,0.71
5276.00,0.71
5275.00,0.71
5274.00,0.70
5273.00,0.70
5272.00,0.70
5271.00,0.70
5270.00,0.70
5269.00,0.70
5268.00,0.70
5267.00,0.70
5266.00,0.70
5265.00,0.70
5264.00,0.70
5263.00,0.69
5262.00,0.69
5261.00,0.69
5260.00,0.69
5259.00,0.69
5258.00,0.69
5257.00,0.69
5256.00,0.69
5255.00,0.69
5254.00,0.69
5253.00,0.69
5252.00,0.69
5251.00,0.69
5250.00,0.69
5249.00,0.69
5248.00,0.69
5247.00,0.69
5246.00,0.69
5245.00,0.69
5244.00,0.69
5243.00,0.69
5242.00,0.69
5241.00,0.69
5240.00,0.69
5239.00,0.69
5238.00,0.69
5237.00,0.69
5236.00,0.70
5235.00,0.70
5234.00,0.70
5233.00,0.70
5232.00,0.70
5231.00,0.70
5230.00,0.70
5229.00,0.70
5228.00,0.70
5227.00,0.70
5226.00,0.70
5225.00,0.70
5224.00,0.70
5223.00,0.70
5222.00,0.70
5221.00,0.70
5220.00,0.70
5219.00,0.70
5218.00,0.70
5217.00,0.70
5216.00,0.70
5215.00,0.70
5214.00,0.70
5213.00,0.70
5212.00,0.70
5211.00,0.70
5210.00,0.70
5209.00,0.70
5208.00,0.70
5207.00,0.70
5206.00,0.70
5205.00,0.70
5204.00,0.70
5203.00,0.71
5202.00,0.71
5201.00,0.71
5200.00,0.71
5199.00,0.71
5198.00,0.71
5197.00,0.71
5196.00,0.71
5195.00,0.71
5194.00,0.71
5193.00,0.71
5192.00,0.71
5191.00,0.71
5190.00,0.71
5189.00,0.71
5188.00,0.71
5187.00,0.71
5186.00,0.71
5185.00,0.71
5184.00,0.71
5183.00,0.71
5182.00,0.71
5181.00,0.71
5180.00,0.71
5179.00,0.71
5178.00,0.71
5177.00,0.71
5176.00,0.71
5175.00,0.71
5174.00,0.71
5173.00,0.72
5172.00,0.72
5171.00,0.72
5170.00,0.72
5169.00,0.72
5168.00,0.72
5167.00,0.72
5166.00,0.72
5165.00,0.72
5164.00,0.72
5163.00,0.72
5162.00,0.72
5161.00,0.72
5160.00,0.72
5159.00,0.72
5158.00,0.72
5157.00,0.73
5156.00,0.73
5155.00,0.73
5154.00,0.73
5153.00,0.73
5152.00,0.73
5151.00,0.73
5150.00,0.73
5149.00,0.73
5148.00,0.73
5147.00,0.73
5146.00,0.74
5145.00,0.74
5144.00,0.74
5143.00,0.74
5142.00,0.74
5141.00,0.74
5140.00,0.74
5139.00,0.74
5138.00,0.74
5137.00,0.74
5136.00,0.74
5135.00,0.74
5134.00,0.74
5133.00,0.74
5132.00,0.75
5131.00,0.75
5130.00,0.75
5129.00,0.75
5128.00,0.75
5127.00,0.75
5126.00,0.75
5125.00,0.75
5124.00,0.75
5123.00,0.75
5122.00,0.75
5121.00,0.75
5120.00,0.75
5119.00,0.75
5118.00,0.75
5117.00,0.75
5116.00,0.75
5115.00,0.75
5114.00,0.75
5113.00,0.75
5112.00,0.75
5111.00,0.76
5110.00,0.76
5109.00,0.76
5108.00,0.76
5107.00,0.76
5106.00,0.76
5105.00,0.76
5104.00,0.76
5103.00,0.76
5102.00,0.76
5101.00,0.77
5100.00,0.77
5099.00,0.77
5098.00,0.77
5097.00,0.77
5096.00,0.77
5095.00,0.77
5094.00,0.77
5093.00,0.77
5092.00,0.77
5091.00,0.77
5090.00,0.77
5089.00,0.78
5088.00,0.78
5087.00,0.78
5086.00,0.78
5085.00,0.78
5084.00,0.78
5083.00,0.78
5082.00,0.78
5081.00,0.78
5080.00,0.78
5079.00,0.78
5078.00,0.78
5077.00,0.78
5076.00,0.79
5075.00,0.79
5074.00,0.79
5073.00,0.79
5072.00,0.79
5071.00,0.79
5070.00,0.79
5069.00,0.79
5068.00,0.79
5067.00,0.79
5066.00,0.79
5065.00,0.79
5064.00,0.79
5063.00,0.79
5062.00,0.79
5061.00,0.79
5060.00,0.79
5059.00,0.79
5058.00,0.80
5057.00,0.80
5056.00,0.80
5055.00,0.80
5054.00,0.80
5053.00,0.80
5052.00,0.80
5051.00,0.80
5050.00,0.80
5049.00,0.80
5048.00,0.80
5047.00,0.80
5046.00,0.80
5045.00,0.80
5044.00,0.81
5043.00,0.81
5042.00,0.81
5041.00,0.81
5040.00,0.81
5039.00,0.81
5038.00,0.81
5037.00,0.81
5036.00,0.81
5035.00,0.81
5034.00,0.81
5033.00,0.82
5032.00,0.82
5031.00,0.82
5030.00,0.82
5029.00,0.82
5028.00,0.82
5027.00,0.82
5026.00,0.82
5025.00,0.82
5024.00,0.82
5023.00,0.83
5022.00,0.83
5021.00,0.83
5020.00,0.83
5019.00,0.83
5018.00,0.83
5017.00,0.83
5016.00,0.84
5015.00,0.84
5014.00,0.84
5013.00,0.84
5012.00,0.84
5011.00,0.84
5010.00,0.84
5009.00,0.85
5008.00,0.85
5007.00,0.85
5006.00,0.85
5005.00,0.85
5004.00,0.85
5003.00,0.85
5002.00,0.85
5001.00,0.85
5000.00,0.85
4999.00,0.85
4998.00,0.85
4997.00,0.85
4996.00,0.86
4995.00,0.86
4994.00,0.86
4993.00,0.86
4992.00,0.86
4991.00,0.86
4990.00,0.86
4989.00,0.86
4988.00,0.86
4987.00,0.86
4986.00,0.87
4985.00,0.87
4984.00,0.87
4983.00,0.87
4982.00,0.87
4981.00,0.87
4980.00,0.87
4979.00,0.87
4978.00,0.87
4977.00,0.88
4976.00,0.88
4975.00,0.88
4974.00,0.88
4973.00,0.88
4972.00,0.88
4971.00,0.88
4970.00,0.88
4969.00,0.88
4968.00,0.88
4967.00,0.88
4966.00,0.89
4965.00,0.89
4964.00,0.89
4963.00,0.89
4962.00,0.89
4961.00,0.89
4960.00,0.89
4959.00,0.90
4958.00,0.90
4957.00,0.90
4956.00,0.90
4955.00,0.90
4954.00,0.90
4953.00,0.90
4952.00,0.90
4951.00,0.90
4950.00,0.91
4949.00,0.91
4948.00,0.91
4947.00,0.91
4946.00,0.91
4945.00,0.91
4944.00,0.91
4943.00,0.91
4942.00,0.91
4941.00,0.92
4940.00,0.92
4939.00,0.92
4938.00,0.92
4937.00,0.92
4936.00,0.92
4935.00,0.92
4934.00,0.93
4933.00,0.93
4932.00,0.93
4931.00,0.93
4930.00,0.93
4929.00,0.93
4928.00,0.93
4927.00,0.94
4926.00,0.94
4925.00,0.94
4924.00,0.94
4923.00,0.94
4922.00,0.94
4921.00,0.94
4920.00,0.94
4919.00,0.94
4918.00,0.95
4917.00,0.95
4916.00,0.95
4915.00,0.95
4914.00,0.95
4913.00,0.95
4912.00,0.95
4911.00,0.95
4910.00,0.95
4909.00,0.95
4908.00,0.95
4907.00,0.95
4906.00,0.95
4905.00,0.95
4904.00,0.95
4903.00,0.95
4902.00,0.95
4901.00,0.95
4900.00,0.95
4899.00,0.96
4898.00,0.96
4897.00,0.96
4896.00,0.96
4895.00,0.96
4894.00,0.96
4893.00,0.96
4892.00,0.96
4891.00,0.97
4890.00,0.97
4889.00,0.97
4888.00,0.97
4887.00,0.97
4886.00,0.97
4885.00,0.97
4884.00,0.97
4883.00,0.97
4882.00,0.97
4881.00,0.98
4880.00,0.98
4879.00,0.98
4878.00,0.98
4877.00,0.98
4876.00,0.98
4875.00,0.98
4874.00,0.98
4873.00,0.98
4872.00,0.98
4871.00,0.98
4870.00,0.98
4869.00,0.98
4868.00,0.98
4867.00,0.98
4866.00,0.98
4865.00,0.98
4864.00,0.99
4863.00,0.99
4862.00,0.99
4861.00,0.99
4860.00,0.99
4859.00,0.99
4858.00,0.99
4857.00,1.00
4856.00,1.00
4855.00,1.00
4854.00,1.00
4853.00,1.00
4852.00,1.00
4851.00,1.01
4850.00,1.01
4849.00,1.01
4848.00,1.01
4847.00,1.01
4846.00,1.01
4845.00,1.02
4844.00,1.02
4843.00,1.02
4842.00,1.02
4841.00,1.02
4840.00,1.02
4839.00,1.02
4838.00,1.02
4837.00,1.02
4836.00,1.02
4835.00,1.03
4834.00,1.03
4833.00,1.03
4832.00,1.03
4831.00,1.03
4830.00,1.03
4829.00,1.03
4828.00,1.03
4827.00,1.03
4826.00,1.03
4825.00,1.04
4824.00,1.04
4823.00,1.04
4822.00,1.04
4821.00,1.04
4820.00,1.04
4819.00,1.05
4818.00,1.05
4817.00,1.05
4816.00,1.05
4815.00,1.05
4814.00,1.06
4813.00,1.06
4812.00,1.06
4811.00,1.06
4810.00,1.06
4809.00,1.07
4808.00,1.07
4807.00,1.07
4806.00,1.07
4805.00,1.08
4804.00,1.08
4803.00,1.08
4802.00,1.08
4801.00,1.08
4800.00,1.08
4799.00,1.09
4798.00,1.09
4797.00,1.09
4796.00,1.09
4795.00,1.09
4794.00,1.09
4793.00,1.09
4792.00,1.09
4791.00,1.09
4790.00,1.09
4789.00,1.10
4788.00,1.10
4787.00,1.10
4786.00,1.10
4785.00,1.10
4784.00,1.10
4783.00,1.10
4782.00,1.11
4781.00,1.11
4780.00,1.11
4779.00,1.11
4778.00,1.11
4777.00,1.11
4776.00,1.12
4775.00,1.12
4774.00,1.12
4773.00,1.12
4772.00,1.12
4771.00,1.13
4770.00,1.13
4769.00,1.13
4768.00,1.13
4767.00,1.13
4766.00,1.14
4765.00,1.14
4764.00,1.14
4763.00,1.14
4762.00,1.15
4761.00,1.15
4760.00,1.15
4759.00,1.15
4758.00,1.16
4757.00,1.16
4756.00,1.16
4755.00,1.16
4754.00,1.16
4753.00,1.17
4752.00,1.17
4751.00,1.17
4750.00,1.17
4749.00,1.17
4748.00,1.17
4747.00,1.18
4746.00,1.18
4745.00,1.18
4744.00,1.18
4743.00,1.18
4742.00,1.19
4741.00,1.19
4740.00,1.19
4739.00,1.19
4738.00,1.19
4737.00,1.20
4736.00,1.20
4735.00,1.20
4734.00,1.20
4733.00,1.21
4732.00,1.21
4731.00,1.21
4730.00,1.21
4729.00,1.22
4728.00,1.22
4727.00,1.22
4726.00,1.22
4725.00,1.23
4724.00,1.23
4723.00,1.23
4722.00,1.23
4721.00,1.24
4720.00,1.24
4719.00,1.24
4718.00,1.25
4717.00,1.25
4716.00,1.25
4715.00,1.25
4714.00,1.26
4713.00,1.26
4712.00,1.26
4711.00,1.27
4710.00,1.27
4709.00,1.27
4708.00,1.27
4707.00,1.28
4706.00,1.28
4705.00,1.28
4704.00,1.28
4703.00,1.28
4702.00,1.29
4701.00,1.29
4700.00,1.29
4699.00,1.29
4698.00,1.29
4697.00,1.30
4696.00,1.30
4695.00,1.30
4694.00,1.30
4693.00,1.30
4692.00,1.31
4691.00,1.31
4690.00,1.31
4689.00,1.31
4688.00,1.31
4687.00,1.32
4686.00,1.32
4685.00,1.32
4684.00,1.32
4683.00,1.33
4682.00,1.33
4681.00,1.33
4680.00,1.33
4679.00,1.33
4678.00,1.34
4677.00,1.34
4676.00,1.34
4675.00,1.34
4674.00,1.35
4673.00,1.35
4672.00,1.35
4671.00,1.35
4670.00,1.35
4669.00,1.35
4668.00,1.36
4667.00,1.36
4666.00,1.36
4665.00,1.36
4664.00,1.36
4663.00,1.36
4662.00,1.36
4661.00,1.37
4660.00,1.37
4659.00,1.37
4658.00,1.37
4657.00,1.37
4656.00,1.38
4655.00,1.38
4654.00,1.38
4653.00,1.38
4652.00,1.38
4651.00,1.39
4650.00,1.39
4649.00,1.39
4648.00,1.39
4647.00,1.40
4646.00,1.40
4645.00,1.40
4644.00,1.40
4643.00,1.40
4642.00,1.40
4641.00,1.41
4640.00,1.41
4639.00,1.41
4638.00,1.41
4637.00,1.41
4636.00,1.41
4635.00,1.41
4634.00,1.42
4633.00,1.42
4632.00,1.42
4631.00,1.42
4630.00,1.42
4629.00,1.42
4628.00,1.42
4627.00,1.43
4626.00,1.43
4625.00,1.43
4624.00,1.43
4623.00,1.43
4622.00,1.43
4621.00,1.44
4620.00,1.44
4619.00,1.44
4618.00,1.44
4617.00,1.44
4616.00,1.44
4615.00,1.44
4614.00,1.45
4613.00,1.45
4612.00,1.45
4611.00,1.45
4610.00,1.45
4609.00,1.45
4608.00,1.45
4607.00,1.45
4606.00,1.45
4605.00,1.45
4604.00,1.45
4603.00,1.46
4602.00,1.46
4601.00,1.46
4600.00,1.46
4599.00,1.46
4598.00,1.46
4597.00,1.46
4596.00,1.46
4595.00,1.47
4594.00,1.47
4593.00,1.47
4592.00,1.47
4591.00,1.47
4590.00,1.47
4589.00,1.47
4588.00,1.48
4587.00,1.48
4586.00,1.48
4585.00,1.48
4584.00,1.48
4583.00,1.48
4582.00,1.49
4581.00,1.49
4580.00,1.49
4579.00,1.49
4578.00,1.49
4577.00,1.49
4576.00,1.49
4575.00,1.50
4574.00,1.50
4573.00,1.50
4572.00,1.50
4571.00,1.50
4570.00,1.50
4569.00,1.50
4568.00,1.50
4567.00,1.51
4566.00,1.51
4565.00,1.51
4564.00,1.51
4563.00,1.51
4562.00,1.51
4561.00,1.51
4560.00,1.51
4559.00,1.51
4558.00,1.51
4557.00,1.52
4556.00,1.52
4555.00,1.52
4554.00,1.52
4553.00,1.52
4552.00,1.52
4551.00,1.52
4550.00,1.52
4549.00,1.52
4548.00,1.52
4547.00,1.52
4546.00,1.53
4545.00,1.53
4544.00,1.53
4543.00,1.53
4542.00,1.53
4541.00,1.53
4540.00,1.53
4539.00,1.53
4538.00,1.53
4537.00,1.53
4536.00,1.53
4535.00,1.53
4534.00,1.54
4533.00,1.54
4532.00,1.54
4531.00,1.54
4530.00,1.54
4529.00,1.54
4528.00,1.54
4527.00,1.54
4526.00,1.54
4525.00,1.54
4524.00,1.54
4523.00,1.54
4522.00,1.54
4521.00,1.54
4520.00,1.54
4519.00,1.54
4518.00,1.54
4517.00,1.54
4516.00,1.54
4515.00,1.54
4514.00,1.54
4513.00,1.54
4512.00,1.54
4511.00,1.55
4510.00,1.55
4509.00,1.55
4508.00,1.55
4507.00,1.55
4506.00,1.55
4505.00,1.55
4504.00,1.55
4503.00,1.55
4502.00,1.55
4501.00,1.55
4500.00,1.55
4499.00,1.55
4498.00,1.55
4497.00,1.55
4496.00,1.55
4495.00,1.55
4494.00,1.55
4493.00,1.55
4492.00,1.55
4491.00,1.55
4490.00,1.54
4489.00,1.54
4488.00,1.54
4487.00,1.54
4486.00,1.54
4485.00,1.54
4484.00,1.54
4483.00,1.53
4482.00,1.53
4481.00,1.53
4480.00,1.53
4479.00,1.53
4478.00,1.53
4477.00,1.52
4476.00,1.52
4475.00,1.52
4474.00,1.52
4473.00,1.51
4472.00,1.51
4471.00,1.51
4470.00,1.51
4469.00,1.50
4468.00,1.50
4467.00,1.50
4466.00,1.49
4465.00,1.49
4464.00,1.48
4463.00,1.48
4462.00,1.48
4461.00,1.47
4460.00,1.47
4459.00,1.46
4458.00,1.46
4457.00,1.45
4456.00,1.45
4455.00,1.44
4454.00,1.44
4453.00,1.43
4452.00,1.43
4451.00,1.42
4450.00,1.42
4449.00,1.41
4448.00,1.40
4447.00,1.40
4446.00,1.39
4445.00,1.39
4444.00,1.38
4443.00,1.38
4442.00,1.37
4441.00,1.36
4440.00,1.36
4439.00,1.35
4438.00,1.35
4437.00,1.34
4436.00,1.34
4435.00,1.33
4434.00,1.33
4433.00,1.32
4432.00,1.32
4431.00,1.31
4430.00,1.31
4429.00,1.30
4428.00,1.30
4427.00,1.29
4426.00,1.29
4425.00,1.29
4424.00,1.28
4423.00,1.28
4422.00,1.28
4421.00,1.27
4420.00,1.27
4419.00,1.27
4418.00,1.27
4417.00,1.27
4416.00,1.27
4415.00,1.26
4414.00,1.26
4413.00,1.26
4412.00,1.26
4411.00,1.26
4410.00,1.26
4409.00,1.26
4408.00,1.26
4407.00,1.26
4406.00,1.26
4405.00,1.27
4404.00,1.27
4403.00,1.27
4402.00,1.27
4401.00,1.27
4400.00,1.28
4399.00,1.28
4398.00,1.28
4397.00,1.28
4396.00,1.29
4395.00,1.29
4394.00,1.29
4393.00,1.30
4392.00,1.30
4391.00,1.30
4390.00,1.31
4389.00,1.31
4388.00,1.31
4387.00,1.31
4386.00,1.32
4385.00,1.32
4384.00,1.32
4383.00,1.32
4382.00,1.33
4381.00,1.33
4380.00,1.33
4379.00,1.33
4378.00,1.33
4377.00,1.33
4376.00,1.33
4375.00,1.33
4374.00,1.34
4373.00,1.34
4372.00,1.34
4371.00,1.34
4370.00,1.34
4369.00,1.34
4368.00,1.34
4367.00,1.34
4366.00,1.34
4365.00,1.34
4364.00,1.34
4363.00,1.34
4362.00,1.34
4361.00,1.34
4360.00,1.33
4359.00,1.33
4358.00,1.33
4357.00,1.33
4356.00,1.33
4355.00,1.32
4354.00,1.32
4353.00,1.32
4352.00,1.32
4351.00,1.31
4350.00,1.31
4349.00,1.31
4348.00,1.31
4347.00,1.31
4346.00,1.31
4345.00,1.31
4344.00,1.31
4343.00,1.31
4342.00,1.31
4341.00,1.31
4340.00,1.31
4339.00,1.31
4338.00,1.31
4337.00,1.32
4336.00,1.32
4335.00,1.32
4334.00,1.32
4333.00,1.32
4332.00,1.33
4331.00,1.33
4330.00,1.33
4329.00,1.33
4328.00,1.33
4327.00,1.34
4326.00,1.34
4325.00,1.34
4324.00,1.34
4323.00,1.35
4322.00,1.35
4321.00,1.35
4320.00,1.35
4319.00,1.36
4318.00,1.36
4317.00,1.36
4316.00,1.37
4315.00,1.37
4314.00,1.37
4313.00,1.37
4312.00,1.38
4311.00,1.38
4310.00,1.38
4309.00,1.39
4308.00,1.39
4307.00,1.39
4306.00,1.40
4305.00,1.40
4304.00,1.40
4303.00,1.40
4302.00,1.40
4301.00,1.41
4300.00,1.41
4299.00,1.41
4298.00,1.41
4297.00,1.41
4296.00,1.41
4295.00,1.42
4294.00,1.42
4293.00,1.42
4292.00,1.42
4291.00,1.42
4290.00,1.42
4289.00,1.42
4288.00,1.43
4287.00,1.43
4286.00,1.43
4285.00,1.43
4284.00,1.43
4283.00,1.43
4282.00,1.44
4281.00,1.44
4280.00,1.44
4279.00,1.44
4278.00,1.44
4277.00,1.44
4276.00,1.44
4275.00,1.44
4274.00,1.44
4273.00,1.44
4272.00,1.44
4271.00,1.44
4270.00,1.44
4269.00,1.44
4268.00,1.43
4267.00,1.43
4266.00,1.43
4265.00,1.43
4264.00,1.43
4263.00,1.43
4262.00,1.43
4261.00,1.43
4260.00,1.43
4259.00,1.43
4258.00,1.43
4257.00,1.43
4256.00,1.43
4255.00,1.43
4254.00,1.43
4253.00,1.43
4252.00,1.43
4251.00,1.43
4250.00,1.44
4249.00,1.44
4248.00,1.44
4247.00,1.44
4246.00,1.44
4245.00,1.44
4244.00,1.45
4243.00,1.45
4242.00,1.45
4241.00,1.45
4240.00,1.45
4239.00,1.45
4238.00,1.46
4237.00,1.46
4236.00,1.46
4235.00,1.46
4234.00,1.46
4233.00,1.46
4232.00,1.46
4231.00,1.47
4230.00,1.47
4229.00,1.47
4228.00,1.47
4227.00,1.47
4226.00,1.47
4225.00,1.47
4224.00,1.47
4223.00,1.47
4222.00,1.47
4221.00,1.47
4220.00,1.47
4219.00,1.48
4218.00,1.48
4217.00,1.48
4216.00,1.48
4215.00,1.48
4214.00,1.48
4213.00,1.48
4212.00,1.48
4211.00,1.48
4210.00,1.48
4209.00,1.48
4208.00,1.48
4207.00,1.48
4206.00,1.48
4205.00,1.48
4204.00,1.48
4203.00,1.48
4202.00,1.48
4201.00,1.48
4200.00,1.48
4199.00,1.48
4198.00,1.48
4197.00,1.48
4196.00,1.48
4195.00,1.48
4194.00,1.48
4193.00,1.48
4192.00,1.49
4191.00,1.49
4190.00,1.49
4189.00,1.49
4188.00,1.49
4187.00,1.49
4186.00,1.49
4185.00,1.49
4184.00,1.49
4183.00,1.49
4182.00,1.49
4181.00,1.49
4180.00,1.49
4179.00,1.48
4178.00,1.48
4177.00,1.48
4176.00,1.48
4175.00,1.48
4174.00,1.48
4173.00,1.48
4172.00,1.48
4171.00,1.48
4170.00,1.48
4169.00,1.48
4168.00,1.48
4167.00,1.48
4166.00,1.48
4165.00,1.48
4164.00,1.48
4163.00,1.48
4162.00,1.48
4161.00,1.49
4160.00,1.49
4159.00,1.49
4158.00,1.49
4157.00,1.49
4156.00,1.49
4155.00,1.49
4154.00,1.49
4153.00,1.50
4152.00,1.50
4151.00,1.50
4150.00,1.50
4149.00,1.50
4148.00,1.50
4147.00,1.51
4146.00,1.51
4145.00,1.51
4144.00,1.51
4143.00,1.51
4142.00,1.51
4141.00,1.52
4140.00,1.52
4139.00,1.52
4138.00,1.52
4137.00,1.52
4136.00,1.52
4135.00,1.52
4134.00,1.52
4133.00,1.52
4132.00,1.52
4131.00,1.52
4130.00,1.52
4129.00,1.52
4128.00,1.52
4127.00,1.52
4126.00,1.51
4125.00,1.51
4124.00,1.51
4123.00,1.51
4122.00,1.51
4121.00,1.51
4120.00,1.51
4119.00,1.51
4118.00,1.51
4117.00,1.51
4116.00,1.51
4115.00,1.52
4114.00,1.52
4113.00,1.52
4112.00,1.52
4111.00,1.52
4110.00,1.52
4109.00,1.52
4108.00,1.52
4107.00,1.53
4106.00,1.53
4105.00,1.53
4104.00,1.53
4103.00,1.53
4102.00,1.53
4101.00,1.53
4100.00,1.53
4099.00,1.53
4098.00,1.53
4097.00,1.53
4096.00,1.53
4095.00,1.53
4094.00,1.53
4093.00,1.53
4092.00,1.54
4091.00,1.54
4090.00,1.54
4089.00,1.54
4088.00,1.54
4087.00,1.54
4086.00,1.54
4085.00,1.55
4084.00,1.55
4083.00,1.55
4082.00,1.55
4081.00,1.55
4080.00,1.55
4079.00,1.55
4078.00,1.55
4077.00,1.55
4076.00,1.55
4075.00,1.55
4074.00,1.55
4073.00,1.56
4072.00,1.56
4071.00,1.56
4070.00,1.56
4069.00,1.56
4068.00,1.56
4067.00,1.56
4066.00,1.57
4065.00,1.57
4064.00,1.57
4063.00,1.57
4062.00,1.57
4061.00,1.58
4060.00,1.58
4059.00,1.58
4058.00,1.58
4057.00,1.58
4056.00,1.58
4055.00,1.59
4054.00,1.59
4053.00,1.59
4052.00,1.59
4051.00,1.59
4050.00,1.59
4049.00,1.59
4048.00,1.59
4047.00,1.59
4046.00,1.59
4045.00,1.59
4044.00,1.59
4043.00,1.59
4042.00,1.59
4041.00,1.60
4040.00,1.60
4039.00,1.60
4038.00,1.60
4037.00,1.60
4036.00,1.60
4035.00,1.60
4034.00,1.60
4033.00,1.60
4032.00,1.60
4031.00,1.60
4030.00,1.60
4029.00,1.60
4028.00,1.60
4027.00,1.60
4026.00,1.60
4025.00,1.60
4024.00,1.60
4023.00,1.60
4022.00,1.60
4021.00,1.60
4020.00,1.61
4019.00,1.61
4018.00,1.61
4017.00,1.61
4016.00,1.61
4015.00,1.61
4014.00,1.61
4013.00,1.61
4012.00,1.61
4011.00,1.62
4010.00,1.62
4009.00,1.62
4008.00,1.62
4007.00,1.63
4006.00,1.63
4005.00,1.63
4004.00,1.64
4003.00,1.64
4002.00,1.64
4001.00,1.65
4000.00,1.65
