创建为新数据集,样品 041 用户 Administrator 日期 星期三, 十一月 01 2017
cm-1,%T
10000.00,1.53
9999.00,1.53
9998.00,1.53
9997.00,1.53
9996.00,1.53
9995.00,1.53
9994.00,1.53
9993.00,1.53
9992.00,1.53
9991.00,1.53
9990.00,1.53
9989.00,1.52
9988.00,1.52
9987.00,1.52
9986.00,1.52
9985.00,1.52
9984.00,1.52
9983.00,1.52
9982.00,1.52
9981.00,1.52
9980.00,1.52
9979.00,1.52
9978.00,1.52
9977.00,1.52
9976.00,1.52
9975.00,1.53
9974.00,1.53
9973.00,1.53
9972.00,1.53
9971.00,1.53
9970.00,1.53
9969.00,1.53
9968.00,1.53
9967.00,1.53
9966.00,1.53
9965.00,1.53
9964.00,1.53
9963.00,1.53
9962.00,1.53
9961.00,1.53
9960.00,1.52
9959.00,1.52
9958.00,1.52
9957.00,1.52
9956.00,1.51
9955.00,1.51
9954.00,1.51
9953.00,1.51
9952.00,1.51
9951.00,1.51
9950.00,1.51
9949.00,1.51
9948.00,1.51
9947.00,1.51
9946.00,1.51
9945.00,1.51
9944.00,1.51
9943.00,1.51
9942.00,1.51
9941.00,1.51
9940.00,1.51
9939.00,1.51
9938.00,1.51
9937.00,1.51
9936.00,1.51
9935.00,1.52
9934.00,1.52
9933.00,1.52
9932.00,1.52
9931.00,1.52
9930.00,1.52
9929.00,1.52
9928.00,1.52
9927.00,1.52
9926.00,1.51
9925.00,1.51
9924.00,1.51
9923.00,1.51
9922.00,1.51
9921.00,1.51
9920.00,1.51
9919.00,1.51
9918.00,1.51
9917.00,1.51
9916.00,1.51
9915.00,1.51
9914.00,1.51
9913.00,1.51
9912.00,1.51
9911.00,1.51
9910.00,1.50
9909.00,1.50
9908.00,1.50
9907.00,1.50
9906.00,1.50
9905.00,1.50
9904.00,1.50
9903.00,1.50
9902.00,1.50
9901.00,1.50
9900.00,1.50
9899.00,1.50
9898.00,1.50
9897.00,1.50
9896.00,1.50
9895.00,1.50
9894.00,1.50
9893.00,1.51
9892.00,1.51
9891.00,1.51
9890.00,1.51
9889.00,1.51
9888.00,1.51
9887.00,1.51
9886.00,1.51
9885.00,1.51
9884.00,1.51
9883.00,1.51
9882.00,1.52
9881.00,1.52
9880.00,1.52
9879.00,1.52
9878.00,1.52
9877.00,1.52
9876.00,1.52
9875.00,1.51
9874.00,1.51
9873.00,1.51
9872.00,1.51
9871.00,1.51
9870.00,1.51
9869.00,1.51
9868.00,1.51
9867.00,1.51
9866.00,1.51
9865.00,1.52
9864.00,1.52
9863.00,1.52
9862.00,1.52
9861.00,1.52
9860.00,1.52
9859.00,1.52
9858.00,1.52
9857.00,1.52
9856.00,1.52
9855.00,1.52
9854.00,1.52
9853.00,1.52
9852.00,1.52
9851.00,1.52
9850.00,1.53
9849.00,1.53
9848.00,1.53
9847.00,1.53
9846.00,1.53
9845.00,1.53
9844.00,1.53
9843.00,1.53
9842.00,1.53
9841.00,1.53
9840.00,1.53
9839.00,1.53
9838.00,1.53
9837.00,1.53
9836.00,1.53
9835.00,1.53
9834.00,1.53
9833.00,1.53
9832.00,1.52
9831.00,1.52
9830.00,1.52
9829.00,1.52
9828.00,1.52
9827.00,1.51
9826.00,1.51
9825.00,1.51
9824.00,1.51
9823.00,1.50
9822.00,1.50
9821.00,1.50
9820.00,1.50
9819.00,1.50
9818.00,1.49
9817.00,1.49
9816.00,1.49
9815.00,1.49
9814.00,1.49
9813.00,1.49
9812.00,1.49
9811.00,1.49
9810.00,1.49
9809.00,1.49
9808.00,1.49
9807.00,1.50
9806.00,1.50
9805.00,1.50
9804.00,1.50
9803.00,1.50
9802.00,1.50
9801.00,1.50
9800.00,1.50
9799.00,1.50
9798.00,1.50
9797.00,1.50
9796.00,1.50
9795.00,1.50
9794.00,1.50
9793.00,1.50
9792.00,1.50
9791.00,1.50
9790.00,1.50
9789.00,1.50
9788.00,1.50
9787.00,1.50
9786.00,1.50
9785.00,1.50
9784.00,1.50
9783.00,1.50
9782.00,1.50
9781.00,1.50
9780.00,1.50
9779.00,1.50
9778.00,1.50
9777.00,1.50
9776.00,1.50
9775.00,1.50
9774.00,1.50
9773.00,1.50
9772.00,1.50
9771.00,1.50
9770.00,1.50
9769.00,1.50
9768.00,1.50
9767.00,1.50
9766.00,1.50
9765.00,1.50
9764.00,1.50
9763.00,1.51
9762.00,1.51
9761.00,1.51
9760.00,1.51
9759.00,1.51
9758.00,1.51
9757.00,1.51
9756.00,1.52
9755.00,1.52
9754.00,1.52
9753.00,1.52
9752.00,1.52
9751.00,1.52
9750.00,1.52
9749.00,1.53
9748.00,1.53
9747.00,1.53
9746.00,1.53
9745.00,1.53
9744.00,1.53
9743.00,1.53
9742.00,1.53
9741.00,1.53
9740.00,1.53
9739.00,1.53
9738.00,1.53
9737.00,1.53
9736.00,1.53
9735.00,1.53
9734.00,1.53
9733.00,1.53
9732.00,1.53
9731.00,1.53
9730.00,1.53
9729.00,1.53
9728.00,1.53
9727.00,1.53
9726.00,1.53
9725.00,1.52
9724.00,1.52
9723.00,1.52
9722.00,1.52
9721.00,1.52
9720.00,1.52
9719.00,1.52
9718.00,1.52
9717.00,1.52
9716.00,1.52
9715.00,1.52
9714.00,1.52
9713.00,1.52
9712.00,1.52
9711.00,1.52
9710.00,1.52
9709.00,1.52
9708.00,1.52
9707.00,1.52
9706.00,1.52
9705.00,1.52
9704.00,1.52
9703.00,1.52
9702.00,1.52
9701.00,1.52
9700.00,1.52
9699.00,1.52
9698.00,1.52
9697.00,1.53
9696.00,1.53
9695.00,1.53
9694.00,1.53
9693.00,1.53
9692.00,1.53
9691.00,1.53
9690.00,1.53
9689.00,1.52
9688.00,1.52
9687.00,1.52
9686.00,1.52
9685.00,1.52
9684.00,1.52
9683.00,1.51
9682.00,1.51
9681.00,1.51
9680.00,1.51
9679.00,1.51
9678.00,1.51
9677.00,1.51
9676.00,1.50
9675.00,1.50
9674.00,1.50
9673.00,1.50
9672.00,1.50
9671.00,1.50
9670.00,1.50
9669.00,1.50
9668.00,1.50
9667.00,1.50
9666.00,1.50
9665.00,1.50
9664.00,1.50
9663.00,1.50
9662.00,1.50
9661.00,1.50
9660.00,1.50
9659.00,1.50
9658.00,1.50
9657.00,1.50
9656.00,1.51
9655.00,1.51
9654.00,1.51
9653.00,1.51
9652.00,1.51
9651.00,1.51
9650.00,1.51
9649.00,1.52
9648.00,1.52
9647.00,1.52
9646.00,1.52
9645.00,1.52
9644.00,1.52
9643.00,1.52
9642.00,1.52
9641.00,1.52
9640.00,1.52
9639.00,1.52
9638.00,1.52
9637.00,1.52
9636.00,1.52
9635.00,1.52
9634.00,1.52
9633.00,1.52
9632.00,1.52
9631.00,1.52
9630.00,1.51
9629.00,1.51
9628.00,1.51
9627.00,1.51
9626.00,1.51
9625.00,1.51
9624.00,1.51
9623.00,1.51
9622.00,1.50
9621.00,1.50
9620.00,1.50
9619.00,1.50
9618.00,1.50
9617.00,1.50
9616.00,1.49
9615.00,1.49
9614.00,1.49
9613.00,1.49
9612.00,1.49
9611.00,1.49
9610.00,1.49
9609.00,1.49
9608.00,1.49
9607.00,1.49
9606.00,1.49
9605.00,1.49
9604.00,1.49
9603.00,1.49
9602.00,1.49
9601.00,1.49
9600.00,1.49
9599.00,1.49
9598.00,1.49
9597.00,1.50
9596.00,1.50
9595.00,1.50
9594.00,1.50
9593.00,1.50
9592.00,1.50
9591.00,1.50
9590.00,1.50
9589.00,1.50
9588.00,1.50
9587.00,1.50
9586.00,1.50
9585.00,1.50
9584.00,1.50
9583.00,1.50
9582.00,1.50
9581.00,1.50
9580.00,1.50
9579.00,1.49
9578.00,1.49
9577.00,1.49
9576.00,1.49
9575.00,1.49
9574.00,1.49
9573.00,1.49
9572.00,1.49
9571.00,1.49
9570.00,1.49
9569.00,1.49
9568.00,1.49
9567.00,1.49
9566.00,1.49
9565.00,1.49
9564.00,1.49
9563.00,1.50
9562.00,1.50
9561.00,1.50
9560.00,1.50
9559.00,1.50
9558.00,1.50
9557.00,1.50
9556.00,1.50
9555.00,1.50
9554.00,1.50
9553.00,1.50
9552.00,1.50
9551.00,1.50
9550.00,1.50
9549.00,1.50
9548.00,1.50
9547.00,1.50
9546.00,1.50
9545.00,1.50
9544.00,1.49
9543.00,1.49
9542.00,1.49
9541.00,1.49
9540.00,1.49
9539.00,1.49
9538.00,1.49
9537.00,1.49
9536.00,1.49
9535.00,1.49
9534.00,1.49
9533.00,1.49
9532.00,1.49
9531.00,1.50
9530.00,1.50
9529.00,1.50
9528.00,1.50
9527.00,1.50
9526.00,1.50
9525.00,1.50
9524.00,1.50
9523.00,1.51
9522.00,1.51
9521.00,1.51
9520.00,1.51
9519.00,1.51
9518.00,1.51
9517.00,1.51
9516.00,1.51
9515.00,1.51
9514.00,1.51
9513.00,1.51
9512.00,1.51
9511.00,1.51
9510.00,1.51
9509.00,1.51
9508.00,1.50
9507.00,1.50
9506.00,1.50
9505.00,1.50
9504.00,1.50
9503.00,1.50
9502.00,1.50
9501.00,1.50
9500.00,1.50
9499.00,1.50
9498.00,1.50
9497.00,1.50
9496.00,1.50
9495.00,1.50
9494.00,1.50
9493.00,1.50
9492.00,1.50
9491.00,1.50
9490.00,1.50
9489.00,1.50
9488.00,1.50
9487.00,1.50
9486.00,1.50
9485.00,1.50
9484.00,1.50
9483.00,1.50
9482.00,1.50
9481.00,1.50
9480.00,1.50
9479.00,1.50
9478.00,1.50
9477.00,1.50
9476.00,1.50
9475.00,1.50
9474.00,1.50
9473.00,1.50
9472.00,1.50
9471.00,1.50
9470.00,1.50
9469.00,1.50
9468.00,1.50
9467.00,1.50
9466.00,1.50
9465.00,1.50
9464.00,1.50
9463.00,1.50
9462.00,1.50
9461.00,1.50
9460.00,1.50
9459.00,1.50
9458.00,1.50
9457.00,1.50
9456.00,1.50
9455.00,1.50
9454.00,1.50
9453.00,1.50
9452.00,1.50
9451.00,1.50
9450.00,1.50
9449.00,1.50
9448.00,1.50
9447.00,1.50
9446.00,1.50
9445.00,1.50
9444.00,1.50
9443.00,1.50
9442.00,1.50
9441.00,1.49
9440.00,1.49
9439.00,1.49
9438.00,1.49
9437.00,1.49
9436.00,1.49
9435.00,1.49
9434.00,1.49
9433.00,1.49
9432.00,1.49
9431.00,1.48
9430.00,1.48
9429.00,1.48
9428.00,1.48
9427.00,1.48
9426.00,1.48
9425.00,1.48
9424.00,1.48
9423.00,1.49
9422.00,1.49
9421.00,1.49
9420.00,1.49
9419.00,1.49
9418.00,1.49
9417.00,1.49
9416.00,1.49
9415.00,1.49
9414.00,1.50
9413.00,1.50
9412.00,1.50
9411.00,1.50
9410.00,1.50
9409.00,1.50
9408.00,1.50
9407.00,1.50
9406.00,1.50
9405.00,1.50
9404.00,1.50
9403.00,1.50
9402.00,1.50
9401.00,1.50
9400.00,1.50
9399.00,1.50
9398.00,1.50
9397.00,1.50
9396.00,1.50
9395.00,1.50
9394.00,1.50
9393.00,1.50
9392.00,1.50
9391.00,1.50
9390.00,1.50
9389.00,1.50
9388.00,1.50
9387.00,1.50
9386.00,1.50
9385.00,1.50
9384.00,1.51
9383.00,1.51
9382.00,1.51
9381.00,1.51
9380.00,1.51
9379.00,1.51
9378.00,1.51
9377.00,1.51
9376.00,1.51
9375.00,1.51
9374.00,1.51
9373.00,1.50
9372.00,1.50
9371.00,1.50
9370.00,1.50
9369.00,1.50
9368.00,1.50
9367.00,1.50
9366.00,1.50
9365.00,1.50
9364.00,1.50
9363.00,1.51
9362.00,1.51
9361.00,1.51
9360.00,1.51
9359.00,1.51
9358.00,1.51
9357.00,1.51
9356.00,1.51
9355.00,1.51
9354.00,1.51
9353.00,1.51
9352.00,1.51
9351.00,1.51
9350.00,1.51
9349.00,1.51
9348.00,1.51
9347.00,1.51
9346.00,1.51
9345.00,1.52
9344.00,1.52
9343.00,1.52
9342.00,1.52
9341.00,1.52
9340.00,1.52
9339.00,1.53
9338.00,1.53
9337.00,1.53
9336.00,1.53
9335.00,1.53
9334.00,1.53
9333.00,1.53
9332.00,1.53
9331.00,1.53
9330.00,1.53
9329.00,1.53
9328.00,1.53
9327.00,1.53
9326.00,1.53
9325.00,1.53
9324.00,1.53
9323.00,1.52
9322.00,1.52
9321.00,1.52
9320.00,1.52
9319.00,1.52
9318.00,1.51
9317.00,1.51
9316.00,1.51
9315.00,1.51
9314.00,1.51
9313.00,1.51
9312.00,1.50
9311.00,1.50
9310.00,1.50
9309.00,1.50
9308.00,1.50
9307.00,1.50
9306.00,1.50
9305.00,1.50
9304.00,1.51
9303.00,1.51
9302.00,1.51
9301.00,1.51
9300.00,1.51
9299.00,1.51
9298.00,1.51
9297.00,1.51
9296.00,1.51
9295.00,1.51
9294.00,1.51
9293.00,1.51
9292.00,1.50
9291.00,1.50
9290.00,1.50
9289.00,1.50
9288.00,1.50
9287.00,1.50
9286.00,1.50
9285.00,1.50
9284.00,1.50
9283.00,1.49
9282.00,1.49
9281.00,1.49
9280.00,1.49
9279.00,1.49
9278.00,1.49
9277.00,1.49
9276.00,1.49
9275.00,1.49
9274.00,1.50
9273.00,1.50
9272.00,1.50
9271.00,1.50
9270.00,1.50
9269.00,1.50
9268.00,1.50
9267.00,1.50
9266.00,1.50
9265.00,1.50
9264.00,1.50
9263.00,1.50
9262.00,1.50
9261.00,1.50
9260.00,1.50
9259.00,1.50
9258.00,1.50
9257.00,1.50
9256.00,1.50
9255.00,1.50
9254.00,1.50
9253.00,1.50
9252.00,1.50
9251.00,1.49
9250.00,1.49
9249.00,1.49
9248.00,1.49
9247.00,1.49
9246.00,1.49
9245.00,1.49
9244.00,1.49
9243.00,1.49
9242.00,1.49
9241.00,1.49
9240.00,1.49
9239.00,1.49
9238.00,1.49
9237.00,1.49
9236.00,1.50
9235.00,1.50
9234.00,1.50
9233.00,1.50
9232.00,1.50
9231.00,1.50
9230.00,1.50
9229.00,1.50
9228.00,1.50
9227.00,1.50
9226.00,1.50
9225.00,1.50
9224.00,1.50
9223.00,1.50
9222.00,1.51
9221.00,1.51
9220.00,1.51
9219.00,1.51
9218.00,1.51
9217.00,1.51
9216.00,1.51
9215.00,1.51
9214.00,1.51
9213.00,1.51
9212.00,1.51
9211.00,1.51
9210.00,1.51
9209.00,1.51
9208.00,1.51
9207.00,1.51
9206.00,1.51
9205.00,1.51
9204.00,1.51
9203.00,1.51
9202.00,1.51
9201.00,1.51
9200.00,1.51
9199.00,1.51
9198.00,1.51
9197.00,1.51
9196.00,1.51
9195.00,1.51
9194.00,1.51
9193.00,1.51
9192.00,1.51
9191.00,1.51
9190.00,1.51
9189.00,1.51
9188.00,1.51
9187.00,1.51
9186.00,1.51
9185.00,1.51
9184.00,1.50
9183.00,1.50
9182.00,1.50
9181.00,1.50
9180.00,1.50
9179.00,1.50
9178.00,1.50
9177.00,1.50
9176.00,1.49
9175.00,1.49
9174.00,1.49
9173.00,1.49
9172.00,1.49
9171.00,1.49
9170.00,1.49
9169.00,1.49
9168.00,1.49
9167.00,1.49
9166.00,1.49
9165.00,1.49
9164.00,1.49
9163.00,1.50
9162.00,1.50
9161.00,1.50
9160.00,1.50
9159.00,1.50
9158.00,1.50
9157.00,1.50
9156.00,1.50
9155.00,1.50
9154.00,1.50
9153.00,1.51
9152.00,1.51
9151.00,1.51
9150.00,1.51
9149.00,1.51
9148.00,1.51
9147.00,1.51
9146.00,1.51
9145.00,1.51
9144.00,1.51
9143.00,1.51
9142.00,1.51
9141.00,1.51
9140.00,1.51
9139.00,1.51
9138.00,1.51
9137.00,1.51
9136.00,1.51
9135.00,1.51
9134.00,1.51
9133.00,1.51
9132.00,1.51
9131.00,1.51
9130.00,1.51
9129.00,1.51
9128.00,1.51
9127.00,1.51
9126.00,1.51
9125.00,1.51
9124.00,1.51
9123.00,1.51
9122.00,1.51
9121.00,1.51
9120.00,1.51
9119.00,1.51
9118.00,1.51
9117.00,1.51
9116.00,1.51
9115.00,1.51
9114.00,1.51
9113.00,1.51
9112.00,1.51
9111.00,1.51
9110.00,1.51
9109.00,1.52
9108.00,1.52
9107.00,1.52
9106.00,1.52
9105.00,1.52
9104.00,1.52
9103.00,1.52
9102.00,1.52
9101.00,1.52
9100.00,1.52
9099.00,1.52
9098.00,1.51
9097.00,1.51
9096.00,1.51
9095.00,1.51
9094.00,1.51
9093.00,1.51
9092.00,1.51
9091.00,1.50
9090.00,1.50
9089.00,1.50
9088.00,1.50
9087.00,1.50
9086.00,1.50
9085.00,1.50
9084.00,1.50
9083.00,1.50
9082.00,1.50
9081.00,1.50
9080.00,1.50
9079.00,1.50
9078.00,1.50
9077.00,1.50
9076.00,1.50
9075.00,1.50
9074.00,1.50
9073.00,1.50
9072.00,1.50
9071.00,1.50
9070.00,1.50
9069.00,1.50
9068.00,1.50
9067.00,1.51
9066.00,1.51
9065.00,1.51
9064.00,1.51
9063.00,1.51
9062.00,1.51
9061.00,1.51
9060.00,1.51
9059.00,1.51
9058.00,1.51
9057.00,1.51
9056.00,1.51
9055.00,1.51
9054.00,1.51
9053.00,1.51
9052.00,1.51
9051.00,1.51
9050.00,1.52
9049.00,1.52
9048.00,1.52
9047.00,1.52
9046.00,1.52
9045.00,1.52
9044.00,1.52
9043.00,1.52
9042.00,1.52
9041.00,1.52
9040.00,1.52
9039.00,1.52
9038.00,1.52
9037.00,1.51
9036.00,1.51
9035.00,1.51
9034.00,1.51
9033.00,1.51
9032.00,1.51
9031.00,1.50
9030.00,1.50
9029.00,1.50
9028.00,1.50
9027.00,1.50
9026.00,1.50
9025.00,1.50
9024.00,1.50
9023.00,1.50
9022.00,1.50
9021.00,1.50
9020.00,1.50
9019.00,1.50
9018.00,1.50
9017.00,1.50
9016.00,1.51
9015.00,1.51
9014.00,1.51
9013.00,1.51
9012.00,1.51
9011.00,1.51
9010.00,1.51
9009.00,1.51
9008.00,1.51
9007.00,1.51
9006.00,1.51
9005.00,1.51
9004.00,1.51
9003.00,1.51
9002.00,1.51
9001.00,1.51
9000.00,1.51
8999.00,1.50
8998.00,1.50
8997.00,1.50
8996.00,1.50
8995.00,1.51
8994.00,1.51
8993.00,1.51
8992.00,1.51
8991.00,1.51
8990.00,1.51
8989.00,1.51
8988.00,1.51
8987.00,1.51
8986.00,1.51
8985.00,1.51
8984.00,1.51
8983.00,1.51
8982.00,1.51
8981.00,1.51
8980.00,1.51
8979.00,1.51
8978.00,1.51
8977.00,1.51
8976.00,1.51
8975.00,1.51
8974.00,1.52
8973.00,1.52
8972.00,1.52
8971.00,1.52
8970.00,1.52
8969.00,1.52
8968.00,1.52
8967.00,1.52
8966.00,1.52
8965.00,1.52
8964.00,1.53
8963.00,1.53
8962.00,1.53
8961.00,1.53
8960.00,1.53
8959.00,1.53
8958.00,1.53
8957.00,1.53
8956.00,1.53
8955.00,1.53
8954.00,1.52
8953.00,1.52
8952.00,1.52
8951.00,1.52
8950.00,1.52
8949.00,1.52
8948.00,1.52
8947.00,1.52
8946.00,1.52
8945.00,1.52
8944.00,1.52
8943.00,1.52
8942.00,1.52
8941.00,1.52
8940.00,1.52
8939.00,1.52
8938.00,1.52
8937.00,1.52
8936.00,1.51
8935.00,1.51
8934.00,1.51
8933.00,1.51
8932.00,1.51
8931.00,1.51
8930.00,1.51
8929.00,1.51
8928.00,1.51
8927.00,1.51
8926.00,1.51
8925.00,1.51
8924.00,1.51
8923.00,1.51
8922.00,1.50
8921.00,1.50
8920.00,1.50
8919.00,1.50
8918.00,1.50
8917.00,1.50
8916.00,1.50
8915.00,1.50
8914.00,1.50
8913.00,1.51
8912.00,1.51
8911.00,1.51
8910.00,1.51
8909.00,1.51
8908.00,1.51
8907.00,1.51
8906.00,1.51
8905.00,1.51
8904.00,1.52
8903.00,1.52
8902.00,1.52
8901.00,1.52
8900.00,1.52
8899.00,1.52
8898.00,1.52
8897.00,1.52
8896.00,1.52
8895.00,1.52
8894.00,1.52
8893.00,1.52
8892.00,1.52
8891.00,1.52
8890.00,1.52
8889.00,1.52
8888.00,1.52
8887.00,1.52
8886.00,1.52
8885.00,1.51
8884.00,1.51
8883.00,1.51
8882.00,1.51
8881.00,1.51
8880.00,1.51
8879.00,1.51
8878.00,1.51
8877.00,1.51
8876.00,1.51
8875.00,1.51
8874.00,1.51
8873.00,1.51
8872.00,1.51
8871.00,1.51
8870.00,1.51
8869.00,1.51
8868.00,1.51
8867.00,1.51
8866.00,1.51
8865.00,1.51
8864.00,1.51
8863.00,1.51
8862.00,1.51
8861.00,1.51
8860.00,1.51
8859.00,1.51
8858.00,1.51
8857.00,1.51
8856.00,1.51
8855.00,1.51
8854.00,1.51
8853.00,1.51
8852.00,1.51
8851.00,1.51
8850.00,1.51
8849.00,1.51
8848.00,1.51
8847.00,1.52
8846.00,1.52
8845.00,1.52
8844.00,1.52
8843.00,1.51
8842.00,1.51
8841.00,1.51
8840.00,1.51
8839.00,1.51
8838.00,1.51
8837.00,1.51
8836.00,1.51
8835.00,1.51
8834.00,1.50
8833.00,1.50
8832.00,1.50
8831.00,1.50
8830.00,1.50
8829.00,1.50
8828.00,1.50
8827.00,1.50
8826.00,1.50
8825.00,1.50
8824.00,1.50
8823.00,1.50
8822.00,1.50
8821.00,1.50
8820.00,1.50
8819.00,1.50
8818.00,1.50
8817.00,1.50
8816.00,1.50
8815.00,1.50
8814.00,1.50
8813.00,1.50
8812.00,1.49
8811.00,1.49
8810.00,1.49
8809.00,1.49
8808.00,1.49
8807.00,1.49
8806.00,1.49
8805.00,1.49
8804.00,1.49
8803.00,1.49
8802.00,1.49
8801.00,1.49
8800.00,1.49
8799.00,1.49
8798.00,1.49
8797.00,1.49
8796.00,1.49
8795.00,1.50
8794.00,1.50
8793.00,1.50
8792.00,1.50
8791.00,1.50
8790.00,1.50
8789.00,1.50
8788.00,1.50
8787.00,1.50
8786.00,1.50
8785.00,1.50
8784.00,1.50
8783.00,1.50
8782.00,1.50
8781.00,1.50
8780.00,1.50
8779.00,1.50
8778.00,1.50
8777.00,1.50
8776.00,1.49
8775.00,1.49
8774.00,1.49
8773.00,1.49
8772.00,1.49
8771.00,1.49
8770.00,1.49
8769.00,1.48
8768.00,1.48
8767.00,1.48
8766.00,1.48
8765.00,1.48
8764.00,1.48
8763.00,1.48
8762.00,1.48
8761.00,1.48
8760.00,1.47
8759.00,1.47
8758.00,1.47
8757.00,1.47
8756.00,1.47
8755.00,1.47
8754.00,1.47
8753.00,1.47
8752.00,1.46
8751.00,1.46
8750.00,1.46
8749.00,1.46
8748.00,1.46
8747.00,1.46
8746.00,1.46
8745.00,1.46
8744.00,1.46
8743.00,1.46
8742.00,1.46
8741.00,1.46
8740.00,1.46
8739.00,1.46
8738.00,1.46
8737.00,1.46
8736.00,1.46
8735.00,1.46
8734.00,1.46
8733.00,1.46
8732.00,1.46
8731.00,1.46
8730.00,1.46
8729.00,1.46
8728.00,1.46
8727.00,1.46
8726.00,1.46
8725.00,1.46
8724.00,1.46
8723.00,1.46
8722.00,1.46
8721.00,1.46
8720.00,1.46
8719.00,1.47
8718.00,1.47
8717.00,1.47
8716.00,1.47
8715.00,1.47
8714.00,1.47
8713.00,1.47
8712.00,1.47
8711.00,1.47
8710.00,1.47
8709.00,1.47
8708.00,1.47
8707.00,1.47
8706.00,1.47
8705.00,1.47
8704.00,1.47
8703.00,1.47
8702.00,1.47
8701.00,1.47
8700.00,1.47
8699.00,1.47
8698.00,1.47
8697.00,1.47
8696.00,1.47
8695.00,1.47
8694.00,1.47
8693.00,1.47
8692.00,1.47
8691.00,1.47
8690.00,1.47
8689.00,1.47
8688.00,1.47
8687.00,1.47
8686.00,1.47
8685.00,1.47
8684.00,1.47
8683.00,1.47
8682.00,1.47
8681.00,1.47
8680.00,1.47
8679.00,1.47
8678.00,1.47
8677.00,1.47
8676.00,1.47
8675.00,1.46
8674.00,1.46
8673.00,1.46
8672.00,1.46
8671.00,1.46
8670.00,1.46
8669.00,1.46
8668.00,1.46
8667.00,1.47
8666.00,1.47
8665.00,1.47
8664.00,1.47
8663.00,1.47
8662.00,1.47
8661.00,1.47
8660.00,1.47
8659.00,1.47
8658.00,1.47
8657.00,1.47
8656.00,1.47
8655.00,1.47
8654.00,1.47
8653.00,1.47
8652.00,1.47
8651.00,1.47
8650.00,1.46
8649.00,1.46
8648.00,1.46
8647.00,1.46
8646.00,1.46
8645.00,1.46
8644.00,1.46
8643.00,1.45
8642.00,1.45
8641.00,1.45
8640.00,1.45
8639.00,1.45
8638.00,1.45
8637.00,1.45
8636.00,1.45
8635.00,1.45
8634.00,1.45
8633.00,1.45
8632.00,1.45
8631.00,1.45
8630.00,1.45
8629.00,1.45
8628.00,1.45
8627.00,1.45
8626.00,1.45
8625.00,1.45
8624.00,1.45
8623.00,1.45
8622.00,1.45
8621.00,1.45
8620.00,1.45
8619.00,1.45
8618.00,1.45
8617.00,1.45
8616.00,1.45
8615.00,1.44
8614.00,1.44
8613.00,1.44
8612.00,1.44
8611.00,1.44
8610.00,1.44
8609.00,1.44
8608.00,1.44
8607.00,1.44
8606.00,1.43
8605.00,1.43
8604.00,1.43
8603.00,1.43
8602.00,1.43
8601.00,1.43
8600.00,1.43
8599.00,1.43
8598.00,1.43
8597.00,1.43
8596.00,1.43
8595.00,1.43
8594.00,1.43
8593.00,1.43
8592.00,1.43
8591.00,1.43
8590.00,1.43
8589.00,1.43
8588.00,1.43
8587.00,1.43
8586.00,1.43
8585.00,1.43
8584.00,1.43
8583.00,1.43
8582.00,1.43
8581.00,1.42
8580.00,1.42
8579.00,1.42
8578.00,1.42
8577.00,1.42
8576.00,1.42
8575.00,1.42
8574.00,1.42
8573.00,1.42
8572.00,1.42
8571.00,1.42
8570.00,1.42
8569.00,1.42
8568.00,1.42
8567.00,1.42
8566.00,1.42
8565.00,1.42
8564.00,1.43
8563.00,1.43
8562.00,1.43
8561.00,1.43
8560.00,1.43
8559.00,1.43
8558.00,1.43
8557.00,1.42
8556.00,1.42
8555.00,1.42
8554.00,1.42
8553.00,1.42
8552.00,1.42
8551.00,1.42
8550.00,1.42
8549.00,1.42
8548.00,1.42
8547.00,1.41
8546.00,1.41
8545.00,1.41
8544.00,1.41
8543.00,1.41
8542.00,1.41
8541.00,1.41
8540.00,1.41
8539.00,1.41
8538.00,1.40
8537.00,1.40
8536.00,1.40
8535.00,1.40
8534.00,1.40
8533.00,1.40
8532.00,1.40
8531.00,1.40
8530.00,1.40
8529.00,1.40
8528.00,1.39
8527.00,1.39
8526.00,1.39
8525.00,1.39
8524.00,1.39
8523.00,1.39
8522.00,1.39
8521.00,1.39
8520.00,1.39
8519.00,1.39
8518.00,1.39
8517.00,1.39
8516.00,1.39
8515.00,1.39
8514.00,1.39
8513.00,1.39
8512.00,1.39
8511.00,1.39
8510.00,1.39
8509.00,1.39
8508.00,1.39
8507.00,1.39
8506.00,1.39
8505.00,1.39
8504.00,1.39
8503.00,1.39
8502.00,1.39
8501.00,1.39
8500.00,1.39
8499.00,1.39
8498.00,1.39
8497.00,1.39
8496.00,1.39
8495.00,1.39
8494.00,1.39
8493.00,1.38
8492.00,1.38
8491.00,1.38
8490.00,1.38
8489.00,1.38
8488.00,1.38
8487.00,1.38
8486.00,1.38
8485.00,1.38
8484.00,1.38
8483.00,1.38
8482.00,1.38
8481.00,1.38
8480.00,1.38
8479.00,1.38
8478.00,1.38
8477.00,1.38
8476.00,1.38
8475.00,1.38
8474.00,1.38
8473.00,1.38
8472.00,1.38
8471.00,1.38
8470.00,1.38
8469.00,1.38
8468.00,1.38
8467.00,1.38
8466.00,1.37
8465.00,1.37
8464.00,1.37
8463.00,1.37
8462.00,1.37
8461.00,1.37
8460.00,1.36
8459.00,1.36
8458.00,1.36
8457.00,1.36
8456.00,1.36
8455.00,1.35
8454.00,1.35
8453.00,1.35
8452.00,1.35
8451.00,1.35
8450.00,1.35
8449.00,1.35
8448.00,1.35
8447.00,1.35
8446.00,1.35
8445.00,1.35
8444.00,1.35
8443.00,1.35
8442.00,1.35
8441.00,1.35
8440.00,1.35
8439.00,1.35
8438.00,1.35
8437.00,1.35
8436.00,1.35
8435.00,1.35
8434.00,1.35
8433.00,1.35
8432.00,1.35
8431.00,1.35
8430.00,1.35
8429.00,1.35
8428.00,1.35
8427.00,1.35
8426.00,1.36
8425.00,1.36
8424.00,1.36
8423.00,1.36
8422.00,1.36
8421.00,1.36
8420.00,1.36
8419.00,1.36
8418.00,1.36
8417.00,1.36
8416.00,1.36
8415.00,1.37
8414.00,1.37
8413.00,1.37
8412.00,1.37
8411.00,1.37
8410.00,1.37
8409.00,1.37
8408.00,1.37
8407.00,1.37
8406.00,1.37
8405.00,1.37
8404.00,1.37
8403.00,1.38
8402.00,1.38
8401.00,1.38
8400.00,1.38
8399.00,1.38
8398.00,1.38
8397.00,1.38
8396.00,1.38
8395.00,1.38
8394.00,1.38
8393.00,1.39
8392.00,1.39
8391.00,1.39
8390.00,1.39
8389.00,1.39
8388.00,1.39
8387.00,1.39
8386.00,1.39
8385.00,1.39
8384.00,1.39
8383.00,1.39
8382.00,1.39
8381.00,1.39
8380.00,1.39
8379.00,1.39
8378.00,1.39
8377.00,1.39
8376.00,1.39
8375.00,1.38
8374.00,1.38
8373.00,1.38
8372.00,1.38
8371.00,1.38
8370.00,1.38
8369.00,1.38
8368.00,1.38
8367.00,1.38
8366.00,1.38
8365.00,1.38
8364.00,1.38
8363.00,1.38
8362.00,1.38
8361.00,1.39
8360.00,1.39
8359.00,1.39
8358.00,1.39
8357.00,1.39
8356.00,1.39
8355.00,1.39
8354.00,1.39
8353.00,1.39
8352.00,1.39
8351.00,1.39
8350.00,1.39
8349.00,1.39
8348.00,1.39
8347.00,1.39
8346.00,1.39
8345.00,1.39
8344.00,1.40
8343.00,1.40
8342.00,1.40
8341.00,1.40
8340.00,1.40
8339.00,1.40
8338.00,1.40
8337.00,1.40
8336.00,1.40
8335.00,1.40
8334.00,1.40
8333.00,1.40
8332.00,1.40
8331.00,1.40
8330.00,1.40
8329.00,1.40
8328.00,1.40
8327.00,1.40
8326.00,1.39
8325.00,1.39
8324.00,1.39
8323.00,1.39
8322.00,1.39
8321.00,1.39
8320.00,1.39
8319.00,1.39
8318.00,1.39
8317.00,1.39
8316.00,1.40
8315.00,1.40
8314.00,1.40
8313.00,1.40
8312.00,1.40
8311.00,1.40
8310.00,1.40
8309.00,1.40
8308.00,1.40
8307.00,1.40
8306.00,1.40
8305.00,1.40
8304.00,1.40
8303.00,1.40
8302.00,1.40
8301.00,1.40
8300.00,1.40
8299.00,1.40
8298.00,1.40
8297.00,1.40
8296.00,1.40
8295.00,1.40
8294.00,1.40
8293.00,1.40
8292.00,1.40
8291.00,1.40
8290.00,1.40
8289.00,1.40
8288.00,1.40
8287.00,1.40
8286.00,1.40
8285.00,1.40
8284.00,1.40
8283.00,1.40
8282.00,1.40
8281.00,1.41
8280.00,1.41
8279.00,1.41
8278.00,1.41
8277.00,1.41
8276.00,1.41
8275.00,1.41
8274.00,1.41
8273.00,1.41
8272.00,1.41
8271.00,1.41
8270.00,1.41
8269.00,1.41
8268.00,1.41
8267.00,1.41
8266.00,1.41
8265.00,1.41
8264.00,1.41
8263.00,1.41
8262.00,1.41
8261.00,1.41
8260.00,1.41
8259.00,1.41
8258.00,1.41
8257.00,1.41
8256.00,1.41
8255.00,1.41
8254.00,1.41
8253.00,1.41
8252.00,1.41
8251.00,1.41
8250.00,1.41
8249.00,1.41
8248.00,1.41
8247.00,1.41
8246.00,1.41
8245.00,1.41
8244.00,1.41
8243.00,1.41
8242.00,1.40
8241.00,1.40
8240.00,1.40
8239.00,1.40
8238.00,1.40
8237.00,1.40
8236.00,1.40
8235.00,1.40
8234.00,1.41
8233.00,1.41
8232.00,1.41
8231.00,1.41
8230.00,1.41
8229.00,1.41
8228.00,1.41
8227.00,1.42
8226.00,1.42
8225.00,1.42
8224.00,1.42
8223.00,1.42
8222.00,1.42
8221.00,1.42
8220.00,1.43
8219.00,1.43
8218.00,1.43
8217.00,1.43
8216.00,1.43
8215.00,1.43
8214.00,1.43
8213.00,1.43
8212.00,1.43
8211.00,1.43
8210.00,1.43
8209.00,1.43
8208.00,1.43
8207.00,1.43
8206.00,1.43
8205.00,1.43
8204.00,1.43
8203.00,1.43
8202.00,1.43
8201.00,1.43
8200.00,1.43
8199.00,1.43
8198.00,1.43
8197.00,1.43
8196.00,1.43
8195.00,1.43
8194.00,1.43
8193.00,1.44
8192.00,1.44
8191.00,1.44
8190.00,1.44
8189.00,1.44
8188.00,1.44
8187.00,1.44
8186.00,1.44
8185.00,1.44
8184.00,1.44
8183.00,1.44
8182.00,1.44
8181.00,1.44
8180.00,1.44
8179.00,1.44
8178.00,1.44
8177.00,1.44
8176.00,1.44
8175.00,1.44
8174.00,1.44
8173.00,1.44
8172.00,1.44
8171.00,1.44
8170.00,1.44
8169.00,1.44
8168.00,1.44
8167.00,1.44
8166.00,1.44
8165.00,1.44
8164.00,1.44
8163.00,1.44
8162.00,1.44
8161.00,1.44
8160.00,1.44
8159.00,1.44
8158.00,1.44
8157.00,1.45
8156.00,1.45
8155.00,1.45
8154.00,1.45
8153.00,1.45
8152.00,1.45
8151.00,1.45
8150.00,1.45
8149.00,1.45
8148.00,1.45
8147.00,1.46
8146.00,1.46
8145.00,1.46
8144.00,1.46
8143.00,1.46
8142.00,1.46
8141.00,1.46
8140.00,1.46
8139.00,1.46
8138.00,1.46
8137.00,1.46
8136.00,1.46
8135.00,1.46
8134.00,1.46
8133.00,1.46
8132.00,1.46
8131.00,1.46
8130.00,1.46
8129.00,1.46
8128.00,1.46
8127.00,1.46
8126.00,1.46
8125.00,1.46
8124.00,1.46
8123.00,1.46
8122.00,1.46
8121.00,1.46
8120.00,1.46
8119.00,1.46
8118.00,1.46
8117.00,1.46
8116.00,1.46
8115.00,1.47
8114.00,1.47
8113.00,1.47
8112.00,1.47
8111.00,1.47
8110.00,1.47
8109.00,1.47
8108.00,1.48
8107.00,1.48
8106.00,1.48
8105.00,1.48
8104.00,1.48
8103.00,1.48
8102.00,1.48
8101.00,1.48
8100.00,1.48
8099.00,1.48
8098.00,1.48
8097.00,1.48
8096.00,1.48
8095.00,1.48
8094.00,1.48
8093.00,1.48
8092.00,1.48
8091.00,1.47
8090.00,1.47
8089.00,1.47
8088.00,1.47
8087.00,1.47
8086.00,1.47
8085.00,1.47
8084.00,1.47
8083.00,1.47
8082.00,1.47
8081.00,1.47
8080.00,1.47
8079.00,1.47
8078.00,1.47
8077.00,1.47
8076.00,1.47
8075.00,1.47
8074.00,1.47
8073.00,1.47
8072.00,1.47
8071.00,1.47
8070.00,1.47
8069.00,1.47
8068.00,1.47
8067.00,1.47
8066.00,1.47
8065.00,1.47
8064.00,1.47
8063.00,1.47
8062.00,1.47
8061.00,1.47
8060.00,1.47
8059.00,1.47
8058.00,1.47
8057.00,1.47
8056.00,1.47
8055.00,1.47
8054.00,1.47
8053.00,1.47
8052.00,1.47
8051.00,1.47
8050.00,1.47
8049.00,1.47
8048.00,1.47
8047.00,1.47
8046.00,1.47
8045.00,1.47
8044.00,1.47
8043.00,1.47
8042.00,1.48
8041.00,1.48
8040.00,1.48
8039.00,1.48
8038.00,1.48
8037.00,1.48
8036.00,1.48
8035.00,1.48
8034.00,1.48
8033.00,1.48
8032.00,1.48
8031.00,1.48
8030.00,1.48
8029.00,1.48
8028.00,1.48
8027.00,1.48
8026.00,1.48
8025.00,1.48
8024.00,1.48
8023.00,1.48
8022.00,1.48
8021.00,1.48
8020.00,1.49
8019.00,1.49
8018.00,1.49
8017.00,1.49
8016.00,1.49
8015.00,1.49
8014.00,1.49
8013.00,1.49
8012.00,1.49
8011.00,1.49
8010.00,1.49
8009.00,1.49
8008.00,1.50
8007.00,1.50
8006.00,1.50
8005.00,1.50
8004.00,1.49
8003.00,1.49
8002.00,1.49
8001.00,1.49
8000.00,1.49
7999.00,1.49
7998.00,1.49
7997.00,1.49
7996.00,1.49
7995.00,1.49
7994.00,1.49
7993.00,1.49
7992.00,1.49
7991.00,1.49
7990.00,1.49
7989.00,1.49
7988.00,1.49
7987.00,1.49
7986.00,1.49
7985.00,1.49
7984.00,1.49
7983.00,1.49
7982.00,1.49
7981.00,1.49
7980.00,1.49
7979.00,1.49
7978.00,1.49
7977.00,1.49
7976.00,1.49
7975.00,1.50
7974.00,1.50
7973.00,1.50
7972.00,1.50
7971.00,1.50
7970.00,1.50
7969.00,1.50
7968.00,1.50
7967.00,1.50
7966.00,1.50
7965.00,1.50
7964.00,1.50
7963.00,1.50
7962.00,1.50
7961.00,1.50
7960.00,1.50
7959.00,1.50
7958.00,1.50
7957.00,1.50
7956.00,1.50
7955.00,1.50
7954.00,1.50
7953.00,1.50
7952.00,1.50
7951.00,1.50
7950.00,1.50
7949.00,1.50
7948.00,1.50
7947.00,1.50
7946.00,1.50
7945.00,1.50
7944.00,1.50
7943.00,1.50
7942.00,1.50
7941.00,1.50
7940.00,1.51
7939.00,1.51
7938.00,1.51
7937.00,1.51
7936.00,1.51
7935.00,1.51
7934.00,1.51
7933.00,1.51
7932.00,1.51
7931.00,1.51
7930.00,1.51
7929.00,1.51
7928.00,1.51
7927.00,1.51
7926.00,1.50
7925.00,1.50
7924.00,1.50
7923.00,1.50
7922.00,1.50
7921.00,1.50
7920.00,1.50
7919.00,1.50
7918.00,1.50
7917.00,1.50
7916.00,1.50
7915.00,1.50
7914.00,1.50
7913.00,1.50
7912.00,1.50
7911.00,1.50
7910.00,1.50
7909.00,1.50
7908.00,1.50
7907.00,1.51
7906.00,1.51
7905.00,1.51
7904.00,1.51
7903.00,1.51
7902.00,1.51
7901.00,1.51
7900.00,1.51
7899.00,1.51
7898.00,1.51
7897.00,1.51
7896.00,1.51
7895.00,1.51
7894.00,1.51
7893.00,1.51
7892.00,1.51
7891.00,1.51
7890.00,1.50
7889.00,1.50
7888.00,1.50
7887.00,1.50
7886.00,1.50
7885.00,1.50
7884.00,1.50
7883.00,1.50
7882.00,1.50
7881.00,1.50
7880.00,1.50
7879.00,1.50
7878.00,1.50
7877.00,1.50
7876.00,1.50
7875.00,1.50
7874.00,1.50
7873.00,1.50
7872.00,1.50
7871.00,1.50
7870.00,1.50
7869.00,1.50
7868.00,1.50
7867.00,1.51
7866.00,1.51
7865.00,1.51
7864.00,1.51
7863.00,1.51
7862.00,1.51
7861.00,1.51
7860.00,1.51
7859.00,1.51
7858.00,1.51
7857.00,1.51
7856.00,1.51
7855.00,1.51
7854.00,1.51
7853.00,1.51
7852.00,1.51
7851.00,1.51
7850.00,1.51
7849.00,1.51
7848.00,1.51
7847.00,1.51
7846.00,1.51
7845.00,1.52
7844.00,1.52
7843.00,1.52
7842.00,1.52
7841.00,1.52
7840.00,1.52
7839.00,1.52
7838.00,1.52
7837.00,1.52
7836.00,1.52
7835.00,1.52
7834.00,1.52
7833.00,1.52
7832.00,1.52
7831.00,1.52
7830.00,1.52
7829.00,1.52
7828.00,1.52
7827.00,1.52
7826.00,1.51
7825.00,1.51
7824.00,1.51
7823.00,1.51
7822.00,1.51
7821.00,1.51
7820.00,1.51
7819.00,1.51
7818.00,1.51
7817.00,1.51
7816.00,1.51
7815.00,1.51
7814.00,1.51
7813.00,1.51
7812.00,1.51
7811.00,1.52
7810.00,1.52
7809.00,1.52
7808.00,1.52
7807.00,1.52
7806.00,1.52
7805.00,1.52
7804.00,1.52
7803.00,1.52
7802.00,1.52
7801.00,1.52
7800.00,1.52
7799.00,1.53
7798.00,1.53
7797.00,1.53
7796.00,1.53
7795.00,1.53
7794.00,1.53
7793.00,1.53
7792.00,1.53
7791.00,1.52
7790.00,1.52
7789.00,1.52
7788.00,1.52
7787.00,1.52
7786.00,1.52
7785.00,1.52
7784.00,1.52
7783.00,1.52
7782.00,1.52
7781.00,1.52
7780.00,1.52
7779.00,1.52
7778.00,1.52
7777.00,1.52
7776.00,1.52
7775.00,1.52
7774.00,1.52
7773.00,1.52
7772.00,1.52
7771.00,1.52
7770.00,1.52
7769.00,1.52
7768.00,1.52
7767.00,1.52
7766.00,1.52
7765.00,1.52
7764.00,1.52
7763.00,1.52
7762.00,1.52
7761.00,1.52
7760.00,1.52
7759.00,1.52
7758.00,1.52
7757.00,1.52
7756.00,1.52
7755.00,1.52
7754.00,1.52
7753.00,1.52
7752.00,1.52
7751.00,1.52
7750.00,1.52
7749.00,1.52
7748.00,1.52
7747.00,1.52
7746.00,1.52
7745.00,1.52
7744.00,1.52
7743.00,1.52
7742.00,1.52
7741.00,1.52
7740.00,1.53
7739.00,1.53
7738.00,1.53
7737.00,1.53
7736.00,1.53
7735.00,1.53
7734.00,1.53
7733.00,1.53
7732.00,1.53
7731.00,1.53
7730.00,1.53
7729.00,1.53
7728.00,1.53
7727.00,1.53
7726.00,1.53
7725.00,1.53
7724.00,1.53
7723.00,1.53
7722.00,1.53
7721.00,1.53
7720.00,1.53
7719.00,1.53
7718.00,1.53
7717.00,1.53
7716.00,1.53
7715.00,1.53
7714.00,1.53
7713.00,1.53
7712.00,1.53
7711.00,1.53
7710.00,1.53
7709.00,1.53
7708.00,1.53
7707.00,1.53
7706.00,1.53
7705.00,1.53
7704.00,1.53
7703.00,1.53
7702.00,1.53
7701.00,1.53
7700.00,1.53
7699.00,1.53
7698.00,1.53
7697.00,1.53
7696.00,1.53
7695.00,1.53
7694.00,1.53
7693.00,1.53
7692.00,1.53
7691.00,1.53
7690.00,1.53
7689.00,1.53
7688.00,1.53
7687.00,1.53
7686.00,1.53
7685.00,1.53
7684.00,1.53
7683.00,1.53
7682.00,1.53
7681.00,1.53
7680.00,1.53
7679.00,1.53
7678.00,1.53
7677.00,1.53
7676.00,1.53
7675.00,1.53
7674.00,1.53
7673.00,1.53
7672.00,1.53
7671.00,1.53
7670.00,1.53
7669.00,1.53
7668.00,1.53
7667.00,1.53
7666.00,1.53
7665.00,1.53
7664.00,1.53
7663.00,1.53
7662.00,1.53
7661.00,1.53
7660.00,1.53
7659.00,1.53
7658.00,1.53
7657.00,1.53
7656.00,1.53
7655.00,1.53
7654.00,1.53
7653.00,1.53
7652.00,1.53
7651.00,1.53
7650.00,1.53
7649.00,1.53
7648.00,1.53
7647.00,1.53
7646.00,1.53
7645.00,1.53
7644.00,1.53
7643.00,1.53
7642.00,1.53
7641.00,1.53
7640.00,1.53
7639.00,1.53
7638.00,1.53
7637.00,1.53
7636.00,1.53
7635.00,1.53
7634.00,1.53
7633.00,1.53
7632.00,1.53
7631.00,1.53
7630.00,1.53
7629.00,1.53
7628.00,1.53
7627.00,1.53
7626.00,1.53
7625.00,1.53
7624.00,1.53
7623.00,1.53
7622.00,1.53
7621.00,1.53
7620.00,1.53
7619.00,1.53
7618.00,1.53
7617.00,1.53
7616.00,1.53
7615.00,1.53
7614.00,1.53
7613.00,1.53
7612.00,1.53
7611.00,1.53
7610.00,1.53
7609.00,1.53
7608.00,1.53
7607.00,1.53
7606.00,1.53
7605.00,1.53
7604.00,1.53
7603.00,1.53
7602.00,1.53
7601.00,1.53
7600.00,1.53
7599.00,1.53
7598.00,1.53
7597.00,1.53
7596.00,1.53
7595.00,1.53
7594.00,1.53
7593.00,1.53
7592.00,1.52
7591.00,1.52
7590.00,1.52
7589.00,1.52
7588.00,1.52
7587.00,1.52
7586.00,1.52
7585.00,1.52
7584.00,1.52
7583.00,1.52
7582.00,1.52
7581.00,1.52
7580.00,1.52
7579.00,1.52
7578.00,1.52
7577.00,1.53
7576.00,1.53
7575.00,1.53
7574.00,1.53
7573.00,1.53
7572.00,1.53
7571.00,1.53
7570.00,1.53
7569.00,1.53
7568.00,1.53
7567.00,1.53
7566.00,1.53
7565.00,1.53
7564.00,1.53
7563.00,1.53
7562.00,1.53
7561.00,1.53
7560.00,1.53
7559.00,1.53
7558.00,1.53
7557.00,1.53
7556.00,1.53
7555.00,1.53
7554.00,1.53
7553.00,1.53
7552.00,1.53
7551.00,1.53
7550.00,1.53
7549.00,1.53
7548.00,1.52
7547.00,1.52
7546.00,1.52
7545.00,1.52
7544.00,1.52
7543.00,1.52
7542.00,1.52
7541.00,1.52
7540.00,1.52
7539.00,1.52
7538.00,1.52
7537.00,1.52
7536.00,1.52
7535.00,1.52
7534.00,1.52
7533.00,1.52
7532.00,1.52
7531.00,1.52
7530.00,1.52
7529.00,1.52
7528.00,1.52
7527.00,1.52
7526.00,1.52
7525.00,1.52
7524.00,1.52
7523.00,1.52
7522.00,1.52
7521.00,1.52
7520.00,1.52
7519.00,1.51
7518.00,1.51
7517.00,1.51
7516.00,1.51
7515.00,1.51
7514.00,1.51
7513.00,1.51
7512.00,1.51
7511.00,1.51
7510.00,1.51
7509.00,1.51
7508.00,1.51
7507.00,1.51
7506.00,1.51
7505.00,1.51
7504.00,1.50
7503.00,1.50
7502.00,1.50
7501.00,1.50
7500.00,1.50
7499.00,1.50
7498.00,1.50
7497.00,1.50
7496.00,1.50
7495.00,1.50
7494.00,1.50
7493.00,1.50
7492.00,1.50
7491.00,1.50
7490.00,1.50
7489.00,1.50
7488.00,1.50
7487.00,1.50
7486.00,1.50
7485.00,1.50
7484.00,1.50
7483.00,1.50
7482.00,1.50
7481.00,1.50
7480.00,1.50
7479.00,1.50
7478.00,1.50
7477.00,1.50
7476.00,1.50
7475.00,1.50
7474.00,1.50
7473.00,1.50
7472.00,1.50
7471.00,1.50
7470.00,1.50
7469.00,1.50
7468.00,1.50
7467.00,1.50
7466.00,1.50
7465.00,1.50
7464.00,1.49
7463.00,1.49
7462.00,1.49
7461.00,1.49
7460.00,1.49
7459.00,1.49
7458.00,1.49
7457.00,1.49
7456.00,1.49
7455.00,1.49
7454.00,1.49
7453.00,1.49
7452.00,1.49
7451.00,1.49
7450.00,1.49
7449.00,1.49
7448.00,1.49
7447.00,1.49
7446.00,1.49
7445.00,1.49
7444.00,1.48
7443.00,1.48
7442.00,1.48
7441.00,1.48
7440.00,1.48
7439.00,1.48
7438.00,1.48
7437.00,1.48
7436.00,1.48
7435.00,1.48
7434.00,1.48
7433.00,1.48
7432.00,1.48
7431.00,1.48
7430.00,1.48
7429.00,1.48
7428.00,1.48
7427.00,1.48
7426.00,1.48
7425.00,1.47
7424.00,1.47
7423.00,1.47
7422.00,1.47
7421.00,1.47
7420.00,1.47
7419.00,1.47
7418.00,1.47
7417.00,1.47
7416.00,1.47
7415.00,1.47
7414.00,1.47
7413.00,1.47
7412.00,1.46
7411.00,1.46
7410.00,1.46
7409.00,1.46
7408.00,1.46
7407.00,1.46
7406.00,1.45
7405.00,1.45
7404.00,1.45
7403.00,1.45
7402.00,1.45
7401.00,1.45
7400.00,1.45
7399.00,1.44
7398.00,1.44
7397.00,1.44
7396.00,1.44
7395.00,1.44
7394.00,1.44
7393.00,1.44
7392.00,1.44
7391.00,1.44
7390.00,1.44
7389.00,1.44
7388.00,1.43
7387.00,1.43
7386.00,1.43
7385.00,1.43
7384.00,1.43
7383.00,1.43
7382.00,1.43
7381.00,1.43
7380.00,1.43
7379.00,1.43
7378.00,1.43
7377.00,1.43
7376.00,1.43
7375.00,1.43
7374.00,1.43
7373.00,1.43
7372.00,1.43
7371.00,1.43
7370.00,1.42
7369.00,1.42
7368.00,1.42
7367.00,1.42
7366.00,1.42
7365.00,1.42
7364.00,1.42
7363.00,1.42
7362.00,1.42
7361.00,1.42
7360.00,1.42
7359.00,1.42
7358.00,1.42
7357.00,1.42
7356.00,1.42
7355.00,1.42
7354.00,1.42
7353.00,1.42
7352.00,1.42
7351.00,1.42
7350.00,1.42
7349.00,1.42
7348.00,1.42
7347.00,1.42
7346.00,1.42
7345.00,1.42
7344.00,1.42
7343.00,1.42
7342.00,1.42
7341.00,1.42
7340.00,1.42
7339.00,1.42
7338.00,1.42
7337.00,1.41
7336.00,1.41
7335.00,1.41
7334.00,1.41
7333.00,1.41
7332.00,1.41
7331.00,1.41
7330.00,1.41
7329.00,1.41
7328.00,1.41
7327.00,1.41
7326.00,1.41
7325.00,1.40
7324.00,1.40
7323.00,1.40
7322.00,1.40
7321.00,1.40
7320.00,1.40
7319.00,1.40
7318.00,1.40
7317.00,1.39
7316.00,1.39
7315.00,1.39
7314.00,1.39
7313.00,1.39
7312.00,1.39
7311.00,1.39
7310.00,1.39
7309.00,1.39
7308.00,1.39
7307.00,1.39
7306.00,1.39
7305.00,1.39
7304.00,1.38
7303.00,1.38
7302.00,1.38
7301.00,1.38
7300.00,1.38
7299.00,1.38
7298.00,1.38
7297.00,1.38
7296.00,1.38
7295.00,1.38
7294.00,1.38
7293.00,1.38
7292.00,1.38
7291.00,1.38
7290.00,1.38
7289.00,1.38
7288.00,1.37
7287.00,1.37
7286.00,1.37
7285.00,1.37
7284.00,1.37
7283.00,1.37
7282.00,1.37
7281.00,1.37
7280.00,1.37
7279.00,1.37
7278.00,1.37
7277.00,1.37
7276.00,1.36
7275.00,1.36
7274.00,1.36
7273.00,1.36
7272.00,1.36
7271.00,1.36
7270.00,1.36
7269.00,1.36
7268.00,1.36
7267.00,1.36
7266.00,1.36
7265.00,1.36
7264.00,1.36
7263.00,1.35
7262.00,1.35
7261.00,1.35
7260.00,1.35
7259.00,1.35
7258.00,1.35
7257.00,1.35
7256.00,1.35
7255.00,1.35
7254.00,1.35
7253.00,1.34
7252.00,1.34
7251.00,1.34
7250.00,1.34
7249.00,1.34
7248.00,1.34
7247.00,1.34
7246.00,1.33
7245.00,1.33
7244.00,1.33
7243.00,1.33
7242.00,1.32
7241.00,1.32
7240.00,1.32
7239.00,1.31
7238.00,1.31
7237.00,1.31
7236.00,1.30
7235.00,1.30
7234.00,1.30
7233.00,1.29
7232.00,1.29
7231.00,1.29
7230.00,1.28
7229.00,1.28
7228.00,1.28
7227.00,1.27
7226.00,1.27
7225.00,1.27
7224.00,1.26
7223.00,1.26
7222.00,1.26
7221.00,1.25
7220.00,1.25
7219.00,1.24
7218.00,1.24
7217.00,1.24
7216.00,1.23
7215.00,1.23
7214.00,1.23
7213.00,1.22
7212.00,1.22
7211.00,1.21
7210.00,1.21
7209.00,1.21
7208.00,1.20
7207.00,1.20
7206.00,1.20
7205.00,1.19
7204.00,1.19
7203.00,1.19
7202.00,1.18
7201.00,1.18
7200.00,1.18
7199.00,1.17
7198.00,1.17
7197.00,1.16
7196.00,1.16
7195.00,1.16
7194.00,1.15
7193.00,1.15
7192.00,1.15
7191.00,1.15
7190.00,1.14
7189.00,1.14
7188.00,1.14
7187.00,1.14
7186.00,1.13
7185.00,1.13
7184.00,1.13
7183.00,1.13
7182.00,1.13
7181.00,1.12
7180.00,1.12
7179.00,1.12
7178.00,1.12
7177.00,1.11
7176.00,1.11
7175.00,1.11
7174.00,1.10
7173.00,1.10
7172.00,1.10
7171.00,1.10
7170.00,1.09
7169.00,1.09
7168.00,1.08
7167.00,1.08
7166.00,1.08
7165.00,1.07
7164.00,1.07
7163.00,1.07
7162.00,1.07
7161.00,1.06
7160.00,1.06
7159.00,1.06
7158.00,1.06
7157.00,1.05
7156.00,1.05
7155.00,1.05
7154.00,1.05
7153.00,1.05
7152.00,1.04
7151.00,1.04
7150.00,1.04
7149.00,1.04
7148.00,1.04
7147.00,1.03
7146.00,1.03
7145.00,1.03
7144.00,1.02
7143.00,1.02
7142.00,1.02
7141.00,1.02
7140.00,1.01
7139.00,1.01
7138.00,1.01
7137.00,1.00
7136.00,1.00
7135.00,1.00
7134.00,0.99
7133.00,0.99
7132.00,0.99
7131.00,0.98
7130.00,0.98
7129.00,0.98
7128.00,0.97
7127.00,0.97
7126.00,0.97
7125.00,0.96
7124.00,0.96
7123.00,0.96
7122.00,0.96
7121.00,0.95
7120.00,0.95
7119.00,0.95
7118.00,0.95
7117.00,0.95
7116.00,0.94
7115.00,0.94
7114.00,0.94
7113.00,0.94
7112.00,0.94
7111.00,0.94
7110.00,0.94
7109.00,0.93
7108.00,0.93
7107.00,0.93
7106.00,0.93
7105.00,0.93
7104.00,0.92
7103.00,0.92
7102.00,0.92
7101.00,0.92
7100.00,0.91
7099.00,0.91
7098.00,0.91
7097.00,0.91
7096.00,0.90
7095.00,0.90
7094.00,0.90
7093.00,0.89
7092.00,0.89
7091.00,0.89
7090.00,0.89
7089.00,0.89
7088.00,0.88
7087.00,0.88
7086.00,0.88
7085.00,0.88
7084.00,0.88
7083.00,0.87
7082.00,0.87
7081.00,0.87
7080.00,0.87
7079.00,0.87
7078.00,0.87
7077.00,0.86
7076.00,0.86
7075.00,0.86
7074.00,0.86
7073.00,0.86
7072.00,0.86
7071.00,0.85
7070.00,0.85
7069.00,0.85
7068.00,0.85
7067.00,0.85
7066.00,0.84
7065.00,0.84
7064.00,0.84
7063.00,0.84
7062.00,0.84
7061.00,0.84
7060.00,0.83
7059.00,0.83
7058.00,0.83
7057.00,0.83
7056.00,0.83
7055.00,0.83
7054.00,0.83
7053.00,0.83
7052.00,0.83
7051.00,0.82
7050.00,0.82
7049.00,0.82
7048.00,0.82
7047.00,0.82
7046.00,0.82
7045.00,0.82
7044.00,0.82
7043.00,0.82
7042.00,0.82
7041.00,0.81
7040.00,0.81
7039.00,0.81
7038.00,0.81
7037.00,0.81
7036.00,0.81
7035.00,0.80
7034.00,0.80
7033.00,0.80
7032.00,0.80
7031.00,0.80
7030.00,0.80
7029.00,0.80
7028.00,0.80
7027.00,0.79
7026.00,0.79
7025.00,0.79
7024.00,0.79
7023.00,0.79
7022.00,0.79
7021.00,0.79
7020.00,0.79
7019.00,0.79
7018.00,0.79
7017.00,0.79
7016.00,0.79
7015.00,0.79
7014.00,0.79
7013.00,0.79
7012.00,0.79
7011.00,0.79
7010.00,0.79
7009.00,0.79
7008.00,0.79
7007.00,0.78
7006.00,0.78
7005.00,0.78
7004.00,0.78
7003.00,0.78
7002.00,0.78
7001.00,0.78
7000.00,0.78
6999.00,0.78
6998.00,0.78
6997.00,0.78
6996.00,0.77
6995.00,0.77
6994.00,0.77
6993.00,0.77
6992.00,0.77
6991.00,0.77
6990.00,0.77
6989.00,0.77
6988.00,0.77
6987.00,0.77
6986.00,0.77
6985.00,0.76
6984.00,0.76
6983.00,0.76
6982.00,0.76
6981.00,0.76
6980.00,0.76
6979.00,0.76
6978.00,0.76
6977.00,0.76
6976.00,0.76
6975.00,0.76
6974.00,0.76
6973.00,0.76
6972.00,0.76
6971.00,0.76
6970.00,0.76
6969.00,0.76
6968.00,0.76
6967.00,0.75
6966.00,0.75
6965.00,0.75
6964.00,0.75
6963.00,0.75
6962.00,0.75
6961.00,0.75
6960.00,0.75
6959.00,0.75
6958.00,0.75
6957.00,0.75
6956.00,0.75
6955.00,0.75
6954.00,0.75
6953.00,0.75
6952.00,0.75
6951.00,0.75
6950.00,0.75
6949.00,0.75
6948.00,0.75
6947.00,0.75
6946.00,0.75
6945.00,0.75
6944.00,0.75
6943.00,0.75
6942.00,0.75
6941.00,0.75
6940.00,0.74
6939.00,0.74
6938.00,0.74
6937.00,0.74
6936.00,0.74
6935.00,0.74
6934.00,0.74
6933.00,0.74
6932.00,0.74
6931.00,0.74
6930.00,0.74
6929.00,0.74
6928.00,0.74
6927.00,0.74
6926.00,0.74
6925.00,0.74
6924.00,0.74
6923.00,0.74
6922.00,0.74
6921.00,0.74
6920.00,0.74
6919.00,0.74
6918.00,0.74
6917.00,0.73
6916.00,0.73
6915.00,0.73
6914.00,0.73
6913.00,0.73
6912.00,0.73
6911.00,0.73
6910.00,0.73
6909.00,0.73
6908.00,0.73
6907.00,0.73
6906.00,0.74
6905.00,0.74
6904.00,0.74
6903.00,0.74
6902.00,0.74
6901.00,0.74
6900.00,0.74
6899.00,0.74
6898.00,0.74
6897.00,0.74
6896.00,0.74
6895.00,0.74
6894.00,0.74
6893.00,0.74
6892.00,0.74
6891.00,0.74
6890.00,0.74
6889.00,0.74
6888.00,0.74
6887.00,0.74
6886.00,0.74
6885.00,0.74
6884.00,0.74
6883.00,0.74
6882.00,0.74
6881.00,0.74
6880.00,0.74
6879.00,0.74
6878.00,0.74
6877.00,0.74
6876.00,0.74
6875.00,0.74
6874.00,0.74
6873.00,0.74
6872.00,0.74
6871.00,0.74
6870.00,0.74
6869.00,0.74
6868.00,0.74
6867.00,0.74
6866.00,0.74
6865.00,0.73
6864.00,0.73
6863.00,0.73
6862.00,0.73
6861.00,0.73
6860.00,0.73
6859.00,0.73
6858.00,0.73
6857.00,0.73
6856.00,0.73
6855.00,0.73
6854.00,0.73
6853.00,0.74
6852.00,0.74
6851.00,0.74
6850.00,0.74
6849.00,0.74
6848.00,0.74
6847.00,0.74
6846.00,0.74
6845.00,0.74
6844.00,0.74
6843.00,0.74
6842.00,0.74
6841.00,0.74
6840.00,0.74
6839.00,0.74
6838.00,0.74
6837.00,0.74
6836.00,0.75
6835.00,0.75
6834.00,0.75
6833.00,0.75
6832.00,0.75
6831.00,0.75
6830.00,0.74
6829.00,0.74
6828.00,0.74
6827.00,0.74
6826.00,0.74
6825.00,0.74
6824.00,0.74
6823.00,0.74
6822.00,0.74
6821.00,0.74
6820.00,0.74
6819.00,0.74
6818.00,0.74
6817.00,0.74
6816.00,0.74
6815.00,0.74
6814.00,0.74
6813.00,0.75
6812.00,0.75
6811.00,0.75
6810.00,0.75
6809.00,0.75
6808.00,0.75
6807.00,0.75
6806.00,0.75
6805.00,0.75
6804.00,0.75
6803.00,0.75
6802.00,0.75
6801.00,0.75
6800.00,0.75
6799.00,0.75
6798.00,0.75
6797.00,0.75
6796.00,0.75
6795.00,0.75
6794.00,0.75
6793.00,0.75
6792.00,0.75
6791.00,0.75
6790.00,0.75
6789.00,0.75
6788.00,0.75
6787.00,0.75
6786.00,0.75
6785.00,0.75
6784.00,0.75
6783.00,0.75
6782.00,0.75
6781.00,0.75
6780.00,0.76
6779.00,0.76
6778.00,0.76
6777.00,0.76
6776.00,0.76
6775.00,0.76
6774.00,0.76
6773.00,0.76
6772.00,0.76
6771.00,0.76
6770.00,0.76
6769.00,0.77
6768.00,0.77
6767.00,0.77
6766.00,0.77
6765.00,0.77
6764.00,0.77
6763.00,0.77
6762.00,0.77
6761.00,0.77
6760.00,0.77
6759.00,0.77
6758.00,0.77
6757.00,0.77
6756.00,0.77
6755.00,0.77
6754.00,0.77
6753.00,0.78
6752.00,0.78
6751.00,0.78
6750.00,0.78
6749.00,0.78
6748.00,0.78
6747.00,0.78
6746.00,0.78
6745.00,0.78
6744.00,0.78
6743.00,0.78
6742.00,0.78
6741.00,0.78
6740.00,0.78
6739.00,0.78
6738.00,0.78
6737.00,0.78
6736.00,0.79
6735.00,0.79
6734.00,0.79
6733.00,0.79
6732.00,0.79
6731.00,0.79
6730.00,0.79
6729.00,0.79
6728.00,0.79
6727.00,0.79
6726.00,0.79
6725.00,0.79
6724.00,0.80
6723.00,0.80
6722.00,0.80
6721.00,0.80
6720.00,0.80
6719.00,0.80
6718.00,0.80
6717.00,0.80
6716.00,0.80
6715.00,0.80
6714.00,0.80
6713.00,0.80
6712.00,0.80
6711.00,0.80
6710.00,0.80
6709.00,0.81
6708.00,0.81
6707.00,0.81
6706.00,0.81
6705.00,0.81
6704.00,0.81
6703.00,0.81
6702.00,0.81
6701.00,0.81
6700.00,0.81
6699.00,0.81
6698.00,0.82
6697.00,0.82
6696.00,0.82
6695.00,0.82
6694.00,0.82
6693.00,0.82
6692.00,0.82
6691.00,0.82
6690.00,0.83
6689.00,0.83
6688.00,0.83
6687.00,0.83
6686.00,0.83
6685.00,0.83
6684.00,0.83
6683.00,0.83
6682.00,0.83
6681.00,0.83
6680.00,0.84
6679.00,0.84
6678.00,0.84
6677.00,0.84
6676.00,0.84
6675.00,0.84
6674.00,0.84
6673.00,0.84
6672.00,0.84
6671.00,0.84
6670.00,0.85
6669.00,0.85
6668.00,0.85
6667.00,0.85
6666.00,0.85
6665.00,0.85
6664.00,0.85
6663.00,0.85
6662.00,0.85
6661.00,0.86
6660.00,0.86
6659.00,0.86
6658.00,0.86
6657.00,0.86
6656.00,0.86
6655.00,0.86
6654.00,0.86
6653.00,0.86
6652.00,0.86
6651.00,0.86
6650.00,0.86
6649.00,0.86
6648.00,0.87
6647.00,0.87
6646.00,0.87
6645.00,0.87
6644.00,0.87
6643.00,0.87
6642.00,0.87
6641.00,0.87
6640.00,0.87
6639.00,0.87
6638.00,0.87
6637.00,0.87
6636.00,0.88
6635.00,0.88
6634.00,0.88
6633.00,0.88
6632.00,0.88
6631.00,0.88
6630.00,0.88
6629.00,0.88
6628.00,0.88
6627.00,0.89
6626.00,0.89
6625.00,0.89
6624.00,0.89
6623.00,0.89
6622.00,0.89
6621.00,0.89
6620.00,0.89
6619.00,0.89
6618.00,0.90
6617.00,0.90
6616.00,0.90
6615.00,0.90
6614.00,0.90
6613.00,0.90
6612.00,0.90
6611.00,0.90
6610.00,0.91
6609.00,0.91
6608.00,0.91
6607.00,0.91
6606.00,0.91
6605.00,0.91
6604.00,0.91
6603.00,0.91
6602.00,0.91
6601.00,0.92
6600.00,0.92
6599.00,0.92
6598.00,0.92
6597.00,0.92
6596.00,0.92
6595.00,0.92
6594.00,0.92
6593.00,0.92
6592.00,0.92
6591.00,0.92
6590.00,0.92
6589.00,0.92
6588.00,0.92
6587.00,0.93
6586.00,0.93
6585.00,0.93
6584.00,0.93
6583.00,0.93
6582.00,0.93
6581.00,0.93
6580.00,0.93
6579.00,0.93
6578.00,0.93
6577.00,0.93
6576.00,0.93
6575.00,0.93
6574.00,0.94
6573.00,0.94
6572.00,0.94
6571.00,0.94
6570.00,0.94
6569.00,0.94
6568.00,0.94
6567.00,0.94
6566.00,0.94
6565.00,0.94
6564.00,0.94
6563.00,0.94
6562.00,0.94
6561.00,0.95
6560.00,0.95
6559.00,0.95
6558.00,0.95
6557.00,0.95
6556.00,0.95
6555.00,0.95
6554.00,0.96
6553.00,0.96
6552.00,0.96
6551.00,0.96
6550.00,0.96
6549.00,0.96
6548.00,0.96
6547.00,0.96
6546.00,0.96
6545.00,0.96
6544.00,0.96
6543.00,0.96
6542.00,0.96
6541.00,0.96
6540.00,0.97
6539.00,0.97
6538.00,0.97
6537.00,0.97
6536.00,0.97
6535.00,0.97
6534.00,0.97
6533.00,0.97
6532.00,0.97
6531.00,0.97
6530.00,0.97
6529.00,0.97
6528.00,0.97
6527.00,0.97
6526.00,0.97
6525.00,0.98
6524.00,0.98
6523.00,0.98
6522.00,0.98
6521.00,0.98
6520.00,0.98
6519.00,0.98
6518.00,0.98
6517.00,0.98
6516.00,0.98
6515.00,0.98
6514.00,0.99
6513.00,0.99
6512.00,0.99
6511.00,0.99
6510.00,0.99
6509.00,0.99
6508.00,0.99
6507.00,0.99
6506.00,0.99
6505.00,0.99
6504.00,0.99
6503.00,0.99
6502.00,0.99
6501.00,0.99
6500.00,0.99
6499.00,0.99
6498.00,0.99
6497.00,0.99
6496.00,0.99
6495.00,0.99
6494.00,1.00
6493.00,1.00
6492.00,1.00
6491.00,1.00
6490.00,1.00
6489.00,1.00
6488.00,1.00
6487.00,1.00
6486.00,1.00
6485.00,1.01
6484.00,1.01
6483.00,1.01
6482.00,1.01
6481.00,1.01
6480.00,1.01
6479.00,1.01
6478.00,1.01
6477.00,1.02
6476.00,1.02
6475.00,1.02
6474.00,1.02
6473.00,1.02
6472.00,1.02
6471.00,1.02
6470.00,1.02
6469.00,1.02
6468.00,1.02
6467.00,1.02
6466.00,1.02
6465.00,1.02
6464.00,1.02
6463.00,1.02
6462.00,1.02
6461.00,1.02
6460.00,1.02
6459.00,1.02
6458.00,1.02
6457.00,1.02
6456.00,1.02
6455.00,1.02
6454.00,1.03
6453.00,1.03
6452.00,1.03
6451.00,1.03
6450.00,1.03
6449.00,1.03
6448.00,1.03
6447.00,1.03
6446.00,1.03
6445.00,1.03
6444.00,1.03
6443.00,1.03
6442.00,1.03
6441.00,1.03
6440.00,1.03
6439.00,1.03
6438.00,1.03
6437.00,1.03
6436.00,1.03
6435.00,1.03
6434.00,1.03
6433.00,1.03
6432.00,1.03
6431.00,1.03
6430.00,1.03
6429.00,1.03
6428.00,1.03
6427.00,1.03
6426.00,1.04
6425.00,1.04
6424.00,1.04
6423.00,1.04
6422.00,1.04
6421.00,1.04
6420.00,1.04
6419.00,1.04
6418.00,1.04
6417.00,1.04
6416.00,1.04
6415.00,1.04
6414.00,1.04
6413.00,1.05
6412.00,1.05
6411.00,1.05
6410.00,1.05
6409.00,1.05
6408.00,1.05
6407.00,1.05
6406.00,1.05
6405.00,1.05
6404.00,1.05
6403.00,1.05
6402.00,1.05
6401.00,1.05
6400.00,1.05
6399.00,1.06
6398.00,1.06
6397.00,1.06
6396.00,1.06
6395.00,1.06
6394.00,1.06
6393.00,1.06
6392.00,1.06
6391.00,1.06
6390.00,1.06
6389.00,1.06
6388.00,1.07
6387.00,1.07
6386.00,1.07
6385.00,1.07
6384.00,1.07
6383.00,1.07
6382.00,1.07
6381.00,1.07
6380.00,1.07
6379.00,1.07
6378.00,1.07
6377.00,1.07
6376.00,1.07
6375.00,1.07
6374.00,1.07
6373.00,1.08
6372.00,1.08
6371.00,1.08
6370.00,1.08
6369.00,1.08
6368.00,1.08
6367.00,1.08
6366.00,1.08
6365.00,1.08
6364.00,1.08
6363.00,1.08
6362.00,1.08
6361.00,1.08
6360.00,1.08
6359.00,1.08
6358.00,1.08
6357.00,1.08
6356.00,1.08
6355.00,1.08
6354.00,1.08
6353.00,1.09
6352.00,1.09
6351.00,1.09
6350.00,1.09
6349.00,1.09
6348.00,1.09
6347.00,1.09
6346.00,1.09
6345.00,1.09
6344.00,1.10
6343.00,1.10
6342.00,1.10
6341.00,1.10
6340.00,1.10
6339.00,1.10
6338.00,1.10
6337.00,1.10
6336.00,1.10
6335.00,1.10
6334.00,1.10
6333.00,1.10
6332.00,1.10
6331.00,1.11
6330.00,1.11
6329.00,1.11
6328.00,1.11
6327.00,1.11
6326.00,1.11
6325.00,1.11
6324.00,1.11
6323.00,1.11
6322.00,1.11
6321.00,1.11
6320.00,1.12
6319.00,1.12
6318.00,1.12
6317.00,1.12
6316.00,1.12
6315.00,1.12
6314.00,1.12
6313.00,1.12
6312.00,1.12
6311.00,1.13
6310.00,1.13
6309.00,1.13
6308.00,1.13
6307.00,1.13
6306.00,1.13
6305.00,1.13
6304.00,1.13
6303.00,1.13
6302.00,1.13
6301.00,1.13
6300.00,1.13
6299.00,1.13
6298.00,1.13
6297.00,1.13
6296.00,1.13
6295.00,1.13
6294.00,1.14
6293.00,1.14
6292.00,1.14
6291.00,1.14
6290.00,1.14
6289.00,1.14
6288.00,1.14
6287.00,1.14
6286.00,1.14
6285.00,1.14
6284.00,1.14
6283.00,1.15
6282.00,1.15
6281.00,1.15
6280.00,1.15
6279.00,1.15
6278.00,1.15
6277.00,1.15
6276.00,1.16
6275.00,1.16
6274.00,1.16
6273.00,1.16
6272.00,1.16
6271.00,1.16
6270.00,1.17
6269.00,1.17
6268.00,1.17
6267.00,1.17
6266.00,1.17
6265.00,1.18
6264.00,1.18
6263.00,1.18
6262.00,1.18
6261.00,1.18
6260.00,1.18
6259.00,1.18
6258.00,1.19
6257.00,1.19
6256.00,1.19
6255.00,1.19
6254.00,1.19
6253.00,1.19
6252.00,1.19
6251.00,1.19
6250.00,1.19
6249.00,1.19
6248.00,1.20
6247.00,1.20
6246.00,1.20
6245.00,1.20
6244.00,1.20
6243.00,1.20
6242.00,1.20
6241.00,1.20
6240.00,1.20
6239.00,1.20
6238.00,1.21
6237.00,1.21
6236.00,1.21
6235.00,1.21
6234.00,1.21
6233.00,1.21
6232.00,1.21
6231.00,1.21
6230.00,1.22
6229.00,1.22
6228.00,1.22
6227.00,1.22
6226.00,1.22
6225.00,1.22
6224.00,1.22
6223.00,1.22
6222.00,1.22
6221.00,1.23
6220.00,1.23
6219.00,1.23
6218.00,1.23
6217.00,1.23
6216.00,1.23
6215.00,1.23
6214.00,1.23
6213.00,1.23
6212.00,1.23
6211.00,1.24
6210.00,1.24
6209.00,1.24
6208.00,1.24
6207.00,1.24
6206.00,1.24
6205.00,1.24
6204.00,1.25
6203.00,1.25
6202.00,1.25
6201.00,1.25
6200.00,1.25
6199.00,1.25
6198.00,1.25
6197.00,1.26
6196.00,1.26
6195.00,1.26
6194.00,1.26
6193.00,1.26
6192.00,1.26
6191.00,1.26
6190.00,1.26
6189.00,1.27
6188.00,1.27
6187.00,1.27
6186.00,1.27
6185.00,1.27
6184.00,1.27
6183.00,1.27
6182.00,1.27
6181.00,1.28
6180.00,1.28
6179.00,1.28
6178.00,1.28
6177.00,1.28
6176.00,1.28
6175.00,1.28
6174.00,1.29
6173.00,1.29
6172.00,1.29
6171.00,1.29
6170.00,1.29
6169.00,1.29
6168.00,1.30
6167.00,1.30
6166.00,1.30
6165.00,1.30
6164.00,1.30
6163.00,1.30
6162.00,1.30
6161.00,1.31
6160.00,1.31
6159.00,1.31
6158.00,1.31
6157.00,1.31
6156.00,1.31
6155.00,1.31
6154.00,1.32
6153.00,1.32
6152.00,1.32
6151.00,1.32
6150.00,1.32
6149.00,1.32
6148.00,1.32
6147.00,1.32
6146.00,1.32
6145.00,1.33
6144.00,1.33
6143.00,1.33
6142.00,1.33
6141.00,1.33
6140.00,1.33
6139.00,1.33
6138.00,1.33
6137.00,1.33
6136.00,1.34
6135.00,1.34
6134.00,1.34
6133.00,1.34
6132.00,1.34
6131.00,1.34
6130.00,1.34
6129.00,1.35
6128.00,1.35
6127.00,1.35
6126.00,1.35
6125.00,1.35
6124.00,1.35
6123.00,1.36
6122.00,1.36
6121.00,1.36
6120.00,1.36
6119.00,1.36
6118.00,1.36
6117.00,1.37
6116.00,1.37
6115.00,1.37
6114.00,1.37
6113.00,1.37
6112.00,1.37
6111.00,1.38
6110.00,1.38
6109.00,1.38
6108.00,1.38
6107.00,1.38
6106.00,1.38
6105.00,1.38
6104.00,1.38
6103.00,1.39
6102.00,1.39
6101.00,1.39
6100.00,1.39
6099.00,1.39
6098.00,1.39
6097.00,1.39
6096.00,1.39
6095.00,1.39
6094.00,1.40
6093.00,1.40
6092.00,1.40
6091.00,1.40
6090.00,1.40
6089.00,1.40
6088.00,1.40
6087.00,1.41
6086.00,1.41
6085.00,1.41
6084.00,1.41
6083.00,1.41
6082.00,1.41
6081.00,1.41
6080.00,1.41
6079.00,1.42
6078.00,1.42
6077.00,1.42
6076.00,1.42
6075.00,1.42
6074.00,1.42
6073.00,1.42
6072.00,1.42
6071.00,1.42
6070.00,1.42
6069.00,1.42
6068.00,1.42
6067.00,1.42
6066.00,1.43
6065.00,1.43
6064.00,1.43
6063.00,1.43
6062.00,1.43
6061.00,1.43
6060.00,1.43
6059.00,1.43
6058.00,1.43
6057.00,1.44
6056.00,1.44
6055.00,1.44
6054.00,1.44
6053.00,1.44
6052.00,1.44
6051.00,1.44
6050.00,1.44
6049.00,1.44
6048.00,1.45
6047.00,1.45
6046.00,1.45
6045.00,1.45
6044.00,1.45
6043.00,1.45
6042.00,1.45
6041.00,1.45
6040.00,1.45
6039.00,1.45
6038.00,1.45
6037.00,1.45
6036.00,1.45
6035.00,1.45
6034.00,1.45
6033.00,1.45
6032.00,1.45
6031.00,1.46
6030.00,1.46
6029.00,1.46
6028.00,1.46
6027.00,1.46
6026.00,1.46
6025.00,1.46
6024.00,1.46
6023.00,1.46
6022.00,1.46
6021.00,1.46
6020.00,1.46
6019.00,1.46
6018.00,1.46
6017.00,1.46
6016.00,1.46
6015.00,1.46
6014.00,1.46
6013.00,1.46
6012.00,1.46
6011.00,1.46
6010.00,1.46
6009.00,1.46
6008.00,1.46
6007.00,1.46
6006.00,1.46
6005.00,1.46
6004.00,1.46
6003.00,1.46
6002.00,1.46
6001.00,1.45
6000.00,1.45
5999.00,1.45
5998.00,1.45
5997.00,1.45
5996.00,1.45
5995.00,1.45
5994.00,1.45
5993.00,1.45
5992.00,1.45
5991.00,1.44
5990.00,1.44
5989.00,1.44
5988.00,1.44
5987.00,1.44
5986.00,1.43
5985.00,1.43
5984.00,1.43
5983.00,1.42
5982.00,1.42
5981.00,1.42
5980.00,1.41
5979.00,1.41
5978.00,1.41
5977.00,1.40
5976.00,1.40
5975.00,1.40
5974.00,1.39
5973.00,1.39
5972.00,1.38
5971.00,1.38
5970.00,1.37
5969.00,1.36
5968.00,1.36
5967.00,1.35
5966.00,1.35
5965.00,1.34
5964.00,1.33
5963.00,1.33
5962.00,1.32
5961.00,1.31
5960.00,1.30
5959.00,1.30
5958.00,1.29
5957.00,1.28
5956.00,1.28
5955.00,1.27
5954.00,1.26
5953.00,1.26
5952.00,1.25
5951.00,1.25
5950.00,1.24
5949.00,1.24
5948.00,1.23
5947.00,1.23
5946.00,1.22
5945.00,1.22
5944.00,1.22
5943.00,1.21
5942.00,1.21
5941.00,1.21
5940.00,1.21
5939.00,1.20
5938.00,1.20
5937.00,1.20
5936.00,1.20
5935.00,1.20
5934.00,1.20
5933.00,1.20
5932.00,1.19
5931.00,1.19
5930.00,1.19
5929.00,1.19
5928.00,1.19
5927.00,1.19
5926.00,1.19
5925.00,1.18
5924.00,1.18
5923.00,1.18
5922.00,1.18
5921.00,1.18
5920.00,1.17
5919.00,1.17
5918.00,1.17
5917.00,1.17
5916.00,1.16
5915.00,1.16
5914.00,1.16
5913.00,1.16
5912.00,1.15
5911.00,1.15
5910.00,1.15
5909.00,1.15
5908.00,1.14
5907.00,1.14
5906.00,1.14
5905.00,1.14
5904.00,1.14
5903.00,1.14
5902.00,1.14
5901.00,1.14
5900.00,1.14
5899.00,1.14
5898.00,1.14
5897.00,1.14
5896.00,1.14
5895.00,1.15
5894.00,1.15
5893.00,1.15
5892.00,1.15
5891.00,1.16
5890.00,1.16
5889.00,1.16
5888.00,1.16
5887.00,1.17
5886.00,1.17
5885.00,1.17
5884.00,1.18
5883.00,1.18
5882.00,1.18
5881.00,1.19
5880.00,1.19
5879.00,1.19
5878.00,1.19
5877.00,1.20
5876.00,1.20
5875.00,1.20
5874.00,1.20
5873.00,1.21
5872.00,1.21
5871.00,1.21
5870.00,1.21
5869.00,1.22
5868.00,1.22
5867.00,1.22
5866.00,1.22
5865.00,1.22
5864.00,1.22
5863.00,1.23
5862.00,1.23
5861.00,1.23
5860.00,1.23
5859.00,1.23
5858.00,1.23
5857.00,1.24
5856.00,1.24
5855.00,1.24
5854.00,1.24
5853.00,1.24
5852.00,1.24
5851.00,1.24
5850.00,1.24
5849.00,1.24
5848.00,1.24
5847.00,1.24
5846.00,1.24
5845.00,1.24
5844.00,1.24
5843.00,1.24
5842.00,1.24
5841.00,1.24
5840.00,1.24
5839.00,1.24
5838.00,1.24
5837.00,1.24
5836.00,1.24
5835.00,1.24
5834.00,1.24
5833.00,1.23
5832.00,1.23
5831.00,1.23
5830.00,1.23
5829.00,1.23
5828.00,1.23
5827.00,1.23
5826.00,1.23
5825.00,1.23
5824.00,1.23
5823.00,1.23
5822.00,1.23
5821.00,1.24
5820.00,1.24
5819.00,1.24
5818.00,1.24
5817.00,1.24
5816.00,1.24
5815.00,1.24
5814.00,1.24
5813.00,1.24
5812.00,1.24
5811.00,1.24
5810.00,1.24
5809.00,1.24
5808.00,1.24
5807.00,1.24
5806.00,1.24
5805.00,1.24
5804.00,1.24
5803.00,1.24
5802.00,1.24
5801.00,1.24
5800.00,1.23
5799.00,1.23
5798.00,1.23
5797.00,1.23
5796.00,1.23
5795.00,1.23
5794.00,1.22
5793.00,1.22
5792.00,1.22
5791.00,1.22
5790.00,1.21
5789.00,1.21
5788.00,1.21
5787.00,1.21
5786.00,1.20
5785.00,1.20
5784.00,1.20
5783.00,1.20
5782.00,1.20
5781.00,1.19
5780.00,1.19
5779.00,1.19
5778.00,1.19
5777.00,1.19
5776.00,1.19
5775.00,1.19
5774.00,1.19
5773.00,1.19
5772.00,1.19
5771.00,1.19
5770.00,1.19
5769.00,1.19
5768.00,1.19
5767.00,1.19
5766.00,1.19
5765.00,1.19
5764.00,1.19
5763.00,1.20
5762.00,1.20
5761.00,1.20
5760.00,1.20
5759.00,1.21
5758.00,1.21
5757.00,1.21
5756.00,1.22
5755.00,1.22
5754.00,1.22
5753.00,1.23
5752.00,1.23
5751.00,1.23
5750.00,1.24
5749.00,1.24
5748.00,1.25
5747.00,1.25
5746.00,1.25
5745.00,1.26
5744.00,1.26
5743.00,1.26
5742.00,1.27
5741.00,1.27
5740.00,1.27
5739.00,1.27
5738.00,1.28
5737.00,1.28
5736.00,1.28
5735.00,1.28
5734.00,1.28
5733.00,1.29
5732.00,1.29
5731.00,1.29
5730.00,1.29
5729.00,1.29
5728.00,1.29
5727.00,1.29
5726.00,1.29
5725.00,1.29
5724.00,1.29
5723.00,1.29
5722.00,1.29
5721.00,1.29
5720.00,1.30
5719.00,1.30
5718.00,1.30
5717.00,1.30
5716.00,1.30
5715.00,1.30
5714.00,1.29
5713.00,1.29
5712.00,1.29
5711.00,1.29
5710.00,1.29
5709.00,1.29
5708.00,1.29
5707.00,1.29
5706.00,1.29
5705.00,1.29
5704.00,1.29
5703.00,1.29
5702.00,1.29
5701.00,1.28
5700.00,1.28
5699.00,1.28
5698.00,1.28
5697.00,1.28
5696.00,1.28
5695.00,1.28
5694.00,1.28
5693.00,1.27
5692.00,1.27
5691.00,1.27
5690.00,1.27
5689.00,1.27
5688.00,1.27
5687.00,1.27
5686.00,1.27
5685.00,1.27
5684.00,1.27
5683.00,1.26
5682.00,1.26
5681.00,1.26
5680.00,1.26
5679.00,1.26
5678.00,1.26
5677.00,1.26
5676.00,1.26
5675.00,1.26
5674.00,1.26
5673.00,1.26
5672.00,1.26
5671.00,1.26
5670.00,1.26
5669.00,1.26
5668.00,1.26
5667.00,1.26
5666.00,1.26
5665.00,1.27
5664.00,1.27
5663.00,1.27
5662.00,1.27
5661.00,1.27
5660.00,1.27
5659.00,1.27
5658.00,1.27
5657.00,1.27
5656.00,1.28
5655.00,1.28
5654.00,1.28
5653.00,1.28
5652.00,1.28
5651.00,1.29
5650.00,1.29
5649.00,1.29
5648.00,1.29
5647.00,1.29
5646.00,1.30
5645.00,1.30
5644.00,1.30
5643.00,1.30
5642.00,1.30
5641.00,1.31
5640.00,1.31
5639.00,1.31
5638.00,1.31
5637.00,1.31
5636.00,1.31
5635.00,1.32
5634.00,1.32
5633.00,1.32
5632.00,1.32
5631.00,1.32
5630.00,1.32
5629.00,1.32
5628.00,1.33
5627.00,1.33
5626.00,1.33
5625.00,1.33
5624.00,1.33
5623.00,1.33
5622.00,1.33
5621.00,1.33
5620.00,1.34
5619.00,1.34
5618.00,1.34
5617.00,1.34
5616.00,1.34
5615.00,1.34
5614.00,1.35
5613.00,1.35
5612.00,1.35
5611.00,1.35
5610.00,1.35
5609.00,1.36
5608.00,1.36
5607.00,1.36
5606.00,1.36
5605.00,1.36
5604.00,1.37
5603.00,1.37
5602.00,1.37
5601.00,1.37
5600.00,1.37
5599.00,1.37
5598.00,1.38
5597.00,1.38
5596.00,1.38
5595.00,1.38
5594.00,1.38
5593.00,1.38
5592.00,1.39
5591.00,1.39
5590.00,1.39
5589.00,1.39
5588.00,1.39
5587.00,1.39
5586.00,1.39
5585.00,1.40
5584.00,1.40
5583.00,1.40
5582.00,1.40
5581.00,1.40
5580.00,1.40
5579.00,1.40
5578.00,1.40
5577.00,1.40
5576.00,1.40
5575.00,1.41
5574.00,1.41
5573.00,1.41
5572.00,1.41
5571.00,1.41
5570.00,1.41
5569.00,1.41
5568.00,1.42
5567.00,1.42
5566.00,1.42
5565.00,1.42
5564.00,1.42
5563.00,1.42
5562.00,1.43
5561.00,1.43
5560.00,1.43
5559.00,1.43
5558.00,1.43
5557.00,1.43
5556.00,1.43
5555.00,1.43
5554.00,1.44
5553.00,1.44
5552.00,1.44
5551.00,1.44
5550.00,1.44
5549.00,1.44
5548.00,1.44
5547.00,1.44
5546.00,1.44
5545.00,1.45
5544.00,1.45
5543.00,1.45
5542.00,1.45
5541.00,1.45
5540.00,1.45
5539.00,1.45
5538.00,1.45
5537.00,1.46
5536.00,1.46
5535.00,1.46
5534.00,1.46
5533.00,1.46
5532.00,1.46
5531.00,1.46
5530.00,1.46
5529.00,1.46
5528.00,1.47
5527.00,1.47
5526.00,1.47
5525.00,1.47
5524.00,1.47
5523.00,1.47
5522.00,1.47
5521.00,1.47
5520.00,1.47
5519.00,1.47
5518.00,1.47
5517.00,1.47
5516.00,1.47
5515.00,1.47
5514.00,1.47
5513.00,1.47
5512.00,1.47
5511.00,1.47
5510.00,1.47
5509.00,1.47
5508.00,1.47
5507.00,1.47
5506.00,1.48
5505.00,1.48
5504.00,1.48
5503.00,1.48
5502.00,1.48
5501.00,1.48
5500.00,1.48
5499.00,1.48
5498.00,1.48
5497.00,1.48
5496.00,1.48
5495.00,1.48
5494.00,1.48
5493.00,1.48
5492.00,1.48
5491.00,1.49
5490.00,1.49
5489.00,1.49
5488.00,1.49
5487.00,1.49
5486.00,1.49
5485.00,1.49
5484.00,1.49
5483.00,1.50
5482.00,1.50
5481.00,1.50
5480.00,1.50
5479.00,1.50
5478.00,1.50
5477.00,1.50
5476.00,1.51
5475.00,1.51
5474.00,1.51
5473.00,1.51
5472.00,1.51
5471.00,1.51
5470.00,1.51
5469.00,1.51
5468.00,1.52
5467.00,1.52
5466.00,1.52
5465.00,1.52
5464.00,1.52
5463.00,1.52
5462.00,1.52
5461.00,1.52
5460.00,1.52
5459.00,1.53
5458.00,1.53
5457.00,1.53
5456.00,1.53
5455.00,1.53
5454.00,1.53
5453.00,1.53
5452.00,1.53
5451.00,1.53
5450.00,1.53
5449.00,1.53
5448.00,1.53
5447.00,1.53
5446.00,1.53
5445.00,1.53
5444.00,1.53
5443.00,1.53
5442.00,1.53
5441.00,1.53
5440.00,1.53
5439.00,1.53
5438.00,1.53
5437.00,1.53
5436.00,1.53
5435.00,1.53
5434.00,1.53
5433.00,1.53
5432.00,1.53
5431.00,1.53
5430.00,1.53
5429.00,1.53
5428.00,1.53
5427.00,1.53
5426.00,1.53
5425.00,1.53
5424.00,1.53
5423.00,1.53
5422.00,1.53
5421.00,1.53
5420.00,1.54
5419.00,1.54
5418.00,1.54
5417.00,1.54
5416.00,1.54
5415.00,1.54
5414.00,1.54
5413.00,1.54
5412.00,1.54
5411.00,1.54
5410.00,1.54
5409.00,1.54
5408.00,1.54
5407.00,1.54
5406.00,1.54
5405.00,1.54
5404.00,1.54
5403.00,1.53
5402.00,1.53
5401.00,1.53
5400.00,1.53
5399.00,1.53
5398.00,1.53
5397.00,1.53
5396.00,1.53
5395.00,1.53
5394.00,1.53
5393.00,1.53
5392.00,1.52
5391.00,1.52
5390.00,1.52
5389.00,1.52
5388.00,1.52
5387.00,1.52
5386.00,1.51
5385.00,1.51
5384.00,1.51
5383.00,1.51
5382.00,1.51
5381.00,1.50
5380.00,1.50
5379.00,1.50
5378.00,1.49
5377.00,1.49
5376.00,1.49
5375.00,1.48
5374.00,1.48
5373.00,1.48
5372.00,1.47
5371.00,1.47
5370.00,1.46
5369.00,1.46
5368.00,1.45
5367.00,1.45
5366.00,1.44
5365.00,1.44
5364.00,1.43
5363.00,1.42
5362.00,1.42
5361.00,1.41
5360.00,1.41
5359.00,1.40
5358.00,1.39
5357.00,1.39
5356.00,1.38
5355.00,1.37
5354.00,1.36
5353.00,1.36
5352.00,1.35
5351.00,1.34
5350.00,1.33
5349.00,1.32
5348.00,1.31
5347.00,1.31
5346.00,1.30
5345.00,1.29
5344.00,1.28
5343.00,1.27
5342.00,1.26
5341.00,1.25
5340.00,1.24
5339.00,1.23
5338.00,1.22
5337.00,1.21
5336.00,1.20
5335.00,1.19
5334.00,1.18
5333.00,1.17
5332.00,1.16
5331.00,1.15
5330.00,1.14
5329.00,1.13
5328.00,1.12
5327.00,1.11
5326.00,1.10
5325.00,1.09
5324.00,1.08
5323.00,1.07
5322.00,1.06
5321.00,1.04
5320.00,1.03
5319.00,1.02
5318.00,1.01
5317.00,1.00
5316.00,0.99
5315.00,0.98
5314.00,0.98
5313.00,0.97
5312.00,0.96
5311.00,0.95
5310.00,0.94
5309.00,0.93
5308.00,0.92
5307.00,0.92
5306.00,0.91
5305.00,0.90
5304.00,0.89
5303.00,0.89
5302.00,0.88
5301.00,0.88
5300.00,0.87
5299.00,0.87
5298.00,0.86
5297.00,0.86
5296.00,0.85
5295.00,0.85
5294.00,0.85
5293.00,0.84
5292.00,0.84
5291.00,0.84
5290.00,0.83
5289.00,0.83
5288.00,0.83
5287.00,0.82
5286.00,0.82
5285.00,0.82
5284.00,0.82
5283.00,0.81
5282.00,0.81
5281.00,0.81
5280.00,0.81
5279.00,0.81
5278.00,0.81
5277.00,0.81
5276.00,0.80
5275.00,0.80
5274.00,0.80
5273.00,0.80
5272.00,0.80
5271.00,0.80
5270.00,0.80
5269.00,0.80
5268.00,0.80
5267.00,0.80
5266.00,0.80
5265.00,0.80
5264.00,0.80
5263.00,0.80
5262.00,0.80
5261.00,0.80
5260.00,0.80
5259.00,0.80
5258.00,0.80
5257.00,0.80
5256.00,0.80
5255.00,0.80
5254.00,0.80
5253.00,0.80
5252.00,0.80
5251.00,0.80
5250.00,0.80
5249.00,0.80
5248.00,0.79
5247.00,0.79
5246.00,0.79
5245.00,0.79
5244.00,0.79
5243.00,0.79
5242.00,0.79
5241.00,0.79
5240.00,0.79
5239.00,0.79
5238.00,0.79
5237.00,0.79
5236.00,0.79
5235.00,0.79
5234.00,0.79
5233.00,0.79
5232.00,0.79
5231.00,0.79
5230.00,0.79
5229.00,0.79
5228.00,0.79
5227.00,0.79
5226.00,0.79
5225.00,0.79
5224.00,0.79
5223.00,0.79
5222.00,0.79
5221.00,0.79
5220.00,0.79
5219.00,0.79
5218.00,0.79
5217.00,0.79
5216.00,0.79
5215.00,0.79
5214.00,0.79
5213.00,0.79
5212.00,0.79
5211.00,0.79
5210.00,0.79
5209.00,0.79
5208.00,0.79
5207.00,0.79
5206.00,0.79
5205.00,0.79
5204.00,0.79
5203.00,0.80
5202.00,0.80
5201.00,0.80
5200.00,0.80
5199.00,0.80
5198.00,0.80
5197.00,0.80
5196.00,0.80
5195.00,0.80
5194.00,0.80
5193.00,0.80
5192.00,0.80
5191.00,0.80
5190.00,0.80
5189.00,0.80
5188.00,0.80
5187.00,0.80
5186.00,0.80
5185.00,0.80
5184.00,0.80
5183.00,0.80
5182.00,0.80
5181.00,0.81
5180.00,0.81
5179.00,0.81
5178.00,0.81
5177.00,0.81
5176.00,0.81
5175.00,0.81
5174.00,0.81
5173.00,0.81
5172.00,0.81
5171.00,0.81
5170.00,0.81
5169.00,0.81
5168.00,0.81
5167.00,0.81
5166.00,0.81
5165.00,0.82
5164.00,0.82
5163.00,0.82
5162.00,0.82
5161.00,0.82
5160.00,0.82
5159.00,0.82
5158.00,0.82
5157.00,0.82
5156.00,0.82
5155.00,0.82
5154.00,0.82
5153.00,0.82
5152.00,0.82
5151.00,0.82
5150.00,0.82
5149.00,0.82
5148.00,0.82
5147.00,0.82
5146.00,0.82
5145.00,0.82
5144.00,0.82
5143.00,0.82
5142.00,0.82
5141.00,0.82
5140.00,0.82
5139.00,0.82
5138.00,0.82
5137.00,0.83
5136.00,0.83
5135.00,0.83
5134.00,0.83
5133.00,0.83
5132.00,0.83
5131.00,0.83
5130.00,0.83
5129.00,0.83
5128.00,0.83
5127.00,0.84
5126.00,0.84
5125.00,0.84
5124.00,0.84
5123.00,0.84
5122.00,0.84
5121.00,0.84
5120.00,0.84
5119.00,0.84
5118.00,0.84
5117.00,0.84
5116.00,0.84
5115.00,0.84
5114.00,0.84
5113.00,0.84
5112.00,0.85
5111.00,0.85
5110.00,0.85
5109.00,0.85
5108.00,0.85
5107.00,0.85
5106.00,0.85
5105.00,0.85
5104.00,0.85
5103.00,0.85
5102.00,0.85
5101.00,0.85
5100.00,0.85
5099.00,0.85
5098.00,0.85
5097.00,0.85
5096.00,0.85
5095.00,0.85
5094.00,0.85
5093.00,0.85
5092.00,0.85
5091.00,0.85
5090.00,0.85
5089.00,0.85
5088.00,0.86
5087.00,0.86
5086.00,0.86
5085.00,0.86
5084.00,0.86
5083.00,0.86
5082.00,0.86
5081.00,0.86
5080.00,0.86
5079.00,0.86
5078.00,0.86
5077.00,0.86
5076.00,0.87
5075.00,0.87
5074.00,0.87
5073.00,0.87
5072.00,0.87
5071.00,0.87
5070.00,0.87
5069.00,0.87
5068.00,0.87
5067.00,0.87
5066.00,0.87
5065.00,0.87
5064.00,0.87
5063.00,0.87
5062.00,0.87
5061.00,0.87
5060.00,0.87
5059.00,0.88
5058.00,0.88
5057.00,0.88
5056.00,0.88
5055.00,0.88
5054.00,0.88
5053.00,0.88
5052.00,0.88
5051.00,0.88
5050.00,0.88
5049.00,0.88
5048.00,0.88
5047.00,0.89
5046.00,0.89
5045.00,0.89
5044.00,0.89
5043.00,0.89
5042.00,0.89
5041.00,0.89
5040.00,0.89
5039.00,0.89
5038.00,0.89
5037.00,0.89
5036.00,0.89
5035.00,0.90
5034.00,0.90
5033.00,0.90
5032.00,0.90
5031.00,0.90
5030.00,0.90
5029.00,0.90
5028.00,0.90
5027.00,0.90
5026.00,0.90
5025.00,0.90
5024.00,0.90
5023.00,0.91
5022.00,0.91
5021.00,0.91
5020.00,0.91
5019.00,0.91
5018.00,0.91
5017.00,0.91
5016.00,0.91
5015.00,0.91
5014.00,0.91
5013.00,0.91
5012.00,0.92
5011.00,0.92
5010.00,0.92
5009.00,0.92
5008.00,0.92
5007.00,0.92
5006.00,0.92
5005.00,0.92
5004.00,0.92
5003.00,0.93
5002.00,0.93
5001.00,0.93
5000.00,0.93
4999.00,0.93
4998.00,0.93
4997.00,0.93
4996.00,0.93
4995.00,0.93
4994.00,0.93
4993.00,0.94
4992.00,0.94
4991.00,0.94
4990.00,0.94
4989.00,0.94
4988.00,0.94
4987.00,0.94
4986.00,0.94
4985.00,0.94
4984.00,0.94
4983.00,0.95
4982.00,0.95
4981.00,0.95
4980.00,0.95
4979.00,0.95
4978.00,0.95
4977.00,0.95
4976.00,0.95
4975.00,0.95
4974.00,0.96
4973.00,0.96
4972.00,0.96
4971.00,0.96
4970.00,0.96
4969.00,0.96
4968.00,0.96
4967.00,0.96
4966.00,0.96
4965.00,0.96
4964.00,0.96
4963.00,0.96
4962.00,0.97
4961.00,0.97
4960.00,0.97
4959.00,0.97
4958.00,0.97
4957.00,0.97
4956.00,0.97
4955.00,0.97
4954.00,0.97
4953.00,0.97
4952.00,0.98
4951.00,0.98
4950.00,0.98
4949.00,0.98
4948.00,0.98
4947.00,0.98
4946.00,0.98
4945.00,0.98
4944.00,0.98
4943.00,0.98
4942.00,0.98
4941.00,0.98
4940.00,0.98
4939.00,0.98
4938.00,0.98
4937.00,0.98
4936.00,0.98
4935.00,0.99
4934.00,0.99
4933.00,0.99
4932.00,0.99
4931.00,0.99
4930.00,0.99
4929.00,0.99
4928.00,0.99
4927.00,0.99
4926.00,0.99
4925.00,0.99
4924.00,0.99
4923.00,0.99
4922.00,0.99
4921.00,0.99
4920.00,0.99
4919.00,0.99
4918.00,0.99
4917.00,0.99
4916.00,1.00
4915.00,1.00
4914.00,1.00
4913.00,1.00
4912.00,1.00
4911.00,1.00
4910.00,1.00
4909.00,1.00
4908.00,1.00
4907.00,1.00
4906.00,1.01
4905.00,1.01
4904.00,1.01
4903.00,1.01
4902.00,1.01
4901.00,1.01
4900.00,1.01
4899.00,1.01
4898.00,1.01
4897.00,1.01
4896.00,1.01
4895.00,1.01
4894.00,1.01
4893.00,1.01
4892.00,1.01
4891.00,1.02
4890.00,1.02
4889.00,1.02
4888.00,1.02
4887.00,1.02
4886.00,1.02
4885.00,1.02
4884.00,1.02
4883.00,1.02
4882.00,1.02
4881.00,1.02
4880.00,1.03
4879.00,1.03
4878.00,1.03
4877.00,1.03
4876.00,1.03
4875.00,1.03
4874.00,1.03
4873.00,1.03
4872.00,1.03
4871.00,1.03
4870.00,1.03
4869.00,1.03
4868.00,1.03
4867.00,1.03
4866.00,1.03
4865.00,1.03
4864.00,1.03
4863.00,1.03
4862.00,1.03
4861.00,1.03
4860.00,1.04
4859.00,1.04
4858.00,1.04
4857.00,1.04
4856.00,1.04
4855.00,1.04
4854.00,1.04
4853.00,1.04
4852.00,1.04
4851.00,1.05
4850.00,1.05
4849.00,1.05
4848.00,1.05
4847.00,1.05
4846.00,1.05
4845.00,1.05
4844.00,1.06
4843.00,1.06
4842.00,1.06
4841.00,1.06
4840.00,1.06
4839.00,1.06
4838.00,1.06
4837.00,1.06
4836.00,1.06
4835.00,1.06
4834.00,1.07
4833.00,1.07
4832.00,1.07
4831.00,1.07
4830.00,1.07
4829.00,1.07
4828.00,1.07
4827.00,1.07
4826.00,1.07
4825.00,1.07
4824.00,1.07
4823.00,1.07
4822.00,1.07
4821.00,1.07
4820.00,1.07
4819.00,1.08
4818.00,1.08
4817.00,1.08
4816.00,1.08
4815.00,1.08
4814.00,1.08
4813.00,1.08
4812.00,1.08
4811.00,1.08
4810.00,1.08
4809.00,1.08
4808.00,1.08
4807.00,1.09
4806.00,1.09
4805.00,1.09
4804.00,1.09
4803.00,1.09
4802.00,1.09
4801.00,1.09
4800.00,1.09
4799.00,1.10
4798.00,1.10
4797.00,1.10
4796.00,1.10
4795.00,1.10
4794.00,1.10
4793.00,1.10
4792.00,1.11
4791.00,1.11
4790.00,1.11
4789.00,1.11
4788.00,1.11
4787.00,1.11
4786.00,1.12
4785.00,1.12
4784.00,1.12
4783.00,1.12
4782.00,1.12
4781.00,1.12
4780.00,1.13
4779.00,1.13
4778.00,1.13
4777.00,1.13
4776.00,1.13
4775.00,1.13
4774.00,1.14
4773.00,1.14
4772.00,1.14
4771.00,1.14
4770.00,1.14
4769.00,1.14
4768.00,1.14
4767.00,1.14
4766.00,1.15
4765.00,1.15
4764.00,1.15
4763.00,1.15
4762.00,1.15
4761.00,1.15
4760.00,1.15
4759.00,1.16
4758.00,1.16
4757.00,1.16
4756.00,1.16
4755.00,1.16
4754.00,1.16
4753.00,1.17
4752.00,1.17
4751.00,1.17
4750.00,1.17
4749.00,1.17
4748.00,1.17
4747.00,1.18
4746.00,1.18
4745.00,1.18
4744.00,1.18
4743.00,1.18
4742.00,1.18
4741.00,1.18
4740.00,1.19
4739.00,1.19
4738.00,1.19
4737.00,1.19
4736.00,1.19
4735.00,1.19
4734.00,1.19
4733.00,1.19
4732.00,1.20
4731.00,1.20
4730.00,1.20
4729.00,1.20
4728.00,1.20
4727.00,1.20
4726.00,1.20
4725.00,1.20
4724.00,1.21
4723.00,1.21
4722.00,1.21
4721.00,1.21
4720.00,1.21
4719.00,1.21
4718.00,1.22
4717.00,1.22
4716.00,1.22
4715.00,1.22
4714.00,1.22
4713.00,1.23
4712.00,1.23
4711.00,1.23
4710.00,1.23
4709.00,1.24
4708.00,1.24
4707.00,1.24
4706.00,1.24
4705.00,1.24
4704.00,1.25
4703.00,1.25
4702.00,1.25
4701.00,1.25
4700.00,1.25
4699.00,1.26
4698.00,1.26
4697.00,1.26
4696.00,1.26
4695.00,1.26
4694.00,1.27
4693.00,1.27
4692.00,1.27
4691.00,1.27
4690.00,1.27
4689.00,1.27
4688.00,1.28
4687.00,1.28
4686.00,1.28
4685.00,1.28
4684.00,1.28
4683.00,1.28
4682.00,1.28
4681.00,1.28
4680.00,1.28
4679.00,1.29
4678.00,1.29
4677.00,1.29
4676.00,1.29
4675.00,1.29
4674.00,1.29
4673.00,1.29
4672.00,1.29
4671.00,1.29
4670.00,1.30
4669.00,1.30
4668.00,1.30
4667.00,1.30
4666.00,1.30
4665.00,1.30
4664.00,1.31
4663.00,1.31
4662.00,1.31
4661.00,1.31
4660.00,1.31
4659.00,1.32
4658.00,1.32
4657.00,1.32
4656.00,1.32
4655.00,1.32
4654.00,1.33
4653.00,1.33
4652.00,1.33
4651.00,1.33
4650.00,1.33
4649.00,1.34
4648.00,1.34
4647.00,1.34
4646.00,1.34
4645.00,1.34
4644.00,1.34
4643.00,1.35
4642.00,1.35
4641.00,1.35
4640.00,1.35
4639.00,1.35
4638.00,1.35
4637.00,1.35
4636.00,1.35
4635.00,1.35
4634.00,1.35
4633.00,1.36
4632.00,1.36
4631.00,1.36
4630.00,1.36
4629.00,1.36
4628.00,1.36
4627.00,1.36
4626.00,1.36
4625.00,1.36
4624.00,1.37
4623.00,1.37
4622.00,1.37
4621.00,1.37
4620.00,1.37
4619.00,1.37
4618.00,1.37
4617.00,1.37
4616.00,1.38
4615.00,1.38
4614.00,1.38
4613.00,1.38
4612.00,1.38
4611.00,1.38
4610.00,1.38
4609.00,1.38
4608.00,1.38
4607.00,1.38
4606.00,1.38
4605.00,1.39
4604.00,1.39
4603.00,1.39
4602.00,1.39
4601.00,1.39
4600.00,1.39
4599.00,1.39
4598.00,1.39
4597.00,1.39
4596.00,1.39
4595.00,1.40
4594.00,1.40
4593.00,1.40
4592.00,1.40
4591.00,1.40
4590.00,1.40
4589.00,1.40
4588.00,1.40
4587.00,1.40
4586.00,1.40
4585.00,1.41
4584.00,1.41
4583.00,1.41
4582.00,1.41
4581.00,1.41
4580.00,1.41
4579.00,1.41
4578.00,1.41
4577.00,1.41
4576.00,1.41
4575.00,1.41
4574.00,1.41
4573.00,1.41
4572.00,1.41
4571.00,1.41
4570.00,1.41
4569.00,1.42
4568.00,1.42
4567.00,1.42
4566.00,1.42
4565.00,1.42
4564.00,1.42
4563.00,1.42
4562.00,1.42
4561.00,1.42
4560.00,1.42
4559.00,1.43
4558.00,1.43
4557.00,1.43
4556.00,1.43
4555.00,1.43
4554.00,1.43
4553.00,1.43
4552.00,1.43
4551.00,1.43
4550.00,1.43
4549.00,1.44
4548.00,1.44
4547.00,1.44
4546.00,1.44
4545.00,1.44
4544.00,1.44
4543.00,1.44
4542.00,1.44
4541.00,1.44
4540.00,1.44
4539.00,1.44
4538.00,1.44
4537.00,1.45
4536.00,1.45
4535.00,1.45
4534.00,1.45
4533.00,1.45
4532.00,1.45
4531.00,1.45
4530.00,1.45
4529.00,1.45
4528.00,1.45
4527.00,1.45
4526.00,1.45
4525.00,1.45
4524.00,1.45
4523.00,1.46
4522.00,1.46
4521.00,1.46
4520.00,1.46
4519.00,1.46
4518.00,1.46
4517.00,1.46
4516.00,1.46
4515.00,1.46
4514.00,1.46
4513.00,1.46
4512.00,1.46
4511.00,1.46
4510.00,1.46
4509.00,1.46
4508.00,1.46
4507.00,1.46
4506.00,1.46
4505.00,1.46
4504.00,1.46
4503.00,1.46
4502.00,1.46
4501.00,1.46
4500.00,1.46
4499.00,1.46
4498.00,1.46
4497.00,1.46
4496.00,1.46
4495.00,1.46
4494.00,1.46
4493.00,1.46
4492.00,1.46
4491.00,1.46
4490.00,1.45
4489.00,1.45
4488.00,1.45
4487.00,1.45
4486.00,1.45
4485.00,1.45
4484.00,1.45
4483.00,1.45
4482.00,1.44
4481.00,1.44
4480.00,1.44
4479.00,1.44
4478.00,1.44
4477.00,1.44
4476.00,1.43
4475.00,1.43
4474.00,1.43
4473.00,1.43
4472.00,1.43
4471.00,1.42
4470.00,1.42
4469.00,1.42
4468.00,1.41
4467.00,1.41
4466.00,1.41
4465.00,1.40
4464.00,1.40
4463.00,1.40
4462.00,1.39
4461.00,1.39
4460.00,1.38
4459.00,1.38
4458.00,1.38
4457.00,1.37
4456.00,1.37
4455.00,1.36
4454.00,1.36
4453.00,1.35
4452.00,1.35
4451.00,1.34
4450.00,1.34
4449.00,1.34
4448.00,1.33
4447.00,1.33
4446.00,1.32
4445.00,1.32
4444.00,1.32
4443.00,1.31
4442.00,1.31
4441.00,1.30
4440.00,1.30
4439.00,1.30
4438.00,1.29
4437.00,1.29
4436.00,1.29
4435.00,1.28
4434.00,1.28
4433.00,1.28
4432.00,1.27
4431.00,1.27
4430.00,1.27
4429.00,1.26
4428.00,1.26
4427.00,1.26
4426.00,1.26
4425.00,1.25
4424.00,1.25
4423.00,1.25
4422.00,1.25
4421.00,1.25
4420.00,1.24
4419.00,1.24
4418.00,1.24
4417.00,1.24
4416.00,1.24
4415.00,1.24
4414.00,1.24
4413.00,1.24
4412.00,1.24
4411.00,1.24
4410.00,1.24
4409.00,1.24
4408.00,1.24
4407.00,1.24
4406.00,1.25
4405.00,1.25
4404.00,1.25
4403.00,1.25
4402.00,1.25
4401.00,1.25
4400.00,1.25
4399.00,1.25
4398.00,1.25
4397.00,1.26
4396.00,1.26
4395.00,1.26
4394.00,1.26
4393.00,1.26
4392.00,1.26
4391.00,1.27
4390.00,1.27
4389.00,1.27
4388.00,1.27
4387.00,1.27
4386.00,1.28
4385.00,1.28
4384.00,1.28
4383.00,1.28
4382.00,1.28
4381.00,1.29
4380.00,1.29
4379.00,1.29
4378.00,1.29
4377.00,1.29
4376.00,1.29
4375.00,1.29
4374.00,1.29
4373.00,1.29
4372.00,1.29
4371.00,1.29
4370.00,1.30
4369.00,1.30
4368.00,1.30
4367.00,1.30
4366.00,1.30
4365.00,1.30
4364.00,1.30
4363.00,1.30
4362.00,1.30
4361.00,1.30
4360.00,1.30
4359.00,1.30
4358.00,1.30
4357.00,1.30
4356.00,1.30
4355.00,1.30
4354.00,1.30
4353.00,1.30
4352.00,1.30
4351.00,1.30
4350.00,1.30
4349.00,1.29
4348.00,1.29
4347.00,1.29
4346.00,1.30
4345.00,1.30
4344.00,1.30
4343.00,1.30
4342.00,1.30
4341.00,1.30
4340.00,1.30
4339.00,1.30
4338.00,1.30
4337.00,1.30
4336.00,1.30
4335.00,1.30
4334.00,1.31
4333.00,1.31
4332.00,1.31
4331.00,1.31
4330.00,1.31
4329.00,1.31
4328.00,1.31
4327.00,1.31
4326.00,1.32
4325.00,1.32
4324.00,1.32
4323.00,1.32
4322.00,1.32
4321.00,1.32
4320.00,1.32
4319.00,1.32
4318.00,1.33
4317.00,1.33
4316.00,1.33
4315.00,1.33
4314.00,1.33
4313.00,1.33
4312.00,1.33
4311.00,1.34
4310.00,1.34
4309.00,1.34
4308.00,1.34
4307.00,1.34
4306.00,1.34
4305.00,1.34
4304.00,1.35
4303.00,1.35
4302.00,1.35
4301.00,1.35
4300.00,1.35
4299.00,1.36
4298.00,1.36
4297.00,1.36
4296.00,1.36
4295.00,1.36
4294.00,1.37
4293.00,1.37
4292.00,1.37
4291.00,1.37
4290.00,1.37
4289.00,1.38
4288.00,1.38
4287.00,1.38
4286.00,1.38
4285.00,1.38
4284.00,1.38
4283.00,1.38
4282.00,1.38
4281.00,1.38
4280.00,1.38
4279.00,1.38
4278.00,1.38
4277.00,1.38
4276.00,1.38
4275.00,1.38
4274.00,1.38
4273.00,1.38
4272.00,1.38
4271.00,1.38
4270.00,1.38
4269.00,1.37
4268.00,1.37
4267.00,1.37
4266.00,1.37
4265.00,1.37
4264.00,1.37
4263.00,1.37
4262.00,1.37
4261.00,1.37
4260.00,1.37
4259.00,1.37
4258.00,1.37
4257.00,1.36
4256.00,1.36
4255.00,1.36
4254.00,1.36
4253.00,1.36
4252.00,1.37
4251.00,1.37
4250.00,1.37
4249.00,1.37
4248.00,1.37
4247.00,1.37
4246.00,1.37
4245.00,1.37
4244.00,1.38
4243.00,1.38
4242.00,1.38
4241.00,1.38
4240.00,1.38
4239.00,1.39
4238.00,1.39
4237.00,1.39
4236.00,1.39
4235.00,1.39
4234.00,1.40
4233.00,1.40
4232.00,1.40
4231.00,1.40
4230.00,1.41
4229.00,1.41
4228.00,1.41
4227.00,1.41
4226.00,1.41
4225.00,1.41
4224.00,1.42
4223.00,1.42
4222.00,1.42
4221.00,1.42
4220.00,1.42
4219.00,1.42
4218.00,1.42
4217.00,1.42
4216.00,1.42
4215.00,1.42
4214.00,1.42
4213.00,1.42
4212.00,1.42
4211.00,1.42
4210.00,1.42
4209.00,1.43
4208.00,1.43
4207.00,1.43
4206.00,1.43
4205.00,1.43
4204.00,1.43
4203.00,1.43
4202.00,1.43
4201.00,1.43
4200.00,1.43
4199.00,1.43
4198.00,1.43
4197.00,1.43
4196.00,1.43
4195.00,1.43
4194.00,1.43
4193.00,1.43
4192.00,1.43
4191.00,1.43
4190.00,1.43
4189.00,1.42
4188.00,1.42
4187.00,1.42
4186.00,1.42
4185.00,1.42
4184.00,1.42
4183.00,1.42
4182.00,1.42
4181.00,1.42
4180.00,1.42
4179.00,1.42
4178.00,1.42
4177.00,1.42
4176.00,1.42
4175.00,1.42
4174.00,1.42
4173.00,1.42
4172.00,1.42
4171.00,1.43
4170.00,1.43
4169.00,1.43
4168.00,1.43
4167.00,1.44
4166.00,1.44
4165.00,1.44
4164.00,1.44
4163.00,1.45
4162.00,1.45
4161.00,1.45
4160.00,1.45
4159.00,1.45
4158.00,1.46
4157.00,1.46
4156.00,1.46
4155.00,1.46
4154.00,1.46
4153.00,1.46
4152.00,1.46
4151.00,1.46
4150.00,1.46
4149.00,1.46
4148.00,1.46
4147.00,1.46
4146.00,1.46
4145.00,1.46
4144.00,1.46
4143.00,1.46
4142.00,1.46
4141.00,1.46
4140.00,1.46
4139.00,1.46
4138.00,1.46
4137.00,1.46
4136.00,1.46
4135.00,1.45
4134.00,1.45
4133.00,1.45
4132.00,1.45
4131.00,1.45
4130.00,1.45
4129.00,1.45
4128.00,1.45
4127.00,1.45
4126.00,1.45
4125.00,1.45
4124.00,1.45
4123.00,1.45
4122.00,1.45
4121.00,1.46
4120.00,1.46
4119.00,1.46
4118.00,1.46
4117.00,1.46
4116.00,1.46
4115.00,1.46
4114.00,1.46
4113.00,1.46
4112.00,1.46
4111.00,1.46
4110.00,1.46
4109.00,1.46
4108.00,1.46
4107.00,1.46
4106.00,1.46
4105.00,1.46
4104.00,1.46
4103.00,1.46
4102.00,1.46
4101.00,1.46
4100.00,1.46
4099.00,1.46
4098.00,1.46
4097.00,1.46
4096.00,1.46
4095.00,1.46
4094.00,1.47
4093.00,1.47
4092.00,1.47
4091.00,1.47
4090.00,1.47
4089.00,1.47
4088.00,1.47
4087.00,1.47
4086.00,1.47
4085.00,1.47
4084.00,1.47
4083.00,1.47
4082.00,1.47
4081.00,1.47
4080.00,1.47
4079.00,1.47
4078.00,1.47
4077.00,1.47
4076.00,1.47
4075.00,1.47
4074.00,1.47
4073.00,1.47
4072.00,1.48
4071.00,1.48
4070.00,1.48
4069.00,1.48
4068.00,1.48
4067.00,1.48
4066.00,1.48
4065.00,1.49
4064.00,1.49
4063.00,1.49
4062.00,1.49
4061.00,1.49
4060.00,1.50
4059.00,1.50
4058.00,1.50
4057.00,1.50
4056.00,1.50
4055.00,1.50
4054.00,1.51
4053.00,1.51
4052.00,1.51
4051.00,1.51
4050.00,1.51
4049.00,1.51
4048.00,1.51
4047.00,1.51
4046.00,1.50
4045.00,1.50
4044.00,1.50
4043.00,1.50
4042.00,1.50
4041.00,1.50
4040.00,1.50
4039.00,1.50
4038.00,1.50
4037.00,1.50
4036.00,1.50
4035.00,1.50
4034.00,1.50
4033.00,1.50
4032.00,1.50
4031.00,1.51
4030.00,1.51
4029.00,1.51
4028.00,1.51
4027.00,1.51
4026.00,1.51
4025.00,1.51
4024.00,1.51
4023.00,1.52
4022.00,1.52
4021.00,1.52
4020.00,1.52
4019.00,1.52
4018.00,1.52
4017.00,1.52
4016.00,1.52
4015.00,1.52
4014.00,1.52
4013.00,1.52
4012.00,1.52
4011.00,1.52
4010.00,1.52
4009.00,1.53
4008.00,1.53
4007.00,1.53
4006.00,1.53
4005.00,1.53
4004.00,1.53
4003.00,1.53
4002.00,1.53
4001.00,1.53
4000.00,1.54
