创建为新数据集,样品 333 用户 Administrator 日期 星期四, 三月 08 2018
cm-1,%T
10000.00,1.16
9999.00,1.17
9998.00,1.17
9997.00,1.17
9996.00,1.17
9995.00,1.18
9994.00,1.18
9993.00,1.18
9992.00,1.18
9991.00,1.18
9990.00,1.18
9989.00,1.19
9988.00,1.19
9987.00,1.19
9986.00,1.19
9985.00,1.19
9984.00,1.19
9983.00,1.19
9982.00,1.19
9981.00,1.19
9980.00,1.19
9979.00,1.19
9978.00,1.19
9977.00,1.19
9976.00,1.19
9975.00,1.19
9974.00,1.19
9973.00,1.19
9972.00,1.19
9971.00,1.19
9970.00,1.19
9969.00,1.19
9968.00,1.19
9967.00,1.19
9966.00,1.19
9965.00,1.19
9964.00,1.19
9963.00,1.19
9962.00,1.19
9961.00,1.19
9960.00,1.19
9959.00,1.18
9958.00,1.18
9957.00,1.18
9956.00,1.18
9955.00,1.18
9954.00,1.18
9953.00,1.18
9952.00,1.17
9951.00,1.17
9950.00,1.17
9949.00,1.17
9948.00,1.16
9947.00,1.16
9946.00,1.16
9945.00,1.16
9944.00,1.15
9943.00,1.15
9942.00,1.15
9941.00,1.14
9940.00,1.14
9939.00,1.14
9938.00,1.13
9937.00,1.13
9936.00,1.13
9935.00,1.13
9934.00,1.12
9933.00,1.12
9932.00,1.12
9931.00,1.12
9930.00,1.12
9929.00,1.12
9928.00,1.12
9927.00,1.13
9926.00,1.13
9925.00,1.13
9924.00,1.13
9923.00,1.14
9922.00,1.14
9921.00,1.14
9920.00,1.15
9919.00,1.15
9918.00,1.15
9917.00,1.16
9916.00,1.16
9915.00,1.16
9914.00,1.17
9913.00,1.17
9912.00,1.17
9911.00,1.17
9910.00,1.17
9909.00,1.17
9908.00,1.17
9907.00,1.18
9906.00,1.18
9905.00,1.18
9904.00,1.18
9903.00,1.18
9902.00,1.18
9901.00,1.18
9900.00,1.18
9899.00,1.17
9898.00,1.17
9897.00,1.17
9896.00,1.17
9895.00,1.17
9894.00,1.17
9893.00,1.16
9892.00,1.16
9891.00,1.16
9890.00,1.16
9889.00,1.15
9888.00,1.15
9887.00,1.15
9886.00,1.14
9885.00,1.14
9884.00,1.14
9883.00,1.14
9882.00,1.13
9881.00,1.13
9880.00,1.13
9879.00,1.13
9878.00,1.13
9877.00,1.13
9876.00,1.13
9875.00,1.12
9874.00,1.12
9873.00,1.12
9872.00,1.13
9871.00,1.13
9870.00,1.13
9869.00,1.13
9868.00,1.13
9867.00,1.13
9866.00,1.13
9865.00,1.13
9864.00,1.14
9863.00,1.14
9862.00,1.14
9861.00,1.14
9860.00,1.15
9859.00,1.15
9858.00,1.15
9857.00,1.16
9856.00,1.16
9855.00,1.16
9854.00,1.17
9853.00,1.17
9852.00,1.17
9851.00,1.17
9850.00,1.17
9849.00,1.17
9848.00,1.17
9847.00,1.17
9846.00,1.17
9845.00,1.17
9844.00,1.16
9843.00,1.16
9842.00,1.16
9841.00,1.15
9840.00,1.15
9839.00,1.15
9838.00,1.14
9837.00,1.14
9836.00,1.14
9835.00,1.13
9834.00,1.13
9833.00,1.13
9832.00,1.13
9831.00,1.13
9830.00,1.13
9829.00,1.13
9828.00,1.13
9827.00,1.13
9826.00,1.14
9825.00,1.14
9824.00,1.14
9823.00,1.14
9822.00,1.15
9821.00,1.15
9820.00,1.15
9819.00,1.15
9818.00,1.15
9817.00,1.15
9816.00,1.15
9815.00,1.15
9814.00,1.15
9813.00,1.15
9812.00,1.15
9811.00,1.15
9810.00,1.15
9809.00,1.14
9808.00,1.14
9807.00,1.14
9806.00,1.14
9805.00,1.13
9804.00,1.13
9803.00,1.13
9802.00,1.13
9801.00,1.13
9800.00,1.12
9799.00,1.12
9798.00,1.12
9797.00,1.12
9796.00,1.12
9795.00,1.12
9794.00,1.12
9793.00,1.12
9792.00,1.12
9791.00,1.13
9790.00,1.13
9789.00,1.13
9788.00,1.13
9787.00,1.13
9786.00,1.13
9785.00,1.13
9784.00,1.14
9783.00,1.14
9782.00,1.14
9781.00,1.14
9780.00,1.14
9779.00,1.14
9778.00,1.15
9777.00,1.15
9776.00,1.15
9775.00,1.15
9774.00,1.15
9773.00,1.15
9772.00,1.15
9771.00,1.15
9770.00,1.15
9769.00,1.15
9768.00,1.15
9767.00,1.15
9766.00,1.15
9765.00,1.15
9764.00,1.15
9763.00,1.15
9762.00,1.15
9761.00,1.15
9760.00,1.15
9759.00,1.14
9758.00,1.14
9757.00,1.14
9756.00,1.14
9755.00,1.14
9754.00,1.14
9753.00,1.14
9752.00,1.14
9751.00,1.15
9750.00,1.15
9749.00,1.15
9748.00,1.15
9747.00,1.15
9746.00,1.15
9745.00,1.15
9744.00,1.16
9743.00,1.16
9742.00,1.16
9741.00,1.16
9740.00,1.16
9739.00,1.16
9738.00,1.16
9737.00,1.16
9736.00,1.16
9735.00,1.16
9734.00,1.16
9733.00,1.16
9732.00,1.16
9731.00,1.16
9730.00,1.16
9729.00,1.16
9728.00,1.16
9727.00,1.16
9726.00,1.16
9725.00,1.16
9724.00,1.16
9723.00,1.17
9722.00,1.17
9721.00,1.17
9720.00,1.17
9719.00,1.17
9718.00,1.18
9717.00,1.18
9716.00,1.18
9715.00,1.18
9714.00,1.18
9713.00,1.18
9712.00,1.18
9711.00,1.18
9710.00,1.18
9709.00,1.18
9708.00,1.18
9707.00,1.17
9706.00,1.17
9705.00,1.17
9704.00,1.16
9703.00,1.16
9702.00,1.16
9701.00,1.15
9700.00,1.15
9699.00,1.14
9698.00,1.14
9697.00,1.13
9696.00,1.13
9695.00,1.13
9694.00,1.13
9693.00,1.12
9692.00,1.12
9691.00,1.12
9690.00,1.12
9689.00,1.12
9688.00,1.12
9687.00,1.12
9686.00,1.12
9685.00,1.13
9684.00,1.13
9683.00,1.13
9682.00,1.13
9681.00,1.13
9680.00,1.13
9679.00,1.14
9678.00,1.14
9677.00,1.14
9676.00,1.14
9675.00,1.14
9674.00,1.14
9673.00,1.14
9672.00,1.14
9671.00,1.15
9670.00,1.15
9669.00,1.15
9668.00,1.15
9667.00,1.15
9666.00,1.15
9665.00,1.15
9664.00,1.15
9663.00,1.15
9662.00,1.15
9661.00,1.15
9660.00,1.15
9659.00,1.15
9658.00,1.15
9657.00,1.15
9656.00,1.15
9655.00,1.16
9654.00,1.16
9653.00,1.16
9652.00,1.16
9651.00,1.16
9650.00,1.16
9649.00,1.16
9648.00,1.16
9647.00,1.16
9646.00,1.16
9645.00,1.16
9644.00,1.16
9643.00,1.16
9642.00,1.15
9641.00,1.15
9640.00,1.15
9639.00,1.15
9638.00,1.15
9637.00,1.14
9636.00,1.14
9635.00,1.14
9634.00,1.13
9633.00,1.13
9632.00,1.13
9631.00,1.13
9630.00,1.13
9629.00,1.13
9628.00,1.13
9627.00,1.13
9626.00,1.13
9625.00,1.13
9624.00,1.13
9623.00,1.13
9622.00,1.13
9621.00,1.14
9620.00,1.14
9619.00,1.14
9618.00,1.14
9617.00,1.15
9616.00,1.15
9615.00,1.15
9614.00,1.15
9613.00,1.15
9612.00,1.15
9611.00,1.15
9610.00,1.15
9609.00,1.15
9608.00,1.15
9607.00,1.15
9606.00,1.14
9605.00,1.14
9604.00,1.14
9603.00,1.14
9602.00,1.14
9601.00,1.14
9600.00,1.14
9599.00,1.14
9598.00,1.14
9597.00,1.14
9596.00,1.14
9595.00,1.14
9594.00,1.14
9593.00,1.14
9592.00,1.14
9591.00,1.14
9590.00,1.14
9589.00,1.14
9588.00,1.14
9587.00,1.15
9586.00,1.15
9585.00,1.15
9584.00,1.15
9583.00,1.15
9582.00,1.15
9581.00,1.15
9580.00,1.15
9579.00,1.15
9578.00,1.15
9577.00,1.15
9576.00,1.15
9575.00,1.15
9574.00,1.15
9573.00,1.15
9572.00,1.15
9571.00,1.15
9570.00,1.14
9569.00,1.14
9568.00,1.14
9567.00,1.13
9566.00,1.13
9565.00,1.13
9564.00,1.12
9563.00,1.12
9562.00,1.12
9561.00,1.12
9560.00,1.11
9559.00,1.11
9558.00,1.11
9557.00,1.11
9556.00,1.11
9555.00,1.11
9554.00,1.11
9553.00,1.12
9552.00,1.12
9551.00,1.12
9550.00,1.12
9549.00,1.13
9548.00,1.13
9547.00,1.13
9546.00,1.13
9545.00,1.14
9544.00,1.14
9543.00,1.14
9542.00,1.14
9541.00,1.15
9540.00,1.15
9539.00,1.15
9538.00,1.15
9537.00,1.15
9536.00,1.15
9535.00,1.16
9534.00,1.16
9533.00,1.16
9532.00,1.16
9531.00,1.16
9530.00,1.16
9529.00,1.17
9528.00,1.17
9527.00,1.17
9526.00,1.17
9525.00,1.18
9524.00,1.18
9523.00,1.18
9522.00,1.18
9521.00,1.18
9520.00,1.18
9519.00,1.18
9518.00,1.18
9517.00,1.18
9516.00,1.18
9515.00,1.18
9514.00,1.18
9513.00,1.18
9512.00,1.18
9511.00,1.18
9510.00,1.17
9509.00,1.17
9508.00,1.17
9507.00,1.17
9506.00,1.16
9505.00,1.16
9504.00,1.16
9503.00,1.16
9502.00,1.16
9501.00,1.15
9500.00,1.15
9499.00,1.15
9498.00,1.15
9497.00,1.15
9496.00,1.15
9495.00,1.15
9494.00,1.15
9493.00,1.15
9492.00,1.15
9491.00,1.15
9490.00,1.15
9489.00,1.15
9488.00,1.15
9487.00,1.15
9486.00,1.14
9485.00,1.14
9484.00,1.14
9483.00,1.14
9482.00,1.14
9481.00,1.15
9480.00,1.15
9479.00,1.15
9478.00,1.15
9477.00,1.15
9476.00,1.15
9475.00,1.15
9474.00,1.15
9473.00,1.16
9472.00,1.16
9471.00,1.16
9470.00,1.16
9469.00,1.16
9468.00,1.16
9467.00,1.16
9466.00,1.16
9465.00,1.16
9464.00,1.16
9463.00,1.16
9462.00,1.16
9461.00,1.16
9460.00,1.16
9459.00,1.16
9458.00,1.16
9457.00,1.16
9456.00,1.16
9455.00,1.15
9454.00,1.15
9453.00,1.15
9452.00,1.15
9451.00,1.15
9450.00,1.15
9449.00,1.14
9448.00,1.14
9447.00,1.14
9446.00,1.14
9445.00,1.14
9444.00,1.14
9443.00,1.14
9442.00,1.14
9441.00,1.14
9440.00,1.14
9439.00,1.14
9438.00,1.14
9437.00,1.14
9436.00,1.14
9435.00,1.14
9434.00,1.13
9433.00,1.13
9432.00,1.13
9431.00,1.13
9430.00,1.13
9429.00,1.12
9428.00,1.12
9427.00,1.12
9426.00,1.12
9425.00,1.11
9424.00,1.11
9423.00,1.11
9422.00,1.11
9421.00,1.11
9420.00,1.11
9419.00,1.11
9418.00,1.11
9417.00,1.11
9416.00,1.11
9415.00,1.11
9414.00,1.11
9413.00,1.11
9412.00,1.12
9411.00,1.12
9410.00,1.13
9409.00,1.13
9408.00,1.13
9407.00,1.14
9406.00,1.14
9405.00,1.15
9404.00,1.15
9403.00,1.16
9402.00,1.16
9401.00,1.16
9400.00,1.17
9399.00,1.17
9398.00,1.17
9397.00,1.17
9396.00,1.17
9395.00,1.17
9394.00,1.17
9393.00,1.17
9392.00,1.17
9391.00,1.17
9390.00,1.17
9389.00,1.16
9388.00,1.16
9387.00,1.16
9386.00,1.16
9385.00,1.16
9384.00,1.15
9383.00,1.15
9382.00,1.15
9381.00,1.15
9380.00,1.15
9379.00,1.15
9378.00,1.15
9377.00,1.14
9376.00,1.14
9375.00,1.14
9374.00,1.14
9373.00,1.14
9372.00,1.14
9371.00,1.14
9370.00,1.14
9369.00,1.14
9368.00,1.14
9367.00,1.14
9366.00,1.14
9365.00,1.14
9364.00,1.14
9363.00,1.14
9362.00,1.15
9361.00,1.15
9360.00,1.15
9359.00,1.15
9358.00,1.15
9357.00,1.15
9356.00,1.15
9355.00,1.16
9354.00,1.16
9353.00,1.16
9352.00,1.16
9351.00,1.16
9350.00,1.16
9349.00,1.16
9348.00,1.16
9347.00,1.16
9346.00,1.16
9345.00,1.15
9344.00,1.15
9343.00,1.15
9342.00,1.15
9341.00,1.15
9340.00,1.14
9339.00,1.14
9338.00,1.14
9337.00,1.14
9336.00,1.14
9335.00,1.14
9334.00,1.14
9333.00,1.14
9332.00,1.14
9331.00,1.14
9330.00,1.14
9329.00,1.14
9328.00,1.14
9327.00,1.14
9326.00,1.14
9325.00,1.14
9324.00,1.14
9323.00,1.15
9322.00,1.15
9321.00,1.15
9320.00,1.15
9319.00,1.15
9318.00,1.15
9317.00,1.16
9316.00,1.16
9315.00,1.16
9314.00,1.16
9313.00,1.16
9312.00,1.16
9311.00,1.16
9310.00,1.17
9309.00,1.17
9308.00,1.17
9307.00,1.17
9306.00,1.17
9305.00,1.17
9304.00,1.17
9303.00,1.17
9302.00,1.17
9301.00,1.18
9300.00,1.18
9299.00,1.18
9298.00,1.17
9297.00,1.17
9296.00,1.17
9295.00,1.17
9294.00,1.17
9293.00,1.17
9292.00,1.17
9291.00,1.17
9290.00,1.17
9289.00,1.17
9288.00,1.17
9287.00,1.17
9286.00,1.16
9285.00,1.16
9284.00,1.16
9283.00,1.16
9282.00,1.16
9281.00,1.16
9280.00,1.16
9279.00,1.16
9278.00,1.15
9277.00,1.15
9276.00,1.15
9275.00,1.15
9274.00,1.15
9273.00,1.15
9272.00,1.15
9271.00,1.15
9270.00,1.14
9269.00,1.14
9268.00,1.14
9267.00,1.14
9266.00,1.14
9265.00,1.14
9264.00,1.14
9263.00,1.15
9262.00,1.15
9261.00,1.15
9260.00,1.15
9259.00,1.15
9258.00,1.15
9257.00,1.16
9256.00,1.16
9255.00,1.16
9254.00,1.16
9253.00,1.16
9252.00,1.16
9251.00,1.16
9250.00,1.17
9249.00,1.17
9248.00,1.17
9247.00,1.17
9246.00,1.17
9245.00,1.17
9244.00,1.16
9243.00,1.16
9242.00,1.16
9241.00,1.16
9240.00,1.16
9239.00,1.16
9238.00,1.16
9237.00,1.16
9236.00,1.16
9235.00,1.16
9234.00,1.16
9233.00,1.16
9232.00,1.16
9231.00,1.16
9230.00,1.16
9229.00,1.16
9228.00,1.16
9227.00,1.16
9226.00,1.16
9225.00,1.17
9224.00,1.17
9223.00,1.17
9222.00,1.17
9221.00,1.17
9220.00,1.17
9219.00,1.17
9218.00,1.17
9217.00,1.17
9216.00,1.17
9215.00,1.17
9214.00,1.17
9213.00,1.17
9212.00,1.17
9211.00,1.17
9210.00,1.17
9209.00,1.17
9208.00,1.17
9207.00,1.17
9206.00,1.17
9205.00,1.17
9204.00,1.17
9203.00,1.17
9202.00,1.17
9201.00,1.17
9200.00,1.17
9199.00,1.17
9198.00,1.18
9197.00,1.18
9196.00,1.18
9195.00,1.18
9194.00,1.18
9193.00,1.18
9192.00,1.18
9191.00,1.18
9190.00,1.18
9189.00,1.18
9188.00,1.18
9187.00,1.18
9186.00,1.18
9185.00,1.18
9184.00,1.18
9183.00,1.18
9182.00,1.18
9181.00,1.18
9180.00,1.18
9179.00,1.18
9178.00,1.18
9177.00,1.18
9176.00,1.18
9175.00,1.18
9174.00,1.18
9173.00,1.18
9172.00,1.18
9171.00,1.18
9170.00,1.18
9169.00,1.18
9168.00,1.18
9167.00,1.18
9166.00,1.18
9165.00,1.18
9164.00,1.18
9163.00,1.18
9162.00,1.18
9161.00,1.18
9160.00,1.18
9159.00,1.18
9158.00,1.17
9157.00,1.17
9156.00,1.17
9155.00,1.17
9154.00,1.17
9153.00,1.17
9152.00,1.17
9151.00,1.17
9150.00,1.17
9149.00,1.17
9148.00,1.17
9147.00,1.17
9146.00,1.17
9145.00,1.17
9144.00,1.17
9143.00,1.17
9142.00,1.17
9141.00,1.17
9140.00,1.17
9139.00,1.17
9138.00,1.17
9137.00,1.17
9136.00,1.17
9135.00,1.17
9134.00,1.17
9133.00,1.17
9132.00,1.17
9131.00,1.17
9130.00,1.17
9129.00,1.17
9128.00,1.17
9127.00,1.17
9126.00,1.17
9125.00,1.17
9124.00,1.17
9123.00,1.17
9122.00,1.17
9121.00,1.17
9120.00,1.17
9119.00,1.17
9118.00,1.17
9117.00,1.17
9116.00,1.17
9115.00,1.17
9114.00,1.17
9113.00,1.17
9112.00,1.17
9111.00,1.17
9110.00,1.17
9109.00,1.17
9108.00,1.17
9107.00,1.17
9106.00,1.17
9105.00,1.17
9104.00,1.17
9103.00,1.17
9102.00,1.17
9101.00,1.17
9100.00,1.17
9099.00,1.17
9098.00,1.17
9097.00,1.17
9096.00,1.17
9095.00,1.17
9094.00,1.17
9093.00,1.17
9092.00,1.17
9091.00,1.17
9090.00,1.17
9089.00,1.17
9088.00,1.17
9087.00,1.17
9086.00,1.17
9085.00,1.17
9084.00,1.17
9083.00,1.17
9082.00,1.17
9081.00,1.17
9080.00,1.17
9079.00,1.17
9078.00,1.17
9077.00,1.17
9076.00,1.17
9075.00,1.17
9074.00,1.17
9073.00,1.17
9072.00,1.16
9071.00,1.16
9070.00,1.16
9069.00,1.16
9068.00,1.16
9067.00,1.16
9066.00,1.16
9065.00,1.16
9064.00,1.16
9063.00,1.16
9062.00,1.16
9061.00,1.16
9060.00,1.16
9059.00,1.16
9058.00,1.16
9057.00,1.16
9056.00,1.16
9055.00,1.16
9054.00,1.16
9053.00,1.16
9052.00,1.16
9051.00,1.16
9050.00,1.15
9049.00,1.15
9048.00,1.15
9047.00,1.15
9046.00,1.15
9045.00,1.15
9044.00,1.15
9043.00,1.15
9042.00,1.15
9041.00,1.15
9040.00,1.15
9039.00,1.15
9038.00,1.15
9037.00,1.15
9036.00,1.15
9035.00,1.16
9034.00,1.16
9033.00,1.16
9032.00,1.16
9031.00,1.16
9030.00,1.16
9029.00,1.16
9028.00,1.16
9027.00,1.17
9026.00,1.17
9025.00,1.17
9024.00,1.17
9023.00,1.17
9022.00,1.17
9021.00,1.17
9020.00,1.17
9019.00,1.18
9018.00,1.18
9017.00,1.18
9016.00,1.18
9015.00,1.18
9014.00,1.18
9013.00,1.18
9012.00,1.18
9011.00,1.18
9010.00,1.18
9009.00,1.17
9008.00,1.17
9007.00,1.17
9006.00,1.17
9005.00,1.17
9004.00,1.17
9003.00,1.17
9002.00,1.17
9001.00,1.17
9000.00,1.17
8999.00,1.17
8998.00,1.17
8997.00,1.17
8996.00,1.18
8995.00,1.18
8994.00,1.18
8993.00,1.18
8992.00,1.18
8991.00,1.18
8990.00,1.18
8989.00,1.18
8988.00,1.18
8987.00,1.19
8986.00,1.19
8985.00,1.19
8984.00,1.19
8983.00,1.18
8982.00,1.18
8981.00,1.18
8980.00,1.18
8979.00,1.18
8978.00,1.18
8977.00,1.18
8976.00,1.18
8975.00,1.18
8974.00,1.17
8973.00,1.17
8972.00,1.17
8971.00,1.17
8970.00,1.17
8969.00,1.17
8968.00,1.17
8967.00,1.16
8966.00,1.16
8965.00,1.16
8964.00,1.16
8963.00,1.16
8962.00,1.16
8961.00,1.16
8960.00,1.16
8959.00,1.16
8958.00,1.16
8957.00,1.16
8956.00,1.16
8955.00,1.16
8954.00,1.16
8953.00,1.16
8952.00,1.16
8951.00,1.16
8950.00,1.16
8949.00,1.16
8948.00,1.16
8947.00,1.16
8946.00,1.16
8945.00,1.16
8944.00,1.16
8943.00,1.16
8942.00,1.17
8941.00,1.17
8940.00,1.17
8939.00,1.17
8938.00,1.17
8937.00,1.17
8936.00,1.17
8935.00,1.17
8934.00,1.17
8933.00,1.17
8932.00,1.17
8931.00,1.17
8930.00,1.17
8929.00,1.17
8928.00,1.17
8927.00,1.17
8926.00,1.17
8925.00,1.17
8924.00,1.17
8923.00,1.17
8922.00,1.17
8921.00,1.17
8920.00,1.17
8919.00,1.17
8918.00,1.17
8917.00,1.17
8916.00,1.17
8915.00,1.18
8914.00,1.18
8913.00,1.18
8912.00,1.18
8911.00,1.18
8910.00,1.18
8909.00,1.18
8908.00,1.18
8907.00,1.18
8906.00,1.18
8905.00,1.18
8904.00,1.18
8903.00,1.18
8902.00,1.18
8901.00,1.18
8900.00,1.17
8899.00,1.17
8898.00,1.17
8897.00,1.17
8896.00,1.17
8895.00,1.17
8894.00,1.17
8893.00,1.16
8892.00,1.16
8891.00,1.16
8890.00,1.16
8889.00,1.16
8888.00,1.17
8887.00,1.17
8886.00,1.17
8885.00,1.17
8884.00,1.17
8883.00,1.17
8882.00,1.17
8881.00,1.17
8880.00,1.17
8879.00,1.17
8878.00,1.16
8877.00,1.16
8876.00,1.16
8875.00,1.16
8874.00,1.16
8873.00,1.16
8872.00,1.16
8871.00,1.16
8870.00,1.16
8869.00,1.16
8868.00,1.16
8867.00,1.16
8866.00,1.16
8865.00,1.16
8864.00,1.16
8863.00,1.17
8862.00,1.17
8861.00,1.17
8860.00,1.17
8859.00,1.17
8858.00,1.17
8857.00,1.18
8856.00,1.18
8855.00,1.18
8854.00,1.18
8853.00,1.18
8852.00,1.18
8851.00,1.18
8850.00,1.18
8849.00,1.18
8848.00,1.18
8847.00,1.18
8846.00,1.18
8845.00,1.18
8844.00,1.18
8843.00,1.18
8842.00,1.17
8841.00,1.17
8840.00,1.17
8839.00,1.17
8838.00,1.17
8837.00,1.17
8836.00,1.17
8835.00,1.16
8834.00,1.16
8833.00,1.16
8832.00,1.16
8831.00,1.17
8830.00,1.17
8829.00,1.17
8828.00,1.17
8827.00,1.17
8826.00,1.17
8825.00,1.17
8824.00,1.17
8823.00,1.17
8822.00,1.18
8821.00,1.18
8820.00,1.18
8819.00,1.17
8818.00,1.17
8817.00,1.17
8816.00,1.17
8815.00,1.17
8814.00,1.17
8813.00,1.16
8812.00,1.16
8811.00,1.16
8810.00,1.16
8809.00,1.15
8808.00,1.15
8807.00,1.15
8806.00,1.15
8805.00,1.14
8804.00,1.14
8803.00,1.14
8802.00,1.14
8801.00,1.14
8800.00,1.14
8799.00,1.14
8798.00,1.14
8797.00,1.14
8796.00,1.14
8795.00,1.14
8794.00,1.14
8793.00,1.14
8792.00,1.14
8791.00,1.14
8790.00,1.14
8789.00,1.14
8788.00,1.14
8787.00,1.14
8786.00,1.14
8785.00,1.14
8784.00,1.14
8783.00,1.14
8782.00,1.14
8781.00,1.14
8780.00,1.14
8779.00,1.14
8778.00,1.14
8777.00,1.14
8776.00,1.14
8775.00,1.14
8774.00,1.14
8773.00,1.15
8772.00,1.15
8771.00,1.15
8770.00,1.15
8769.00,1.15
8768.00,1.14
8767.00,1.14
8766.00,1.14
8765.00,1.14
8764.00,1.14
8763.00,1.14
8762.00,1.14
8761.00,1.14
8760.00,1.14
8759.00,1.14
8758.00,1.13
8757.00,1.13
8756.00,1.13
8755.00,1.13
8754.00,1.13
8753.00,1.13
8752.00,1.13
8751.00,1.13
8750.00,1.13
8749.00,1.13
8748.00,1.13
8747.00,1.13
8746.00,1.13
8745.00,1.13
8744.00,1.13
8743.00,1.13
8742.00,1.13
8741.00,1.13
8740.00,1.13
8739.00,1.13
8738.00,1.13
8737.00,1.13
8736.00,1.12
8735.00,1.12
8734.00,1.12
8733.00,1.12
8732.00,1.12
8731.00,1.11
8730.00,1.11
8729.00,1.11
8728.00,1.11
8727.00,1.11
8726.00,1.11
8725.00,1.11
8724.00,1.11
8723.00,1.11
8722.00,1.11
8721.00,1.11
8720.00,1.12
8719.00,1.12
8718.00,1.12
8717.00,1.12
8716.00,1.13
8715.00,1.13
8714.00,1.13
8713.00,1.13
8712.00,1.13
8711.00,1.14
8710.00,1.14
8709.00,1.14
8708.00,1.14
8707.00,1.14
8706.00,1.14
8705.00,1.14
8704.00,1.14
8703.00,1.13
8702.00,1.13
8701.00,1.13
8700.00,1.13
8699.00,1.13
8698.00,1.12
8697.00,1.12
8696.00,1.12
8695.00,1.12
8694.00,1.12
8693.00,1.12
8692.00,1.12
8691.00,1.12
8690.00,1.12
8689.00,1.12
8688.00,1.12
8687.00,1.12
8686.00,1.12
8685.00,1.12
8684.00,1.12
8683.00,1.12
8682.00,1.12
8681.00,1.12
8680.00,1.12
8679.00,1.12
8678.00,1.13
8677.00,1.13
8676.00,1.13
8675.00,1.13
8674.00,1.13
8673.00,1.13
8672.00,1.12
8671.00,1.12
8670.00,1.12
8669.00,1.12
8668.00,1.12
8667.00,1.12
8666.00,1.12
8665.00,1.12
8664.00,1.11
8663.00,1.11
8662.00,1.11
8661.00,1.11
8660.00,1.11
8659.00,1.11
8658.00,1.11
8657.00,1.11
8656.00,1.11
8655.00,1.11
8654.00,1.11
8653.00,1.11
8652.00,1.11
8651.00,1.11
8650.00,1.11
8649.00,1.11
8648.00,1.11
8647.00,1.11
8646.00,1.11
8645.00,1.11
8644.00,1.11
8643.00,1.11
8642.00,1.11
8641.00,1.11
8640.00,1.11
8639.00,1.11
8638.00,1.11
8637.00,1.11
8636.00,1.11
8635.00,1.11
8634.00,1.10
8633.00,1.10
8632.00,1.10
8631.00,1.10
8630.00,1.10
8629.00,1.10
8628.00,1.10
8627.00,1.10
8626.00,1.09
8625.00,1.09
8624.00,1.09
8623.00,1.09
8622.00,1.09
8621.00,1.09
8620.00,1.09
8619.00,1.09
8618.00,1.09
8617.00,1.09
8616.00,1.09
8615.00,1.09
8614.00,1.09
8613.00,1.09
8612.00,1.09
8611.00,1.09
8610.00,1.09
8609.00,1.10
8608.00,1.10
8607.00,1.10
8606.00,1.10
8605.00,1.10
8604.00,1.10
8603.00,1.10
8602.00,1.10
8601.00,1.10
8600.00,1.10
8599.00,1.10
8598.00,1.10
8597.00,1.10
8596.00,1.10
8595.00,1.10
8594.00,1.10
8593.00,1.09
8592.00,1.09
8591.00,1.09
8590.00,1.09
8589.00,1.09
8588.00,1.09
8587.00,1.09
8586.00,1.09
8585.00,1.09
8584.00,1.09
8583.00,1.09
8582.00,1.09
8581.00,1.09
8580.00,1.09
8579.00,1.09
8578.00,1.09
8577.00,1.09
8576.00,1.09
8575.00,1.09
8574.00,1.09
8573.00,1.09
8572.00,1.09
8571.00,1.09
8570.00,1.09
8569.00,1.09
8568.00,1.09
8567.00,1.08
8566.00,1.08
8565.00,1.08
8564.00,1.08
8563.00,1.08
8562.00,1.08
8561.00,1.08
8560.00,1.08
8559.00,1.09
8558.00,1.09
8557.00,1.09
8556.00,1.09
8555.00,1.09
8554.00,1.09
8553.00,1.09
8552.00,1.09
8551.00,1.10
8550.00,1.10
8549.00,1.10
8548.00,1.10
8547.00,1.10
8546.00,1.10
8545.00,1.10
8544.00,1.10
8543.00,1.10
8542.00,1.10
8541.00,1.10
8540.00,1.09
8539.00,1.09
8538.00,1.09
8537.00,1.09
8536.00,1.09
8535.00,1.09
8534.00,1.08
8533.00,1.08
8532.00,1.08
8531.00,1.08
8530.00,1.08
8529.00,1.08
8528.00,1.07
8527.00,1.07
8526.00,1.07
8525.00,1.07
8524.00,1.07
8523.00,1.07
8522.00,1.07
8521.00,1.07
8520.00,1.06
8519.00,1.06
8518.00,1.06
8517.00,1.06
8516.00,1.06
8515.00,1.06
8514.00,1.06
8513.00,1.06
8512.00,1.07
8511.00,1.07
8510.00,1.07
8509.00,1.07
8508.00,1.07
8507.00,1.07
8506.00,1.07
8505.00,1.07
8504.00,1.07
8503.00,1.06
8502.00,1.06
8501.00,1.06
8500.00,1.06
8499.00,1.06
8498.00,1.06
8497.00,1.06
8496.00,1.06
8495.00,1.06
8494.00,1.06
8493.00,1.06
8492.00,1.06
8491.00,1.06
8490.00,1.06
8489.00,1.06
8488.00,1.06
8487.00,1.06
8486.00,1.06
8485.00,1.05
8484.00,1.05
8483.00,1.05
8482.00,1.05
8481.00,1.05
8480.00,1.05
8479.00,1.05
8478.00,1.05
8477.00,1.05
8476.00,1.05
8475.00,1.04
8474.00,1.04
8473.00,1.04
8472.00,1.04
8471.00,1.04
8470.00,1.04
8469.00,1.04
8468.00,1.04
8467.00,1.04
8466.00,1.04
8465.00,1.04
8464.00,1.04
8463.00,1.04
8462.00,1.04
8461.00,1.04
8460.00,1.04
8459.00,1.03
8458.00,1.03
8457.00,1.03
8456.00,1.03
8455.00,1.03
8454.00,1.03
8453.00,1.03
8452.00,1.03
8451.00,1.03
8450.00,1.03
8449.00,1.03
8448.00,1.02
8447.00,1.02
8446.00,1.02
8445.00,1.02
8444.00,1.02
8443.00,1.02
8442.00,1.02
8441.00,1.02
8440.00,1.02
8439.00,1.02
8438.00,1.02
8437.00,1.02
8436.00,1.02
8435.00,1.02
8434.00,1.02
8433.00,1.02
8432.00,1.02
8431.00,1.02
8430.00,1.02
8429.00,1.02
8428.00,1.02
8427.00,1.02
8426.00,1.02
8425.00,1.02
8424.00,1.02
8423.00,1.02
8422.00,1.02
8421.00,1.02
8420.00,1.02
8419.00,1.02
8418.00,1.02
8417.00,1.02
8416.00,1.02
8415.00,1.02
8414.00,1.02
8413.00,1.02
8412.00,1.02
8411.00,1.02
8410.00,1.03
8409.00,1.03
8408.00,1.03
8407.00,1.03
8406.00,1.03
8405.00,1.03
8404.00,1.04
8403.00,1.04
8402.00,1.04
8401.00,1.04
8400.00,1.04
8399.00,1.04
8398.00,1.04
8397.00,1.05
8396.00,1.05
8395.00,1.05
8394.00,1.05
8393.00,1.05
8392.00,1.05
8391.00,1.05
8390.00,1.05
8389.00,1.05
8388.00,1.05
8387.00,1.05
8386.00,1.05
8385.00,1.05
8384.00,1.05
8383.00,1.05
8382.00,1.05
8381.00,1.05
8380.00,1.05
8379.00,1.06
8378.00,1.06
8377.00,1.06
8376.00,1.06
8375.00,1.06
8374.00,1.06
8373.00,1.06
8372.00,1.07
8371.00,1.07
8370.00,1.07
8369.00,1.07
8368.00,1.07
8367.00,1.07
8366.00,1.07
8365.00,1.07
8364.00,1.07
8363.00,1.07
8362.00,1.07
8361.00,1.07
8360.00,1.07
8359.00,1.07
8358.00,1.06
8357.00,1.06
8356.00,1.06
8355.00,1.06
8354.00,1.06
8353.00,1.06
8352.00,1.06
8351.00,1.06
8350.00,1.06
8349.00,1.06
8348.00,1.06
8347.00,1.06
8346.00,1.06
8345.00,1.06
8344.00,1.06
8343.00,1.06
8342.00,1.06
8341.00,1.06
8340.00,1.06
8339.00,1.06
8338.00,1.06
8337.00,1.06
8336.00,1.06
8335.00,1.06
8334.00,1.06
8333.00,1.06
8332.00,1.06
8331.00,1.07
8330.00,1.07
8329.00,1.07
8328.00,1.07
8327.00,1.07
8326.00,1.07
8325.00,1.07
8324.00,1.07
8323.00,1.07
8322.00,1.07
8321.00,1.07
8320.00,1.07
8319.00,1.07
8318.00,1.07
8317.00,1.08
8316.00,1.08
8315.00,1.08
8314.00,1.08
8313.00,1.08
8312.00,1.08
8311.00,1.09
8310.00,1.09
8309.00,1.09
8308.00,1.09
8307.00,1.09
8306.00,1.09
8305.00,1.09
8304.00,1.09
8303.00,1.09
8302.00,1.09
8301.00,1.09
8300.00,1.09
8299.00,1.08
8298.00,1.08
8297.00,1.08
8296.00,1.08
8295.00,1.08
8294.00,1.08
8293.00,1.08
8292.00,1.08
8291.00,1.08
8290.00,1.08
8289.00,1.08
8288.00,1.08
8287.00,1.08
8286.00,1.08
8285.00,1.08
8284.00,1.08
8283.00,1.08
8282.00,1.08
8281.00,1.08
8280.00,1.08
8279.00,1.08
8278.00,1.08
8277.00,1.08
8276.00,1.08
8275.00,1.08
8274.00,1.09
8273.00,1.09
8272.00,1.09
8271.00,1.09
8270.00,1.09
8269.00,1.09
8268.00,1.09
8267.00,1.09
8266.00,1.09
8265.00,1.09
8264.00,1.10
8263.00,1.10
8262.00,1.10
8261.00,1.10
8260.00,1.10
8259.00,1.10
8258.00,1.10
8257.00,1.10
8256.00,1.10
8255.00,1.10
8254.00,1.10
8253.00,1.10
8252.00,1.09
8251.00,1.09
8250.00,1.09
8249.00,1.09
8248.00,1.09
8247.00,1.09
8246.00,1.09
8245.00,1.09
8244.00,1.09
8243.00,1.09
8242.00,1.09
8241.00,1.09
8240.00,1.09
8239.00,1.09
8238.00,1.09
8237.00,1.09
8236.00,1.09
8235.00,1.09
8234.00,1.09
8233.00,1.09
8232.00,1.09
8231.00,1.09
8230.00,1.09
8229.00,1.09
8228.00,1.09
8227.00,1.09
8226.00,1.09
8225.00,1.09
8224.00,1.09
8223.00,1.09
8222.00,1.09
8221.00,1.09
8220.00,1.10
8219.00,1.10
8218.00,1.10
8217.00,1.10
8216.00,1.10
8215.00,1.10
8214.00,1.10
8213.00,1.10
8212.00,1.10
8211.00,1.10
8210.00,1.10
8209.00,1.10
8208.00,1.10
8207.00,1.10
8206.00,1.10
8205.00,1.10
8204.00,1.10
8203.00,1.10
8202.00,1.10
8201.00,1.10
8200.00,1.10
8199.00,1.10
8198.00,1.10
8197.00,1.10
8196.00,1.10
8195.00,1.10
8194.00,1.10
8193.00,1.10
8192.00,1.10
8191.00,1.10
8190.00,1.10
8189.00,1.09
8188.00,1.09
8187.00,1.09
8186.00,1.09
8185.00,1.09
8184.00,1.09
8183.00,1.09
8182.00,1.09
8181.00,1.09
8180.00,1.10
8179.00,1.10
8178.00,1.10
8177.00,1.10
8176.00,1.10
8175.00,1.10
8174.00,1.10
8173.00,1.11
8172.00,1.11
8171.00,1.11
8170.00,1.11
8169.00,1.11
8168.00,1.12
8167.00,1.12
8166.00,1.12
8165.00,1.12
8164.00,1.12
8163.00,1.12
8162.00,1.13
8161.00,1.13
8160.00,1.13
8159.00,1.13
8158.00,1.13
8157.00,1.13
8156.00,1.13
8155.00,1.13
8154.00,1.13
8153.00,1.13
8152.00,1.13
8151.00,1.13
8150.00,1.13
8149.00,1.13
8148.00,1.12
8147.00,1.12
8146.00,1.12
8145.00,1.12
8144.00,1.12
8143.00,1.12
8142.00,1.12
8141.00,1.12
8140.00,1.12
8139.00,1.12
8138.00,1.12
8137.00,1.12
8136.00,1.12
8135.00,1.12
8134.00,1.12
8133.00,1.12
8132.00,1.12
8131.00,1.12
8130.00,1.12
8129.00,1.12
8128.00,1.12
8127.00,1.12
8126.00,1.12
8125.00,1.12
8124.00,1.12
8123.00,1.12
8122.00,1.12
8121.00,1.12
8120.00,1.12
8119.00,1.12
8118.00,1.12
8117.00,1.12
8116.00,1.12
8115.00,1.12
8114.00,1.12
8113.00,1.11
8112.00,1.11
8111.00,1.11
8110.00,1.11
8109.00,1.11
8108.00,1.11
8107.00,1.11
8106.00,1.11
8105.00,1.11
8104.00,1.11
8103.00,1.11
8102.00,1.11
8101.00,1.11
8100.00,1.11
8099.00,1.11
8098.00,1.11
8097.00,1.11
8096.00,1.12
8095.00,1.12
8094.00,1.12
8093.00,1.12
8092.00,1.12
8091.00,1.12
8090.00,1.12
8089.00,1.12
8088.00,1.12
8087.00,1.12
8086.00,1.12
8085.00,1.12
8084.00,1.12
8083.00,1.12
8082.00,1.12
8081.00,1.12
8080.00,1.12
8079.00,1.13
8078.00,1.13
8077.00,1.13
8076.00,1.13
8075.00,1.13
8074.00,1.13
8073.00,1.14
8072.00,1.14
8071.00,1.14
8070.00,1.14
8069.00,1.14
8068.00,1.14
8067.00,1.14
8066.00,1.15
8065.00,1.15
8064.00,1.15
8063.00,1.15
8062.00,1.15
8061.00,1.15
8060.00,1.15
8059.00,1.15
8058.00,1.15
8057.00,1.15
8056.00,1.14
8055.00,1.14
8054.00,1.14
8053.00,1.14
8052.00,1.14
8051.00,1.14
8050.00,1.14
8049.00,1.14
8048.00,1.14
8047.00,1.14
8046.00,1.14
8045.00,1.14
8044.00,1.14
8043.00,1.14
8042.00,1.14
8041.00,1.14
8040.00,1.15
8039.00,1.15
8038.00,1.15
8037.00,1.15
8036.00,1.15
8035.00,1.15
8034.00,1.16
8033.00,1.16
8032.00,1.16
8031.00,1.16
8030.00,1.16
8029.00,1.16
8028.00,1.16
8027.00,1.16
8026.00,1.16
8025.00,1.16
8024.00,1.16
8023.00,1.16
8022.00,1.16
8021.00,1.16
8020.00,1.16
8019.00,1.16
8018.00,1.16
8017.00,1.16
8016.00,1.16
8015.00,1.16
8014.00,1.16
8013.00,1.16
8012.00,1.16
8011.00,1.16
8010.00,1.16
8009.00,1.15
8008.00,1.15
8007.00,1.15
8006.00,1.15
8005.00,1.15
8004.00,1.15
8003.00,1.15
8002.00,1.15
8001.00,1.15
8000.00,1.15
7999.00,1.15
7998.00,1.15
7997.00,1.15
7996.00,1.15
7995.00,1.15
7994.00,1.15
7993.00,1.15
7992.00,1.15
7991.00,1.15
7990.00,1.15
7989.00,1.15
7988.00,1.15
7987.00,1.15
7986.00,1.15
7985.00,1.15
7984.00,1.15
7983.00,1.15
7982.00,1.15
7981.00,1.15
7980.00,1.15
7979.00,1.15
7978.00,1.16
7977.00,1.16
7976.00,1.16
7975.00,1.16
7974.00,1.16
7973.00,1.16
7972.00,1.16
7971.00,1.16
7970.00,1.16
7969.00,1.16
7968.00,1.16
7967.00,1.16
7966.00,1.16
7965.00,1.16
7964.00,1.16
7963.00,1.16
7962.00,1.15
7961.00,1.15
7960.00,1.15
7959.00,1.15
7958.00,1.15
7957.00,1.15
7956.00,1.15
7955.00,1.15
7954.00,1.15
7953.00,1.15
7952.00,1.15
7951.00,1.15
7950.00,1.15
7949.00,1.15
7948.00,1.15
7947.00,1.15
7946.00,1.15
7945.00,1.15
7944.00,1.15
7943.00,1.15
7942.00,1.15
7941.00,1.15
7940.00,1.15
7939.00,1.15
7938.00,1.15
7937.00,1.15
7936.00,1.15
7935.00,1.15
7934.00,1.15
7933.00,1.15
7932.00,1.15
7931.00,1.15
7930.00,1.15
7929.00,1.15
7928.00,1.15
7927.00,1.16
7926.00,1.16
7925.00,1.16
7924.00,1.15
7923.00,1.15
7922.00,1.15
7921.00,1.15
7920.00,1.15
7919.00,1.15
7918.00,1.15
7917.00,1.15
7916.00,1.15
7915.00,1.15
7914.00,1.15
7913.00,1.15
7912.00,1.15
7911.00,1.15
7910.00,1.15
7909.00,1.15
7908.00,1.15
7907.00,1.15
7906.00,1.15
7905.00,1.15
7904.00,1.15
7903.00,1.15
7902.00,1.15
7901.00,1.15
7900.00,1.15
7899.00,1.15
7898.00,1.15
7897.00,1.15
7896.00,1.15
7895.00,1.15
7894.00,1.15
7893.00,1.15
7892.00,1.15
7891.00,1.15
7890.00,1.15
7889.00,1.16
7888.00,1.16
7887.00,1.16
7886.00,1.16
7885.00,1.16
7884.00,1.16
7883.00,1.16
7882.00,1.16
7881.00,1.16
7880.00,1.16
7879.00,1.16
7878.00,1.16
7877.00,1.16
7876.00,1.16
7875.00,1.16
7874.00,1.16
7873.00,1.16
7872.00,1.16
7871.00,1.16
7870.00,1.16
7869.00,1.16
7868.00,1.17
7867.00,1.17
7866.00,1.17
7865.00,1.17
7864.00,1.17
7863.00,1.17
7862.00,1.17
7861.00,1.17
7860.00,1.17
7859.00,1.17
7858.00,1.17
7857.00,1.17
7856.00,1.17
7855.00,1.17
7854.00,1.17
7853.00,1.17
7852.00,1.17
7851.00,1.16
7850.00,1.16
7849.00,1.16
7848.00,1.16
7847.00,1.16
7846.00,1.16
7845.00,1.16
7844.00,1.16
7843.00,1.16
7842.00,1.16
7841.00,1.16
7840.00,1.16
7839.00,1.16
7838.00,1.16
7837.00,1.16
7836.00,1.16
7835.00,1.16
7834.00,1.16
7833.00,1.17
7832.00,1.17
7831.00,1.17
7830.00,1.17
7829.00,1.17
7828.00,1.17
7827.00,1.17
7826.00,1.17
7825.00,1.17
7824.00,1.17
7823.00,1.17
7822.00,1.17
7821.00,1.17
7820.00,1.17
7819.00,1.17
7818.00,1.17
7817.00,1.17
7816.00,1.17
7815.00,1.18
7814.00,1.18
7813.00,1.18
7812.00,1.18
7811.00,1.18
7810.00,1.18
7809.00,1.18
7808.00,1.18
7807.00,1.18
7806.00,1.18
7805.00,1.18
7804.00,1.18
7803.00,1.18
7802.00,1.18
7801.00,1.18
7800.00,1.18
7799.00,1.18
7798.00,1.18
7797.00,1.18
7796.00,1.18
7795.00,1.18
7794.00,1.18
7793.00,1.18
7792.00,1.18
7791.00,1.18
7790.00,1.18
7789.00,1.17
7788.00,1.17
7787.00,1.17
7786.00,1.17
7785.00,1.17
7784.00,1.17
7783.00,1.17
7782.00,1.17
7781.00,1.17
7780.00,1.17
7779.00,1.17
7778.00,1.17
7777.00,1.17
7776.00,1.17
7775.00,1.17
7774.00,1.18
7773.00,1.18
7772.00,1.18
7771.00,1.18
7770.00,1.18
7769.00,1.18
7768.00,1.18
7767.00,1.18
7766.00,1.18
7765.00,1.18
7764.00,1.18
7763.00,1.18
7762.00,1.18
7761.00,1.17
7760.00,1.17
7759.00,1.17
7758.00,1.17
7757.00,1.17
7756.00,1.17
7755.00,1.17
7754.00,1.17
7753.00,1.17
7752.00,1.17
7751.00,1.17
7750.00,1.17
7749.00,1.17
7748.00,1.17
7747.00,1.17
7746.00,1.17
7745.00,1.18
7744.00,1.18
7743.00,1.18
7742.00,1.18
7741.00,1.18
7740.00,1.18
7739.00,1.18
7738.00,1.18
7737.00,1.19
7736.00,1.19
7735.00,1.19
7734.00,1.19
7733.00,1.19
7732.00,1.18
7731.00,1.18
7730.00,1.18
7729.00,1.18
7728.00,1.18
7727.00,1.18
7726.00,1.18
7725.00,1.18
7724.00,1.18
7723.00,1.18
7722.00,1.18
7721.00,1.18
7720.00,1.18
7719.00,1.18
7718.00,1.18
7717.00,1.18
7716.00,1.18
7715.00,1.18
7714.00,1.18
7713.00,1.18
7712.00,1.18
7711.00,1.18
7710.00,1.18
7709.00,1.18
7708.00,1.17
7707.00,1.17
7706.00,1.17
7705.00,1.17
7704.00,1.17
7703.00,1.17
7702.00,1.17
7701.00,1.17
7700.00,1.17
7699.00,1.17
7698.00,1.17
7697.00,1.17
7696.00,1.17
7695.00,1.17
7694.00,1.17
7693.00,1.17
7692.00,1.17
7691.00,1.17
7690.00,1.17
7689.00,1.17
7688.00,1.17
7687.00,1.17
7686.00,1.18
7685.00,1.18
7684.00,1.18
7683.00,1.18
7682.00,1.18
7681.00,1.18
7680.00,1.18
7679.00,1.18
7678.00,1.18
7677.00,1.18
7676.00,1.18
7675.00,1.19
7674.00,1.19
7673.00,1.19
7672.00,1.19
7671.00,1.19
7670.00,1.19
7669.00,1.18
7668.00,1.18
7667.00,1.18
7666.00,1.18
7665.00,1.18
7664.00,1.18
7663.00,1.18
7662.00,1.18
7661.00,1.18
7660.00,1.18
7659.00,1.18
7658.00,1.18
7657.00,1.18
7656.00,1.18
7655.00,1.18
7654.00,1.18
7653.00,1.18
7652.00,1.18
7651.00,1.18
7650.00,1.18
7649.00,1.18
7648.00,1.18
7647.00,1.18
7646.00,1.18
7645.00,1.18
7644.00,1.18
7643.00,1.18
7642.00,1.18
7641.00,1.18
7640.00,1.18
7639.00,1.18
7638.00,1.18
7637.00,1.18
7636.00,1.18
7635.00,1.18
7634.00,1.18
7633.00,1.18
7632.00,1.18
7631.00,1.18
7630.00,1.18
7629.00,1.18
7628.00,1.18
7627.00,1.18
7626.00,1.18
7625.00,1.18
7624.00,1.18
7623.00,1.18
7622.00,1.18
7621.00,1.18
7620.00,1.18
7619.00,1.18
7618.00,1.18
7617.00,1.18
7616.00,1.18
7615.00,1.18
7614.00,1.18
7613.00,1.18
7612.00,1.18
7611.00,1.18
7610.00,1.18
7609.00,1.18
7608.00,1.18
7607.00,1.18
7606.00,1.18
7605.00,1.18
7604.00,1.18
7603.00,1.18
7602.00,1.19
7601.00,1.19
7600.00,1.19
7599.00,1.19
7598.00,1.19
7597.00,1.19
7596.00,1.19
7595.00,1.18
7594.00,1.18
7593.00,1.18
7592.00,1.18
7591.00,1.18
7590.00,1.18
7589.00,1.18
7588.00,1.18
7587.00,1.18
7586.00,1.18
7585.00,1.18
7584.00,1.18
7583.00,1.18
7582.00,1.18
7581.00,1.18
7580.00,1.18
7579.00,1.17
7578.00,1.17
7577.00,1.17
7576.00,1.17
7575.00,1.17
7574.00,1.17
7573.00,1.17
7572.00,1.17
7571.00,1.17
7570.00,1.17
7569.00,1.17
7568.00,1.17
7567.00,1.17
7566.00,1.17
7565.00,1.17
7564.00,1.17
7563.00,1.17
7562.00,1.17
7561.00,1.17
7560.00,1.17
7559.00,1.17
7558.00,1.17
7557.00,1.17
7556.00,1.17
7555.00,1.17
7554.00,1.17
7553.00,1.17
7552.00,1.17
7551.00,1.17
7550.00,1.17
7549.00,1.17
7548.00,1.17
7547.00,1.17
7546.00,1.17
7545.00,1.17
7544.00,1.17
7543.00,1.17
7542.00,1.17
7541.00,1.17
7540.00,1.17
7539.00,1.17
7538.00,1.17
7537.00,1.17
7536.00,1.17
7535.00,1.17
7534.00,1.17
7533.00,1.17
7532.00,1.17
7531.00,1.17
7530.00,1.17
7529.00,1.17
7528.00,1.17
7527.00,1.16
7526.00,1.16
7525.00,1.16
7524.00,1.16
7523.00,1.16
7522.00,1.16
7521.00,1.16
7520.00,1.16
7519.00,1.16
7518.00,1.16
7517.00,1.16
7516.00,1.16
7515.00,1.16
7514.00,1.16
7513.00,1.16
7512.00,1.16
7511.00,1.16
7510.00,1.16
7509.00,1.16
7508.00,1.16
7507.00,1.16
7506.00,1.16
7505.00,1.16
7504.00,1.16
7503.00,1.16
7502.00,1.16
7501.00,1.16
7500.00,1.16
7499.00,1.16
7498.00,1.16
7497.00,1.16
7496.00,1.16
7495.00,1.16
7494.00,1.16
7493.00,1.16
7492.00,1.16
7491.00,1.16
7490.00,1.16
7489.00,1.16
7488.00,1.16
7487.00,1.16
7486.00,1.16
7485.00,1.16
7484.00,1.16
7483.00,1.16
7482.00,1.16
7481.00,1.16
7480.00,1.16
7479.00,1.15
7478.00,1.15
7477.00,1.15
7476.00,1.15
7475.00,1.15
7474.00,1.15
7473.00,1.15
7472.00,1.15
7471.00,1.15
7470.00,1.15
7469.00,1.14
7468.00,1.14
7467.00,1.14
7466.00,1.14
7465.00,1.14
7464.00,1.14
7463.00,1.14
7462.00,1.14
7461.00,1.14
7460.00,1.14
7459.00,1.14
7458.00,1.14
7457.00,1.14
7456.00,1.14
7455.00,1.14
7454.00,1.14
7453.00,1.14
7452.00,1.14
7451.00,1.14
7450.00,1.14
7449.00,1.14
7448.00,1.14
7447.00,1.14
7446.00,1.14
7445.00,1.14
7444.00,1.14
7443.00,1.14
7442.00,1.14
7441.00,1.14
7440.00,1.14
7439.00,1.14
7438.00,1.14
7437.00,1.14
7436.00,1.14
7435.00,1.14
7434.00,1.14
7433.00,1.14
7432.00,1.14
7431.00,1.14
7430.00,1.14
7429.00,1.14
7428.00,1.14
7427.00,1.14
7426.00,1.14
7425.00,1.14
7424.00,1.14
7423.00,1.14
7422.00,1.14
7421.00,1.14
7420.00,1.14
7419.00,1.14
7418.00,1.14
7417.00,1.13
7416.00,1.13
7415.00,1.13
7414.00,1.13
7413.00,1.13
7412.00,1.13
7411.00,1.13
7410.00,1.13
7409.00,1.12
7408.00,1.12
7407.00,1.12
7406.00,1.12
7405.00,1.12
7404.00,1.12
7403.00,1.12
7402.00,1.12
7401.00,1.12
7400.00,1.11
7399.00,1.11
7398.00,1.11
7397.00,1.11
7396.00,1.11
7395.00,1.11
7394.00,1.11
7393.00,1.11
7392.00,1.11
7391.00,1.10
7390.00,1.10
7389.00,1.10
7388.00,1.10
7387.00,1.10
7386.00,1.10
7385.00,1.09
7384.00,1.09
7383.00,1.09
7382.00,1.09
7381.00,1.09
7380.00,1.09
7379.00,1.08
7378.00,1.08
7377.00,1.08
7376.00,1.08
7375.00,1.08
7374.00,1.08
7373.00,1.07
7372.00,1.07
7371.00,1.07
7370.00,1.07
7369.00,1.07
7368.00,1.07
7367.00,1.07
7366.00,1.07
7365.00,1.07
7364.00,1.07
7363.00,1.07
7362.00,1.07
7361.00,1.07
7360.00,1.07
7359.00,1.07
7358.00,1.07
7357.00,1.07
7356.00,1.07
7355.00,1.07
7354.00,1.07
7353.00,1.07
7352.00,1.07
7351.00,1.07
7350.00,1.07
7349.00,1.07
7348.00,1.07
7347.00,1.07
7346.00,1.07
7345.00,1.06
7344.00,1.06
7343.00,1.06
7342.00,1.07
7341.00,1.07
7340.00,1.07
7339.00,1.07
7338.00,1.07
7337.00,1.07
7336.00,1.07
7335.00,1.07
7334.00,1.07
7333.00,1.07
7332.00,1.07
7331.00,1.07
7330.00,1.07
7329.00,1.06
7328.00,1.06
7327.00,1.06
7326.00,1.06
7325.00,1.06
7324.00,1.06
7323.00,1.06
7322.00,1.06
7321.00,1.06
7320.00,1.06
7319.00,1.06
7318.00,1.06
7317.00,1.06
7316.00,1.06
7315.00,1.06
7314.00,1.06
7313.00,1.06
7312.00,1.06
7311.00,1.06
7310.00,1.06
7309.00,1.06
7308.00,1.06
7307.00,1.06
7306.00,1.06
7305.00,1.06
7304.00,1.06
7303.00,1.06
7302.00,1.06
7301.00,1.06
7300.00,1.05
7299.00,1.05
7298.00,1.05
7297.00,1.05
7296.00,1.05
7295.00,1.05
7294.00,1.05
7293.00,1.05
7292.00,1.05
7291.00,1.04
7290.00,1.04
7289.00,1.04
7288.00,1.04
7287.00,1.04
7286.00,1.04
7285.00,1.04
7284.00,1.04
7283.00,1.04
7282.00,1.04
7281.00,1.04
7280.00,1.04
7279.00,1.04
7278.00,1.04
7277.00,1.04
7276.00,1.03
7275.00,1.03
7274.00,1.03
7273.00,1.03
7272.00,1.03
7271.00,1.03
7270.00,1.03
7269.00,1.03
7268.00,1.03
7267.00,1.03
7266.00,1.02
7265.00,1.02
7264.00,1.02
7263.00,1.02
7262.00,1.02
7261.00,1.02
7260.00,1.02
7259.00,1.02
7258.00,1.02
7257.00,1.02
7256.00,1.02
7255.00,1.02
7254.00,1.02
7253.00,1.01
7252.00,1.01
7251.00,1.01
7250.00,1.01
7249.00,1.01
7248.00,1.01
7247.00,1.00
7246.00,1.00
7245.00,1.00
7244.00,1.00
7243.00,0.99
7242.00,0.99
7241.00,0.99
7240.00,0.99
7239.00,0.98
7238.00,0.98
7237.00,0.98
7236.00,0.97
7235.00,0.97
7234.00,0.97
7233.00,0.97
7232.00,0.96
7231.00,0.96
7230.00,0.96
7229.00,0.96
7228.00,0.96
7227.00,0.95
7226.00,0.95
7225.00,0.95
7224.00,0.95
7223.00,0.94
7222.00,0.94
7221.00,0.94
7220.00,0.94
7219.00,0.93
7218.00,0.93
7217.00,0.93
7216.00,0.92
7215.00,0.92
7214.00,0.92
7213.00,0.92
7212.00,0.91
7211.00,0.91
7210.00,0.91
7209.00,0.90
7208.00,0.90
7207.00,0.90
7206.00,0.90
7205.00,0.89
7204.00,0.89
7203.00,0.89
7202.00,0.89
7201.00,0.89
7200.00,0.89
7199.00,0.88
7198.00,0.88
7197.00,0.88
7196.00,0.88
7195.00,0.88
7194.00,0.88
7193.00,0.88
7192.00,0.88
7191.00,0.87
7190.00,0.87
7189.00,0.87
7188.00,0.87
7187.00,0.87
7186.00,0.86
7185.00,0.86
7184.00,0.86
7183.00,0.85
7182.00,0.85
7181.00,0.85
7180.00,0.85
7179.00,0.84
7178.00,0.84
7177.00,0.84
7176.00,0.83
7175.00,0.83
7174.00,0.83
7173.00,0.83
7172.00,0.82
7171.00,0.82
7170.00,0.82
7169.00,0.82
7168.00,0.81
7167.00,0.81
7166.00,0.81
7165.00,0.81
7164.00,0.81
7163.00,0.80
7162.00,0.80
7161.00,0.80
7160.00,0.80
7159.00,0.80
7158.00,0.79
7157.00,0.79
7156.00,0.79
7155.00,0.79
7154.00,0.79
7153.00,0.79
7152.00,0.78
7151.00,0.78
7150.00,0.78
7149.00,0.78
7148.00,0.78
7147.00,0.78
7146.00,0.77
7145.00,0.77
7144.00,0.77
7143.00,0.77
7142.00,0.76
7141.00,0.76
7140.00,0.76
7139.00,0.76
7138.00,0.75
7137.00,0.75
7136.00,0.75
7135.00,0.75
7134.00,0.75
7133.00,0.74
7132.00,0.74
7131.00,0.74
7130.00,0.74
7129.00,0.73
7128.00,0.73
7127.00,0.73
7126.00,0.73
7125.00,0.73
7124.00,0.72
7123.00,0.72
7122.00,0.72
7121.00,0.72
7120.00,0.72
7119.00,0.71
7118.00,0.71
7117.00,0.71
7116.00,0.71
7115.00,0.71
7114.00,0.71
7113.00,0.71
7112.00,0.70
7111.00,0.70
7110.00,0.70
7109.00,0.70
7108.00,0.70
7107.00,0.70
7106.00,0.70
7105.00,0.70
7104.00,0.69
7103.00,0.69
7102.00,0.69
7101.00,0.69
7100.00,0.69
7099.00,0.69
7098.00,0.68
7097.00,0.68
7096.00,0.68
7095.00,0.68
7094.00,0.68
7093.00,0.68
7092.00,0.67
7091.00,0.67
7090.00,0.67
7089.00,0.67
7088.00,0.67
7087.00,0.67
7086.00,0.67
7085.00,0.67
7084.00,0.66
7083.00,0.66
7082.00,0.66
7081.00,0.66
7080.00,0.66
7079.00,0.66
7078.00,0.66
7077.00,0.65
7076.00,0.65
7075.00,0.65
7074.00,0.65
7073.00,0.65
7072.00,0.65
7071.00,0.64
7070.00,0.64
7069.00,0.64
7068.00,0.64
7067.00,0.64
7066.00,0.64
7065.00,0.63
7064.00,0.63
7063.00,0.63
7062.00,0.63
7061.00,0.63
7060.00,0.63
7059.00,0.63
7058.00,0.62
7057.00,0.62
7056.00,0.62
7055.00,0.62
7054.00,0.62
7053.00,0.62
7052.00,0.62
7051.00,0.62
7050.00,0.62
7049.00,0.62
7048.00,0.62
7047.00,0.61
7046.00,0.61
7045.00,0.61
7044.00,0.61
7043.00,0.61
7042.00,0.61
7041.00,0.61
7040.00,0.61
7039.00,0.60
7038.00,0.60
7037.00,0.60
7036.00,0.60
7035.00,0.60
7034.00,0.60
7033.00,0.60
7032.00,0.60
7031.00,0.59
7030.00,0.59
7029.00,0.59
7028.00,0.59
7027.00,0.59
7026.00,0.59
7025.00,0.59
7024.00,0.59
7023.00,0.59
7022.00,0.59
7021.00,0.59
7020.00,0.59
7019.00,0.59
7018.00,0.59
7017.00,0.59
7016.00,0.59
7015.00,0.58
7014.00,0.58
7013.00,0.58
7012.00,0.58
7011.00,0.58
7010.00,0.58
7009.00,0.58
7008.00,0.58
7007.00,0.58
7006.00,0.58
7005.00,0.58
7004.00,0.58
7003.00,0.58
7002.00,0.58
7001.00,0.58
7000.00,0.58
6999.00,0.58
6998.00,0.58
6997.00,0.58
6996.00,0.58
6995.00,0.58
6994.00,0.58
6993.00,0.58
6992.00,0.58
6991.00,0.58
6990.00,0.58
6989.00,0.57
6988.00,0.57
6987.00,0.57
6986.00,0.57
6985.00,0.57
6984.00,0.57
6983.00,0.57
6982.00,0.57
6981.00,0.57
6980.00,0.57
6979.00,0.56
6978.00,0.56
6977.00,0.56
6976.00,0.56
6975.00,0.56
6974.00,0.56
6973.00,0.56
6972.00,0.56
6971.00,0.56
6970.00,0.56
6969.00,0.56
6968.00,0.56
6967.00,0.56
6966.00,0.56
6965.00,0.56
6964.00,0.56
6963.00,0.55
6962.00,0.55
6961.00,0.55
6960.00,0.55
6959.00,0.55
6958.00,0.55
6957.00,0.55
6956.00,0.55
6955.00,0.55
6954.00,0.55
6953.00,0.55
6952.00,0.55
6951.00,0.55
6950.00,0.55
6949.00,0.54
6948.00,0.54
6947.00,0.54
6946.00,0.54
6945.00,0.54
6944.00,0.54
6943.00,0.54
6942.00,0.54
6941.00,0.54
6940.00,0.54
6939.00,0.54
6938.00,0.54
6937.00,0.54
6936.00,0.54
6935.00,0.54
6934.00,0.54
6933.00,0.54
6932.00,0.54
6931.00,0.54
6930.00,0.54
6929.00,0.54
6928.00,0.54
6927.00,0.54
6926.00,0.54
6925.00,0.54
6924.00,0.54
6923.00,0.54
6922.00,0.54
6921.00,0.54
6920.00,0.54
6919.00,0.54
6918.00,0.54
6917.00,0.54
6916.00,0.54
6915.00,0.54
6914.00,0.54
6913.00,0.54
6912.00,0.54
6911.00,0.54
6910.00,0.54
6909.00,0.54
6908.00,0.54
6907.00,0.54
6906.00,0.54
6905.00,0.54
6904.00,0.54
6903.00,0.54
6902.00,0.54
6901.00,0.54
6900.00,0.54
6899.00,0.54
6898.00,0.54
6897.00,0.54
6896.00,0.54
6895.00,0.54
6894.00,0.54
6893.00,0.54
6892.00,0.54
6891.00,0.54
6890.00,0.54
6889.00,0.54
6888.00,0.54
6887.00,0.54
6886.00,0.54
6885.00,0.54
6884.00,0.54
6883.00,0.54
6882.00,0.54
6881.00,0.54
6880.00,0.54
6879.00,0.54
6878.00,0.54
6877.00,0.54
6876.00,0.54
6875.00,0.54
6874.00,0.54
6873.00,0.54
6872.00,0.54
6871.00,0.54
6870.00,0.54
6869.00,0.54
6868.00,0.54
6867.00,0.54
6866.00,0.54
6865.00,0.54
6864.00,0.54
6863.00,0.54
6862.00,0.53
6861.00,0.53
6860.00,0.53
6859.00,0.53
6858.00,0.53
6857.00,0.53
6856.00,0.53
6855.00,0.53
6854.00,0.53
6853.00,0.53
6852.00,0.53
6851.00,0.53
6850.00,0.53
6849.00,0.53
6848.00,0.53
6847.00,0.53
6846.00,0.53
6845.00,0.53
6844.00,0.53
6843.00,0.53
6842.00,0.53
6841.00,0.53
6840.00,0.53
6839.00,0.53
6838.00,0.53
6837.00,0.53
6836.00,0.53
6835.00,0.53
6834.00,0.53
6833.00,0.54
6832.00,0.54
6831.00,0.54
6830.00,0.54
6829.00,0.54
6828.00,0.54
6827.00,0.54
6826.00,0.54
6825.00,0.54
6824.00,0.54
6823.00,0.54
6822.00,0.54
6821.00,0.54
6820.00,0.54
6819.00,0.54
6818.00,0.54
6817.00,0.54
6816.00,0.54
6815.00,0.54
6814.00,0.54
6813.00,0.54
6812.00,0.54
6811.00,0.54
6810.00,0.54
6809.00,0.55
6808.00,0.55
6807.00,0.55
6806.00,0.55
6805.00,0.55
6804.00,0.55
6803.00,0.55
6802.00,0.55
6801.00,0.55
6800.00,0.55
6799.00,0.55
6798.00,0.55
6797.00,0.55
6796.00,0.55
6795.00,0.55
6794.00,0.55
6793.00,0.55
6792.00,0.55
6791.00,0.55
6790.00,0.55
6789.00,0.55
6788.00,0.55
6787.00,0.56
6786.00,0.56
6785.00,0.56
6784.00,0.56
6783.00,0.56
6782.00,0.56
6781.00,0.56
6780.00,0.56
6779.00,0.56
6778.00,0.56
6777.00,0.56
6776.00,0.56
6775.00,0.56
6774.00,0.56
6773.00,0.56
6772.00,0.56
6771.00,0.56
6770.00,0.56
6769.00,0.56
6768.00,0.56
6767.00,0.56
6766.00,0.56
6765.00,0.56
6764.00,0.56
6763.00,0.56
6762.00,0.56
6761.00,0.56
6760.00,0.57
6759.00,0.57
6758.00,0.57
6757.00,0.57
6756.00,0.57
6755.00,0.57
6754.00,0.57
6753.00,0.57
6752.00,0.57
6751.00,0.57
6750.00,0.57
6749.00,0.57
6748.00,0.57
6747.00,0.57
6746.00,0.57
6745.00,0.57
6744.00,0.57
6743.00,0.57
6742.00,0.57
6741.00,0.57
6740.00,0.57
6739.00,0.57
6738.00,0.57
6737.00,0.57
6736.00,0.57
6735.00,0.57
6734.00,0.58
6733.00,0.58
6732.00,0.58
6731.00,0.58
6730.00,0.58
6729.00,0.58
6728.00,0.58
6727.00,0.58
6726.00,0.58
6725.00,0.58
6724.00,0.58
6723.00,0.58
6722.00,0.58
6721.00,0.58
6720.00,0.58
6719.00,0.58
6718.00,0.58
6717.00,0.58
6716.00,0.58
6715.00,0.58
6714.00,0.58
6713.00,0.58
6712.00,0.58
6711.00,0.58
6710.00,0.58
6709.00,0.58
6708.00,0.58
6707.00,0.58
6706.00,0.59
6705.00,0.59
6704.00,0.59
6703.00,0.59
6702.00,0.59
6701.00,0.58
6700.00,0.58
6699.00,0.58
6698.00,0.58
6697.00,0.58
6696.00,0.58
6695.00,0.58
6694.00,0.58
6693.00,0.58
6692.00,0.58
6691.00,0.58
6690.00,0.59
6689.00,0.59
6688.00,0.59
6687.00,0.59
6686.00,0.59
6685.00,0.59
6684.00,0.59
6683.00,0.59
6682.00,0.60
6681.00,0.60
6680.00,0.60
6679.00,0.60
6678.00,0.60
6677.00,0.61
6676.00,0.61
6675.00,0.61
6674.00,0.61
6673.00,0.61
6672.00,0.61
6671.00,0.61
6670.00,0.61
6669.00,0.61
6668.00,0.61
6667.00,0.62
6666.00,0.62
6665.00,0.62
6664.00,0.62
6663.00,0.62
6662.00,0.62
6661.00,0.62
6660.00,0.62
6659.00,0.62
6658.00,0.62
6657.00,0.62
6656.00,0.62
6655.00,0.62
6654.00,0.62
6653.00,0.62
6652.00,0.62
6651.00,0.62
6650.00,0.62
6649.00,0.62
6648.00,0.62
6647.00,0.62
6646.00,0.62
6645.00,0.62
6644.00,0.63
6643.00,0.63
6642.00,0.63
6641.00,0.63
6640.00,0.63
6639.00,0.63
6638.00,0.63
6637.00,0.63
6636.00,0.64
6635.00,0.64
6634.00,0.64
6633.00,0.64
6632.00,0.64
6631.00,0.64
6630.00,0.64
6629.00,0.64
6628.00,0.64
6627.00,0.64
6626.00,0.64
6625.00,0.64
6624.00,0.64
6623.00,0.64
6622.00,0.64
6621.00,0.64
6620.00,0.64
6619.00,0.64
6618.00,0.64
6617.00,0.64
6616.00,0.64
6615.00,0.64
6614.00,0.64
6613.00,0.65
6612.00,0.65
6611.00,0.65
6610.00,0.65
6609.00,0.65
6608.00,0.65
6607.00,0.65
6606.00,0.65
6605.00,0.65
6604.00,0.65
6603.00,0.65
6602.00,0.65
6601.00,0.65
6600.00,0.66
6599.00,0.66
6598.00,0.66
6597.00,0.66
6596.00,0.66
6595.00,0.66
6594.00,0.66
6593.00,0.66
6592.00,0.66
6591.00,0.66
6590.00,0.66
6589.00,0.66
6588.00,0.66
6587.00,0.66
6586.00,0.66
6585.00,0.66
6584.00,0.66
6583.00,0.67
6582.00,0.67
6581.00,0.67
6580.00,0.67
6579.00,0.67
6578.00,0.67
6577.00,0.67
6576.00,0.67
6575.00,0.67
6574.00,0.68
6573.00,0.68
6572.00,0.68
6571.00,0.68
6570.00,0.68
6569.00,0.68
6568.00,0.68
6567.00,0.68
6566.00,0.68
6565.00,0.69
6564.00,0.69
6563.00,0.69
6562.00,0.69
6561.00,0.69
6560.00,0.69
6559.00,0.69
6558.00,0.69
6557.00,0.69
6556.00,0.69
6555.00,0.69
6554.00,0.69
6553.00,0.69
6552.00,0.69
6551.00,0.69
6550.00,0.69
6549.00,0.69
6548.00,0.69
6547.00,0.69
6546.00,0.70
6545.00,0.70
6544.00,0.70
6543.00,0.70
6542.00,0.70
6541.00,0.70
6540.00,0.70
6539.00,0.70
6538.00,0.70
6537.00,0.70
6536.00,0.70
6535.00,0.70
6534.00,0.70
6533.00,0.70
6532.00,0.70
6531.00,0.70
6530.00,0.70
6529.00,0.70
6528.00,0.70
6527.00,0.70
6526.00,0.70
6525.00,0.70
6524.00,0.70
6523.00,0.70
6522.00,0.71
6521.00,0.71
6520.00,0.71
6519.00,0.71
6518.00,0.71
6517.00,0.71
6516.00,0.71
6515.00,0.71
6514.00,0.71
6513.00,0.71
6512.00,0.71
6511.00,0.72
6510.00,0.72
6509.00,0.72
6508.00,0.72
6507.00,0.72
6506.00,0.72
6505.00,0.72
6504.00,0.72
6503.00,0.72
6502.00,0.72
6501.00,0.72
6500.00,0.72
6499.00,0.72
6498.00,0.72
6497.00,0.72
6496.00,0.72
6495.00,0.72
6494.00,0.72
6493.00,0.72
6492.00,0.72
6491.00,0.72
6490.00,0.72
6489.00,0.72
6488.00,0.72
6487.00,0.72
6486.00,0.72
6485.00,0.72
6484.00,0.72
6483.00,0.72
6482.00,0.72
6481.00,0.72
6480.00,0.72
6479.00,0.72
6478.00,0.72
6477.00,0.72
6476.00,0.72
6475.00,0.72
6474.00,0.72
6473.00,0.73
6472.00,0.73
6471.00,0.73
6470.00,0.73
6469.00,0.73
6468.00,0.73
6467.00,0.73
6466.00,0.73
6465.00,0.73
6464.00,0.73
6463.00,0.74
6462.00,0.74
6461.00,0.74
6460.00,0.74
6459.00,0.74
6458.00,0.74
6457.00,0.74
6456.00,0.74
6455.00,0.74
6454.00,0.74
6453.00,0.74
6452.00,0.74
6451.00,0.74
6450.00,0.74
6449.00,0.74
6448.00,0.74
6447.00,0.74
6446.00,0.74
6445.00,0.74
6444.00,0.74
6443.00,0.74
6442.00,0.74
6441.00,0.75
6440.00,0.75
6439.00,0.75
6438.00,0.75
6437.00,0.75
6436.00,0.75
6435.00,0.75
6434.00,0.75
6433.00,0.75
6432.00,0.75
6431.00,0.75
6430.00,0.75
6429.00,0.75
6428.00,0.75
6427.00,0.75
6426.00,0.75
6425.00,0.75
6424.00,0.76
6423.00,0.76
6422.00,0.76
6421.00,0.76
6420.00,0.76
6419.00,0.76
6418.00,0.76
6417.00,0.76
6416.00,0.76
6415.00,0.76
6414.00,0.76
6413.00,0.76
6412.00,0.76
6411.00,0.76
6410.00,0.76
6409.00,0.76
6408.00,0.76
6407.00,0.76
6406.00,0.76
6405.00,0.76
6404.00,0.76
6403.00,0.76
6402.00,0.76
6401.00,0.76
6400.00,0.76
6399.00,0.76
6398.00,0.76
6397.00,0.76
6396.00,0.76
6395.00,0.76
6394.00,0.76
6393.00,0.76
6392.00,0.76
6391.00,0.76
6390.00,0.76
6389.00,0.77
6388.00,0.77
6387.00,0.77
6386.00,0.77
6385.00,0.77
6384.00,0.77
6383.00,0.77
6382.00,0.77
6381.00,0.77
6380.00,0.77
6379.00,0.77
6378.00,0.78
6377.00,0.78
6376.00,0.78
6375.00,0.78
6374.00,0.78
6373.00,0.78
6372.00,0.78
6371.00,0.78
6370.00,0.78
6369.00,0.78
6368.00,0.78
6367.00,0.78
6366.00,0.78
6365.00,0.78
6364.00,0.79
6363.00,0.79
6362.00,0.79
6361.00,0.79
6360.00,0.79
6359.00,0.79
6358.00,0.79
6357.00,0.79
6356.00,0.79
6355.00,0.79
6354.00,0.79
6353.00,0.79
6352.00,0.79
6351.00,0.79
6350.00,0.79
6349.00,0.79
6348.00,0.79
6347.00,0.79
6346.00,0.79
6345.00,0.79
6344.00,0.79
6343.00,0.79
6342.00,0.79
6341.00,0.79
6340.00,0.79
6339.00,0.80
6338.00,0.80
6337.00,0.80
6336.00,0.80
6335.00,0.80
6334.00,0.80
6333.00,0.80
6332.00,0.80
6331.00,0.80
6330.00,0.81
6329.00,0.81
6328.00,0.81
6327.00,0.81
6326.00,0.81
6325.00,0.81
6324.00,0.81
6323.00,0.81
6322.00,0.82
6321.00,0.82
6320.00,0.82
6319.00,0.82
6318.00,0.82
6317.00,0.82
6316.00,0.82
6315.00,0.82
6314.00,0.82
6313.00,0.82
6312.00,0.82
6311.00,0.82
6310.00,0.82
6309.00,0.82
6308.00,0.82
6307.00,0.82
6306.00,0.82
6305.00,0.82
6304.00,0.82
6303.00,0.82
6302.00,0.82
6301.00,0.82
6300.00,0.82
6299.00,0.83
6298.00,0.83
6297.00,0.83
6296.00,0.83
6295.00,0.83
6294.00,0.83
6293.00,0.83
6292.00,0.83
6291.00,0.83
6290.00,0.83
6289.00,0.83
6288.00,0.84
6287.00,0.84
6286.00,0.84
6285.00,0.84
6284.00,0.84
6283.00,0.84
6282.00,0.84
6281.00,0.84
6280.00,0.84
6279.00,0.84
6278.00,0.85
6277.00,0.85
6276.00,0.85
6275.00,0.85
6274.00,0.85
6273.00,0.85
6272.00,0.85
6271.00,0.85
6270.00,0.85
6269.00,0.85
6268.00,0.86
6267.00,0.86
6266.00,0.86
6265.00,0.86
6264.00,0.86
6263.00,0.86
6262.00,0.86
6261.00,0.86
6260.00,0.86
6259.00,0.86
6258.00,0.86
6257.00,0.87
6256.00,0.87
6255.00,0.87
6254.00,0.87
6253.00,0.87
6252.00,0.87
6251.00,0.87
6250.00,0.87
6249.00,0.87
6248.00,0.87
6247.00,0.88
6246.00,0.88
6245.00,0.88
6244.00,0.88
6243.00,0.88
6242.00,0.88
6241.00,0.88
6240.00,0.88
6239.00,0.88
6238.00,0.88
6237.00,0.89
6236.00,0.89
6235.00,0.89
6234.00,0.89
6233.00,0.89
6232.00,0.89
6231.00,0.89
6230.00,0.89
6229.00,0.89
6228.00,0.89
6227.00,0.89
6226.00,0.89
6225.00,0.89
6224.00,0.89
6223.00,0.89
6222.00,0.89
6221.00,0.89
6220.00,0.89
6219.00,0.89
6218.00,0.89
6217.00,0.89
6216.00,0.90
6215.00,0.90
6214.00,0.90
6213.00,0.90
6212.00,0.90
6211.00,0.90
6210.00,0.90
6209.00,0.90
6208.00,0.90
6207.00,0.91
6206.00,0.91
6205.00,0.91
6204.00,0.91
6203.00,0.91
6202.00,0.91
6201.00,0.91
6200.00,0.91
6199.00,0.92
6198.00,0.92
6197.00,0.92
6196.00,0.92
6195.00,0.92
6194.00,0.92
6193.00,0.92
6192.00,0.92
6191.00,0.92
6190.00,0.93
6189.00,0.93
6188.00,0.93
6187.00,0.93
6186.00,0.93
6185.00,0.93
6184.00,0.93
6183.00,0.93
6182.00,0.93
6181.00,0.93
6180.00,0.93
6179.00,0.93
6178.00,0.93
6177.00,0.93
6176.00,0.93
6175.00,0.94
6174.00,0.94
6173.00,0.94
6172.00,0.94
6171.00,0.94
6170.00,0.94
6169.00,0.94
6168.00,0.94
6167.00,0.94
6166.00,0.94
6165.00,0.95
6164.00,0.95
6163.00,0.95
6162.00,0.95
6161.00,0.95
6160.00,0.95
6159.00,0.95
6158.00,0.96
6157.00,0.96
6156.00,0.96
6155.00,0.96
6154.00,0.96
6153.00,0.96
6152.00,0.96
6151.00,0.97
6150.00,0.97
6149.00,0.97
6148.00,0.97
6147.00,0.97
6146.00,0.97
6145.00,0.97
6144.00,0.97
6143.00,0.98
6142.00,0.98
6141.00,0.98
6140.00,0.98
6139.00,0.98
6138.00,0.98
6137.00,0.98
6136.00,0.98
6135.00,0.98
6134.00,0.99
6133.00,0.99
6132.00,0.99
6131.00,0.99
6130.00,0.99
6129.00,0.99
6128.00,0.99
6127.00,0.99
6126.00,0.99
6125.00,1.00
6124.00,1.00
6123.00,1.00
6122.00,1.00
6121.00,1.00
6120.00,1.00
6119.00,1.00
6118.00,1.00
6117.00,1.00
6116.00,1.01
6115.00,1.01
6114.00,1.01
6113.00,1.01
6112.00,1.01
6111.00,1.01
6110.00,1.01
6109.00,1.01
6108.00,1.02
6107.00,1.02
6106.00,1.02
6105.00,1.02
6104.00,1.02
6103.00,1.02
6102.00,1.02
6101.00,1.02
6100.00,1.02
6099.00,1.03
6098.00,1.03
6097.00,1.03
6096.00,1.03
6095.00,1.03
6094.00,1.03
6093.00,1.03
6092.00,1.03
6091.00,1.03
6090.00,1.03
6089.00,1.04
6088.00,1.04
6087.00,1.04
6086.00,1.04
6085.00,1.04
6084.00,1.04
6083.00,1.04
6082.00,1.04
6081.00,1.04
6080.00,1.04
6079.00,1.04
6078.00,1.05
6077.00,1.05
6076.00,1.05
6075.00,1.05
6074.00,1.05
6073.00,1.05
6072.00,1.05
6071.00,1.05
6070.00,1.05
6069.00,1.05
6068.00,1.05
6067.00,1.05
6066.00,1.05
6065.00,1.06
6064.00,1.06
6063.00,1.06
6062.00,1.06
6061.00,1.06
6060.00,1.06
6059.00,1.06
6058.00,1.07
6057.00,1.07
6056.00,1.07
6055.00,1.07
6054.00,1.07
6053.00,1.07
6052.00,1.07
6051.00,1.07
6050.00,1.07
6049.00,1.07
6048.00,1.07
6047.00,1.08
6046.00,1.08
6045.00,1.08
6044.00,1.08
6043.00,1.08
6042.00,1.08
6041.00,1.08
6040.00,1.08
6039.00,1.08
6038.00,1.08
6037.00,1.08
6036.00,1.08
6035.00,1.08
6034.00,1.08
6033.00,1.08
6032.00,1.08
6031.00,1.08
6030.00,1.08
6029.00,1.08
6028.00,1.08
6027.00,1.08
6026.00,1.08
6025.00,1.09
6024.00,1.09
6023.00,1.09
6022.00,1.09
6021.00,1.09
6020.00,1.09
6019.00,1.09
6018.00,1.09
6017.00,1.09
6016.00,1.09
6015.00,1.09
6014.00,1.09
6013.00,1.09
6012.00,1.09
6011.00,1.09
6010.00,1.09
6009.00,1.09
6008.00,1.09
6007.00,1.09
6006.00,1.09
6005.00,1.09
6004.00,1.08
6003.00,1.08
6002.00,1.08
6001.00,1.08
6000.00,1.08
5999.00,1.08
5998.00,1.08
5997.00,1.08
5996.00,1.08
5995.00,1.08
5994.00,1.08
5993.00,1.08
5992.00,1.07
5991.00,1.07
5990.00,1.07
5989.00,1.07
5988.00,1.07
5987.00,1.07
5986.00,1.07
5985.00,1.06
5984.00,1.06
5983.00,1.06
5982.00,1.06
5981.00,1.06
5980.00,1.05
5979.00,1.05
5978.00,1.05
5977.00,1.04
5976.00,1.04
5975.00,1.04
5974.00,1.03
5973.00,1.03
5972.00,1.03
5971.00,1.02
5970.00,1.02
5969.00,1.01
5968.00,1.01
5967.00,1.00
5966.00,1.00
5965.00,0.99
5964.00,0.99
5963.00,0.98
5962.00,0.98
5961.00,0.97
5960.00,0.97
5959.00,0.96
5958.00,0.95
5957.00,0.95
5956.00,0.94
5955.00,0.94
5954.00,0.93
5953.00,0.93
5952.00,0.92
5951.00,0.92
5950.00,0.91
5949.00,0.91
5948.00,0.90
5947.00,0.90
5946.00,0.89
5945.00,0.89
5944.00,0.89
5943.00,0.89
5942.00,0.88
5941.00,0.88
5940.00,0.88
5939.00,0.88
5938.00,0.88
5937.00,0.88
5936.00,0.88
5935.00,0.88
5934.00,0.88
5933.00,0.88
5932.00,0.88
5931.00,0.88
5930.00,0.88
5929.00,0.88
5928.00,0.88
5927.00,0.88
5926.00,0.87
5925.00,0.87
5924.00,0.87
5923.00,0.87
5922.00,0.87
5921.00,0.87
5920.00,0.86
5919.00,0.86
5918.00,0.86
5917.00,0.86
5916.00,0.86
5915.00,0.85
5914.00,0.85
5913.00,0.85
5912.00,0.85
5911.00,0.84
5910.00,0.84
5909.00,0.84
5908.00,0.84
5907.00,0.84
5906.00,0.83
5905.00,0.83
5904.00,0.83
5903.00,0.83
5902.00,0.83
5901.00,0.83
5900.00,0.83
5899.00,0.83
5898.00,0.83
5897.00,0.83
5896.00,0.83
5895.00,0.84
5894.00,0.84
5893.00,0.84
5892.00,0.84
5891.00,0.84
5890.00,0.85
5889.00,0.85
5888.00,0.85
5887.00,0.85
5886.00,0.85
5885.00,0.86
5884.00,0.86
5883.00,0.86
5882.00,0.87
5881.00,0.87
5880.00,0.87
5879.00,0.87
5878.00,0.88
5877.00,0.88
5876.00,0.88
5875.00,0.88
5874.00,0.88
5873.00,0.89
5872.00,0.89
5871.00,0.89
5870.00,0.89
5869.00,0.90
5868.00,0.90
5867.00,0.90
5866.00,0.90
5865.00,0.90
5864.00,0.91
5863.00,0.91
5862.00,0.91
5861.00,0.91
5860.00,0.91
5859.00,0.91
5858.00,0.92
5857.00,0.92
5856.00,0.92
5855.00,0.92
5854.00,0.92
5853.00,0.92
5852.00,0.92
5851.00,0.92
5850.00,0.92
5849.00,0.92
5848.00,0.92
5847.00,0.92
5846.00,0.92
5845.00,0.92
5844.00,0.92
5843.00,0.92
5842.00,0.91
5841.00,0.91
5840.00,0.91
5839.00,0.91
5838.00,0.91
5837.00,0.91
5836.00,0.91
5835.00,0.91
5834.00,0.91
5833.00,0.91
5832.00,0.91
5831.00,0.91
5830.00,0.91
5829.00,0.91
5828.00,0.91
5827.00,0.91
5826.00,0.91
5825.00,0.91
5824.00,0.91
5823.00,0.92
5822.00,0.92
5821.00,0.92
5820.00,0.92
5819.00,0.92
5818.00,0.92
5817.00,0.92
5816.00,0.92
5815.00,0.92
5814.00,0.92
5813.00,0.92
5812.00,0.92
5811.00,0.92
5810.00,0.92
5809.00,0.92
5808.00,0.92
5807.00,0.92
5806.00,0.92
5805.00,0.92
5804.00,0.92
5803.00,0.92
5802.00,0.92
5801.00,0.92
5800.00,0.91
5799.00,0.91
5798.00,0.91
5797.00,0.91
5796.00,0.91
5795.00,0.91
5794.00,0.91
5793.00,0.91
5792.00,0.91
5791.00,0.91
5790.00,0.90
5789.00,0.90
5788.00,0.90
5787.00,0.90
5786.00,0.90
5785.00,0.90
5784.00,0.90
5783.00,0.90
5782.00,0.89
5781.00,0.89
5780.00,0.89
5779.00,0.89
5778.00,0.89
5777.00,0.89
5776.00,0.89
5775.00,0.89
5774.00,0.88
5773.00,0.88
5772.00,0.88
5771.00,0.88
5770.00,0.88
5769.00,0.88
5768.00,0.88
5767.00,0.89
5766.00,0.89
5765.00,0.89
5764.00,0.89
5763.00,0.89
5762.00,0.89
5761.00,0.90
5760.00,0.90
5759.00,0.90
5758.00,0.90
5757.00,0.90
5756.00,0.91
5755.00,0.91
5754.00,0.91
5753.00,0.92
5752.00,0.92
5751.00,0.92
5750.00,0.92
5749.00,0.93
5748.00,0.93
5747.00,0.93
5746.00,0.93
5745.00,0.94
5744.00,0.94
5743.00,0.94
5742.00,0.94
5741.00,0.95
5740.00,0.95
5739.00,0.95
5738.00,0.95
5737.00,0.96
5736.00,0.96
5735.00,0.96
5734.00,0.96
5733.00,0.96
5732.00,0.96
5731.00,0.96
5730.00,0.96
5729.00,0.96
5728.00,0.97
5727.00,0.97
5726.00,0.97
5725.00,0.97
5724.00,0.97
5723.00,0.97
5722.00,0.97
5721.00,0.97
5720.00,0.97
5719.00,0.97
5718.00,0.97
5717.00,0.97
5716.00,0.97
5715.00,0.97
5714.00,0.97
5713.00,0.97
5712.00,0.97
5711.00,0.97
5710.00,0.97
5709.00,0.97
5708.00,0.97
5707.00,0.97
5706.00,0.97
5705.00,0.97
5704.00,0.97
5703.00,0.97
5702.00,0.97
5701.00,0.97
5700.00,0.97
5699.00,0.96
5698.00,0.96
5697.00,0.96
5696.00,0.96
5695.00,0.96
5694.00,0.96
5693.00,0.96
5692.00,0.96
5691.00,0.95
5690.00,0.95
5689.00,0.95
5688.00,0.95
5687.00,0.95
5686.00,0.95
5685.00,0.95
5684.00,0.95
5683.00,0.95
5682.00,0.95
5681.00,0.95
5680.00,0.94
5679.00,0.94
5678.00,0.94
5677.00,0.94
5676.00,0.94
5675.00,0.94
5674.00,0.94
5673.00,0.94
5672.00,0.94
5671.00,0.94
5670.00,0.94
5669.00,0.94
5668.00,0.94
5667.00,0.95
5666.00,0.95
5665.00,0.95
5664.00,0.95
5663.00,0.95
5662.00,0.95
5661.00,0.95
5660.00,0.95
5659.00,0.95
5658.00,0.95
5657.00,0.96
5656.00,0.96
5655.00,0.96
5654.00,0.96
5653.00,0.96
5652.00,0.96
5651.00,0.96
5650.00,0.97
5649.00,0.97
5648.00,0.97
5647.00,0.97
5646.00,0.97
5645.00,0.97
5644.00,0.98
5643.00,0.98
5642.00,0.98
5641.00,0.98
5640.00,0.99
5639.00,0.99
5638.00,0.99
5637.00,0.99
5636.00,0.99
5635.00,1.00
5634.00,1.00
5633.00,1.00
5632.00,1.00
5631.00,1.00
5630.00,1.00
5629.00,1.01
5628.00,1.01
5627.00,1.01
5626.00,1.01
5625.00,1.01
5624.00,1.01
5623.00,1.01
5622.00,1.02
5621.00,1.02
5620.00,1.02
5619.00,1.02
5618.00,1.02
5617.00,1.02
5616.00,1.02
5615.00,1.02
5614.00,1.03
5613.00,1.03
5612.00,1.03
5611.00,1.03
5610.00,1.03
5609.00,1.03
5608.00,1.03
5607.00,1.04
5606.00,1.04
5605.00,1.04
5604.00,1.04
5603.00,1.04
5602.00,1.04
5601.00,1.04
5600.00,1.04
5599.00,1.05
5598.00,1.05
5597.00,1.05
5596.00,1.05
5595.00,1.05
5594.00,1.05
5593.00,1.05
5592.00,1.05
5591.00,1.06
5590.00,1.06
5589.00,1.06
5588.00,1.06
5587.00,1.06
5586.00,1.06
5585.00,1.06
5584.00,1.06
5583.00,1.07
5582.00,1.07
5581.00,1.07
5580.00,1.07
5579.00,1.07
5578.00,1.07
5577.00,1.07
5576.00,1.07
5575.00,1.08
5574.00,1.08
5573.00,1.08
5572.00,1.08
5571.00,1.08
5570.00,1.08
5569.00,1.08
5568.00,1.08
5567.00,1.08
5566.00,1.08
5565.00,1.08
5564.00,1.09
5563.00,1.09
5562.00,1.09
5561.00,1.09
5560.00,1.09
5559.00,1.09
5558.00,1.09
5557.00,1.09
5556.00,1.09
5555.00,1.10
5554.00,1.10
5553.00,1.10
5552.00,1.10
5551.00,1.10
5550.00,1.10
5549.00,1.10
5548.00,1.10
5547.00,1.10
5546.00,1.11
5545.00,1.11
5544.00,1.11
5543.00,1.11
5542.00,1.11
5541.00,1.11
5540.00,1.11
5539.00,1.11
5538.00,1.11
5537.00,1.11
5536.00,1.11
5535.00,1.11
5534.00,1.11
5533.00,1.12
5532.00,1.12
5531.00,1.12
5530.00,1.12
5529.00,1.12
5528.00,1.12
5527.00,1.12
5526.00,1.12
5525.00,1.12
5524.00,1.12
5523.00,1.12
5522.00,1.12
5521.00,1.12
5520.00,1.12
5519.00,1.12
5518.00,1.13
5517.00,1.13
5516.00,1.13
5515.00,1.13
5514.00,1.13
5513.00,1.13
5512.00,1.13
5511.00,1.13
5510.00,1.13
5509.00,1.13
5508.00,1.13
5507.00,1.13
5506.00,1.13
5505.00,1.13
5504.00,1.13
5503.00,1.13
5502.00,1.13
5501.00,1.14
5500.00,1.14
5499.00,1.14
5498.00,1.14
5497.00,1.14
5496.00,1.14
5495.00,1.14
5494.00,1.14
5493.00,1.14
5492.00,1.14
5491.00,1.14
5490.00,1.14
5489.00,1.14
5488.00,1.14
5487.00,1.14
5486.00,1.14
5485.00,1.15
5484.00,1.15
5483.00,1.15
5482.00,1.15
5481.00,1.15
5480.00,1.15
5479.00,1.15
5478.00,1.15
5477.00,1.15
5476.00,1.15
5475.00,1.16
5474.00,1.16
5473.00,1.16
5472.00,1.16
5471.00,1.16
5470.00,1.16
5469.00,1.16
5468.00,1.16
5467.00,1.16
5466.00,1.16
5465.00,1.16
5464.00,1.17
5463.00,1.17
5462.00,1.17
5461.00,1.17
5460.00,1.17
5459.00,1.17
5458.00,1.17
5457.00,1.17
5456.00,1.17
5455.00,1.18
5454.00,1.18
5453.00,1.18
5452.00,1.18
5451.00,1.18
5450.00,1.18
5449.00,1.18
5448.00,1.18
5447.00,1.18
5446.00,1.18
5445.00,1.18
5444.00,1.18
5443.00,1.18
5442.00,1.18
5441.00,1.18
5440.00,1.18
5439.00,1.18
5438.00,1.18
5437.00,1.18
5436.00,1.18
5435.00,1.18
5434.00,1.18
5433.00,1.18
5432.00,1.18
5431.00,1.18
5430.00,1.18
5429.00,1.18
5428.00,1.18
5427.00,1.18
5426.00,1.18
5425.00,1.18
5424.00,1.19
5423.00,1.19
5422.00,1.19
5421.00,1.19
5420.00,1.19
5419.00,1.19
5418.00,1.19
5417.00,1.19
5416.00,1.19
5415.00,1.19
5414.00,1.19
5413.00,1.19
5412.00,1.19
5411.00,1.19
5410.00,1.19
5409.00,1.19
5408.00,1.19
5407.00,1.19
5406.00,1.19
5405.00,1.19
5404.00,1.19
5403.00,1.19
5402.00,1.19
5401.00,1.19
5400.00,1.19
5399.00,1.19
5398.00,1.19
5397.00,1.19
5396.00,1.18
5395.00,1.18
5394.00,1.18
5393.00,1.18
5392.00,1.18
5391.00,1.18
5390.00,1.18
5389.00,1.18
5388.00,1.18
5387.00,1.17
5386.00,1.17
5385.00,1.17
5384.00,1.17
5383.00,1.17
5382.00,1.16
5381.00,1.16
5380.00,1.16
5379.00,1.16
5378.00,1.15
5377.00,1.15
5376.00,1.15
5375.00,1.15
5374.00,1.14
5373.00,1.14
5372.00,1.14
5371.00,1.14
5370.00,1.13
5369.00,1.13
5368.00,1.13
5367.00,1.12
5366.00,1.12
5365.00,1.12
5364.00,1.11
5363.00,1.11
5362.00,1.10
5361.00,1.10
5360.00,1.10
5359.00,1.09
5358.00,1.09
5357.00,1.08
5356.00,1.07
5355.00,1.07
5354.00,1.06
5353.00,1.06
5352.00,1.05
5351.00,1.04
5350.00,1.04
5349.00,1.03
5348.00,1.02
5347.00,1.02
5346.00,1.01
5345.00,1.00
5344.00,0.99
5343.00,0.99
5342.00,0.98
5341.00,0.97
5340.00,0.96
5339.00,0.96
5338.00,0.95
5337.00,0.94
5336.00,0.93
5335.00,0.93
5334.00,0.92
5333.00,0.91
5332.00,0.90
5331.00,0.90
5330.00,0.89
5329.00,0.88
5328.00,0.88
5327.00,0.87
5326.00,0.86
5325.00,0.85
5324.00,0.85
5323.00,0.84
5322.00,0.83
5321.00,0.83
5320.00,0.82
5319.00,0.81
5318.00,0.80
5317.00,0.80
5316.00,0.79
5315.00,0.78
5314.00,0.78
5313.00,0.77
5312.00,0.77
5311.00,0.76
5310.00,0.75
5309.00,0.75
5308.00,0.74
5307.00,0.74
5306.00,0.73
5305.00,0.73
5304.00,0.72
5303.00,0.72
5302.00,0.72
5301.00,0.71
5300.00,0.71
5299.00,0.70
5298.00,0.70
5297.00,0.70
5296.00,0.69
5295.00,0.69
5294.00,0.69
5293.00,0.69
5292.00,0.68
5291.00,0.68
5290.00,0.68
5289.00,0.68
5288.00,0.67
5287.00,0.67
5286.00,0.67
5285.00,0.67
5284.00,0.67
5283.00,0.67
5282.00,0.66
5281.00,0.66
5280.00,0.66
5279.00,0.66
5278.00,0.66
5277.00,0.66
5276.00,0.66
5275.00,0.66
5274.00,0.66
5273.00,0.65
5272.00,0.65
5271.00,0.65
5270.00,0.65
5269.00,0.65
5268.00,0.65
5267.00,0.65
5266.00,0.65
5265.00,0.65
5264.00,0.64
5263.00,0.64
5262.00,0.64
5261.00,0.64
5260.00,0.64
5259.00,0.64
5258.00,0.64
5257.00,0.64
5256.00,0.64
5255.00,0.64
5254.00,0.64
5253.00,0.64
5252.00,0.64
5251.00,0.64
5250.00,0.65
5249.00,0.65
5248.00,0.65
5247.00,0.65
5246.00,0.65
5245.00,0.65
5244.00,0.65
5243.00,0.65
5242.00,0.65
5241.00,0.65
5240.00,0.65
5239.00,0.65
5238.00,0.65
5237.00,0.65
5236.00,0.65
5235.00,0.65
5234.00,0.65
5233.00,0.65
5232.00,0.65
5231.00,0.65
5230.00,0.65
5229.00,0.65
5228.00,0.65
5227.00,0.65
5226.00,0.65
5225.00,0.65
5224.00,0.65
5223.00,0.65
5222.00,0.65
5221.00,0.65
5220.00,0.65
5219.00,0.65
5218.00,0.65
5217.00,0.65
5216.00,0.65
5215.00,0.65
5214.00,0.65
5213.00,0.65
5212.00,0.65
5211.00,0.65
5210.00,0.65
5209.00,0.65
5208.00,0.65
5207.00,0.65
5206.00,0.65
5205.00,0.65
5204.00,0.65
5203.00,0.65
5202.00,0.65
5201.00,0.65
5200.00,0.65
5199.00,0.66
5198.00,0.66
5197.00,0.66
5196.00,0.66
5195.00,0.66
5194.00,0.66
5193.00,0.66
5192.00,0.66
5191.00,0.66
5190.00,0.66
5189.00,0.66
5188.00,0.66
5187.00,0.66
5186.00,0.66
5185.00,0.66
5184.00,0.66
5183.00,0.66
5182.00,0.66
5181.00,0.66
5180.00,0.66
5179.00,0.67
5178.00,0.67
5177.00,0.67
5176.00,0.67
5175.00,0.67
5174.00,0.67
5173.00,0.67
5172.00,0.67
5171.00,0.67
5170.00,0.67
5169.00,0.67
5168.00,0.67
5167.00,0.67
5166.00,0.67
5165.00,0.67
5164.00,0.67
5163.00,0.67
5162.00,0.67
5161.00,0.67
5160.00,0.67
5159.00,0.67
5158.00,0.67
5157.00,0.67
5156.00,0.67
5155.00,0.67
5154.00,0.67
5153.00,0.67
5152.00,0.67
5151.00,0.67
5150.00,0.67
5149.00,0.67
5148.00,0.67
5147.00,0.67
5146.00,0.67
5145.00,0.67
5144.00,0.67
5143.00,0.67
5142.00,0.67
5141.00,0.67
5140.00,0.68
5139.00,0.68
5138.00,0.68
5137.00,0.68
5136.00,0.68
5135.00,0.68
5134.00,0.68
5133.00,0.68
5132.00,0.68
5131.00,0.68
5130.00,0.68
5129.00,0.68
5128.00,0.68
5127.00,0.68
5126.00,0.68
5125.00,0.68
5124.00,0.68
5123.00,0.68
5122.00,0.68
5121.00,0.68
5120.00,0.68
5119.00,0.68
5118.00,0.68
5117.00,0.68
5116.00,0.68
5115.00,0.68
5114.00,0.68
5113.00,0.68
5112.00,0.69
5111.00,0.69
5110.00,0.69
5109.00,0.69
5108.00,0.69
5107.00,0.69
5106.00,0.69
5105.00,0.69
5104.00,0.69
5103.00,0.69
5102.00,0.69
5101.00,0.69
5100.00,0.69
5099.00,0.69
5098.00,0.70
5097.00,0.70
5096.00,0.70
5095.00,0.70
5094.00,0.70
5093.00,0.70
5092.00,0.70
5091.00,0.70
5090.00,0.70
5089.00,0.70
5088.00,0.70
5087.00,0.70
5086.00,0.70
5085.00,0.70
5084.00,0.70
5083.00,0.70
5082.00,0.70
5081.00,0.70
5080.00,0.71
5079.00,0.71
5078.00,0.71
5077.00,0.71
5076.00,0.71
5075.00,0.71
5074.00,0.71
5073.00,0.71
5072.00,0.71
5071.00,0.71
5070.00,0.71
5069.00,0.71
5068.00,0.71
5067.00,0.71
5066.00,0.71
5065.00,0.71
5064.00,0.71
5063.00,0.71
5062.00,0.71
5061.00,0.71
5060.00,0.71
5059.00,0.71
5058.00,0.71
5057.00,0.72
5056.00,0.72
5055.00,0.72
5054.00,0.72
5053.00,0.72
5052.00,0.72
5051.00,0.72
5050.00,0.72
5049.00,0.72
5048.00,0.72
5047.00,0.72
5046.00,0.72
5045.00,0.72
5044.00,0.72
5043.00,0.72
5042.00,0.73
5041.00,0.73
5040.00,0.73
5039.00,0.73
5038.00,0.73
5037.00,0.73
5036.00,0.73
5035.00,0.73
5034.00,0.73
5033.00,0.73
5032.00,0.73
5031.00,0.73
5030.00,0.73
5029.00,0.73
5028.00,0.73
5027.00,0.73
5026.00,0.73
5025.00,0.73
5024.00,0.73
5023.00,0.73
5022.00,0.73
5021.00,0.73
5020.00,0.73
5019.00,0.73
5018.00,0.73
5017.00,0.73
5016.00,0.73
5015.00,0.73
5014.00,0.73
5013.00,0.73
5012.00,0.73
5011.00,0.74
5010.00,0.74
5009.00,0.74
5008.00,0.74
5007.00,0.74
5006.00,0.74
5005.00,0.74
5004.00,0.74
5003.00,0.74
5002.00,0.74
5001.00,0.74
5000.00,0.74
4999.00,0.74
4998.00,0.74
4997.00,0.74
4996.00,0.74
4995.00,0.74
4994.00,0.75
4993.00,0.75
4992.00,0.75
4991.00,0.75
4990.00,0.75
4989.00,0.75
4988.00,0.75
4987.00,0.75
4986.00,0.75
4985.00,0.75
4984.00,0.75
4983.00,0.75
4982.00,0.75
4981.00,0.75
4980.00,0.76
4979.00,0.76
4978.00,0.76
4977.00,0.76
4976.00,0.76
4975.00,0.76
4974.00,0.76
4973.00,0.76
4972.00,0.76
4971.00,0.76
4970.00,0.76
4969.00,0.76
4968.00,0.76
4967.00,0.76
4966.00,0.76
4965.00,0.76
4964.00,0.76
4963.00,0.76
4962.00,0.76
4961.00,0.76
4960.00,0.76
4959.00,0.76
4958.00,0.76
4957.00,0.76
4956.00,0.76
4955.00,0.76
4954.00,0.76
4953.00,0.77
4952.00,0.77
4951.00,0.77
4950.00,0.77
4949.00,0.77
4948.00,0.77
4947.00,0.77
4946.00,0.77
4945.00,0.77
4944.00,0.77
4943.00,0.77
4942.00,0.77
4941.00,0.77
4940.00,0.77
4939.00,0.77
4938.00,0.77
4937.00,0.78
4936.00,0.78
4935.00,0.78
4934.00,0.78
4933.00,0.78
4932.00,0.78
4931.00,0.78
4930.00,0.78
4929.00,0.78
4928.00,0.78
4927.00,0.78
4926.00,0.79
4925.00,0.79
4924.00,0.79
4923.00,0.79
4922.00,0.79
4921.00,0.79
4920.00,0.79
4919.00,0.79
4918.00,0.79
4917.00,0.79
4916.00,0.79
4915.00,0.79
4914.00,0.79
4913.00,0.79
4912.00,0.79
4911.00,0.79
4910.00,0.79
4909.00,0.79
4908.00,0.79
4907.00,0.80
4906.00,0.80
4905.00,0.80
4904.00,0.80
4903.00,0.80
4902.00,0.80
4901.00,0.80
4900.00,0.80
4899.00,0.80
4898.00,0.80
4897.00,0.80
4896.00,0.80
4895.00,0.80
4894.00,0.80
4893.00,0.80
4892.00,0.80
4891.00,0.80
4890.00,0.81
4889.00,0.81
4888.00,0.81
4887.00,0.81
4886.00,0.81
4885.00,0.81
4884.00,0.81
4883.00,0.81
4882.00,0.81
4881.00,0.81
4880.00,0.81
4879.00,0.81
4878.00,0.81
4877.00,0.81
4876.00,0.81
4875.00,0.81
4874.00,0.81
4873.00,0.81
4872.00,0.81
4871.00,0.82
4870.00,0.82
4869.00,0.82
4868.00,0.82
4867.00,0.82
4866.00,0.82
4865.00,0.82
4864.00,0.82
4863.00,0.82
4862.00,0.82
4861.00,0.82
4860.00,0.82
4859.00,0.82
4858.00,0.82
4857.00,0.82
4856.00,0.82
4855.00,0.82
4854.00,0.82
4853.00,0.82
4852.00,0.82
4851.00,0.82
4850.00,0.82
4849.00,0.82
4848.00,0.82
4847.00,0.82
4846.00,0.82
4845.00,0.82
4844.00,0.82
4843.00,0.83
4842.00,0.83
4841.00,0.83
4840.00,0.83
4839.00,0.83
4838.00,0.83
4837.00,0.83
4836.00,0.83
4835.00,0.83
4834.00,0.83
4833.00,0.83
4832.00,0.83
4831.00,0.83
4830.00,0.83
4829.00,0.83
4828.00,0.83
4827.00,0.83
4826.00,0.83
4825.00,0.83
4824.00,0.83
4823.00,0.83
4822.00,0.83
4821.00,0.83
4820.00,0.83
4819.00,0.83
4818.00,0.83
4817.00,0.83
4816.00,0.84
4815.00,0.84
4814.00,0.84
4813.00,0.84
4812.00,0.84
4811.00,0.84
4810.00,0.84
4809.00,0.84
4808.00,0.84
4807.00,0.84
4806.00,0.84
4805.00,0.84
4804.00,0.84
4803.00,0.84
4802.00,0.84
4801.00,0.84
4800.00,0.84
4799.00,0.85
4798.00,0.85
4797.00,0.85
4796.00,0.85
4795.00,0.85
4794.00,0.85
4793.00,0.85
4792.00,0.85
4791.00,0.86
4790.00,0.86
4789.00,0.86
4788.00,0.86
4787.00,0.86
4786.00,0.86
4785.00,0.86
4784.00,0.87
4783.00,0.87
4782.00,0.87
4781.00,0.87
4780.00,0.87
4779.00,0.87
4778.00,0.87
4777.00,0.87
4776.00,0.87
4775.00,0.87
4774.00,0.88
4773.00,0.88
4772.00,0.88
4771.00,0.88
4770.00,0.88
4769.00,0.88
4768.00,0.88
4767.00,0.88
4766.00,0.88
4765.00,0.88
4764.00,0.88
4763.00,0.88
4762.00,0.88
4761.00,0.88
4760.00,0.88
4759.00,0.88
4758.00,0.88
4757.00,0.88
4756.00,0.88
4755.00,0.89
4754.00,0.89
4753.00,0.89
4752.00,0.89
4751.00,0.89
4750.00,0.89
4749.00,0.89
4748.00,0.89
4747.00,0.90
4746.00,0.90
4745.00,0.90
4744.00,0.90
4743.00,0.90
4742.00,0.90
4741.00,0.90
4740.00,0.90
4739.00,0.90
4738.00,0.90
4737.00,0.90
4736.00,0.91
4735.00,0.91
4734.00,0.91
4733.00,0.91
4732.00,0.91
4731.00,0.91
4730.00,0.91
4729.00,0.91
4728.00,0.91
4727.00,0.92
4726.00,0.92
4725.00,0.92
4724.00,0.92
4723.00,0.92
4722.00,0.92
4721.00,0.92
4720.00,0.92
4719.00,0.93
4718.00,0.93
4717.00,0.93
4716.00,0.93
4715.00,0.93
4714.00,0.93
4713.00,0.93
4712.00,0.93
4711.00,0.94
4710.00,0.94
4709.00,0.94
4708.00,0.94
4707.00,0.94
4706.00,0.94
4705.00,0.94
4704.00,0.94
4703.00,0.94
4702.00,0.95
4701.00,0.95
4700.00,0.95
4699.00,0.95
4698.00,0.95
4697.00,0.95
4696.00,0.95
4695.00,0.95
4694.00,0.95
4693.00,0.95
4692.00,0.95
4691.00,0.95
4690.00,0.95
4689.00,0.96
4688.00,0.96
4687.00,0.96
4686.00,0.96
4685.00,0.96
4684.00,0.96
4683.00,0.96
4682.00,0.96
4681.00,0.96
4680.00,0.96
4679.00,0.96
4678.00,0.97
4677.00,0.97
4676.00,0.97
4675.00,0.97
4674.00,0.97
4673.00,0.97
4672.00,0.97
4671.00,0.97
4670.00,0.98
4669.00,0.98
4668.00,0.98
4667.00,0.98
4666.00,0.98
4665.00,0.98
4664.00,0.98
4663.00,0.98
4662.00,0.99
4661.00,0.99
4660.00,0.99
4659.00,0.99
4658.00,0.99
4657.00,0.99
4656.00,0.99
4655.00,0.99
4654.00,0.99
4653.00,0.99
4652.00,0.99
4651.00,1.00
4650.00,1.00
4649.00,1.00
4648.00,1.00
4647.00,1.00
4646.00,1.00
4645.00,1.00
4644.00,1.00
4643.00,1.00
4642.00,1.00
4641.00,1.00
4640.00,1.00
4639.00,1.00
4638.00,1.00
4637.00,1.00
4636.00,1.01
4635.00,1.01
4634.00,1.01
4633.00,1.01
4632.00,1.01
4631.00,1.01
4630.00,1.01
4629.00,1.01
4628.00,1.02
4627.00,1.02
4626.00,1.02
4625.00,1.02
4624.00,1.02
4623.00,1.02
4622.00,1.02
4621.00,1.02
4620.00,1.02
4619.00,1.02
4618.00,1.02
4617.00,1.03
4616.00,1.03
4615.00,1.03
4614.00,1.03
4613.00,1.03
4612.00,1.03
4611.00,1.03
4610.00,1.03
4609.00,1.04
4608.00,1.04
4607.00,1.04
4606.00,1.04
4605.00,1.04
4604.00,1.04
4603.00,1.04
4602.00,1.04
4601.00,1.04
4600.00,1.04
4599.00,1.04
4598.00,1.04
4597.00,1.04
4596.00,1.04
4595.00,1.04
4594.00,1.05
4593.00,1.05
4592.00,1.05
4591.00,1.05
4590.00,1.05
4589.00,1.05
4588.00,1.05
4587.00,1.05
4586.00,1.05
4585.00,1.05
4584.00,1.05
4583.00,1.05
4582.00,1.06
4581.00,1.06
4580.00,1.06
4579.00,1.06
4578.00,1.06
4577.00,1.06
4576.00,1.06
4575.00,1.06
4574.00,1.06
4573.00,1.06
4572.00,1.06
4571.00,1.06
4570.00,1.06
4569.00,1.06
4568.00,1.06
4567.00,1.06
4566.00,1.06
4565.00,1.06
4564.00,1.07
4563.00,1.07
4562.00,1.07
4561.00,1.07
4560.00,1.07
4559.00,1.07
4558.00,1.07
4557.00,1.07
4556.00,1.07
4555.00,1.07
4554.00,1.07
4553.00,1.07
4552.00,1.07
4551.00,1.07
4550.00,1.08
4549.00,1.08
4548.00,1.08
4547.00,1.08
4546.00,1.08
4545.00,1.08
4544.00,1.08
4543.00,1.08
4542.00,1.08
4541.00,1.08
4540.00,1.08
4539.00,1.08
4538.00,1.08
4537.00,1.08
4536.00,1.08
4535.00,1.08
4534.00,1.08
4533.00,1.08
4532.00,1.08
4531.00,1.08
4530.00,1.08
4529.00,1.08
4528.00,1.08
4527.00,1.08
4526.00,1.09
4525.00,1.09
4524.00,1.09
4523.00,1.09
4522.00,1.09
4521.00,1.09
4520.00,1.09
4519.00,1.09
4518.00,1.09
4517.00,1.09
4516.00,1.09
4515.00,1.09
4514.00,1.09
4513.00,1.09
4512.00,1.09
4511.00,1.09
4510.00,1.09
4509.00,1.09
4508.00,1.09
4507.00,1.09
4506.00,1.09
4505.00,1.09
4504.00,1.09
4503.00,1.09
4502.00,1.09
4501.00,1.09
4500.00,1.09
4499.00,1.09
4498.00,1.09
4497.00,1.09
4496.00,1.09
4495.00,1.09
4494.00,1.09
4493.00,1.09
4492.00,1.09
4491.00,1.09
4490.00,1.09
4489.00,1.09
4488.00,1.09
4487.00,1.09
4486.00,1.08
4485.00,1.08
4484.00,1.08
4483.00,1.08
4482.00,1.08
4481.00,1.08
4480.00,1.08
4479.00,1.08
4478.00,1.08
4477.00,1.07
4476.00,1.07
4475.00,1.07
4474.00,1.07
4473.00,1.07
4472.00,1.07
4471.00,1.07
4470.00,1.06
4469.00,1.06
4468.00,1.06
4467.00,1.06
4466.00,1.06
4465.00,1.06
4464.00,1.05
4463.00,1.05
4462.00,1.05
4461.00,1.05
4460.00,1.05
4459.00,1.05
4458.00,1.04
4457.00,1.04
4456.00,1.04
4455.00,1.04
4454.00,1.04
4453.00,1.03
4452.00,1.03
4451.00,1.03
4450.00,1.03
4449.00,1.03
4448.00,1.02
4447.00,1.02
4446.00,1.02
4445.00,1.02
4444.00,1.01
4443.00,1.01
4442.00,1.01
4441.00,1.01
4440.00,1.00
4439.00,1.00
4438.00,1.00
4437.00,1.00
4436.00,0.99
4435.00,0.99
4434.00,0.99
4433.00,0.99
4432.00,0.98
4431.00,0.98
4430.00,0.98
4429.00,0.98
4428.00,0.98
4427.00,0.98
4426.00,0.97
4425.00,0.97
4424.00,0.97
4423.00,0.97
4422.00,0.97
4421.00,0.97
4420.00,0.97
4419.00,0.97
4418.00,0.97
4417.00,0.97
4416.00,0.97
4415.00,0.97
4414.00,0.97
4413.00,0.97
4412.00,0.97
4411.00,0.97
4410.00,0.98
4409.00,0.98
4408.00,0.98
4407.00,0.98
4406.00,0.98
4405.00,0.98
4404.00,0.98
4403.00,0.98
4402.00,0.98
4401.00,0.99
4400.00,0.99
4399.00,0.99
4398.00,0.99
4397.00,0.99
4396.00,0.99
4395.00,0.99
4394.00,0.99
4393.00,0.99
4392.00,0.99
4391.00,0.99
4390.00,0.99
4389.00,1.00
4388.00,1.00
4387.00,1.00
4386.00,1.00
4385.00,1.00
4384.00,1.00
4383.00,1.00
4382.00,1.00
4381.00,1.00
4380.00,1.00
4379.00,1.00
4378.00,1.00
4377.00,1.00
4376.00,1.01
4375.00,1.01
4374.00,1.01
4373.00,1.01
4372.00,1.01
4371.00,1.01
4370.00,1.01
4369.00,1.01
4368.00,1.01
4367.00,1.01
4366.00,1.01
4365.00,1.01
4364.00,1.01
4363.00,1.01
4362.00,1.01
4361.00,1.01
4360.00,1.01
4359.00,1.01
4358.00,1.00
4357.00,1.00
4356.00,1.00
4355.00,1.00
4354.00,1.01
4353.00,1.01
4352.00,1.01
4351.00,1.01
4350.00,1.01
4349.00,1.01
4348.00,1.01
4347.00,1.01
4346.00,1.01
4345.00,1.01
4344.00,1.01
4343.00,1.01
4342.00,1.01
4341.00,1.01
4340.00,1.01
4339.00,1.02
4338.00,1.02
4337.00,1.02
4336.00,1.02
4335.00,1.02
4334.00,1.02
4333.00,1.02
4332.00,1.02
4331.00,1.02
4330.00,1.02
4329.00,1.02
4328.00,1.02
4327.00,1.02
4326.00,1.02
4325.00,1.02
4324.00,1.02
4323.00,1.02
4322.00,1.02
4321.00,1.03
4320.00,1.03
4319.00,1.03
4318.00,1.03
4317.00,1.03
4316.00,1.03
4315.00,1.03
4314.00,1.03
4313.00,1.04
4312.00,1.04
4311.00,1.04
4310.00,1.04
4309.00,1.04
4308.00,1.04
4307.00,1.04
4306.00,1.04
4305.00,1.04
4304.00,1.04
4303.00,1.05
4302.00,1.05
4301.00,1.05
4300.00,1.05
4299.00,1.05
4298.00,1.05
4297.00,1.05
4296.00,1.05
4295.00,1.05
4294.00,1.05
4293.00,1.05
4292.00,1.05
4291.00,1.05
4290.00,1.05
4289.00,1.06
4288.00,1.06
4287.00,1.06
4286.00,1.06
4285.00,1.06
4284.00,1.06
4283.00,1.06
4282.00,1.06
4281.00,1.06
4280.00,1.06
4279.00,1.06
4278.00,1.06
4277.00,1.06
4276.00,1.06
4275.00,1.06
4274.00,1.06
4273.00,1.06
4272.00,1.06
4271.00,1.06
4270.00,1.06
4269.00,1.06
4268.00,1.06
4267.00,1.06
4266.00,1.06
4265.00,1.06
4264.00,1.06
4263.00,1.06
4262.00,1.06
4261.00,1.06
4260.00,1.06
4259.00,1.06
4258.00,1.06
4257.00,1.06
4256.00,1.06
4255.00,1.06
4254.00,1.06
4253.00,1.06
4252.00,1.06
4251.00,1.06
4250.00,1.06
4249.00,1.06
4248.00,1.06
4247.00,1.06
4246.00,1.06
4245.00,1.06
4244.00,1.06
4243.00,1.06
4242.00,1.07
4241.00,1.07
4240.00,1.07
4239.00,1.07
4238.00,1.07
4237.00,1.07
4236.00,1.07
4235.00,1.07
4234.00,1.07
4233.00,1.07
4232.00,1.07
4231.00,1.07
4230.00,1.08
4229.00,1.08
4228.00,1.08
4227.00,1.08
4226.00,1.08
4225.00,1.08
4224.00,1.08
4223.00,1.08
4222.00,1.08
4221.00,1.08
4220.00,1.08
4219.00,1.09
4218.00,1.09
4217.00,1.09
4216.00,1.09
4215.00,1.09
4214.00,1.09
4213.00,1.09
4212.00,1.09
4211.00,1.09
4210.00,1.09
4209.00,1.09
4208.00,1.09
4207.00,1.09
4206.00,1.09
4205.00,1.10
4204.00,1.10
4203.00,1.10
4202.00,1.10
4201.00,1.10
4200.00,1.10
4199.00,1.10
4198.00,1.10
4197.00,1.10
4196.00,1.10
4195.00,1.10
4194.00,1.10
4193.00,1.10
4192.00,1.10
4191.00,1.10
4190.00,1.10
4189.00,1.10
4188.00,1.10
4187.00,1.10
4186.00,1.10
4185.00,1.10
4184.00,1.10
4183.00,1.10
4182.00,1.10
4181.00,1.10
4180.00,1.10
4179.00,1.10
4178.00,1.10
4177.00,1.10
4176.00,1.10
4175.00,1.10
4174.00,1.10
4173.00,1.10
4172.00,1.10
4171.00,1.10
4170.00,1.11
4169.00,1.11
4168.00,1.11
4167.00,1.11
4166.00,1.11
4165.00,1.11
4164.00,1.11
4163.00,1.11
4162.00,1.11
4161.00,1.11
4160.00,1.11
4159.00,1.11
4158.00,1.11
4157.00,1.11
4156.00,1.11
4155.00,1.11
4154.00,1.11
4153.00,1.11
4152.00,1.11
4151.00,1.11
4150.00,1.11
4149.00,1.11
4148.00,1.11
4147.00,1.12
4146.00,1.12
4145.00,1.12
4144.00,1.12
4143.00,1.12
4142.00,1.12
4141.00,1.12
4140.00,1.12
4139.00,1.12
4138.00,1.12
4137.00,1.12
4136.00,1.12
4135.00,1.12
4134.00,1.12
4133.00,1.12
4132.00,1.12
4131.00,1.12
4130.00,1.12
4129.00,1.12
4128.00,1.13
4127.00,1.13
4126.00,1.13
4125.00,1.13
4124.00,1.13
4123.00,1.13
4122.00,1.13
4121.00,1.13
4120.00,1.13
4119.00,1.14
4118.00,1.14
4117.00,1.14
4116.00,1.14
4115.00,1.14
4114.00,1.14
4113.00,1.14
4112.00,1.14
4111.00,1.14
4110.00,1.14
4109.00,1.14
4108.00,1.14
4107.00,1.14
4106.00,1.14
4105.00,1.14
4104.00,1.14
4103.00,1.14
4102.00,1.14
4101.00,1.14
4100.00,1.14
4099.00,1.14
4098.00,1.14
4097.00,1.14
4096.00,1.14
4095.00,1.14
4094.00,1.14
4093.00,1.14
4092.00,1.14
4091.00,1.14
4090.00,1.14
4089.00,1.14
4088.00,1.14
4087.00,1.14
4086.00,1.14
4085.00,1.14
4084.00,1.14
4083.00,1.14
4082.00,1.14
4081.00,1.15
4080.00,1.15
4079.00,1.15
4078.00,1.15
4077.00,1.15
4076.00,1.15
4075.00,1.15
4074.00,1.15
4073.00,1.15
4072.00,1.15
4071.00,1.15
4070.00,1.15
4069.00,1.15
4068.00,1.15
4067.00,1.15
4066.00,1.15
4065.00,1.15
4064.00,1.15
4063.00,1.15
4062.00,1.15
4061.00,1.15
4060.00,1.15
4059.00,1.15
4058.00,1.15
4057.00,1.15
4056.00,1.15
4055.00,1.15
4054.00,1.15
4053.00,1.15
4052.00,1.15
4051.00,1.15
4050.00,1.15
4049.00,1.15
4048.00,1.15
4047.00,1.15
4046.00,1.15
4045.00,1.15
4044.00,1.15
4043.00,1.15
4042.00,1.15
4041.00,1.15
4040.00,1.15
4039.00,1.16
4038.00,1.16
4037.00,1.16
4036.00,1.16
4035.00,1.16
4034.00,1.16
4033.00,1.16
4032.00,1.16
4031.00,1.16
4030.00,1.16
4029.00,1.16
4028.00,1.16
4027.00,1.16
4026.00,1.16
4025.00,1.16
4024.00,1.16
4023.00,1.16
4022.00,1.16
4021.00,1.16
4020.00,1.16
4019.00,1.16
4018.00,1.17
4017.00,1.17
4016.00,1.17
4015.00,1.17
4014.00,1.17
4013.00,1.17
4012.00,1.17
4011.00,1.18
4010.00,1.18
4009.00,1.18
4008.00,1.18
4007.00,1.18
4006.00,1.18
4005.00,1.18
4004.00,1.18
4003.00,1.18
4002.00,1.19
4001.00,1.19
4000.00,1.19
