创建为新数据集,样品 336 用户 Administrator 日期 星期四, 三月 08 2018
cm-1,%T
10000.00,1.71
9999.00,1.71
9998.00,1.71
9997.00,1.71
9996.00,1.71
9995.00,1.71
9994.00,1.71
9993.00,1.71
9992.00,1.71
9991.00,1.71
9990.00,1.71
9989.00,1.71
9988.00,1.71
9987.00,1.71
9986.00,1.71
9985.00,1.71
9984.00,1.71
9983.00,1.71
9982.00,1.71
9981.00,1.71
9980.00,1.71
9979.00,1.71
9978.00,1.70
9977.00,1.70
9976.00,1.70
9975.00,1.70
9974.00,1.69
9973.00,1.69
9972.00,1.69
9971.00,1.68
9970.00,1.68
9969.00,1.68
9968.00,1.68
9967.00,1.67
9966.00,1.67
9965.00,1.67
9964.00,1.67
9963.00,1.67
9962.00,1.67
9961.00,1.67
9960.00,1.67
9959.00,1.67
9958.00,1.67
9957.00,1.67
9956.00,1.67
9955.00,1.67
9954.00,1.67
9953.00,1.67
9952.00,1.67
9951.00,1.67
9950.00,1.67
9949.00,1.66
9948.00,1.66
9947.00,1.66
9946.00,1.66
9945.00,1.66
9944.00,1.66
9943.00,1.66
9942.00,1.66
9941.00,1.66
9940.00,1.67
9939.00,1.67
9938.00,1.67
9937.00,1.67
9936.00,1.67
9935.00,1.67
9934.00,1.68
9933.00,1.68
9932.00,1.68
9931.00,1.68
9930.00,1.68
9929.00,1.68
9928.00,1.69
9927.00,1.69
9926.00,1.69
9925.00,1.69
9924.00,1.69
9923.00,1.69
9922.00,1.69
9921.00,1.69
9920.00,1.69
9919.00,1.69
9918.00,1.69
9917.00,1.69
9916.00,1.69
9915.00,1.69
9914.00,1.69
9913.00,1.69
9912.00,1.69
9911.00,1.70
9910.00,1.70
9909.00,1.70
9908.00,1.70
9907.00,1.70
9906.00,1.70
9905.00,1.70
9904.00,1.70
9903.00,1.70
9902.00,1.70
9901.00,1.69
9900.00,1.69
9899.00,1.69
9898.00,1.69
9897.00,1.69
9896.00,1.69
9895.00,1.69
9894.00,1.69
9893.00,1.69
9892.00,1.69
9891.00,1.68
9890.00,1.68
9889.00,1.68
9888.00,1.68
9887.00,1.68
9886.00,1.68
9885.00,1.68
9884.00,1.68
9883.00,1.68
9882.00,1.68
9881.00,1.68
9880.00,1.68
9879.00,1.68
9878.00,1.67
9877.00,1.67
9876.00,1.67
9875.00,1.67
9874.00,1.67
9873.00,1.67
9872.00,1.67
9871.00,1.67
9870.00,1.67
9869.00,1.67
9868.00,1.67
9867.00,1.67
9866.00,1.67
9865.00,1.67
9864.00,1.67
9863.00,1.67
9862.00,1.67
9861.00,1.67
9860.00,1.67
9859.00,1.67
9858.00,1.67
9857.00,1.67
9856.00,1.67
9855.00,1.67
9854.00,1.67
9853.00,1.68
9852.00,1.68
9851.00,1.68
9850.00,1.68
9849.00,1.68
9848.00,1.68
9847.00,1.68
9846.00,1.68
9845.00,1.69
9844.00,1.69
9843.00,1.69
9842.00,1.69
9841.00,1.70
9840.00,1.70
9839.00,1.70
9838.00,1.70
9837.00,1.70
9836.00,1.70
9835.00,1.70
9834.00,1.70
9833.00,1.70
9832.00,1.70
9831.00,1.70
9830.00,1.70
9829.00,1.69
9828.00,1.69
9827.00,1.69
9826.00,1.69
9825.00,1.69
9824.00,1.68
9823.00,1.68
9822.00,1.68
9821.00,1.68
9820.00,1.67
9819.00,1.67
9818.00,1.67
9817.00,1.67
9816.00,1.67
9815.00,1.67
9814.00,1.66
9813.00,1.66
9812.00,1.66
9811.00,1.66
9810.00,1.66
9809.00,1.66
9808.00,1.66
9807.00,1.66
9806.00,1.65
9805.00,1.65
9804.00,1.65
9803.00,1.65
9802.00,1.65
9801.00,1.65
9800.00,1.65
9799.00,1.65
9798.00,1.65
9797.00,1.65
9796.00,1.65
9795.00,1.65
9794.00,1.66
9793.00,1.66
9792.00,1.66
9791.00,1.66
9790.00,1.66
9789.00,1.66
9788.00,1.66
9787.00,1.66
9786.00,1.66
9785.00,1.66
9784.00,1.66
9783.00,1.66
9782.00,1.66
9781.00,1.66
9780.00,1.65
9779.00,1.65
9778.00,1.65
9777.00,1.65
9776.00,1.65
9775.00,1.64
9774.00,1.64
9773.00,1.64
9772.00,1.64
9771.00,1.64
9770.00,1.64
9769.00,1.64
9768.00,1.64
9767.00,1.64
9766.00,1.64
9765.00,1.64
9764.00,1.64
9763.00,1.65
9762.00,1.65
9761.00,1.65
9760.00,1.65
9759.00,1.66
9758.00,1.66
9757.00,1.66
9756.00,1.67
9755.00,1.67
9754.00,1.67
9753.00,1.67
9752.00,1.67
9751.00,1.67
9750.00,1.67
9749.00,1.67
9748.00,1.67
9747.00,1.67
9746.00,1.67
9745.00,1.67
9744.00,1.67
9743.00,1.67
9742.00,1.67
9741.00,1.67
9740.00,1.67
9739.00,1.67
9738.00,1.67
9737.00,1.67
9736.00,1.67
9735.00,1.67
9734.00,1.67
9733.00,1.67
9732.00,1.67
9731.00,1.67
9730.00,1.67
9729.00,1.67
9728.00,1.67
9727.00,1.67
9726.00,1.67
9725.00,1.67
9724.00,1.67
9723.00,1.68
9722.00,1.68
9721.00,1.68
9720.00,1.67
9719.00,1.67
9718.00,1.67
9717.00,1.67
9716.00,1.67
9715.00,1.67
9714.00,1.67
9713.00,1.67
9712.00,1.67
9711.00,1.66
9710.00,1.66
9709.00,1.66
9708.00,1.66
9707.00,1.66
9706.00,1.66
9705.00,1.66
9704.00,1.66
9703.00,1.66
9702.00,1.66
9701.00,1.66
9700.00,1.66
9699.00,1.66
9698.00,1.66
9697.00,1.66
9696.00,1.66
9695.00,1.66
9694.00,1.66
9693.00,1.66
9692.00,1.66
9691.00,1.66
9690.00,1.66
9689.00,1.66
9688.00,1.66
9687.00,1.66
9686.00,1.66
9685.00,1.66
9684.00,1.66
9683.00,1.66
9682.00,1.66
9681.00,1.66
9680.00,1.67
9679.00,1.67
9678.00,1.67
9677.00,1.68
9676.00,1.68
9675.00,1.68
9674.00,1.68
9673.00,1.69
9672.00,1.69
9671.00,1.69
9670.00,1.69
9669.00,1.69
9668.00,1.70
9667.00,1.70
9666.00,1.70
9665.00,1.69
9664.00,1.69
9663.00,1.69
9662.00,1.69
9661.00,1.69
9660.00,1.69
9659.00,1.69
9658.00,1.68
9657.00,1.68
9656.00,1.68
9655.00,1.68
9654.00,1.68
9653.00,1.68
9652.00,1.68
9651.00,1.67
9650.00,1.67
9649.00,1.67
9648.00,1.67
9647.00,1.67
9646.00,1.66
9645.00,1.66
9644.00,1.66
9643.00,1.66
9642.00,1.65
9641.00,1.65
9640.00,1.65
9639.00,1.65
9638.00,1.65
9637.00,1.65
9636.00,1.65
9635.00,1.65
9634.00,1.65
9633.00,1.65
9632.00,1.65
9631.00,1.65
9630.00,1.65
9629.00,1.66
9628.00,1.66
9627.00,1.66
9626.00,1.67
9625.00,1.67
9624.00,1.67
9623.00,1.67
9622.00,1.67
9621.00,1.68
9620.00,1.68
9619.00,1.68
9618.00,1.68
9617.00,1.68
9616.00,1.68
9615.00,1.68
9614.00,1.68
9613.00,1.68
9612.00,1.68
9611.00,1.68
9610.00,1.68
9609.00,1.68
9608.00,1.68
9607.00,1.68
9606.00,1.68
9605.00,1.68
9604.00,1.68
9603.00,1.68
9602.00,1.68
9601.00,1.68
9600.00,1.68
9599.00,1.68
9598.00,1.68
9597.00,1.68
9596.00,1.68
9595.00,1.68
9594.00,1.68
9593.00,1.68
9592.00,1.68
9591.00,1.68
9590.00,1.67
9589.00,1.67
9588.00,1.67
9587.00,1.67
9586.00,1.67
9585.00,1.67
9584.00,1.67
9583.00,1.66
9582.00,1.66
9581.00,1.66
9580.00,1.66
9579.00,1.66
9578.00,1.66
9577.00,1.66
9576.00,1.66
9575.00,1.66
9574.00,1.66
9573.00,1.66
9572.00,1.66
9571.00,1.66
9570.00,1.66
9569.00,1.66
9568.00,1.66
9567.00,1.67
9566.00,1.67
9565.00,1.67
9564.00,1.67
9563.00,1.66
9562.00,1.66
9561.00,1.66
9560.00,1.66
9559.00,1.66
9558.00,1.66
9557.00,1.66
9556.00,1.66
9555.00,1.66
9554.00,1.65
9553.00,1.65
9552.00,1.65
9551.00,1.65
9550.00,1.65
9549.00,1.65
9548.00,1.65
9547.00,1.64
9546.00,1.64
9545.00,1.64
9544.00,1.64
9543.00,1.64
9542.00,1.64
9541.00,1.64
9540.00,1.64
9539.00,1.64
9538.00,1.64
9537.00,1.64
9536.00,1.64
9535.00,1.64
9534.00,1.64
9533.00,1.64
9532.00,1.65
9531.00,1.65
9530.00,1.65
9529.00,1.65
9528.00,1.65
9527.00,1.65
9526.00,1.65
9525.00,1.65
9524.00,1.65
9523.00,1.65
9522.00,1.65
9521.00,1.65
9520.00,1.65
9519.00,1.65
9518.00,1.65
9517.00,1.65
9516.00,1.65
9515.00,1.65
9514.00,1.65
9513.00,1.65
9512.00,1.65
9511.00,1.65
9510.00,1.65
9509.00,1.66
9508.00,1.66
9507.00,1.66
9506.00,1.66
9505.00,1.66
9504.00,1.66
9503.00,1.66
9502.00,1.67
9501.00,1.67
9500.00,1.67
9499.00,1.67
9498.00,1.67
9497.00,1.68
9496.00,1.68
9495.00,1.68
9494.00,1.69
9493.00,1.69
9492.00,1.69
9491.00,1.70
9490.00,1.70
9489.00,1.70
9488.00,1.70
9487.00,1.71
9486.00,1.71
9485.00,1.71
9484.00,1.71
9483.00,1.71
9482.00,1.71
9481.00,1.71
9480.00,1.71
9479.00,1.71
9478.00,1.71
9477.00,1.71
9476.00,1.71
9475.00,1.71
9474.00,1.71
9473.00,1.70
9472.00,1.70
9471.00,1.70
9470.00,1.70
9469.00,1.69
9468.00,1.69
9467.00,1.68
9466.00,1.68
9465.00,1.68
9464.00,1.67
9463.00,1.67
9462.00,1.67
9461.00,1.66
9460.00,1.66
9459.00,1.66
9458.00,1.66
9457.00,1.66
9456.00,1.65
9455.00,1.65
9454.00,1.65
9453.00,1.65
9452.00,1.65
9451.00,1.65
9450.00,1.65
9449.00,1.66
9448.00,1.66
9447.00,1.66
9446.00,1.66
9445.00,1.66
9444.00,1.66
9443.00,1.67
9442.00,1.67
9441.00,1.67
9440.00,1.67
9439.00,1.67
9438.00,1.67
9437.00,1.67
9436.00,1.67
9435.00,1.67
9434.00,1.67
9433.00,1.67
9432.00,1.67
9431.00,1.67
9430.00,1.67
9429.00,1.67
9428.00,1.67
9427.00,1.67
9426.00,1.67
9425.00,1.67
9424.00,1.66
9423.00,1.66
9422.00,1.66
9421.00,1.66
9420.00,1.66
9419.00,1.66
9418.00,1.66
9417.00,1.66
9416.00,1.66
9415.00,1.66
9414.00,1.66
9413.00,1.66
9412.00,1.66
9411.00,1.66
9410.00,1.66
9409.00,1.66
9408.00,1.66
9407.00,1.66
9406.00,1.65
9405.00,1.65
9404.00,1.65
9403.00,1.65
9402.00,1.65
9401.00,1.65
9400.00,1.65
9399.00,1.65
9398.00,1.65
9397.00,1.65
9396.00,1.65
9395.00,1.65
9394.00,1.65
9393.00,1.65
9392.00,1.65
9391.00,1.65
9390.00,1.65
9389.00,1.65
9388.00,1.65
9387.00,1.65
9386.00,1.65
9385.00,1.65
9384.00,1.66
9383.00,1.66
9382.00,1.66
9381.00,1.66
9380.00,1.66
9379.00,1.67
9378.00,1.67
9377.00,1.67
9376.00,1.67
9375.00,1.67
9374.00,1.68
9373.00,1.68
9372.00,1.68
9371.00,1.68
9370.00,1.68
9369.00,1.68
9368.00,1.68
9367.00,1.68
9366.00,1.68
9365.00,1.68
9364.00,1.68
9363.00,1.68
9362.00,1.68
9361.00,1.68
9360.00,1.68
9359.00,1.68
9358.00,1.67
9357.00,1.67
9356.00,1.67
9355.00,1.67
9354.00,1.67
9353.00,1.67
9352.00,1.67
9351.00,1.67
9350.00,1.67
9349.00,1.67
9348.00,1.67
9347.00,1.66
9346.00,1.66
9345.00,1.66
9344.00,1.66
9343.00,1.66
9342.00,1.66
9341.00,1.66
9340.00,1.66
9339.00,1.66
9338.00,1.66
9337.00,1.66
9336.00,1.66
9335.00,1.66
9334.00,1.65
9333.00,1.65
9332.00,1.65
9331.00,1.65
9330.00,1.65
9329.00,1.65
9328.00,1.65
9327.00,1.65
9326.00,1.65
9325.00,1.65
9324.00,1.65
9323.00,1.64
9322.00,1.64
9321.00,1.64
9320.00,1.64
9319.00,1.64
9318.00,1.64
9317.00,1.64
9316.00,1.64
9315.00,1.64
9314.00,1.64
9313.00,1.64
9312.00,1.64
9311.00,1.64
9310.00,1.64
9309.00,1.64
9308.00,1.64
9307.00,1.64
9306.00,1.64
9305.00,1.64
9304.00,1.65
9303.00,1.65
9302.00,1.65
9301.00,1.65
9300.00,1.65
9299.00,1.65
9298.00,1.65
9297.00,1.65
9296.00,1.65
9295.00,1.65
9294.00,1.65
9293.00,1.65
9292.00,1.65
9291.00,1.65
9290.00,1.65
9289.00,1.65
9288.00,1.65
9287.00,1.64
9286.00,1.64
9285.00,1.64
9284.00,1.64
9283.00,1.64
9282.00,1.64
9281.00,1.64
9280.00,1.64
9279.00,1.64
9278.00,1.64
9277.00,1.64
9276.00,1.64
9275.00,1.64
9274.00,1.64
9273.00,1.64
9272.00,1.64
9271.00,1.64
9270.00,1.64
9269.00,1.64
9268.00,1.64
9267.00,1.64
9266.00,1.64
9265.00,1.65
9264.00,1.65
9263.00,1.65
9262.00,1.65
9261.00,1.65
9260.00,1.65
9259.00,1.66
9258.00,1.66
9257.00,1.66
9256.00,1.66
9255.00,1.67
9254.00,1.67
9253.00,1.67
9252.00,1.67
9251.00,1.68
9250.00,1.68
9249.00,1.68
9248.00,1.68
9247.00,1.68
9246.00,1.68
9245.00,1.68
9244.00,1.68
9243.00,1.68
9242.00,1.68
9241.00,1.68
9240.00,1.68
9239.00,1.67
9238.00,1.67
9237.00,1.67
9236.00,1.67
9235.00,1.67
9234.00,1.66
9233.00,1.66
9232.00,1.66
9231.00,1.66
9230.00,1.66
9229.00,1.66
9228.00,1.66
9227.00,1.66
9226.00,1.67
9225.00,1.67
9224.00,1.67
9223.00,1.68
9222.00,1.68
9221.00,1.69
9220.00,1.69
9219.00,1.69
9218.00,1.70
9217.00,1.70
9216.00,1.70
9215.00,1.71
9214.00,1.71
9213.00,1.71
9212.00,1.71
9211.00,1.71
9210.00,1.71
9209.00,1.71
9208.00,1.71
9207.00,1.71
9206.00,1.70
9205.00,1.70
9204.00,1.70
9203.00,1.69
9202.00,1.69
9201.00,1.69
9200.00,1.68
9199.00,1.68
9198.00,1.68
9197.00,1.67
9196.00,1.67
9195.00,1.67
9194.00,1.67
9193.00,1.67
9192.00,1.66
9191.00,1.66
9190.00,1.66
9189.00,1.66
9188.00,1.66
9187.00,1.66
9186.00,1.66
9185.00,1.66
9184.00,1.66
9183.00,1.66
9182.00,1.66
9181.00,1.66
9180.00,1.66
9179.00,1.66
9178.00,1.66
9177.00,1.66
9176.00,1.66
9175.00,1.66
9174.00,1.66
9173.00,1.66
9172.00,1.66
9171.00,1.66
9170.00,1.66
9169.00,1.66
9168.00,1.66
9167.00,1.66
9166.00,1.66
9165.00,1.66
9164.00,1.66
9163.00,1.66
9162.00,1.66
9161.00,1.66
9160.00,1.66
9159.00,1.66
9158.00,1.66
9157.00,1.66
9156.00,1.66
9155.00,1.66
9154.00,1.66
9153.00,1.66
9152.00,1.66
9151.00,1.66
9150.00,1.66
9149.00,1.66
9148.00,1.66
9147.00,1.66
9146.00,1.65
9145.00,1.65
9144.00,1.65
9143.00,1.65
9142.00,1.65
9141.00,1.65
9140.00,1.65
9139.00,1.65
9138.00,1.65
9137.00,1.65
9136.00,1.65
9135.00,1.65
9134.00,1.65
9133.00,1.65
9132.00,1.65
9131.00,1.65
9130.00,1.65
9129.00,1.66
9128.00,1.66
9127.00,1.66
9126.00,1.66
9125.00,1.66
9124.00,1.67
9123.00,1.67
9122.00,1.67
9121.00,1.67
9120.00,1.67
9119.00,1.67
9118.00,1.67
9117.00,1.67
9116.00,1.67
9115.00,1.67
9114.00,1.67
9113.00,1.67
9112.00,1.67
9111.00,1.67
9110.00,1.67
9109.00,1.67
9108.00,1.67
9107.00,1.67
9106.00,1.68
9105.00,1.68
9104.00,1.68
9103.00,1.68
9102.00,1.68
9101.00,1.68
9100.00,1.69
9099.00,1.69
9098.00,1.69
9097.00,1.69
9096.00,1.69
9095.00,1.69
9094.00,1.69
9093.00,1.69
9092.00,1.69
9091.00,1.69
9090.00,1.69
9089.00,1.68
9088.00,1.68
9087.00,1.68
9086.00,1.68
9085.00,1.68
9084.00,1.68
9083.00,1.68
9082.00,1.68
9081.00,1.67
9080.00,1.67
9079.00,1.67
9078.00,1.67
9077.00,1.67
9076.00,1.67
9075.00,1.67
9074.00,1.67
9073.00,1.67
9072.00,1.67
9071.00,1.67
9070.00,1.67
9069.00,1.67
9068.00,1.67
9067.00,1.67
9066.00,1.67
9065.00,1.67
9064.00,1.67
9063.00,1.67
9062.00,1.67
9061.00,1.67
9060.00,1.67
9059.00,1.67
9058.00,1.67
9057.00,1.67
9056.00,1.67
9055.00,1.67
9054.00,1.66
9053.00,1.66
9052.00,1.66
9051.00,1.66
9050.00,1.66
9049.00,1.65
9048.00,1.65
9047.00,1.65
9046.00,1.65
9045.00,1.65
9044.00,1.64
9043.00,1.64
9042.00,1.64
9041.00,1.64
9040.00,1.64
9039.00,1.64
9038.00,1.64
9037.00,1.64
9036.00,1.64
9035.00,1.65
9034.00,1.65
9033.00,1.65
9032.00,1.65
9031.00,1.65
9030.00,1.65
9029.00,1.66
9028.00,1.66
9027.00,1.66
9026.00,1.66
9025.00,1.66
9024.00,1.67
9023.00,1.67
9022.00,1.67
9021.00,1.67
9020.00,1.67
9019.00,1.67
9018.00,1.67
9017.00,1.68
9016.00,1.68
9015.00,1.68
9014.00,1.68
9013.00,1.68
9012.00,1.68
9011.00,1.68
9010.00,1.68
9009.00,1.68
9008.00,1.68
9007.00,1.68
9006.00,1.67
9005.00,1.67
9004.00,1.67
9003.00,1.67
9002.00,1.67
9001.00,1.67
9000.00,1.67
8999.00,1.67
8998.00,1.67
8997.00,1.67
8996.00,1.67
8995.00,1.67
8994.00,1.67
8993.00,1.67
8992.00,1.66
8991.00,1.66
8990.00,1.66
8989.00,1.66
8988.00,1.67
8987.00,1.67
8986.00,1.67
8985.00,1.67
8984.00,1.67
8983.00,1.67
8982.00,1.67
8981.00,1.67
8980.00,1.67
8979.00,1.67
8978.00,1.67
8977.00,1.67
8976.00,1.67
8975.00,1.67
8974.00,1.67
8973.00,1.67
8972.00,1.67
8971.00,1.67
8970.00,1.67
8969.00,1.67
8968.00,1.68
8967.00,1.68
8966.00,1.68
8965.00,1.68
8964.00,1.68
8963.00,1.68
8962.00,1.68
8961.00,1.68
8960.00,1.68
8959.00,1.68
8958.00,1.68
8957.00,1.68
8956.00,1.68
8955.00,1.68
8954.00,1.68
8953.00,1.68
8952.00,1.68
8951.00,1.68
8950.00,1.68
8949.00,1.67
8948.00,1.67
8947.00,1.67
8946.00,1.67
8945.00,1.67
8944.00,1.67
8943.00,1.67
8942.00,1.67
8941.00,1.67
8940.00,1.67
8939.00,1.67
8938.00,1.67
8937.00,1.67
8936.00,1.67
8935.00,1.67
8934.00,1.66
8933.00,1.66
8932.00,1.66
8931.00,1.66
8930.00,1.66
8929.00,1.66
8928.00,1.66
8927.00,1.66
8926.00,1.65
8925.00,1.65
8924.00,1.65
8923.00,1.65
8922.00,1.65
8921.00,1.65
8920.00,1.65
8919.00,1.65
8918.00,1.65
8917.00,1.65
8916.00,1.65
8915.00,1.66
8914.00,1.66
8913.00,1.66
8912.00,1.66
8911.00,1.66
8910.00,1.66
8909.00,1.66
8908.00,1.66
8907.00,1.66
8906.00,1.66
8905.00,1.66
8904.00,1.66
8903.00,1.66
8902.00,1.66
8901.00,1.66
8900.00,1.66
8899.00,1.66
8898.00,1.67
8897.00,1.67
8896.00,1.67
8895.00,1.67
8894.00,1.67
8893.00,1.67
8892.00,1.67
8891.00,1.67
8890.00,1.67
8889.00,1.67
8888.00,1.67
8887.00,1.67
8886.00,1.67
8885.00,1.67
8884.00,1.66
8883.00,1.66
8882.00,1.66
8881.00,1.66
8880.00,1.66
8879.00,1.66
8878.00,1.66
8877.00,1.66
8876.00,1.66
8875.00,1.66
8874.00,1.66
8873.00,1.67
8872.00,1.67
8871.00,1.67
8870.00,1.67
8869.00,1.67
8868.00,1.67
8867.00,1.67
8866.00,1.67
8865.00,1.67
8864.00,1.67
8863.00,1.68
8862.00,1.68
8861.00,1.68
8860.00,1.68
8859.00,1.68
8858.00,1.68
8857.00,1.67
8856.00,1.67
8855.00,1.67
8854.00,1.67
8853.00,1.67
8852.00,1.67
8851.00,1.67
8850.00,1.67
8849.00,1.67
8848.00,1.67
8847.00,1.66
8846.00,1.66
8845.00,1.66
8844.00,1.66
8843.00,1.66
8842.00,1.66
8841.00,1.66
8840.00,1.66
8839.00,1.66
8838.00,1.66
8837.00,1.66
8836.00,1.65
8835.00,1.65
8834.00,1.65
8833.00,1.65
8832.00,1.65
8831.00,1.65
8830.00,1.65
8829.00,1.65
8828.00,1.65
8827.00,1.65
8826.00,1.65
8825.00,1.65
8824.00,1.65
8823.00,1.65
8822.00,1.65
8821.00,1.65
8820.00,1.65
8819.00,1.65
8818.00,1.65
8817.00,1.65
8816.00,1.65
8815.00,1.65
8814.00,1.65
8813.00,1.65
8812.00,1.65
8811.00,1.65
8810.00,1.65
8809.00,1.65
8808.00,1.65
8807.00,1.65
8806.00,1.65
8805.00,1.65
8804.00,1.64
8803.00,1.64
8802.00,1.64
8801.00,1.64
8800.00,1.64
8799.00,1.64
8798.00,1.64
8797.00,1.63
8796.00,1.63
8795.00,1.63
8794.00,1.63
8793.00,1.63
8792.00,1.63
8791.00,1.63
8790.00,1.63
8789.00,1.62
8788.00,1.62
8787.00,1.62
8786.00,1.62
8785.00,1.62
8784.00,1.62
8783.00,1.62
8782.00,1.63
8781.00,1.63
8780.00,1.63
8779.00,1.63
8778.00,1.63
8777.00,1.63
8776.00,1.63
8775.00,1.63
8774.00,1.63
8773.00,1.63
8772.00,1.63
8771.00,1.63
8770.00,1.63
8769.00,1.62
8768.00,1.62
8767.00,1.62
8766.00,1.62
8765.00,1.62
8764.00,1.62
8763.00,1.62
8762.00,1.62
8761.00,1.62
8760.00,1.62
8759.00,1.62
8758.00,1.62
8757.00,1.62
8756.00,1.63
8755.00,1.63
8754.00,1.63
8753.00,1.63
8752.00,1.63
8751.00,1.63
8750.00,1.63
8749.00,1.63
8748.00,1.63
8747.00,1.63
8746.00,1.63
8745.00,1.63
8744.00,1.63
8743.00,1.62
8742.00,1.62
8741.00,1.62
8740.00,1.62
8739.00,1.62
8738.00,1.62
8737.00,1.61
8736.00,1.61
8735.00,1.61
8734.00,1.61
8733.00,1.61
8732.00,1.60
8731.00,1.60
8730.00,1.60
8729.00,1.60
8728.00,1.60
8727.00,1.60
8726.00,1.60
8725.00,1.60
8724.00,1.60
8723.00,1.60
8722.00,1.60
8721.00,1.60
8720.00,1.60
8719.00,1.60
8718.00,1.60
8717.00,1.60
8716.00,1.60
8715.00,1.60
8714.00,1.60
8713.00,1.60
8712.00,1.60
8711.00,1.60
8710.00,1.60
8709.00,1.60
8708.00,1.60
8707.00,1.60
8706.00,1.60
8705.00,1.60
8704.00,1.60
8703.00,1.60
8702.00,1.61
8701.00,1.61
8700.00,1.61
8699.00,1.61
8698.00,1.61
8697.00,1.61
8696.00,1.61
8695.00,1.61
8694.00,1.60
8693.00,1.60
8692.00,1.60
8691.00,1.60
8690.00,1.60
8689.00,1.60
8688.00,1.60
8687.00,1.60
8686.00,1.59
8685.00,1.59
8684.00,1.59
8683.00,1.59
8682.00,1.58
8681.00,1.58
8680.00,1.58
8679.00,1.58
8678.00,1.58
8677.00,1.58
8676.00,1.58
8675.00,1.58
8674.00,1.58
8673.00,1.58
8672.00,1.58
8671.00,1.58
8670.00,1.58
8669.00,1.58
8668.00,1.58
8667.00,1.58
8666.00,1.58
8665.00,1.58
8664.00,1.58
8663.00,1.58
8662.00,1.58
8661.00,1.58
8660.00,1.58
8659.00,1.58
8658.00,1.58
8657.00,1.58
8656.00,1.58
8655.00,1.58
8654.00,1.58
8653.00,1.58
8652.00,1.58
8651.00,1.58
8650.00,1.58
8649.00,1.58
8648.00,1.58
8647.00,1.58
8646.00,1.58
8645.00,1.58
8644.00,1.58
8643.00,1.58
8642.00,1.58
8641.00,1.58
8640.00,1.58
8639.00,1.58
8638.00,1.58
8637.00,1.58
8636.00,1.57
8635.00,1.57
8634.00,1.57
8633.00,1.57
8632.00,1.57
8631.00,1.57
8630.00,1.57
8629.00,1.57
8628.00,1.57
8627.00,1.57
8626.00,1.57
8625.00,1.57
8624.00,1.57
8623.00,1.57
8622.00,1.57
8621.00,1.57
8620.00,1.57
8619.00,1.57
8618.00,1.57
8617.00,1.57
8616.00,1.57
8615.00,1.57
8614.00,1.57
8613.00,1.57
8612.00,1.56
8611.00,1.56
8610.00,1.56
8609.00,1.56
8608.00,1.56
8607.00,1.56
8606.00,1.56
8605.00,1.56
8604.00,1.56
8603.00,1.56
8602.00,1.56
8601.00,1.56
8600.00,1.56
8599.00,1.56
8598.00,1.56
8597.00,1.56
8596.00,1.56
8595.00,1.56
8594.00,1.56
8593.00,1.56
8592.00,1.56
8591.00,1.56
8590.00,1.56
8589.00,1.55
8588.00,1.55
8587.00,1.55
8586.00,1.55
8585.00,1.55
8584.00,1.55
8583.00,1.55
8582.00,1.54
8581.00,1.54
8580.00,1.54
8579.00,1.54
8578.00,1.54
8577.00,1.54
8576.00,1.54
8575.00,1.54
8574.00,1.54
8573.00,1.54
8572.00,1.54
8571.00,1.54
8570.00,1.54
8569.00,1.54
8568.00,1.54
8567.00,1.54
8566.00,1.54
8565.00,1.54
8564.00,1.54
8563.00,1.54
8562.00,1.54
8561.00,1.54
8560.00,1.55
8559.00,1.55
8558.00,1.55
8557.00,1.55
8556.00,1.55
8555.00,1.55
8554.00,1.55
8553.00,1.55
8552.00,1.55
8551.00,1.55
8550.00,1.55
8549.00,1.55
8548.00,1.55
8547.00,1.55
8546.00,1.55
8545.00,1.55
8544.00,1.55
8543.00,1.55
8542.00,1.55
8541.00,1.54
8540.00,1.54
8539.00,1.54
8538.00,1.54
8537.00,1.54
8536.00,1.53
8535.00,1.53
8534.00,1.53
8533.00,1.53
8532.00,1.53
8531.00,1.52
8530.00,1.52
8529.00,1.52
8528.00,1.52
8527.00,1.52
8526.00,1.52
8525.00,1.52
8524.00,1.51
8523.00,1.51
8522.00,1.51
8521.00,1.51
8520.00,1.51
8519.00,1.51
8518.00,1.51
8517.00,1.51
8516.00,1.51
8515.00,1.51
8514.00,1.51
8513.00,1.51
8512.00,1.51
8511.00,1.51
8510.00,1.51
8509.00,1.51
8508.00,1.51
8507.00,1.51
8506.00,1.51
8505.00,1.50
8504.00,1.50
8503.00,1.50
8502.00,1.50
8501.00,1.50
8500.00,1.50
8499.00,1.50
8498.00,1.50
8497.00,1.49
8496.00,1.49
8495.00,1.49
8494.00,1.49
8493.00,1.49
8492.00,1.49
8491.00,1.49
8490.00,1.48
8489.00,1.48
8488.00,1.48
8487.00,1.48
8486.00,1.48
8485.00,1.48
8484.00,1.47
8483.00,1.47
8482.00,1.47
8481.00,1.47
8480.00,1.47
8479.00,1.46
8478.00,1.46
8477.00,1.46
8476.00,1.46
8475.00,1.46
8474.00,1.46
8473.00,1.46
8472.00,1.46
8471.00,1.46
8470.00,1.46
8469.00,1.46
8468.00,1.46
8467.00,1.46
8466.00,1.46
8465.00,1.46
8464.00,1.46
8463.00,1.46
8462.00,1.46
8461.00,1.46
8460.00,1.46
8459.00,1.46
8458.00,1.46
8457.00,1.46
8456.00,1.46
8455.00,1.46
8454.00,1.46
8453.00,1.46
8452.00,1.45
8451.00,1.45
8450.00,1.45
8449.00,1.45
8448.00,1.45
8447.00,1.45
8446.00,1.45
8445.00,1.45
8444.00,1.45
8443.00,1.45
8442.00,1.45
8441.00,1.45
8440.00,1.45
8439.00,1.45
8438.00,1.45
8437.00,1.45
8436.00,1.45
8435.00,1.45
8434.00,1.45
8433.00,1.45
8432.00,1.45
8431.00,1.45
8430.00,1.46
8429.00,1.46
8428.00,1.46
8427.00,1.46
8426.00,1.46
8425.00,1.46
8424.00,1.46
8423.00,1.47
8422.00,1.47
8421.00,1.47
8420.00,1.47
8419.00,1.47
8418.00,1.47
8417.00,1.48
8416.00,1.48
8415.00,1.48
8414.00,1.48
8413.00,1.48
8412.00,1.48
8411.00,1.48
8410.00,1.48
8409.00,1.48
8408.00,1.48
8407.00,1.48
8406.00,1.48
8405.00,1.48
8404.00,1.48
8403.00,1.48
8402.00,1.48
8401.00,1.48
8400.00,1.48
8399.00,1.48
8398.00,1.48
8397.00,1.48
8396.00,1.48
8395.00,1.48
8394.00,1.49
8393.00,1.49
8392.00,1.49
8391.00,1.49
8390.00,1.49
8389.00,1.49
8388.00,1.49
8387.00,1.50
8386.00,1.50
8385.00,1.50
8384.00,1.50
8383.00,1.50
8382.00,1.50
8381.00,1.50
8380.00,1.50
8379.00,1.50
8378.00,1.50
8377.00,1.50
8376.00,1.50
8375.00,1.50
8374.00,1.50
8373.00,1.50
8372.00,1.50
8371.00,1.50
8370.00,1.51
8369.00,1.51
8368.00,1.51
8367.00,1.51
8366.00,1.51
8365.00,1.51
8364.00,1.51
8363.00,1.51
8362.00,1.51
8361.00,1.51
8360.00,1.51
8359.00,1.51
8358.00,1.51
8357.00,1.51
8356.00,1.51
8355.00,1.51
8354.00,1.51
8353.00,1.51
8352.00,1.51
8351.00,1.51
8350.00,1.51
8349.00,1.51
8348.00,1.51
8347.00,1.51
8346.00,1.51
8345.00,1.51
8344.00,1.51
8343.00,1.51
8342.00,1.51
8341.00,1.51
8340.00,1.51
8339.00,1.51
8338.00,1.51
8337.00,1.51
8336.00,1.51
8335.00,1.51
8334.00,1.51
8333.00,1.51
8332.00,1.51
8331.00,1.51
8330.00,1.51
8329.00,1.51
8328.00,1.51
8327.00,1.51
8326.00,1.51
8325.00,1.51
8324.00,1.51
8323.00,1.51
8322.00,1.51
8321.00,1.51
8320.00,1.51
8319.00,1.51
8318.00,1.51
8317.00,1.51
8316.00,1.51
8315.00,1.51
8314.00,1.51
8313.00,1.51
8312.00,1.51
8311.00,1.51
8310.00,1.52
8309.00,1.52
8308.00,1.52
8307.00,1.52
8306.00,1.52
8305.00,1.52
8304.00,1.53
8303.00,1.53
8302.00,1.53
8301.00,1.53
8300.00,1.53
8299.00,1.53
8298.00,1.53
8297.00,1.54
8296.00,1.54
8295.00,1.54
8294.00,1.54
8293.00,1.54
8292.00,1.54
8291.00,1.54
8290.00,1.54
8289.00,1.54
8288.00,1.54
8287.00,1.54
8286.00,1.54
8285.00,1.54
8284.00,1.54
8283.00,1.54
8282.00,1.53
8281.00,1.53
8280.00,1.53
8279.00,1.53
8278.00,1.53
8277.00,1.53
8276.00,1.53
8275.00,1.53
8274.00,1.53
8273.00,1.53
8272.00,1.54
8271.00,1.54
8270.00,1.54
8269.00,1.54
8268.00,1.54
8267.00,1.54
8266.00,1.54
8265.00,1.54
8264.00,1.54
8263.00,1.54
8262.00,1.54
8261.00,1.54
8260.00,1.54
8259.00,1.54
8258.00,1.54
8257.00,1.54
8256.00,1.54
8255.00,1.54
8254.00,1.54
8253.00,1.55
8252.00,1.55
8251.00,1.55
8250.00,1.55
8249.00,1.55
8248.00,1.55
8247.00,1.55
8246.00,1.56
8245.00,1.56
8244.00,1.56
8243.00,1.56
8242.00,1.56
8241.00,1.56
8240.00,1.56
8239.00,1.56
8238.00,1.56
8237.00,1.56
8236.00,1.56
8235.00,1.55
8234.00,1.55
8233.00,1.55
8232.00,1.55
8231.00,1.55
8230.00,1.54
8229.00,1.54
8228.00,1.54
8227.00,1.54
8226.00,1.54
8225.00,1.53
8224.00,1.53
8223.00,1.53
8222.00,1.53
8221.00,1.53
8220.00,1.53
8219.00,1.53
8218.00,1.53
8217.00,1.53
8216.00,1.53
8215.00,1.54
8214.00,1.54
8213.00,1.54
8212.00,1.54
8211.00,1.54
8210.00,1.55
8209.00,1.55
8208.00,1.55
8207.00,1.55
8206.00,1.55
8205.00,1.55
8204.00,1.56
8203.00,1.56
8202.00,1.56
8201.00,1.56
8200.00,1.56
8199.00,1.56
8198.00,1.56
8197.00,1.56
8196.00,1.56
8195.00,1.56
8194.00,1.56
8193.00,1.56
8192.00,1.56
8191.00,1.56
8190.00,1.56
8189.00,1.56
8188.00,1.56
8187.00,1.56
8186.00,1.56
8185.00,1.56
8184.00,1.56
8183.00,1.57
8182.00,1.57
8181.00,1.57
8180.00,1.57
8179.00,1.57
8178.00,1.57
8177.00,1.57
8176.00,1.57
8175.00,1.57
8174.00,1.57
8173.00,1.58
8172.00,1.58
8171.00,1.58
8170.00,1.58
8169.00,1.58
8168.00,1.58
8167.00,1.58
8166.00,1.59
8165.00,1.59
8164.00,1.59
8163.00,1.59
8162.00,1.59
8161.00,1.59
8160.00,1.59
8159.00,1.59
8158.00,1.59
8157.00,1.59
8156.00,1.59
8155.00,1.59
8154.00,1.59
8153.00,1.59
8152.00,1.59
8151.00,1.59
8150.00,1.58
8149.00,1.58
8148.00,1.58
8147.00,1.58
8146.00,1.58
8145.00,1.58
8144.00,1.58
8143.00,1.58
8142.00,1.59
8141.00,1.59
8140.00,1.59
8139.00,1.59
8138.00,1.59
8137.00,1.59
8136.00,1.59
8135.00,1.59
8134.00,1.59
8133.00,1.60
8132.00,1.60
8131.00,1.60
8130.00,1.60
8129.00,1.60
8128.00,1.60
8127.00,1.60
8126.00,1.60
8125.00,1.60
8124.00,1.60
8123.00,1.60
8122.00,1.60
8121.00,1.60
8120.00,1.60
8119.00,1.60
8118.00,1.60
8117.00,1.60
8116.00,1.60
8115.00,1.60
8114.00,1.60
8113.00,1.60
8112.00,1.60
8111.00,1.60
8110.00,1.60
8109.00,1.60
8108.00,1.60
8107.00,1.60
8106.00,1.60
8105.00,1.60
8104.00,1.60
8103.00,1.60
8102.00,1.60
8101.00,1.60
8100.00,1.60
8099.00,1.60
8098.00,1.60
8097.00,1.60
8096.00,1.60
8095.00,1.60
8094.00,1.60
8093.00,1.60
8092.00,1.60
8091.00,1.60
8090.00,1.60
8089.00,1.60
8088.00,1.60
8087.00,1.61
8086.00,1.61
8085.00,1.61
8084.00,1.61
8083.00,1.61
8082.00,1.61
8081.00,1.61
8080.00,1.61
8079.00,1.61
8078.00,1.62
8077.00,1.62
8076.00,1.62
8075.00,1.62
8074.00,1.62
8073.00,1.62
8072.00,1.62
8071.00,1.62
8070.00,1.62
8069.00,1.63
8068.00,1.63
8067.00,1.63
8066.00,1.63
8065.00,1.63
8064.00,1.63
8063.00,1.63
8062.00,1.63
8061.00,1.63
8060.00,1.63
8059.00,1.63
8058.00,1.63
8057.00,1.63
8056.00,1.63
8055.00,1.63
8054.00,1.63
8053.00,1.63
8052.00,1.63
8051.00,1.63
8050.00,1.64
8049.00,1.64
8048.00,1.64
8047.00,1.64
8046.00,1.64
8045.00,1.64
8044.00,1.64
8043.00,1.64
8042.00,1.64
8041.00,1.64
8040.00,1.64
8039.00,1.64
8038.00,1.64
8037.00,1.64
8036.00,1.64
8035.00,1.64
8034.00,1.63
8033.00,1.63
8032.00,1.63
8031.00,1.63
8030.00,1.63
8029.00,1.63
8028.00,1.63
8027.00,1.63
8026.00,1.63
8025.00,1.63
8024.00,1.63
8023.00,1.63
8022.00,1.63
8021.00,1.63
8020.00,1.63
8019.00,1.63
8018.00,1.63
8017.00,1.63
8016.00,1.63
8015.00,1.63
8014.00,1.63
8013.00,1.63
8012.00,1.63
8011.00,1.63
8010.00,1.63
8009.00,1.63
8008.00,1.63
8007.00,1.64
8006.00,1.64
8005.00,1.64
8004.00,1.64
8003.00,1.64
8002.00,1.64
8001.00,1.64
8000.00,1.64
7999.00,1.65
7998.00,1.65
7997.00,1.65
7996.00,1.65
7995.00,1.65
7994.00,1.65
7993.00,1.65
7992.00,1.65
7991.00,1.65
7990.00,1.65
7989.00,1.65
7988.00,1.65
7987.00,1.65
7986.00,1.65
7985.00,1.65
7984.00,1.65
7983.00,1.65
7982.00,1.65
7981.00,1.65
7980.00,1.65
7979.00,1.65
7978.00,1.65
7977.00,1.65
7976.00,1.65
7975.00,1.65
7974.00,1.65
7973.00,1.65
7972.00,1.65
7971.00,1.65
7970.00,1.66
7969.00,1.66
7968.00,1.66
7967.00,1.66
7966.00,1.66
7965.00,1.66
7964.00,1.66
7963.00,1.66
7962.00,1.66
7961.00,1.66
7960.00,1.66
7959.00,1.66
7958.00,1.66
7957.00,1.66
7956.00,1.66
7955.00,1.66
7954.00,1.65
7953.00,1.65
7952.00,1.65
7951.00,1.65
7950.00,1.65
7949.00,1.65
7948.00,1.65
7947.00,1.65
7946.00,1.65
7945.00,1.65
7944.00,1.65
7943.00,1.66
7942.00,1.66
7941.00,1.66
7940.00,1.66
7939.00,1.66
7938.00,1.66
7937.00,1.66
7936.00,1.66
7935.00,1.66
7934.00,1.66
7933.00,1.67
7932.00,1.67
7931.00,1.67
7930.00,1.67
7929.00,1.67
7928.00,1.67
7927.00,1.67
7926.00,1.67
7925.00,1.67
7924.00,1.67
7923.00,1.67
7922.00,1.67
7921.00,1.67
7920.00,1.67
7919.00,1.67
7918.00,1.67
7917.00,1.67
7916.00,1.67
7915.00,1.67
7914.00,1.67
7913.00,1.67
7912.00,1.67
7911.00,1.67
7910.00,1.67
7909.00,1.67
7908.00,1.67
7907.00,1.67
7906.00,1.67
7905.00,1.67
7904.00,1.67
7903.00,1.67
7902.00,1.67
7901.00,1.67
7900.00,1.67
7899.00,1.67
7898.00,1.67
7897.00,1.67
7896.00,1.67
7895.00,1.67
7894.00,1.67
7893.00,1.67
7892.00,1.67
7891.00,1.67
7890.00,1.67
7889.00,1.67
7888.00,1.67
7887.00,1.67
7886.00,1.67
7885.00,1.67
7884.00,1.67
7883.00,1.67
7882.00,1.67
7881.00,1.67
7880.00,1.67
7879.00,1.67
7878.00,1.67
7877.00,1.67
7876.00,1.68
7875.00,1.68
7874.00,1.68
7873.00,1.68
7872.00,1.68
7871.00,1.68
7870.00,1.68
7869.00,1.68
7868.00,1.68
7867.00,1.68
7866.00,1.69
7865.00,1.69
7864.00,1.69
7863.00,1.69
7862.00,1.69
7861.00,1.69
7860.00,1.69
7859.00,1.69
7858.00,1.68
7857.00,1.68
7856.00,1.68
7855.00,1.68
7854.00,1.68
7853.00,1.68
7852.00,1.69
7851.00,1.69
7850.00,1.69
7849.00,1.69
7848.00,1.69
7847.00,1.69
7846.00,1.69
7845.00,1.69
7844.00,1.69
7843.00,1.69
7842.00,1.70
7841.00,1.70
7840.00,1.70
7839.00,1.70
7838.00,1.70
7837.00,1.70
7836.00,1.70
7835.00,1.70
7834.00,1.70
7833.00,1.70
7832.00,1.70
7831.00,1.70
7830.00,1.70
7829.00,1.70
7828.00,1.70
7827.00,1.70
7826.00,1.69
7825.00,1.69
7824.00,1.69
7823.00,1.69
7822.00,1.69
7821.00,1.69
7820.00,1.69
7819.00,1.69
7818.00,1.69
7817.00,1.69
7816.00,1.69
7815.00,1.69
7814.00,1.69
7813.00,1.69
7812.00,1.69
7811.00,1.69
7810.00,1.69
7809.00,1.69
7808.00,1.69
7807.00,1.69
7806.00,1.69
7805.00,1.69
7804.00,1.69
7803.00,1.69
7802.00,1.69
7801.00,1.69
7800.00,1.69
7799.00,1.69
7798.00,1.69
7797.00,1.69
7796.00,1.68
7795.00,1.68
7794.00,1.68
7793.00,1.68
7792.00,1.68
7791.00,1.69
7790.00,1.69
7789.00,1.69
7788.00,1.69
7787.00,1.69
7786.00,1.69
7785.00,1.69
7784.00,1.69
7783.00,1.70
7782.00,1.70
7781.00,1.70
7780.00,1.70
7779.00,1.70
7778.00,1.70
7777.00,1.70
7776.00,1.70
7775.00,1.70
7774.00,1.71
7773.00,1.71
7772.00,1.71
7771.00,1.71
7770.00,1.71
7769.00,1.71
7768.00,1.71
7767.00,1.71
7766.00,1.71
7765.00,1.71
7764.00,1.71
7763.00,1.71
7762.00,1.71
7761.00,1.71
7760.00,1.71
7759.00,1.71
7758.00,1.71
7757.00,1.71
7756.00,1.71
7755.00,1.71
7754.00,1.71
7753.00,1.71
7752.00,1.71
7751.00,1.71
7750.00,1.71
7749.00,1.71
7748.00,1.71
7747.00,1.71
7746.00,1.70
7745.00,1.70
7744.00,1.70
7743.00,1.70
7742.00,1.70
7741.00,1.70
7740.00,1.70
7739.00,1.70
7738.00,1.70
7737.00,1.70
7736.00,1.70
7735.00,1.70
7734.00,1.70
7733.00,1.70
7732.00,1.70
7731.00,1.70
7730.00,1.70
7729.00,1.70
7728.00,1.70
7727.00,1.70
7726.00,1.70
7725.00,1.70
7724.00,1.70
7723.00,1.70
7722.00,1.70
7721.00,1.70
7720.00,1.70
7719.00,1.70
7718.00,1.70
7717.00,1.70
7716.00,1.70
7715.00,1.70
7714.00,1.70
7713.00,1.70
7712.00,1.70
7711.00,1.70
7710.00,1.71
7709.00,1.71
7708.00,1.71
7707.00,1.71
7706.00,1.71
7705.00,1.71
7704.00,1.71
7703.00,1.71
7702.00,1.71
7701.00,1.71
7700.00,1.71
7699.00,1.71
7698.00,1.71
7697.00,1.71
7696.00,1.71
7695.00,1.71
7694.00,1.71
7693.00,1.71
7692.00,1.71
7691.00,1.71
7690.00,1.71
7689.00,1.71
7688.00,1.71
7687.00,1.71
7686.00,1.71
7685.00,1.71
7684.00,1.71
7683.00,1.71
7682.00,1.71
7681.00,1.71
7680.00,1.71
7679.00,1.71
7678.00,1.71
7677.00,1.71
7676.00,1.71
7675.00,1.71
7674.00,1.71
7673.00,1.71
7672.00,1.71
7671.00,1.71
7670.00,1.71
7669.00,1.71
7668.00,1.71
7667.00,1.70
7666.00,1.70
7665.00,1.70
7664.00,1.70
7663.00,1.70
7662.00,1.70
7661.00,1.70
7660.00,1.70
7659.00,1.70
7658.00,1.70
7657.00,1.70
7656.00,1.70
7655.00,1.70
7654.00,1.70
7653.00,1.70
7652.00,1.70
7651.00,1.70
7650.00,1.70
7649.00,1.70
7648.00,1.70
7647.00,1.70
7646.00,1.70
7645.00,1.70
7644.00,1.70
7643.00,1.70
7642.00,1.70
7641.00,1.70
7640.00,1.70
7639.00,1.70
7638.00,1.71
7637.00,1.71
7636.00,1.71
7635.00,1.71
7634.00,1.71
7633.00,1.71
7632.00,1.71
7631.00,1.71
7630.00,1.71
7629.00,1.71
7628.00,1.71
7627.00,1.71
7626.00,1.71
7625.00,1.71
7624.00,1.71
7623.00,1.71
7622.00,1.71
7621.00,1.71
7620.00,1.71
7619.00,1.71
7618.00,1.71
7617.00,1.71
7616.00,1.71
7615.00,1.71
7614.00,1.71
7613.00,1.71
7612.00,1.71
7611.00,1.71
7610.00,1.71
7609.00,1.71
7608.00,1.71
7607.00,1.71
7606.00,1.71
7605.00,1.71
7604.00,1.71
7603.00,1.71
7602.00,1.71
7601.00,1.71
7600.00,1.71
7599.00,1.71
7598.00,1.71
7597.00,1.71
7596.00,1.71
7595.00,1.71
7594.00,1.71
7593.00,1.71
7592.00,1.71
7591.00,1.71
7590.00,1.71
7589.00,1.71
7588.00,1.71
7587.00,1.71
7586.00,1.71
7585.00,1.71
7584.00,1.71
7583.00,1.71
7582.00,1.71
7581.00,1.71
7580.00,1.71
7579.00,1.71
7578.00,1.71
7577.00,1.71
7576.00,1.71
7575.00,1.71
7574.00,1.71
7573.00,1.71
7572.00,1.71
7571.00,1.71
7570.00,1.71
7569.00,1.71
7568.00,1.71
7567.00,1.71
7566.00,1.71
7565.00,1.71
7564.00,1.71
7563.00,1.71
7562.00,1.71
7561.00,1.71
7560.00,1.70
7559.00,1.70
7558.00,1.70
7557.00,1.70
7556.00,1.70
7555.00,1.70
7554.00,1.70
7553.00,1.70
7552.00,1.70
7551.00,1.70
7550.00,1.70
7549.00,1.70
7548.00,1.70
7547.00,1.70
7546.00,1.70
7545.00,1.70
7544.00,1.70
7543.00,1.70
7542.00,1.70
7541.00,1.70
7540.00,1.70
7539.00,1.69
7538.00,1.69
7537.00,1.69
7536.00,1.69
7535.00,1.69
7534.00,1.69
7533.00,1.69
7532.00,1.69
7531.00,1.69
7530.00,1.69
7529.00,1.69
7528.00,1.69
7527.00,1.69
7526.00,1.68
7525.00,1.68
7524.00,1.68
7523.00,1.68
7522.00,1.68
7521.00,1.68
7520.00,1.68
7519.00,1.68
7518.00,1.68
7517.00,1.68
7516.00,1.68
7515.00,1.68
7514.00,1.68
7513.00,1.68
7512.00,1.67
7511.00,1.67
7510.00,1.67
7509.00,1.67
7508.00,1.67
7507.00,1.67
7506.00,1.67
7505.00,1.67
7504.00,1.67
7503.00,1.67
7502.00,1.67
7501.00,1.67
7500.00,1.67
7499.00,1.67
7498.00,1.67
7497.00,1.67
7496.00,1.67
7495.00,1.67
7494.00,1.66
7493.00,1.66
7492.00,1.66
7491.00,1.66
7490.00,1.66
7489.00,1.66
7488.00,1.66
7487.00,1.66
7486.00,1.66
7485.00,1.66
7484.00,1.66
7483.00,1.66
7482.00,1.66
7481.00,1.66
7480.00,1.66
7479.00,1.66
7478.00,1.65
7477.00,1.65
7476.00,1.65
7475.00,1.65
7474.00,1.65
7473.00,1.65
7472.00,1.65
7471.00,1.65
7470.00,1.65
7469.00,1.65
7468.00,1.65
7467.00,1.65
7466.00,1.65
7465.00,1.65
7464.00,1.65
7463.00,1.65
7462.00,1.65
7461.00,1.65
7460.00,1.64
7459.00,1.64
7458.00,1.64
7457.00,1.64
7456.00,1.64
7455.00,1.64
7454.00,1.64
7453.00,1.64
7452.00,1.64
7451.00,1.64
7450.00,1.64
7449.00,1.64
7448.00,1.64
7447.00,1.63
7446.00,1.63
7445.00,1.63
7444.00,1.63
7443.00,1.63
7442.00,1.63
7441.00,1.63
7440.00,1.63
7439.00,1.63
7438.00,1.62
7437.00,1.62
7436.00,1.62
7435.00,1.62
7434.00,1.62
7433.00,1.62
7432.00,1.62
7431.00,1.62
7430.00,1.62
7429.00,1.62
7428.00,1.62
7427.00,1.62
7426.00,1.62
7425.00,1.62
7424.00,1.62
7423.00,1.62
7422.00,1.62
7421.00,1.62
7420.00,1.62
7419.00,1.62
7418.00,1.61
7417.00,1.61
7416.00,1.61
7415.00,1.61
7414.00,1.61
7413.00,1.61
7412.00,1.61
7411.00,1.60
7410.00,1.60
7409.00,1.60
7408.00,1.60
7407.00,1.59
7406.00,1.59
7405.00,1.59
7404.00,1.59
7403.00,1.59
7402.00,1.58
7401.00,1.58
7400.00,1.58
7399.00,1.58
7398.00,1.57
7397.00,1.57
7396.00,1.57
7395.00,1.57
7394.00,1.57
7393.00,1.57
7392.00,1.57
7391.00,1.56
7390.00,1.56
7389.00,1.56
7388.00,1.56
7387.00,1.56
7386.00,1.56
7385.00,1.56
7384.00,1.56
7383.00,1.56
7382.00,1.56
7381.00,1.56
7380.00,1.56
7379.00,1.56
7378.00,1.55
7377.00,1.55
7376.00,1.55
7375.00,1.55
7374.00,1.55
7373.00,1.55
7372.00,1.55
7371.00,1.55
7370.00,1.55
7369.00,1.55
7368.00,1.55
7367.00,1.55
7366.00,1.55
7365.00,1.55
7364.00,1.55
7363.00,1.55
7362.00,1.55
7361.00,1.55
7360.00,1.55
7359.00,1.55
7358.00,1.55
7357.00,1.55
7356.00,1.55
7355.00,1.55
7354.00,1.55
7353.00,1.55
7352.00,1.55
7351.00,1.55
7350.00,1.55
7349.00,1.55
7348.00,1.55
7347.00,1.55
7346.00,1.55
7345.00,1.55
7344.00,1.55
7343.00,1.54
7342.00,1.54
7341.00,1.54
7340.00,1.54
7339.00,1.54
7338.00,1.54
7337.00,1.54
7336.00,1.54
7335.00,1.54
7334.00,1.54
7333.00,1.54
7332.00,1.54
7331.00,1.54
7330.00,1.54
7329.00,1.54
7328.00,1.54
7327.00,1.54
7326.00,1.54
7325.00,1.54
7324.00,1.54
7323.00,1.54
7322.00,1.54
7321.00,1.53
7320.00,1.53
7319.00,1.53
7318.00,1.53
7317.00,1.53
7316.00,1.53
7315.00,1.53
7314.00,1.53
7313.00,1.53
7312.00,1.53
7311.00,1.53
7310.00,1.53
7309.00,1.53
7308.00,1.52
7307.00,1.52
7306.00,1.52
7305.00,1.52
7304.00,1.52
7303.00,1.51
7302.00,1.51
7301.00,1.51
7300.00,1.51
7299.00,1.51
7298.00,1.50
7297.00,1.50
7296.00,1.50
7295.00,1.50
7294.00,1.49
7293.00,1.49
7292.00,1.49
7291.00,1.49
7290.00,1.49
7289.00,1.49
7288.00,1.48
7287.00,1.48
7286.00,1.48
7285.00,1.48
7284.00,1.48
7283.00,1.48
7282.00,1.48
7281.00,1.48
7280.00,1.48
7279.00,1.47
7278.00,1.47
7277.00,1.47
7276.00,1.47
7275.00,1.47
7274.00,1.47
7273.00,1.47
7272.00,1.47
7271.00,1.46
7270.00,1.46
7269.00,1.46
7268.00,1.46
7267.00,1.46
7266.00,1.45
7265.00,1.45
7264.00,1.45
7263.00,1.45
7262.00,1.45
7261.00,1.44
7260.00,1.44
7259.00,1.44
7258.00,1.43
7257.00,1.43
7256.00,1.43
7255.00,1.43
7254.00,1.42
7253.00,1.42
7252.00,1.42
7251.00,1.41
7250.00,1.41
7249.00,1.41
7248.00,1.41
7247.00,1.40
7246.00,1.40
7245.00,1.40
7244.00,1.40
7243.00,1.39
7242.00,1.39
7241.00,1.39
7240.00,1.38
7239.00,1.38
7238.00,1.38
7237.00,1.37
7236.00,1.37
7235.00,1.37
7234.00,1.36
7233.00,1.36
7232.00,1.36
7231.00,1.35
7230.00,1.35
7229.00,1.34
7228.00,1.34
7227.00,1.33
7226.00,1.33
7225.00,1.32
7224.00,1.32
7223.00,1.32
7222.00,1.31
7221.00,1.31
7220.00,1.30
7219.00,1.30
7218.00,1.29
7217.00,1.29
7216.00,1.29
7215.00,1.28
7214.00,1.28
7213.00,1.27
7212.00,1.27
7211.00,1.26
7210.00,1.26
7209.00,1.26
7208.00,1.25
7207.00,1.25
7206.00,1.24
7205.00,1.24
7204.00,1.23
7203.00,1.23
7202.00,1.22
7201.00,1.22
7200.00,1.21
7199.00,1.21
7198.00,1.20
7197.00,1.20
7196.00,1.20
7195.00,1.19
7194.00,1.19
7193.00,1.18
7192.00,1.18
7191.00,1.18
7190.00,1.17
7189.00,1.17
7188.00,1.16
7187.00,1.16
7186.00,1.16
7185.00,1.15
7184.00,1.15
7183.00,1.14
7182.00,1.14
7181.00,1.14
7180.00,1.13
7179.00,1.13
7178.00,1.13
7177.00,1.12
7176.00,1.12
7175.00,1.12
7174.00,1.12
7173.00,1.11
7172.00,1.11
7171.00,1.11
7170.00,1.10
7169.00,1.10
7168.00,1.10
7167.00,1.09
7166.00,1.09
7165.00,1.08
7164.00,1.08
7163.00,1.08
7162.00,1.07
7161.00,1.07
7160.00,1.06
7159.00,1.06
7158.00,1.05
7157.00,1.05
7156.00,1.05
7155.00,1.04
7154.00,1.04
7153.00,1.03
7152.00,1.03
7151.00,1.03
7150.00,1.02
7149.00,1.02
7148.00,1.01
7147.00,1.01
7146.00,1.01
7145.00,1.00
7144.00,1.00
7143.00,0.99
7142.00,0.99
7141.00,0.99
7140.00,0.98
7139.00,0.98
7138.00,0.98
7137.00,0.97
7136.00,0.97
7135.00,0.96
7134.00,0.96
7133.00,0.96
7132.00,0.95
7131.00,0.95
7130.00,0.95
7129.00,0.94
7128.00,0.94
7127.00,0.94
7126.00,0.93
7125.00,0.93
7124.00,0.93
7123.00,0.92
7122.00,0.92
7121.00,0.92
7120.00,0.91
7119.00,0.91
7118.00,0.91
7117.00,0.90
7116.00,0.90
7115.00,0.90
7114.00,0.89
7113.00,0.89
7112.00,0.89
7111.00,0.89
7110.00,0.88
7109.00,0.88
7108.00,0.88
7107.00,0.87
7106.00,0.87
7105.00,0.87
7104.00,0.87
7103.00,0.86
7102.00,0.86
7101.00,0.86
7100.00,0.86
7099.00,0.85
7098.00,0.85
7097.00,0.85
7096.00,0.85
7095.00,0.85
7094.00,0.84
7093.00,0.84
7092.00,0.84
7091.00,0.84
7090.00,0.84
7089.00,0.83
7088.00,0.83
7087.00,0.83
7086.00,0.83
7085.00,0.82
7084.00,0.82
7083.00,0.82
7082.00,0.82
7081.00,0.81
7080.00,0.81
7079.00,0.81
7078.00,0.80
7077.00,0.80
7076.00,0.80
7075.00,0.79
7074.00,0.79
7073.00,0.79
7072.00,0.78
7071.00,0.78
7070.00,0.78
7069.00,0.78
7068.00,0.77
7067.00,0.77
7066.00,0.77
7065.00,0.77
7064.00,0.77
7063.00,0.77
7062.00,0.76
7061.00,0.76
7060.00,0.76
7059.00,0.76
7058.00,0.76
7057.00,0.76
7056.00,0.76
7055.00,0.75
7054.00,0.75
7053.00,0.75
7052.00,0.75
7051.00,0.75
7050.00,0.74
7049.00,0.74
7048.00,0.74
7047.00,0.74
7046.00,0.74
7045.00,0.73
7044.00,0.73
7043.00,0.73
7042.00,0.73
7041.00,0.73
7040.00,0.73
7039.00,0.73
7038.00,0.72
7037.00,0.72
7036.00,0.72
7035.00,0.72
7034.00,0.72
7033.00,0.72
7032.00,0.72
7031.00,0.72
7030.00,0.71
7029.00,0.71
7028.00,0.71
7027.00,0.71
7026.00,0.71
7025.00,0.71
7024.00,0.70
7023.00,0.70
7022.00,0.70
7021.00,0.70
7020.00,0.70
7019.00,0.70
7018.00,0.69
7017.00,0.69
7016.00,0.69
7015.00,0.69
7014.00,0.69
7013.00,0.69
7012.00,0.69
7011.00,0.69
7010.00,0.69
7009.00,0.68
7008.00,0.68
7007.00,0.68
7006.00,0.68
7005.00,0.68
7004.00,0.68
7003.00,0.68
7002.00,0.68
7001.00,0.68
7000.00,0.68
6999.00,0.68
6998.00,0.68
6997.00,0.68
6996.00,0.67
6995.00,0.67
6994.00,0.67
6993.00,0.67
6992.00,0.67
6991.00,0.67
6990.00,0.67
6989.00,0.67
6988.00,0.67
6987.00,0.67
6986.00,0.67
6985.00,0.67
6984.00,0.67
6983.00,0.67
6982.00,0.66
6981.00,0.66
6980.00,0.66
6979.00,0.66
6978.00,0.66
6977.00,0.66
6976.00,0.66
6975.00,0.66
6974.00,0.66
6973.00,0.66
6972.00,0.66
6971.00,0.66
6970.00,0.66
6969.00,0.66
6968.00,0.66
6967.00,0.66
6966.00,0.66
6965.00,0.66
6964.00,0.66
6963.00,0.66
6962.00,0.66
6961.00,0.66
6960.00,0.66
6959.00,0.66
6958.00,0.66
6957.00,0.66
6956.00,0.66
6955.00,0.66
6954.00,0.66
6953.00,0.66
6952.00,0.66
6951.00,0.66
6950.00,0.66
6949.00,0.65
6948.00,0.65
6947.00,0.65
6946.00,0.65
6945.00,0.65
6944.00,0.65
6943.00,0.65
6942.00,0.65
6941.00,0.64
6940.00,0.64
6939.00,0.64
6938.00,0.64
6937.00,0.64
6936.00,0.64
6935.00,0.64
6934.00,0.64
6933.00,0.64
6932.00,0.64
6931.00,0.64
6930.00,0.64
6929.00,0.64
6928.00,0.64
6927.00,0.64
6926.00,0.64
6925.00,0.64
6924.00,0.64
6923.00,0.63
6922.00,0.63
6921.00,0.63
6920.00,0.63
6919.00,0.63
6918.00,0.63
6917.00,0.63
6916.00,0.63
6915.00,0.63
6914.00,0.63
6913.00,0.63
6912.00,0.63
6911.00,0.63
6910.00,0.63
6909.00,0.63
6908.00,0.63
6907.00,0.63
6906.00,0.63
6905.00,0.63
6904.00,0.64
6903.00,0.64
6902.00,0.64
6901.00,0.64
6900.00,0.64
6899.00,0.64
6898.00,0.64
6897.00,0.64
6896.00,0.64
6895.00,0.64
6894.00,0.64
6893.00,0.64
6892.00,0.64
6891.00,0.64
6890.00,0.64
6889.00,0.64
6888.00,0.64
6887.00,0.64
6886.00,0.64
6885.00,0.64
6884.00,0.64
6883.00,0.64
6882.00,0.63
6881.00,0.63
6880.00,0.63
6879.00,0.63
6878.00,0.63
6877.00,0.63
6876.00,0.63
6875.00,0.63
6874.00,0.63
6873.00,0.63
6872.00,0.63
6871.00,0.63
6870.00,0.63
6869.00,0.63
6868.00,0.63
6867.00,0.63
6866.00,0.63
6865.00,0.63
6864.00,0.63
6863.00,0.63
6862.00,0.63
6861.00,0.63
6860.00,0.63
6859.00,0.64
6858.00,0.64
6857.00,0.64
6856.00,0.64
6855.00,0.64
6854.00,0.64
6853.00,0.64
6852.00,0.64
6851.00,0.64
6850.00,0.64
6849.00,0.64
6848.00,0.64
6847.00,0.64
6846.00,0.64
6845.00,0.64
6844.00,0.64
6843.00,0.64
6842.00,0.64
6841.00,0.64
6840.00,0.64
6839.00,0.64
6838.00,0.64
6837.00,0.64
6836.00,0.64
6835.00,0.64
6834.00,0.64
6833.00,0.64
6832.00,0.64
6831.00,0.64
6830.00,0.64
6829.00,0.64
6828.00,0.64
6827.00,0.64
6826.00,0.64
6825.00,0.64
6824.00,0.64
6823.00,0.64
6822.00,0.64
6821.00,0.64
6820.00,0.64
6819.00,0.64
6818.00,0.64
6817.00,0.64
6816.00,0.64
6815.00,0.64
6814.00,0.64
6813.00,0.64
6812.00,0.64
6811.00,0.64
6810.00,0.64
6809.00,0.64
6808.00,0.64
6807.00,0.65
6806.00,0.65
6805.00,0.65
6804.00,0.65
6803.00,0.65
6802.00,0.65
6801.00,0.65
6800.00,0.65
6799.00,0.65
6798.00,0.65
6797.00,0.65
6796.00,0.65
6795.00,0.65
6794.00,0.65
6793.00,0.66
6792.00,0.66
6791.00,0.66
6790.00,0.66
6789.00,0.66
6788.00,0.66
6787.00,0.66
6786.00,0.66
6785.00,0.66
6784.00,0.66
6783.00,0.66
6782.00,0.66
6781.00,0.66
6780.00,0.66
6779.00,0.66
6778.00,0.66
6777.00,0.66
6776.00,0.66
6775.00,0.66
6774.00,0.66
6773.00,0.66
6772.00,0.66
6771.00,0.66
6770.00,0.66
6769.00,0.66
6768.00,0.66
6767.00,0.66
6766.00,0.67
6765.00,0.67
6764.00,0.67
6763.00,0.67
6762.00,0.67
6761.00,0.67
6760.00,0.67
6759.00,0.67
6758.00,0.67
6757.00,0.67
6756.00,0.67
6755.00,0.67
6754.00,0.67
6753.00,0.68
6752.00,0.68
6751.00,0.68
6750.00,0.68
6749.00,0.68
6748.00,0.68
6747.00,0.68
6746.00,0.68
6745.00,0.68
6744.00,0.68
6743.00,0.68
6742.00,0.68
6741.00,0.69
6740.00,0.69
6739.00,0.69
6738.00,0.69
6737.00,0.69
6736.00,0.69
6735.00,0.69
6734.00,0.69
6733.00,0.69
6732.00,0.69
6731.00,0.69
6730.00,0.69
6729.00,0.69
6728.00,0.70
6727.00,0.70
6726.00,0.70
6725.00,0.70
6724.00,0.70
6723.00,0.70
6722.00,0.70
6721.00,0.70
6720.00,0.70
6719.00,0.70
6718.00,0.70
6717.00,0.70
6716.00,0.70
6715.00,0.71
6714.00,0.71
6713.00,0.71
6712.00,0.71
6711.00,0.71
6710.00,0.71
6709.00,0.71
6708.00,0.72
6707.00,0.72
6706.00,0.72
6705.00,0.72
6704.00,0.72
6703.00,0.72
6702.00,0.72
6701.00,0.73
6700.00,0.73
6699.00,0.73
6698.00,0.73
6697.00,0.73
6696.00,0.73
6695.00,0.73
6694.00,0.73
6693.00,0.73
6692.00,0.73
6691.00,0.73
6690.00,0.73
6689.00,0.73
6688.00,0.73
6687.00,0.74
6686.00,0.74
6685.00,0.74
6684.00,0.74
6683.00,0.74
6682.00,0.74
6681.00,0.74
6680.00,0.74
6679.00,0.74
6678.00,0.74
6677.00,0.74
6676.00,0.74
6675.00,0.74
6674.00,0.74
6673.00,0.74
6672.00,0.74
6671.00,0.74
6670.00,0.75
6669.00,0.75
6668.00,0.75
6667.00,0.75
6666.00,0.75
6665.00,0.75
6664.00,0.75
6663.00,0.75
6662.00,0.75
6661.00,0.75
6660.00,0.75
6659.00,0.75
6658.00,0.75
6657.00,0.75
6656.00,0.75
6655.00,0.75
6654.00,0.75
6653.00,0.76
6652.00,0.76
6651.00,0.76
6650.00,0.76
6649.00,0.76
6648.00,0.76
6647.00,0.76
6646.00,0.77
6645.00,0.77
6644.00,0.77
6643.00,0.77
6642.00,0.78
6641.00,0.78
6640.00,0.78
6639.00,0.78
6638.00,0.78
6637.00,0.79
6636.00,0.79
6635.00,0.79
6634.00,0.79
6633.00,0.79
6632.00,0.79
6631.00,0.80
6630.00,0.80
6629.00,0.80
6628.00,0.80
6627.00,0.80
6626.00,0.80
6625.00,0.80
6624.00,0.80
6623.00,0.80
6622.00,0.80
6621.00,0.81
6620.00,0.81
6619.00,0.81
6618.00,0.81
6617.00,0.81
6616.00,0.81
6615.00,0.81
6614.00,0.81
6613.00,0.81
6612.00,0.81
6611.00,0.81
6610.00,0.81
6609.00,0.82
6608.00,0.82
6607.00,0.82
6606.00,0.82
6605.00,0.82
6604.00,0.82
6603.00,0.82
6602.00,0.82
6601.00,0.82
6600.00,0.82
6599.00,0.82
6598.00,0.82
6597.00,0.82
6596.00,0.83
6595.00,0.83
6594.00,0.83
6593.00,0.83
6592.00,0.83
6591.00,0.84
6590.00,0.84
6589.00,0.84
6588.00,0.84
6587.00,0.84
6586.00,0.85
6585.00,0.85
6584.00,0.85
6583.00,0.85
6582.00,0.85
6581.00,0.85
6580.00,0.86
6579.00,0.86
6578.00,0.86
6577.00,0.86
6576.00,0.86
6575.00,0.86
6574.00,0.86
6573.00,0.86
6572.00,0.86
6571.00,0.86
6570.00,0.86
6569.00,0.86
6568.00,0.86
6567.00,0.87
6566.00,0.87
6565.00,0.87
6564.00,0.87
6563.00,0.87
6562.00,0.87
6561.00,0.87
6560.00,0.87
6559.00,0.87
6558.00,0.87
6557.00,0.88
6556.00,0.88
6555.00,0.88
6554.00,0.88
6553.00,0.88
6552.00,0.88
6551.00,0.88
6550.00,0.88
6549.00,0.88
6548.00,0.88
6547.00,0.88
6546.00,0.88
6545.00,0.89
6544.00,0.89
6543.00,0.89
6542.00,0.89
6541.00,0.89
6540.00,0.89
6539.00,0.89
6538.00,0.89
6537.00,0.89
6536.00,0.89
6535.00,0.90
6534.00,0.90
6533.00,0.90
6532.00,0.90
6531.00,0.90
6530.00,0.90
6529.00,0.91
6528.00,0.91
6527.00,0.91
6526.00,0.91
6525.00,0.91
6524.00,0.91
6523.00,0.91
6522.00,0.92
6521.00,0.92
6520.00,0.92
6519.00,0.92
6518.00,0.92
6517.00,0.92
6516.00,0.92
6515.00,0.92
6514.00,0.93
6513.00,0.93
6512.00,0.93
6511.00,0.93
6510.00,0.93
6509.00,0.93
6508.00,0.93
6507.00,0.93
6506.00,0.93
6505.00,0.93
6504.00,0.93
6503.00,0.93
6502.00,0.93
6501.00,0.93
6500.00,0.93
6499.00,0.93
6498.00,0.93
6497.00,0.93
6496.00,0.93
6495.00,0.93
6494.00,0.93
6493.00,0.93
6492.00,0.93
6491.00,0.93
6490.00,0.93
6489.00,0.94
6488.00,0.94
6487.00,0.94
6486.00,0.94
6485.00,0.94
6484.00,0.94
6483.00,0.94
6482.00,0.94
6481.00,0.94
6480.00,0.94
6479.00,0.95
6478.00,0.95
6477.00,0.95
6476.00,0.95
6475.00,0.95
6474.00,0.95
6473.00,0.95
6472.00,0.95
6471.00,0.96
6470.00,0.96
6469.00,0.96
6468.00,0.96
6467.00,0.96
6466.00,0.96
6465.00,0.96
6464.00,0.96
6463.00,0.96
6462.00,0.96
6461.00,0.96
6460.00,0.96
6459.00,0.96
6458.00,0.96
6457.00,0.96
6456.00,0.96
6455.00,0.96
6454.00,0.97
6453.00,0.97
6452.00,0.97
6451.00,0.97
6450.00,0.97
6449.00,0.97
6448.00,0.97
6447.00,0.97
6446.00,0.97
6445.00,0.97
6444.00,0.98
6443.00,0.98
6442.00,0.98
6441.00,0.98
6440.00,0.98
6439.00,0.98
6438.00,0.98
6437.00,0.98
6436.00,0.98
6435.00,0.98
6434.00,0.98
6433.00,0.99
6432.00,0.99
6431.00,0.99
6430.00,0.99
6429.00,0.99
6428.00,0.99
6427.00,0.99
6426.00,0.99
6425.00,0.99
6424.00,1.00
6423.00,1.00
6422.00,1.00
6421.00,1.00
6420.00,1.00
6419.00,1.00
6418.00,1.00
6417.00,1.00
6416.00,1.01
6415.00,1.01
6414.00,1.01
6413.00,1.01
6412.00,1.01
6411.00,1.01
6410.00,1.01
6409.00,1.01
6408.00,1.01
6407.00,1.01
6406.00,1.01
6405.00,1.01
6404.00,1.01
6403.00,1.01
6402.00,1.01
6401.00,1.01
6400.00,1.01
6399.00,1.02
6398.00,1.02
6397.00,1.02
6396.00,1.02
6395.00,1.02
6394.00,1.02
6393.00,1.02
6392.00,1.02
6391.00,1.02
6390.00,1.02
6389.00,1.02
6388.00,1.02
6387.00,1.02
6386.00,1.02
6385.00,1.02
6384.00,1.03
6383.00,1.03
6382.00,1.03
6381.00,1.03
6380.00,1.03
6379.00,1.03
6378.00,1.03
6377.00,1.03
6376.00,1.03
6375.00,1.03
6374.00,1.03
6373.00,1.04
6372.00,1.04
6371.00,1.04
6370.00,1.04
6369.00,1.04
6368.00,1.04
6367.00,1.04
6366.00,1.05
6365.00,1.05
6364.00,1.05
6363.00,1.05
6362.00,1.05
6361.00,1.05
6360.00,1.05
6359.00,1.06
6358.00,1.06
6357.00,1.06
6356.00,1.06
6355.00,1.06
6354.00,1.06
6353.00,1.06
6352.00,1.06
6351.00,1.06
6350.00,1.06
6349.00,1.06
6348.00,1.06
6347.00,1.06
6346.00,1.06
6345.00,1.06
6344.00,1.06
6343.00,1.06
6342.00,1.07
6341.00,1.07
6340.00,1.07
6339.00,1.07
6338.00,1.07
6337.00,1.07
6336.00,1.07
6335.00,1.07
6334.00,1.08
6333.00,1.08
6332.00,1.08
6331.00,1.08
6330.00,1.08
6329.00,1.08
6328.00,1.09
6327.00,1.09
6326.00,1.09
6325.00,1.09
6324.00,1.09
6323.00,1.09
6322.00,1.10
6321.00,1.10
6320.00,1.10
6319.00,1.10
6318.00,1.10
6317.00,1.10
6316.00,1.10
6315.00,1.10
6314.00,1.10
6313.00,1.11
6312.00,1.11
6311.00,1.11
6310.00,1.11
6309.00,1.11
6308.00,1.11
6307.00,1.11
6306.00,1.11
6305.00,1.11
6304.00,1.11
6303.00,1.11
6302.00,1.12
6301.00,1.12
6300.00,1.12
6299.00,1.12
6298.00,1.12
6297.00,1.12
6296.00,1.13
6295.00,1.13
6294.00,1.13
6293.00,1.13
6292.00,1.13
6291.00,1.13
6290.00,1.14
6289.00,1.14
6288.00,1.14
6287.00,1.14
6286.00,1.14
6285.00,1.14
6284.00,1.14
6283.00,1.15
6282.00,1.15
6281.00,1.15
6280.00,1.15
6279.00,1.15
6278.00,1.15
6277.00,1.15
6276.00,1.15
6275.00,1.15
6274.00,1.16
6273.00,1.16
6272.00,1.16
6271.00,1.16
6270.00,1.16
6269.00,1.16
6268.00,1.17
6267.00,1.17
6266.00,1.17
6265.00,1.17
6264.00,1.17
6263.00,1.17
6262.00,1.18
6261.00,1.18
6260.00,1.18
6259.00,1.18
6258.00,1.18
6257.00,1.19
6256.00,1.19
6255.00,1.19
6254.00,1.19
6253.00,1.19
6252.00,1.19
6251.00,1.19
6250.00,1.20
6249.00,1.20
6248.00,1.20
6247.00,1.20
6246.00,1.20
6245.00,1.20
6244.00,1.20
6243.00,1.21
6242.00,1.21
6241.00,1.21
6240.00,1.21
6239.00,1.21
6238.00,1.21
6237.00,1.21
6236.00,1.21
6235.00,1.22
6234.00,1.22
6233.00,1.22
6232.00,1.22
6231.00,1.22
6230.00,1.22
6229.00,1.22
6228.00,1.23
6227.00,1.23
6226.00,1.23
6225.00,1.23
6224.00,1.23
6223.00,1.23
6222.00,1.23
6221.00,1.24
6220.00,1.24
6219.00,1.24
6218.00,1.24
6217.00,1.24
6216.00,1.24
6215.00,1.25
6214.00,1.25
6213.00,1.25
6212.00,1.25
6211.00,1.25
6210.00,1.25
6209.00,1.26
6208.00,1.26
6207.00,1.26
6206.00,1.26
6205.00,1.26
6204.00,1.26
6203.00,1.27
6202.00,1.27
6201.00,1.27
6200.00,1.27
6199.00,1.27
6198.00,1.28
6197.00,1.28
6196.00,1.28
6195.00,1.28
6194.00,1.28
6193.00,1.29
6192.00,1.29
6191.00,1.29
6190.00,1.29
6189.00,1.29
6188.00,1.30
6187.00,1.30
6186.00,1.30
6185.00,1.30
6184.00,1.30
6183.00,1.31
6182.00,1.31
6181.00,1.31
6180.00,1.31
6179.00,1.31
6178.00,1.31
6177.00,1.32
6176.00,1.32
6175.00,1.32
6174.00,1.32
6173.00,1.32
6172.00,1.33
6171.00,1.33
6170.00,1.33
6169.00,1.33
6168.00,1.33
6167.00,1.33
6166.00,1.34
6165.00,1.34
6164.00,1.34
6163.00,1.34
6162.00,1.34
6161.00,1.34
6160.00,1.35
6159.00,1.35
6158.00,1.35
6157.00,1.35
6156.00,1.35
6155.00,1.36
6154.00,1.36
6153.00,1.36
6152.00,1.36
6151.00,1.37
6150.00,1.37
6149.00,1.37
6148.00,1.37
6147.00,1.37
6146.00,1.38
6145.00,1.38
6144.00,1.38
6143.00,1.38
6142.00,1.38
6141.00,1.38
6140.00,1.38
6139.00,1.39
6138.00,1.39
6137.00,1.39
6136.00,1.39
6135.00,1.39
6134.00,1.39
6133.00,1.39
6132.00,1.40
6131.00,1.40
6130.00,1.40
6129.00,1.40
6128.00,1.40
6127.00,1.40
6126.00,1.41
6125.00,1.41
6124.00,1.41
6123.00,1.41
6122.00,1.41
6121.00,1.42
6120.00,1.42
6119.00,1.42
6118.00,1.42
6117.00,1.42
6116.00,1.42
6115.00,1.43
6114.00,1.43
6113.00,1.43
6112.00,1.43
6111.00,1.43
6110.00,1.44
6109.00,1.44
6108.00,1.44
6107.00,1.44
6106.00,1.44
6105.00,1.45
6104.00,1.45
6103.00,1.45
6102.00,1.45
6101.00,1.46
6100.00,1.46
6099.00,1.46
6098.00,1.46
6097.00,1.46
6096.00,1.47
6095.00,1.47
6094.00,1.47
6093.00,1.47
6092.00,1.47
6091.00,1.48
6090.00,1.48
6089.00,1.48
6088.00,1.48
6087.00,1.48
6086.00,1.49
6085.00,1.49
6084.00,1.49
6083.00,1.49
6082.00,1.49
6081.00,1.50
6080.00,1.50
6079.00,1.50
6078.00,1.50
6077.00,1.50
6076.00,1.50
6075.00,1.50
6074.00,1.51
6073.00,1.51
6072.00,1.51
6071.00,1.51
6070.00,1.51
6069.00,1.51
6068.00,1.51
6067.00,1.51
6066.00,1.51
6065.00,1.52
6064.00,1.52
6063.00,1.52
6062.00,1.52
6061.00,1.52
6060.00,1.52
6059.00,1.52
6058.00,1.53
6057.00,1.53
6056.00,1.53
6055.00,1.53
6054.00,1.53
6053.00,1.53
6052.00,1.54
6051.00,1.54
6050.00,1.54
6049.00,1.54
6048.00,1.54
6047.00,1.54
6046.00,1.54
6045.00,1.55
6044.00,1.55
6043.00,1.55
6042.00,1.55
6041.00,1.55
6040.00,1.55
6039.00,1.55
6038.00,1.55
6037.00,1.55
6036.00,1.55
6035.00,1.55
6034.00,1.55
6033.00,1.55
6032.00,1.55
6031.00,1.55
6030.00,1.55
6029.00,1.55
6028.00,1.55
6027.00,1.55
6026.00,1.55
6025.00,1.55
6024.00,1.55
6023.00,1.55
6022.00,1.55
6021.00,1.55
6020.00,1.55
6019.00,1.55
6018.00,1.55
6017.00,1.55
6016.00,1.55
6015.00,1.55
6014.00,1.55
6013.00,1.55
6012.00,1.56
6011.00,1.56
6010.00,1.56
6009.00,1.56
6008.00,1.56
6007.00,1.56
6006.00,1.55
6005.00,1.55
6004.00,1.55
6003.00,1.55
6002.00,1.55
6001.00,1.55
6000.00,1.55
5999.00,1.55
5998.00,1.55
5997.00,1.55
5996.00,1.55
5995.00,1.54
5994.00,1.54
5993.00,1.54
5992.00,1.54
5991.00,1.54
5990.00,1.54
5989.00,1.53
5988.00,1.53
5987.00,1.53
5986.00,1.52
5985.00,1.52
5984.00,1.52
5983.00,1.51
5982.00,1.51
5981.00,1.51
5980.00,1.50
5979.00,1.50
5978.00,1.49
5977.00,1.49
5976.00,1.48
5975.00,1.47
5974.00,1.47
5973.00,1.46
5972.00,1.46
5971.00,1.45
5970.00,1.44
5969.00,1.43
5968.00,1.43
5967.00,1.42
5966.00,1.41
5965.00,1.40
5964.00,1.39
5963.00,1.38
5962.00,1.38
5961.00,1.37
5960.00,1.36
5959.00,1.35
5958.00,1.34
5957.00,1.33
5956.00,1.32
5955.00,1.31
5954.00,1.30
5953.00,1.30
5952.00,1.29
5951.00,1.28
5950.00,1.28
5949.00,1.27
5948.00,1.26
5947.00,1.26
5946.00,1.25
5945.00,1.25
5944.00,1.24
5943.00,1.24
5942.00,1.24
5941.00,1.23
5940.00,1.23
5939.00,1.23
5938.00,1.23
5937.00,1.23
5936.00,1.22
5935.00,1.22
5934.00,1.22
5933.00,1.22
5932.00,1.22
5931.00,1.22
5930.00,1.22
5929.00,1.22
5928.00,1.22
5927.00,1.21
5926.00,1.21
5925.00,1.21
5924.00,1.21
5923.00,1.21
5922.00,1.21
5921.00,1.20
5920.00,1.20
5919.00,1.20
5918.00,1.20
5917.00,1.19
5916.00,1.19
5915.00,1.19
5914.00,1.18
5913.00,1.18
5912.00,1.18
5911.00,1.17
5910.00,1.17
5909.00,1.17
5908.00,1.17
5907.00,1.16
5906.00,1.16
5905.00,1.16
5904.00,1.16
5903.00,1.16
5902.00,1.16
5901.00,1.16
5900.00,1.16
5899.00,1.16
5898.00,1.16
5897.00,1.16
5896.00,1.17
5895.00,1.17
5894.00,1.17
5893.00,1.17
5892.00,1.18
5891.00,1.18
5890.00,1.19
5889.00,1.19
5888.00,1.19
5887.00,1.20
5886.00,1.20
5885.00,1.21
5884.00,1.21
5883.00,1.21
5882.00,1.22
5881.00,1.22
5880.00,1.23
5879.00,1.23
5878.00,1.24
5877.00,1.24
5876.00,1.24
5875.00,1.25
5874.00,1.25
5873.00,1.25
5872.00,1.26
5871.00,1.26
5870.00,1.26
5869.00,1.26
5868.00,1.27
5867.00,1.27
5866.00,1.27
5865.00,1.27
5864.00,1.27
5863.00,1.28
5862.00,1.28
5861.00,1.28
5860.00,1.28
5859.00,1.28
5858.00,1.28
5857.00,1.28
5856.00,1.29
5855.00,1.29
5854.00,1.29
5853.00,1.29
5852.00,1.29
5851.00,1.29
5850.00,1.29
5849.00,1.29
5848.00,1.29
5847.00,1.29
5846.00,1.29
5845.00,1.29
5844.00,1.29
5843.00,1.30
5842.00,1.30
5841.00,1.30
5840.00,1.30
5839.00,1.30
5838.00,1.30
5837.00,1.30
5836.00,1.30
5835.00,1.30
5834.00,1.30
5833.00,1.30
5832.00,1.30
5831.00,1.30
5830.00,1.30
5829.00,1.30
5828.00,1.30
5827.00,1.30
5826.00,1.30
5825.00,1.30
5824.00,1.30
5823.00,1.30
5822.00,1.30
5821.00,1.30
5820.00,1.30
5819.00,1.30
5818.00,1.30
5817.00,1.30
5816.00,1.30
5815.00,1.30
5814.00,1.30
5813.00,1.30
5812.00,1.30
5811.00,1.30
5810.00,1.30
5809.00,1.30
5808.00,1.30
5807.00,1.30
5806.00,1.30
5805.00,1.30
5804.00,1.30
5803.00,1.30
5802.00,1.30
5801.00,1.29
5800.00,1.29
5799.00,1.29
5798.00,1.29
5797.00,1.28
5796.00,1.28
5795.00,1.28
5794.00,1.28
5793.00,1.27
5792.00,1.27
5791.00,1.27
5790.00,1.26
5789.00,1.26
5788.00,1.26
5787.00,1.26
5786.00,1.25
5785.00,1.25
5784.00,1.25
5783.00,1.25
5782.00,1.24
5781.00,1.24
5780.00,1.24
5779.00,1.24
5778.00,1.24
5777.00,1.24
5776.00,1.24
5775.00,1.24
5774.00,1.23
5773.00,1.23
5772.00,1.23
5771.00,1.23
5770.00,1.24
5769.00,1.24
5768.00,1.24
5767.00,1.24
5766.00,1.24
5765.00,1.24
5764.00,1.25
5763.00,1.25
5762.00,1.25
5761.00,1.25
5760.00,1.26
5759.00,1.26
5758.00,1.27
5757.00,1.27
5756.00,1.27
5755.00,1.28
5754.00,1.28
5753.00,1.29
5752.00,1.29
5751.00,1.30
5750.00,1.30
5749.00,1.30
5748.00,1.31
5747.00,1.31
5746.00,1.32
5745.00,1.32
5744.00,1.32
5743.00,1.33
5742.00,1.33
5741.00,1.34
5740.00,1.34
5739.00,1.34
5738.00,1.35
5737.00,1.35
5736.00,1.35
5735.00,1.35
5734.00,1.36
5733.00,1.36
5732.00,1.36
5731.00,1.36
5730.00,1.36
5729.00,1.37
5728.00,1.37
5727.00,1.37
5726.00,1.37
5725.00,1.37
5724.00,1.37
5723.00,1.37
5722.00,1.37
5721.00,1.37
5720.00,1.37
5719.00,1.38
5718.00,1.38
5717.00,1.38
5716.00,1.37
5715.00,1.37
5714.00,1.37
5713.00,1.37
5712.00,1.37
5711.00,1.37
5710.00,1.37
5709.00,1.37
5708.00,1.37
5707.00,1.37
5706.00,1.37
5705.00,1.37
5704.00,1.37
5703.00,1.36
5702.00,1.36
5701.00,1.36
5700.00,1.36
5699.00,1.36
5698.00,1.36
5697.00,1.35
5696.00,1.35
5695.00,1.35
5694.00,1.35
5693.00,1.34
5692.00,1.34
5691.00,1.34
5690.00,1.34
5689.00,1.34
5688.00,1.33
5687.00,1.33
5686.00,1.33
5685.00,1.33
5684.00,1.33
5683.00,1.32
5682.00,1.32
5681.00,1.32
5680.00,1.32
5679.00,1.32
5678.00,1.32
5677.00,1.32
5676.00,1.32
5675.00,1.32
5674.00,1.32
5673.00,1.32
5672.00,1.32
5671.00,1.32
5670.00,1.32
5669.00,1.32
5668.00,1.32
5667.00,1.32
5666.00,1.32
5665.00,1.32
5664.00,1.32
5663.00,1.33
5662.00,1.33
5661.00,1.33
5660.00,1.33
5659.00,1.33
5658.00,1.34
5657.00,1.34
5656.00,1.34
5655.00,1.34
5654.00,1.35
5653.00,1.35
5652.00,1.35
5651.00,1.35
5650.00,1.36
5649.00,1.36
5648.00,1.36
5647.00,1.36
5646.00,1.37
5645.00,1.37
5644.00,1.37
5643.00,1.37
5642.00,1.37
5641.00,1.38
5640.00,1.38
5639.00,1.38
5638.00,1.39
5637.00,1.39
5636.00,1.39
5635.00,1.39
5634.00,1.40
5633.00,1.40
5632.00,1.40
5631.00,1.40
5630.00,1.41
5629.00,1.41
5628.00,1.41
5627.00,1.41
5626.00,1.42
5625.00,1.42
5624.00,1.42
5623.00,1.42
5622.00,1.42
5621.00,1.42
5620.00,1.43
5619.00,1.43
5618.00,1.43
5617.00,1.43
5616.00,1.43
5615.00,1.43
5614.00,1.43
5613.00,1.44
5612.00,1.44
5611.00,1.44
5610.00,1.44
5609.00,1.44
5608.00,1.45
5607.00,1.45
5606.00,1.45
5605.00,1.45
5604.00,1.45
5603.00,1.46
5602.00,1.46
5601.00,1.46
5600.00,1.47
5599.00,1.47
5598.00,1.47
5597.00,1.47
5596.00,1.48
5595.00,1.48
5594.00,1.48
5593.00,1.48
5592.00,1.49
5591.00,1.49
5590.00,1.49
5589.00,1.49
5588.00,1.50
5587.00,1.50
5586.00,1.50
5585.00,1.50
5584.00,1.51
5583.00,1.51
5582.00,1.51
5581.00,1.51
5580.00,1.51
5579.00,1.52
5578.00,1.52
5577.00,1.52
5576.00,1.52
5575.00,1.52
5574.00,1.52
5573.00,1.53
5572.00,1.53
5571.00,1.53
5570.00,1.53
5569.00,1.53
5568.00,1.53
5567.00,1.53
5566.00,1.53
5565.00,1.54
5564.00,1.54
5563.00,1.54
5562.00,1.54
5561.00,1.54
5560.00,1.54
5559.00,1.55
5558.00,1.55
5557.00,1.55
5556.00,1.55
5555.00,1.55
5554.00,1.56
5553.00,1.56
5552.00,1.56
5551.00,1.56
5550.00,1.56
5549.00,1.57
5548.00,1.57
5547.00,1.57
5546.00,1.57
5545.00,1.57
5544.00,1.58
5543.00,1.58
5542.00,1.58
5541.00,1.58
5540.00,1.58
5539.00,1.58
5538.00,1.59
5537.00,1.59
5536.00,1.59
5535.00,1.59
5534.00,1.59
5533.00,1.60
5532.00,1.60
5531.00,1.60
5530.00,1.60
5529.00,1.60
5528.00,1.60
5527.00,1.60
5526.00,1.61
5525.00,1.61
5524.00,1.61
5523.00,1.61
5522.00,1.61
5521.00,1.61
5520.00,1.61
5519.00,1.61
5518.00,1.61
5517.00,1.61
5516.00,1.61
5515.00,1.61
5514.00,1.61
5513.00,1.61
5512.00,1.61
5511.00,1.62
5510.00,1.62
5509.00,1.62
5508.00,1.62
5507.00,1.62
5506.00,1.62
5505.00,1.62
5504.00,1.62
5503.00,1.62
5502.00,1.62
5501.00,1.62
5500.00,1.62
5499.00,1.62
5498.00,1.62
5497.00,1.62
5496.00,1.63
5495.00,1.63
5494.00,1.63
5493.00,1.63
5492.00,1.63
5491.00,1.64
5490.00,1.64
5489.00,1.64
5488.00,1.64
5487.00,1.65
5486.00,1.65
5485.00,1.65
5484.00,1.65
5483.00,1.66
5482.00,1.66
5481.00,1.66
5480.00,1.66
5479.00,1.66
5478.00,1.67
5477.00,1.67
5476.00,1.67
5475.00,1.67
5474.00,1.67
5473.00,1.67
5472.00,1.67
5471.00,1.68
5470.00,1.68
5469.00,1.68
5468.00,1.68
5467.00,1.68
5466.00,1.68
5465.00,1.69
5464.00,1.69
5463.00,1.69
5462.00,1.69
5461.00,1.69
5460.00,1.69
5459.00,1.69
5458.00,1.69
5457.00,1.69
5456.00,1.70
5455.00,1.70
5454.00,1.70
5453.00,1.70
5452.00,1.70
5451.00,1.70
5450.00,1.70
5449.00,1.70
5448.00,1.70
5447.00,1.70
5446.00,1.70
5445.00,1.70
5444.00,1.70
5443.00,1.70
5442.00,1.70
5441.00,1.70
5440.00,1.70
5439.00,1.70
5438.00,1.70
5437.00,1.70
5436.00,1.71
5435.00,1.71
5434.00,1.71
5433.00,1.71
5432.00,1.71
5431.00,1.71
5430.00,1.71
5429.00,1.71
5428.00,1.71
5427.00,1.71
5426.00,1.71
5425.00,1.71
5424.00,1.71
5423.00,1.71
5422.00,1.71
5421.00,1.71
5420.00,1.71
5419.00,1.71
5418.00,1.71
5417.00,1.71
5416.00,1.71
5415.00,1.71
5414.00,1.71
5413.00,1.71
5412.00,1.71
5411.00,1.71
5410.00,1.71
5409.00,1.71
5408.00,1.71
5407.00,1.71
5406.00,1.71
5405.00,1.71
5404.00,1.71
5403.00,1.71
5402.00,1.71
5401.00,1.71
5400.00,1.71
5399.00,1.71
5398.00,1.71
5397.00,1.71
5396.00,1.70
5395.00,1.70
5394.00,1.70
5393.00,1.70
5392.00,1.70
5391.00,1.69
5390.00,1.69
5389.00,1.69
5388.00,1.69
5387.00,1.68
5386.00,1.68
5385.00,1.67
5384.00,1.67
5383.00,1.67
5382.00,1.66
5381.00,1.66
5380.00,1.65
5379.00,1.65
5378.00,1.64
5377.00,1.64
5376.00,1.63
5375.00,1.63
5374.00,1.62
5373.00,1.62
5372.00,1.61
5371.00,1.61
5370.00,1.60
5369.00,1.59
5368.00,1.59
5367.00,1.58
5366.00,1.57
5365.00,1.56
5364.00,1.56
5363.00,1.55
5362.00,1.54
5361.00,1.53
5360.00,1.52
5359.00,1.51
5358.00,1.50
5357.00,1.49
5356.00,1.48
5355.00,1.47
5354.00,1.46
5353.00,1.45
5352.00,1.44
5351.00,1.43
5350.00,1.42
5349.00,1.41
5348.00,1.40
5347.00,1.38
5346.00,1.37
5345.00,1.36
5344.00,1.35
5343.00,1.33
5342.00,1.32
5341.00,1.31
5340.00,1.30
5339.00,1.28
5338.00,1.27
5337.00,1.26
5336.00,1.25
5335.00,1.24
5334.00,1.22
5333.00,1.21
5332.00,1.20
5331.00,1.19
5330.00,1.17
5329.00,1.16
5328.00,1.15
5327.00,1.14
5326.00,1.12
5325.00,1.11
5324.00,1.10
5323.00,1.09
5322.00,1.08
5321.00,1.07
5320.00,1.06
5319.00,1.04
5318.00,1.03
5317.00,1.02
5316.00,1.01
5315.00,1.00
5314.00,0.99
5313.00,0.98
5312.00,0.97
5311.00,0.96
5310.00,0.96
5309.00,0.95
5308.00,0.94
5307.00,0.93
5306.00,0.92
5305.00,0.92
5304.00,0.91
5303.00,0.90
5302.00,0.90
5301.00,0.89
5300.00,0.89
5299.00,0.88
5298.00,0.88
5297.00,0.88
5296.00,0.87
5295.00,0.87
5294.00,0.87
5293.00,0.86
5292.00,0.86
5291.00,0.86
5290.00,0.85
5289.00,0.85
5288.00,0.85
5287.00,0.85
5286.00,0.84
5285.00,0.84
5284.00,0.84
5283.00,0.84
5282.00,0.84
5281.00,0.83
5280.00,0.83
5279.00,0.83
5278.00,0.83
5277.00,0.83
5276.00,0.83
5275.00,0.82
5274.00,0.82
5273.00,0.82
5272.00,0.82
5271.00,0.82
5270.00,0.82
5269.00,0.82
5268.00,0.82
5267.00,0.82
5266.00,0.82
5265.00,0.82
5264.00,0.82
5263.00,0.82
5262.00,0.82
5261.00,0.82
5260.00,0.82
5259.00,0.82
5258.00,0.82
5257.00,0.82
5256.00,0.82
5255.00,0.82
5254.00,0.82
5253.00,0.82
5252.00,0.82
5251.00,0.82
5250.00,0.82
5249.00,0.82
5248.00,0.82
5247.00,0.82
5246.00,0.82
5245.00,0.82
5244.00,0.82
5243.00,0.82
5242.00,0.82
5241.00,0.82
5240.00,0.82
5239.00,0.82
5238.00,0.82
5237.00,0.83
5236.00,0.83
5235.00,0.83
5234.00,0.83
5233.00,0.83
5232.00,0.83
5231.00,0.83
5230.00,0.83
5229.00,0.83
5228.00,0.83
5227.00,0.83
5226.00,0.83
5225.00,0.83
5224.00,0.83
5223.00,0.83
5222.00,0.83
5221.00,0.83
5220.00,0.83
5219.00,0.83
5218.00,0.83
5217.00,0.83
5216.00,0.83
5215.00,0.83
5214.00,0.83
5213.00,0.83
5212.00,0.83
5211.00,0.83
5210.00,0.83
5209.00,0.83
5208.00,0.83
5207.00,0.84
5206.00,0.84
5205.00,0.84
5204.00,0.84
5203.00,0.84
5202.00,0.84
5201.00,0.84
5200.00,0.84
5199.00,0.84
5198.00,0.84
5197.00,0.84
5196.00,0.85
5195.00,0.85
5194.00,0.85
5193.00,0.85
5192.00,0.85
5191.00,0.85
5190.00,0.85
5189.00,0.85
5188.00,0.85
5187.00,0.85
5186.00,0.85
5185.00,0.85
5184.00,0.85
5183.00,0.85
5182.00,0.85
5181.00,0.85
5180.00,0.85
5179.00,0.85
5178.00,0.86
5177.00,0.86
5176.00,0.86
5175.00,0.86
5174.00,0.86
5173.00,0.86
5172.00,0.86
5171.00,0.86
5170.00,0.86
5169.00,0.86
5168.00,0.86
5167.00,0.86
5166.00,0.86
5165.00,0.86
5164.00,0.87
5163.00,0.87
5162.00,0.87
5161.00,0.87
5160.00,0.87
5159.00,0.87
5158.00,0.87
5157.00,0.87
5156.00,0.87
5155.00,0.87
5154.00,0.87
5153.00,0.87
5152.00,0.87
5151.00,0.87
5150.00,0.87
5149.00,0.87
5148.00,0.87
5147.00,0.88
5146.00,0.88
5145.00,0.88
5144.00,0.88
5143.00,0.88
5142.00,0.88
5141.00,0.88
5140.00,0.88
5139.00,0.88
5138.00,0.88
5137.00,0.88
5136.00,0.88
5135.00,0.89
5134.00,0.89
5133.00,0.89
5132.00,0.89
5131.00,0.89
5130.00,0.89
5129.00,0.89
5128.00,0.89
5127.00,0.89
5126.00,0.89
5125.00,0.89
5124.00,0.89
5123.00,0.89
5122.00,0.89
5121.00,0.89
5120.00,0.90
5119.00,0.90
5118.00,0.90
5117.00,0.90
5116.00,0.90
5115.00,0.90
5114.00,0.90
5113.00,0.90
5112.00,0.90
5111.00,0.90
5110.00,0.90
5109.00,0.90
5108.00,0.90
5107.00,0.90
5106.00,0.90
5105.00,0.90
5104.00,0.90
5103.00,0.90
5102.00,0.90
5101.00,0.90
5100.00,0.91
5099.00,0.91
5098.00,0.91
5097.00,0.91
5096.00,0.91
5095.00,0.91
5094.00,0.91
5093.00,0.91
5092.00,0.91
5091.00,0.91
5090.00,0.91
5089.00,0.91
5088.00,0.91
5087.00,0.91
5086.00,0.91
5085.00,0.91
5084.00,0.91
5083.00,0.91
5082.00,0.91
5081.00,0.91
5080.00,0.91
5079.00,0.91
5078.00,0.91
5077.00,0.91
5076.00,0.91
5075.00,0.91
5074.00,0.91
5073.00,0.91
5072.00,0.91
5071.00,0.91
5070.00,0.91
5069.00,0.92
5068.00,0.92
5067.00,0.92
5066.00,0.92
5065.00,0.92
5064.00,0.92
5063.00,0.92
5062.00,0.92
5061.00,0.92
5060.00,0.92
5059.00,0.92
5058.00,0.92
5057.00,0.93
5056.00,0.93
5055.00,0.93
5054.00,0.93
5053.00,0.93
5052.00,0.93
5051.00,0.93
5050.00,0.93
5049.00,0.93
5048.00,0.93
5047.00,0.93
5046.00,0.93
5045.00,0.93
5044.00,0.93
5043.00,0.94
5042.00,0.94
5041.00,0.94
5040.00,0.94
5039.00,0.94
5038.00,0.94
5037.00,0.94
5036.00,0.94
5035.00,0.94
5034.00,0.94
5033.00,0.95
5032.00,0.95
5031.00,0.95
5030.00,0.95
5029.00,0.95
5028.00,0.95
5027.00,0.95
5026.00,0.95
5025.00,0.95
5024.00,0.95
5023.00,0.95
5022.00,0.95
5021.00,0.95
5020.00,0.96
5019.00,0.96
5018.00,0.96
5017.00,0.96
5016.00,0.96
5015.00,0.96
5014.00,0.96
5013.00,0.96
5012.00,0.96
5011.00,0.96
5010.00,0.96
5009.00,0.96
5008.00,0.97
5007.00,0.97
5006.00,0.97
5005.00,0.97
5004.00,0.97
5003.00,0.97
5002.00,0.97
5001.00,0.97
5000.00,0.97
4999.00,0.97
4998.00,0.97
4997.00,0.97
4996.00,0.97
4995.00,0.97
4994.00,0.97
4993.00,0.97
4992.00,0.97
4991.00,0.97
4990.00,0.98
4989.00,0.98
4988.00,0.98
4987.00,0.98
4986.00,0.98
4985.00,0.98
4984.00,0.98
4983.00,0.98
4982.00,0.98
4981.00,0.98
4980.00,0.98
4979.00,0.98
4978.00,0.98
4977.00,0.99
4976.00,0.99
4975.00,0.99
4974.00,0.99
4973.00,0.99
4972.00,0.99
4971.00,0.99
4970.00,0.99
4969.00,1.00
4968.00,1.00
4967.00,1.00
4966.00,1.00
4965.00,1.00
4964.00,1.00
4963.00,1.00
4962.00,1.00
4961.00,1.00
4960.00,1.01
4959.00,1.01
4958.00,1.01
4957.00,1.01
4956.00,1.01
4955.00,1.01
4954.00,1.01
4953.00,1.01
4952.00,1.01
4951.00,1.01
4950.00,1.02
4949.00,1.02
4948.00,1.02
4947.00,1.02
4946.00,1.02
4945.00,1.02
4944.00,1.02
4943.00,1.02
4942.00,1.02
4941.00,1.02
4940.00,1.02
4939.00,1.02
4938.00,1.03
4937.00,1.03
4936.00,1.03
4935.00,1.03
4934.00,1.03
4933.00,1.03
4932.00,1.03
4931.00,1.03
4930.00,1.03
4929.00,1.03
4928.00,1.04
4927.00,1.04
4926.00,1.04
4925.00,1.04
4924.00,1.04
4923.00,1.04
4922.00,1.04
4921.00,1.04
4920.00,1.05
4919.00,1.05
4918.00,1.05
4917.00,1.05
4916.00,1.05
4915.00,1.05
4914.00,1.05
4913.00,1.05
4912.00,1.05
4911.00,1.05
4910.00,1.05
4909.00,1.05
4908.00,1.05
4907.00,1.05
4906.00,1.06
4905.00,1.06
4904.00,1.06
4903.00,1.06
4902.00,1.06
4901.00,1.06
4900.00,1.06
4899.00,1.06
4898.00,1.06
4897.00,1.06
4896.00,1.06
4895.00,1.06
4894.00,1.06
4893.00,1.06
4892.00,1.06
4891.00,1.07
4890.00,1.07
4889.00,1.07
4888.00,1.07
4887.00,1.07
4886.00,1.07
4885.00,1.07
4884.00,1.07
4883.00,1.07
4882.00,1.07
4881.00,1.07
4880.00,1.07
4879.00,1.08
4878.00,1.08
4877.00,1.08
4876.00,1.08
4875.00,1.08
4874.00,1.08
4873.00,1.08
4872.00,1.08
4871.00,1.08
4870.00,1.08
4869.00,1.08
4868.00,1.08
4867.00,1.08
4866.00,1.08
4865.00,1.08
4864.00,1.08
4863.00,1.09
4862.00,1.09
4861.00,1.09
4860.00,1.09
4859.00,1.09
4858.00,1.09
4857.00,1.09
4856.00,1.10
4855.00,1.10
4854.00,1.10
4853.00,1.10
4852.00,1.10
4851.00,1.10
4850.00,1.10
4849.00,1.10
4848.00,1.10
4847.00,1.11
4846.00,1.11
4845.00,1.11
4844.00,1.11
4843.00,1.11
4842.00,1.11
4841.00,1.11
4840.00,1.11
4839.00,1.11
4838.00,1.11
4837.00,1.11
4836.00,1.11
4835.00,1.12
4834.00,1.12
4833.00,1.12
4832.00,1.12
4831.00,1.12
4830.00,1.12
4829.00,1.12
4828.00,1.12
4827.00,1.12
4826.00,1.12
4825.00,1.12
4824.00,1.12
4823.00,1.12
4822.00,1.12
4821.00,1.12
4820.00,1.12
4819.00,1.12
4818.00,1.12
4817.00,1.13
4816.00,1.13
4815.00,1.13
4814.00,1.13
4813.00,1.13
4812.00,1.13
4811.00,1.13
4810.00,1.13
4809.00,1.13
4808.00,1.13
4807.00,1.13
4806.00,1.14
4805.00,1.14
4804.00,1.14
4803.00,1.14
4802.00,1.14
4801.00,1.14
4800.00,1.14
4799.00,1.14
4798.00,1.15
4797.00,1.15
4796.00,1.15
4795.00,1.15
4794.00,1.15
4793.00,1.15
4792.00,1.15
4791.00,1.16
4790.00,1.16
4789.00,1.16
4788.00,1.16
4787.00,1.16
4786.00,1.16
4785.00,1.16
4784.00,1.17
4783.00,1.17
4782.00,1.17
4781.00,1.17
4780.00,1.17
4779.00,1.17
4778.00,1.17
4777.00,1.17
4776.00,1.17
4775.00,1.17
4774.00,1.18
4773.00,1.18
4772.00,1.18
4771.00,1.18
4770.00,1.18
4769.00,1.18
4768.00,1.18
4767.00,1.18
4766.00,1.19
4765.00,1.19
4764.00,1.19
4763.00,1.19
4762.00,1.19
4761.00,1.19
4760.00,1.20
4759.00,1.20
4758.00,1.20
4757.00,1.20
4756.00,1.20
4755.00,1.20
4754.00,1.21
4753.00,1.21
4752.00,1.21
4751.00,1.21
4750.00,1.21
4749.00,1.21
4748.00,1.21
4747.00,1.21
4746.00,1.22
4745.00,1.22
4744.00,1.22
4743.00,1.22
4742.00,1.22
4741.00,1.22
4740.00,1.22
4739.00,1.22
4738.00,1.22
4737.00,1.23
4736.00,1.23
4735.00,1.23
4734.00,1.23
4733.00,1.23
4732.00,1.23
4731.00,1.24
4730.00,1.24
4729.00,1.24
4728.00,1.24
4727.00,1.24
4726.00,1.25
4725.00,1.25
4724.00,1.25
4723.00,1.25
4722.00,1.25
4721.00,1.26
4720.00,1.26
4719.00,1.26
4718.00,1.26
4717.00,1.26
4716.00,1.27
4715.00,1.27
4714.00,1.27
4713.00,1.27
4712.00,1.27
4711.00,1.28
4710.00,1.28
4709.00,1.28
4708.00,1.28
4707.00,1.28
4706.00,1.29
4705.00,1.29
4704.00,1.29
4703.00,1.29
4702.00,1.29
4701.00,1.30
4700.00,1.30
4699.00,1.30
4698.00,1.30
4697.00,1.30
4696.00,1.31
4695.00,1.31
4694.00,1.31
4693.00,1.31
4692.00,1.31
4691.00,1.31
4690.00,1.31
4689.00,1.32
4688.00,1.32
4687.00,1.32
4686.00,1.32
4685.00,1.32
4684.00,1.33
4683.00,1.33
4682.00,1.33
4681.00,1.33
4680.00,1.34
4679.00,1.34
4678.00,1.34
4677.00,1.34
4676.00,1.35
4675.00,1.35
4674.00,1.35
4673.00,1.35
4672.00,1.35
4671.00,1.36
4670.00,1.36
4669.00,1.36
4668.00,1.36
4667.00,1.36
4666.00,1.36
4665.00,1.36
4664.00,1.37
4663.00,1.37
4662.00,1.37
4661.00,1.37
4660.00,1.37
4659.00,1.37
4658.00,1.37
4657.00,1.37
4656.00,1.37
4655.00,1.37
4654.00,1.37
4653.00,1.38
4652.00,1.38
4651.00,1.38
4650.00,1.38
4649.00,1.38
4648.00,1.38
4647.00,1.39
4646.00,1.39
4645.00,1.39
4644.00,1.39
4643.00,1.39
4642.00,1.40
4641.00,1.40
4640.00,1.40
4639.00,1.40
4638.00,1.41
4637.00,1.41
4636.00,1.41
4635.00,1.41
4634.00,1.42
4633.00,1.42
4632.00,1.42
4631.00,1.42
4630.00,1.42
4629.00,1.42
4628.00,1.43
4627.00,1.43
4626.00,1.43
4625.00,1.43
4624.00,1.43
4623.00,1.43
4622.00,1.43
4621.00,1.43
4620.00,1.43
4619.00,1.43
4618.00,1.43
4617.00,1.43
4616.00,1.43
4615.00,1.44
4614.00,1.44
4613.00,1.44
4612.00,1.44
4611.00,1.44
4610.00,1.44
4609.00,1.44
4608.00,1.44
4607.00,1.44
4606.00,1.44
4605.00,1.44
4604.00,1.44
4603.00,1.45
4602.00,1.45
4601.00,1.45
4600.00,1.45
4599.00,1.45
4598.00,1.45
4597.00,1.45
4596.00,1.45
4595.00,1.45
4594.00,1.45
4593.00,1.45
4592.00,1.45
4591.00,1.45
4590.00,1.45
4589.00,1.45
4588.00,1.46
4587.00,1.46
4586.00,1.46
4585.00,1.46
4584.00,1.46
4583.00,1.46
4582.00,1.47
4581.00,1.47
4580.00,1.47
4579.00,1.47
4578.00,1.48
4577.00,1.48
4576.00,1.48
4575.00,1.48
4574.00,1.49
4573.00,1.49
4572.00,1.49
4571.00,1.49
4570.00,1.49
4569.00,1.49
4568.00,1.49
4567.00,1.49
4566.00,1.50
4565.00,1.50
4564.00,1.50
4563.00,1.50
4562.00,1.50
4561.00,1.50
4560.00,1.50
4559.00,1.50
4558.00,1.50
4557.00,1.50
4556.00,1.50
4555.00,1.50
4554.00,1.50
4553.00,1.50
4552.00,1.50
4551.00,1.50
4550.00,1.50
4549.00,1.50
4548.00,1.50
4547.00,1.50
4546.00,1.50
4545.00,1.50
4544.00,1.50
4543.00,1.50
4542.00,1.51
4541.00,1.51
4540.00,1.51
4539.00,1.51
4538.00,1.51
4537.00,1.51
4536.00,1.51
4535.00,1.52
4534.00,1.52
4533.00,1.52
4532.00,1.52
4531.00,1.52
4530.00,1.53
4529.00,1.53
4528.00,1.53
4527.00,1.53
4526.00,1.53
4525.00,1.53
4524.00,1.53
4523.00,1.53
4522.00,1.53
4521.00,1.53
4520.00,1.53
4519.00,1.53
4518.00,1.53
4517.00,1.53
4516.00,1.53
4515.00,1.53
4514.00,1.53
4513.00,1.53
4512.00,1.53
4511.00,1.53
4510.00,1.53
4509.00,1.53
4508.00,1.53
4507.00,1.53
4506.00,1.53
4505.00,1.53
4504.00,1.53
4503.00,1.53
4502.00,1.53
4501.00,1.53
4500.00,1.53
4499.00,1.53
4498.00,1.53
4497.00,1.52
4496.00,1.52
4495.00,1.52
4494.00,1.52
4493.00,1.52
4492.00,1.52
4491.00,1.52
4490.00,1.51
4489.00,1.51
4488.00,1.51
4487.00,1.51
4486.00,1.51
4485.00,1.50
4484.00,1.50
4483.00,1.50
4482.00,1.50
4481.00,1.50
4480.00,1.49
4479.00,1.49
4478.00,1.49
4477.00,1.49
4476.00,1.49
4475.00,1.48
4474.00,1.48
4473.00,1.48
4472.00,1.48
4471.00,1.48
4470.00,1.47
4469.00,1.47
4468.00,1.47
4467.00,1.47
4466.00,1.46
4465.00,1.46
4464.00,1.46
4463.00,1.46
4462.00,1.46
4461.00,1.45
4460.00,1.45
4459.00,1.45
4458.00,1.45
4457.00,1.44
4456.00,1.44
4455.00,1.44
4454.00,1.44
4453.00,1.43
4452.00,1.43
4451.00,1.43
4450.00,1.42
4449.00,1.42
4448.00,1.42
4447.00,1.41
4446.00,1.41
4445.00,1.40
4444.00,1.40
4443.00,1.39
4442.00,1.39
4441.00,1.38
4440.00,1.38
4439.00,1.38
4438.00,1.37
4437.00,1.37
4436.00,1.36
4435.00,1.36
4434.00,1.36
4433.00,1.36
4432.00,1.35
4431.00,1.35
4430.00,1.35
4429.00,1.35
4428.00,1.35
4427.00,1.35
4426.00,1.35
4425.00,1.35
4424.00,1.35
4423.00,1.35
4422.00,1.35
4421.00,1.35
4420.00,1.35
4419.00,1.35
4418.00,1.35
4417.00,1.35
4416.00,1.35
4415.00,1.35
4414.00,1.35
4413.00,1.35
4412.00,1.35
4411.00,1.35
4410.00,1.35
4409.00,1.35
4408.00,1.35
4407.00,1.35
4406.00,1.35
4405.00,1.35
4404.00,1.35
4403.00,1.35
4402.00,1.35
4401.00,1.35
4400.00,1.36
4399.00,1.36
4398.00,1.36
4397.00,1.36
4396.00,1.36
4395.00,1.36
4394.00,1.37
4393.00,1.37
4392.00,1.37
4391.00,1.37
4390.00,1.37
4389.00,1.38
4388.00,1.38
4387.00,1.38
4386.00,1.38
4385.00,1.38
4384.00,1.38
4383.00,1.38
4382.00,1.38
4381.00,1.39
4380.00,1.39
4379.00,1.39
4378.00,1.39
4377.00,1.39
4376.00,1.39
4375.00,1.39
4374.00,1.39
4373.00,1.40
4372.00,1.40
4371.00,1.40
4370.00,1.40
4369.00,1.40
4368.00,1.40
4367.00,1.40
4366.00,1.40
4365.00,1.40
4364.00,1.40
4363.00,1.40
4362.00,1.40
4361.00,1.40
4360.00,1.41
4359.00,1.41
4358.00,1.41
4357.00,1.41
4356.00,1.41
4355.00,1.41
4354.00,1.41
4353.00,1.41
4352.00,1.41
4351.00,1.41
4350.00,1.41
4349.00,1.40
4348.00,1.40
4347.00,1.40
4346.00,1.40
4345.00,1.40
4344.00,1.41
4343.00,1.41
4342.00,1.41
4341.00,1.41
4340.00,1.41
4339.00,1.41
4338.00,1.41
4337.00,1.41
4336.00,1.41
4335.00,1.41
4334.00,1.41
4333.00,1.42
4332.00,1.42
4331.00,1.42
4330.00,1.42
4329.00,1.42
4328.00,1.42
4327.00,1.43
4326.00,1.43
4325.00,1.43
4324.00,1.43
4323.00,1.43
4322.00,1.44
4321.00,1.44
4320.00,1.44
4319.00,1.44
4318.00,1.44
4317.00,1.44
4316.00,1.44
4315.00,1.45
4314.00,1.45
4313.00,1.45
4312.00,1.45
4311.00,1.45
4310.00,1.45
4309.00,1.45
4308.00,1.46
4307.00,1.46
4306.00,1.46
4305.00,1.46
4304.00,1.46
4303.00,1.47
4302.00,1.47
4301.00,1.47
4300.00,1.47
4299.00,1.48
4298.00,1.48
4297.00,1.48
4296.00,1.49
4295.00,1.49
4294.00,1.49
4293.00,1.49
4292.00,1.49
4291.00,1.50
4290.00,1.50
4289.00,1.50
4288.00,1.50
4287.00,1.50
4286.00,1.50
4285.00,1.50
4284.00,1.50
4283.00,1.50
4282.00,1.50
4281.00,1.50
4280.00,1.50
4279.00,1.50
4278.00,1.50
4277.00,1.50
4276.00,1.50
4275.00,1.50
4274.00,1.50
4273.00,1.50
4272.00,1.49
4271.00,1.49
4270.00,1.49
4269.00,1.49
4268.00,1.49
4267.00,1.49
4266.00,1.49
4265.00,1.49
4264.00,1.49
4263.00,1.49
4262.00,1.49
4261.00,1.49
4260.00,1.49
4259.00,1.49
4258.00,1.49
4257.00,1.50
4256.00,1.50
4255.00,1.50
4254.00,1.50
4253.00,1.50
4252.00,1.50
4251.00,1.50
4250.00,1.50
4249.00,1.50
4248.00,1.50
4247.00,1.50
4246.00,1.50
4245.00,1.51
4244.00,1.51
4243.00,1.51
4242.00,1.51
4241.00,1.51
4240.00,1.51
4239.00,1.52
4238.00,1.52
4237.00,1.52
4236.00,1.52
4235.00,1.52
4234.00,1.53
4233.00,1.53
4232.00,1.53
4231.00,1.53
4230.00,1.53
4229.00,1.54
4228.00,1.54
4227.00,1.54
4226.00,1.54
4225.00,1.54
4224.00,1.54
4223.00,1.54
4222.00,1.55
4221.00,1.55
4220.00,1.55
4219.00,1.55
4218.00,1.55
4217.00,1.55
4216.00,1.55
4215.00,1.55
4214.00,1.55
4213.00,1.55
4212.00,1.55
4211.00,1.55
4210.00,1.55
4209.00,1.54
4208.00,1.54
4207.00,1.54
4206.00,1.54
4205.00,1.54
4204.00,1.54
4203.00,1.54
4202.00,1.54
4201.00,1.54
4200.00,1.54
4199.00,1.54
4198.00,1.54
4197.00,1.54
4196.00,1.54
4195.00,1.55
4194.00,1.55
4193.00,1.55
4192.00,1.55
4191.00,1.55
4190.00,1.55
4189.00,1.56
4188.00,1.56
4187.00,1.56
4186.00,1.56
4185.00,1.56
4184.00,1.57
4183.00,1.57
4182.00,1.57
4181.00,1.57
4180.00,1.57
4179.00,1.57
4178.00,1.57
4177.00,1.57
4176.00,1.57
4175.00,1.57
4174.00,1.57
4173.00,1.57
4172.00,1.57
4171.00,1.57
4170.00,1.57
4169.00,1.57
4168.00,1.57
4167.00,1.57
4166.00,1.57
4165.00,1.57
4164.00,1.57
4163.00,1.57
4162.00,1.57
4161.00,1.57
4160.00,1.57
4159.00,1.58
4158.00,1.58
4157.00,1.58
4156.00,1.58
4155.00,1.58
4154.00,1.58
4153.00,1.58
4152.00,1.58
4151.00,1.58
4150.00,1.58
4149.00,1.58
4148.00,1.58
4147.00,1.58
4146.00,1.58
4145.00,1.58
4144.00,1.58
4143.00,1.58
4142.00,1.58
4141.00,1.58
4140.00,1.58
4139.00,1.58
4138.00,1.58
4137.00,1.58
4136.00,1.58
4135.00,1.58
4134.00,1.58
4133.00,1.58
4132.00,1.58
4131.00,1.58
4130.00,1.58
4129.00,1.59
4128.00,1.59
4127.00,1.59
4126.00,1.59
4125.00,1.60
4124.00,1.60
4123.00,1.60
4122.00,1.60
4121.00,1.61
4120.00,1.61
4119.00,1.61
4118.00,1.61
4117.00,1.61
4116.00,1.61
4115.00,1.62
4114.00,1.62
4113.00,1.62
4112.00,1.62
4111.00,1.62
4110.00,1.62
4109.00,1.62
4108.00,1.62
4107.00,1.62
4106.00,1.62
4105.00,1.62
4104.00,1.62
4103.00,1.62
4102.00,1.63
4101.00,1.63
4100.00,1.63
4099.00,1.63
4098.00,1.63
4097.00,1.63
4096.00,1.63
4095.00,1.63
4094.00,1.63
4093.00,1.63
4092.00,1.63
4091.00,1.63
4090.00,1.63
4089.00,1.63
4088.00,1.63
4087.00,1.64
4086.00,1.64
4085.00,1.64
4084.00,1.64
4083.00,1.64
4082.00,1.64
4081.00,1.64
4080.00,1.64
4079.00,1.64
4078.00,1.64
4077.00,1.64
4076.00,1.64
4075.00,1.64
4074.00,1.64
4073.00,1.64
4072.00,1.65
4071.00,1.65
4070.00,1.65
4069.00,1.65
4068.00,1.65
4067.00,1.65
4066.00,1.65
4065.00,1.66
4064.00,1.66
4063.00,1.66
4062.00,1.66
4061.00,1.66
4060.00,1.67
4059.00,1.67
4058.00,1.67
4057.00,1.67
4056.00,1.67
4055.00,1.67
4054.00,1.67
4053.00,1.67
4052.00,1.67
4051.00,1.67
4050.00,1.67
4049.00,1.67
4048.00,1.67
4047.00,1.67
4046.00,1.67
4045.00,1.67
4044.00,1.67
4043.00,1.67
4042.00,1.67
4041.00,1.67
4040.00,1.67
4039.00,1.67
4038.00,1.67
4037.00,1.67
4036.00,1.67
4035.00,1.67
4034.00,1.67
4033.00,1.68
4032.00,1.68
4031.00,1.68
4030.00,1.68
4029.00,1.68
4028.00,1.68
4027.00,1.68
4026.00,1.68
4025.00,1.68
4024.00,1.68
4023.00,1.68
4022.00,1.69
4021.00,1.69
4020.00,1.69
4019.00,1.69
4018.00,1.69
4017.00,1.69
4016.00,1.70
4015.00,1.70
4014.00,1.70
4013.00,1.70
4012.00,1.71
4011.00,1.71
4010.00,1.71
4009.00,1.71
4008.00,1.71
4007.00,1.71
4006.00,1.71
4005.00,1.71
4004.00,1.71
4003.00,1.71
4002.00,1.71
4001.00,1.71
4000.00,1.71
