创建为新数据集,样品 348 用户 Administrator 日期 星期四, 三月 08 2018
cm-1,%T
10000.00,1.84
9999.00,1.84
9998.00,1.84
9997.00,1.84
9996.00,1.84
9995.00,1.84
9994.00,1.84
9993.00,1.84
9992.00,1.84
9991.00,1.84
9990.00,1.84
9989.00,1.84
9988.00,1.84
9987.00,1.84
9986.00,1.83
9985.00,1.83
9984.00,1.83
9983.00,1.83
9982.00,1.82
9981.00,1.82
9980.00,1.82
9979.00,1.81
9978.00,1.81
9977.00,1.81
9976.00,1.81
9975.00,1.80
9974.00,1.80
9973.00,1.80
9972.00,1.80
9971.00,1.80
9970.00,1.81
9969.00,1.81
9968.00,1.81
9967.00,1.81
9966.00,1.81
9965.00,1.82
9964.00,1.82
9963.00,1.82
9962.00,1.83
9961.00,1.83
9960.00,1.83
9959.00,1.83
9958.00,1.84
9957.00,1.84
9956.00,1.84
9955.00,1.84
9954.00,1.84
9953.00,1.84
9952.00,1.84
9951.00,1.84
9950.00,1.84
9949.00,1.84
9948.00,1.84
9947.00,1.84
9946.00,1.83
9945.00,1.83
9944.00,1.83
9943.00,1.83
9942.00,1.83
9941.00,1.83
9940.00,1.82
9939.00,1.82
9938.00,1.82
9937.00,1.82
9936.00,1.82
9935.00,1.82
9934.00,1.83
9933.00,1.83
9932.00,1.83
9931.00,1.83
9930.00,1.83
9929.00,1.83
9928.00,1.83
9927.00,1.83
9926.00,1.83
9925.00,1.84
9924.00,1.84
9923.00,1.84
9922.00,1.84
9921.00,1.84
9920.00,1.84
9919.00,1.84
9918.00,1.84
9917.00,1.84
9916.00,1.84
9915.00,1.84
9914.00,1.84
9913.00,1.84
9912.00,1.84
9911.00,1.84
9910.00,1.84
9909.00,1.84
9908.00,1.84
9907.00,1.84
9906.00,1.84
9905.00,1.84
9904.00,1.84
9903.00,1.84
9902.00,1.83
9901.00,1.83
9900.00,1.83
9899.00,1.83
9898.00,1.83
9897.00,1.83
9896.00,1.83
9895.00,1.83
9894.00,1.83
9893.00,1.83
9892.00,1.83
9891.00,1.83
9890.00,1.83
9889.00,1.83
9888.00,1.83
9887.00,1.83
9886.00,1.83
9885.00,1.83
9884.00,1.83
9883.00,1.83
9882.00,1.83
9881.00,1.83
9880.00,1.83
9879.00,1.83
9878.00,1.83
9877.00,1.83
9876.00,1.83
9875.00,1.84
9874.00,1.84
9873.00,1.84
9872.00,1.84
9871.00,1.84
9870.00,1.84
9869.00,1.84
9868.00,1.84
9867.00,1.84
9866.00,1.84
9865.00,1.83
9864.00,1.83
9863.00,1.83
9862.00,1.83
9861.00,1.83
9860.00,1.83
9859.00,1.83
9858.00,1.82
9857.00,1.82
9856.00,1.82
9855.00,1.81
9854.00,1.81
9853.00,1.81
9852.00,1.80
9851.00,1.80
9850.00,1.80
9849.00,1.80
9848.00,1.80
9847.00,1.80
9846.00,1.80
9845.00,1.80
9844.00,1.80
9843.00,1.80
9842.00,1.80
9841.00,1.80
9840.00,1.81
9839.00,1.81
9838.00,1.81
9837.00,1.81
9836.00,1.82
9835.00,1.82
9834.00,1.82
9833.00,1.82
9832.00,1.83
9831.00,1.83
9830.00,1.83
9829.00,1.83
9828.00,1.83
9827.00,1.83
9826.00,1.82
9825.00,1.82
9824.00,1.82
9823.00,1.82
9822.00,1.81
9821.00,1.81
9820.00,1.81
9819.00,1.80
9818.00,1.80
9817.00,1.80
9816.00,1.79
9815.00,1.79
9814.00,1.79
9813.00,1.78
9812.00,1.78
9811.00,1.78
9810.00,1.78
9809.00,1.78
9808.00,1.78
9807.00,1.78
9806.00,1.78
9805.00,1.78
9804.00,1.78
9803.00,1.78
9802.00,1.79
9801.00,1.79
9800.00,1.79
9799.00,1.79
9798.00,1.80
9797.00,1.80
9796.00,1.80
9795.00,1.80
9794.00,1.81
9793.00,1.81
9792.00,1.81
9791.00,1.81
9790.00,1.81
9789.00,1.81
9788.00,1.81
9787.00,1.82
9786.00,1.82
9785.00,1.82
9784.00,1.82
9783.00,1.82
9782.00,1.82
9781.00,1.82
9780.00,1.82
9779.00,1.82
9778.00,1.82
9777.00,1.82
9776.00,1.82
9775.00,1.82
9774.00,1.82
9773.00,1.83
9772.00,1.83
9771.00,1.83
9770.00,1.83
9769.00,1.83
9768.00,1.83
9767.00,1.84
9766.00,1.84
9765.00,1.84
9764.00,1.84
9763.00,1.84
9762.00,1.84
9761.00,1.84
9760.00,1.84
9759.00,1.84
9758.00,1.84
9757.00,1.84
9756.00,1.84
9755.00,1.83
9754.00,1.83
9753.00,1.83
9752.00,1.83
9751.00,1.83
9750.00,1.82
9749.00,1.82
9748.00,1.82
9747.00,1.82
9746.00,1.82
9745.00,1.82
9744.00,1.81
9743.00,1.81
9742.00,1.81
9741.00,1.81
9740.00,1.81
9739.00,1.81
9738.00,1.81
9737.00,1.81
9736.00,1.81
9735.00,1.81
9734.00,1.81
9733.00,1.81
9732.00,1.81
9731.00,1.81
9730.00,1.81
9729.00,1.81
9728.00,1.81
9727.00,1.81
9726.00,1.81
9725.00,1.81
9724.00,1.81
9723.00,1.81
9722.00,1.81
9721.00,1.81
9720.00,1.81
9719.00,1.81
9718.00,1.81
9717.00,1.81
9716.00,1.82
9715.00,1.82
9714.00,1.82
9713.00,1.82
9712.00,1.82
9711.00,1.82
9710.00,1.82
9709.00,1.82
9708.00,1.82
9707.00,1.82
9706.00,1.82
9705.00,1.82
9704.00,1.82
9703.00,1.82
9702.00,1.82
9701.00,1.82
9700.00,1.82
9699.00,1.81
9698.00,1.81
9697.00,1.81
9696.00,1.81
9695.00,1.81
9694.00,1.81
9693.00,1.81
9692.00,1.81
9691.00,1.81
9690.00,1.81
9689.00,1.81
9688.00,1.82
9687.00,1.82
9686.00,1.82
9685.00,1.82
9684.00,1.82
9683.00,1.82
9682.00,1.82
9681.00,1.82
9680.00,1.82
9679.00,1.82
9678.00,1.82
9677.00,1.82
9676.00,1.82
9675.00,1.82
9674.00,1.82
9673.00,1.82
9672.00,1.82
9671.00,1.82
9670.00,1.82
9669.00,1.81
9668.00,1.81
9667.00,1.81
9666.00,1.81
9665.00,1.81
9664.00,1.81
9663.00,1.81
9662.00,1.81
9661.00,1.82
9660.00,1.82
9659.00,1.82
9658.00,1.82
9657.00,1.82
9656.00,1.82
9655.00,1.83
9654.00,1.83
9653.00,1.83
9652.00,1.83
9651.00,1.84
9650.00,1.84
9649.00,1.84
9648.00,1.84
9647.00,1.84
9646.00,1.84
9645.00,1.84
9644.00,1.84
9643.00,1.84
9642.00,1.84
9641.00,1.83
9640.00,1.83
9639.00,1.83
9638.00,1.83
9637.00,1.83
9636.00,1.82
9635.00,1.82
9634.00,1.82
9633.00,1.82
9632.00,1.82
9631.00,1.82
9630.00,1.82
9629.00,1.82
9628.00,1.82
9627.00,1.82
9626.00,1.82
9625.00,1.82
9624.00,1.83
9623.00,1.83
9622.00,1.83
9621.00,1.83
9620.00,1.83
9619.00,1.83
9618.00,1.83
9617.00,1.83
9616.00,1.83
9615.00,1.83
9614.00,1.83
9613.00,1.83
9612.00,1.83
9611.00,1.83
9610.00,1.83
9609.00,1.83
9608.00,1.83
9607.00,1.83
9606.00,1.83
9605.00,1.83
9604.00,1.83
9603.00,1.84
9602.00,1.84
9601.00,1.84
9600.00,1.84
9599.00,1.84
9598.00,1.84
9597.00,1.84
9596.00,1.84
9595.00,1.84
9594.00,1.84
9593.00,1.84
9592.00,1.84
9591.00,1.84
9590.00,1.84
9589.00,1.84
9588.00,1.83
9587.00,1.83
9586.00,1.83
9585.00,1.83
9584.00,1.83
9583.00,1.83
9582.00,1.82
9581.00,1.82
9580.00,1.82
9579.00,1.82
9578.00,1.81
9577.00,1.81
9576.00,1.81
9575.00,1.81
9574.00,1.81
9573.00,1.80
9572.00,1.80
9571.00,1.80
9570.00,1.80
9569.00,1.80
9568.00,1.79
9567.00,1.79
9566.00,1.79
9565.00,1.79
9564.00,1.79
9563.00,1.79
9562.00,1.79
9561.00,1.79
9560.00,1.79
9559.00,1.79
9558.00,1.80
9557.00,1.80
9556.00,1.80
9555.00,1.80
9554.00,1.81
9553.00,1.81
9552.00,1.81
9551.00,1.81
9550.00,1.81
9549.00,1.81
9548.00,1.81
9547.00,1.81
9546.00,1.81
9545.00,1.81
9544.00,1.81
9543.00,1.81
9542.00,1.81
9541.00,1.81
9540.00,1.81
9539.00,1.81
9538.00,1.80
9537.00,1.80
9536.00,1.80
9535.00,1.80
9534.00,1.80
9533.00,1.80
9532.00,1.80
9531.00,1.80
9530.00,1.80
9529.00,1.80
9528.00,1.80
9527.00,1.81
9526.00,1.81
9525.00,1.81
9524.00,1.81
9523.00,1.81
9522.00,1.81
9521.00,1.81
9520.00,1.81
9519.00,1.80
9518.00,1.80
9517.00,1.80
9516.00,1.80
9515.00,1.80
9514.00,1.80
9513.00,1.79
9512.00,1.79
9511.00,1.79
9510.00,1.79
9509.00,1.79
9508.00,1.79
9507.00,1.79
9506.00,1.79
9505.00,1.79
9504.00,1.79
9503.00,1.79
9502.00,1.79
9501.00,1.79
9500.00,1.79
9499.00,1.79
9498.00,1.79
9497.00,1.79
9496.00,1.79
9495.00,1.79
9494.00,1.79
9493.00,1.80
9492.00,1.80
9491.00,1.80
9490.00,1.80
9489.00,1.80
9488.00,1.80
9487.00,1.81
9486.00,1.81
9485.00,1.81
9484.00,1.81
9483.00,1.81
9482.00,1.81
9481.00,1.81
9480.00,1.81
9479.00,1.82
9478.00,1.82
9477.00,1.82
9476.00,1.82
9475.00,1.82
9474.00,1.82
9473.00,1.82
9472.00,1.82
9471.00,1.82
9470.00,1.82
9469.00,1.82
9468.00,1.82
9467.00,1.82
9466.00,1.83
9465.00,1.83
9464.00,1.83
9463.00,1.83
9462.00,1.83
9461.00,1.83
9460.00,1.83
9459.00,1.83
9458.00,1.83
9457.00,1.83
9456.00,1.83
9455.00,1.82
9454.00,1.82
9453.00,1.82
9452.00,1.82
9451.00,1.82
9450.00,1.82
9449.00,1.82
9448.00,1.82
9447.00,1.82
9446.00,1.81
9445.00,1.81
9444.00,1.81
9443.00,1.81
9442.00,1.81
9441.00,1.81
9440.00,1.81
9439.00,1.80
9438.00,1.80
9437.00,1.80
9436.00,1.80
9435.00,1.80
9434.00,1.80
9433.00,1.80
9432.00,1.79
9431.00,1.79
9430.00,1.79
9429.00,1.79
9428.00,1.79
9427.00,1.79
9426.00,1.79
9425.00,1.79
9424.00,1.79
9423.00,1.79
9422.00,1.79
9421.00,1.79
9420.00,1.79
9419.00,1.79
9418.00,1.80
9417.00,1.80
9416.00,1.80
9415.00,1.80
9414.00,1.80
9413.00,1.80
9412.00,1.80
9411.00,1.80
9410.00,1.80
9409.00,1.80
9408.00,1.80
9407.00,1.81
9406.00,1.81
9405.00,1.81
9404.00,1.81
9403.00,1.81
9402.00,1.82
9401.00,1.82
9400.00,1.82
9399.00,1.82
9398.00,1.82
9397.00,1.82
9396.00,1.82
9395.00,1.82
9394.00,1.82
9393.00,1.83
9392.00,1.83
9391.00,1.83
9390.00,1.83
9389.00,1.82
9388.00,1.82
9387.00,1.82
9386.00,1.82
9385.00,1.82
9384.00,1.82
9383.00,1.82
9382.00,1.82
9381.00,1.82
9380.00,1.82
9379.00,1.82
9378.00,1.82
9377.00,1.81
9376.00,1.81
9375.00,1.81
9374.00,1.81
9373.00,1.81
9372.00,1.81
9371.00,1.81
9370.00,1.81
9369.00,1.81
9368.00,1.81
9367.00,1.81
9366.00,1.81
9365.00,1.81
9364.00,1.81
9363.00,1.81
9362.00,1.81
9361.00,1.81
9360.00,1.81
9359.00,1.81
9358.00,1.81
9357.00,1.81
9356.00,1.81
9355.00,1.81
9354.00,1.81
9353.00,1.81
9352.00,1.81
9351.00,1.81
9350.00,1.81
9349.00,1.81
9348.00,1.81
9347.00,1.82
9346.00,1.82
9345.00,1.82
9344.00,1.82
9343.00,1.82
9342.00,1.82
9341.00,1.82
9340.00,1.82
9339.00,1.82
9338.00,1.82
9337.00,1.82
9336.00,1.82
9335.00,1.82
9334.00,1.82
9333.00,1.81
9332.00,1.81
9331.00,1.81
9330.00,1.81
9329.00,1.81
9328.00,1.81
9327.00,1.81
9326.00,1.81
9325.00,1.80
9324.00,1.80
9323.00,1.80
9322.00,1.80
9321.00,1.80
9320.00,1.80
9319.00,1.80
9318.00,1.80
9317.00,1.80
9316.00,1.80
9315.00,1.81
9314.00,1.81
9313.00,1.81
9312.00,1.81
9311.00,1.81
9310.00,1.81
9309.00,1.81
9308.00,1.81
9307.00,1.81
9306.00,1.81
9305.00,1.81
9304.00,1.81
9303.00,1.81
9302.00,1.81
9301.00,1.80
9300.00,1.80
9299.00,1.80
9298.00,1.80
9297.00,1.79
9296.00,1.79
9295.00,1.79
9294.00,1.79
9293.00,1.79
9292.00,1.79
9291.00,1.79
9290.00,1.79
9289.00,1.79
9288.00,1.79
9287.00,1.79
9286.00,1.79
9285.00,1.79
9284.00,1.80
9283.00,1.80
9282.00,1.80
9281.00,1.80
9280.00,1.81
9279.00,1.81
9278.00,1.81
9277.00,1.82
9276.00,1.82
9275.00,1.82
9274.00,1.82
9273.00,1.82
9272.00,1.82
9271.00,1.83
9270.00,1.83
9269.00,1.83
9268.00,1.83
9267.00,1.83
9266.00,1.83
9265.00,1.83
9264.00,1.83
9263.00,1.83
9262.00,1.83
9261.00,1.83
9260.00,1.83
9259.00,1.83
9258.00,1.83
9257.00,1.83
9256.00,1.83
9255.00,1.83
9254.00,1.83
9253.00,1.83
9252.00,1.83
9251.00,1.83
9250.00,1.83
9249.00,1.83
9248.00,1.83
9247.00,1.83
9246.00,1.83
9245.00,1.83
9244.00,1.83
9243.00,1.83
9242.00,1.83
9241.00,1.83
9240.00,1.83
9239.00,1.83
9238.00,1.83
9237.00,1.83
9236.00,1.83
9235.00,1.83
9234.00,1.83
9233.00,1.83
9232.00,1.83
9231.00,1.83
9230.00,1.83
9229.00,1.83
9228.00,1.83
9227.00,1.83
9226.00,1.83
9225.00,1.83
9224.00,1.83
9223.00,1.83
9222.00,1.82
9221.00,1.82
9220.00,1.82
9219.00,1.82
9218.00,1.82
9217.00,1.82
9216.00,1.82
9215.00,1.82
9214.00,1.82
9213.00,1.81
9212.00,1.81
9211.00,1.81
9210.00,1.81
9209.00,1.81
9208.00,1.81
9207.00,1.81
9206.00,1.82
9205.00,1.82
9204.00,1.82
9203.00,1.82
9202.00,1.82
9201.00,1.82
9200.00,1.82
9199.00,1.82
9198.00,1.82
9197.00,1.82
9196.00,1.82
9195.00,1.82
9194.00,1.82
9193.00,1.82
9192.00,1.82
9191.00,1.82
9190.00,1.82
9189.00,1.82
9188.00,1.82
9187.00,1.82
9186.00,1.81
9185.00,1.81
9184.00,1.81
9183.00,1.81
9182.00,1.81
9181.00,1.81
9180.00,1.81
9179.00,1.81
9178.00,1.81
9177.00,1.81
9176.00,1.81
9175.00,1.81
9174.00,1.81
9173.00,1.81
9172.00,1.81
9171.00,1.81
9170.00,1.81
9169.00,1.81
9168.00,1.81
9167.00,1.80
9166.00,1.80
9165.00,1.80
9164.00,1.80
9163.00,1.80
9162.00,1.80
9161.00,1.80
9160.00,1.79
9159.00,1.79
9158.00,1.79
9157.00,1.79
9156.00,1.79
9155.00,1.79
9154.00,1.79
9153.00,1.79
9152.00,1.78
9151.00,1.78
9150.00,1.78
9149.00,1.79
9148.00,1.79
9147.00,1.79
9146.00,1.79
9145.00,1.79
9144.00,1.79
9143.00,1.79
9142.00,1.80
9141.00,1.80
9140.00,1.80
9139.00,1.81
9138.00,1.81
9137.00,1.81
9136.00,1.81
9135.00,1.82
9134.00,1.82
9133.00,1.82
9132.00,1.82
9131.00,1.82
9130.00,1.82
9129.00,1.82
9128.00,1.83
9127.00,1.83
9126.00,1.83
9125.00,1.83
9124.00,1.83
9123.00,1.82
9122.00,1.82
9121.00,1.82
9120.00,1.82
9119.00,1.82
9118.00,1.82
9117.00,1.82
9116.00,1.81
9115.00,1.81
9114.00,1.81
9113.00,1.81
9112.00,1.81
9111.00,1.81
9110.00,1.80
9109.00,1.80
9108.00,1.80
9107.00,1.80
9106.00,1.80
9105.00,1.80
9104.00,1.80
9103.00,1.80
9102.00,1.80
9101.00,1.80
9100.00,1.80
9099.00,1.80
9098.00,1.80
9097.00,1.80
9096.00,1.80
9095.00,1.80
9094.00,1.80
9093.00,1.80
9092.00,1.80
9091.00,1.80
9090.00,1.80
9089.00,1.80
9088.00,1.80
9087.00,1.80
9086.00,1.81
9085.00,1.81
9084.00,1.81
9083.00,1.81
9082.00,1.81
9081.00,1.81
9080.00,1.81
9079.00,1.81
9078.00,1.81
9077.00,1.81
9076.00,1.81
9075.00,1.81
9074.00,1.81
9073.00,1.81
9072.00,1.81
9071.00,1.81
9070.00,1.81
9069.00,1.81
9068.00,1.81
9067.00,1.81
9066.00,1.81
9065.00,1.81
9064.00,1.81
9063.00,1.81
9062.00,1.81
9061.00,1.81
9060.00,1.81
9059.00,1.81
9058.00,1.81
9057.00,1.81
9056.00,1.81
9055.00,1.81
9054.00,1.81
9053.00,1.82
9052.00,1.82
9051.00,1.82
9050.00,1.82
9049.00,1.82
9048.00,1.82
9047.00,1.82
9046.00,1.82
9045.00,1.83
9044.00,1.83
9043.00,1.83
9042.00,1.83
9041.00,1.83
9040.00,1.83
9039.00,1.84
9038.00,1.84
9037.00,1.84
9036.00,1.84
9035.00,1.84
9034.00,1.84
9033.00,1.84
9032.00,1.84
9031.00,1.84
9030.00,1.84
9029.00,1.84
9028.00,1.84
9027.00,1.84
9026.00,1.84
9025.00,1.83
9024.00,1.83
9023.00,1.83
9022.00,1.83
9021.00,1.83
9020.00,1.82
9019.00,1.82
9018.00,1.82
9017.00,1.82
9016.00,1.82
9015.00,1.81
9014.00,1.81
9013.00,1.81
9012.00,1.81
9011.00,1.80
9010.00,1.80
9009.00,1.80
9008.00,1.80
9007.00,1.79
9006.00,1.79
9005.00,1.79
9004.00,1.79
9003.00,1.79
9002.00,1.79
9001.00,1.79
9000.00,1.79
8999.00,1.79
8998.00,1.79
8997.00,1.79
8996.00,1.80
8995.00,1.80
8994.00,1.80
8993.00,1.80
8992.00,1.80
8991.00,1.80
8990.00,1.81
8989.00,1.81
8988.00,1.81
8987.00,1.81
8986.00,1.81
8985.00,1.81
8984.00,1.81
8983.00,1.81
8982.00,1.81
8981.00,1.81
8980.00,1.81
8979.00,1.82
8978.00,1.82
8977.00,1.82
8976.00,1.82
8975.00,1.82
8974.00,1.82
8973.00,1.82
8972.00,1.82
8971.00,1.82
8970.00,1.82
8969.00,1.82
8968.00,1.82
8967.00,1.82
8966.00,1.82
8965.00,1.82
8964.00,1.82
8963.00,1.82
8962.00,1.82
8961.00,1.82
8960.00,1.82
8959.00,1.82
8958.00,1.82
8957.00,1.82
8956.00,1.82
8955.00,1.82
8954.00,1.82
8953.00,1.81
8952.00,1.81
8951.00,1.81
8950.00,1.81
8949.00,1.81
8948.00,1.80
8947.00,1.80
8946.00,1.80
8945.00,1.80
8944.00,1.80
8943.00,1.80
8942.00,1.80
8941.00,1.79
8940.00,1.79
8939.00,1.79
8938.00,1.79
8937.00,1.80
8936.00,1.80
8935.00,1.80
8934.00,1.80
8933.00,1.80
8932.00,1.80
8931.00,1.80
8930.00,1.80
8929.00,1.80
8928.00,1.80
8927.00,1.81
8926.00,1.81
8925.00,1.81
8924.00,1.81
8923.00,1.81
8922.00,1.81
8921.00,1.81
8920.00,1.81
8919.00,1.81
8918.00,1.81
8917.00,1.81
8916.00,1.81
8915.00,1.81
8914.00,1.81
8913.00,1.81
8912.00,1.81
8911.00,1.81
8910.00,1.81
8909.00,1.81
8908.00,1.81
8907.00,1.81
8906.00,1.81
8905.00,1.81
8904.00,1.81
8903.00,1.81
8902.00,1.81
8901.00,1.81
8900.00,1.81
8899.00,1.81
8898.00,1.81
8897.00,1.81
8896.00,1.81
8895.00,1.81
8894.00,1.81
8893.00,1.81
8892.00,1.81
8891.00,1.81
8890.00,1.81
8889.00,1.81
8888.00,1.81
8887.00,1.81
8886.00,1.81
8885.00,1.81
8884.00,1.82
8883.00,1.82
8882.00,1.82
8881.00,1.82
8880.00,1.82
8879.00,1.82
8878.00,1.82
8877.00,1.82
8876.00,1.82
8875.00,1.82
8874.00,1.82
8873.00,1.82
8872.00,1.82
8871.00,1.82
8870.00,1.82
8869.00,1.82
8868.00,1.82
8867.00,1.82
8866.00,1.82
8865.00,1.82
8864.00,1.82
8863.00,1.82
8862.00,1.82
8861.00,1.82
8860.00,1.82
8859.00,1.82
8858.00,1.82
8857.00,1.82
8856.00,1.82
8855.00,1.82
8854.00,1.82
8853.00,1.82
8852.00,1.82
8851.00,1.81
8850.00,1.81
8849.00,1.81
8848.00,1.81
8847.00,1.81
8846.00,1.81
8845.00,1.81
8844.00,1.81
8843.00,1.81
8842.00,1.81
8841.00,1.81
8840.00,1.80
8839.00,1.80
8838.00,1.80
8837.00,1.80
8836.00,1.80
8835.00,1.80
8834.00,1.80
8833.00,1.80
8832.00,1.80
8831.00,1.80
8830.00,1.80
8829.00,1.80
8828.00,1.80
8827.00,1.80
8826.00,1.80
8825.00,1.80
8824.00,1.79
8823.00,1.79
8822.00,1.79
8821.00,1.79
8820.00,1.79
8819.00,1.79
8818.00,1.79
8817.00,1.78
8816.00,1.78
8815.00,1.78
8814.00,1.78
8813.00,1.78
8812.00,1.78
8811.00,1.78
8810.00,1.78
8809.00,1.78
8808.00,1.78
8807.00,1.78
8806.00,1.78
8805.00,1.78
8804.00,1.78
8803.00,1.78
8802.00,1.78
8801.00,1.78
8800.00,1.78
8799.00,1.78
8798.00,1.78
8797.00,1.78
8796.00,1.78
8795.00,1.78
8794.00,1.78
8793.00,1.78
8792.00,1.78
8791.00,1.78
8790.00,1.78
8789.00,1.78
8788.00,1.78
8787.00,1.78
8786.00,1.78
8785.00,1.78
8784.00,1.78
8783.00,1.78
8782.00,1.78
8781.00,1.78
8780.00,1.78
8779.00,1.78
8778.00,1.78
8777.00,1.78
8776.00,1.78
8775.00,1.78
8774.00,1.78
8773.00,1.78
8772.00,1.77
8771.00,1.77
8770.00,1.77
8769.00,1.77
8768.00,1.77
8767.00,1.77
8766.00,1.77
8765.00,1.77
8764.00,1.77
8763.00,1.77
8762.00,1.77
8761.00,1.76
8760.00,1.76
8759.00,1.76
8758.00,1.76
8757.00,1.76
8756.00,1.76
8755.00,1.76
8754.00,1.75
8753.00,1.75
8752.00,1.75
8751.00,1.75
8750.00,1.75
8749.00,1.75
8748.00,1.74
8747.00,1.74
8746.00,1.74
8745.00,1.74
8744.00,1.74
8743.00,1.74
8742.00,1.73
8741.00,1.73
8740.00,1.73
8739.00,1.73
8738.00,1.73
8737.00,1.73
8736.00,1.73
8735.00,1.73
8734.00,1.72
8733.00,1.72
8732.00,1.72
8731.00,1.72
8730.00,1.72
8729.00,1.72
8728.00,1.72
8727.00,1.72
8726.00,1.72
8725.00,1.72
8724.00,1.72
8723.00,1.72
8722.00,1.73
8721.00,1.73
8720.00,1.73
8719.00,1.73
8718.00,1.73
8717.00,1.73
8716.00,1.73
8715.00,1.73
8714.00,1.73
8713.00,1.73
8712.00,1.73
8711.00,1.73
8710.00,1.73
8709.00,1.72
8708.00,1.72
8707.00,1.72
8706.00,1.72
8705.00,1.72
8704.00,1.72
8703.00,1.72
8702.00,1.72
8701.00,1.72
8700.00,1.72
8699.00,1.72
8698.00,1.72
8697.00,1.72
8696.00,1.72
8695.00,1.71
8694.00,1.71
8693.00,1.71
8692.00,1.71
8691.00,1.71
8690.00,1.71
8689.00,1.71
8688.00,1.71
8687.00,1.71
8686.00,1.71
8685.00,1.72
8684.00,1.72
8683.00,1.72
8682.00,1.72
8681.00,1.72
8680.00,1.72
8679.00,1.72
8678.00,1.72
8677.00,1.72
8676.00,1.72
8675.00,1.72
8674.00,1.72
8673.00,1.72
8672.00,1.72
8671.00,1.72
8670.00,1.72
8669.00,1.72
8668.00,1.72
8667.00,1.72
8666.00,1.72
8665.00,1.72
8664.00,1.72
8663.00,1.72
8662.00,1.72
8661.00,1.72
8660.00,1.71
8659.00,1.71
8658.00,1.72
8657.00,1.72
8656.00,1.72
8655.00,1.72
8654.00,1.72
8653.00,1.72
8652.00,1.72
8651.00,1.72
8650.00,1.72
8649.00,1.72
8648.00,1.73
8647.00,1.73
8646.00,1.73
8645.00,1.73
8644.00,1.73
8643.00,1.73
8642.00,1.73
8641.00,1.72
8640.00,1.72
8639.00,1.72
8638.00,1.72
8637.00,1.72
8636.00,1.71
8635.00,1.71
8634.00,1.71
8633.00,1.71
8632.00,1.70
8631.00,1.70
8630.00,1.70
8629.00,1.70
8628.00,1.70
8627.00,1.69
8626.00,1.69
8625.00,1.69
8624.00,1.69
8623.00,1.69
8622.00,1.69
8621.00,1.69
8620.00,1.68
8619.00,1.68
8618.00,1.68
8617.00,1.68
8616.00,1.68
8615.00,1.68
8614.00,1.68
8613.00,1.68
8612.00,1.68
8611.00,1.68
8610.00,1.68
8609.00,1.68
8608.00,1.68
8607.00,1.68
8606.00,1.67
8605.00,1.67
8604.00,1.67
8603.00,1.67
8602.00,1.67
8601.00,1.67
8600.00,1.67
8599.00,1.67
8598.00,1.67
8597.00,1.67
8596.00,1.67
8595.00,1.67
8594.00,1.67
8593.00,1.67
8592.00,1.67
8591.00,1.67
8590.00,1.67
8589.00,1.67
8588.00,1.67
8587.00,1.67
8586.00,1.67
8585.00,1.67
8584.00,1.67
8583.00,1.66
8582.00,1.66
8581.00,1.66
8580.00,1.66
8579.00,1.66
8578.00,1.66
8577.00,1.66
8576.00,1.66
8575.00,1.66
8574.00,1.65
8573.00,1.65
8572.00,1.65
8571.00,1.65
8570.00,1.65
8569.00,1.65
8568.00,1.65
8567.00,1.65
8566.00,1.65
8565.00,1.65
8564.00,1.65
8563.00,1.65
8562.00,1.65
8561.00,1.66
8560.00,1.66
8559.00,1.66
8558.00,1.66
8557.00,1.66
8556.00,1.66
8555.00,1.66
8554.00,1.66
8553.00,1.67
8552.00,1.67
8551.00,1.67
8550.00,1.67
8549.00,1.67
8548.00,1.67
8547.00,1.67
8546.00,1.67
8545.00,1.67
8544.00,1.66
8543.00,1.66
8542.00,1.66
8541.00,1.66
8540.00,1.66
8539.00,1.66
8538.00,1.65
8537.00,1.65
8536.00,1.65
8535.00,1.65
8534.00,1.65
8533.00,1.65
8532.00,1.65
8531.00,1.65
8530.00,1.65
8529.00,1.64
8528.00,1.64
8527.00,1.64
8526.00,1.64
8525.00,1.64
8524.00,1.64
8523.00,1.64
8522.00,1.64
8521.00,1.64
8520.00,1.64
8519.00,1.64
8518.00,1.64
8517.00,1.63
8516.00,1.63
8515.00,1.63
8514.00,1.63
8513.00,1.63
8512.00,1.62
8511.00,1.62
8510.00,1.62
8509.00,1.62
8508.00,1.62
8507.00,1.61
8506.00,1.61
8505.00,1.61
8504.00,1.61
8503.00,1.61
8502.00,1.61
8501.00,1.60
8500.00,1.60
8499.00,1.60
8498.00,1.60
8497.00,1.60
8496.00,1.60
8495.00,1.60
8494.00,1.60
8493.00,1.60
8492.00,1.60
8491.00,1.60
8490.00,1.60
8489.00,1.60
8488.00,1.60
8487.00,1.60
8486.00,1.60
8485.00,1.60
8484.00,1.59
8483.00,1.59
8482.00,1.59
8481.00,1.59
8480.00,1.59
8479.00,1.59
8478.00,1.59
8477.00,1.59
8476.00,1.59
8475.00,1.59
8474.00,1.58
8473.00,1.58
8472.00,1.58
8471.00,1.58
8470.00,1.58
8469.00,1.58
8468.00,1.58
8467.00,1.58
8466.00,1.58
8465.00,1.57
8464.00,1.57
8463.00,1.57
8462.00,1.57
8461.00,1.57
8460.00,1.56
8459.00,1.56
8458.00,1.56
8457.00,1.56
8456.00,1.56
8455.00,1.56
8454.00,1.56
8453.00,1.56
8452.00,1.56
8451.00,1.56
8450.00,1.56
8449.00,1.56
8448.00,1.56
8447.00,1.56
8446.00,1.56
8445.00,1.56
8444.00,1.56
8443.00,1.56
8442.00,1.56
8441.00,1.56
8440.00,1.57
8439.00,1.57
8438.00,1.57
8437.00,1.57
8436.00,1.57
8435.00,1.57
8434.00,1.57
8433.00,1.57
8432.00,1.57
8431.00,1.57
8430.00,1.57
8429.00,1.57
8428.00,1.57
8427.00,1.57
8426.00,1.57
8425.00,1.57
8424.00,1.57
8423.00,1.57
8422.00,1.57
8421.00,1.57
8420.00,1.57
8419.00,1.57
8418.00,1.57
8417.00,1.57
8416.00,1.57
8415.00,1.57
8414.00,1.57
8413.00,1.57
8412.00,1.57
8411.00,1.57
8410.00,1.57
8409.00,1.57
8408.00,1.58
8407.00,1.58
8406.00,1.58
8405.00,1.58
8404.00,1.58
8403.00,1.59
8402.00,1.59
8401.00,1.59
8400.00,1.59
8399.00,1.60
8398.00,1.60
8397.00,1.60
8396.00,1.60
8395.00,1.61
8394.00,1.61
8393.00,1.61
8392.00,1.61
8391.00,1.61
8390.00,1.61
8389.00,1.62
8388.00,1.62
8387.00,1.62
8386.00,1.62
8385.00,1.62
8384.00,1.62
8383.00,1.62
8382.00,1.62
8381.00,1.62
8380.00,1.62
8379.00,1.62
8378.00,1.62
8377.00,1.62
8376.00,1.62
8375.00,1.62
8374.00,1.62
8373.00,1.62
8372.00,1.62
8371.00,1.62
8370.00,1.62
8369.00,1.62
8368.00,1.62
8367.00,1.62
8366.00,1.62
8365.00,1.62
8364.00,1.62
8363.00,1.62
8362.00,1.62
8361.00,1.62
8360.00,1.62
8359.00,1.62
8358.00,1.62
8357.00,1.63
8356.00,1.63
8355.00,1.63
8354.00,1.63
8353.00,1.63
8352.00,1.63
8351.00,1.63
8350.00,1.63
8349.00,1.63
8348.00,1.63
8347.00,1.63
8346.00,1.62
8345.00,1.62
8344.00,1.62
8343.00,1.62
8342.00,1.62
8341.00,1.62
8340.00,1.62
8339.00,1.62
8338.00,1.62
8337.00,1.62
8336.00,1.62
8335.00,1.62
8334.00,1.62
8333.00,1.62
8332.00,1.62
8331.00,1.62
8330.00,1.62
8329.00,1.62
8328.00,1.63
8327.00,1.63
8326.00,1.63
8325.00,1.63
8324.00,1.63
8323.00,1.63
8322.00,1.63
8321.00,1.63
8320.00,1.63
8319.00,1.64
8318.00,1.64
8317.00,1.64
8316.00,1.64
8315.00,1.64
8314.00,1.64
8313.00,1.64
8312.00,1.64
8311.00,1.64
8310.00,1.64
8309.00,1.64
8308.00,1.64
8307.00,1.64
8306.00,1.64
8305.00,1.64
8304.00,1.64
8303.00,1.63
8302.00,1.63
8301.00,1.63
8300.00,1.63
8299.00,1.63
8298.00,1.63
8297.00,1.63
8296.00,1.63
8295.00,1.63
8294.00,1.63
8293.00,1.63
8292.00,1.63
8291.00,1.63
8290.00,1.63
8289.00,1.63
8288.00,1.63
8287.00,1.63
8286.00,1.64
8285.00,1.64
8284.00,1.64
8283.00,1.64
8282.00,1.64
8281.00,1.64
8280.00,1.64
8279.00,1.65
8278.00,1.65
8277.00,1.65
8276.00,1.65
8275.00,1.65
8274.00,1.65
8273.00,1.65
8272.00,1.65
8271.00,1.65
8270.00,1.65
8269.00,1.65
8268.00,1.65
8267.00,1.65
8266.00,1.65
8265.00,1.65
8264.00,1.65
8263.00,1.65
8262.00,1.65
8261.00,1.65
8260.00,1.65
8259.00,1.65
8258.00,1.65
8257.00,1.65
8256.00,1.65
8255.00,1.65
8254.00,1.65
8253.00,1.65
8252.00,1.65
8251.00,1.65
8250.00,1.65
8249.00,1.65
8248.00,1.65
8247.00,1.65
8246.00,1.65
8245.00,1.65
8244.00,1.65
8243.00,1.65
8242.00,1.65
8241.00,1.65
8240.00,1.65
8239.00,1.65
8238.00,1.65
8237.00,1.65
8236.00,1.65
8235.00,1.65
8234.00,1.66
8233.00,1.66
8232.00,1.66
8231.00,1.66
8230.00,1.66
8229.00,1.66
8228.00,1.66
8227.00,1.66
8226.00,1.66
8225.00,1.66
8224.00,1.66
8223.00,1.66
8222.00,1.66
8221.00,1.66
8220.00,1.66
8219.00,1.66
8218.00,1.66
8217.00,1.67
8216.00,1.67
8215.00,1.67
8214.00,1.67
8213.00,1.67
8212.00,1.67
8211.00,1.67
8210.00,1.67
8209.00,1.67
8208.00,1.67
8207.00,1.67
8206.00,1.67
8205.00,1.67
8204.00,1.68
8203.00,1.68
8202.00,1.68
8201.00,1.68
8200.00,1.68
8199.00,1.68
8198.00,1.68
8197.00,1.68
8196.00,1.69
8195.00,1.69
8194.00,1.69
8193.00,1.69
8192.00,1.69
8191.00,1.69
8190.00,1.69
8189.00,1.69
8188.00,1.69
8187.00,1.69
8186.00,1.69
8185.00,1.69
8184.00,1.69
8183.00,1.69
8182.00,1.68
8181.00,1.68
8180.00,1.68
8179.00,1.68
8178.00,1.68
8177.00,1.68
8176.00,1.68
8175.00,1.68
8174.00,1.68
8173.00,1.68
8172.00,1.68
8171.00,1.68
8170.00,1.68
8169.00,1.68
8168.00,1.68
8167.00,1.68
8166.00,1.68
8165.00,1.68
8164.00,1.68
8163.00,1.69
8162.00,1.69
8161.00,1.69
8160.00,1.69
8159.00,1.69
8158.00,1.69
8157.00,1.69
8156.00,1.69
8155.00,1.70
8154.00,1.70
8153.00,1.70
8152.00,1.70
8151.00,1.70
8150.00,1.70
8149.00,1.70
8148.00,1.70
8147.00,1.70
8146.00,1.71
8145.00,1.71
8144.00,1.71
8143.00,1.71
8142.00,1.71
8141.00,1.71
8140.00,1.71
8139.00,1.71
8138.00,1.71
8137.00,1.71
8136.00,1.71
8135.00,1.71
8134.00,1.71
8133.00,1.71
8132.00,1.71
8131.00,1.71
8130.00,1.71
8129.00,1.71
8128.00,1.71
8127.00,1.71
8126.00,1.71
8125.00,1.71
8124.00,1.71
8123.00,1.71
8122.00,1.72
8121.00,1.72
8120.00,1.72
8119.00,1.72
8118.00,1.72
8117.00,1.72
8116.00,1.72
8115.00,1.72
8114.00,1.72
8113.00,1.72
8112.00,1.72
8111.00,1.72
8110.00,1.72
8109.00,1.72
8108.00,1.73
8107.00,1.73
8106.00,1.73
8105.00,1.73
8104.00,1.73
8103.00,1.73
8102.00,1.73
8101.00,1.73
8100.00,1.73
8099.00,1.73
8098.00,1.73
8097.00,1.74
8096.00,1.74
8095.00,1.74
8094.00,1.74
8093.00,1.74
8092.00,1.74
8091.00,1.74
8090.00,1.74
8089.00,1.74
8088.00,1.74
8087.00,1.74
8086.00,1.73
8085.00,1.73
8084.00,1.73
8083.00,1.73
8082.00,1.73
8081.00,1.73
8080.00,1.73
8079.00,1.73
8078.00,1.73
8077.00,1.73
8076.00,1.73
8075.00,1.73
8074.00,1.74
8073.00,1.74
8072.00,1.74
8071.00,1.74
8070.00,1.74
8069.00,1.74
8068.00,1.74
8067.00,1.74
8066.00,1.75
8065.00,1.75
8064.00,1.75
8063.00,1.75
8062.00,1.75
8061.00,1.75
8060.00,1.75
8059.00,1.75
8058.00,1.75
8057.00,1.75
8056.00,1.75
8055.00,1.75
8054.00,1.75
8053.00,1.76
8052.00,1.76
8051.00,1.76
8050.00,1.76
8049.00,1.76
8048.00,1.76
8047.00,1.76
8046.00,1.76
8045.00,1.77
8044.00,1.77
8043.00,1.77
8042.00,1.77
8041.00,1.77
8040.00,1.77
8039.00,1.77
8038.00,1.77
8037.00,1.77
8036.00,1.77
8035.00,1.77
8034.00,1.77
8033.00,1.77
8032.00,1.77
8031.00,1.77
8030.00,1.77
8029.00,1.77
8028.00,1.77
8027.00,1.77
8026.00,1.77
8025.00,1.77
8024.00,1.77
8023.00,1.77
8022.00,1.77
8021.00,1.77
8020.00,1.77
8019.00,1.77
8018.00,1.77
8017.00,1.77
8016.00,1.77
8015.00,1.77
8014.00,1.77
8013.00,1.77
8012.00,1.77
8011.00,1.76
8010.00,1.76
8009.00,1.76
8008.00,1.76
8007.00,1.76
8006.00,1.76
8005.00,1.76
8004.00,1.76
8003.00,1.76
8002.00,1.76
8001.00,1.76
8000.00,1.76
7999.00,1.76
7998.00,1.76
7997.00,1.76
7996.00,1.76
7995.00,1.76
7994.00,1.76
7993.00,1.76
7992.00,1.76
7991.00,1.76
7990.00,1.76
7989.00,1.76
7988.00,1.77
7987.00,1.77
7986.00,1.77
7985.00,1.77
7984.00,1.77
7983.00,1.77
7982.00,1.77
7981.00,1.77
7980.00,1.77
7979.00,1.77
7978.00,1.77
7977.00,1.77
7976.00,1.77
7975.00,1.77
7974.00,1.77
7973.00,1.77
7972.00,1.77
7971.00,1.78
7970.00,1.78
7969.00,1.78
7968.00,1.78
7967.00,1.78
7966.00,1.78
7965.00,1.78
7964.00,1.78
7963.00,1.78
7962.00,1.78
7961.00,1.78
7960.00,1.78
7959.00,1.78
7958.00,1.78
7957.00,1.78
7956.00,1.78
7955.00,1.78
7954.00,1.78
7953.00,1.78
7952.00,1.78
7951.00,1.79
7950.00,1.79
7949.00,1.79
7948.00,1.79
7947.00,1.79
7946.00,1.79
7945.00,1.79
7944.00,1.79
7943.00,1.79
7942.00,1.79
7941.00,1.79
7940.00,1.79
7939.00,1.79
7938.00,1.79
7937.00,1.79
7936.00,1.79
7935.00,1.79
7934.00,1.79
7933.00,1.79
7932.00,1.79
7931.00,1.79
7930.00,1.79
7929.00,1.79
7928.00,1.79
7927.00,1.79
7926.00,1.79
7925.00,1.79
7924.00,1.79
7923.00,1.79
7922.00,1.79
7921.00,1.79
7920.00,1.80
7919.00,1.80
7918.00,1.80
7917.00,1.80
7916.00,1.80
7915.00,1.81
7914.00,1.81
7913.00,1.81
7912.00,1.81
7911.00,1.81
7910.00,1.81
7909.00,1.81
7908.00,1.81
7907.00,1.81
7906.00,1.81
7905.00,1.81
7904.00,1.81
7903.00,1.81
7902.00,1.81
7901.00,1.80
7900.00,1.80
7899.00,1.80
7898.00,1.80
7897.00,1.80
7896.00,1.80
7895.00,1.80
7894.00,1.80
7893.00,1.80
7892.00,1.80
7891.00,1.80
7890.00,1.80
7889.00,1.80
7888.00,1.80
7887.00,1.80
7886.00,1.80
7885.00,1.80
7884.00,1.80
7883.00,1.80
7882.00,1.80
7881.00,1.80
7880.00,1.80
7879.00,1.80
7878.00,1.80
7877.00,1.80
7876.00,1.80
7875.00,1.80
7874.00,1.80
7873.00,1.81
7872.00,1.81
7871.00,1.81
7870.00,1.81
7869.00,1.81
7868.00,1.81
7867.00,1.81
7866.00,1.81
7865.00,1.81
7864.00,1.81
7863.00,1.81
7862.00,1.81
7861.00,1.81
7860.00,1.81
7859.00,1.81
7858.00,1.81
7857.00,1.81
7856.00,1.81
7855.00,1.81
7854.00,1.81
7853.00,1.81
7852.00,1.81
7851.00,1.81
7850.00,1.81
7849.00,1.81
7848.00,1.81
7847.00,1.81
7846.00,1.81
7845.00,1.81
7844.00,1.81
7843.00,1.81
7842.00,1.81
7841.00,1.81
7840.00,1.81
7839.00,1.81
7838.00,1.81
7837.00,1.81
7836.00,1.81
7835.00,1.81
7834.00,1.81
7833.00,1.81
7832.00,1.81
7831.00,1.81
7830.00,1.82
7829.00,1.82
7828.00,1.82
7827.00,1.82
7826.00,1.82
7825.00,1.82
7824.00,1.82
7823.00,1.82
7822.00,1.82
7821.00,1.82
7820.00,1.82
7819.00,1.82
7818.00,1.82
7817.00,1.82
7816.00,1.82
7815.00,1.82
7814.00,1.82
7813.00,1.82
7812.00,1.82
7811.00,1.82
7810.00,1.82
7809.00,1.82
7808.00,1.82
7807.00,1.82
7806.00,1.82
7805.00,1.82
7804.00,1.82
7803.00,1.82
7802.00,1.82
7801.00,1.82
7800.00,1.82
7799.00,1.82
7798.00,1.82
7797.00,1.82
7796.00,1.82
7795.00,1.82
7794.00,1.82
7793.00,1.82
7792.00,1.82
7791.00,1.82
7790.00,1.82
7789.00,1.82
7788.00,1.82
7787.00,1.82
7786.00,1.82
7785.00,1.82
7784.00,1.82
7783.00,1.82
7782.00,1.82
7781.00,1.82
7780.00,1.82
7779.00,1.82
7778.00,1.82
7777.00,1.82
7776.00,1.82
7775.00,1.82
7774.00,1.82
7773.00,1.82
7772.00,1.82
7771.00,1.82
7770.00,1.82
7769.00,1.82
7768.00,1.82
7767.00,1.82
7766.00,1.82
7765.00,1.82
7764.00,1.82
7763.00,1.82
7762.00,1.82
7761.00,1.82
7760.00,1.82
7759.00,1.82
7758.00,1.82
7757.00,1.82
7756.00,1.82
7755.00,1.82
7754.00,1.82
7753.00,1.82
7752.00,1.82
7751.00,1.82
7750.00,1.82
7749.00,1.82
7748.00,1.82
7747.00,1.82
7746.00,1.83
7745.00,1.83
7744.00,1.83
7743.00,1.83
7742.00,1.83
7741.00,1.83
7740.00,1.83
7739.00,1.84
7738.00,1.84
7737.00,1.84
7736.00,1.84
7735.00,1.84
7734.00,1.84
7733.00,1.84
7732.00,1.84
7731.00,1.84
7730.00,1.84
7729.00,1.84
7728.00,1.84
7727.00,1.84
7726.00,1.84
7725.00,1.84
7724.00,1.84
7723.00,1.84
7722.00,1.84
7721.00,1.84
7720.00,1.83
7719.00,1.83
7718.00,1.83
7717.00,1.83
7716.00,1.83
7715.00,1.83
7714.00,1.83
7713.00,1.83
7712.00,1.83
7711.00,1.83
7710.00,1.83
7709.00,1.83
7708.00,1.83
7707.00,1.83
7706.00,1.83
7705.00,1.83
7704.00,1.83
7703.00,1.83
7702.00,1.83
7701.00,1.83
7700.00,1.83
7699.00,1.83
7698.00,1.83
7697.00,1.83
7696.00,1.83
7695.00,1.83
7694.00,1.83
7693.00,1.83
7692.00,1.83
7691.00,1.83
7690.00,1.83
7689.00,1.83
7688.00,1.83
7687.00,1.83
7686.00,1.83
7685.00,1.83
7684.00,1.83
7683.00,1.83
7682.00,1.83
7681.00,1.84
7680.00,1.84
7679.00,1.84
7678.00,1.84
7677.00,1.84
7676.00,1.84
7675.00,1.84
7674.00,1.84
7673.00,1.84
7672.00,1.84
7671.00,1.84
7670.00,1.84
7669.00,1.84
7668.00,1.84
7667.00,1.84
7666.00,1.84
7665.00,1.84
7664.00,1.84
7663.00,1.84
7662.00,1.84
7661.00,1.84
7660.00,1.84
7659.00,1.84
7658.00,1.84
7657.00,1.84
7656.00,1.84
7655.00,1.84
7654.00,1.84
7653.00,1.84
7652.00,1.84
7651.00,1.84
7650.00,1.84
7649.00,1.84
7648.00,1.84
7647.00,1.84
7646.00,1.84
7645.00,1.84
7644.00,1.84
7643.00,1.84
7642.00,1.84
7641.00,1.84
7640.00,1.84
7639.00,1.84
7638.00,1.84
7637.00,1.84
7636.00,1.84
7635.00,1.84
7634.00,1.84
7633.00,1.84
7632.00,1.84
7631.00,1.84
7630.00,1.84
7629.00,1.84
7628.00,1.84
7627.00,1.84
7626.00,1.84
7625.00,1.84
7624.00,1.84
7623.00,1.84
7622.00,1.84
7621.00,1.84
7620.00,1.84
7619.00,1.84
7618.00,1.84
7617.00,1.84
7616.00,1.84
7615.00,1.84
7614.00,1.84
7613.00,1.84
7612.00,1.84
7611.00,1.84
7610.00,1.84
7609.00,1.84
7608.00,1.84
7607.00,1.84
7606.00,1.84
7605.00,1.84
7604.00,1.84
7603.00,1.84
7602.00,1.84
7601.00,1.84
7600.00,1.84
7599.00,1.84
7598.00,1.84
7597.00,1.84
7596.00,1.84
7595.00,1.84
7594.00,1.84
7593.00,1.84
7592.00,1.84
7591.00,1.84
7590.00,1.84
7589.00,1.84
7588.00,1.84
7587.00,1.84
7586.00,1.83
7585.00,1.83
7584.00,1.83
7583.00,1.83
7582.00,1.83
7581.00,1.83
7580.00,1.83
7579.00,1.83
7578.00,1.83
7577.00,1.83
7576.00,1.83
7575.00,1.83
7574.00,1.83
7573.00,1.83
7572.00,1.83
7571.00,1.83
7570.00,1.83
7569.00,1.83
7568.00,1.83
7567.00,1.83
7566.00,1.83
7565.00,1.83
7564.00,1.83
7563.00,1.83
7562.00,1.83
7561.00,1.83
7560.00,1.83
7559.00,1.83
7558.00,1.83
7557.00,1.83
7556.00,1.82
7555.00,1.82
7554.00,1.82
7553.00,1.82
7552.00,1.82
7551.00,1.82
7550.00,1.82
7549.00,1.82
7548.00,1.82
7547.00,1.82
7546.00,1.82
7545.00,1.82
7544.00,1.82
7543.00,1.82
7542.00,1.82
7541.00,1.82
7540.00,1.82
7539.00,1.82
7538.00,1.82
7537.00,1.82
7536.00,1.82
7535.00,1.82
7534.00,1.82
7533.00,1.82
7532.00,1.82
7531.00,1.82
7530.00,1.82
7529.00,1.82
7528.00,1.82
7527.00,1.82
7526.00,1.82
7525.00,1.82
7524.00,1.82
7523.00,1.82
7522.00,1.82
7521.00,1.82
7520.00,1.82
7519.00,1.82
7518.00,1.82
7517.00,1.82
7516.00,1.82
7515.00,1.82
7514.00,1.82
7513.00,1.82
7512.00,1.82
7511.00,1.82
7510.00,1.82
7509.00,1.82
7508.00,1.81
7507.00,1.81
7506.00,1.81
7505.00,1.81
7504.00,1.81
7503.00,1.81
7502.00,1.81
7501.00,1.81
7500.00,1.81
7499.00,1.81
7498.00,1.81
7497.00,1.81
7496.00,1.80
7495.00,1.80
7494.00,1.80
7493.00,1.80
7492.00,1.80
7491.00,1.80
7490.00,1.80
7489.00,1.80
7488.00,1.80
7487.00,1.80
7486.00,1.80
7485.00,1.80
7484.00,1.80
7483.00,1.80
7482.00,1.80
7481.00,1.80
7480.00,1.80
7479.00,1.80
7478.00,1.80
7477.00,1.80
7476.00,1.79
7475.00,1.79
7474.00,1.79
7473.00,1.79
7472.00,1.79
7471.00,1.79
7470.00,1.79
7469.00,1.79
7468.00,1.79
7467.00,1.79
7466.00,1.78
7465.00,1.78
7464.00,1.78
7463.00,1.78
7462.00,1.78
7461.00,1.78
7460.00,1.78
7459.00,1.78
7458.00,1.78
7457.00,1.78
7456.00,1.77
7455.00,1.77
7454.00,1.77
7453.00,1.77
7452.00,1.77
7451.00,1.77
7450.00,1.77
7449.00,1.77
7448.00,1.77
7447.00,1.77
7446.00,1.77
7445.00,1.77
7444.00,1.77
7443.00,1.77
7442.00,1.76
7441.00,1.76
7440.00,1.76
7439.00,1.76
7438.00,1.76
7437.00,1.76
7436.00,1.76
7435.00,1.76
7434.00,1.75
7433.00,1.75
7432.00,1.75
7431.00,1.75
7430.00,1.75
7429.00,1.75
7428.00,1.75
7427.00,1.75
7426.00,1.75
7425.00,1.74
7424.00,1.74
7423.00,1.74
7422.00,1.74
7421.00,1.74
7420.00,1.74
7419.00,1.74
7418.00,1.74
7417.00,1.74
7416.00,1.73
7415.00,1.73
7414.00,1.73
7413.00,1.73
7412.00,1.73
7411.00,1.73
7410.00,1.73
7409.00,1.73
7408.00,1.73
7407.00,1.73
7406.00,1.72
7405.00,1.72
7404.00,1.72
7403.00,1.72
7402.00,1.72
7401.00,1.72
7400.00,1.71
7399.00,1.71
7398.00,1.71
7397.00,1.71
7396.00,1.70
7395.00,1.70
7394.00,1.70
7393.00,1.70
7392.00,1.69
7391.00,1.69
7390.00,1.69
7389.00,1.69
7388.00,1.68
7387.00,1.68
7386.00,1.68
7385.00,1.68
7384.00,1.68
7383.00,1.67
7382.00,1.67
7381.00,1.67
7380.00,1.67
7379.00,1.67
7378.00,1.67
7377.00,1.67
7376.00,1.67
7375.00,1.66
7374.00,1.66
7373.00,1.66
7372.00,1.66
7371.00,1.66
7370.00,1.66
7369.00,1.66
7368.00,1.66
7367.00,1.66
7366.00,1.66
7365.00,1.66
7364.00,1.66
7363.00,1.66
7362.00,1.66
7361.00,1.66
7360.00,1.66
7359.00,1.66
7358.00,1.66
7357.00,1.66
7356.00,1.66
7355.00,1.65
7354.00,1.65
7353.00,1.65
7352.00,1.65
7351.00,1.65
7350.00,1.65
7349.00,1.65
7348.00,1.65
7347.00,1.65
7346.00,1.65
7345.00,1.65
7344.00,1.64
7343.00,1.64
7342.00,1.64
7341.00,1.64
7340.00,1.64
7339.00,1.64
7338.00,1.64
7337.00,1.64
7336.00,1.64
7335.00,1.64
7334.00,1.64
7333.00,1.64
7332.00,1.64
7331.00,1.64
7330.00,1.64
7329.00,1.64
7328.00,1.64
7327.00,1.64
7326.00,1.64
7325.00,1.64
7324.00,1.63
7323.00,1.63
7322.00,1.63
7321.00,1.63
7320.00,1.63
7319.00,1.63
7318.00,1.63
7317.00,1.63
7316.00,1.63
7315.00,1.62
7314.00,1.62
7313.00,1.62
7312.00,1.62
7311.00,1.62
7310.00,1.62
7309.00,1.61
7308.00,1.61
7307.00,1.61
7306.00,1.61
7305.00,1.61
7304.00,1.60
7303.00,1.60
7302.00,1.60
7301.00,1.60
7300.00,1.60
7299.00,1.59
7298.00,1.59
7297.00,1.59
7296.00,1.59
7295.00,1.59
7294.00,1.59
7293.00,1.58
7292.00,1.58
7291.00,1.58
7290.00,1.58
7289.00,1.58
7288.00,1.58
7287.00,1.58
7286.00,1.58
7285.00,1.57
7284.00,1.57
7283.00,1.57
7282.00,1.57
7281.00,1.57
7280.00,1.57
7279.00,1.57
7278.00,1.57
7277.00,1.57
7276.00,1.56
7275.00,1.56
7274.00,1.56
7273.00,1.56
7272.00,1.56
7271.00,1.56
7270.00,1.56
7269.00,1.56
7268.00,1.56
7267.00,1.56
7266.00,1.56
7265.00,1.56
7264.00,1.56
7263.00,1.56
7262.00,1.56
7261.00,1.55
7260.00,1.55
7259.00,1.55
7258.00,1.55
7257.00,1.55
7256.00,1.55
7255.00,1.54
7254.00,1.54
7253.00,1.54
7252.00,1.53
7251.00,1.53
7250.00,1.53
7249.00,1.52
7248.00,1.52
7247.00,1.52
7246.00,1.51
7245.00,1.51
7244.00,1.51
7243.00,1.50
7242.00,1.50
7241.00,1.49
7240.00,1.49
7239.00,1.49
7238.00,1.48
7237.00,1.48
7236.00,1.47
7235.00,1.47
7234.00,1.47
7233.00,1.46
7232.00,1.46
7231.00,1.45
7230.00,1.45
7229.00,1.44
7228.00,1.44
7227.00,1.43
7226.00,1.43
7225.00,1.42
7224.00,1.42
7223.00,1.41
7222.00,1.41
7221.00,1.41
7220.00,1.40
7219.00,1.40
7218.00,1.39
7217.00,1.39
7216.00,1.39
7215.00,1.38
7214.00,1.38
7213.00,1.38
7212.00,1.37
7211.00,1.37
7210.00,1.37
7209.00,1.36
7208.00,1.36
7207.00,1.36
7206.00,1.35
7205.00,1.35
7204.00,1.35
7203.00,1.35
7202.00,1.34
7201.00,1.34
7200.00,1.33
7199.00,1.33
7198.00,1.33
7197.00,1.32
7196.00,1.32
7195.00,1.31
7194.00,1.31
7193.00,1.31
7192.00,1.30
7191.00,1.30
7190.00,1.29
7189.00,1.29
7188.00,1.28
7187.00,1.28
7186.00,1.27
7185.00,1.27
7184.00,1.26
7183.00,1.26
7182.00,1.25
7181.00,1.25
7180.00,1.24
7179.00,1.24
7178.00,1.23
7177.00,1.23
7176.00,1.22
7175.00,1.22
7174.00,1.21
7173.00,1.21
7172.00,1.21
7171.00,1.20
7170.00,1.20
7169.00,1.19
7168.00,1.19
7167.00,1.19
7166.00,1.18
7165.00,1.18
7164.00,1.18
7163.00,1.18
7162.00,1.17
7161.00,1.17
7160.00,1.17
7159.00,1.17
7158.00,1.17
7157.00,1.16
7156.00,1.16
7155.00,1.16
7154.00,1.16
7153.00,1.15
7152.00,1.15
7151.00,1.15
7150.00,1.14
7149.00,1.14
7148.00,1.13
7147.00,1.13
7146.00,1.12
7145.00,1.12
7144.00,1.11
7143.00,1.11
7142.00,1.10
7141.00,1.10
7140.00,1.09
7139.00,1.09
7138.00,1.09
7137.00,1.08
7136.00,1.08
7135.00,1.08
7134.00,1.07
7133.00,1.07
7132.00,1.07
7131.00,1.06
7130.00,1.06
7129.00,1.06
7128.00,1.06
7127.00,1.05
7126.00,1.05
7125.00,1.05
7124.00,1.05
7123.00,1.04
7122.00,1.04
7121.00,1.04
7120.00,1.04
7119.00,1.03
7118.00,1.03
7117.00,1.03
7116.00,1.02
7115.00,1.02
7114.00,1.02
7113.00,1.01
7112.00,1.01
7111.00,1.01
7110.00,1.00
7109.00,1.00
7108.00,1.00
7107.00,0.99
7106.00,0.99
7105.00,0.98
7104.00,0.98
7103.00,0.98
7102.00,0.97
7101.00,0.97
7100.00,0.97
7099.00,0.97
7098.00,0.96
7097.00,0.96
7096.00,0.96
7095.00,0.96
7094.00,0.95
7093.00,0.95
7092.00,0.95
7091.00,0.95
7090.00,0.95
7089.00,0.95
7088.00,0.94
7087.00,0.94
7086.00,0.94
7085.00,0.94
7084.00,0.94
7083.00,0.94
7082.00,0.93
7081.00,0.93
7080.00,0.93
7079.00,0.93
7078.00,0.93
7077.00,0.92
7076.00,0.92
7075.00,0.92
7074.00,0.92
7073.00,0.92
7072.00,0.91
7071.00,0.91
7070.00,0.91
7069.00,0.91
7068.00,0.91
7067.00,0.91
7066.00,0.90
7065.00,0.90
7064.00,0.90
7063.00,0.90
7062.00,0.90
7061.00,0.89
7060.00,0.89
7059.00,0.89
7058.00,0.89
7057.00,0.89
7056.00,0.88
7055.00,0.88
7054.00,0.88
7053.00,0.88
7052.00,0.88
7051.00,0.88
7050.00,0.87
7049.00,0.87
7048.00,0.87
7047.00,0.87
7046.00,0.87
7045.00,0.87
7044.00,0.87
7043.00,0.86
7042.00,0.86
7041.00,0.86
7040.00,0.86
7039.00,0.86
7038.00,0.85
7037.00,0.85
7036.00,0.85
7035.00,0.85
7034.00,0.85
7033.00,0.85
7032.00,0.85
7031.00,0.84
7030.00,0.84
7029.00,0.84
7028.00,0.84
7027.00,0.84
7026.00,0.84
7025.00,0.84
7024.00,0.84
7023.00,0.84
7022.00,0.84
7021.00,0.83
7020.00,0.83
7019.00,0.83
7018.00,0.83
7017.00,0.83
7016.00,0.83
7015.00,0.83
7014.00,0.82
7013.00,0.82
7012.00,0.82
7011.00,0.82
7010.00,0.82
7009.00,0.82
7008.00,0.81
7007.00,0.81
7006.00,0.81
7005.00,0.81
7004.00,0.81
7003.00,0.81
7002.00,0.80
7001.00,0.80
7000.00,0.80
6999.00,0.80
6998.00,0.80
6997.00,0.80
6996.00,0.80
6995.00,0.80
6994.00,0.80
6993.00,0.80
6992.00,0.80
6991.00,0.79
6990.00,0.79
6989.00,0.79
6988.00,0.79
6987.00,0.79
6986.00,0.79
6985.00,0.79
6984.00,0.79
6983.00,0.79
6982.00,0.78
6981.00,0.78
6980.00,0.78
6979.00,0.78
6978.00,0.78
6977.00,0.78
6976.00,0.78
6975.00,0.78
6974.00,0.78
6973.00,0.78
6972.00,0.78
6971.00,0.78
6970.00,0.78
6969.00,0.78
6968.00,0.78
6967.00,0.78
6966.00,0.78
6965.00,0.77
6964.00,0.77
6963.00,0.77
6962.00,0.77
6961.00,0.77
6960.00,0.77
6959.00,0.77
6958.00,0.77
6957.00,0.77
6956.00,0.76
6955.00,0.76
6954.00,0.76
6953.00,0.76
6952.00,0.76
6951.00,0.76
6950.00,0.76
6949.00,0.76
6948.00,0.76
6947.00,0.76
6946.00,0.76
6945.00,0.76
6944.00,0.76
6943.00,0.76
6942.00,0.76
6941.00,0.75
6940.00,0.75
6939.00,0.75
6938.00,0.75
6937.00,0.75
6936.00,0.75
6935.00,0.75
6934.00,0.75
6933.00,0.75
6932.00,0.75
6931.00,0.75
6930.00,0.75
6929.00,0.75
6928.00,0.75
6927.00,0.75
6926.00,0.75
6925.00,0.75
6924.00,0.75
6923.00,0.75
6922.00,0.75
6921.00,0.75
6920.00,0.75
6919.00,0.75
6918.00,0.75
6917.00,0.75
6916.00,0.75
6915.00,0.75
6914.00,0.75
6913.00,0.75
6912.00,0.75
6911.00,0.75
6910.00,0.75
6909.00,0.75
6908.00,0.75
6907.00,0.75
6906.00,0.75
6905.00,0.75
6904.00,0.75
6903.00,0.75
6902.00,0.75
6901.00,0.75
6900.00,0.75
6899.00,0.75
6898.00,0.75
6897.00,0.75
6896.00,0.75
6895.00,0.75
6894.00,0.75
6893.00,0.75
6892.00,0.75
6891.00,0.75
6890.00,0.75
6889.00,0.75
6888.00,0.75
6887.00,0.75
6886.00,0.75
6885.00,0.75
6884.00,0.75
6883.00,0.75
6882.00,0.75
6881.00,0.75
6880.00,0.75
6879.00,0.75
6878.00,0.74
6877.00,0.74
6876.00,0.74
6875.00,0.74
6874.00,0.74
6873.00,0.74
6872.00,0.74
6871.00,0.74
6870.00,0.74
6869.00,0.74
6868.00,0.74
6867.00,0.74
6866.00,0.74
6865.00,0.74
6864.00,0.74
6863.00,0.74
6862.00,0.74
6861.00,0.74
6860.00,0.74
6859.00,0.74
6858.00,0.74
6857.00,0.74
6856.00,0.74
6855.00,0.74
6854.00,0.74
6853.00,0.74
6852.00,0.74
6851.00,0.74
6850.00,0.74
6849.00,0.74
6848.00,0.74
6847.00,0.74
6846.00,0.74
6845.00,0.74
6844.00,0.74
6843.00,0.74
6842.00,0.74
6841.00,0.74
6840.00,0.74
6839.00,0.74
6838.00,0.74
6837.00,0.74
6836.00,0.74
6835.00,0.74
6834.00,0.74
6833.00,0.74
6832.00,0.74
6831.00,0.75
6830.00,0.75
6829.00,0.75
6828.00,0.75
6827.00,0.75
6826.00,0.75
6825.00,0.75
6824.00,0.75
6823.00,0.75
6822.00,0.75
6821.00,0.75
6820.00,0.75
6819.00,0.75
6818.00,0.75
6817.00,0.75
6816.00,0.75
6815.00,0.75
6814.00,0.75
6813.00,0.75
6812.00,0.75
6811.00,0.75
6810.00,0.75
6809.00,0.75
6808.00,0.75
6807.00,0.75
6806.00,0.75
6805.00,0.75
6804.00,0.75
6803.00,0.75
6802.00,0.75
6801.00,0.75
6800.00,0.75
6799.00,0.75
6798.00,0.76
6797.00,0.76
6796.00,0.76
6795.00,0.76
6794.00,0.76
6793.00,0.76
6792.00,0.76
6791.00,0.76
6790.00,0.76
6789.00,0.76
6788.00,0.76
6787.00,0.76
6786.00,0.76
6785.00,0.76
6784.00,0.76
6783.00,0.76
6782.00,0.76
6781.00,0.76
6780.00,0.76
6779.00,0.76
6778.00,0.76
6777.00,0.76
6776.00,0.76
6775.00,0.76
6774.00,0.76
6773.00,0.76
6772.00,0.77
6771.00,0.77
6770.00,0.77
6769.00,0.77
6768.00,0.77
6767.00,0.77
6766.00,0.77
6765.00,0.77
6764.00,0.78
6763.00,0.78
6762.00,0.78
6761.00,0.78
6760.00,0.78
6759.00,0.78
6758.00,0.78
6757.00,0.78
6756.00,0.78
6755.00,0.78
6754.00,0.78
6753.00,0.78
6752.00,0.78
6751.00,0.79
6750.00,0.79
6749.00,0.79
6748.00,0.79
6747.00,0.79
6746.00,0.79
6745.00,0.79
6744.00,0.79
6743.00,0.79
6742.00,0.79
6741.00,0.80
6740.00,0.80
6739.00,0.80
6738.00,0.80
6737.00,0.80
6736.00,0.80
6735.00,0.80
6734.00,0.80
6733.00,0.80
6732.00,0.80
6731.00,0.81
6730.00,0.81
6729.00,0.81
6728.00,0.81
6727.00,0.81
6726.00,0.81
6725.00,0.81
6724.00,0.81
6723.00,0.81
6722.00,0.81
6721.00,0.81
6720.00,0.81
6719.00,0.81
6718.00,0.82
6717.00,0.82
6716.00,0.82
6715.00,0.82
6714.00,0.82
6713.00,0.82
6712.00,0.82
6711.00,0.82
6710.00,0.82
6709.00,0.82
6708.00,0.82
6707.00,0.83
6706.00,0.83
6705.00,0.83
6704.00,0.83
6703.00,0.83
6702.00,0.83
6701.00,0.83
6700.00,0.83
6699.00,0.83
6698.00,0.83
6697.00,0.83
6696.00,0.84
6695.00,0.84
6694.00,0.84
6693.00,0.84
6692.00,0.84
6691.00,0.84
6690.00,0.84
6689.00,0.84
6688.00,0.84
6687.00,0.84
6686.00,0.85
6685.00,0.85
6684.00,0.85
6683.00,0.85
6682.00,0.85
6681.00,0.85
6680.00,0.85
6679.00,0.85
6678.00,0.85
6677.00,0.85
6676.00,0.85
6675.00,0.86
6674.00,0.86
6673.00,0.86
6672.00,0.86
6671.00,0.86
6670.00,0.86
6669.00,0.86
6668.00,0.87
6667.00,0.87
6666.00,0.87
6665.00,0.87
6664.00,0.87
6663.00,0.87
6662.00,0.87
6661.00,0.87
6660.00,0.88
6659.00,0.88
6658.00,0.88
6657.00,0.88
6656.00,0.88
6655.00,0.88
6654.00,0.88
6653.00,0.88
6652.00,0.88
6651.00,0.89
6650.00,0.89
6649.00,0.89
6648.00,0.89
6647.00,0.89
6646.00,0.89
6645.00,0.89
6644.00,0.90
6643.00,0.90
6642.00,0.90
6641.00,0.90
6640.00,0.90
6639.00,0.90
6638.00,0.90
6637.00,0.91
6636.00,0.91
6635.00,0.91
6634.00,0.91
6633.00,0.91
6632.00,0.91
6631.00,0.91
6630.00,0.91
6629.00,0.92
6628.00,0.92
6627.00,0.92
6626.00,0.92
6625.00,0.92
6624.00,0.92
6623.00,0.92
6622.00,0.92
6621.00,0.92
6620.00,0.92
6619.00,0.92
6618.00,0.92
6617.00,0.92
6616.00,0.92
6615.00,0.93
6614.00,0.93
6613.00,0.93
6612.00,0.93
6611.00,0.93
6610.00,0.93
6609.00,0.93
6608.00,0.93
6607.00,0.93
6606.00,0.94
6605.00,0.94
6604.00,0.94
6603.00,0.94
6602.00,0.94
6601.00,0.94
6600.00,0.94
6599.00,0.94
6598.00,0.94
6597.00,0.94
6596.00,0.95
6595.00,0.95
6594.00,0.95
6593.00,0.95
6592.00,0.95
6591.00,0.95
6590.00,0.95
6589.00,0.95
6588.00,0.95
6587.00,0.95
6586.00,0.95
6585.00,0.96
6584.00,0.96
6583.00,0.96
6582.00,0.96
6581.00,0.96
6580.00,0.96
6579.00,0.96
6578.00,0.96
6577.00,0.97
6576.00,0.97
6575.00,0.97
6574.00,0.97
6573.00,0.97
6572.00,0.97
6571.00,0.97
6570.00,0.97
6569.00,0.97
6568.00,0.97
6567.00,0.98
6566.00,0.98
6565.00,0.98
6564.00,0.98
6563.00,0.98
6562.00,0.98
6561.00,0.98
6560.00,0.98
6559.00,0.98
6558.00,0.98
6557.00,0.98
6556.00,0.99
6555.00,0.99
6554.00,0.99
6553.00,0.99
6552.00,0.99
6551.00,0.99
6550.00,0.99
6549.00,0.99
6548.00,0.99
6547.00,1.00
6546.00,1.00
6545.00,1.00
6544.00,1.00
6543.00,1.00
6542.00,1.00
6541.00,1.00
6540.00,1.00
6539.00,1.00
6538.00,1.01
6537.00,1.01
6536.00,1.01
6535.00,1.01
6534.00,1.01
6533.00,1.01
6532.00,1.01
6531.00,1.02
6530.00,1.02
6529.00,1.02
6528.00,1.02
6527.00,1.02
6526.00,1.02
6525.00,1.02
6524.00,1.03
6523.00,1.03
6522.00,1.03
6521.00,1.03
6520.00,1.03
6519.00,1.03
6518.00,1.03
6517.00,1.03
6516.00,1.03
6515.00,1.03
6514.00,1.04
6513.00,1.04
6512.00,1.04
6511.00,1.04
6510.00,1.04
6509.00,1.04
6508.00,1.04
6507.00,1.04
6506.00,1.04
6505.00,1.04
6504.00,1.04
6503.00,1.04
6502.00,1.04
6501.00,1.04
6500.00,1.04
6499.00,1.04
6498.00,1.04
6497.00,1.04
6496.00,1.04
6495.00,1.04
6494.00,1.04
6493.00,1.04
6492.00,1.05
6491.00,1.05
6490.00,1.05
6489.00,1.05
6488.00,1.05
6487.00,1.05
6486.00,1.05
6485.00,1.05
6484.00,1.05
6483.00,1.06
6482.00,1.06
6481.00,1.06
6480.00,1.06
6479.00,1.06
6478.00,1.06
6477.00,1.06
6476.00,1.06
6475.00,1.06
6474.00,1.06
6473.00,1.07
6472.00,1.07
6471.00,1.07
6470.00,1.07
6469.00,1.07
6468.00,1.07
6467.00,1.07
6466.00,1.07
6465.00,1.07
6464.00,1.07
6463.00,1.07
6462.00,1.07
6461.00,1.07
6460.00,1.07
6459.00,1.08
6458.00,1.08
6457.00,1.08
6456.00,1.08
6455.00,1.08
6454.00,1.08
6453.00,1.08
6452.00,1.08
6451.00,1.08
6450.00,1.08
6449.00,1.08
6448.00,1.08
6447.00,1.08
6446.00,1.08
6445.00,1.09
6444.00,1.09
6443.00,1.09
6442.00,1.09
6441.00,1.09
6440.00,1.09
6439.00,1.09
6438.00,1.09
6437.00,1.09
6436.00,1.09
6435.00,1.09
6434.00,1.09
6433.00,1.09
6432.00,1.09
6431.00,1.09
6430.00,1.09
6429.00,1.10
6428.00,1.10
6427.00,1.10
6426.00,1.10
6425.00,1.10
6424.00,1.10
6423.00,1.10
6422.00,1.10
6421.00,1.10
6420.00,1.10
6419.00,1.10
6418.00,1.10
6417.00,1.10
6416.00,1.10
6415.00,1.10
6414.00,1.10
6413.00,1.10
6412.00,1.11
6411.00,1.11
6410.00,1.11
6409.00,1.11
6408.00,1.11
6407.00,1.11
6406.00,1.11
6405.00,1.11
6404.00,1.12
6403.00,1.12
6402.00,1.12
6401.00,1.12
6400.00,1.12
6399.00,1.12
6398.00,1.12
6397.00,1.12
6396.00,1.13
6395.00,1.13
6394.00,1.13
6393.00,1.13
6392.00,1.13
6391.00,1.13
6390.00,1.13
6389.00,1.13
6388.00,1.13
6387.00,1.13
6386.00,1.13
6385.00,1.13
6384.00,1.13
6383.00,1.13
6382.00,1.13
6381.00,1.13
6380.00,1.13
6379.00,1.13
6378.00,1.13
6377.00,1.13
6376.00,1.13
6375.00,1.13
6374.00,1.13
6373.00,1.13
6372.00,1.13
6371.00,1.13
6370.00,1.13
6369.00,1.13
6368.00,1.13
6367.00,1.13
6366.00,1.13
6365.00,1.13
6364.00,1.13
6363.00,1.13
6362.00,1.13
6361.00,1.13
6360.00,1.13
6359.00,1.13
6358.00,1.14
6357.00,1.14
6356.00,1.14
6355.00,1.14
6354.00,1.14
6353.00,1.14
6352.00,1.15
6351.00,1.15
6350.00,1.15
6349.00,1.15
6348.00,1.15
6347.00,1.15
6346.00,1.16
6345.00,1.16
6344.00,1.16
6343.00,1.16
6342.00,1.16
6341.00,1.16
6340.00,1.17
6339.00,1.17
6338.00,1.17
6337.00,1.17
6336.00,1.17
6335.00,1.17
6334.00,1.17
6333.00,1.18
6332.00,1.18
6331.00,1.18
6330.00,1.18
6329.00,1.18
6328.00,1.18
6327.00,1.18
6326.00,1.18
6325.00,1.18
6324.00,1.18
6323.00,1.18
6322.00,1.19
6321.00,1.19
6320.00,1.19
6319.00,1.19
6318.00,1.19
6317.00,1.19
6316.00,1.19
6315.00,1.19
6314.00,1.20
6313.00,1.20
6312.00,1.20
6311.00,1.20
6310.00,1.20
6309.00,1.20
6308.00,1.20
6307.00,1.21
6306.00,1.21
6305.00,1.21
6304.00,1.21
6303.00,1.21
6302.00,1.21
6301.00,1.22
6300.00,1.22
6299.00,1.22
6298.00,1.22
6297.00,1.22
6296.00,1.22
6295.00,1.22
6294.00,1.23
6293.00,1.23
6292.00,1.23
6291.00,1.23
6290.00,1.23
6289.00,1.23
6288.00,1.23
6287.00,1.23
6286.00,1.23
6285.00,1.24
6284.00,1.24
6283.00,1.24
6282.00,1.24
6281.00,1.24
6280.00,1.24
6279.00,1.24
6278.00,1.24
6277.00,1.24
6276.00,1.24
6275.00,1.25
6274.00,1.25
6273.00,1.25
6272.00,1.25
6271.00,1.25
6270.00,1.25
6269.00,1.26
6268.00,1.26
6267.00,1.26
6266.00,1.26
6265.00,1.26
6264.00,1.27
6263.00,1.27
6262.00,1.27
6261.00,1.27
6260.00,1.27
6259.00,1.28
6258.00,1.28
6257.00,1.28
6256.00,1.28
6255.00,1.29
6254.00,1.29
6253.00,1.29
6252.00,1.29
6251.00,1.29
6250.00,1.30
6249.00,1.30
6248.00,1.30
6247.00,1.30
6246.00,1.30
6245.00,1.30
6244.00,1.31
6243.00,1.31
6242.00,1.31
6241.00,1.31
6240.00,1.31
6239.00,1.31
6238.00,1.31
6237.00,1.31
6236.00,1.32
6235.00,1.32
6234.00,1.32
6233.00,1.32
6232.00,1.32
6231.00,1.32
6230.00,1.32
6229.00,1.33
6228.00,1.33
6227.00,1.33
6226.00,1.33
6225.00,1.33
6224.00,1.33
6223.00,1.34
6222.00,1.34
6221.00,1.34
6220.00,1.34
6219.00,1.34
6218.00,1.34
6217.00,1.35
6216.00,1.35
6215.00,1.35
6214.00,1.35
6213.00,1.35
6212.00,1.36
6211.00,1.36
6210.00,1.36
6209.00,1.36
6208.00,1.37
6207.00,1.37
6206.00,1.37
6205.00,1.37
6204.00,1.37
6203.00,1.38
6202.00,1.38
6201.00,1.38
6200.00,1.38
6199.00,1.38
6198.00,1.39
6197.00,1.39
6196.00,1.39
6195.00,1.39
6194.00,1.39
6193.00,1.40
6192.00,1.40
6191.00,1.40
6190.00,1.40
6189.00,1.40
6188.00,1.40
6187.00,1.41
6186.00,1.41
6185.00,1.41
6184.00,1.41
6183.00,1.41
6182.00,1.41
6181.00,1.42
6180.00,1.42
6179.00,1.42
6178.00,1.42
6177.00,1.42
6176.00,1.42
6175.00,1.43
6174.00,1.43
6173.00,1.43
6172.00,1.43
6171.00,1.43
6170.00,1.44
6169.00,1.44
6168.00,1.44
6167.00,1.44
6166.00,1.45
6165.00,1.45
6164.00,1.45
6163.00,1.45
6162.00,1.45
6161.00,1.46
6160.00,1.46
6159.00,1.46
6158.00,1.46
6157.00,1.46
6156.00,1.47
6155.00,1.47
6154.00,1.47
6153.00,1.47
6152.00,1.47
6151.00,1.48
6150.00,1.48
6149.00,1.48
6148.00,1.48
6147.00,1.48
6146.00,1.49
6145.00,1.49
6144.00,1.49
6143.00,1.49
6142.00,1.49
6141.00,1.50
6140.00,1.50
6139.00,1.50
6138.00,1.50
6137.00,1.51
6136.00,1.51
6135.00,1.51
6134.00,1.51
6133.00,1.51
6132.00,1.51
6131.00,1.52
6130.00,1.52
6129.00,1.52
6128.00,1.52
6127.00,1.52
6126.00,1.53
6125.00,1.53
6124.00,1.53
6123.00,1.53
6122.00,1.54
6121.00,1.54
6120.00,1.54
6119.00,1.54
6118.00,1.54
6117.00,1.55
6116.00,1.55
6115.00,1.55
6114.00,1.55
6113.00,1.56
6112.00,1.56
6111.00,1.56
6110.00,1.56
6109.00,1.56
6108.00,1.57
6107.00,1.57
6106.00,1.57
6105.00,1.57
6104.00,1.58
6103.00,1.58
6102.00,1.58
6101.00,1.58
6100.00,1.58
6099.00,1.58
6098.00,1.59
6097.00,1.59
6096.00,1.59
6095.00,1.59
6094.00,1.59
6093.00,1.60
6092.00,1.60
6091.00,1.60
6090.00,1.60
6089.00,1.60
6088.00,1.60
6087.00,1.60
6086.00,1.61
6085.00,1.61
6084.00,1.61
6083.00,1.61
6082.00,1.61
6081.00,1.61
6080.00,1.61
6079.00,1.61
6078.00,1.62
6077.00,1.62
6076.00,1.62
6075.00,1.62
6074.00,1.62
6073.00,1.62
6072.00,1.62
6071.00,1.63
6070.00,1.63
6069.00,1.63
6068.00,1.63
6067.00,1.63
6066.00,1.64
6065.00,1.64
6064.00,1.64
6063.00,1.64
6062.00,1.64
6061.00,1.64
6060.00,1.65
6059.00,1.65
6058.00,1.65
6057.00,1.65
6056.00,1.65
6055.00,1.66
6054.00,1.66
6053.00,1.66
6052.00,1.66
6051.00,1.66
6050.00,1.66
6049.00,1.66
6048.00,1.67
6047.00,1.67
6046.00,1.67
6045.00,1.67
6044.00,1.67
6043.00,1.67
6042.00,1.67
6041.00,1.67
6040.00,1.67
6039.00,1.67
6038.00,1.68
6037.00,1.68
6036.00,1.68
6035.00,1.68
6034.00,1.68
6033.00,1.68
6032.00,1.68
6031.00,1.68
6030.00,1.68
6029.00,1.68
6028.00,1.68
6027.00,1.68
6026.00,1.68
6025.00,1.68
6024.00,1.68
6023.00,1.69
6022.00,1.69
6021.00,1.69
6020.00,1.69
6019.00,1.69
6018.00,1.69
6017.00,1.69
6016.00,1.69
6015.00,1.69
6014.00,1.69
6013.00,1.69
6012.00,1.69
6011.00,1.69
6010.00,1.69
6009.00,1.69
6008.00,1.69
6007.00,1.68
6006.00,1.68
6005.00,1.68
6004.00,1.68
6003.00,1.68
6002.00,1.68
6001.00,1.68
6000.00,1.68
5999.00,1.68
5998.00,1.68
5997.00,1.67
5996.00,1.67
5995.00,1.67
5994.00,1.67
5993.00,1.67
5992.00,1.66
5991.00,1.66
5990.00,1.66
5989.00,1.66
5988.00,1.66
5987.00,1.65
5986.00,1.65
5985.00,1.65
5984.00,1.64
5983.00,1.64
5982.00,1.64
5981.00,1.63
5980.00,1.63
5979.00,1.62
5978.00,1.62
5977.00,1.61
5976.00,1.60
5975.00,1.60
5974.00,1.59
5973.00,1.58
5972.00,1.57
5971.00,1.56
5970.00,1.56
5969.00,1.55
5968.00,1.54
5967.00,1.53
5966.00,1.52
5965.00,1.51
5964.00,1.50
5963.00,1.49
5962.00,1.48
5961.00,1.47
5960.00,1.46
5959.00,1.45
5958.00,1.44
5957.00,1.43
5956.00,1.42
5955.00,1.41
5954.00,1.40
5953.00,1.39
5952.00,1.38
5951.00,1.38
5950.00,1.37
5949.00,1.36
5948.00,1.35
5947.00,1.35
5946.00,1.34
5945.00,1.34
5944.00,1.33
5943.00,1.33
5942.00,1.33
5941.00,1.32
5940.00,1.32
5939.00,1.32
5938.00,1.32
5937.00,1.31
5936.00,1.31
5935.00,1.31
5934.00,1.31
5933.00,1.31
5932.00,1.31
5931.00,1.31
5930.00,1.31
5929.00,1.30
5928.00,1.30
5927.00,1.30
5926.00,1.30
5925.00,1.30
5924.00,1.30
5923.00,1.29
5922.00,1.29
5921.00,1.29
5920.00,1.28
5919.00,1.28
5918.00,1.28
5917.00,1.27
5916.00,1.27
5915.00,1.27
5914.00,1.26
5913.00,1.26
5912.00,1.25
5911.00,1.25
5910.00,1.25
5909.00,1.24
5908.00,1.24
5907.00,1.24
5906.00,1.24
5905.00,1.23
5904.00,1.23
5903.00,1.23
5902.00,1.23
5901.00,1.23
5900.00,1.23
5899.00,1.23
5898.00,1.23
5897.00,1.23
5896.00,1.23
5895.00,1.23
5894.00,1.24
5893.00,1.24
5892.00,1.24
5891.00,1.24
5890.00,1.25
5889.00,1.25
5888.00,1.25
5887.00,1.26
5886.00,1.26
5885.00,1.27
5884.00,1.27
5883.00,1.27
5882.00,1.28
5881.00,1.28
5880.00,1.29
5879.00,1.29
5878.00,1.29
5877.00,1.30
5876.00,1.30
5875.00,1.30
5874.00,1.31
5873.00,1.31
5872.00,1.31
5871.00,1.31
5870.00,1.32
5869.00,1.32
5868.00,1.32
5867.00,1.32
5866.00,1.33
5865.00,1.33
5864.00,1.33
5863.00,1.33
5862.00,1.33
5861.00,1.33
5860.00,1.34
5859.00,1.34
5858.00,1.34
5857.00,1.34
5856.00,1.34
5855.00,1.35
5854.00,1.35
5853.00,1.35
5852.00,1.35
5851.00,1.35
5850.00,1.35
5849.00,1.35
5848.00,1.36
5847.00,1.36
5846.00,1.36
5845.00,1.36
5844.00,1.36
5843.00,1.36
5842.00,1.36
5841.00,1.36
5840.00,1.36
5839.00,1.36
5838.00,1.36
5837.00,1.36
5836.00,1.36
5835.00,1.36
5834.00,1.36
5833.00,1.36
5832.00,1.36
5831.00,1.36
5830.00,1.36
5829.00,1.36
5828.00,1.36
5827.00,1.36
5826.00,1.36
5825.00,1.36
5824.00,1.36
5823.00,1.36
5822.00,1.36
5821.00,1.36
5820.00,1.36
5819.00,1.36
5818.00,1.36
5817.00,1.36
5816.00,1.36
5815.00,1.36
5814.00,1.36
5813.00,1.36
5812.00,1.36
5811.00,1.36
5810.00,1.36
5809.00,1.36
5808.00,1.36
5807.00,1.36
5806.00,1.36
5805.00,1.36
5804.00,1.36
5803.00,1.36
5802.00,1.36
5801.00,1.36
5800.00,1.36
5799.00,1.35
5798.00,1.35
5797.00,1.35
5796.00,1.35
5795.00,1.34
5794.00,1.34
5793.00,1.34
5792.00,1.34
5791.00,1.33
5790.00,1.33
5789.00,1.33
5788.00,1.33
5787.00,1.32
5786.00,1.32
5785.00,1.32
5784.00,1.31
5783.00,1.31
5782.00,1.31
5781.00,1.31
5780.00,1.31
5779.00,1.30
5778.00,1.30
5777.00,1.30
5776.00,1.30
5775.00,1.30
5774.00,1.30
5773.00,1.30
5772.00,1.30
5771.00,1.30
5770.00,1.30
5769.00,1.30
5768.00,1.30
5767.00,1.31
5766.00,1.31
5765.00,1.31
5764.00,1.31
5763.00,1.32
5762.00,1.32
5761.00,1.32
5760.00,1.33
5759.00,1.33
5758.00,1.34
5757.00,1.34
5756.00,1.35
5755.00,1.35
5754.00,1.36
5753.00,1.36
5752.00,1.36
5751.00,1.37
5750.00,1.37
5749.00,1.38
5748.00,1.38
5747.00,1.39
5746.00,1.39
5745.00,1.40
5744.00,1.40
5743.00,1.41
5742.00,1.41
5741.00,1.41
5740.00,1.42
5739.00,1.42
5738.00,1.43
5737.00,1.43
5736.00,1.43
5735.00,1.43
5734.00,1.44
5733.00,1.44
5732.00,1.44
5731.00,1.44
5730.00,1.45
5729.00,1.45
5728.00,1.45
5727.00,1.45
5726.00,1.45
5725.00,1.45
5724.00,1.45
5723.00,1.45
5722.00,1.45
5721.00,1.45
5720.00,1.45
5719.00,1.45
5718.00,1.45
5717.00,1.45
5716.00,1.45
5715.00,1.45
5714.00,1.45
5713.00,1.45
5712.00,1.45
5711.00,1.45
5710.00,1.45
5709.00,1.45
5708.00,1.45
5707.00,1.45
5706.00,1.45
5705.00,1.45
5704.00,1.45
5703.00,1.45
5702.00,1.45
5701.00,1.45
5700.00,1.45
5699.00,1.44
5698.00,1.44
5697.00,1.44
5696.00,1.44
5695.00,1.44
5694.00,1.44
5693.00,1.44
5692.00,1.43
5691.00,1.43
5690.00,1.43
5689.00,1.43
5688.00,1.43
5687.00,1.43
5686.00,1.42
5685.00,1.42
5684.00,1.42
5683.00,1.42
5682.00,1.42
5681.00,1.42
5680.00,1.41
5679.00,1.41
5678.00,1.41
5677.00,1.41
5676.00,1.41
5675.00,1.41
5674.00,1.41
5673.00,1.41
5672.00,1.41
5671.00,1.41
5670.00,1.41
5669.00,1.41
5668.00,1.41
5667.00,1.41
5666.00,1.42
5665.00,1.42
5664.00,1.42
5663.00,1.42
5662.00,1.43
5661.00,1.43
5660.00,1.43
5659.00,1.43
5658.00,1.44
5657.00,1.44
5656.00,1.44
5655.00,1.45
5654.00,1.45
5653.00,1.45
5652.00,1.45
5651.00,1.46
5650.00,1.46
5649.00,1.46
5648.00,1.47
5647.00,1.47
5646.00,1.47
5645.00,1.47
5644.00,1.48
5643.00,1.48
5642.00,1.48
5641.00,1.48
5640.00,1.49
5639.00,1.49
5638.00,1.49
5637.00,1.49
5636.00,1.50
5635.00,1.50
5634.00,1.50
5633.00,1.50
5632.00,1.51
5631.00,1.51
5630.00,1.51
5629.00,1.52
5628.00,1.52
5627.00,1.52
5626.00,1.52
5625.00,1.53
5624.00,1.53
5623.00,1.53
5622.00,1.53
5621.00,1.53
5620.00,1.54
5619.00,1.54
5618.00,1.54
5617.00,1.54
5616.00,1.54
5615.00,1.55
5614.00,1.55
5613.00,1.55
5612.00,1.55
5611.00,1.56
5610.00,1.56
5609.00,1.56
5608.00,1.56
5607.00,1.56
5606.00,1.57
5605.00,1.57
5604.00,1.57
5603.00,1.57
5602.00,1.58
5601.00,1.58
5600.00,1.58
5599.00,1.58
5598.00,1.59
5597.00,1.59
5596.00,1.59
5595.00,1.59
5594.00,1.60
5593.00,1.60
5592.00,1.60
5591.00,1.60
5590.00,1.61
5589.00,1.61
5588.00,1.61
5587.00,1.62
5586.00,1.62
5585.00,1.62
5584.00,1.62
5583.00,1.63
5582.00,1.63
5581.00,1.63
5580.00,1.63
5579.00,1.63
5578.00,1.64
5577.00,1.64
5576.00,1.64
5575.00,1.64
5574.00,1.64
5573.00,1.65
5572.00,1.65
5571.00,1.65
5570.00,1.65
5569.00,1.65
5568.00,1.66
5567.00,1.66
5566.00,1.66
5565.00,1.66
5564.00,1.66
5563.00,1.67
5562.00,1.67
5561.00,1.67
5560.00,1.67
5559.00,1.67
5558.00,1.67
5557.00,1.68
5556.00,1.68
5555.00,1.68
5554.00,1.68
5553.00,1.68
5552.00,1.68
5551.00,1.69
5550.00,1.69
5549.00,1.69
5548.00,1.69
5547.00,1.69
5546.00,1.70
5545.00,1.70
5544.00,1.70
5543.00,1.70
5542.00,1.70
5541.00,1.71
5540.00,1.71
5539.00,1.71
5538.00,1.71
5537.00,1.71
5536.00,1.72
5535.00,1.72
5534.00,1.72
5533.00,1.72
5532.00,1.72
5531.00,1.72
5530.00,1.72
5529.00,1.73
5528.00,1.73
5527.00,1.73
5526.00,1.73
5525.00,1.73
5524.00,1.73
5523.00,1.73
5522.00,1.73
5521.00,1.73
5520.00,1.73
5519.00,1.73
5518.00,1.73
5517.00,1.73
5516.00,1.74
5515.00,1.74
5514.00,1.74
5513.00,1.74
5512.00,1.74
5511.00,1.74
5510.00,1.74
5509.00,1.74
5508.00,1.74
5507.00,1.74
5506.00,1.74
5505.00,1.75
5504.00,1.75
5503.00,1.75
5502.00,1.75
5501.00,1.75
5500.00,1.75
5499.00,1.75
5498.00,1.75
5497.00,1.75
5496.00,1.76
5495.00,1.76
5494.00,1.76
5493.00,1.76
5492.00,1.76
5491.00,1.76
5490.00,1.77
5489.00,1.77
5488.00,1.77
5487.00,1.77
5486.00,1.77
5485.00,1.78
5484.00,1.78
5483.00,1.78
5482.00,1.78
5481.00,1.78
5480.00,1.78
5479.00,1.79
5478.00,1.79
5477.00,1.79
5476.00,1.79
5475.00,1.79
5474.00,1.79
5473.00,1.79
5472.00,1.79
5471.00,1.80
5470.00,1.80
5469.00,1.80
5468.00,1.80
5467.00,1.80
5466.00,1.80
5465.00,1.81
5464.00,1.81
5463.00,1.81
5462.00,1.81
5461.00,1.81
5460.00,1.82
5459.00,1.82
5458.00,1.82
5457.00,1.82
5456.00,1.82
5455.00,1.82
5454.00,1.82
5453.00,1.82
5452.00,1.82
5451.00,1.82
5450.00,1.82
5449.00,1.82
5448.00,1.82
5447.00,1.82
5446.00,1.82
5445.00,1.82
5444.00,1.82
5443.00,1.82
5442.00,1.82
5441.00,1.83
5440.00,1.83
5439.00,1.83
5438.00,1.83
5437.00,1.83
5436.00,1.83
5435.00,1.83
5434.00,1.83
5433.00,1.83
5432.00,1.83
5431.00,1.83
5430.00,1.84
5429.00,1.84
5428.00,1.84
5427.00,1.84
5426.00,1.84
5425.00,1.84
5424.00,1.84
5423.00,1.84
5422.00,1.84
5421.00,1.84
5420.00,1.84
5419.00,1.84
5418.00,1.84
5417.00,1.84
5416.00,1.84
5415.00,1.84
5414.00,1.84
5413.00,1.84
5412.00,1.84
5411.00,1.84
5410.00,1.84
5409.00,1.84
5408.00,1.84
5407.00,1.84
5406.00,1.84
5405.00,1.84
5404.00,1.84
5403.00,1.84
5402.00,1.84
5401.00,1.84
5400.00,1.84
5399.00,1.84
5398.00,1.84
5397.00,1.84
5396.00,1.84
5395.00,1.83
5394.00,1.83
5393.00,1.83
5392.00,1.83
5391.00,1.83
5390.00,1.83
5389.00,1.82
5388.00,1.82
5387.00,1.82
5386.00,1.82
5385.00,1.81
5384.00,1.81
5383.00,1.81
5382.00,1.80
5381.00,1.80
5380.00,1.80
5379.00,1.79
5378.00,1.79
5377.00,1.79
5376.00,1.78
5375.00,1.78
5374.00,1.77
5373.00,1.77
5372.00,1.76
5371.00,1.76
5370.00,1.75
5369.00,1.74
5368.00,1.74
5367.00,1.73
5366.00,1.72
5365.00,1.72
5364.00,1.71
5363.00,1.70
5362.00,1.69
5361.00,1.68
5360.00,1.67
5359.00,1.66
5358.00,1.65
5357.00,1.64
5356.00,1.63
5355.00,1.62
5354.00,1.61
5353.00,1.60
5352.00,1.59
5351.00,1.58
5350.00,1.56
5349.00,1.55
5348.00,1.54
5347.00,1.53
5346.00,1.51
5345.00,1.50
5344.00,1.49
5343.00,1.48
5342.00,1.46
5341.00,1.45
5340.00,1.44
5339.00,1.43
5338.00,1.42
5337.00,1.40
5336.00,1.39
5335.00,1.38
5334.00,1.37
5333.00,1.35
5332.00,1.34
5331.00,1.33
5330.00,1.32
5329.00,1.31
5328.00,1.29
5327.00,1.28
5326.00,1.27
5325.00,1.26
5324.00,1.24
5323.00,1.23
5322.00,1.22
5321.00,1.21
5320.00,1.19
5319.00,1.18
5318.00,1.17
5317.00,1.16
5316.00,1.15
5315.00,1.13
5314.00,1.12
5313.00,1.11
5312.00,1.10
5311.00,1.09
5310.00,1.08
5309.00,1.07
5308.00,1.06
5307.00,1.05
5306.00,1.04
5305.00,1.03
5304.00,1.02
5303.00,1.02
5302.00,1.01
5301.00,1.00
5300.00,0.99
5299.00,0.99
5298.00,0.98
5297.00,0.97
5296.00,0.97
5295.00,0.96
5294.00,0.96
5293.00,0.95
5292.00,0.95
5291.00,0.94
5290.00,0.94
5289.00,0.94
5288.00,0.93
5287.00,0.93
5286.00,0.92
5285.00,0.92
5284.00,0.92
5283.00,0.92
5282.00,0.91
5281.00,0.91
5280.00,0.91
5279.00,0.91
5278.00,0.91
5277.00,0.90
5276.00,0.90
5275.00,0.90
5274.00,0.90
5273.00,0.90
5272.00,0.90
5271.00,0.90
5270.00,0.90
5269.00,0.89
5268.00,0.89
5267.00,0.89
5266.00,0.89
5265.00,0.89
5264.00,0.89
5263.00,0.89
5262.00,0.88
5261.00,0.88
5260.00,0.88
5259.00,0.88
5258.00,0.88
5257.00,0.88
5256.00,0.88
5255.00,0.88
5254.00,0.88
5253.00,0.88
5252.00,0.88
5251.00,0.88
5250.00,0.88
5249.00,0.88
5248.00,0.88
5247.00,0.88
5246.00,0.88
5245.00,0.88
5244.00,0.88
5243.00,0.88
5242.00,0.88
5241.00,0.88
5240.00,0.88
5239.00,0.88
5238.00,0.88
5237.00,0.89
5236.00,0.89
5235.00,0.89
5234.00,0.88
5233.00,0.88
5232.00,0.88
5231.00,0.88
5230.00,0.88
5229.00,0.88
5228.00,0.88
5227.00,0.88
5226.00,0.88
5225.00,0.88
5224.00,0.88
5223.00,0.88
5222.00,0.88
5221.00,0.88
5220.00,0.88
5219.00,0.88
5218.00,0.88
5217.00,0.88
5216.00,0.88
5215.00,0.88
5214.00,0.88
5213.00,0.88
5212.00,0.88
5211.00,0.88
5210.00,0.88
5209.00,0.88
5208.00,0.88
5207.00,0.88
5206.00,0.88
5205.00,0.88
5204.00,0.88
5203.00,0.89
5202.00,0.89
5201.00,0.89
5200.00,0.89
5199.00,0.89
5198.00,0.89
5197.00,0.89
5196.00,0.89
5195.00,0.89
5194.00,0.89
5193.00,0.90
5192.00,0.90
5191.00,0.90
5190.00,0.90
5189.00,0.90
5188.00,0.90
5187.00,0.90
5186.00,0.91
5185.00,0.91
5184.00,0.91
5183.00,0.91
5182.00,0.91
5181.00,0.91
5180.00,0.91
5179.00,0.91
5178.00,0.91
5177.00,0.91
5176.00,0.92
5175.00,0.92
5174.00,0.92
5173.00,0.92
5172.00,0.92
5171.00,0.92
5170.00,0.92
5169.00,0.92
5168.00,0.92
5167.00,0.92
5166.00,0.92
5165.00,0.92
5164.00,0.92
5163.00,0.92
5162.00,0.92
5161.00,0.92
5160.00,0.92
5159.00,0.92
5158.00,0.92
5157.00,0.92
5156.00,0.92
5155.00,0.92
5154.00,0.92
5153.00,0.92
5152.00,0.93
5151.00,0.93
5150.00,0.93
5149.00,0.93
5148.00,0.93
5147.00,0.93
5146.00,0.93
5145.00,0.93
5144.00,0.93
5143.00,0.93
5142.00,0.93
5141.00,0.93
5140.00,0.94
5139.00,0.94
5138.00,0.94
5137.00,0.94
5136.00,0.94
5135.00,0.94
5134.00,0.94
5133.00,0.94
5132.00,0.94
5131.00,0.94
5130.00,0.94
5129.00,0.94
5128.00,0.94
5127.00,0.94
5126.00,0.94
5125.00,0.94
5124.00,0.95
5123.00,0.95
5122.00,0.95
5121.00,0.95
5120.00,0.95
5119.00,0.95
5118.00,0.95
5117.00,0.95
5116.00,0.96
5115.00,0.96
5114.00,0.96
5113.00,0.96
5112.00,0.96
5111.00,0.96
5110.00,0.96
5109.00,0.96
5108.00,0.96
5107.00,0.96
5106.00,0.96
5105.00,0.96
5104.00,0.96
5103.00,0.96
5102.00,0.96
5101.00,0.96
5100.00,0.96
5099.00,0.96
5098.00,0.97
5097.00,0.97
5096.00,0.97
5095.00,0.97
5094.00,0.97
5093.00,0.97
5092.00,0.97
5091.00,0.97
5090.00,0.97
5089.00,0.97
5088.00,0.97
5087.00,0.97
5086.00,0.97
5085.00,0.97
5084.00,0.97
5083.00,0.97
5082.00,0.98
5081.00,0.98
5080.00,0.98
5079.00,0.98
5078.00,0.98
5077.00,0.98
5076.00,0.98
5075.00,0.98
5074.00,0.98
5073.00,0.98
5072.00,0.98
5071.00,0.98
5070.00,0.99
5069.00,0.99
5068.00,0.99
5067.00,0.99
5066.00,0.99
5065.00,0.99
5064.00,0.99
5063.00,0.99
5062.00,0.99
5061.00,0.99
5060.00,0.99
5059.00,0.99
5058.00,1.00
5057.00,1.00
5056.00,1.00
5055.00,1.00
5054.00,1.00
5053.00,1.00
5052.00,1.00
5051.00,1.00
5050.00,1.00
5049.00,1.00
5048.00,1.01
5047.00,1.01
5046.00,1.01
5045.00,1.01
5044.00,1.01
5043.00,1.01
5042.00,1.01
5041.00,1.01
5040.00,1.01
5039.00,1.01
5038.00,1.01
5037.00,1.01
5036.00,1.01
5035.00,1.01
5034.00,1.01
5033.00,1.02
5032.00,1.02
5031.00,1.02
5030.00,1.02
5029.00,1.02
5028.00,1.02
5027.00,1.02
5026.00,1.02
5025.00,1.02
5024.00,1.02
5023.00,1.02
5022.00,1.02
5021.00,1.02
5020.00,1.02
5019.00,1.02
5018.00,1.03
5017.00,1.03
5016.00,1.03
5015.00,1.03
5014.00,1.03
5013.00,1.03
5012.00,1.03
5011.00,1.04
5010.00,1.04
5009.00,1.04
5008.00,1.04
5007.00,1.04
5006.00,1.04
5005.00,1.04
5004.00,1.04
5003.00,1.04
5002.00,1.05
5001.00,1.05
5000.00,1.05
4999.00,1.05
4998.00,1.05
4997.00,1.05
4996.00,1.05
4995.00,1.05
4994.00,1.06
4993.00,1.06
4992.00,1.06
4991.00,1.06
4990.00,1.06
4989.00,1.06
4988.00,1.06
4987.00,1.06
4986.00,1.07
4985.00,1.07
4984.00,1.07
4983.00,1.07
4982.00,1.07
4981.00,1.07
4980.00,1.07
4979.00,1.07
4978.00,1.07
4977.00,1.07
4976.00,1.07
4975.00,1.08
4974.00,1.08
4973.00,1.08
4972.00,1.08
4971.00,1.08
4970.00,1.08
4969.00,1.08
4968.00,1.08
4967.00,1.08
4966.00,1.08
4965.00,1.08
4964.00,1.08
4963.00,1.08
4962.00,1.08
4961.00,1.08
4960.00,1.09
4959.00,1.09
4958.00,1.09
4957.00,1.09
4956.00,1.09
4955.00,1.09
4954.00,1.09
4953.00,1.09
4952.00,1.09
4951.00,1.10
4950.00,1.10
4949.00,1.10
4948.00,1.10
4947.00,1.10
4946.00,1.10
4945.00,1.10
4944.00,1.10
4943.00,1.10
4942.00,1.10
4941.00,1.10
4940.00,1.11
4939.00,1.11
4938.00,1.11
4937.00,1.11
4936.00,1.11
4935.00,1.11
4934.00,1.11
4933.00,1.12
4932.00,1.12
4931.00,1.12
4930.00,1.12
4929.00,1.12
4928.00,1.12
4927.00,1.12
4926.00,1.13
4925.00,1.13
4924.00,1.13
4923.00,1.13
4922.00,1.13
4921.00,1.13
4920.00,1.13
4919.00,1.13
4918.00,1.13
4917.00,1.14
4916.00,1.14
4915.00,1.14
4914.00,1.14
4913.00,1.14
4912.00,1.14
4911.00,1.14
4910.00,1.14
4909.00,1.14
4908.00,1.14
4907.00,1.14
4906.00,1.15
4905.00,1.15
4904.00,1.15
4903.00,1.15
4902.00,1.15
4901.00,1.15
4900.00,1.15
4899.00,1.15
4898.00,1.15
4897.00,1.15
4896.00,1.15
4895.00,1.15
4894.00,1.15
4893.00,1.15
4892.00,1.15
4891.00,1.15
4890.00,1.15
4889.00,1.15
4888.00,1.15
4887.00,1.15
4886.00,1.15
4885.00,1.16
4884.00,1.16
4883.00,1.16
4882.00,1.16
4881.00,1.16
4880.00,1.16
4879.00,1.16
4878.00,1.16
4877.00,1.16
4876.00,1.16
4875.00,1.16
4874.00,1.16
4873.00,1.16
4872.00,1.16
4871.00,1.16
4870.00,1.16
4869.00,1.16
4868.00,1.17
4867.00,1.17
4866.00,1.17
4865.00,1.17
4864.00,1.17
4863.00,1.17
4862.00,1.17
4861.00,1.17
4860.00,1.18
4859.00,1.18
4858.00,1.18
4857.00,1.18
4856.00,1.18
4855.00,1.18
4854.00,1.18
4853.00,1.18
4852.00,1.18
4851.00,1.18
4850.00,1.19
4849.00,1.19
4848.00,1.19
4847.00,1.19
4846.00,1.19
4845.00,1.19
4844.00,1.19
4843.00,1.19
4842.00,1.19
4841.00,1.19
4840.00,1.19
4839.00,1.19
4838.00,1.20
4837.00,1.20
4836.00,1.20
4835.00,1.20
4834.00,1.20
4833.00,1.20
4832.00,1.20
4831.00,1.20
4830.00,1.20
4829.00,1.20
4828.00,1.20
4827.00,1.20
4826.00,1.20
4825.00,1.20
4824.00,1.21
4823.00,1.21
4822.00,1.21
4821.00,1.21
4820.00,1.21
4819.00,1.21
4818.00,1.21
4817.00,1.21
4816.00,1.21
4815.00,1.21
4814.00,1.21
4813.00,1.21
4812.00,1.21
4811.00,1.21
4810.00,1.21
4809.00,1.21
4808.00,1.21
4807.00,1.22
4806.00,1.22
4805.00,1.22
4804.00,1.22
4803.00,1.22
4802.00,1.22
4801.00,1.22
4800.00,1.22
4799.00,1.23
4798.00,1.23
4797.00,1.23
4796.00,1.23
4795.00,1.23
4794.00,1.24
4793.00,1.24
4792.00,1.24
4791.00,1.24
4790.00,1.24
4789.00,1.25
4788.00,1.25
4787.00,1.25
4786.00,1.25
4785.00,1.25
4784.00,1.25
4783.00,1.26
4782.00,1.26
4781.00,1.26
4780.00,1.26
4779.00,1.26
4778.00,1.26
4777.00,1.26
4776.00,1.27
4775.00,1.27
4774.00,1.27
4773.00,1.27
4772.00,1.27
4771.00,1.27
4770.00,1.27
4769.00,1.27
4768.00,1.27
4767.00,1.28
4766.00,1.28
4765.00,1.28
4764.00,1.28
4763.00,1.28
4762.00,1.28
4761.00,1.28
4760.00,1.29
4759.00,1.29
4758.00,1.29
4757.00,1.29
4756.00,1.29
4755.00,1.30
4754.00,1.30
4753.00,1.30
4752.00,1.30
4751.00,1.30
4750.00,1.31
4749.00,1.31
4748.00,1.31
4747.00,1.31
4746.00,1.31
4745.00,1.32
4744.00,1.32
4743.00,1.32
4742.00,1.32
4741.00,1.32
4740.00,1.32
4739.00,1.32
4738.00,1.32
4737.00,1.33
4736.00,1.33
4735.00,1.33
4734.00,1.33
4733.00,1.33
4732.00,1.33
4731.00,1.33
4730.00,1.34
4729.00,1.34
4728.00,1.34
4727.00,1.34
4726.00,1.34
4725.00,1.35
4724.00,1.35
4723.00,1.35
4722.00,1.35
4721.00,1.35
4720.00,1.36
4719.00,1.36
4718.00,1.36
4717.00,1.36
4716.00,1.36
4715.00,1.36
4714.00,1.36
4713.00,1.37
4712.00,1.37
4711.00,1.37
4710.00,1.37
4709.00,1.37
4708.00,1.37
4707.00,1.38
4706.00,1.38
4705.00,1.38
4704.00,1.38
4703.00,1.38
4702.00,1.39
4701.00,1.39
4700.00,1.39
4699.00,1.39
4698.00,1.40
4697.00,1.40
4696.00,1.40
4695.00,1.40
4694.00,1.41
4693.00,1.41
4692.00,1.41
4691.00,1.41
4690.00,1.42
4689.00,1.42
4688.00,1.42
4687.00,1.42
4686.00,1.42
4685.00,1.43
4684.00,1.43
4683.00,1.43
4682.00,1.43
4681.00,1.43
4680.00,1.43
4679.00,1.43
4678.00,1.43
4677.00,1.44
4676.00,1.44
4675.00,1.44
4674.00,1.44
4673.00,1.44
4672.00,1.44
4671.00,1.44
4670.00,1.44
4669.00,1.45
4668.00,1.45
4667.00,1.45
4666.00,1.45
4665.00,1.45
4664.00,1.46
4663.00,1.46
4662.00,1.46
4661.00,1.46
4660.00,1.47
4659.00,1.47
4658.00,1.47
4657.00,1.47
4656.00,1.48
4655.00,1.48
4654.00,1.48
4653.00,1.48
4652.00,1.48
4651.00,1.49
4650.00,1.49
4649.00,1.49
4648.00,1.49
4647.00,1.49
4646.00,1.49
4645.00,1.50
4644.00,1.50
4643.00,1.50
4642.00,1.50
4641.00,1.50
4640.00,1.50
4639.00,1.51
4638.00,1.51
4637.00,1.51
4636.00,1.51
4635.00,1.51
4634.00,1.51
4633.00,1.52
4632.00,1.52
4631.00,1.52
4630.00,1.52
4629.00,1.52
4628.00,1.52
4627.00,1.52
4626.00,1.53
4625.00,1.53
4624.00,1.53
4623.00,1.53
4622.00,1.53
4621.00,1.53
4620.00,1.53
4619.00,1.53
4618.00,1.53
4617.00,1.54
4616.00,1.54
4615.00,1.54
4614.00,1.54
4613.00,1.54
4612.00,1.54
4611.00,1.54
4610.00,1.55
4609.00,1.55
4608.00,1.55
4607.00,1.55
4606.00,1.55
4605.00,1.55
4604.00,1.55
4603.00,1.56
4602.00,1.56
4601.00,1.56
4600.00,1.56
4599.00,1.56
4598.00,1.56
4597.00,1.56
4596.00,1.56
4595.00,1.57
4594.00,1.57
4593.00,1.57
4592.00,1.57
4591.00,1.57
4590.00,1.57
4589.00,1.57
4588.00,1.57
4587.00,1.57
4586.00,1.57
4585.00,1.57
4584.00,1.58
4583.00,1.58
4582.00,1.58
4581.00,1.58
4580.00,1.58
4579.00,1.58
4578.00,1.58
4577.00,1.58
4576.00,1.59
4575.00,1.59
4574.00,1.59
4573.00,1.59
4572.00,1.59
4571.00,1.59
4570.00,1.59
4569.00,1.60
4568.00,1.60
4567.00,1.60
4566.00,1.60
4565.00,1.60
4564.00,1.60
4563.00,1.60
4562.00,1.61
4561.00,1.61
4560.00,1.61
4559.00,1.61
4558.00,1.61
4557.00,1.62
4556.00,1.62
4555.00,1.62
4554.00,1.62
4553.00,1.62
4552.00,1.62
4551.00,1.63
4550.00,1.63
4549.00,1.63
4548.00,1.63
4547.00,1.63
4546.00,1.63
4545.00,1.63
4544.00,1.63
4543.00,1.63
4542.00,1.64
4541.00,1.64
4540.00,1.64
4539.00,1.64
4538.00,1.64
4537.00,1.64
4536.00,1.64
4535.00,1.64
4534.00,1.65
4533.00,1.65
4532.00,1.65
4531.00,1.65
4530.00,1.65
4529.00,1.65
4528.00,1.65
4527.00,1.65
4526.00,1.65
4525.00,1.65
4524.00,1.66
4523.00,1.66
4522.00,1.66
4521.00,1.66
4520.00,1.66
4519.00,1.66
4518.00,1.66
4517.00,1.66
4516.00,1.66
4515.00,1.65
4514.00,1.65
4513.00,1.65
4512.00,1.65
4511.00,1.65
4510.00,1.65
4509.00,1.65
4508.00,1.65
4507.00,1.66
4506.00,1.66
4505.00,1.66
4504.00,1.66
4503.00,1.66
4502.00,1.65
4501.00,1.65
4500.00,1.65
4499.00,1.65
4498.00,1.65
4497.00,1.65
4496.00,1.65
4495.00,1.65
4494.00,1.65
4493.00,1.65
4492.00,1.65
4491.00,1.65
4490.00,1.65
4489.00,1.64
4488.00,1.64
4487.00,1.64
4486.00,1.64
4485.00,1.64
4484.00,1.64
4483.00,1.64
4482.00,1.64
4481.00,1.63
4480.00,1.63
4479.00,1.63
4478.00,1.63
4477.00,1.62
4476.00,1.62
4475.00,1.62
4474.00,1.62
4473.00,1.61
4472.00,1.61
4471.00,1.61
4470.00,1.60
4469.00,1.60
4468.00,1.60
4467.00,1.59
4466.00,1.59
4465.00,1.59
4464.00,1.58
4463.00,1.58
4462.00,1.58
4461.00,1.57
4460.00,1.57
4459.00,1.57
4458.00,1.56
4457.00,1.56
4456.00,1.56
4455.00,1.55
4454.00,1.55
4453.00,1.55
4452.00,1.54
4451.00,1.54
4450.00,1.54
4449.00,1.53
4448.00,1.53
4447.00,1.52
4446.00,1.52
4445.00,1.51
4444.00,1.51
4443.00,1.51
4442.00,1.50
4441.00,1.50
4440.00,1.49
4439.00,1.49
4438.00,1.48
4437.00,1.48
4436.00,1.48
4435.00,1.47
4434.00,1.47
4433.00,1.47
4432.00,1.47
4431.00,1.46
4430.00,1.46
4429.00,1.46
4428.00,1.46
4427.00,1.46
4426.00,1.46
4425.00,1.45
4424.00,1.45
4423.00,1.45
4422.00,1.45
4421.00,1.45
4420.00,1.45
4419.00,1.45
4418.00,1.45
4417.00,1.44
4416.00,1.44
4415.00,1.44
4414.00,1.44
4413.00,1.44
4412.00,1.44
4411.00,1.44
4410.00,1.44
4409.00,1.44
4408.00,1.44
4407.00,1.44
4406.00,1.44
4405.00,1.44
4404.00,1.44
4403.00,1.45
4402.00,1.45
4401.00,1.45
4400.00,1.45
4399.00,1.45
4398.00,1.45
4397.00,1.45
4396.00,1.45
4395.00,1.45
4394.00,1.45
4393.00,1.46
4392.00,1.46
4391.00,1.46
4390.00,1.46
4389.00,1.46
4388.00,1.47
4387.00,1.47
4386.00,1.47
4385.00,1.47
4384.00,1.48
4383.00,1.48
4382.00,1.48
4381.00,1.48
4380.00,1.48
4379.00,1.49
4378.00,1.49
4377.00,1.49
4376.00,1.49
4375.00,1.49
4374.00,1.49
4373.00,1.49
4372.00,1.49
4371.00,1.49
4370.00,1.49
4369.00,1.49
4368.00,1.49
4367.00,1.49
4366.00,1.49
4365.00,1.49
4364.00,1.49
4363.00,1.50
4362.00,1.50
4361.00,1.50
4360.00,1.50
4359.00,1.50
4358.00,1.50
4357.00,1.50
4356.00,1.50
4355.00,1.50
4354.00,1.50
4353.00,1.50
4352.00,1.51
4351.00,1.51
4350.00,1.51
4349.00,1.51
4348.00,1.51
4347.00,1.51
4346.00,1.51
4345.00,1.51
4344.00,1.51
4343.00,1.51
4342.00,1.52
4341.00,1.52
4340.00,1.52
4339.00,1.52
4338.00,1.52
4337.00,1.52
4336.00,1.52
4335.00,1.52
4334.00,1.52
4333.00,1.52
4332.00,1.52
4331.00,1.52
4330.00,1.52
4329.00,1.52
4328.00,1.52
4327.00,1.53
4326.00,1.53
4325.00,1.53
4324.00,1.53
4323.00,1.53
4322.00,1.53
4321.00,1.53
4320.00,1.54
4319.00,1.54
4318.00,1.54
4317.00,1.54
4316.00,1.54
4315.00,1.54
4314.00,1.55
4313.00,1.55
4312.00,1.55
4311.00,1.55
4310.00,1.55
4309.00,1.55
4308.00,1.56
4307.00,1.56
4306.00,1.56
4305.00,1.56
4304.00,1.56
4303.00,1.56
4302.00,1.56
4301.00,1.57
4300.00,1.57
4299.00,1.57
4298.00,1.57
4297.00,1.57
4296.00,1.57
4295.00,1.57
4294.00,1.58
4293.00,1.58
4292.00,1.58
4291.00,1.58
4290.00,1.58
4289.00,1.59
4288.00,1.59
4287.00,1.59
4286.00,1.59
4285.00,1.59
4284.00,1.60
4283.00,1.60
4282.00,1.60
4281.00,1.60
4280.00,1.60
4279.00,1.60
4278.00,1.60
4277.00,1.60
4276.00,1.61
4275.00,1.61
4274.00,1.60
4273.00,1.60
4272.00,1.60
4271.00,1.60
4270.00,1.60
4269.00,1.60
4268.00,1.60
4267.00,1.60
4266.00,1.60
4265.00,1.60
4264.00,1.60
4263.00,1.60
4262.00,1.60
4261.00,1.60
4260.00,1.60
4259.00,1.60
4258.00,1.60
4257.00,1.60
4256.00,1.60
4255.00,1.60
4254.00,1.60
4253.00,1.60
4252.00,1.60
4251.00,1.60
4250.00,1.61
4249.00,1.61
4248.00,1.61
4247.00,1.61
4246.00,1.61
4245.00,1.62
4244.00,1.62
4243.00,1.62
4242.00,1.63
4241.00,1.63
4240.00,1.63
4239.00,1.64
4238.00,1.64
4237.00,1.64
4236.00,1.64
4235.00,1.65
4234.00,1.65
4233.00,1.65
4232.00,1.65
4231.00,1.65
4230.00,1.66
4229.00,1.66
4228.00,1.66
4227.00,1.66
4226.00,1.66
4225.00,1.67
4224.00,1.67
4223.00,1.67
4222.00,1.67
4221.00,1.67
4220.00,1.67
4219.00,1.67
4218.00,1.67
4217.00,1.68
4216.00,1.68
4215.00,1.68
4214.00,1.68
4213.00,1.68
4212.00,1.68
4211.00,1.68
4210.00,1.68
4209.00,1.68
4208.00,1.68
4207.00,1.68
4206.00,1.68
4205.00,1.68
4204.00,1.67
4203.00,1.67
4202.00,1.67
4201.00,1.67
4200.00,1.67
4199.00,1.67
4198.00,1.67
4197.00,1.67
4196.00,1.67
4195.00,1.67
4194.00,1.67
4193.00,1.67
4192.00,1.67
4191.00,1.67
4190.00,1.67
4189.00,1.67
4188.00,1.67
4187.00,1.67
4186.00,1.67
4185.00,1.67
4184.00,1.67
4183.00,1.67
4182.00,1.67
4181.00,1.67
4180.00,1.67
4179.00,1.67
4178.00,1.67
4177.00,1.68
4176.00,1.68
4175.00,1.68
4174.00,1.68
4173.00,1.68
4172.00,1.68
4171.00,1.68
4170.00,1.68
4169.00,1.68
4168.00,1.68
4167.00,1.68
4166.00,1.68
4165.00,1.68
4164.00,1.69
4163.00,1.69
4162.00,1.69
4161.00,1.69
4160.00,1.69
4159.00,1.69
4158.00,1.69
4157.00,1.69
4156.00,1.69
4155.00,1.69
4154.00,1.69
4153.00,1.69
4152.00,1.70
4151.00,1.70
4150.00,1.70
4149.00,1.70
4148.00,1.70
4147.00,1.70
4146.00,1.70
4145.00,1.71
4144.00,1.71
4143.00,1.71
4142.00,1.71
4141.00,1.71
4140.00,1.72
4139.00,1.72
4138.00,1.72
4137.00,1.72
4136.00,1.72
4135.00,1.72
4134.00,1.73
4133.00,1.73
4132.00,1.73
4131.00,1.73
4130.00,1.73
4129.00,1.73
4128.00,1.73
4127.00,1.73
4126.00,1.73
4125.00,1.73
4124.00,1.73
4123.00,1.73
4122.00,1.73
4121.00,1.73
4120.00,1.73
4119.00,1.73
4118.00,1.73
4117.00,1.72
4116.00,1.72
4115.00,1.72
4114.00,1.72
4113.00,1.72
4112.00,1.72
4111.00,1.72
4110.00,1.72
4109.00,1.72
4108.00,1.72
4107.00,1.72
4106.00,1.72
4105.00,1.72
4104.00,1.72
4103.00,1.72
4102.00,1.72
4101.00,1.72
4100.00,1.72
4099.00,1.73
4098.00,1.73
4097.00,1.73
4096.00,1.73
4095.00,1.74
4094.00,1.74
4093.00,1.74
4092.00,1.75
4091.00,1.75
4090.00,1.75
4089.00,1.75
4088.00,1.76
4087.00,1.76
4086.00,1.76
4085.00,1.76
4084.00,1.76
4083.00,1.76
4082.00,1.76
4081.00,1.76
4080.00,1.76
4079.00,1.76
4078.00,1.76
4077.00,1.76
4076.00,1.76
4075.00,1.76
4074.00,1.76
4073.00,1.76
4072.00,1.76
4071.00,1.76
4070.00,1.76
4069.00,1.76
4068.00,1.76
4067.00,1.76
4066.00,1.76
4065.00,1.76
4064.00,1.76
4063.00,1.76
4062.00,1.76
4061.00,1.76
4060.00,1.77
4059.00,1.77
4058.00,1.77
4057.00,1.77
4056.00,1.77
4055.00,1.78
4054.00,1.78
4053.00,1.78
4052.00,1.78
4051.00,1.78
4050.00,1.78
4049.00,1.79
4048.00,1.79
4047.00,1.79
4046.00,1.79
4045.00,1.79
4044.00,1.79
4043.00,1.79
4042.00,1.79
4041.00,1.79
4040.00,1.79
4039.00,1.80
4038.00,1.80
4037.00,1.80
4036.00,1.80
4035.00,1.80
4034.00,1.80
4033.00,1.81
4032.00,1.81
4031.00,1.81
4030.00,1.81
4029.00,1.82
4028.00,1.82
4027.00,1.82
4026.00,1.82
4025.00,1.83
4024.00,1.83
4023.00,1.83
4022.00,1.83
4021.00,1.83
4020.00,1.83
4019.00,1.83
4018.00,1.83
4017.00,1.83
4016.00,1.83
4015.00,1.83
4014.00,1.83
4013.00,1.83
4012.00,1.83
4011.00,1.83
4010.00,1.83
4009.00,1.83
4008.00,1.83
4007.00,1.83
4006.00,1.83
4005.00,1.83
4004.00,1.83
4003.00,1.84
4002.00,1.84
4001.00,1.84
4000.00,1.85
