创建为新数据集,样品 351 用户 Administrator 日期 星期四, 三月 08 2018
cm-1,%T
10000.00,1.84
9999.00,1.84
9998.00,1.84
9997.00,1.84
9996.00,1.84
9995.00,1.84
9994.00,1.84
9993.00,1.84
9992.00,1.84
9991.00,1.84
9990.00,1.84
9989.00,1.84
9988.00,1.84
9987.00,1.84
9986.00,1.84
9985.00,1.84
9984.00,1.83
9983.00,1.83
9982.00,1.82
9981.00,1.82
9980.00,1.81
9979.00,1.81
9978.00,1.80
9977.00,1.80
9976.00,1.79
9975.00,1.79
9974.00,1.79
9973.00,1.78
9972.00,1.78
9971.00,1.78
9970.00,1.78
9969.00,1.78
9968.00,1.79
9967.00,1.79
9966.00,1.79
9965.00,1.79
9964.00,1.80
9963.00,1.80
9962.00,1.80
9961.00,1.81
9960.00,1.81
9959.00,1.81
9958.00,1.81
9957.00,1.82
9956.00,1.82
9955.00,1.82
9954.00,1.82
9953.00,1.81
9952.00,1.81
9951.00,1.81
9950.00,1.81
9949.00,1.81
9948.00,1.80
9947.00,1.80
9946.00,1.80
9945.00,1.80
9944.00,1.79
9943.00,1.79
9942.00,1.79
9941.00,1.79
9940.00,1.79
9939.00,1.79
9938.00,1.79
9937.00,1.79
9936.00,1.79
9935.00,1.79
9934.00,1.79
9933.00,1.79
9932.00,1.79
9931.00,1.79
9930.00,1.79
9929.00,1.80
9928.00,1.80
9927.00,1.80
9926.00,1.80
9925.00,1.80
9924.00,1.79
9923.00,1.79
9922.00,1.79
9921.00,1.79
9920.00,1.79
9919.00,1.79
9918.00,1.78
9917.00,1.78
9916.00,1.78
9915.00,1.78
9914.00,1.78
9913.00,1.77
9912.00,1.77
9911.00,1.77
9910.00,1.77
9909.00,1.77
9908.00,1.77
9907.00,1.77
9906.00,1.77
9905.00,1.77
9904.00,1.77
9903.00,1.78
9902.00,1.78
9901.00,1.78
9900.00,1.78
9899.00,1.78
9898.00,1.78
9897.00,1.78
9896.00,1.79
9895.00,1.79
9894.00,1.79
9893.00,1.79
9892.00,1.79
9891.00,1.79
9890.00,1.79
9889.00,1.80
9888.00,1.80
9887.00,1.80
9886.00,1.80
9885.00,1.80
9884.00,1.81
9883.00,1.81
9882.00,1.81
9881.00,1.81
9880.00,1.81
9879.00,1.81
9878.00,1.82
9877.00,1.82
9876.00,1.82
9875.00,1.82
9874.00,1.82
9873.00,1.82
9872.00,1.82
9871.00,1.82
9870.00,1.82
9869.00,1.82
9868.00,1.82
9867.00,1.82
9866.00,1.82
9865.00,1.82
9864.00,1.81
9863.00,1.81
9862.00,1.81
9861.00,1.81
9860.00,1.81
9859.00,1.81
9858.00,1.80
9857.00,1.80
9856.00,1.80
9855.00,1.80
9854.00,1.80
9853.00,1.80
9852.00,1.80
9851.00,1.80
9850.00,1.80
9849.00,1.80
9848.00,1.80
9847.00,1.80
9846.00,1.80
9845.00,1.80
9844.00,1.80
9843.00,1.81
9842.00,1.81
9841.00,1.81
9840.00,1.81
9839.00,1.81
9838.00,1.81
9837.00,1.81
9836.00,1.81
9835.00,1.81
9834.00,1.81
9833.00,1.81
9832.00,1.81
9831.00,1.81
9830.00,1.81
9829.00,1.80
9828.00,1.80
9827.00,1.80
9826.00,1.80
9825.00,1.79
9824.00,1.79
9823.00,1.79
9822.00,1.79
9821.00,1.79
9820.00,1.79
9819.00,1.78
9818.00,1.78
9817.00,1.79
9816.00,1.79
9815.00,1.79
9814.00,1.79
9813.00,1.79
9812.00,1.79
9811.00,1.80
9810.00,1.80
9809.00,1.80
9808.00,1.80
9807.00,1.80
9806.00,1.80
9805.00,1.80
9804.00,1.80
9803.00,1.80
9802.00,1.80
9801.00,1.80
9800.00,1.80
9799.00,1.80
9798.00,1.80
9797.00,1.79
9796.00,1.79
9795.00,1.79
9794.00,1.79
9793.00,1.79
9792.00,1.78
9791.00,1.78
9790.00,1.78
9789.00,1.78
9788.00,1.78
9787.00,1.78
9786.00,1.78
9785.00,1.78
9784.00,1.78
9783.00,1.78
9782.00,1.78
9781.00,1.78
9780.00,1.78
9779.00,1.78
9778.00,1.78
9777.00,1.78
9776.00,1.78
9775.00,1.78
9774.00,1.78
9773.00,1.79
9772.00,1.79
9771.00,1.79
9770.00,1.79
9769.00,1.79
9768.00,1.79
9767.00,1.79
9766.00,1.79
9765.00,1.79
9764.00,1.79
9763.00,1.80
9762.00,1.80
9761.00,1.80
9760.00,1.80
9759.00,1.80
9758.00,1.80
9757.00,1.80
9756.00,1.80
9755.00,1.80
9754.00,1.80
9753.00,1.80
9752.00,1.80
9751.00,1.80
9750.00,1.80
9749.00,1.80
9748.00,1.80
9747.00,1.80
9746.00,1.80
9745.00,1.80
9744.00,1.80
9743.00,1.80
9742.00,1.80
9741.00,1.80
9740.00,1.80
9739.00,1.80
9738.00,1.80
9737.00,1.80
9736.00,1.80
9735.00,1.80
9734.00,1.80
9733.00,1.80
9732.00,1.80
9731.00,1.81
9730.00,1.81
9729.00,1.81
9728.00,1.81
9727.00,1.81
9726.00,1.81
9725.00,1.81
9724.00,1.81
9723.00,1.81
9722.00,1.81
9721.00,1.81
9720.00,1.81
9719.00,1.81
9718.00,1.81
9717.00,1.81
9716.00,1.81
9715.00,1.81
9714.00,1.81
9713.00,1.81
9712.00,1.81
9711.00,1.81
9710.00,1.81
9709.00,1.81
9708.00,1.81
9707.00,1.81
9706.00,1.81
9705.00,1.81
9704.00,1.81
9703.00,1.81
9702.00,1.81
9701.00,1.81
9700.00,1.80
9699.00,1.80
9698.00,1.80
9697.00,1.80
9696.00,1.80
9695.00,1.80
9694.00,1.80
9693.00,1.80
9692.00,1.80
9691.00,1.80
9690.00,1.80
9689.00,1.80
9688.00,1.80
9687.00,1.80
9686.00,1.80
9685.00,1.80
9684.00,1.80
9683.00,1.80
9682.00,1.80
9681.00,1.80
9680.00,1.80
9679.00,1.81
9678.00,1.81
9677.00,1.81
9676.00,1.81
9675.00,1.81
9674.00,1.81
9673.00,1.82
9672.00,1.82
9671.00,1.82
9670.00,1.82
9669.00,1.82
9668.00,1.82
9667.00,1.82
9666.00,1.82
9665.00,1.82
9664.00,1.82
9663.00,1.82
9662.00,1.82
9661.00,1.82
9660.00,1.82
9659.00,1.82
9658.00,1.81
9657.00,1.81
9656.00,1.81
9655.00,1.81
9654.00,1.81
9653.00,1.80
9652.00,1.80
9651.00,1.80
9650.00,1.80
9649.00,1.80
9648.00,1.80
9647.00,1.80
9646.00,1.80
9645.00,1.79
9644.00,1.79
9643.00,1.79
9642.00,1.79
9641.00,1.79
9640.00,1.79
9639.00,1.79
9638.00,1.79
9637.00,1.79
9636.00,1.79
9635.00,1.79
9634.00,1.79
9633.00,1.79
9632.00,1.79
9631.00,1.79
9630.00,1.80
9629.00,1.80
9628.00,1.80
9627.00,1.80
9626.00,1.80
9625.00,1.80
9624.00,1.80
9623.00,1.80
9622.00,1.80
9621.00,1.80
9620.00,1.80
9619.00,1.80
9618.00,1.80
9617.00,1.80
9616.00,1.80
9615.00,1.80
9614.00,1.80
9613.00,1.80
9612.00,1.81
9611.00,1.81
9610.00,1.81
9609.00,1.81
9608.00,1.82
9607.00,1.82
9606.00,1.82
9605.00,1.82
9604.00,1.82
9603.00,1.82
9602.00,1.82
9601.00,1.82
9600.00,1.82
9599.00,1.82
9598.00,1.82
9597.00,1.82
9596.00,1.82
9595.00,1.82
9594.00,1.81
9593.00,1.81
9592.00,1.81
9591.00,1.81
9590.00,1.81
9589.00,1.81
9588.00,1.80
9587.00,1.80
9586.00,1.80
9585.00,1.80
9584.00,1.80
9583.00,1.80
9582.00,1.80
9581.00,1.80
9580.00,1.80
9579.00,1.80
9578.00,1.80
9577.00,1.81
9576.00,1.81
9575.00,1.81
9574.00,1.81
9573.00,1.81
9572.00,1.81
9571.00,1.81
9570.00,1.81
9569.00,1.81
9568.00,1.81
9567.00,1.81
9566.00,1.81
9565.00,1.81
9564.00,1.81
9563.00,1.81
9562.00,1.81
9561.00,1.81
9560.00,1.81
9559.00,1.81
9558.00,1.81
9557.00,1.81
9556.00,1.81
9555.00,1.81
9554.00,1.81
9553.00,1.81
9552.00,1.81
9551.00,1.81
9550.00,1.81
9549.00,1.81
9548.00,1.82
9547.00,1.82
9546.00,1.82
9545.00,1.82
9544.00,1.83
9543.00,1.83
9542.00,1.83
9541.00,1.83
9540.00,1.84
9539.00,1.84
9538.00,1.84
9537.00,1.84
9536.00,1.84
9535.00,1.84
9534.00,1.84
9533.00,1.84
9532.00,1.84
9531.00,1.84
9530.00,1.84
9529.00,1.84
9528.00,1.84
9527.00,1.84
9526.00,1.83
9525.00,1.83
9524.00,1.83
9523.00,1.83
9522.00,1.83
9521.00,1.82
9520.00,1.82
9519.00,1.82
9518.00,1.82
9517.00,1.81
9516.00,1.81
9515.00,1.81
9514.00,1.81
9513.00,1.81
9512.00,1.81
9511.00,1.81
9510.00,1.81
9509.00,1.81
9508.00,1.81
9507.00,1.81
9506.00,1.81
9505.00,1.81
9504.00,1.81
9503.00,1.81
9502.00,1.81
9501.00,1.81
9500.00,1.82
9499.00,1.82
9498.00,1.82
9497.00,1.82
9496.00,1.82
9495.00,1.82
9494.00,1.82
9493.00,1.82
9492.00,1.82
9491.00,1.81
9490.00,1.81
9489.00,1.81
9488.00,1.81
9487.00,1.81
9486.00,1.81
9485.00,1.80
9484.00,1.80
9483.00,1.80
9482.00,1.80
9481.00,1.80
9480.00,1.80
9479.00,1.80
9478.00,1.80
9477.00,1.80
9476.00,1.80
9475.00,1.80
9474.00,1.80
9473.00,1.80
9472.00,1.80
9471.00,1.80
9470.00,1.80
9469.00,1.80
9468.00,1.80
9467.00,1.80
9466.00,1.80
9465.00,1.80
9464.00,1.80
9463.00,1.80
9462.00,1.80
9461.00,1.80
9460.00,1.80
9459.00,1.80
9458.00,1.80
9457.00,1.80
9456.00,1.80
9455.00,1.80
9454.00,1.80
9453.00,1.80
9452.00,1.80
9451.00,1.80
9450.00,1.80
9449.00,1.80
9448.00,1.80
9447.00,1.80
9446.00,1.80
9445.00,1.80
9444.00,1.80
9443.00,1.80
9442.00,1.80
9441.00,1.80
9440.00,1.80
9439.00,1.79
9438.00,1.79
9437.00,1.79
9436.00,1.79
9435.00,1.79
9434.00,1.79
9433.00,1.79
9432.00,1.79
9431.00,1.79
9430.00,1.79
9429.00,1.79
9428.00,1.79
9427.00,1.79
9426.00,1.79
9425.00,1.79
9424.00,1.79
9423.00,1.79
9422.00,1.79
9421.00,1.80
9420.00,1.80
9419.00,1.80
9418.00,1.80
9417.00,1.80
9416.00,1.81
9415.00,1.81
9414.00,1.81
9413.00,1.81
9412.00,1.81
9411.00,1.81
9410.00,1.82
9409.00,1.82
9408.00,1.82
9407.00,1.82
9406.00,1.82
9405.00,1.82
9404.00,1.82
9403.00,1.82
9402.00,1.82
9401.00,1.81
9400.00,1.81
9399.00,1.81
9398.00,1.81
9397.00,1.81
9396.00,1.81
9395.00,1.81
9394.00,1.81
9393.00,1.81
9392.00,1.81
9391.00,1.81
9390.00,1.81
9389.00,1.81
9388.00,1.81
9387.00,1.81
9386.00,1.81
9385.00,1.81
9384.00,1.81
9383.00,1.81
9382.00,1.80
9381.00,1.80
9380.00,1.80
9379.00,1.80
9378.00,1.80
9377.00,1.80
9376.00,1.80
9375.00,1.80
9374.00,1.80
9373.00,1.80
9372.00,1.80
9371.00,1.80
9370.00,1.81
9369.00,1.81
9368.00,1.81
9367.00,1.81
9366.00,1.81
9365.00,1.81
9364.00,1.81
9363.00,1.81
9362.00,1.81
9361.00,1.81
9360.00,1.81
9359.00,1.81
9358.00,1.81
9357.00,1.81
9356.00,1.81
9355.00,1.81
9354.00,1.81
9353.00,1.81
9352.00,1.81
9351.00,1.81
9350.00,1.81
9349.00,1.81
9348.00,1.81
9347.00,1.80
9346.00,1.80
9345.00,1.80
9344.00,1.80
9343.00,1.80
9342.00,1.80
9341.00,1.80
9340.00,1.80
9339.00,1.80
9338.00,1.80
9337.00,1.80
9336.00,1.80
9335.00,1.80
9334.00,1.80
9333.00,1.80
9332.00,1.80
9331.00,1.80
9330.00,1.80
9329.00,1.80
9328.00,1.80
9327.00,1.80
9326.00,1.80
9325.00,1.80
9324.00,1.80
9323.00,1.80
9322.00,1.80
9321.00,1.80
9320.00,1.81
9319.00,1.80
9318.00,1.80
9317.00,1.80
9316.00,1.80
9315.00,1.80
9314.00,1.80
9313.00,1.80
9312.00,1.80
9311.00,1.80
9310.00,1.80
9309.00,1.80
9308.00,1.80
9307.00,1.80
9306.00,1.80
9305.00,1.80
9304.00,1.80
9303.00,1.80
9302.00,1.80
9301.00,1.80
9300.00,1.80
9299.00,1.80
9298.00,1.80
9297.00,1.80
9296.00,1.80
9295.00,1.80
9294.00,1.80
9293.00,1.80
9292.00,1.80
9291.00,1.80
9290.00,1.80
9289.00,1.80
9288.00,1.80
9287.00,1.80
9286.00,1.80
9285.00,1.80
9284.00,1.80
9283.00,1.80
9282.00,1.80
9281.00,1.80
9280.00,1.80
9279.00,1.80
9278.00,1.80
9277.00,1.80
9276.00,1.80
9275.00,1.80
9274.00,1.81
9273.00,1.81
9272.00,1.81
9271.00,1.81
9270.00,1.81
9269.00,1.81
9268.00,1.81
9267.00,1.81
9266.00,1.81
9265.00,1.82
9264.00,1.82
9263.00,1.82
9262.00,1.82
9261.00,1.82
9260.00,1.82
9259.00,1.81
9258.00,1.81
9257.00,1.81
9256.00,1.81
9255.00,1.81
9254.00,1.81
9253.00,1.80
9252.00,1.80
9251.00,1.80
9250.00,1.80
9249.00,1.80
9248.00,1.80
9247.00,1.79
9246.00,1.79
9245.00,1.79
9244.00,1.79
9243.00,1.79
9242.00,1.80
9241.00,1.80
9240.00,1.80
9239.00,1.80
9238.00,1.80
9237.00,1.80
9236.00,1.81
9235.00,1.81
9234.00,1.81
9233.00,1.81
9232.00,1.81
9231.00,1.82
9230.00,1.82
9229.00,1.82
9228.00,1.82
9227.00,1.82
9226.00,1.82
9225.00,1.82
9224.00,1.83
9223.00,1.83
9222.00,1.83
9221.00,1.83
9220.00,1.83
9219.00,1.83
9218.00,1.83
9217.00,1.83
9216.00,1.83
9215.00,1.83
9214.00,1.83
9213.00,1.83
9212.00,1.83
9211.00,1.83
9210.00,1.83
9209.00,1.83
9208.00,1.83
9207.00,1.82
9206.00,1.82
9205.00,1.82
9204.00,1.82
9203.00,1.81
9202.00,1.81
9201.00,1.80
9200.00,1.80
9199.00,1.80
9198.00,1.80
9197.00,1.79
9196.00,1.79
9195.00,1.79
9194.00,1.79
9193.00,1.79
9192.00,1.79
9191.00,1.79
9190.00,1.79
9189.00,1.79
9188.00,1.79
9187.00,1.79
9186.00,1.79
9185.00,1.79
9184.00,1.79
9183.00,1.80
9182.00,1.80
9181.00,1.80
9180.00,1.80
9179.00,1.80
9178.00,1.80
9177.00,1.80
9176.00,1.80
9175.00,1.81
9174.00,1.81
9173.00,1.81
9172.00,1.81
9171.00,1.81
9170.00,1.81
9169.00,1.81
9168.00,1.81
9167.00,1.81
9166.00,1.81
9165.00,1.81
9164.00,1.81
9163.00,1.81
9162.00,1.81
9161.00,1.81
9160.00,1.81
9159.00,1.81
9158.00,1.81
9157.00,1.81
9156.00,1.80
9155.00,1.80
9154.00,1.80
9153.00,1.80
9152.00,1.80
9151.00,1.80
9150.00,1.79
9149.00,1.79
9148.00,1.79
9147.00,1.79
9146.00,1.79
9145.00,1.79
9144.00,1.79
9143.00,1.79
9142.00,1.79
9141.00,1.79
9140.00,1.79
9139.00,1.79
9138.00,1.79
9137.00,1.79
9136.00,1.79
9135.00,1.80
9134.00,1.80
9133.00,1.80
9132.00,1.80
9131.00,1.80
9130.00,1.81
9129.00,1.81
9128.00,1.81
9127.00,1.81
9126.00,1.81
9125.00,1.82
9124.00,1.82
9123.00,1.82
9122.00,1.82
9121.00,1.82
9120.00,1.82
9119.00,1.82
9118.00,1.82
9117.00,1.82
9116.00,1.82
9115.00,1.82
9114.00,1.82
9113.00,1.82
9112.00,1.82
9111.00,1.82
9110.00,1.82
9109.00,1.82
9108.00,1.81
9107.00,1.81
9106.00,1.81
9105.00,1.81
9104.00,1.81
9103.00,1.81
9102.00,1.81
9101.00,1.81
9100.00,1.81
9099.00,1.81
9098.00,1.81
9097.00,1.81
9096.00,1.81
9095.00,1.81
9094.00,1.81
9093.00,1.81
9092.00,1.81
9091.00,1.81
9090.00,1.81
9089.00,1.81
9088.00,1.81
9087.00,1.81
9086.00,1.81
9085.00,1.81
9084.00,1.81
9083.00,1.82
9082.00,1.82
9081.00,1.82
9080.00,1.82
9079.00,1.82
9078.00,1.82
9077.00,1.82
9076.00,1.82
9075.00,1.82
9074.00,1.82
9073.00,1.82
9072.00,1.82
9071.00,1.82
9070.00,1.82
9069.00,1.82
9068.00,1.82
9067.00,1.82
9066.00,1.82
9065.00,1.82
9064.00,1.82
9063.00,1.82
9062.00,1.82
9061.00,1.81
9060.00,1.81
9059.00,1.81
9058.00,1.81
9057.00,1.81
9056.00,1.81
9055.00,1.81
9054.00,1.81
9053.00,1.81
9052.00,1.81
9051.00,1.81
9050.00,1.81
9049.00,1.81
9048.00,1.81
9047.00,1.81
9046.00,1.81
9045.00,1.81
9044.00,1.82
9043.00,1.82
9042.00,1.82
9041.00,1.82
9040.00,1.82
9039.00,1.82
9038.00,1.82
9037.00,1.82
9036.00,1.82
9035.00,1.82
9034.00,1.82
9033.00,1.82
9032.00,1.82
9031.00,1.82
9030.00,1.82
9029.00,1.82
9028.00,1.82
9027.00,1.82
9026.00,1.82
9025.00,1.82
9024.00,1.83
9023.00,1.83
9022.00,1.83
9021.00,1.83
9020.00,1.83
9019.00,1.84
9018.00,1.84
9017.00,1.84
9016.00,1.84
9015.00,1.84
9014.00,1.84
9013.00,1.84
9012.00,1.84
9011.00,1.84
9010.00,1.84
9009.00,1.84
9008.00,1.84
9007.00,1.84
9006.00,1.83
9005.00,1.83
9004.00,1.83
9003.00,1.83
9002.00,1.83
9001.00,1.82
9000.00,1.82
8999.00,1.82
8998.00,1.82
8997.00,1.82
8996.00,1.82
8995.00,1.81
8994.00,1.81
8993.00,1.81
8992.00,1.81
8991.00,1.81
8990.00,1.81
8989.00,1.81
8988.00,1.81
8987.00,1.81
8986.00,1.80
8985.00,1.80
8984.00,1.80
8983.00,1.80
8982.00,1.80
8981.00,1.80
8980.00,1.80
8979.00,1.80
8978.00,1.80
8977.00,1.80
8976.00,1.80
8975.00,1.80
8974.00,1.80
8973.00,1.81
8972.00,1.81
8971.00,1.81
8970.00,1.81
8969.00,1.81
8968.00,1.81
8967.00,1.81
8966.00,1.81
8965.00,1.81
8964.00,1.81
8963.00,1.81
8962.00,1.81
8961.00,1.81
8960.00,1.81
8959.00,1.81
8958.00,1.81
8957.00,1.81
8956.00,1.81
8955.00,1.81
8954.00,1.81
8953.00,1.81
8952.00,1.81
8951.00,1.81
8950.00,1.81
8949.00,1.81
8948.00,1.81
8947.00,1.81
8946.00,1.81
8945.00,1.81
8944.00,1.81
8943.00,1.81
8942.00,1.81
8941.00,1.81
8940.00,1.81
8939.00,1.81
8938.00,1.81
8937.00,1.81
8936.00,1.81
8935.00,1.81
8934.00,1.81
8933.00,1.81
8932.00,1.81
8931.00,1.81
8930.00,1.81
8929.00,1.81
8928.00,1.81
8927.00,1.81
8926.00,1.82
8925.00,1.82
8924.00,1.82
8923.00,1.82
8922.00,1.82
8921.00,1.82
8920.00,1.82
8919.00,1.82
8918.00,1.82
8917.00,1.82
8916.00,1.82
8915.00,1.82
8914.00,1.81
8913.00,1.81
8912.00,1.81
8911.00,1.81
8910.00,1.81
8909.00,1.81
8908.00,1.81
8907.00,1.81
8906.00,1.81
8905.00,1.81
8904.00,1.81
8903.00,1.81
8902.00,1.81
8901.00,1.81
8900.00,1.81
8899.00,1.81
8898.00,1.82
8897.00,1.82
8896.00,1.82
8895.00,1.82
8894.00,1.82
8893.00,1.82
8892.00,1.82
8891.00,1.82
8890.00,1.82
8889.00,1.82
8888.00,1.82
8887.00,1.82
8886.00,1.82
8885.00,1.82
8884.00,1.82
8883.00,1.82
8882.00,1.82
8881.00,1.82
8880.00,1.82
8879.00,1.82
8878.00,1.82
8877.00,1.82
8876.00,1.82
8875.00,1.82
8874.00,1.82
8873.00,1.82
8872.00,1.82
8871.00,1.82
8870.00,1.82
8869.00,1.82
8868.00,1.82
8867.00,1.82
8866.00,1.82
8865.00,1.82
8864.00,1.82
8863.00,1.82
8862.00,1.82
8861.00,1.82
8860.00,1.81
8859.00,1.81
8858.00,1.81
8857.00,1.81
8856.00,1.81
8855.00,1.80
8854.00,1.80
8853.00,1.80
8852.00,1.80
8851.00,1.80
8850.00,1.79
8849.00,1.79
8848.00,1.79
8847.00,1.79
8846.00,1.79
8845.00,1.79
8844.00,1.78
8843.00,1.78
8842.00,1.78
8841.00,1.78
8840.00,1.78
8839.00,1.78
8838.00,1.78
8837.00,1.78
8836.00,1.78
8835.00,1.78
8834.00,1.78
8833.00,1.78
8832.00,1.78
8831.00,1.78
8830.00,1.78
8829.00,1.79
8828.00,1.79
8827.00,1.79
8826.00,1.79
8825.00,1.79
8824.00,1.79
8823.00,1.79
8822.00,1.79
8821.00,1.79
8820.00,1.79
8819.00,1.79
8818.00,1.79
8817.00,1.79
8816.00,1.79
8815.00,1.79
8814.00,1.79
8813.00,1.79
8812.00,1.79
8811.00,1.79
8810.00,1.79
8809.00,1.79
8808.00,1.79
8807.00,1.79
8806.00,1.79
8805.00,1.79
8804.00,1.79
8803.00,1.79
8802.00,1.79
8801.00,1.79
8800.00,1.79
8799.00,1.79
8798.00,1.79
8797.00,1.79
8796.00,1.79
8795.00,1.79
8794.00,1.79
8793.00,1.79
8792.00,1.79
8791.00,1.79
8790.00,1.79
8789.00,1.79
8788.00,1.79
8787.00,1.78
8786.00,1.78
8785.00,1.78
8784.00,1.78
8783.00,1.78
8782.00,1.78
8781.00,1.77
8780.00,1.77
8779.00,1.77
8778.00,1.76
8777.00,1.76
8776.00,1.76
8775.00,1.76
8774.00,1.75
8773.00,1.75
8772.00,1.75
8771.00,1.75
8770.00,1.74
8769.00,1.74
8768.00,1.74
8767.00,1.74
8766.00,1.74
8765.00,1.74
8764.00,1.74
8763.00,1.74
8762.00,1.74
8761.00,1.74
8760.00,1.74
8759.00,1.74
8758.00,1.74
8757.00,1.75
8756.00,1.75
8755.00,1.75
8754.00,1.75
8753.00,1.75
8752.00,1.75
8751.00,1.75
8750.00,1.76
8749.00,1.76
8748.00,1.76
8747.00,1.76
8746.00,1.75
8745.00,1.75
8744.00,1.75
8743.00,1.75
8742.00,1.74
8741.00,1.74
8740.00,1.74
8739.00,1.73
8738.00,1.73
8737.00,1.73
8736.00,1.72
8735.00,1.72
8734.00,1.72
8733.00,1.71
8732.00,1.71
8731.00,1.71
8730.00,1.71
8729.00,1.71
8728.00,1.71
8727.00,1.71
8726.00,1.71
8725.00,1.71
8724.00,1.71
8723.00,1.71
8722.00,1.71
8721.00,1.72
8720.00,1.72
8719.00,1.72
8718.00,1.72
8717.00,1.73
8716.00,1.73
8715.00,1.73
8714.00,1.73
8713.00,1.73
8712.00,1.73
8711.00,1.73
8710.00,1.73
8709.00,1.73
8708.00,1.73
8707.00,1.73
8706.00,1.72
8705.00,1.72
8704.00,1.72
8703.00,1.72
8702.00,1.71
8701.00,1.71
8700.00,1.71
8699.00,1.71
8698.00,1.71
8697.00,1.71
8696.00,1.71
8695.00,1.71
8694.00,1.71
8693.00,1.71
8692.00,1.71
8691.00,1.71
8690.00,1.71
8689.00,1.71
8688.00,1.71
8687.00,1.71
8686.00,1.71
8685.00,1.71
8684.00,1.71
8683.00,1.72
8682.00,1.72
8681.00,1.72
8680.00,1.72
8679.00,1.71
8678.00,1.71
8677.00,1.71
8676.00,1.71
8675.00,1.71
8674.00,1.71
8673.00,1.71
8672.00,1.71
8671.00,1.70
8670.00,1.70
8669.00,1.70
8668.00,1.70
8667.00,1.70
8666.00,1.70
8665.00,1.70
8664.00,1.70
8663.00,1.70
8662.00,1.70
8661.00,1.70
8660.00,1.70
8659.00,1.70
8658.00,1.70
8657.00,1.70
8656.00,1.70
8655.00,1.70
8654.00,1.70
8653.00,1.70
8652.00,1.70
8651.00,1.70
8650.00,1.70
8649.00,1.70
8648.00,1.70
8647.00,1.70
8646.00,1.70
8645.00,1.70
8644.00,1.70
8643.00,1.70
8642.00,1.70
8641.00,1.70
8640.00,1.70
8639.00,1.69
8638.00,1.69
8637.00,1.69
8636.00,1.69
8635.00,1.69
8634.00,1.69
8633.00,1.69
8632.00,1.69
8631.00,1.68
8630.00,1.68
8629.00,1.68
8628.00,1.68
8627.00,1.68
8626.00,1.68
8625.00,1.68
8624.00,1.68
8623.00,1.68
8622.00,1.68
8621.00,1.68
8620.00,1.68
8619.00,1.68
8618.00,1.68
8617.00,1.68
8616.00,1.68
8615.00,1.68
8614.00,1.68
8613.00,1.68
8612.00,1.68
8611.00,1.68
8610.00,1.68
8609.00,1.68
8608.00,1.68
8607.00,1.68
8606.00,1.68
8605.00,1.68
8604.00,1.67
8603.00,1.67
8602.00,1.67
8601.00,1.67
8600.00,1.67
8599.00,1.67
8598.00,1.67
8597.00,1.67
8596.00,1.67
8595.00,1.67
8594.00,1.67
8593.00,1.67
8592.00,1.67
8591.00,1.67
8590.00,1.67
8589.00,1.67
8588.00,1.67
8587.00,1.67
8586.00,1.67
8585.00,1.67
8584.00,1.67
8583.00,1.66
8582.00,1.66
8581.00,1.66
8580.00,1.66
8579.00,1.66
8578.00,1.65
8577.00,1.65
8576.00,1.65
8575.00,1.65
8574.00,1.65
8573.00,1.65
8572.00,1.64
8571.00,1.64
8570.00,1.64
8569.00,1.64
8568.00,1.64
8567.00,1.64
8566.00,1.64
8565.00,1.64
8564.00,1.64
8563.00,1.64
8562.00,1.64
8561.00,1.64
8560.00,1.64
8559.00,1.64
8558.00,1.64
8557.00,1.64
8556.00,1.64
8555.00,1.64
8554.00,1.64
8553.00,1.64
8552.00,1.64
8551.00,1.64
8550.00,1.64
8549.00,1.63
8548.00,1.63
8547.00,1.63
8546.00,1.63
8545.00,1.63
8544.00,1.63
8543.00,1.63
8542.00,1.63
8541.00,1.63
8540.00,1.63
8539.00,1.62
8538.00,1.62
8537.00,1.62
8536.00,1.62
8535.00,1.62
8534.00,1.62
8533.00,1.62
8532.00,1.62
8531.00,1.63
8530.00,1.63
8529.00,1.63
8528.00,1.63
8527.00,1.62
8526.00,1.62
8525.00,1.62
8524.00,1.62
8523.00,1.62
8522.00,1.62
8521.00,1.62
8520.00,1.62
8519.00,1.62
8518.00,1.62
8517.00,1.61
8516.00,1.61
8515.00,1.61
8514.00,1.61
8513.00,1.61
8512.00,1.61
8511.00,1.61
8510.00,1.61
8509.00,1.61
8508.00,1.61
8507.00,1.61
8506.00,1.61
8505.00,1.60
8504.00,1.60
8503.00,1.60
8502.00,1.60
8501.00,1.60
8500.00,1.60
8499.00,1.60
8498.00,1.59
8497.00,1.59
8496.00,1.59
8495.00,1.59
8494.00,1.58
8493.00,1.58
8492.00,1.58
8491.00,1.57
8490.00,1.57
8489.00,1.57
8488.00,1.57
8487.00,1.56
8486.00,1.56
8485.00,1.56
8484.00,1.56
8483.00,1.56
8482.00,1.56
8481.00,1.55
8480.00,1.55
8479.00,1.55
8478.00,1.55
8477.00,1.55
8476.00,1.55
8475.00,1.55
8474.00,1.54
8473.00,1.54
8472.00,1.54
8471.00,1.54
8470.00,1.54
8469.00,1.54
8468.00,1.54
8467.00,1.54
8466.00,1.54
8465.00,1.54
8464.00,1.54
8463.00,1.54
8462.00,1.54
8461.00,1.54
8460.00,1.54
8459.00,1.54
8458.00,1.53
8457.00,1.53
8456.00,1.53
8455.00,1.53
8454.00,1.53
8453.00,1.53
8452.00,1.53
8451.00,1.53
8450.00,1.53
8449.00,1.53
8448.00,1.53
8447.00,1.52
8446.00,1.52
8445.00,1.52
8444.00,1.52
8443.00,1.52
8442.00,1.52
8441.00,1.52
8440.00,1.52
8439.00,1.52
8438.00,1.52
8437.00,1.52
8436.00,1.52
8435.00,1.52
8434.00,1.52
8433.00,1.52
8432.00,1.52
8431.00,1.52
8430.00,1.52
8429.00,1.52
8428.00,1.53
8427.00,1.53
8426.00,1.53
8425.00,1.53
8424.00,1.53
8423.00,1.53
8422.00,1.53
8421.00,1.53
8420.00,1.53
8419.00,1.53
8418.00,1.53
8417.00,1.53
8416.00,1.53
8415.00,1.53
8414.00,1.53
8413.00,1.53
8412.00,1.53
8411.00,1.54
8410.00,1.54
8409.00,1.54
8408.00,1.54
8407.00,1.54
8406.00,1.54
8405.00,1.54
8404.00,1.54
8403.00,1.54
8402.00,1.54
8401.00,1.54
8400.00,1.54
8399.00,1.55
8398.00,1.55
8397.00,1.55
8396.00,1.55
8395.00,1.55
8394.00,1.55
8393.00,1.56
8392.00,1.56
8391.00,1.56
8390.00,1.56
8389.00,1.56
8388.00,1.56
8387.00,1.56
8386.00,1.56
8385.00,1.56
8384.00,1.57
8383.00,1.57
8382.00,1.57
8381.00,1.57
8380.00,1.57
8379.00,1.57
8378.00,1.57
8377.00,1.57
8376.00,1.57
8375.00,1.57
8374.00,1.57
8373.00,1.57
8372.00,1.58
8371.00,1.58
8370.00,1.58
8369.00,1.58
8368.00,1.58
8367.00,1.58
8366.00,1.58
8365.00,1.59
8364.00,1.59
8363.00,1.59
8362.00,1.59
8361.00,1.59
8360.00,1.59
8359.00,1.59
8358.00,1.59
8357.00,1.59
8356.00,1.59
8355.00,1.59
8354.00,1.59
8353.00,1.59
8352.00,1.59
8351.00,1.59
8350.00,1.59
8349.00,1.59
8348.00,1.59
8347.00,1.59
8346.00,1.59
8345.00,1.59
8344.00,1.59
8343.00,1.59
8342.00,1.59
8341.00,1.59
8340.00,1.59
8339.00,1.59
8338.00,1.59
8337.00,1.59
8336.00,1.59
8335.00,1.59
8334.00,1.59
8333.00,1.59
8332.00,1.59
8331.00,1.59
8330.00,1.59
8329.00,1.59
8328.00,1.59
8327.00,1.59
8326.00,1.59
8325.00,1.59
8324.00,1.59
8323.00,1.60
8322.00,1.60
8321.00,1.60
8320.00,1.60
8319.00,1.60
8318.00,1.60
8317.00,1.60
8316.00,1.60
8315.00,1.60
8314.00,1.60
8313.00,1.60
8312.00,1.60
8311.00,1.60
8310.00,1.60
8309.00,1.61
8308.00,1.61
8307.00,1.61
8306.00,1.61
8305.00,1.61
8304.00,1.61
8303.00,1.61
8302.00,1.61
8301.00,1.61
8300.00,1.61
8299.00,1.61
8298.00,1.61
8297.00,1.61
8296.00,1.61
8295.00,1.61
8294.00,1.61
8293.00,1.61
8292.00,1.61
8291.00,1.61
8290.00,1.61
8289.00,1.61
8288.00,1.61
8287.00,1.61
8286.00,1.61
8285.00,1.61
8284.00,1.61
8283.00,1.61
8282.00,1.61
8281.00,1.61
8280.00,1.61
8279.00,1.61
8278.00,1.61
8277.00,1.61
8276.00,1.61
8275.00,1.61
8274.00,1.61
8273.00,1.61
8272.00,1.61
8271.00,1.61
8270.00,1.61
8269.00,1.61
8268.00,1.61
8267.00,1.61
8266.00,1.62
8265.00,1.62
8264.00,1.62
8263.00,1.62
8262.00,1.62
8261.00,1.62
8260.00,1.62
8259.00,1.62
8258.00,1.62
8257.00,1.62
8256.00,1.62
8255.00,1.63
8254.00,1.63
8253.00,1.63
8252.00,1.63
8251.00,1.63
8250.00,1.63
8249.00,1.63
8248.00,1.63
8247.00,1.63
8246.00,1.63
8245.00,1.64
8244.00,1.64
8243.00,1.64
8242.00,1.64
8241.00,1.64
8240.00,1.64
8239.00,1.64
8238.00,1.64
8237.00,1.64
8236.00,1.64
8235.00,1.64
8234.00,1.64
8233.00,1.64
8232.00,1.64
8231.00,1.64
8230.00,1.64
8229.00,1.64
8228.00,1.64
8227.00,1.64
8226.00,1.64
8225.00,1.64
8224.00,1.64
8223.00,1.64
8222.00,1.64
8221.00,1.64
8220.00,1.64
8219.00,1.65
8218.00,1.65
8217.00,1.65
8216.00,1.65
8215.00,1.65
8214.00,1.65
8213.00,1.65
8212.00,1.65
8211.00,1.66
8210.00,1.66
8209.00,1.66
8208.00,1.66
8207.00,1.66
8206.00,1.66
8205.00,1.66
8204.00,1.66
8203.00,1.66
8202.00,1.66
8201.00,1.66
8200.00,1.66
8199.00,1.67
8198.00,1.67
8197.00,1.67
8196.00,1.67
8195.00,1.67
8194.00,1.67
8193.00,1.67
8192.00,1.67
8191.00,1.67
8190.00,1.67
8189.00,1.67
8188.00,1.67
8187.00,1.67
8186.00,1.67
8185.00,1.67
8184.00,1.67
8183.00,1.67
8182.00,1.67
8181.00,1.67
8180.00,1.67
8179.00,1.67
8178.00,1.67
8177.00,1.67
8176.00,1.67
8175.00,1.67
8174.00,1.67
8173.00,1.67
8172.00,1.67
8171.00,1.67
8170.00,1.67
8169.00,1.67
8168.00,1.68
8167.00,1.68
8166.00,1.68
8165.00,1.68
8164.00,1.68
8163.00,1.68
8162.00,1.68
8161.00,1.68
8160.00,1.68
8159.00,1.68
8158.00,1.68
8157.00,1.68
8156.00,1.68
8155.00,1.68
8154.00,1.68
8153.00,1.68
8152.00,1.68
8151.00,1.68
8150.00,1.68
8149.00,1.69
8148.00,1.69
8147.00,1.69
8146.00,1.69
8145.00,1.70
8144.00,1.70
8143.00,1.70
8142.00,1.70
8141.00,1.71
8140.00,1.71
8139.00,1.71
8138.00,1.71
8137.00,1.71
8136.00,1.71
8135.00,1.71
8134.00,1.72
8133.00,1.72
8132.00,1.72
8131.00,1.72
8130.00,1.72
8129.00,1.72
8128.00,1.72
8127.00,1.72
8126.00,1.72
8125.00,1.72
8124.00,1.72
8123.00,1.72
8122.00,1.72
8121.00,1.72
8120.00,1.72
8119.00,1.73
8118.00,1.73
8117.00,1.73
8116.00,1.73
8115.00,1.73
8114.00,1.73
8113.00,1.73
8112.00,1.73
8111.00,1.73
8110.00,1.73
8109.00,1.73
8108.00,1.73
8107.00,1.73
8106.00,1.73
8105.00,1.73
8104.00,1.73
8103.00,1.73
8102.00,1.73
8101.00,1.73
8100.00,1.73
8099.00,1.73
8098.00,1.72
8097.00,1.72
8096.00,1.72
8095.00,1.72
8094.00,1.72
8093.00,1.72
8092.00,1.72
8091.00,1.72
8090.00,1.73
8089.00,1.73
8088.00,1.73
8087.00,1.73
8086.00,1.73
8085.00,1.73
8084.00,1.73
8083.00,1.73
8082.00,1.73
8081.00,1.73
8080.00,1.73
8079.00,1.73
8078.00,1.74
8077.00,1.74
8076.00,1.74
8075.00,1.74
8074.00,1.74
8073.00,1.74
8072.00,1.74
8071.00,1.74
8070.00,1.74
8069.00,1.74
8068.00,1.74
8067.00,1.74
8066.00,1.74
8065.00,1.74
8064.00,1.74
8063.00,1.74
8062.00,1.74
8061.00,1.74
8060.00,1.74
8059.00,1.74
8058.00,1.74
8057.00,1.74
8056.00,1.74
8055.00,1.74
8054.00,1.74
8053.00,1.74
8052.00,1.74
8051.00,1.74
8050.00,1.74
8049.00,1.74
8048.00,1.74
8047.00,1.74
8046.00,1.74
8045.00,1.74
8044.00,1.74
8043.00,1.74
8042.00,1.74
8041.00,1.74
8040.00,1.74
8039.00,1.75
8038.00,1.75
8037.00,1.75
8036.00,1.75
8035.00,1.75
8034.00,1.75
8033.00,1.75
8032.00,1.75
8031.00,1.75
8030.00,1.75
8029.00,1.75
8028.00,1.75
8027.00,1.75
8026.00,1.75
8025.00,1.75
8024.00,1.75
8023.00,1.76
8022.00,1.76
8021.00,1.76
8020.00,1.76
8019.00,1.76
8018.00,1.76
8017.00,1.76
8016.00,1.76
8015.00,1.76
8014.00,1.76
8013.00,1.76
8012.00,1.76
8011.00,1.76
8010.00,1.76
8009.00,1.76
8008.00,1.76
8007.00,1.76
8006.00,1.76
8005.00,1.76
8004.00,1.76
8003.00,1.76
8002.00,1.76
8001.00,1.76
8000.00,1.76
7999.00,1.77
7998.00,1.77
7997.00,1.77
7996.00,1.77
7995.00,1.77
7994.00,1.77
7993.00,1.77
7992.00,1.77
7991.00,1.77
7990.00,1.77
7989.00,1.77
7988.00,1.77
7987.00,1.77
7986.00,1.77
7985.00,1.77
7984.00,1.77
7983.00,1.77
7982.00,1.77
7981.00,1.77
7980.00,1.77
7979.00,1.77
7978.00,1.77
7977.00,1.77
7976.00,1.77
7975.00,1.77
7974.00,1.77
7973.00,1.77
7972.00,1.77
7971.00,1.77
7970.00,1.77
7969.00,1.77
7968.00,1.77
7967.00,1.77
7966.00,1.77
7965.00,1.77
7964.00,1.77
7963.00,1.77
7962.00,1.78
7961.00,1.78
7960.00,1.78
7959.00,1.78
7958.00,1.78
7957.00,1.78
7956.00,1.78
7955.00,1.78
7954.00,1.78
7953.00,1.78
7952.00,1.78
7951.00,1.78
7950.00,1.78
7949.00,1.78
7948.00,1.78
7947.00,1.78
7946.00,1.78
7945.00,1.78
7944.00,1.78
7943.00,1.78
7942.00,1.78
7941.00,1.78
7940.00,1.78
7939.00,1.78
7938.00,1.78
7937.00,1.78
7936.00,1.78
7935.00,1.78
7934.00,1.78
7933.00,1.78
7932.00,1.78
7931.00,1.78
7930.00,1.79
7929.00,1.79
7928.00,1.79
7927.00,1.79
7926.00,1.79
7925.00,1.79
7924.00,1.79
7923.00,1.79
7922.00,1.79
7921.00,1.79
7920.00,1.80
7919.00,1.80
7918.00,1.80
7917.00,1.80
7916.00,1.80
7915.00,1.80
7914.00,1.80
7913.00,1.80
7912.00,1.80
7911.00,1.80
7910.00,1.80
7909.00,1.80
7908.00,1.80
7907.00,1.80
7906.00,1.80
7905.00,1.80
7904.00,1.80
7903.00,1.80
7902.00,1.80
7901.00,1.80
7900.00,1.80
7899.00,1.80
7898.00,1.80
7897.00,1.80
7896.00,1.80
7895.00,1.80
7894.00,1.80
7893.00,1.80
7892.00,1.80
7891.00,1.80
7890.00,1.80
7889.00,1.81
7888.00,1.81
7887.00,1.81
7886.00,1.81
7885.00,1.81
7884.00,1.81
7883.00,1.81
7882.00,1.81
7881.00,1.81
7880.00,1.81
7879.00,1.81
7878.00,1.81
7877.00,1.81
7876.00,1.81
7875.00,1.81
7874.00,1.81
7873.00,1.80
7872.00,1.80
7871.00,1.80
7870.00,1.80
7869.00,1.80
7868.00,1.80
7867.00,1.80
7866.00,1.80
7865.00,1.80
7864.00,1.80
7863.00,1.80
7862.00,1.80
7861.00,1.80
7860.00,1.80
7859.00,1.80
7858.00,1.80
7857.00,1.80
7856.00,1.80
7855.00,1.80
7854.00,1.80
7853.00,1.80
7852.00,1.80
7851.00,1.80
7850.00,1.80
7849.00,1.80
7848.00,1.80
7847.00,1.80
7846.00,1.80
7845.00,1.80
7844.00,1.80
7843.00,1.80
7842.00,1.80
7841.00,1.80
7840.00,1.81
7839.00,1.81
7838.00,1.81
7837.00,1.81
7836.00,1.81
7835.00,1.81
7834.00,1.81
7833.00,1.81
7832.00,1.81
7831.00,1.81
7830.00,1.81
7829.00,1.81
7828.00,1.81
7827.00,1.81
7826.00,1.81
7825.00,1.81
7824.00,1.81
7823.00,1.82
7822.00,1.82
7821.00,1.82
7820.00,1.82
7819.00,1.82
7818.00,1.82
7817.00,1.82
7816.00,1.82
7815.00,1.82
7814.00,1.82
7813.00,1.82
7812.00,1.82
7811.00,1.82
7810.00,1.82
7809.00,1.82
7808.00,1.82
7807.00,1.82
7806.00,1.82
7805.00,1.82
7804.00,1.82
7803.00,1.82
7802.00,1.82
7801.00,1.82
7800.00,1.82
7799.00,1.82
7798.00,1.82
7797.00,1.82
7796.00,1.82
7795.00,1.82
7794.00,1.82
7793.00,1.82
7792.00,1.82
7791.00,1.83
7790.00,1.83
7789.00,1.83
7788.00,1.83
7787.00,1.83
7786.00,1.83
7785.00,1.83
7784.00,1.83
7783.00,1.83
7782.00,1.83
7781.00,1.83
7780.00,1.83
7779.00,1.83
7778.00,1.83
7777.00,1.83
7776.00,1.83
7775.00,1.83
7774.00,1.83
7773.00,1.83
7772.00,1.83
7771.00,1.83
7770.00,1.83
7769.00,1.83
7768.00,1.83
7767.00,1.83
7766.00,1.83
7765.00,1.83
7764.00,1.83
7763.00,1.83
7762.00,1.83
7761.00,1.84
7760.00,1.84
7759.00,1.84
7758.00,1.84
7757.00,1.84
7756.00,1.84
7755.00,1.84
7754.00,1.84
7753.00,1.84
7752.00,1.84
7751.00,1.84
7750.00,1.84
7749.00,1.84
7748.00,1.84
7747.00,1.84
7746.00,1.84
7745.00,1.84
7744.00,1.84
7743.00,1.83
7742.00,1.83
7741.00,1.83
7740.00,1.83
7739.00,1.83
7738.00,1.83
7737.00,1.83
7736.00,1.83
7735.00,1.83
7734.00,1.83
7733.00,1.83
7732.00,1.83
7731.00,1.83
7730.00,1.83
7729.00,1.83
7728.00,1.83
7727.00,1.83
7726.00,1.83
7725.00,1.83
7724.00,1.83
7723.00,1.83
7722.00,1.83
7721.00,1.83
7720.00,1.83
7719.00,1.83
7718.00,1.83
7717.00,1.83
7716.00,1.83
7715.00,1.83
7714.00,1.83
7713.00,1.83
7712.00,1.83
7711.00,1.83
7710.00,1.83
7709.00,1.83
7708.00,1.83
7707.00,1.83
7706.00,1.83
7705.00,1.83
7704.00,1.83
7703.00,1.83
7702.00,1.83
7701.00,1.83
7700.00,1.83
7699.00,1.84
7698.00,1.84
7697.00,1.84
7696.00,1.84
7695.00,1.84
7694.00,1.84
7693.00,1.84
7692.00,1.84
7691.00,1.84
7690.00,1.84
7689.00,1.84
7688.00,1.84
7687.00,1.84
7686.00,1.84
7685.00,1.84
7684.00,1.84
7683.00,1.84
7682.00,1.84
7681.00,1.84
7680.00,1.84
7679.00,1.84
7678.00,1.84
7677.00,1.83
7676.00,1.83
7675.00,1.83
7674.00,1.83
7673.00,1.83
7672.00,1.83
7671.00,1.83
7670.00,1.83
7669.00,1.83
7668.00,1.83
7667.00,1.83
7666.00,1.83
7665.00,1.83
7664.00,1.83
7663.00,1.83
7662.00,1.83
7661.00,1.83
7660.00,1.84
7659.00,1.84
7658.00,1.84
7657.00,1.84
7656.00,1.84
7655.00,1.84
7654.00,1.84
7653.00,1.84
7652.00,1.84
7651.00,1.84
7650.00,1.84
7649.00,1.84
7648.00,1.84
7647.00,1.84
7646.00,1.84
7645.00,1.84
7644.00,1.84
7643.00,1.84
7642.00,1.84
7641.00,1.84
7640.00,1.84
7639.00,1.84
7638.00,1.84
7637.00,1.84
7636.00,1.84
7635.00,1.84
7634.00,1.84
7633.00,1.84
7632.00,1.84
7631.00,1.84
7630.00,1.84
7629.00,1.84
7628.00,1.84
7627.00,1.84
7626.00,1.84
7625.00,1.84
7624.00,1.84
7623.00,1.83
7622.00,1.83
7621.00,1.83
7620.00,1.83
7619.00,1.83
7618.00,1.83
7617.00,1.83
7616.00,1.83
7615.00,1.83
7614.00,1.83
7613.00,1.83
7612.00,1.83
7611.00,1.83
7610.00,1.83
7609.00,1.83
7608.00,1.83
7607.00,1.83
7606.00,1.83
7605.00,1.83
7604.00,1.83
7603.00,1.83
7602.00,1.83
7601.00,1.83
7600.00,1.83
7599.00,1.83
7598.00,1.83
7597.00,1.83
7596.00,1.83
7595.00,1.83
7594.00,1.83
7593.00,1.83
7592.00,1.83
7591.00,1.83
7590.00,1.83
7589.00,1.84
7588.00,1.84
7587.00,1.84
7586.00,1.84
7585.00,1.84
7584.00,1.84
7583.00,1.84
7582.00,1.84
7581.00,1.84
7580.00,1.84
7579.00,1.84
7578.00,1.84
7577.00,1.84
7576.00,1.84
7575.00,1.84
7574.00,1.84
7573.00,1.84
7572.00,1.84
7571.00,1.84
7570.00,1.84
7569.00,1.84
7568.00,1.84
7567.00,1.84
7566.00,1.84
7565.00,1.84
7564.00,1.84
7563.00,1.84
7562.00,1.84
7561.00,1.84
7560.00,1.84
7559.00,1.84
7558.00,1.84
7557.00,1.84
7556.00,1.84
7555.00,1.84
7554.00,1.83
7553.00,1.83
7552.00,1.83
7551.00,1.83
7550.00,1.83
7549.00,1.83
7548.00,1.83
7547.00,1.83
7546.00,1.83
7545.00,1.83
7544.00,1.83
7543.00,1.83
7542.00,1.83
7541.00,1.83
7540.00,1.83
7539.00,1.83
7538.00,1.83
7537.00,1.83
7536.00,1.83
7535.00,1.83
7534.00,1.83
7533.00,1.83
7532.00,1.82
7531.00,1.82
7530.00,1.82
7529.00,1.82
7528.00,1.82
7527.00,1.82
7526.00,1.82
7525.00,1.82
7524.00,1.82
7523.00,1.81
7522.00,1.81
7521.00,1.81
7520.00,1.81
7519.00,1.81
7518.00,1.81
7517.00,1.81
7516.00,1.81
7515.00,1.81
7514.00,1.81
7513.00,1.81
7512.00,1.81
7511.00,1.81
7510.00,1.81
7509.00,1.81
7508.00,1.81
7507.00,1.81
7506.00,1.81
7505.00,1.81
7504.00,1.80
7503.00,1.80
7502.00,1.80
7501.00,1.80
7500.00,1.80
7499.00,1.80
7498.00,1.80
7497.00,1.80
7496.00,1.80
7495.00,1.79
7494.00,1.79
7493.00,1.79
7492.00,1.79
7491.00,1.79
7490.00,1.79
7489.00,1.79
7488.00,1.79
7487.00,1.79
7486.00,1.79
7485.00,1.79
7484.00,1.79
7483.00,1.79
7482.00,1.79
7481.00,1.79
7480.00,1.79
7479.00,1.79
7478.00,1.79
7477.00,1.79
7476.00,1.79
7475.00,1.79
7474.00,1.79
7473.00,1.79
7472.00,1.79
7471.00,1.79
7470.00,1.79
7469.00,1.79
7468.00,1.79
7467.00,1.79
7466.00,1.79
7465.00,1.79
7464.00,1.78
7463.00,1.78
7462.00,1.78
7461.00,1.78
7460.00,1.78
7459.00,1.78
7458.00,1.77
7457.00,1.77
7456.00,1.77
7455.00,1.77
7454.00,1.77
7453.00,1.76
7452.00,1.76
7451.00,1.76
7450.00,1.76
7449.00,1.76
7448.00,1.76
7447.00,1.76
7446.00,1.75
7445.00,1.75
7444.00,1.75
7443.00,1.75
7442.00,1.75
7441.00,1.75
7440.00,1.75
7439.00,1.75
7438.00,1.75
7437.00,1.75
7436.00,1.75
7435.00,1.75
7434.00,1.75
7433.00,1.74
7432.00,1.74
7431.00,1.74
7430.00,1.74
7429.00,1.74
7428.00,1.74
7427.00,1.74
7426.00,1.74
7425.00,1.74
7424.00,1.74
7423.00,1.74
7422.00,1.74
7421.00,1.73
7420.00,1.73
7419.00,1.73
7418.00,1.73
7417.00,1.73
7416.00,1.73
7415.00,1.73
7414.00,1.72
7413.00,1.72
7412.00,1.72
7411.00,1.72
7410.00,1.72
7409.00,1.71
7408.00,1.71
7407.00,1.71
7406.00,1.71
7405.00,1.70
7404.00,1.70
7403.00,1.70
7402.00,1.70
7401.00,1.69
7400.00,1.69
7399.00,1.69
7398.00,1.69
7397.00,1.68
7396.00,1.68
7395.00,1.68
7394.00,1.68
7393.00,1.68
7392.00,1.67
7391.00,1.67
7390.00,1.67
7389.00,1.67
7388.00,1.67
7387.00,1.66
7386.00,1.66
7385.00,1.66
7384.00,1.66
7383.00,1.66
7382.00,1.65
7381.00,1.65
7380.00,1.65
7379.00,1.65
7378.00,1.65
7377.00,1.64
7376.00,1.64
7375.00,1.64
7374.00,1.64
7373.00,1.64
7372.00,1.64
7371.00,1.64
7370.00,1.64
7369.00,1.64
7368.00,1.64
7367.00,1.64
7366.00,1.64
7365.00,1.64
7364.00,1.64
7363.00,1.63
7362.00,1.63
7361.00,1.63
7360.00,1.63
7359.00,1.63
7358.00,1.63
7357.00,1.62
7356.00,1.62
7355.00,1.62
7354.00,1.62
7353.00,1.62
7352.00,1.62
7351.00,1.61
7350.00,1.61
7349.00,1.61
7348.00,1.61
7347.00,1.61
7346.00,1.61
7345.00,1.61
7344.00,1.61
7343.00,1.61
7342.00,1.61
7341.00,1.61
7340.00,1.61
7339.00,1.60
7338.00,1.61
7337.00,1.61
7336.00,1.61
7335.00,1.61
7334.00,1.61
7333.00,1.61
7332.00,1.61
7331.00,1.61
7330.00,1.61
7329.00,1.61
7328.00,1.61
7327.00,1.61
7326.00,1.61
7325.00,1.62
7324.00,1.62
7323.00,1.62
7322.00,1.62
7321.00,1.62
7320.00,1.62
7319.00,1.62
7318.00,1.62
7317.00,1.61
7316.00,1.61
7315.00,1.61
7314.00,1.61
7313.00,1.61
7312.00,1.61
7311.00,1.61
7310.00,1.60
7309.00,1.60
7308.00,1.60
7307.00,1.60
7306.00,1.60
7305.00,1.59
7304.00,1.59
7303.00,1.59
7302.00,1.59
7301.00,1.59
7300.00,1.58
7299.00,1.58
7298.00,1.58
7297.00,1.58
7296.00,1.57
7295.00,1.57
7294.00,1.57
7293.00,1.57
7292.00,1.57
7291.00,1.56
7290.00,1.56
7289.00,1.56
7288.00,1.56
7287.00,1.56
7286.00,1.56
7285.00,1.55
7284.00,1.55
7283.00,1.55
7282.00,1.55
7281.00,1.55
7280.00,1.55
7279.00,1.55
7278.00,1.55
7277.00,1.55
7276.00,1.55
7275.00,1.55
7274.00,1.55
7273.00,1.55
7272.00,1.55
7271.00,1.55
7270.00,1.55
7269.00,1.54
7268.00,1.54
7267.00,1.54
7266.00,1.54
7265.00,1.54
7264.00,1.54
7263.00,1.53
7262.00,1.53
7261.00,1.53
7260.00,1.52
7259.00,1.52
7258.00,1.52
7257.00,1.51
7256.00,1.51
7255.00,1.51
7254.00,1.50
7253.00,1.50
7252.00,1.49
7251.00,1.49
7250.00,1.49
7249.00,1.48
7248.00,1.48
7247.00,1.47
7246.00,1.47
7245.00,1.47
7244.00,1.46
7243.00,1.46
7242.00,1.45
7241.00,1.45
7240.00,1.45
7239.00,1.44
7238.00,1.44
7237.00,1.44
7236.00,1.43
7235.00,1.43
7234.00,1.43
7233.00,1.42
7232.00,1.42
7231.00,1.41
7230.00,1.41
7229.00,1.41
7228.00,1.40
7227.00,1.40
7226.00,1.39
7225.00,1.39
7224.00,1.38
7223.00,1.38
7222.00,1.38
7221.00,1.37
7220.00,1.37
7219.00,1.36
7218.00,1.36
7217.00,1.35
7216.00,1.35
7215.00,1.34
7214.00,1.34
7213.00,1.33
7212.00,1.32
7211.00,1.32
7210.00,1.31
7209.00,1.31
7208.00,1.30
7207.00,1.30
7206.00,1.29
7205.00,1.29
7204.00,1.28
7203.00,1.28
7202.00,1.27
7201.00,1.27
7200.00,1.26
7199.00,1.26
7198.00,1.25
7197.00,1.25
7196.00,1.25
7195.00,1.24
7194.00,1.24
7193.00,1.23
7192.00,1.23
7191.00,1.22
7190.00,1.22
7189.00,1.21
7188.00,1.21
7187.00,1.20
7186.00,1.20
7185.00,1.19
7184.00,1.19
7183.00,1.18
7182.00,1.18
7181.00,1.18
7180.00,1.17
7179.00,1.17
7178.00,1.16
7177.00,1.16
7176.00,1.16
7175.00,1.15
7174.00,1.15
7173.00,1.15
7172.00,1.14
7171.00,1.14
7170.00,1.14
7169.00,1.14
7168.00,1.13
7167.00,1.13
7166.00,1.13
7165.00,1.13
7164.00,1.13
7163.00,1.12
7162.00,1.12
7161.00,1.12
7160.00,1.12
7159.00,1.12
7158.00,1.11
7157.00,1.11
7156.00,1.11
7155.00,1.10
7154.00,1.10
7153.00,1.10
7152.00,1.09
7151.00,1.09
7150.00,1.08
7149.00,1.08
7148.00,1.08
7147.00,1.07
7146.00,1.07
7145.00,1.06
7144.00,1.06
7143.00,1.05
7142.00,1.05
7141.00,1.05
7140.00,1.04
7139.00,1.04
7138.00,1.03
7137.00,1.03
7136.00,1.03
7135.00,1.02
7134.00,1.02
7133.00,1.02
7132.00,1.01
7131.00,1.01
7130.00,1.00
7129.00,1.00
7128.00,1.00
7127.00,0.99
7126.00,0.99
7125.00,0.99
7124.00,0.98
7123.00,0.98
7122.00,0.97
7121.00,0.97
7120.00,0.97
7119.00,0.96
7118.00,0.96
7117.00,0.96
7116.00,0.95
7115.00,0.95
7114.00,0.95
7113.00,0.94
7112.00,0.94
7111.00,0.94
7110.00,0.93
7109.00,0.93
7108.00,0.93
7107.00,0.92
7106.00,0.92
7105.00,0.92
7104.00,0.91
7103.00,0.91
7102.00,0.90
7101.00,0.90
7100.00,0.89
7099.00,0.89
7098.00,0.89
7097.00,0.88
7096.00,0.88
7095.00,0.88
7094.00,0.87
7093.00,0.87
7092.00,0.87
7091.00,0.86
7090.00,0.86
7089.00,0.86
7088.00,0.85
7087.00,0.85
7086.00,0.85
7085.00,0.85
7084.00,0.84
7083.00,0.84
7082.00,0.84
7081.00,0.84
7080.00,0.84
7079.00,0.83
7078.00,0.83
7077.00,0.83
7076.00,0.83
7075.00,0.82
7074.00,0.82
7073.00,0.82
7072.00,0.82
7071.00,0.82
7070.00,0.81
7069.00,0.81
7068.00,0.81
7067.00,0.81
7066.00,0.81
7065.00,0.81
7064.00,0.80
7063.00,0.80
7062.00,0.80
7061.00,0.80
7060.00,0.80
7059.00,0.80
7058.00,0.80
7057.00,0.79
7056.00,0.79
7055.00,0.79
7054.00,0.79
7053.00,0.79
7052.00,0.79
7051.00,0.79
7050.00,0.79
7049.00,0.79
7048.00,0.78
7047.00,0.78
7046.00,0.78
7045.00,0.78
7044.00,0.78
7043.00,0.78
7042.00,0.77
7041.00,0.77
7040.00,0.77
7039.00,0.77
7038.00,0.76
7037.00,0.76
7036.00,0.76
7035.00,0.76
7034.00,0.76
7033.00,0.75
7032.00,0.75
7031.00,0.75
7030.00,0.75
7029.00,0.75
7028.00,0.75
7027.00,0.75
7026.00,0.75
7025.00,0.75
7024.00,0.75
7023.00,0.75
7022.00,0.74
7021.00,0.74
7020.00,0.74
7019.00,0.74
7018.00,0.74
7017.00,0.74
7016.00,0.74
7015.00,0.74
7014.00,0.74
7013.00,0.74
7012.00,0.74
7011.00,0.73
7010.00,0.73
7009.00,0.73
7008.00,0.73
7007.00,0.73
7006.00,0.73
7005.00,0.72
7004.00,0.72
7003.00,0.72
7002.00,0.72
7001.00,0.72
7000.00,0.72
6999.00,0.72
6998.00,0.71
6997.00,0.71
6996.00,0.71
6995.00,0.71
6994.00,0.71
6993.00,0.71
6992.00,0.71
6991.00,0.71
6990.00,0.71
6989.00,0.71
6988.00,0.71
6987.00,0.71
6986.00,0.71
6985.00,0.71
6984.00,0.70
6983.00,0.70
6982.00,0.70
6981.00,0.70
6980.00,0.70
6979.00,0.70
6978.00,0.70
6977.00,0.70
6976.00,0.70
6975.00,0.70
6974.00,0.70
6973.00,0.70
6972.00,0.70
6971.00,0.70
6970.00,0.70
6969.00,0.70
6968.00,0.70
6967.00,0.70
6966.00,0.70
6965.00,0.70
6964.00,0.70
6963.00,0.70
6962.00,0.70
6961.00,0.69
6960.00,0.69
6959.00,0.69
6958.00,0.69
6957.00,0.69
6956.00,0.69
6955.00,0.69
6954.00,0.68
6953.00,0.68
6952.00,0.68
6951.00,0.68
6950.00,0.68
6949.00,0.68
6948.00,0.68
6947.00,0.68
6946.00,0.68
6945.00,0.68
6944.00,0.68
6943.00,0.68
6942.00,0.67
6941.00,0.67
6940.00,0.67
6939.00,0.67
6938.00,0.67
6937.00,0.67
6936.00,0.67
6935.00,0.67
6934.00,0.67
6933.00,0.67
6932.00,0.67
6931.00,0.67
6930.00,0.66
6929.00,0.66
6928.00,0.66
6927.00,0.66
6926.00,0.66
6925.00,0.66
6924.00,0.66
6923.00,0.66
6922.00,0.66
6921.00,0.66
6920.00,0.66
6919.00,0.66
6918.00,0.66
6917.00,0.66
6916.00,0.66
6915.00,0.66
6914.00,0.66
6913.00,0.66
6912.00,0.66
6911.00,0.66
6910.00,0.66
6909.00,0.66
6908.00,0.66
6907.00,0.66
6906.00,0.66
6905.00,0.66
6904.00,0.66
6903.00,0.66
6902.00,0.66
6901.00,0.66
6900.00,0.66
6899.00,0.66
6898.00,0.66
6897.00,0.66
6896.00,0.66
6895.00,0.66
6894.00,0.66
6893.00,0.66
6892.00,0.66
6891.00,0.66
6890.00,0.66
6889.00,0.66
6888.00,0.66
6887.00,0.66
6886.00,0.66
6885.00,0.66
6884.00,0.66
6883.00,0.66
6882.00,0.66
6881.00,0.66
6880.00,0.66
6879.00,0.66
6878.00,0.66
6877.00,0.66
6876.00,0.66
6875.00,0.66
6874.00,0.66
6873.00,0.66
6872.00,0.66
6871.00,0.66
6870.00,0.66
6869.00,0.66
6868.00,0.66
6867.00,0.66
6866.00,0.66
6865.00,0.66
6864.00,0.66
6863.00,0.66
6862.00,0.66
6861.00,0.66
6860.00,0.66
6859.00,0.66
6858.00,0.66
6857.00,0.66
6856.00,0.66
6855.00,0.66
6854.00,0.66
6853.00,0.66
6852.00,0.66
6851.00,0.66
6850.00,0.66
6849.00,0.66
6848.00,0.66
6847.00,0.66
6846.00,0.66
6845.00,0.66
6844.00,0.66
6843.00,0.66
6842.00,0.66
6841.00,0.66
6840.00,0.66
6839.00,0.66
6838.00,0.66
6837.00,0.66
6836.00,0.66
6835.00,0.66
6834.00,0.66
6833.00,0.66
6832.00,0.66
6831.00,0.66
6830.00,0.66
6829.00,0.66
6828.00,0.66
6827.00,0.66
6826.00,0.66
6825.00,0.66
6824.00,0.66
6823.00,0.66
6822.00,0.66
6821.00,0.66
6820.00,0.66
6819.00,0.66
6818.00,0.66
6817.00,0.66
6816.00,0.66
6815.00,0.66
6814.00,0.66
6813.00,0.66
6812.00,0.66
6811.00,0.66
6810.00,0.67
6809.00,0.67
6808.00,0.67
6807.00,0.67
6806.00,0.67
6805.00,0.67
6804.00,0.67
6803.00,0.67
6802.00,0.67
6801.00,0.68
6800.00,0.68
6799.00,0.68
6798.00,0.68
6797.00,0.68
6796.00,0.68
6795.00,0.68
6794.00,0.68
6793.00,0.68
6792.00,0.68
6791.00,0.68
6790.00,0.68
6789.00,0.68
6788.00,0.68
6787.00,0.68
6786.00,0.68
6785.00,0.68
6784.00,0.68
6783.00,0.68
6782.00,0.68
6781.00,0.68
6780.00,0.69
6779.00,0.69
6778.00,0.69
6777.00,0.69
6776.00,0.69
6775.00,0.69
6774.00,0.69
6773.00,0.69
6772.00,0.69
6771.00,0.69
6770.00,0.69
6769.00,0.69
6768.00,0.69
6767.00,0.69
6766.00,0.69
6765.00,0.69
6764.00,0.69
6763.00,0.70
6762.00,0.70
6761.00,0.70
6760.00,0.70
6759.00,0.70
6758.00,0.70
6757.00,0.70
6756.00,0.70
6755.00,0.70
6754.00,0.71
6753.00,0.71
6752.00,0.71
6751.00,0.71
6750.00,0.71
6749.00,0.71
6748.00,0.71
6747.00,0.71
6746.00,0.71
6745.00,0.72
6744.00,0.72
6743.00,0.72
6742.00,0.72
6741.00,0.72
6740.00,0.72
6739.00,0.72
6738.00,0.72
6737.00,0.72
6736.00,0.72
6735.00,0.72
6734.00,0.72
6733.00,0.72
6732.00,0.72
6731.00,0.72
6730.00,0.72
6729.00,0.72
6728.00,0.72
6727.00,0.72
6726.00,0.72
6725.00,0.72
6724.00,0.72
6723.00,0.72
6722.00,0.72
6721.00,0.72
6720.00,0.72
6719.00,0.73
6718.00,0.73
6717.00,0.73
6716.00,0.73
6715.00,0.73
6714.00,0.73
6713.00,0.73
6712.00,0.73
6711.00,0.73
6710.00,0.73
6709.00,0.73
6708.00,0.74
6707.00,0.74
6706.00,0.74
6705.00,0.74
6704.00,0.74
6703.00,0.74
6702.00,0.74
6701.00,0.74
6700.00,0.74
6699.00,0.74
6698.00,0.74
6697.00,0.74
6696.00,0.74
6695.00,0.74
6694.00,0.75
6693.00,0.75
6692.00,0.75
6691.00,0.75
6690.00,0.75
6689.00,0.75
6688.00,0.75
6687.00,0.75
6686.00,0.75
6685.00,0.76
6684.00,0.76
6683.00,0.76
6682.00,0.76
6681.00,0.76
6680.00,0.76
6679.00,0.76
6678.00,0.77
6677.00,0.77
6676.00,0.77
6675.00,0.77
6674.00,0.77
6673.00,0.77
6672.00,0.77
6671.00,0.78
6670.00,0.78
6669.00,0.78
6668.00,0.78
6667.00,0.78
6666.00,0.78
6665.00,0.78
6664.00,0.78
6663.00,0.78
6662.00,0.79
6661.00,0.79
6660.00,0.79
6659.00,0.79
6658.00,0.79
6657.00,0.79
6656.00,0.79
6655.00,0.79
6654.00,0.80
6653.00,0.80
6652.00,0.80
6651.00,0.80
6650.00,0.80
6649.00,0.80
6648.00,0.80
6647.00,0.81
6646.00,0.81
6645.00,0.81
6644.00,0.81
6643.00,0.81
6642.00,0.81
6641.00,0.81
6640.00,0.81
6639.00,0.81
6638.00,0.81
6637.00,0.81
6636.00,0.81
6635.00,0.81
6634.00,0.82
6633.00,0.82
6632.00,0.82
6631.00,0.82
6630.00,0.82
6629.00,0.82
6628.00,0.82
6627.00,0.82
6626.00,0.82
6625.00,0.82
6624.00,0.82
6623.00,0.82
6622.00,0.82
6621.00,0.83
6620.00,0.83
6619.00,0.83
6618.00,0.83
6617.00,0.83
6616.00,0.83
6615.00,0.83
6614.00,0.83
6613.00,0.84
6612.00,0.84
6611.00,0.84
6610.00,0.84
6609.00,0.84
6608.00,0.84
6607.00,0.84
6606.00,0.85
6605.00,0.85
6604.00,0.85
6603.00,0.85
6602.00,0.85
6601.00,0.85
6600.00,0.86
6599.00,0.86
6598.00,0.86
6597.00,0.86
6596.00,0.86
6595.00,0.86
6594.00,0.86
6593.00,0.86
6592.00,0.87
6591.00,0.87
6590.00,0.87
6589.00,0.87
6588.00,0.87
6587.00,0.87
6586.00,0.87
6585.00,0.87
6584.00,0.87
6583.00,0.87
6582.00,0.87
6581.00,0.88
6580.00,0.88
6579.00,0.88
6578.00,0.88
6577.00,0.88
6576.00,0.88
6575.00,0.88
6574.00,0.88
6573.00,0.88
6572.00,0.89
6571.00,0.89
6570.00,0.89
6569.00,0.89
6568.00,0.89
6567.00,0.89
6566.00,0.90
6565.00,0.90
6564.00,0.90
6563.00,0.90
6562.00,0.90
6561.00,0.90
6560.00,0.91
6559.00,0.91
6558.00,0.91
6557.00,0.91
6556.00,0.91
6555.00,0.91
6554.00,0.91
6553.00,0.91
6552.00,0.91
6551.00,0.91
6550.00,0.91
6549.00,0.91
6548.00,0.91
6547.00,0.91
6546.00,0.91
6545.00,0.91
6544.00,0.92
6543.00,0.92
6542.00,0.92
6541.00,0.92
6540.00,0.92
6539.00,0.92
6538.00,0.92
6537.00,0.92
6536.00,0.92
6535.00,0.92
6534.00,0.92
6533.00,0.93
6532.00,0.93
6531.00,0.93
6530.00,0.93
6529.00,0.93
6528.00,0.93
6527.00,0.93
6526.00,0.93
6525.00,0.93
6524.00,0.94
6523.00,0.94
6522.00,0.94
6521.00,0.94
6520.00,0.94
6519.00,0.94
6518.00,0.95
6517.00,0.95
6516.00,0.95
6515.00,0.95
6514.00,0.95
6513.00,0.95
6512.00,0.95
6511.00,0.96
6510.00,0.96
6509.00,0.96
6508.00,0.96
6507.00,0.96
6506.00,0.96
6505.00,0.96
6504.00,0.96
6503.00,0.96
6502.00,0.96
6501.00,0.96
6500.00,0.96
6499.00,0.97
6498.00,0.97
6497.00,0.97
6496.00,0.97
6495.00,0.97
6494.00,0.97
6493.00,0.97
6492.00,0.97
6491.00,0.97
6490.00,0.97
6489.00,0.97
6488.00,0.97
6487.00,0.97
6486.00,0.97
6485.00,0.97
6484.00,0.97
6483.00,0.98
6482.00,0.98
6481.00,0.98
6480.00,0.98
6479.00,0.98
6478.00,0.98
6477.00,0.98
6476.00,0.98
6475.00,0.98
6474.00,0.99
6473.00,0.99
6472.00,0.99
6471.00,0.99
6470.00,0.99
6469.00,0.99
6468.00,0.99
6467.00,1.00
6466.00,1.00
6465.00,1.00
6464.00,1.00
6463.00,1.00
6462.00,1.00
6461.00,1.00
6460.00,1.00
6459.00,1.00
6458.00,1.00
6457.00,1.00
6456.00,1.00
6455.00,1.01
6454.00,1.01
6453.00,1.01
6452.00,1.01
6451.00,1.01
6450.00,1.01
6449.00,1.01
6448.00,1.01
6447.00,1.01
6446.00,1.01
6445.00,1.01
6444.00,1.01
6443.00,1.01
6442.00,1.01
6441.00,1.01
6440.00,1.01
6439.00,1.01
6438.00,1.01
6437.00,1.01
6436.00,1.01
6435.00,1.01
6434.00,1.01
6433.00,1.01
6432.00,1.01
6431.00,1.02
6430.00,1.02
6429.00,1.02
6428.00,1.02
6427.00,1.02
6426.00,1.02
6425.00,1.02
6424.00,1.02
6423.00,1.02
6422.00,1.02
6421.00,1.03
6420.00,1.03
6419.00,1.03
6418.00,1.03
6417.00,1.03
6416.00,1.03
6415.00,1.03
6414.00,1.03
6413.00,1.03
6412.00,1.03
6411.00,1.03
6410.00,1.03
6409.00,1.04
6408.00,1.04
6407.00,1.04
6406.00,1.04
6405.00,1.04
6404.00,1.04
6403.00,1.04
6402.00,1.04
6401.00,1.04
6400.00,1.04
6399.00,1.04
6398.00,1.04
6397.00,1.04
6396.00,1.04
6395.00,1.04
6394.00,1.05
6393.00,1.05
6392.00,1.05
6391.00,1.05
6390.00,1.05
6389.00,1.05
6388.00,1.05
6387.00,1.05
6386.00,1.05
6385.00,1.05
6384.00,1.05
6383.00,1.06
6382.00,1.06
6381.00,1.06
6380.00,1.06
6379.00,1.06
6378.00,1.06
6377.00,1.06
6376.00,1.06
6375.00,1.06
6374.00,1.06
6373.00,1.06
6372.00,1.06
6371.00,1.06
6370.00,1.07
6369.00,1.07
6368.00,1.07
6367.00,1.07
6366.00,1.07
6365.00,1.07
6364.00,1.07
6363.00,1.07
6362.00,1.07
6361.00,1.07
6360.00,1.07
6359.00,1.07
6358.00,1.08
6357.00,1.08
6356.00,1.08
6355.00,1.08
6354.00,1.08
6353.00,1.08
6352.00,1.08
6351.00,1.09
6350.00,1.09
6349.00,1.09
6348.00,1.09
6347.00,1.09
6346.00,1.09
6345.00,1.10
6344.00,1.10
6343.00,1.10
6342.00,1.10
6341.00,1.10
6340.00,1.10
6339.00,1.10
6338.00,1.11
6337.00,1.11
6336.00,1.11
6335.00,1.11
6334.00,1.11
6333.00,1.11
6332.00,1.11
6331.00,1.11
6330.00,1.11
6329.00,1.11
6328.00,1.12
6327.00,1.12
6326.00,1.12
6325.00,1.12
6324.00,1.12
6323.00,1.12
6322.00,1.12
6321.00,1.12
6320.00,1.12
6319.00,1.12
6318.00,1.12
6317.00,1.12
6316.00,1.12
6315.00,1.12
6314.00,1.12
6313.00,1.12
6312.00,1.12
6311.00,1.13
6310.00,1.13
6309.00,1.13
6308.00,1.13
6307.00,1.13
6306.00,1.13
6305.00,1.13
6304.00,1.14
6303.00,1.14
6302.00,1.14
6301.00,1.14
6300.00,1.15
6299.00,1.15
6298.00,1.15
6297.00,1.15
6296.00,1.16
6295.00,1.16
6294.00,1.16
6293.00,1.16
6292.00,1.17
6291.00,1.17
6290.00,1.17
6289.00,1.17
6288.00,1.18
6287.00,1.18
6286.00,1.18
6285.00,1.18
6284.00,1.18
6283.00,1.19
6282.00,1.19
6281.00,1.19
6280.00,1.19
6279.00,1.19
6278.00,1.19
6277.00,1.19
6276.00,1.19
6275.00,1.20
6274.00,1.20
6273.00,1.20
6272.00,1.20
6271.00,1.20
6270.00,1.20
6269.00,1.20
6268.00,1.20
6267.00,1.20
6266.00,1.21
6265.00,1.21
6264.00,1.21
6263.00,1.21
6262.00,1.21
6261.00,1.21
6260.00,1.22
6259.00,1.22
6258.00,1.22
6257.00,1.22
6256.00,1.22
6255.00,1.22
6254.00,1.23
6253.00,1.23
6252.00,1.23
6251.00,1.23
6250.00,1.23
6249.00,1.23
6248.00,1.24
6247.00,1.24
6246.00,1.24
6245.00,1.24
6244.00,1.24
6243.00,1.24
6242.00,1.24
6241.00,1.24
6240.00,1.25
6239.00,1.25
6238.00,1.25
6237.00,1.25
6236.00,1.25
6235.00,1.25
6234.00,1.26
6233.00,1.26
6232.00,1.26
6231.00,1.26
6230.00,1.26
6229.00,1.26
6228.00,1.27
6227.00,1.27
6226.00,1.27
6225.00,1.27
6224.00,1.27
6223.00,1.28
6222.00,1.28
6221.00,1.28
6220.00,1.28
6219.00,1.28
6218.00,1.28
6217.00,1.29
6216.00,1.29
6215.00,1.29
6214.00,1.29
6213.00,1.29
6212.00,1.29
6211.00,1.29
6210.00,1.30
6209.00,1.30
6208.00,1.30
6207.00,1.30
6206.00,1.30
6205.00,1.31
6204.00,1.31
6203.00,1.31
6202.00,1.31
6201.00,1.32
6200.00,1.32
6199.00,1.32
6198.00,1.32
6197.00,1.33
6196.00,1.33
6195.00,1.33
6194.00,1.33
6193.00,1.34
6192.00,1.34
6191.00,1.34
6190.00,1.34
6189.00,1.35
6188.00,1.35
6187.00,1.35
6186.00,1.35
6185.00,1.35
6184.00,1.35
6183.00,1.36
6182.00,1.36
6181.00,1.36
6180.00,1.36
6179.00,1.36
6178.00,1.36
6177.00,1.37
6176.00,1.37
6175.00,1.37
6174.00,1.37
6173.00,1.37
6172.00,1.38
6171.00,1.38
6170.00,1.38
6169.00,1.38
6168.00,1.38
6167.00,1.39
6166.00,1.39
6165.00,1.39
6164.00,1.39
6163.00,1.40
6162.00,1.40
6161.00,1.40
6160.00,1.40
6159.00,1.40
6158.00,1.41
6157.00,1.41
6156.00,1.41
6155.00,1.41
6154.00,1.41
6153.00,1.42
6152.00,1.42
6151.00,1.42
6150.00,1.42
6149.00,1.42
6148.00,1.43
6147.00,1.43
6146.00,1.43
6145.00,1.43
6144.00,1.44
6143.00,1.44
6142.00,1.44
6141.00,1.44
6140.00,1.45
6139.00,1.45
6138.00,1.45
6137.00,1.46
6136.00,1.46
6135.00,1.46
6134.00,1.46
6133.00,1.47
6132.00,1.47
6131.00,1.47
6130.00,1.47
6129.00,1.48
6128.00,1.48
6127.00,1.48
6126.00,1.48
6125.00,1.49
6124.00,1.49
6123.00,1.49
6122.00,1.49
6121.00,1.49
6120.00,1.49
6119.00,1.50
6118.00,1.50
6117.00,1.50
6116.00,1.50
6115.00,1.50
6114.00,1.51
6113.00,1.51
6112.00,1.51
6111.00,1.52
6110.00,1.52
6109.00,1.52
6108.00,1.52
6107.00,1.53
6106.00,1.53
6105.00,1.53
6104.00,1.53
6103.00,1.54
6102.00,1.54
6101.00,1.54
6100.00,1.54
6099.00,1.55
6098.00,1.55
6097.00,1.55
6096.00,1.55
6095.00,1.55
6094.00,1.56
6093.00,1.56
6092.00,1.56
6091.00,1.56
6090.00,1.56
6089.00,1.57
6088.00,1.57
6087.00,1.57
6086.00,1.57
6085.00,1.57
6084.00,1.57
6083.00,1.58
6082.00,1.58
6081.00,1.58
6080.00,1.58
6079.00,1.58
6078.00,1.58
6077.00,1.58
6076.00,1.59
6075.00,1.59
6074.00,1.59
6073.00,1.59
6072.00,1.59
6071.00,1.60
6070.00,1.60
6069.00,1.60
6068.00,1.60
6067.00,1.60
6066.00,1.61
6065.00,1.61
6064.00,1.61
6063.00,1.61
6062.00,1.61
6061.00,1.62
6060.00,1.62
6059.00,1.62
6058.00,1.62
6057.00,1.62
6056.00,1.63
6055.00,1.63
6054.00,1.63
6053.00,1.63
6052.00,1.63
6051.00,1.63
6050.00,1.64
6049.00,1.64
6048.00,1.64
6047.00,1.64
6046.00,1.64
6045.00,1.64
6044.00,1.64
6043.00,1.64
6042.00,1.64
6041.00,1.65
6040.00,1.65
6039.00,1.65
6038.00,1.65
6037.00,1.65
6036.00,1.65
6035.00,1.65
6034.00,1.65
6033.00,1.65
6032.00,1.65
6031.00,1.65
6030.00,1.65
6029.00,1.65
6028.00,1.65
6027.00,1.65
6026.00,1.65
6025.00,1.66
6024.00,1.66
6023.00,1.66
6022.00,1.66
6021.00,1.66
6020.00,1.66
6019.00,1.66
6018.00,1.66
6017.00,1.66
6016.00,1.66
6015.00,1.66
6014.00,1.66
6013.00,1.66
6012.00,1.66
6011.00,1.66
6010.00,1.66
6009.00,1.66
6008.00,1.66
6007.00,1.66
6006.00,1.66
6005.00,1.66
6004.00,1.66
6003.00,1.66
6002.00,1.66
6001.00,1.66
6000.00,1.65
5999.00,1.65
5998.00,1.65
5997.00,1.65
5996.00,1.65
5995.00,1.64
5994.00,1.64
5993.00,1.64
5992.00,1.63
5991.00,1.63
5990.00,1.63
5989.00,1.62
5988.00,1.62
5987.00,1.62
5986.00,1.61
5985.00,1.61
5984.00,1.60
5983.00,1.60
5982.00,1.59
5981.00,1.59
5980.00,1.58
5979.00,1.57
5978.00,1.57
5977.00,1.56
5976.00,1.55
5975.00,1.55
5974.00,1.54
5973.00,1.53
5972.00,1.52
5971.00,1.52
5970.00,1.51
5969.00,1.50
5968.00,1.49
5967.00,1.48
5966.00,1.47
5965.00,1.46
5964.00,1.45
5963.00,1.44
5962.00,1.43
5961.00,1.42
5960.00,1.41
5959.00,1.40
5958.00,1.39
5957.00,1.38
5956.00,1.36
5955.00,1.35
5954.00,1.34
5953.00,1.34
5952.00,1.33
5951.00,1.32
5950.00,1.31
5949.00,1.30
5948.00,1.29
5947.00,1.29
5946.00,1.28
5945.00,1.28
5944.00,1.27
5943.00,1.27
5942.00,1.26
5941.00,1.26
5940.00,1.26
5939.00,1.25
5938.00,1.25
5937.00,1.25
5936.00,1.25
5935.00,1.25
5934.00,1.24
5933.00,1.24
5932.00,1.24
5931.00,1.24
5930.00,1.24
5929.00,1.24
5928.00,1.23
5927.00,1.23
5926.00,1.23
5925.00,1.23
5924.00,1.22
5923.00,1.22
5922.00,1.22
5921.00,1.21
5920.00,1.21
5919.00,1.21
5918.00,1.21
5917.00,1.20
5916.00,1.20
5915.00,1.19
5914.00,1.19
5913.00,1.19
5912.00,1.18
5911.00,1.18
5910.00,1.18
5909.00,1.18
5908.00,1.17
5907.00,1.17
5906.00,1.17
5905.00,1.17
5904.00,1.16
5903.00,1.16
5902.00,1.16
5901.00,1.16
5900.00,1.16
5899.00,1.16
5898.00,1.16
5897.00,1.16
5896.00,1.17
5895.00,1.17
5894.00,1.17
5893.00,1.17
5892.00,1.17
5891.00,1.18
5890.00,1.18
5889.00,1.18
5888.00,1.19
5887.00,1.19
5886.00,1.19
5885.00,1.20
5884.00,1.20
5883.00,1.21
5882.00,1.21
5881.00,1.21
5880.00,1.22
5879.00,1.22
5878.00,1.22
5877.00,1.23
5876.00,1.23
5875.00,1.24
5874.00,1.24
5873.00,1.24
5872.00,1.25
5871.00,1.25
5870.00,1.25
5869.00,1.26
5868.00,1.26
5867.00,1.26
5866.00,1.27
5865.00,1.27
5864.00,1.27
5863.00,1.27
5862.00,1.28
5861.00,1.28
5860.00,1.28
5859.00,1.28
5858.00,1.28
5857.00,1.29
5856.00,1.29
5855.00,1.29
5854.00,1.29
5853.00,1.29
5852.00,1.29
5851.00,1.29
5850.00,1.29
5849.00,1.30
5848.00,1.30
5847.00,1.30
5846.00,1.30
5845.00,1.30
5844.00,1.30
5843.00,1.30
5842.00,1.30
5841.00,1.30
5840.00,1.30
5839.00,1.30
5838.00,1.30
5837.00,1.30
5836.00,1.30
5835.00,1.30
5834.00,1.30
5833.00,1.30
5832.00,1.30
5831.00,1.30
5830.00,1.29
5829.00,1.29
5828.00,1.29
5827.00,1.29
5826.00,1.29
5825.00,1.29
5824.00,1.29
5823.00,1.29
5822.00,1.29
5821.00,1.29
5820.00,1.29
5819.00,1.29
5818.00,1.30
5817.00,1.30
5816.00,1.30
5815.00,1.30
5814.00,1.30
5813.00,1.30
5812.00,1.30
5811.00,1.30
5810.00,1.30
5809.00,1.30
5808.00,1.30
5807.00,1.30
5806.00,1.30
5805.00,1.30
5804.00,1.29
5803.00,1.29
5802.00,1.29
5801.00,1.29
5800.00,1.29
5799.00,1.29
5798.00,1.29
5797.00,1.28
5796.00,1.28
5795.00,1.28
5794.00,1.28
5793.00,1.27
5792.00,1.27
5791.00,1.27
5790.00,1.27
5789.00,1.26
5788.00,1.26
5787.00,1.26
5786.00,1.25
5785.00,1.25
5784.00,1.25
5783.00,1.25
5782.00,1.25
5781.00,1.24
5780.00,1.24
5779.00,1.24
5778.00,1.24
5777.00,1.24
5776.00,1.24
5775.00,1.24
5774.00,1.24
5773.00,1.24
5772.00,1.23
5771.00,1.24
5770.00,1.24
5769.00,1.24
5768.00,1.24
5767.00,1.24
5766.00,1.24
5765.00,1.24
5764.00,1.24
5763.00,1.25
5762.00,1.25
5761.00,1.25
5760.00,1.26
5759.00,1.26
5758.00,1.26
5757.00,1.27
5756.00,1.27
5755.00,1.28
5754.00,1.28
5753.00,1.29
5752.00,1.29
5751.00,1.30
5750.00,1.30
5749.00,1.31
5748.00,1.32
5747.00,1.32
5746.00,1.33
5745.00,1.33
5744.00,1.34
5743.00,1.35
5742.00,1.35
5741.00,1.36
5740.00,1.36
5739.00,1.37
5738.00,1.37
5737.00,1.37
5736.00,1.38
5735.00,1.38
5734.00,1.38
5733.00,1.39
5732.00,1.39
5731.00,1.39
5730.00,1.39
5729.00,1.39
5728.00,1.40
5727.00,1.40
5726.00,1.40
5725.00,1.40
5724.00,1.40
5723.00,1.40
5722.00,1.40
5721.00,1.40
5720.00,1.40
5719.00,1.40
5718.00,1.40
5717.00,1.41
5716.00,1.41
5715.00,1.41
5714.00,1.41
5713.00,1.41
5712.00,1.41
5711.00,1.41
5710.00,1.41
5709.00,1.41
5708.00,1.41
5707.00,1.41
5706.00,1.41
5705.00,1.41
5704.00,1.41
5703.00,1.40
5702.00,1.40
5701.00,1.40
5700.00,1.40
5699.00,1.40
5698.00,1.40
5697.00,1.40
5696.00,1.39
5695.00,1.39
5694.00,1.39
5693.00,1.39
5692.00,1.39
5691.00,1.38
5690.00,1.38
5689.00,1.38
5688.00,1.38
5687.00,1.37
5686.00,1.37
5685.00,1.37
5684.00,1.37
5683.00,1.36
5682.00,1.36
5681.00,1.36
5680.00,1.36
5679.00,1.36
5678.00,1.36
5677.00,1.36
5676.00,1.36
5675.00,1.36
5674.00,1.36
5673.00,1.36
5672.00,1.36
5671.00,1.36
5670.00,1.36
5669.00,1.36
5668.00,1.37
5667.00,1.37
5666.00,1.37
5665.00,1.37
5664.00,1.37
5663.00,1.38
5662.00,1.38
5661.00,1.38
5660.00,1.38
5659.00,1.39
5658.00,1.39
5657.00,1.39
5656.00,1.39
5655.00,1.40
5654.00,1.40
5653.00,1.40
5652.00,1.40
5651.00,1.41
5650.00,1.41
5649.00,1.41
5648.00,1.42
5647.00,1.42
5646.00,1.42
5645.00,1.42
5644.00,1.43
5643.00,1.43
5642.00,1.43
5641.00,1.44
5640.00,1.44
5639.00,1.44
5638.00,1.45
5637.00,1.45
5636.00,1.45
5635.00,1.46
5634.00,1.46
5633.00,1.46
5632.00,1.46
5631.00,1.47
5630.00,1.47
5629.00,1.47
5628.00,1.47
5627.00,1.48
5626.00,1.48
5625.00,1.48
5624.00,1.48
5623.00,1.49
5622.00,1.49
5621.00,1.49
5620.00,1.49
5619.00,1.50
5618.00,1.50
5617.00,1.50
5616.00,1.51
5615.00,1.51
5614.00,1.51
5613.00,1.52
5612.00,1.52
5611.00,1.52
5610.00,1.52
5609.00,1.53
5608.00,1.53
5607.00,1.53
5606.00,1.54
5605.00,1.54
5604.00,1.54
5603.00,1.54
5602.00,1.55
5601.00,1.55
5600.00,1.55
5599.00,1.56
5598.00,1.56
5597.00,1.56
5596.00,1.56
5595.00,1.57
5594.00,1.57
5593.00,1.57
5592.00,1.57
5591.00,1.58
5590.00,1.58
5589.00,1.58
5588.00,1.58
5587.00,1.59
5586.00,1.59
5585.00,1.59
5584.00,1.59
5583.00,1.60
5582.00,1.60
5581.00,1.60
5580.00,1.60
5579.00,1.60
5578.00,1.61
5577.00,1.61
5576.00,1.61
5575.00,1.61
5574.00,1.62
5573.00,1.62
5572.00,1.62
5571.00,1.62
5570.00,1.63
5569.00,1.63
5568.00,1.63
5567.00,1.63
5566.00,1.63
5565.00,1.64
5564.00,1.64
5563.00,1.64
5562.00,1.64
5561.00,1.65
5560.00,1.65
5559.00,1.65
5558.00,1.65
5557.00,1.66
5556.00,1.66
5555.00,1.66
5554.00,1.66
5553.00,1.67
5552.00,1.67
5551.00,1.67
5550.00,1.67
5549.00,1.67
5548.00,1.68
5547.00,1.68
5546.00,1.68
5545.00,1.68
5544.00,1.68
5543.00,1.69
5542.00,1.69
5541.00,1.69
5540.00,1.69
5539.00,1.69
5538.00,1.70
5537.00,1.70
5536.00,1.70
5535.00,1.70
5534.00,1.70
5533.00,1.70
5532.00,1.71
5531.00,1.71
5530.00,1.71
5529.00,1.71
5528.00,1.71
5527.00,1.71
5526.00,1.72
5525.00,1.72
5524.00,1.72
5523.00,1.72
5522.00,1.72
5521.00,1.72
5520.00,1.72
5519.00,1.72
5518.00,1.73
5517.00,1.73
5516.00,1.73
5515.00,1.73
5514.00,1.73
5513.00,1.73
5512.00,1.73
5511.00,1.73
5510.00,1.73
5509.00,1.73
5508.00,1.73
5507.00,1.73
5506.00,1.73
5505.00,1.73
5504.00,1.73
5503.00,1.73
5502.00,1.73
5501.00,1.73
5500.00,1.73
5499.00,1.73
5498.00,1.73
5497.00,1.73
5496.00,1.74
5495.00,1.74
5494.00,1.74
5493.00,1.74
5492.00,1.74
5491.00,1.74
5490.00,1.75
5489.00,1.75
5488.00,1.75
5487.00,1.75
5486.00,1.76
5485.00,1.76
5484.00,1.76
5483.00,1.76
5482.00,1.77
5481.00,1.77
5480.00,1.77
5479.00,1.77
5478.00,1.77
5477.00,1.78
5476.00,1.78
5475.00,1.78
5474.00,1.78
5473.00,1.78
5472.00,1.78
5471.00,1.79
5470.00,1.79
5469.00,1.79
5468.00,1.79
5467.00,1.79
5466.00,1.80
5465.00,1.80
5464.00,1.80
5463.00,1.80
5462.00,1.81
5461.00,1.81
5460.00,1.81
5459.00,1.81
5458.00,1.81
5457.00,1.82
5456.00,1.82
5455.00,1.82
5454.00,1.82
5453.00,1.82
5452.00,1.82
5451.00,1.82
5450.00,1.82
5449.00,1.82
5448.00,1.82
5447.00,1.82
5446.00,1.82
5445.00,1.82
5444.00,1.82
5443.00,1.82
5442.00,1.82
5441.00,1.82
5440.00,1.82
5439.00,1.82
5438.00,1.83
5437.00,1.83
5436.00,1.83
5435.00,1.83
5434.00,1.83
5433.00,1.83
5432.00,1.83
5431.00,1.83
5430.00,1.84
5429.00,1.84
5428.00,1.84
5427.00,1.84
5426.00,1.84
5425.00,1.84
5424.00,1.84
5423.00,1.84
5422.00,1.84
5421.00,1.84
5420.00,1.84
5419.00,1.84
5418.00,1.84
5417.00,1.84
5416.00,1.84
5415.00,1.84
5414.00,1.84
5413.00,1.84
5412.00,1.84
5411.00,1.84
5410.00,1.84
5409.00,1.84
5408.00,1.84
5407.00,1.84
5406.00,1.84
5405.00,1.84
5404.00,1.84
5403.00,1.84
5402.00,1.84
5401.00,1.84
5400.00,1.84
5399.00,1.84
5398.00,1.84
5397.00,1.84
5396.00,1.84
5395.00,1.84
5394.00,1.83
5393.00,1.83
5392.00,1.83
5391.00,1.83
5390.00,1.83
5389.00,1.82
5388.00,1.82
5387.00,1.82
5386.00,1.81
5385.00,1.81
5384.00,1.81
5383.00,1.81
5382.00,1.80
5381.00,1.80
5380.00,1.79
5379.00,1.79
5378.00,1.79
5377.00,1.78
5376.00,1.78
5375.00,1.77
5374.00,1.77
5373.00,1.76
5372.00,1.75
5371.00,1.75
5370.00,1.74
5369.00,1.74
5368.00,1.73
5367.00,1.72
5366.00,1.71
5365.00,1.71
5364.00,1.70
5363.00,1.69
5362.00,1.68
5361.00,1.67
5360.00,1.66
5359.00,1.65
5358.00,1.64
5357.00,1.63
5356.00,1.62
5355.00,1.60
5354.00,1.59
5353.00,1.58
5352.00,1.57
5351.00,1.55
5350.00,1.54
5349.00,1.53
5348.00,1.51
5347.00,1.50
5346.00,1.48
5345.00,1.47
5344.00,1.46
5343.00,1.44
5342.00,1.43
5341.00,1.42
5340.00,1.40
5339.00,1.39
5338.00,1.38
5337.00,1.37
5336.00,1.35
5335.00,1.34
5334.00,1.33
5333.00,1.31
5332.00,1.30
5331.00,1.29
5330.00,1.27
5329.00,1.26
5328.00,1.25
5327.00,1.23
5326.00,1.22
5325.00,1.20
5324.00,1.19
5323.00,1.18
5322.00,1.16
5321.00,1.15
5320.00,1.14
5319.00,1.12
5318.00,1.11
5317.00,1.10
5316.00,1.08
5315.00,1.07
5314.00,1.06
5313.00,1.04
5312.00,1.03
5311.00,1.02
5310.00,1.01
5309.00,1.00
5308.00,0.99
5307.00,0.98
5306.00,0.97
5305.00,0.96
5304.00,0.95
5303.00,0.94
5302.00,0.93
5301.00,0.93
5300.00,0.92
5299.00,0.91
5298.00,0.91
5297.00,0.90
5296.00,0.90
5295.00,0.89
5294.00,0.89
5293.00,0.88
5292.00,0.88
5291.00,0.87
5290.00,0.87
5289.00,0.87
5288.00,0.86
5287.00,0.86
5286.00,0.86
5285.00,0.86
5284.00,0.85
5283.00,0.85
5282.00,0.85
5281.00,0.85
5280.00,0.85
5279.00,0.85
5278.00,0.84
5277.00,0.84
5276.00,0.84
5275.00,0.84
5274.00,0.84
5273.00,0.84
5272.00,0.84
5271.00,0.84
5270.00,0.84
5269.00,0.84
5268.00,0.83
5267.00,0.83
5266.00,0.83
5265.00,0.83
5264.00,0.83
5263.00,0.83
5262.00,0.83
5261.00,0.82
5260.00,0.82
5259.00,0.82
5258.00,0.82
5257.00,0.82
5256.00,0.82
5255.00,0.82
5254.00,0.82
5253.00,0.82
5252.00,0.81
5251.00,0.81
5250.00,0.81
5249.00,0.81
5248.00,0.81
5247.00,0.81
5246.00,0.81
5245.00,0.81
5244.00,0.81
5243.00,0.81
5242.00,0.81
5241.00,0.81
5240.00,0.81
5239.00,0.81
5238.00,0.81
5237.00,0.81
5236.00,0.81
5235.00,0.82
5234.00,0.82
5233.00,0.82
5232.00,0.82
5231.00,0.82
5230.00,0.82
5229.00,0.82
5228.00,0.82
5227.00,0.82
5226.00,0.82
5225.00,0.82
5224.00,0.82
5223.00,0.82
5222.00,0.82
5221.00,0.82
5220.00,0.82
5219.00,0.82
5218.00,0.82
5217.00,0.82
5216.00,0.82
5215.00,0.82
5214.00,0.82
5213.00,0.83
5212.00,0.83
5211.00,0.83
5210.00,0.83
5209.00,0.83
5208.00,0.83
5207.00,0.83
5206.00,0.83
5205.00,0.83
5204.00,0.83
5203.00,0.83
5202.00,0.84
5201.00,0.84
5200.00,0.84
5199.00,0.84
5198.00,0.84
5197.00,0.84
5196.00,0.84
5195.00,0.84
5194.00,0.84
5193.00,0.85
5192.00,0.85
5191.00,0.85
5190.00,0.85
5189.00,0.85
5188.00,0.85
5187.00,0.85
5186.00,0.85
5185.00,0.85
5184.00,0.85
5183.00,0.85
5182.00,0.85
5181.00,0.85
5180.00,0.85
5179.00,0.85
5178.00,0.85
5177.00,0.85
5176.00,0.85
5175.00,0.85
5174.00,0.85
5173.00,0.85
5172.00,0.85
5171.00,0.85
5170.00,0.85
5169.00,0.85
5168.00,0.85
5167.00,0.85
5166.00,0.85
5165.00,0.85
5164.00,0.85
5163.00,0.85
5162.00,0.85
5161.00,0.85
5160.00,0.85
5159.00,0.85
5158.00,0.85
5157.00,0.85
5156.00,0.85
5155.00,0.85
5154.00,0.85
5153.00,0.85
5152.00,0.86
5151.00,0.86
5150.00,0.86
5149.00,0.86
5148.00,0.86
5147.00,0.86
5146.00,0.86
5145.00,0.86
5144.00,0.87
5143.00,0.87
5142.00,0.87
5141.00,0.87
5140.00,0.87
5139.00,0.87
5138.00,0.87
5137.00,0.88
5136.00,0.88
5135.00,0.88
5134.00,0.88
5133.00,0.88
5132.00,0.88
5131.00,0.88
5130.00,0.88
5129.00,0.88
5128.00,0.88
5127.00,0.89
5126.00,0.89
5125.00,0.89
5124.00,0.89
5123.00,0.89
5122.00,0.89
5121.00,0.89
5120.00,0.89
5119.00,0.89
5118.00,0.89
5117.00,0.89
5116.00,0.89
5115.00,0.89
5114.00,0.89
5113.00,0.89
5112.00,0.89
5111.00,0.89
5110.00,0.89
5109.00,0.90
5108.00,0.90
5107.00,0.90
5106.00,0.90
5105.00,0.90
5104.00,0.90
5103.00,0.90
5102.00,0.90
5101.00,0.90
5100.00,0.90
5099.00,0.90
5098.00,0.90
5097.00,0.90
5096.00,0.90
5095.00,0.91
5094.00,0.91
5093.00,0.91
5092.00,0.91
5091.00,0.91
5090.00,0.91
5089.00,0.91
5088.00,0.91
5087.00,0.91
5086.00,0.92
5085.00,0.92
5084.00,0.92
5083.00,0.92
5082.00,0.92
5081.00,0.92
5080.00,0.92
5079.00,0.92
5078.00,0.92
5077.00,0.92
5076.00,0.92
5075.00,0.93
5074.00,0.93
5073.00,0.93
5072.00,0.93
5071.00,0.93
5070.00,0.93
5069.00,0.93
5068.00,0.93
5067.00,0.93
5066.00,0.93
5065.00,0.93
5064.00,0.93
5063.00,0.93
5062.00,0.94
5061.00,0.94
5060.00,0.94
5059.00,0.94
5058.00,0.94
5057.00,0.94
5056.00,0.94
5055.00,0.94
5054.00,0.94
5053.00,0.94
5052.00,0.94
5051.00,0.94
5050.00,0.94
5049.00,0.95
5048.00,0.95
5047.00,0.95
5046.00,0.95
5045.00,0.95
5044.00,0.95
5043.00,0.95
5042.00,0.96
5041.00,0.96
5040.00,0.96
5039.00,0.96
5038.00,0.96
5037.00,0.96
5036.00,0.96
5035.00,0.96
5034.00,0.96
5033.00,0.97
5032.00,0.97
5031.00,0.97
5030.00,0.97
5029.00,0.97
5028.00,0.97
5027.00,0.97
5026.00,0.97
5025.00,0.97
5024.00,0.97
5023.00,0.98
5022.00,0.98
5021.00,0.98
5020.00,0.98
5019.00,0.98
5018.00,0.98
5017.00,0.98
5016.00,0.98
5015.00,0.99
5014.00,0.99
5013.00,0.99
5012.00,0.99
5011.00,0.99
5010.00,0.99
5009.00,0.99
5008.00,0.99
5007.00,0.99
5006.00,0.99
5005.00,0.99
5004.00,1.00
5003.00,1.00
5002.00,1.00
5001.00,1.00
5000.00,1.00
4999.00,1.00
4998.00,1.00
4997.00,1.00
4996.00,1.00
4995.00,1.00
4994.00,1.00
4993.00,1.00
4992.00,1.00
4991.00,1.00
4990.00,1.00
4989.00,1.00
4988.00,1.00
4987.00,1.01
4986.00,1.01
4985.00,1.01
4984.00,1.01
4983.00,1.01
4982.00,1.01
4981.00,1.01
4980.00,1.01
4979.00,1.01
4978.00,1.01
4977.00,1.02
4976.00,1.02
4975.00,1.02
4974.00,1.02
4973.00,1.02
4972.00,1.02
4971.00,1.02
4970.00,1.03
4969.00,1.03
4968.00,1.03
4967.00,1.03
4966.00,1.03
4965.00,1.03
4964.00,1.03
4963.00,1.03
4962.00,1.04
4961.00,1.04
4960.00,1.04
4959.00,1.04
4958.00,1.04
4957.00,1.04
4956.00,1.04
4955.00,1.04
4954.00,1.04
4953.00,1.04
4952.00,1.04
4951.00,1.04
4950.00,1.04
4949.00,1.04
4948.00,1.05
4947.00,1.05
4946.00,1.05
4945.00,1.05
4944.00,1.05
4943.00,1.05
4942.00,1.05
4941.00,1.05
4940.00,1.06
4939.00,1.06
4938.00,1.06
4937.00,1.06
4936.00,1.06
4935.00,1.06
4934.00,1.06
4933.00,1.07
4932.00,1.07
4931.00,1.07
4930.00,1.07
4929.00,1.07
4928.00,1.07
4927.00,1.07
4926.00,1.08
4925.00,1.08
4924.00,1.08
4923.00,1.08
4922.00,1.08
4921.00,1.08
4920.00,1.08
4919.00,1.08
4918.00,1.08
4917.00,1.08
4916.00,1.08
4915.00,1.08
4914.00,1.08
4913.00,1.08
4912.00,1.08
4911.00,1.08
4910.00,1.08
4909.00,1.08
4908.00,1.08
4907.00,1.08
4906.00,1.08
4905.00,1.09
4904.00,1.09
4903.00,1.09
4902.00,1.09
4901.00,1.09
4900.00,1.09
4899.00,1.09
4898.00,1.09
4897.00,1.09
4896.00,1.09
4895.00,1.09
4894.00,1.09
4893.00,1.09
4892.00,1.10
4891.00,1.10
4890.00,1.10
4889.00,1.10
4888.00,1.10
4887.00,1.10
4886.00,1.10
4885.00,1.10
4884.00,1.11
4883.00,1.11
4882.00,1.11
4881.00,1.11
4880.00,1.11
4879.00,1.11
4878.00,1.11
4877.00,1.12
4876.00,1.12
4875.00,1.12
4874.00,1.12
4873.00,1.12
4872.00,1.12
4871.00,1.12
4870.00,1.12
4869.00,1.12
4868.00,1.12
4867.00,1.12
4866.00,1.12
4865.00,1.12
4864.00,1.12
4863.00,1.12
4862.00,1.12
4861.00,1.12
4860.00,1.12
4859.00,1.12
4858.00,1.12
4857.00,1.12
4856.00,1.12
4855.00,1.12
4854.00,1.12
4853.00,1.12
4852.00,1.12
4851.00,1.12
4850.00,1.12
4849.00,1.12
4848.00,1.12
4847.00,1.12
4846.00,1.12
4845.00,1.12
4844.00,1.12
4843.00,1.12
4842.00,1.13
4841.00,1.13
4840.00,1.13
4839.00,1.13
4838.00,1.13
4837.00,1.13
4836.00,1.13
4835.00,1.14
4834.00,1.14
4833.00,1.14
4832.00,1.14
4831.00,1.14
4830.00,1.15
4829.00,1.15
4828.00,1.15
4827.00,1.15
4826.00,1.15
4825.00,1.15
4824.00,1.16
4823.00,1.16
4822.00,1.16
4821.00,1.16
4820.00,1.16
4819.00,1.16
4818.00,1.16
4817.00,1.16
4816.00,1.16
4815.00,1.16
4814.00,1.16
4813.00,1.16
4812.00,1.16
4811.00,1.17
4810.00,1.17
4809.00,1.17
4808.00,1.17
4807.00,1.17
4806.00,1.17
4805.00,1.17
4804.00,1.17
4803.00,1.17
4802.00,1.17
4801.00,1.17
4800.00,1.17
4799.00,1.17
4798.00,1.17
4797.00,1.18
4796.00,1.18
4795.00,1.18
4794.00,1.18
4793.00,1.18
4792.00,1.18
4791.00,1.18
4790.00,1.18
4789.00,1.19
4788.00,1.19
4787.00,1.19
4786.00,1.19
4785.00,1.19
4784.00,1.19
4783.00,1.19
4782.00,1.19
4781.00,1.19
4780.00,1.19
4779.00,1.20
4778.00,1.20
4777.00,1.20
4776.00,1.20
4775.00,1.20
4774.00,1.20
4773.00,1.20
4772.00,1.20
4771.00,1.21
4770.00,1.21
4769.00,1.21
4768.00,1.21
4767.00,1.21
4766.00,1.21
4765.00,1.21
4764.00,1.21
4763.00,1.21
4762.00,1.22
4761.00,1.22
4760.00,1.22
4759.00,1.22
4758.00,1.22
4757.00,1.22
4756.00,1.22
4755.00,1.22
4754.00,1.22
4753.00,1.23
4752.00,1.23
4751.00,1.23
4750.00,1.23
4749.00,1.23
4748.00,1.24
4747.00,1.24
4746.00,1.24
4745.00,1.24
4744.00,1.25
4743.00,1.25
4742.00,1.25
4741.00,1.25
4740.00,1.26
4739.00,1.26
4738.00,1.26
4737.00,1.26
4736.00,1.27
4735.00,1.27
4734.00,1.27
4733.00,1.27
4732.00,1.28
4731.00,1.28
4730.00,1.28
4729.00,1.28
4728.00,1.28
4727.00,1.29
4726.00,1.29
4725.00,1.29
4724.00,1.29
4723.00,1.29
4722.00,1.29
4721.00,1.30
4720.00,1.30
4719.00,1.30
4718.00,1.30
4717.00,1.30
4716.00,1.31
4715.00,1.31
4714.00,1.31
4713.00,1.31
4712.00,1.32
4711.00,1.32
4710.00,1.32
4709.00,1.32
4708.00,1.33
4707.00,1.33
4706.00,1.33
4705.00,1.33
4704.00,1.33
4703.00,1.33
4702.00,1.34
4701.00,1.34
4700.00,1.34
4699.00,1.34
4698.00,1.34
4697.00,1.34
4696.00,1.35
4695.00,1.35
4694.00,1.35
4693.00,1.35
4692.00,1.35
4691.00,1.35
4690.00,1.36
4689.00,1.36
4688.00,1.36
4687.00,1.36
4686.00,1.36
4685.00,1.36
4684.00,1.37
4683.00,1.37
4682.00,1.37
4681.00,1.37
4680.00,1.38
4679.00,1.38
4678.00,1.38
4677.00,1.38
4676.00,1.39
4675.00,1.39
4674.00,1.39
4673.00,1.39
4672.00,1.40
4671.00,1.40
4670.00,1.40
4669.00,1.40
4668.00,1.40
4667.00,1.40
4666.00,1.41
4665.00,1.41
4664.00,1.41
4663.00,1.41
4662.00,1.41
4661.00,1.41
4660.00,1.41
4659.00,1.42
4658.00,1.42
4657.00,1.42
4656.00,1.42
4655.00,1.42
4654.00,1.43
4653.00,1.43
4652.00,1.43
4651.00,1.43
4650.00,1.43
4649.00,1.44
4648.00,1.44
4647.00,1.44
4646.00,1.44
4645.00,1.45
4644.00,1.45
4643.00,1.45
4642.00,1.46
4641.00,1.46
4640.00,1.46
4639.00,1.46
4638.00,1.47
4637.00,1.47
4636.00,1.47
4635.00,1.47
4634.00,1.47
4633.00,1.47
4632.00,1.47
4631.00,1.48
4630.00,1.48
4629.00,1.48
4628.00,1.48
4627.00,1.48
4626.00,1.48
4625.00,1.48
4624.00,1.48
4623.00,1.48
4622.00,1.49
4621.00,1.49
4620.00,1.49
4619.00,1.49
4618.00,1.49
4617.00,1.49
4616.00,1.50
4615.00,1.50
4614.00,1.50
4613.00,1.50
4612.00,1.50
4611.00,1.50
4610.00,1.50
4609.00,1.51
4608.00,1.51
4607.00,1.51
4606.00,1.51
4605.00,1.51
4604.00,1.51
4603.00,1.51
4602.00,1.51
4601.00,1.51
4600.00,1.51
4599.00,1.51
4598.00,1.51
4597.00,1.51
4596.00,1.52
4595.00,1.52
4594.00,1.52
4593.00,1.52
4592.00,1.52
4591.00,1.52
4590.00,1.52
4589.00,1.52
4588.00,1.53
4587.00,1.53
4586.00,1.53
4585.00,1.53
4584.00,1.53
4583.00,1.53
4582.00,1.54
4581.00,1.54
4580.00,1.54
4579.00,1.54
4578.00,1.54
4577.00,1.54
4576.00,1.54
4575.00,1.55
4574.00,1.55
4573.00,1.55
4572.00,1.55
4571.00,1.55
4570.00,1.55
4569.00,1.55
4568.00,1.55
4567.00,1.55
4566.00,1.55
4565.00,1.56
4564.00,1.56
4563.00,1.56
4562.00,1.56
4561.00,1.56
4560.00,1.56
4559.00,1.56
4558.00,1.56
4557.00,1.57
4556.00,1.57
4555.00,1.57
4554.00,1.57
4553.00,1.57
4552.00,1.57
4551.00,1.57
4550.00,1.58
4549.00,1.58
4548.00,1.58
4547.00,1.58
4546.00,1.58
4545.00,1.58
4544.00,1.58
4543.00,1.58
4542.00,1.59
4541.00,1.59
4540.00,1.59
4539.00,1.59
4538.00,1.59
4537.00,1.59
4536.00,1.59
4535.00,1.59
4534.00,1.59
4533.00,1.59
4532.00,1.60
4531.00,1.60
4530.00,1.60
4529.00,1.60
4528.00,1.60
4527.00,1.60
4526.00,1.60
4525.00,1.60
4524.00,1.60
4523.00,1.60
4522.00,1.60
4521.00,1.60
4520.00,1.60
4519.00,1.60
4518.00,1.60
4517.00,1.60
4516.00,1.60
4515.00,1.60
4514.00,1.60
4513.00,1.60
4512.00,1.61
4511.00,1.61
4510.00,1.61
4509.00,1.61
4508.00,1.61
4507.00,1.61
4506.00,1.61
4505.00,1.61
4504.00,1.60
4503.00,1.60
4502.00,1.60
4501.00,1.60
4500.00,1.60
4499.00,1.60
4498.00,1.60
4497.00,1.60
4496.00,1.60
4495.00,1.60
4494.00,1.60
4493.00,1.60
4492.00,1.60
4491.00,1.60
4490.00,1.60
4489.00,1.59
4488.00,1.59
4487.00,1.59
4486.00,1.59
4485.00,1.59
4484.00,1.59
4483.00,1.59
4482.00,1.58
4481.00,1.58
4480.00,1.58
4479.00,1.58
4478.00,1.58
4477.00,1.58
4476.00,1.57
4475.00,1.57
4474.00,1.57
4473.00,1.57
4472.00,1.57
4471.00,1.56
4470.00,1.56
4469.00,1.56
4468.00,1.56
4467.00,1.55
4466.00,1.55
4465.00,1.55
4464.00,1.54
4463.00,1.54
4462.00,1.54
4461.00,1.54
4460.00,1.53
4459.00,1.53
4458.00,1.53
4457.00,1.52
4456.00,1.52
4455.00,1.52
4454.00,1.51
4453.00,1.51
4452.00,1.51
4451.00,1.50
4450.00,1.50
4449.00,1.49
4448.00,1.49
4447.00,1.48
4446.00,1.48
4445.00,1.47
4444.00,1.47
4443.00,1.46
4442.00,1.46
4441.00,1.45
4440.00,1.45
4439.00,1.44
4438.00,1.44
4437.00,1.44
4436.00,1.43
4435.00,1.43
4434.00,1.43
4433.00,1.42
4432.00,1.42
4431.00,1.42
4430.00,1.42
4429.00,1.42
4428.00,1.41
4427.00,1.41
4426.00,1.41
4425.00,1.41
4424.00,1.41
4423.00,1.41
4422.00,1.41
4421.00,1.41
4420.00,1.41
4419.00,1.41
4418.00,1.41
4417.00,1.41
4416.00,1.41
4415.00,1.42
4414.00,1.42
4413.00,1.42
4412.00,1.42
4411.00,1.42
4410.00,1.42
4409.00,1.42
4408.00,1.42
4407.00,1.42
4406.00,1.42
4405.00,1.42
4404.00,1.43
4403.00,1.43
4402.00,1.43
4401.00,1.43
4400.00,1.43
4399.00,1.43
4398.00,1.43
4397.00,1.44
4396.00,1.44
4395.00,1.44
4394.00,1.44
4393.00,1.44
4392.00,1.45
4391.00,1.45
4390.00,1.45
4389.00,1.45
4388.00,1.45
4387.00,1.46
4386.00,1.46
4385.00,1.46
4384.00,1.46
4383.00,1.46
4382.00,1.47
4381.00,1.47
4380.00,1.47
4379.00,1.47
4378.00,1.47
4377.00,1.47
4376.00,1.47
4375.00,1.47
4374.00,1.47
4373.00,1.47
4372.00,1.47
4371.00,1.47
4370.00,1.47
4369.00,1.47
4368.00,1.47
4367.00,1.47
4366.00,1.47
4365.00,1.47
4364.00,1.47
4363.00,1.47
4362.00,1.47
4361.00,1.47
4360.00,1.47
4359.00,1.47
4358.00,1.47
4357.00,1.47
4356.00,1.47
4355.00,1.47
4354.00,1.47
4353.00,1.47
4352.00,1.47
4351.00,1.47
4350.00,1.47
4349.00,1.47
4348.00,1.48
4347.00,1.48
4346.00,1.48
4345.00,1.48
4344.00,1.48
4343.00,1.48
4342.00,1.48
4341.00,1.48
4340.00,1.48
4339.00,1.48
4338.00,1.48
4337.00,1.48
4336.00,1.49
4335.00,1.49
4334.00,1.49
4333.00,1.49
4332.00,1.49
4331.00,1.49
4330.00,1.49
4329.00,1.49
4328.00,1.49
4327.00,1.49
4326.00,1.49
4325.00,1.49
4324.00,1.49
4323.00,1.49
4322.00,1.49
4321.00,1.50
4320.00,1.50
4319.00,1.50
4318.00,1.50
4317.00,1.51
4316.00,1.51
4315.00,1.51
4314.00,1.51
4313.00,1.52
4312.00,1.52
4311.00,1.52
4310.00,1.53
4309.00,1.53
4308.00,1.53
4307.00,1.54
4306.00,1.54
4305.00,1.54
4304.00,1.54
4303.00,1.55
4302.00,1.55
4301.00,1.55
4300.00,1.55
4299.00,1.55
4298.00,1.55
4297.00,1.55
4296.00,1.55
4295.00,1.55
4294.00,1.56
4293.00,1.56
4292.00,1.56
4291.00,1.56
4290.00,1.56
4289.00,1.56
4288.00,1.56
4287.00,1.56
4286.00,1.56
4285.00,1.56
4284.00,1.56
4283.00,1.57
4282.00,1.57
4281.00,1.57
4280.00,1.57
4279.00,1.57
4278.00,1.57
4277.00,1.57
4276.00,1.58
4275.00,1.58
4274.00,1.58
4273.00,1.58
4272.00,1.58
4271.00,1.58
4270.00,1.58
4269.00,1.58
4268.00,1.58
4267.00,1.58
4266.00,1.58
4265.00,1.58
4264.00,1.58
4263.00,1.58
4262.00,1.58
4261.00,1.58
4260.00,1.58
4259.00,1.58
4258.00,1.58
4257.00,1.58
4256.00,1.58
4255.00,1.58
4254.00,1.58
4253.00,1.58
4252.00,1.58
4251.00,1.58
4250.00,1.58
4249.00,1.58
4248.00,1.59
4247.00,1.59
4246.00,1.59
4245.00,1.59
4244.00,1.60
4243.00,1.60
4242.00,1.60
4241.00,1.61
4240.00,1.61
4239.00,1.61
4238.00,1.61
4237.00,1.62
4236.00,1.62
4235.00,1.62
4234.00,1.62
4233.00,1.62
4232.00,1.62
4231.00,1.63
4230.00,1.63
4229.00,1.63
4228.00,1.63
4227.00,1.63
4226.00,1.63
4225.00,1.63
4224.00,1.63
4223.00,1.63
4222.00,1.63
4221.00,1.63
4220.00,1.63
4219.00,1.63
4218.00,1.63
4217.00,1.64
4216.00,1.64
4215.00,1.64
4214.00,1.64
4213.00,1.64
4212.00,1.64
4211.00,1.65
4210.00,1.65
4209.00,1.65
4208.00,1.65
4207.00,1.65
4206.00,1.66
4205.00,1.66
4204.00,1.66
4203.00,1.66
4202.00,1.66
4201.00,1.66
4200.00,1.66
4199.00,1.66
4198.00,1.66
4197.00,1.66
4196.00,1.66
4195.00,1.66
4194.00,1.66
4193.00,1.66
4192.00,1.66
4191.00,1.66
4190.00,1.67
4189.00,1.67
4188.00,1.67
4187.00,1.67
4186.00,1.67
4185.00,1.67
4184.00,1.67
4183.00,1.67
4182.00,1.67
4181.00,1.67
4180.00,1.67
4179.00,1.67
4178.00,1.67
4177.00,1.67
4176.00,1.67
4175.00,1.67
4174.00,1.67
4173.00,1.67
4172.00,1.68
4171.00,1.68
4170.00,1.68
4169.00,1.68
4168.00,1.68
4167.00,1.68
4166.00,1.69
4165.00,1.69
4164.00,1.69
4163.00,1.69
4162.00,1.69
4161.00,1.69
4160.00,1.70
4159.00,1.70
4158.00,1.70
4157.00,1.70
4156.00,1.70
4155.00,1.70
4154.00,1.70
4153.00,1.70
4152.00,1.70
4151.00,1.70
4150.00,1.70
4149.00,1.71
4148.00,1.71
4147.00,1.71
4146.00,1.71
4145.00,1.71
4144.00,1.71
4143.00,1.71
4142.00,1.71
4141.00,1.71
4140.00,1.71
4139.00,1.71
4138.00,1.71
4137.00,1.71
4136.00,1.72
4135.00,1.72
4134.00,1.72
4133.00,1.72
4132.00,1.72
4131.00,1.72
4130.00,1.72
4129.00,1.73
4128.00,1.73
4127.00,1.73
4126.00,1.73
4125.00,1.73
4124.00,1.73
4123.00,1.73
4122.00,1.74
4121.00,1.74
4120.00,1.74
4119.00,1.74
4118.00,1.74
4117.00,1.74
4116.00,1.74
4115.00,1.74
4114.00,1.74
4113.00,1.74
4112.00,1.74
4111.00,1.75
4110.00,1.75
4109.00,1.75
4108.00,1.75
4107.00,1.75
4106.00,1.75
4105.00,1.75
4104.00,1.75
4103.00,1.75
4102.00,1.75
4101.00,1.75
4100.00,1.75
4099.00,1.75
4098.00,1.75
4097.00,1.75
4096.00,1.75
4095.00,1.75
4094.00,1.75
4093.00,1.75
4092.00,1.75
4091.00,1.75
4090.00,1.75
4089.00,1.75
4088.00,1.75
4087.00,1.75
4086.00,1.76
4085.00,1.76
4084.00,1.76
4083.00,1.76
4082.00,1.76
4081.00,1.77
4080.00,1.77
4079.00,1.77
4078.00,1.77
4077.00,1.77
4076.00,1.78
4075.00,1.78
4074.00,1.78
4073.00,1.78
4072.00,1.78
4071.00,1.78
4070.00,1.78
4069.00,1.79
4068.00,1.79
4067.00,1.79
4066.00,1.79
4065.00,1.79
4064.00,1.79
4063.00,1.79
4062.00,1.79
4061.00,1.79
4060.00,1.79
4059.00,1.79
4058.00,1.79
4057.00,1.79
4056.00,1.79
4055.00,1.79
4054.00,1.79
4053.00,1.79
4052.00,1.79
4051.00,1.79
4050.00,1.79
4049.00,1.79
4048.00,1.79
4047.00,1.79
4046.00,1.79
4045.00,1.79
4044.00,1.79
4043.00,1.79
4042.00,1.79
4041.00,1.79
4040.00,1.79
4039.00,1.79
4038.00,1.79
4037.00,1.79
4036.00,1.79
4035.00,1.80
4034.00,1.80
4033.00,1.80
4032.00,1.80
4031.00,1.80
4030.00,1.81
4029.00,1.81
4028.00,1.81
4027.00,1.81
4026.00,1.82
4025.00,1.82
4024.00,1.82
4023.00,1.82
4022.00,1.83
4021.00,1.83
4020.00,1.83
4019.00,1.83
4018.00,1.84
4017.00,1.84
4016.00,1.84
4015.00,1.84
4014.00,1.84
4013.00,1.84
4012.00,1.84
4011.00,1.84
4010.00,1.84
4009.00,1.84
4008.00,1.84
4007.00,1.84
4006.00,1.84
4005.00,1.84
4004.00,1.84
4003.00,1.84
4002.00,1.84
4001.00,1.84
4000.00,1.84
