创建为新数据集,样品 357 用户 Administrator 日期 星期四, 三月 08 2018
cm-1,%T
10000.00,2.04
9999.00,2.03
9998.00,2.03
9997.00,2.03
9996.00,2.03
9995.00,2.02
9994.00,2.02
9993.00,2.02
9992.00,2.02
9991.00,2.02
9990.00,2.02
9989.00,2.02
9988.00,2.03
9987.00,2.03
9986.00,2.03
9985.00,2.03
9984.00,2.03
9983.00,2.03
9982.00,2.03
9981.00,2.03
9980.00,2.03
9979.00,2.03
9978.00,2.03
9977.00,2.03
9976.00,2.03
9975.00,2.03
9974.00,2.03
9973.00,2.03
9972.00,2.02
9971.00,2.02
9970.00,2.02
9969.00,2.02
9968.00,2.02
9967.00,2.02
9966.00,2.02
9965.00,2.02
9964.00,2.02
9963.00,2.02
9962.00,2.03
9961.00,2.03
9960.00,2.03
9959.00,2.03
9958.00,2.03
9957.00,2.03
9956.00,2.03
9955.00,2.03
9954.00,2.03
9953.00,2.03
9952.00,2.03
9951.00,2.03
9950.00,2.03
9949.00,2.03
9948.00,2.03
9947.00,2.03
9946.00,2.03
9945.00,2.03
9944.00,2.03
9943.00,2.03
9942.00,2.02
9941.00,2.02
9940.00,2.02
9939.00,2.02
9938.00,2.02
9937.00,2.01
9936.00,2.01
9935.00,2.01
9934.00,2.01
9933.00,2.00
9932.00,2.00
9931.00,2.00
9930.00,2.00
9929.00,2.00
9928.00,1.99
9927.00,1.99
9926.00,1.99
9925.00,1.99
9924.00,1.99
9923.00,1.99
9922.00,1.98
9921.00,1.98
9920.00,1.98
9919.00,1.98
9918.00,1.98
9917.00,1.98
9916.00,1.98
9915.00,1.98
9914.00,1.98
9913.00,1.98
9912.00,1.98
9911.00,1.98
9910.00,1.98
9909.00,1.98
9908.00,1.99
9907.00,1.99
9906.00,1.99
9905.00,1.99
9904.00,2.00
9903.00,2.00
9902.00,2.00
9901.00,2.01
9900.00,2.01
9899.00,2.01
9898.00,2.02
9897.00,2.02
9896.00,2.02
9895.00,2.02
9894.00,2.03
9893.00,2.03
9892.00,2.03
9891.00,2.03
9890.00,2.03
9889.00,2.03
9888.00,2.03
9887.00,2.03
9886.00,2.03
9885.00,2.03
9884.00,2.03
9883.00,2.03
9882.00,2.02
9881.00,2.02
9880.00,2.02
9879.00,2.02
9878.00,2.01
9877.00,2.01
9876.00,2.01
9875.00,2.00
9874.00,2.00
9873.00,2.00
9872.00,2.00
9871.00,2.00
9870.00,2.00
9869.00,2.00
9868.00,2.00
9867.00,2.00
9866.00,2.00
9865.00,2.00
9864.00,2.01
9863.00,2.01
9862.00,2.01
9861.00,2.01
9860.00,2.01
9859.00,2.01
9858.00,2.01
9857.00,2.01
9856.00,2.01
9855.00,2.01
9854.00,2.01
9853.00,2.01
9852.00,2.01
9851.00,2.01
9850.00,2.00
9849.00,2.00
9848.00,2.00
9847.00,2.00
9846.00,2.00
9845.00,1.99
9844.00,1.99
9843.00,1.99
9842.00,1.99
9841.00,1.99
9840.00,1.99
9839.00,1.99
9838.00,1.99
9837.00,1.99
9836.00,1.99
9835.00,1.99
9834.00,1.99
9833.00,1.99
9832.00,1.99
9831.00,1.99
9830.00,1.99
9829.00,1.99
9828.00,1.99
9827.00,1.99
9826.00,1.99
9825.00,1.99
9824.00,1.99
9823.00,1.99
9822.00,1.99
9821.00,1.99
9820.00,1.99
9819.00,1.99
9818.00,1.99
9817.00,1.99
9816.00,1.99
9815.00,1.99
9814.00,1.99
9813.00,1.99
9812.00,1.99
9811.00,1.99
9810.00,1.99
9809.00,1.99
9808.00,1.99
9807.00,1.99
9806.00,1.99
9805.00,1.99
9804.00,1.98
9803.00,1.98
9802.00,1.98
9801.00,1.98
9800.00,1.98
9799.00,1.98
9798.00,1.98
9797.00,1.98
9796.00,1.98
9795.00,1.98
9794.00,1.98
9793.00,1.98
9792.00,1.99
9791.00,1.99
9790.00,1.99
9789.00,1.99
9788.00,1.99
9787.00,1.99
9786.00,1.99
9785.00,1.99
9784.00,1.99
9783.00,1.99
9782.00,1.99
9781.00,1.99
9780.00,1.99
9779.00,1.99
9778.00,1.99
9777.00,1.99
9776.00,1.99
9775.00,1.99
9774.00,1.99
9773.00,1.99
9772.00,1.99
9771.00,1.99
9770.00,1.99
9769.00,1.99
9768.00,1.99
9767.00,1.99
9766.00,1.99
9765.00,2.00
9764.00,2.00
9763.00,2.00
9762.00,2.00
9761.00,2.01
9760.00,2.01
9759.00,2.01
9758.00,2.01
9757.00,2.02
9756.00,2.02
9755.00,2.02
9754.00,2.02
9753.00,2.03
9752.00,2.03
9751.00,2.03
9750.00,2.03
9749.00,2.03
9748.00,2.03
9747.00,2.03
9746.00,2.03
9745.00,2.03
9744.00,2.02
9743.00,2.02
9742.00,2.02
9741.00,2.02
9740.00,2.01
9739.00,2.01
9738.00,2.01
9737.00,2.00
9736.00,2.00
9735.00,2.00
9734.00,2.00
9733.00,2.00
9732.00,1.99
9731.00,1.99
9730.00,1.99
9729.00,1.99
9728.00,2.00
9727.00,2.00
9726.00,2.00
9725.00,2.00
9724.00,2.00
9723.00,2.00
9722.00,2.01
9721.00,2.01
9720.00,2.01
9719.00,2.01
9718.00,2.01
9717.00,2.01
9716.00,2.01
9715.00,2.01
9714.00,2.01
9713.00,2.00
9712.00,2.00
9711.00,2.00
9710.00,2.00
9709.00,1.99
9708.00,1.99
9707.00,1.99
9706.00,1.99
9705.00,1.99
9704.00,1.99
9703.00,1.99
9702.00,1.99
9701.00,1.99
9700.00,1.99
9699.00,1.99
9698.00,1.99
9697.00,1.99
9696.00,1.99
9695.00,1.99
9694.00,1.99
9693.00,2.00
9692.00,2.00
9691.00,2.00
9690.00,2.00
9689.00,2.00
9688.00,2.00
9687.00,2.00
9686.00,1.99
9685.00,1.99
9684.00,1.99
9683.00,1.99
9682.00,1.99
9681.00,1.99
9680.00,1.99
9679.00,1.99
9678.00,1.99
9677.00,1.99
9676.00,1.99
9675.00,1.99
9674.00,1.99
9673.00,1.99
9672.00,1.99
9671.00,1.99
9670.00,1.99
9669.00,1.99
9668.00,1.99
9667.00,1.99
9666.00,1.99
9665.00,1.99
9664.00,1.99
9663.00,1.99
9662.00,1.99
9661.00,1.99
9660.00,1.99
9659.00,1.99
9658.00,1.99
9657.00,1.99
9656.00,1.99
9655.00,1.99
9654.00,1.99
9653.00,1.99
9652.00,1.98
9651.00,1.98
9650.00,1.98
9649.00,1.98
9648.00,1.98
9647.00,1.98
9646.00,1.98
9645.00,1.98
9644.00,1.98
9643.00,1.98
9642.00,1.98
9641.00,1.98
9640.00,1.98
9639.00,1.98
9638.00,1.98
9637.00,1.98
9636.00,1.98
9635.00,1.98
9634.00,1.98
9633.00,1.98
9632.00,1.98
9631.00,1.99
9630.00,1.99
9629.00,1.99
9628.00,1.99
9627.00,1.99
9626.00,1.99
9625.00,1.99
9624.00,1.99
9623.00,1.99
9622.00,1.99
9621.00,1.99
9620.00,1.99
9619.00,1.99
9618.00,1.99
9617.00,1.99
9616.00,2.00
9615.00,2.00
9614.00,2.00
9613.00,2.01
9612.00,2.01
9611.00,2.01
9610.00,2.02
9609.00,2.02
9608.00,2.02
9607.00,2.02
9606.00,2.02
9605.00,2.03
9604.00,2.03
9603.00,2.03
9602.00,2.02
9601.00,2.02
9600.00,2.02
9599.00,2.02
9598.00,2.02
9597.00,2.01
9596.00,2.01
9595.00,2.01
9594.00,2.01
9593.00,2.00
9592.00,2.00
9591.00,2.00
9590.00,2.00
9589.00,2.00
9588.00,2.00
9587.00,2.00
9586.00,2.00
9585.00,1.99
9584.00,1.99
9583.00,1.99
9582.00,1.99
9581.00,1.99
9580.00,1.99
9579.00,1.99
9578.00,1.99
9577.00,1.99
9576.00,1.99
9575.00,1.99
9574.00,1.98
9573.00,1.98
9572.00,1.98
9571.00,1.98
9570.00,1.98
9569.00,1.97
9568.00,1.97
9567.00,1.97
9566.00,1.97
9565.00,1.97
9564.00,1.96
9563.00,1.96
9562.00,1.96
9561.00,1.96
9560.00,1.96
9559.00,1.96
9558.00,1.96
9557.00,1.96
9556.00,1.96
9555.00,1.96
9554.00,1.96
9553.00,1.96
9552.00,1.96
9551.00,1.97
9550.00,1.97
9549.00,1.97
9548.00,1.97
9547.00,1.97
9546.00,1.98
9545.00,1.98
9544.00,1.98
9543.00,1.98
9542.00,1.98
9541.00,1.99
9540.00,1.99
9539.00,1.99
9538.00,1.99
9537.00,1.99
9536.00,1.99
9535.00,1.99
9534.00,1.99
9533.00,1.99
9532.00,1.99
9531.00,1.99
9530.00,1.99
9529.00,1.99
9528.00,1.99
9527.00,1.99
9526.00,1.99
9525.00,1.99
9524.00,1.99
9523.00,1.99
9522.00,1.99
9521.00,1.99
9520.00,1.99
9519.00,1.99
9518.00,1.99
9517.00,1.99
9516.00,1.99
9515.00,1.99
9514.00,1.99
9513.00,1.99
9512.00,1.99
9511.00,1.99
9510.00,1.99
9509.00,1.99
9508.00,1.99
9507.00,1.99
9506.00,1.99
9505.00,1.99
9504.00,1.99
9503.00,1.99
9502.00,2.00
9501.00,2.00
9500.00,2.00
9499.00,2.00
9498.00,2.00
9497.00,2.00
9496.00,2.00
9495.00,2.00
9494.00,2.00
9493.00,2.00
9492.00,2.00
9491.00,2.00
9490.00,2.00
9489.00,2.00
9488.00,2.00
9487.00,2.00
9486.00,2.00
9485.00,2.00
9484.00,2.00
9483.00,2.00
9482.00,2.00
9481.00,2.00
9480.00,2.01
9479.00,2.01
9478.00,2.01
9477.00,2.01
9476.00,2.01
9475.00,2.01
9474.00,2.01
9473.00,2.01
9472.00,2.01
9471.00,2.01
9470.00,2.01
9469.00,2.01
9468.00,2.01
9467.00,2.01
9466.00,2.01
9465.00,2.01
9464.00,2.01
9463.00,2.01
9462.00,2.01
9461.00,2.01
9460.00,2.01
9459.00,2.00
9458.00,2.00
9457.00,2.00
9456.00,2.00
9455.00,2.00
9454.00,2.00
9453.00,2.00
9452.00,1.99
9451.00,1.99
9450.00,1.99
9449.00,1.99
9448.00,1.99
9447.00,1.99
9446.00,1.99
9445.00,2.00
9444.00,2.00
9443.00,2.00
9442.00,2.00
9441.00,2.00
9440.00,2.00
9439.00,2.00
9438.00,2.00
9437.00,2.01
9436.00,2.01
9435.00,2.01
9434.00,2.01
9433.00,2.01
9432.00,2.01
9431.00,2.01
9430.00,2.01
9429.00,2.01
9428.00,2.01
9427.00,2.01
9426.00,2.01
9425.00,2.01
9424.00,2.01
9423.00,2.01
9422.00,2.01
9421.00,2.00
9420.00,2.00
9419.00,2.00
9418.00,2.00
9417.00,2.00
9416.00,2.00
9415.00,1.99
9414.00,1.99
9413.00,1.99
9412.00,1.99
9411.00,1.99
9410.00,1.99
9409.00,1.99
9408.00,1.99
9407.00,1.99
9406.00,2.00
9405.00,2.00
9404.00,2.00
9403.00,2.00
9402.00,2.00
9401.00,2.00
9400.00,2.00
9399.00,2.00
9398.00,2.00
9397.00,2.00
9396.00,2.00
9395.00,2.00
9394.00,2.01
9393.00,2.01
9392.00,2.01
9391.00,2.01
9390.00,2.01
9389.00,2.01
9388.00,2.01
9387.00,2.01
9386.00,2.01
9385.00,2.01
9384.00,2.01
9383.00,2.01
9382.00,2.01
9381.00,2.01
9380.00,2.01
9379.00,2.01
9378.00,2.01
9377.00,2.01
9376.00,2.01
9375.00,2.01
9374.00,2.01
9373.00,2.01
9372.00,2.01
9371.00,2.01
9370.00,2.01
9369.00,2.01
9368.00,2.01
9367.00,2.01
9366.00,2.01
9365.00,2.01
9364.00,2.01
9363.00,2.01
9362.00,2.01
9361.00,2.01
9360.00,2.00
9359.00,2.00
9358.00,2.00
9357.00,2.00
9356.00,2.00
9355.00,1.99
9354.00,1.99
9353.00,1.99
9352.00,1.99
9351.00,1.99
9350.00,1.99
9349.00,1.99
9348.00,1.98
9347.00,1.98
9346.00,1.98
9345.00,1.98
9344.00,1.98
9343.00,1.98
9342.00,1.99
9341.00,1.99
9340.00,1.99
9339.00,1.99
9338.00,1.99
9337.00,1.99
9336.00,1.99
9335.00,2.00
9334.00,2.00
9333.00,2.00
9332.00,2.00
9331.00,2.00
9330.00,2.00
9329.00,2.00
9328.00,2.01
9327.00,2.01
9326.00,2.01
9325.00,2.01
9324.00,2.01
9323.00,2.01
9322.00,2.01
9321.00,2.01
9320.00,2.01
9319.00,2.01
9318.00,2.01
9317.00,2.01
9316.00,2.01
9315.00,2.01
9314.00,2.01
9313.00,2.01
9312.00,2.01
9311.00,2.01
9310.00,2.01
9309.00,2.01
9308.00,2.01
9307.00,2.01
9306.00,2.02
9305.00,2.02
9304.00,2.02
9303.00,2.02
9302.00,2.02
9301.00,2.02
9300.00,2.02
9299.00,2.02
9298.00,2.02
9297.00,2.02
9296.00,2.02
9295.00,2.02
9294.00,2.02
9293.00,2.02
9292.00,2.02
9291.00,2.02
9290.00,2.02
9289.00,2.02
9288.00,2.01
9287.00,2.01
9286.00,2.01
9285.00,2.01
9284.00,2.01
9283.00,2.01
9282.00,2.01
9281.00,2.01
9280.00,2.00
9279.00,2.00
9278.00,2.00
9277.00,2.00
9276.00,2.00
9275.00,2.01
9274.00,2.01
9273.00,2.01
9272.00,2.01
9271.00,2.01
9270.00,2.01
9269.00,2.01
9268.00,2.02
9267.00,2.02
9266.00,2.02
9265.00,2.02
9264.00,2.02
9263.00,2.02
9262.00,2.02
9261.00,2.02
9260.00,2.02
9259.00,2.02
9258.00,2.02
9257.00,2.02
9256.00,2.02
9255.00,2.02
9254.00,2.02
9253.00,2.02
9252.00,2.02
9251.00,2.01
9250.00,2.01
9249.00,2.01
9248.00,2.01
9247.00,2.01
9246.00,2.01
9245.00,2.01
9244.00,2.01
9243.00,2.01
9242.00,2.00
9241.00,2.00
9240.00,2.00
9239.00,2.00
9238.00,2.00
9237.00,2.00
9236.00,2.00
9235.00,2.00
9234.00,1.99
9233.00,1.99
9232.00,1.99
9231.00,1.99
9230.00,1.99
9229.00,1.99
9228.00,1.99
9227.00,2.00
9226.00,2.00
9225.00,2.00
9224.00,2.00
9223.00,2.00
9222.00,2.00
9221.00,2.01
9220.00,2.01
9219.00,2.01
9218.00,2.01
9217.00,2.02
9216.00,2.02
9215.00,2.02
9214.00,2.02
9213.00,2.02
9212.00,2.03
9211.00,2.03
9210.00,2.03
9209.00,2.03
9208.00,2.03
9207.00,2.03
9206.00,2.03
9205.00,2.03
9204.00,2.03
9203.00,2.03
9202.00,2.03
9201.00,2.03
9200.00,2.03
9199.00,2.03
9198.00,2.02
9197.00,2.02
9196.00,2.02
9195.00,2.02
9194.00,2.02
9193.00,2.02
9192.00,2.01
9191.00,2.01
9190.00,2.01
9189.00,2.01
9188.00,2.01
9187.00,2.01
9186.00,2.01
9185.00,2.01
9184.00,2.01
9183.00,2.01
9182.00,2.01
9181.00,2.01
9180.00,2.01
9179.00,2.01
9178.00,2.01
9177.00,2.01
9176.00,2.01
9175.00,2.01
9174.00,2.01
9173.00,2.01
9172.00,2.01
9171.00,2.01
9170.00,2.01
9169.00,2.01
9168.00,2.01
9167.00,2.01
9166.00,2.01
9165.00,2.01
9164.00,2.01
9163.00,2.01
9162.00,2.01
9161.00,2.01
9160.00,2.01
9159.00,2.01
9158.00,2.01
9157.00,2.01
9156.00,2.01
9155.00,2.01
9154.00,2.01
9153.00,2.01
9152.00,2.01
9151.00,2.01
9150.00,2.01
9149.00,2.01
9148.00,2.01
9147.00,2.01
9146.00,2.01
9145.00,2.01
9144.00,2.01
9143.00,2.01
9142.00,2.01
9141.00,2.01
9140.00,2.00
9139.00,2.00
9138.00,2.00
9137.00,2.00
9136.00,2.00
9135.00,2.00
9134.00,2.00
9133.00,2.00
9132.00,2.00
9131.00,2.00
9130.00,2.00
9129.00,2.00
9128.00,2.00
9127.00,2.00
9126.00,2.00
9125.00,2.00
9124.00,2.00
9123.00,2.00
9122.00,2.00
9121.00,2.00
9120.00,2.00
9119.00,2.00
9118.00,2.00
9117.00,2.01
9116.00,2.01
9115.00,2.01
9114.00,2.01
9113.00,2.01
9112.00,2.01
9111.00,2.01
9110.00,2.01
9109.00,2.01
9108.00,2.01
9107.00,2.01
9106.00,2.01
9105.00,2.01
9104.00,2.01
9103.00,2.01
9102.00,2.01
9101.00,2.01
9100.00,2.01
9099.00,2.02
9098.00,2.02
9097.00,2.02
9096.00,2.02
9095.00,2.02
9094.00,2.02
9093.00,2.02
9092.00,2.02
9091.00,2.02
9090.00,2.02
9089.00,2.02
9088.00,2.02
9087.00,2.02
9086.00,2.02
9085.00,2.02
9084.00,2.02
9083.00,2.02
9082.00,2.02
9081.00,2.02
9080.00,2.02
9079.00,2.02
9078.00,2.02
9077.00,2.02
9076.00,2.02
9075.00,2.02
9074.00,2.02
9073.00,2.02
9072.00,2.02
9071.00,2.02
9070.00,2.02
9069.00,2.02
9068.00,2.02
9067.00,2.02
9066.00,2.02
9065.00,2.02
9064.00,2.02
9063.00,2.02
9062.00,2.02
9061.00,2.02
9060.00,2.02
9059.00,2.02
9058.00,2.02
9057.00,2.02
9056.00,2.02
9055.00,2.01
9054.00,2.01
9053.00,2.01
9052.00,2.01
9051.00,2.01
9050.00,2.00
9049.00,2.00
9048.00,2.00
9047.00,2.00
9046.00,2.00
9045.00,2.00
9044.00,2.00
9043.00,2.00
9042.00,2.00
9041.00,2.00
9040.00,2.00
9039.00,2.00
9038.00,2.00
9037.00,2.01
9036.00,2.01
9035.00,2.01
9034.00,2.01
9033.00,2.01
9032.00,2.01
9031.00,2.02
9030.00,2.02
9029.00,2.02
9028.00,2.02
9027.00,2.02
9026.00,2.02
9025.00,2.02
9024.00,2.02
9023.00,2.02
9022.00,2.02
9021.00,2.02
9020.00,2.02
9019.00,2.01
9018.00,2.01
9017.00,2.01
9016.00,2.01
9015.00,2.01
9014.00,2.01
9013.00,2.01
9012.00,2.01
9011.00,2.01
9010.00,2.01
9009.00,2.01
9008.00,2.01
9007.00,2.01
9006.00,2.01
9005.00,2.01
9004.00,2.01
9003.00,2.01
9002.00,2.01
9001.00,2.01
9000.00,2.01
8999.00,2.01
8998.00,2.01
8997.00,2.01
8996.00,2.01
8995.00,2.01
8994.00,2.01
8993.00,2.01
8992.00,2.01
8991.00,2.01
8990.00,2.01
8989.00,2.01
8988.00,2.01
8987.00,2.01
8986.00,2.01
8985.00,2.01
8984.00,2.01
8983.00,2.01
8982.00,2.01
8981.00,2.01
8980.00,2.00
8979.00,2.00
8978.00,2.00
8977.00,2.00
8976.00,2.00
8975.00,2.00
8974.00,2.00
8973.00,2.00
8972.00,2.01
8971.00,2.01
8970.00,2.01
8969.00,2.01
8968.00,2.01
8967.00,2.01
8966.00,2.01
8965.00,2.01
8964.00,2.02
8963.00,2.02
8962.00,2.02
8961.00,2.02
8960.00,2.02
8959.00,2.02
8958.00,2.02
8957.00,2.02
8956.00,2.02
8955.00,2.02
8954.00,2.02
8953.00,2.02
8952.00,2.02
8951.00,2.02
8950.00,2.02
8949.00,2.02
8948.00,2.02
8947.00,2.02
8946.00,2.02
8945.00,2.02
8944.00,2.02
8943.00,2.02
8942.00,2.02
8941.00,2.02
8940.00,2.02
8939.00,2.02
8938.00,2.02
8937.00,2.02
8936.00,2.02
8935.00,2.02
8934.00,2.02
8933.00,2.02
8932.00,2.02
8931.00,2.02
8930.00,2.02
8929.00,2.02
8928.00,2.02
8927.00,2.02
8926.00,2.02
8925.00,2.01
8924.00,2.01
8923.00,2.01
8922.00,2.01
8921.00,2.01
8920.00,2.00
8919.00,2.00
8918.00,2.00
8917.00,2.00
8916.00,2.00
8915.00,1.99
8914.00,1.99
8913.00,1.99
8912.00,1.99
8911.00,1.99
8910.00,1.99
8909.00,1.99
8908.00,1.99
8907.00,1.99
8906.00,1.99
8905.00,2.00
8904.00,2.00
8903.00,2.00
8902.00,2.00
8901.00,2.00
8900.00,2.01
8899.00,2.01
8898.00,2.01
8897.00,2.01
8896.00,2.01
8895.00,2.02
8894.00,2.02
8893.00,2.02
8892.00,2.02
8891.00,2.02
8890.00,2.02
8889.00,2.03
8888.00,2.03
8887.00,2.03
8886.00,2.03
8885.00,2.03
8884.00,2.03
8883.00,2.03
8882.00,2.03
8881.00,2.03
8880.00,2.03
8879.00,2.03
8878.00,2.03
8877.00,2.03
8876.00,2.03
8875.00,2.03
8874.00,2.03
8873.00,2.02
8872.00,2.02
8871.00,2.02
8870.00,2.02
8869.00,2.02
8868.00,2.02
8867.00,2.01
8866.00,2.01
8865.00,2.01
8864.00,2.01
8863.00,2.01
8862.00,2.00
8861.00,2.00
8860.00,2.00
8859.00,2.00
8858.00,2.00
8857.00,1.99
8856.00,1.99
8855.00,1.99
8854.00,1.99
8853.00,1.99
8852.00,1.99
8851.00,1.99
8850.00,1.99
8849.00,1.99
8848.00,1.99
8847.00,1.99
8846.00,1.99
8845.00,2.00
8844.00,2.00
8843.00,2.00
8842.00,2.00
8841.00,2.00
8840.00,2.00
8839.00,2.01
8838.00,2.01
8837.00,2.01
8836.00,2.01
8835.00,2.01
8834.00,2.01
8833.00,2.01
8832.00,2.01
8831.00,2.01
8830.00,2.01
8829.00,2.00
8828.00,2.00
8827.00,2.00
8826.00,2.00
8825.00,2.00
8824.00,1.99
8823.00,1.99
8822.00,1.99
8821.00,1.99
8820.00,1.99
8819.00,1.99
8818.00,1.99
8817.00,1.98
8816.00,1.98
8815.00,1.98
8814.00,1.98
8813.00,1.98
8812.00,1.98
8811.00,1.98
8810.00,1.98
8809.00,1.98
8808.00,1.98
8807.00,1.98
8806.00,1.98
8805.00,1.98
8804.00,1.98
8803.00,1.98
8802.00,1.98
8801.00,1.97
8800.00,1.97
8799.00,1.97
8798.00,1.97
8797.00,1.97
8796.00,1.97
8795.00,1.97
8794.00,1.97
8793.00,1.97
8792.00,1.97
8791.00,1.97
8790.00,1.97
8789.00,1.97
8788.00,1.97
8787.00,1.97
8786.00,1.97
8785.00,1.97
8784.00,1.97
8783.00,1.97
8782.00,1.97
8781.00,1.97
8780.00,1.97
8779.00,1.97
8778.00,1.97
8777.00,1.97
8776.00,1.97
8775.00,1.97
8774.00,1.96
8773.00,1.96
8772.00,1.96
8771.00,1.96
8770.00,1.96
8769.00,1.96
8768.00,1.96
8767.00,1.96
8766.00,1.96
8765.00,1.96
8764.00,1.96
8763.00,1.96
8762.00,1.96
8761.00,1.96
8760.00,1.96
8759.00,1.96
8758.00,1.96
8757.00,1.96
8756.00,1.96
8755.00,1.96
8754.00,1.95
8753.00,1.95
8752.00,1.95
8751.00,1.95
8750.00,1.94
8749.00,1.94
8748.00,1.94
8747.00,1.93
8746.00,1.93
8745.00,1.93
8744.00,1.92
8743.00,1.92
8742.00,1.92
8741.00,1.92
8740.00,1.92
8739.00,1.91
8738.00,1.91
8737.00,1.91
8736.00,1.91
8735.00,1.91
8734.00,1.91
8733.00,1.91
8732.00,1.91
8731.00,1.91
8730.00,1.91
8729.00,1.91
8728.00,1.92
8727.00,1.92
8726.00,1.92
8725.00,1.92
8724.00,1.92
8723.00,1.92
8722.00,1.93
8721.00,1.93
8720.00,1.93
8719.00,1.93
8718.00,1.93
8717.00,1.93
8716.00,1.93
8715.00,1.93
8714.00,1.93
8713.00,1.93
8712.00,1.93
8711.00,1.93
8710.00,1.93
8709.00,1.93
8708.00,1.93
8707.00,1.93
8706.00,1.93
8705.00,1.93
8704.00,1.93
8703.00,1.93
8702.00,1.93
8701.00,1.93
8700.00,1.93
8699.00,1.93
8698.00,1.93
8697.00,1.93
8696.00,1.93
8695.00,1.93
8694.00,1.93
8693.00,1.93
8692.00,1.92
8691.00,1.92
8690.00,1.92
8689.00,1.92
8688.00,1.92
8687.00,1.92
8686.00,1.92
8685.00,1.92
8684.00,1.92
8683.00,1.92
8682.00,1.92
8681.00,1.92
8680.00,1.92
8679.00,1.92
8678.00,1.92
8677.00,1.92
8676.00,1.92
8675.00,1.92
8674.00,1.92
8673.00,1.92
8672.00,1.91
8671.00,1.91
8670.00,1.91
8669.00,1.91
8668.00,1.91
8667.00,1.90
8666.00,1.90
8665.00,1.90
8664.00,1.90
8663.00,1.90
8662.00,1.90
8661.00,1.89
8660.00,1.89
8659.00,1.89
8658.00,1.89
8657.00,1.89
8656.00,1.89
8655.00,1.89
8654.00,1.89
8653.00,1.90
8652.00,1.90
8651.00,1.90
8650.00,1.90
8649.00,1.90
8648.00,1.90
8647.00,1.90
8646.00,1.90
8645.00,1.90
8644.00,1.90
8643.00,1.90
8642.00,1.90
8641.00,1.90
8640.00,1.90
8639.00,1.90
8638.00,1.90
8637.00,1.90
8636.00,1.90
8635.00,1.90
8634.00,1.90
8633.00,1.90
8632.00,1.90
8631.00,1.90
8630.00,1.90
8629.00,1.90
8628.00,1.90
8627.00,1.90
8626.00,1.90
8625.00,1.89
8624.00,1.89
8623.00,1.89
8622.00,1.89
8621.00,1.89
8620.00,1.89
8619.00,1.89
8618.00,1.89
8617.00,1.88
8616.00,1.88
8615.00,1.88
8614.00,1.88
8613.00,1.88
8612.00,1.88
8611.00,1.88
8610.00,1.88
8609.00,1.87
8608.00,1.87
8607.00,1.87
8606.00,1.87
8605.00,1.87
8604.00,1.87
8603.00,1.87
8602.00,1.87
8601.00,1.87
8600.00,1.86
8599.00,1.86
8598.00,1.86
8597.00,1.86
8596.00,1.86
8595.00,1.86
8594.00,1.86
8593.00,1.86
8592.00,1.86
8591.00,1.86
8590.00,1.86
8589.00,1.86
8588.00,1.86
8587.00,1.86
8586.00,1.86
8585.00,1.86
8584.00,1.86
8583.00,1.85
8582.00,1.85
8581.00,1.85
8580.00,1.85
8579.00,1.85
8578.00,1.85
8577.00,1.84
8576.00,1.84
8575.00,1.84
8574.00,1.84
8573.00,1.83
8572.00,1.83
8571.00,1.83
8570.00,1.83
8569.00,1.83
8568.00,1.83
8567.00,1.83
8566.00,1.82
8565.00,1.82
8564.00,1.82
8563.00,1.82
8562.00,1.82
8561.00,1.82
8560.00,1.82
8559.00,1.82
8558.00,1.82
8557.00,1.81
8556.00,1.81
8555.00,1.81
8554.00,1.81
8553.00,1.81
8552.00,1.81
8551.00,1.81
8550.00,1.81
8549.00,1.81
8548.00,1.81
8547.00,1.81
8546.00,1.81
8545.00,1.81
8544.00,1.81
8543.00,1.81
8542.00,1.81
8541.00,1.80
8540.00,1.80
8539.00,1.80
8538.00,1.80
8537.00,1.80
8536.00,1.80
8535.00,1.80
8534.00,1.80
8533.00,1.80
8532.00,1.80
8531.00,1.80
8530.00,1.79
8529.00,1.79
8528.00,1.79
8527.00,1.79
8526.00,1.79
8525.00,1.79
8524.00,1.79
8523.00,1.79
8522.00,1.79
8521.00,1.79
8520.00,1.79
8519.00,1.79
8518.00,1.79
8517.00,1.79
8516.00,1.79
8515.00,1.79
8514.00,1.79
8513.00,1.79
8512.00,1.79
8511.00,1.79
8510.00,1.79
8509.00,1.78
8508.00,1.78
8507.00,1.78
8506.00,1.78
8505.00,1.78
8504.00,1.78
8503.00,1.78
8502.00,1.78
8501.00,1.78
8500.00,1.78
8499.00,1.78
8498.00,1.78
8497.00,1.78
8496.00,1.77
8495.00,1.77
8494.00,1.77
8493.00,1.77
8492.00,1.77
8491.00,1.76
8490.00,1.76
8489.00,1.76
8488.00,1.76
8487.00,1.75
8486.00,1.75
8485.00,1.75
8484.00,1.75
8483.00,1.75
8482.00,1.74
8481.00,1.74
8480.00,1.74
8479.00,1.74
8478.00,1.74
8477.00,1.73
8476.00,1.73
8475.00,1.73
8474.00,1.73
8473.00,1.72
8472.00,1.72
8471.00,1.72
8470.00,1.72
8469.00,1.71
8468.00,1.71
8467.00,1.71
8466.00,1.71
8465.00,1.70
8464.00,1.70
8463.00,1.70
8462.00,1.70
8461.00,1.70
8460.00,1.69
8459.00,1.69
8458.00,1.69
8457.00,1.69
8456.00,1.69
8455.00,1.69
8454.00,1.69
8453.00,1.69
8452.00,1.69
8451.00,1.69
8450.00,1.69
8449.00,1.69
8448.00,1.69
8447.00,1.69
8446.00,1.69
8445.00,1.69
8444.00,1.69
8443.00,1.69
8442.00,1.70
8441.00,1.70
8440.00,1.70
8439.00,1.70
8438.00,1.70
8437.00,1.70
8436.00,1.70
8435.00,1.70
8434.00,1.70
8433.00,1.70
8432.00,1.70
8431.00,1.70
8430.00,1.70
8429.00,1.70
8428.00,1.70
8427.00,1.70
8426.00,1.70
8425.00,1.70
8424.00,1.70
8423.00,1.71
8422.00,1.71
8421.00,1.71
8420.00,1.71
8419.00,1.71
8418.00,1.71
8417.00,1.71
8416.00,1.71
8415.00,1.71
8414.00,1.71
8413.00,1.71
8412.00,1.72
8411.00,1.72
8410.00,1.72
8409.00,1.72
8408.00,1.72
8407.00,1.72
8406.00,1.72
8405.00,1.73
8404.00,1.73
8403.00,1.73
8402.00,1.73
8401.00,1.73
8400.00,1.73
8399.00,1.73
8398.00,1.74
8397.00,1.74
8396.00,1.74
8395.00,1.74
8394.00,1.74
8393.00,1.74
8392.00,1.74
8391.00,1.75
8390.00,1.75
8389.00,1.75
8388.00,1.75
8387.00,1.75
8386.00,1.75
8385.00,1.75
8384.00,1.75
8383.00,1.76
8382.00,1.76
8381.00,1.76
8380.00,1.76
8379.00,1.76
8378.00,1.76
8377.00,1.76
8376.00,1.76
8375.00,1.76
8374.00,1.76
8373.00,1.76
8372.00,1.76
8371.00,1.76
8370.00,1.77
8369.00,1.77
8368.00,1.77
8367.00,1.77
8366.00,1.77
8365.00,1.77
8364.00,1.78
8363.00,1.78
8362.00,1.78
8361.00,1.78
8360.00,1.78
8359.00,1.78
8358.00,1.78
8357.00,1.79
8356.00,1.79
8355.00,1.79
8354.00,1.79
8353.00,1.79
8352.00,1.79
8351.00,1.79
8350.00,1.79
8349.00,1.79
8348.00,1.79
8347.00,1.79
8346.00,1.79
8345.00,1.78
8344.00,1.78
8343.00,1.78
8342.00,1.78
8341.00,1.78
8340.00,1.78
8339.00,1.78
8338.00,1.78
8337.00,1.78
8336.00,1.78
8335.00,1.78
8334.00,1.78
8333.00,1.78
8332.00,1.78
8331.00,1.78
8330.00,1.78
8329.00,1.78
8328.00,1.79
8327.00,1.79
8326.00,1.79
8325.00,1.79
8324.00,1.79
8323.00,1.79
8322.00,1.79
8321.00,1.79
8320.00,1.79
8319.00,1.79
8318.00,1.80
8317.00,1.80
8316.00,1.80
8315.00,1.80
8314.00,1.80
8313.00,1.80
8312.00,1.80
8311.00,1.80
8310.00,1.80
8309.00,1.80
8308.00,1.80
8307.00,1.80
8306.00,1.80
8305.00,1.80
8304.00,1.80
8303.00,1.80
8302.00,1.80
8301.00,1.80
8300.00,1.80
8299.00,1.80
8298.00,1.80
8297.00,1.80
8296.00,1.80
8295.00,1.80
8294.00,1.80
8293.00,1.80
8292.00,1.80
8291.00,1.80
8290.00,1.80
8289.00,1.81
8288.00,1.81
8287.00,1.81
8286.00,1.81
8285.00,1.81
8284.00,1.81
8283.00,1.81
8282.00,1.81
8281.00,1.81
8280.00,1.81
8279.00,1.81
8278.00,1.81
8277.00,1.81
8276.00,1.81
8275.00,1.81
8274.00,1.81
8273.00,1.81
8272.00,1.81
8271.00,1.81
8270.00,1.81
8269.00,1.81
8268.00,1.81
8267.00,1.81
8266.00,1.81
8265.00,1.81
8264.00,1.81
8263.00,1.81
8262.00,1.81
8261.00,1.81
8260.00,1.81
8259.00,1.81
8258.00,1.81
8257.00,1.82
8256.00,1.82
8255.00,1.82
8254.00,1.82
8253.00,1.82
8252.00,1.82
8251.00,1.82
8250.00,1.82
8249.00,1.82
8248.00,1.82
8247.00,1.82
8246.00,1.82
8245.00,1.82
8244.00,1.82
8243.00,1.83
8242.00,1.83
8241.00,1.83
8240.00,1.83
8239.00,1.83
8238.00,1.83
8237.00,1.83
8236.00,1.83
8235.00,1.83
8234.00,1.83
8233.00,1.83
8232.00,1.83
8231.00,1.83
8230.00,1.83
8229.00,1.83
8228.00,1.83
8227.00,1.83
8226.00,1.83
8225.00,1.84
8224.00,1.84
8223.00,1.84
8222.00,1.84
8221.00,1.84
8220.00,1.84
8219.00,1.84
8218.00,1.84
8217.00,1.84
8216.00,1.84
8215.00,1.84
8214.00,1.84
8213.00,1.84
8212.00,1.85
8211.00,1.85
8210.00,1.85
8209.00,1.85
8208.00,1.85
8207.00,1.85
8206.00,1.85
8205.00,1.85
8204.00,1.85
8203.00,1.85
8202.00,1.85
8201.00,1.85
8200.00,1.85
8199.00,1.85
8198.00,1.85
8197.00,1.85
8196.00,1.85
8195.00,1.85
8194.00,1.85
8193.00,1.85
8192.00,1.85
8191.00,1.85
8190.00,1.85
8189.00,1.85
8188.00,1.85
8187.00,1.85
8186.00,1.85
8185.00,1.86
8184.00,1.86
8183.00,1.86
8182.00,1.86
8181.00,1.87
8180.00,1.87
8179.00,1.87
8178.00,1.87
8177.00,1.87
8176.00,1.87
8175.00,1.88
8174.00,1.88
8173.00,1.88
8172.00,1.88
8171.00,1.88
8170.00,1.88
8169.00,1.88
8168.00,1.87
8167.00,1.87
8166.00,1.87
8165.00,1.87
8164.00,1.87
8163.00,1.87
8162.00,1.87
8161.00,1.87
8160.00,1.87
8159.00,1.88
8158.00,1.88
8157.00,1.88
8156.00,1.88
8155.00,1.88
8154.00,1.88
8153.00,1.89
8152.00,1.89
8151.00,1.89
8150.00,1.89
8149.00,1.89
8148.00,1.89
8147.00,1.89
8146.00,1.89
8145.00,1.89
8144.00,1.89
8143.00,1.89
8142.00,1.89
8141.00,1.89
8140.00,1.89
8139.00,1.89
8138.00,1.89
8137.00,1.89
8136.00,1.89
8135.00,1.89
8134.00,1.89
8133.00,1.89
8132.00,1.89
8131.00,1.89
8130.00,1.89
8129.00,1.89
8128.00,1.89
8127.00,1.89
8126.00,1.89
8125.00,1.89
8124.00,1.90
8123.00,1.90
8122.00,1.90
8121.00,1.90
8120.00,1.90
8119.00,1.90
8118.00,1.90
8117.00,1.90
8116.00,1.90
8115.00,1.90
8114.00,1.90
8113.00,1.90
8112.00,1.90
8111.00,1.90
8110.00,1.90
8109.00,1.90
8108.00,1.90
8107.00,1.90
8106.00,1.90
8105.00,1.90
8104.00,1.90
8103.00,1.90
8102.00,1.90
8101.00,1.91
8100.00,1.91
8099.00,1.91
8098.00,1.91
8097.00,1.91
8096.00,1.91
8095.00,1.91
8094.00,1.91
8093.00,1.91
8092.00,1.91
8091.00,1.91
8090.00,1.91
8089.00,1.91
8088.00,1.91
8087.00,1.92
8086.00,1.92
8085.00,1.92
8084.00,1.92
8083.00,1.92
8082.00,1.92
8081.00,1.92
8080.00,1.92
8079.00,1.92
8078.00,1.92
8077.00,1.92
8076.00,1.93
8075.00,1.93
8074.00,1.93
8073.00,1.93
8072.00,1.93
8071.00,1.93
8070.00,1.93
8069.00,1.93
8068.00,1.93
8067.00,1.93
8066.00,1.93
8065.00,1.93
8064.00,1.93
8063.00,1.93
8062.00,1.92
8061.00,1.92
8060.00,1.92
8059.00,1.92
8058.00,1.92
8057.00,1.92
8056.00,1.92
8055.00,1.92
8054.00,1.92
8053.00,1.92
8052.00,1.92
8051.00,1.92
8050.00,1.93
8049.00,1.93
8048.00,1.93
8047.00,1.93
8046.00,1.93
8045.00,1.93
8044.00,1.94
8043.00,1.94
8042.00,1.94
8041.00,1.94
8040.00,1.94
8039.00,1.94
8038.00,1.94
8037.00,1.94
8036.00,1.95
8035.00,1.95
8034.00,1.95
8033.00,1.94
8032.00,1.94
8031.00,1.94
8030.00,1.94
8029.00,1.94
8028.00,1.94
8027.00,1.94
8026.00,1.94
8025.00,1.94
8024.00,1.94
8023.00,1.94
8022.00,1.94
8021.00,1.94
8020.00,1.94
8019.00,1.94
8018.00,1.95
8017.00,1.95
8016.00,1.95
8015.00,1.95
8014.00,1.95
8013.00,1.95
8012.00,1.95
8011.00,1.96
8010.00,1.96
8009.00,1.96
8008.00,1.96
8007.00,1.96
8006.00,1.96
8005.00,1.96
8004.00,1.96
8003.00,1.96
8002.00,1.96
8001.00,1.96
8000.00,1.96
7999.00,1.96
7998.00,1.96
7997.00,1.96
7996.00,1.96
7995.00,1.96
7994.00,1.96
7993.00,1.96
7992.00,1.96
7991.00,1.96
7990.00,1.96
7989.00,1.96
7988.00,1.96
7987.00,1.96
7986.00,1.96
7985.00,1.96
7984.00,1.96
7983.00,1.96
7982.00,1.96
7981.00,1.96
7980.00,1.96
7979.00,1.96
7978.00,1.96
7977.00,1.96
7976.00,1.96
7975.00,1.96
7974.00,1.96
7973.00,1.96
7972.00,1.96
7971.00,1.96
7970.00,1.96
7969.00,1.96
7968.00,1.97
7967.00,1.97
7966.00,1.97
7965.00,1.97
7964.00,1.97
7963.00,1.97
7962.00,1.97
7961.00,1.97
7960.00,1.97
7959.00,1.97
7958.00,1.97
7957.00,1.97
7956.00,1.97
7955.00,1.97
7954.00,1.97
7953.00,1.97
7952.00,1.97
7951.00,1.97
7950.00,1.97
7949.00,1.97
7948.00,1.97
7947.00,1.97
7946.00,1.97
7945.00,1.97
7944.00,1.97
7943.00,1.97
7942.00,1.97
7941.00,1.97
7940.00,1.97
7939.00,1.97
7938.00,1.97
7937.00,1.97
7936.00,1.97
7935.00,1.97
7934.00,1.97
7933.00,1.97
7932.00,1.97
7931.00,1.97
7930.00,1.97
7929.00,1.97
7928.00,1.97
7927.00,1.97
7926.00,1.97
7925.00,1.97
7924.00,1.97
7923.00,1.97
7922.00,1.97
7921.00,1.98
7920.00,1.98
7919.00,1.98
7918.00,1.98
7917.00,1.98
7916.00,1.98
7915.00,1.98
7914.00,1.98
7913.00,1.98
7912.00,1.98
7911.00,1.98
7910.00,1.98
7909.00,1.98
7908.00,1.98
7907.00,1.98
7906.00,1.98
7905.00,1.98
7904.00,1.98
7903.00,1.98
7902.00,1.98
7901.00,1.98
7900.00,1.98
7899.00,1.98
7898.00,1.98
7897.00,1.98
7896.00,1.98
7895.00,1.98
7894.00,1.98
7893.00,1.98
7892.00,1.98
7891.00,1.98
7890.00,1.98
7889.00,1.98
7888.00,1.98
7887.00,1.98
7886.00,1.98
7885.00,1.98
7884.00,1.99
7883.00,1.99
7882.00,1.99
7881.00,1.99
7880.00,1.99
7879.00,1.99
7878.00,1.99
7877.00,1.99
7876.00,1.99
7875.00,1.99
7874.00,1.99
7873.00,1.99
7872.00,1.99
7871.00,2.00
7870.00,2.00
7869.00,2.00
7868.00,2.00
7867.00,2.00
7866.00,2.00
7865.00,1.99
7864.00,1.99
7863.00,1.99
7862.00,1.99
7861.00,1.99
7860.00,1.99
7859.00,1.99
7858.00,1.99
7857.00,1.99
7856.00,1.99
7855.00,1.99
7854.00,1.99
7853.00,1.99
7852.00,1.99
7851.00,2.00
7850.00,2.00
7849.00,2.00
7848.00,2.00
7847.00,2.00
7846.00,2.00
7845.00,2.01
7844.00,2.01
7843.00,2.01
7842.00,2.01
7841.00,2.01
7840.00,2.01
7839.00,2.01
7838.00,2.02
7837.00,2.02
7836.00,2.02
7835.00,2.02
7834.00,2.02
7833.00,2.02
7832.00,2.02
7831.00,2.02
7830.00,2.02
7829.00,2.02
7828.00,2.02
7827.00,2.02
7826.00,2.02
7825.00,2.02
7824.00,2.01
7823.00,2.01
7822.00,2.01
7821.00,2.01
7820.00,2.01
7819.00,2.01
7818.00,2.01
7817.00,2.01
7816.00,2.01
7815.00,2.01
7814.00,2.01
7813.00,2.01
7812.00,2.01
7811.00,2.01
7810.00,2.01
7809.00,2.01
7808.00,2.01
7807.00,2.01
7806.00,2.01
7805.00,2.01
7804.00,2.01
7803.00,2.01
7802.00,2.01
7801.00,2.01
7800.00,2.01
7799.00,2.01
7798.00,2.01
7797.00,2.01
7796.00,2.01
7795.00,2.02
7794.00,2.02
7793.00,2.02
7792.00,2.02
7791.00,2.02
7790.00,2.02
7789.00,2.02
7788.00,2.02
7787.00,2.02
7786.00,2.02
7785.00,2.02
7784.00,2.02
7783.00,2.02
7782.00,2.02
7781.00,2.02
7780.00,2.02
7779.00,2.02
7778.00,2.02
7777.00,2.02
7776.00,2.02
7775.00,2.02
7774.00,2.03
7773.00,2.03
7772.00,2.03
7771.00,2.03
7770.00,2.03
7769.00,2.03
7768.00,2.03
7767.00,2.03
7766.00,2.03
7765.00,2.03
7764.00,2.03
7763.00,2.03
7762.00,2.03
7761.00,2.03
7760.00,2.03
7759.00,2.03
7758.00,2.03
7757.00,2.03
7756.00,2.03
7755.00,2.03
7754.00,2.03
7753.00,2.03
7752.00,2.03
7751.00,2.03
7750.00,2.03
7749.00,2.03
7748.00,2.03
7747.00,2.03
7746.00,2.03
7745.00,2.03
7744.00,2.03
7743.00,2.03
7742.00,2.03
7741.00,2.03
7740.00,2.03
7739.00,2.03
7738.00,2.03
7737.00,2.03
7736.00,2.03
7735.00,2.03
7734.00,2.03
7733.00,2.03
7732.00,2.03
7731.00,2.03
7730.00,2.02
7729.00,2.02
7728.00,2.02
7727.00,2.02
7726.00,2.02
7725.00,2.02
7724.00,2.02
7723.00,2.02
7722.00,2.02
7721.00,2.01
7720.00,2.01
7719.00,2.01
7718.00,2.01
7717.00,2.01
7716.00,2.01
7715.00,2.01
7714.00,2.01
7713.00,2.01
7712.00,2.01
7711.00,2.01
7710.00,2.01
7709.00,2.01
7708.00,2.01
7707.00,2.01
7706.00,2.01
7705.00,2.02
7704.00,2.02
7703.00,2.02
7702.00,2.02
7701.00,2.02
7700.00,2.02
7699.00,2.02
7698.00,2.02
7697.00,2.02
7696.00,2.02
7695.00,2.02
7694.00,2.02
7693.00,2.02
7692.00,2.02
7691.00,2.02
7690.00,2.02
7689.00,2.02
7688.00,2.02
7687.00,2.02
7686.00,2.03
7685.00,2.03
7684.00,2.03
7683.00,2.03
7682.00,2.03
7681.00,2.03
7680.00,2.03
7679.00,2.03
7678.00,2.03
7677.00,2.03
7676.00,2.03
7675.00,2.03
7674.00,2.03
7673.00,2.03
7672.00,2.03
7671.00,2.03
7670.00,2.03
7669.00,2.03
7668.00,2.03
7667.00,2.03
7666.00,2.03
7665.00,2.03
7664.00,2.03
7663.00,2.03
7662.00,2.03
7661.00,2.03
7660.00,2.03
7659.00,2.03
7658.00,2.03
7657.00,2.03
7656.00,2.03
7655.00,2.03
7654.00,2.03
7653.00,2.03
7652.00,2.03
7651.00,2.03
7650.00,2.03
7649.00,2.03
7648.00,2.03
7647.00,2.03
7646.00,2.03
7645.00,2.03
7644.00,2.03
7643.00,2.03
7642.00,2.03
7641.00,2.02
7640.00,2.02
7639.00,2.02
7638.00,2.02
7637.00,2.02
7636.00,2.02
7635.00,2.02
7634.00,2.02
7633.00,2.02
7632.00,2.02
7631.00,2.02
7630.00,2.03
7629.00,2.03
7628.00,2.03
7627.00,2.03
7626.00,2.03
7625.00,2.03
7624.00,2.03
7623.00,2.03
7622.00,2.03
7621.00,2.03
7620.00,2.03
7619.00,2.03
7618.00,2.03
7617.00,2.03
7616.00,2.03
7615.00,2.03
7614.00,2.03
7613.00,2.03
7612.00,2.03
7611.00,2.03
7610.00,2.03
7609.00,2.03
7608.00,2.03
7607.00,2.03
7606.00,2.03
7605.00,2.03
7604.00,2.03
7603.00,2.02
7602.00,2.02
7601.00,2.02
7600.00,2.02
7599.00,2.02
7598.00,2.02
7597.00,2.02
7596.00,2.02
7595.00,2.02
7594.00,2.02
7593.00,2.02
7592.00,2.02
7591.00,2.02
7590.00,2.02
7589.00,2.02
7588.00,2.02
7587.00,2.02
7586.00,2.02
7585.00,2.02
7584.00,2.02
7583.00,2.02
7582.00,2.02
7581.00,2.02
7580.00,2.02
7579.00,2.02
7578.00,2.02
7577.00,2.02
7576.00,2.02
7575.00,2.02
7574.00,2.03
7573.00,2.03
7572.00,2.03
7571.00,2.03
7570.00,2.03
7569.00,2.03
7568.00,2.03
7567.00,2.03
7566.00,2.03
7565.00,2.03
7564.00,2.02
7563.00,2.02
7562.00,2.02
7561.00,2.02
7560.00,2.02
7559.00,2.02
7558.00,2.02
7557.00,2.02
7556.00,2.02
7555.00,2.02
7554.00,2.02
7553.00,2.02
7552.00,2.02
7551.00,2.02
7550.00,2.02
7549.00,2.02
7548.00,2.02
7547.00,2.02
7546.00,2.02
7545.00,2.02
7544.00,2.02
7543.00,2.02
7542.00,2.02
7541.00,2.02
7540.00,2.02
7539.00,2.02
7538.00,2.02
7537.00,2.02
7536.00,2.02
7535.00,2.02
7534.00,2.02
7533.00,2.02
7532.00,2.02
7531.00,2.02
7530.00,2.01
7529.00,2.01
7528.00,2.01
7527.00,2.01
7526.00,2.01
7525.00,2.01
7524.00,2.01
7523.00,2.01
7522.00,2.01
7521.00,2.01
7520.00,2.01
7519.00,2.01
7518.00,2.00
7517.00,2.00
7516.00,2.00
7515.00,2.00
7514.00,2.00
7513.00,2.00
7512.00,2.00
7511.00,2.00
7510.00,2.00
7509.00,2.00
7508.00,2.00
7507.00,1.99
7506.00,1.99
7505.00,1.99
7504.00,1.99
7503.00,1.99
7502.00,1.99
7501.00,1.99
7500.00,1.99
7499.00,1.99
7498.00,1.99
7497.00,1.99
7496.00,1.99
7495.00,1.99
7494.00,1.99
7493.00,1.99
7492.00,1.99
7491.00,1.99
7490.00,1.99
7489.00,1.99
7488.00,1.98
7487.00,1.98
7486.00,1.98
7485.00,1.98
7484.00,1.98
7483.00,1.98
7482.00,1.98
7481.00,1.98
7480.00,1.98
7479.00,1.98
7478.00,1.98
7477.00,1.97
7476.00,1.97
7475.00,1.97
7474.00,1.97
7473.00,1.97
7472.00,1.97
7471.00,1.96
7470.00,1.96
7469.00,1.96
7468.00,1.96
7467.00,1.96
7466.00,1.96
7465.00,1.96
7464.00,1.96
7463.00,1.96
7462.00,1.96
7461.00,1.96
7460.00,1.95
7459.00,1.95
7458.00,1.95
7457.00,1.95
7456.00,1.95
7455.00,1.95
7454.00,1.95
7453.00,1.95
7452.00,1.95
7451.00,1.95
7450.00,1.95
7449.00,1.95
7448.00,1.95
7447.00,1.95
7446.00,1.95
7445.00,1.95
7444.00,1.95
7443.00,1.95
7442.00,1.94
7441.00,1.94
7440.00,1.94
7439.00,1.94
7438.00,1.94
7437.00,1.94
7436.00,1.94
7435.00,1.94
7434.00,1.94
7433.00,1.94
7432.00,1.94
7431.00,1.94
7430.00,1.94
7429.00,1.94
7428.00,1.94
7427.00,1.94
7426.00,1.94
7425.00,1.94
7424.00,1.94
7423.00,1.94
7422.00,1.94
7421.00,1.94
7420.00,1.93
7419.00,1.93
7418.00,1.93
7417.00,1.93
7416.00,1.93
7415.00,1.93
7414.00,1.93
7413.00,1.92
7412.00,1.92
7411.00,1.92
7410.00,1.92
7409.00,1.92
7408.00,1.91
7407.00,1.91
7406.00,1.91
7405.00,1.91
7404.00,1.90
7403.00,1.90
7402.00,1.90
7401.00,1.89
7400.00,1.89
7399.00,1.89
7398.00,1.88
7397.00,1.88
7396.00,1.88
7395.00,1.87
7394.00,1.87
7393.00,1.87
7392.00,1.87
7391.00,1.86
7390.00,1.86
7389.00,1.86
7388.00,1.85
7387.00,1.85
7386.00,1.85
7385.00,1.85
7384.00,1.84
7383.00,1.84
7382.00,1.84
7381.00,1.84
7380.00,1.84
7379.00,1.84
7378.00,1.83
7377.00,1.83
7376.00,1.83
7375.00,1.83
7374.00,1.83
7373.00,1.83
7372.00,1.83
7371.00,1.83
7370.00,1.83
7369.00,1.83
7368.00,1.83
7367.00,1.83
7366.00,1.83
7365.00,1.83
7364.00,1.83
7363.00,1.83
7362.00,1.83
7361.00,1.83
7360.00,1.83
7359.00,1.83
7358.00,1.83
7357.00,1.83
7356.00,1.82
7355.00,1.82
7354.00,1.82
7353.00,1.82
7352.00,1.82
7351.00,1.81
7350.00,1.81
7349.00,1.81
7348.00,1.81
7347.00,1.81
7346.00,1.81
7345.00,1.80
7344.00,1.80
7343.00,1.80
7342.00,1.80
7341.00,1.80
7340.00,1.80
7339.00,1.80
7338.00,1.80
7337.00,1.80
7336.00,1.80
7335.00,1.80
7334.00,1.80
7333.00,1.80
7332.00,1.80
7331.00,1.80
7330.00,1.80
7329.00,1.80
7328.00,1.80
7327.00,1.80
7326.00,1.80
7325.00,1.80
7324.00,1.80
7323.00,1.80
7322.00,1.80
7321.00,1.80
7320.00,1.80
7319.00,1.80
7318.00,1.80
7317.00,1.79
7316.00,1.79
7315.00,1.79
7314.00,1.79
7313.00,1.79
7312.00,1.78
7311.00,1.78
7310.00,1.78
7309.00,1.78
7308.00,1.78
7307.00,1.77
7306.00,1.77
7305.00,1.77
7304.00,1.77
7303.00,1.77
7302.00,1.77
7301.00,1.77
7300.00,1.76
7299.00,1.76
7298.00,1.76
7297.00,1.76
7296.00,1.76
7295.00,1.76
7294.00,1.76
7293.00,1.76
7292.00,1.76
7291.00,1.76
7290.00,1.76
7289.00,1.76
7288.00,1.75
7287.00,1.75
7286.00,1.75
7285.00,1.75
7284.00,1.75
7283.00,1.75
7282.00,1.75
7281.00,1.75
7280.00,1.75
7279.00,1.74
7278.00,1.74
7277.00,1.74
7276.00,1.74
7275.00,1.74
7274.00,1.73
7273.00,1.73
7272.00,1.73
7271.00,1.72
7270.00,1.72
7269.00,1.72
7268.00,1.72
7267.00,1.71
7266.00,1.71
7265.00,1.71
7264.00,1.71
7263.00,1.71
7262.00,1.70
7261.00,1.70
7260.00,1.70
7259.00,1.70
7258.00,1.70
7257.00,1.70
7256.00,1.69
7255.00,1.69
7254.00,1.69
7253.00,1.69
7252.00,1.69
7251.00,1.68
7250.00,1.68
7249.00,1.68
7248.00,1.67
7247.00,1.67
7246.00,1.67
7245.00,1.66
7244.00,1.66
7243.00,1.65
7242.00,1.65
7241.00,1.64
7240.00,1.63
7239.00,1.63
7238.00,1.62
7237.00,1.61
7236.00,1.61
7235.00,1.60
7234.00,1.60
7233.00,1.59
7232.00,1.58
7231.00,1.58
7230.00,1.57
7229.00,1.56
7228.00,1.56
7227.00,1.55
7226.00,1.55
7225.00,1.54
7224.00,1.54
7223.00,1.54
7222.00,1.53
7221.00,1.53
7220.00,1.52
7219.00,1.52
7218.00,1.52
7217.00,1.51
7216.00,1.51
7215.00,1.51
7214.00,1.50
7213.00,1.50
7212.00,1.50
7211.00,1.49
7210.00,1.49
7209.00,1.49
7208.00,1.48
7207.00,1.48
7206.00,1.48
7205.00,1.47
7204.00,1.47
7203.00,1.46
7202.00,1.46
7201.00,1.46
7200.00,1.45
7199.00,1.45
7198.00,1.44
7197.00,1.44
7196.00,1.43
7195.00,1.43
7194.00,1.42
7193.00,1.42
7192.00,1.41
7191.00,1.41
7190.00,1.40
7189.00,1.40
7188.00,1.39
7187.00,1.39
7186.00,1.38
7185.00,1.38
7184.00,1.37
7183.00,1.37
7182.00,1.36
7181.00,1.36
7180.00,1.35
7179.00,1.35
7178.00,1.34
7177.00,1.34
7176.00,1.34
7175.00,1.33
7174.00,1.33
7173.00,1.32
7172.00,1.32
7171.00,1.32
7170.00,1.31
7169.00,1.31
7168.00,1.31
7167.00,1.30
7166.00,1.30
7165.00,1.30
7164.00,1.29
7163.00,1.29
7162.00,1.29
7161.00,1.28
7160.00,1.28
7159.00,1.28
7158.00,1.28
7157.00,1.27
7156.00,1.27
7155.00,1.27
7154.00,1.26
7153.00,1.26
7152.00,1.26
7151.00,1.25
7150.00,1.25
7149.00,1.25
7148.00,1.24
7147.00,1.24
7146.00,1.23
7145.00,1.23
7144.00,1.22
7143.00,1.22
7142.00,1.21
7141.00,1.21
7140.00,1.20
7139.00,1.20
7138.00,1.19
7137.00,1.19
7136.00,1.18
7135.00,1.18
7134.00,1.17
7133.00,1.17
7132.00,1.16
7131.00,1.16
7130.00,1.16
7129.00,1.15
7128.00,1.15
7127.00,1.14
7126.00,1.14
7125.00,1.13
7124.00,1.13
7123.00,1.13
7122.00,1.12
7121.00,1.12
7120.00,1.11
7119.00,1.11
7118.00,1.11
7117.00,1.10
7116.00,1.10
7115.00,1.10
7114.00,1.09
7113.00,1.09
7112.00,1.09
7111.00,1.08
7110.00,1.08
7109.00,1.08
7108.00,1.08
7107.00,1.07
7106.00,1.07
7105.00,1.07
7104.00,1.06
7103.00,1.06
7102.00,1.06
7101.00,1.05
7100.00,1.05
7099.00,1.05
7098.00,1.05
7097.00,1.04
7096.00,1.04
7095.00,1.04
7094.00,1.03
7093.00,1.03
7092.00,1.03
7091.00,1.02
7090.00,1.02
7089.00,1.02
7088.00,1.01
7087.00,1.01
7086.00,1.01
7085.00,1.01
7084.00,1.00
7083.00,1.00
7082.00,1.00
7081.00,1.00
7080.00,0.99
7079.00,0.99
7078.00,0.99
7077.00,0.98
7076.00,0.98
7075.00,0.98
7074.00,0.97
7073.00,0.97
7072.00,0.96
7071.00,0.96
7070.00,0.96
7069.00,0.95
7068.00,0.95
7067.00,0.94
7066.00,0.94
7065.00,0.94
7064.00,0.94
7063.00,0.93
7062.00,0.93
7061.00,0.93
7060.00,0.92
7059.00,0.92
7058.00,0.92
7057.00,0.92
7056.00,0.92
7055.00,0.91
7054.00,0.91
7053.00,0.91
7052.00,0.91
7051.00,0.91
7050.00,0.90
7049.00,0.90
7048.00,0.90
7047.00,0.90
7046.00,0.90
7045.00,0.90
7044.00,0.90
7043.00,0.89
7042.00,0.89
7041.00,0.89
7040.00,0.89
7039.00,0.89
7038.00,0.89
7037.00,0.88
7036.00,0.88
7035.00,0.88
7034.00,0.88
7033.00,0.88
7032.00,0.87
7031.00,0.87
7030.00,0.87
7029.00,0.87
7028.00,0.87
7027.00,0.86
7026.00,0.86
7025.00,0.86
7024.00,0.86
7023.00,0.86
7022.00,0.86
7021.00,0.85
7020.00,0.85
7019.00,0.85
7018.00,0.85
7017.00,0.85
7016.00,0.85
7015.00,0.85
7014.00,0.84
7013.00,0.84
7012.00,0.84
7011.00,0.84
7010.00,0.84
7009.00,0.84
7008.00,0.84
7007.00,0.84
7006.00,0.83
7005.00,0.83
7004.00,0.83
7003.00,0.83
7002.00,0.83
7001.00,0.83
7000.00,0.83
6999.00,0.83
6998.00,0.83
6997.00,0.83
6996.00,0.83
6995.00,0.82
6994.00,0.82
6993.00,0.82
6992.00,0.82
6991.00,0.82
6990.00,0.82
6989.00,0.81
6988.00,0.81
6987.00,0.81
6986.00,0.81
6985.00,0.81
6984.00,0.81
6983.00,0.81
6982.00,0.80
6981.00,0.80
6980.00,0.80
6979.00,0.80
6978.00,0.80
6977.00,0.80
6976.00,0.80
6975.00,0.80
6974.00,0.80
6973.00,0.80
6972.00,0.80
6971.00,0.79
6970.00,0.79
6969.00,0.79
6968.00,0.79
6967.00,0.79
6966.00,0.79
6965.00,0.79
6964.00,0.79
6963.00,0.79
6962.00,0.79
6961.00,0.79
6960.00,0.79
6959.00,0.79
6958.00,0.79
6957.00,0.79
6956.00,0.79
6955.00,0.79
6954.00,0.79
6953.00,0.79
6952.00,0.79
6951.00,0.79
6950.00,0.79
6949.00,0.79
6948.00,0.79
6947.00,0.79
6946.00,0.78
6945.00,0.78
6944.00,0.78
6943.00,0.78
6942.00,0.78
6941.00,0.78
6940.00,0.78
6939.00,0.78
6938.00,0.78
6937.00,0.78
6936.00,0.78
6935.00,0.78
6934.00,0.78
6933.00,0.77
6932.00,0.77
6931.00,0.77
6930.00,0.77
6929.00,0.77
6928.00,0.77
6927.00,0.77
6926.00,0.77
6925.00,0.76
6924.00,0.76
6923.00,0.76
6922.00,0.76
6921.00,0.76
6920.00,0.76
6919.00,0.76
6918.00,0.76
6917.00,0.75
6916.00,0.75
6915.00,0.75
6914.00,0.75
6913.00,0.75
6912.00,0.75
6911.00,0.75
6910.00,0.75
6909.00,0.75
6908.00,0.75
6907.00,0.75
6906.00,0.75
6905.00,0.75
6904.00,0.75
6903.00,0.75
6902.00,0.75
6901.00,0.75
6900.00,0.75
6899.00,0.75
6898.00,0.75
6897.00,0.75
6896.00,0.75
6895.00,0.75
6894.00,0.75
6893.00,0.75
6892.00,0.75
6891.00,0.75
6890.00,0.75
6889.00,0.75
6888.00,0.75
6887.00,0.75
6886.00,0.75
6885.00,0.75
6884.00,0.75
6883.00,0.75
6882.00,0.75
6881.00,0.75
6880.00,0.75
6879.00,0.75
6878.00,0.75
6877.00,0.75
6876.00,0.75
6875.00,0.74
6874.00,0.74
6873.00,0.74
6872.00,0.74
6871.00,0.74
6870.00,0.74
6869.00,0.74
6868.00,0.74
6867.00,0.74
6866.00,0.74
6865.00,0.74
6864.00,0.74
6863.00,0.74
6862.00,0.74
6861.00,0.74
6860.00,0.74
6859.00,0.74
6858.00,0.74
6857.00,0.74
6856.00,0.74
6855.00,0.74
6854.00,0.74
6853.00,0.74
6852.00,0.74
6851.00,0.74
6850.00,0.74
6849.00,0.75
6848.00,0.75
6847.00,0.75
6846.00,0.75
6845.00,0.75
6844.00,0.75
6843.00,0.75
6842.00,0.75
6841.00,0.75
6840.00,0.75
6839.00,0.75
6838.00,0.75
6837.00,0.75
6836.00,0.75
6835.00,0.75
6834.00,0.75
6833.00,0.75
6832.00,0.75
6831.00,0.75
6830.00,0.75
6829.00,0.75
6828.00,0.75
6827.00,0.75
6826.00,0.75
6825.00,0.75
6824.00,0.75
6823.00,0.75
6822.00,0.75
6821.00,0.75
6820.00,0.75
6819.00,0.75
6818.00,0.75
6817.00,0.75
6816.00,0.75
6815.00,0.75
6814.00,0.75
6813.00,0.75
6812.00,0.76
6811.00,0.76
6810.00,0.76
6809.00,0.76
6808.00,0.76
6807.00,0.76
6806.00,0.76
6805.00,0.76
6804.00,0.76
6803.00,0.76
6802.00,0.76
6801.00,0.76
6800.00,0.76
6799.00,0.76
6798.00,0.76
6797.00,0.76
6796.00,0.76
6795.00,0.77
6794.00,0.77
6793.00,0.77
6792.00,0.77
6791.00,0.77
6790.00,0.77
6789.00,0.77
6788.00,0.77
6787.00,0.77
6786.00,0.77
6785.00,0.77
6784.00,0.77
6783.00,0.77
6782.00,0.77
6781.00,0.78
6780.00,0.78
6779.00,0.78
6778.00,0.78
6777.00,0.78
6776.00,0.78
6775.00,0.78
6774.00,0.78
6773.00,0.78
6772.00,0.78
6771.00,0.78
6770.00,0.79
6769.00,0.79
6768.00,0.79
6767.00,0.79
6766.00,0.79
6765.00,0.79
6764.00,0.79
6763.00,0.79
6762.00,0.79
6761.00,0.79
6760.00,0.79
6759.00,0.79
6758.00,0.79
6757.00,0.79
6756.00,0.79
6755.00,0.79
6754.00,0.79
6753.00,0.79
6752.00,0.80
6751.00,0.80
6750.00,0.80
6749.00,0.80
6748.00,0.80
6747.00,0.80
6746.00,0.80
6745.00,0.80
6744.00,0.81
6743.00,0.81
6742.00,0.81
6741.00,0.81
6740.00,0.81
6739.00,0.81
6738.00,0.81
6737.00,0.81
6736.00,0.81
6735.00,0.81
6734.00,0.81
6733.00,0.81
6732.00,0.81
6731.00,0.81
6730.00,0.81
6729.00,0.81
6728.00,0.82
6727.00,0.82
6726.00,0.82
6725.00,0.82
6724.00,0.82
6723.00,0.82
6722.00,0.82
6721.00,0.82
6720.00,0.82
6719.00,0.82
6718.00,0.83
6717.00,0.83
6716.00,0.83
6715.00,0.83
6714.00,0.83
6713.00,0.83
6712.00,0.83
6711.00,0.84
6710.00,0.84
6709.00,0.84
6708.00,0.84
6707.00,0.84
6706.00,0.84
6705.00,0.84
6704.00,0.84
6703.00,0.84
6702.00,0.84
6701.00,0.84
6700.00,0.84
6699.00,0.85
6698.00,0.85
6697.00,0.85
6696.00,0.85
6695.00,0.85
6694.00,0.85
6693.00,0.86
6692.00,0.86
6691.00,0.86
6690.00,0.86
6689.00,0.86
6688.00,0.87
6687.00,0.87
6686.00,0.87
6685.00,0.87
6684.00,0.87
6683.00,0.88
6682.00,0.88
6681.00,0.88
6680.00,0.88
6679.00,0.88
6678.00,0.88
6677.00,0.88
6676.00,0.88
6675.00,0.89
6674.00,0.89
6673.00,0.89
6672.00,0.89
6671.00,0.89
6670.00,0.89
6669.00,0.89
6668.00,0.89
6667.00,0.89
6666.00,0.89
6665.00,0.89
6664.00,0.90
6663.00,0.90
6662.00,0.90
6661.00,0.90
6660.00,0.90
6659.00,0.90
6658.00,0.90
6657.00,0.90
6656.00,0.91
6655.00,0.91
6654.00,0.91
6653.00,0.91
6652.00,0.91
6651.00,0.91
6650.00,0.91
6649.00,0.92
6648.00,0.92
6647.00,0.92
6646.00,0.92
6645.00,0.92
6644.00,0.92
6643.00,0.92
6642.00,0.93
6641.00,0.93
6640.00,0.93
6639.00,0.93
6638.00,0.93
6637.00,0.93
6636.00,0.93
6635.00,0.93
6634.00,0.94
6633.00,0.94
6632.00,0.94
6631.00,0.94
6630.00,0.94
6629.00,0.94
6628.00,0.94
6627.00,0.95
6626.00,0.95
6625.00,0.95
6624.00,0.95
6623.00,0.95
6622.00,0.95
6621.00,0.95
6620.00,0.96
6619.00,0.96
6618.00,0.96
6617.00,0.96
6616.00,0.96
6615.00,0.96
6614.00,0.96
6613.00,0.97
6612.00,0.97
6611.00,0.97
6610.00,0.97
6609.00,0.97
6608.00,0.97
6607.00,0.97
6606.00,0.97
6605.00,0.98
6604.00,0.98
6603.00,0.98
6602.00,0.98
6601.00,0.98
6600.00,0.98
6599.00,0.98
6598.00,0.99
6597.00,0.99
6596.00,0.99
6595.00,0.99
6594.00,0.99
6593.00,0.99
6592.00,0.99
6591.00,0.99
6590.00,0.99
6589.00,0.99
6588.00,0.99
6587.00,0.99
6586.00,1.00
6585.00,1.00
6584.00,1.00
6583.00,1.00
6582.00,1.00
6581.00,1.00
6580.00,1.00
6579.00,1.00
6578.00,1.00
6577.00,1.00
6576.00,1.00
6575.00,1.00
6574.00,1.01
6573.00,1.01
6572.00,1.01
6571.00,1.01
6570.00,1.01
6569.00,1.01
6568.00,1.02
6567.00,1.02
6566.00,1.02
6565.00,1.02
6564.00,1.02
6563.00,1.03
6562.00,1.03
6561.00,1.03
6560.00,1.03
6559.00,1.04
6558.00,1.04
6557.00,1.04
6556.00,1.04
6555.00,1.04
6554.00,1.05
6553.00,1.05
6552.00,1.05
6551.00,1.05
6550.00,1.05
6549.00,1.05
6548.00,1.05
6547.00,1.06
6546.00,1.06
6545.00,1.06
6544.00,1.06
6543.00,1.06
6542.00,1.06
6541.00,1.06
6540.00,1.06
6539.00,1.07
6538.00,1.07
6537.00,1.07
6536.00,1.07
6535.00,1.07
6534.00,1.07
6533.00,1.07
6532.00,1.07
6531.00,1.07
6530.00,1.07
6529.00,1.08
6528.00,1.08
6527.00,1.08
6526.00,1.08
6525.00,1.08
6524.00,1.08
6523.00,1.08
6522.00,1.08
6521.00,1.08
6520.00,1.09
6519.00,1.09
6518.00,1.09
6517.00,1.09
6516.00,1.09
6515.00,1.09
6514.00,1.09
6513.00,1.09
6512.00,1.09
6511.00,1.10
6510.00,1.10
6509.00,1.10
6508.00,1.10
6507.00,1.10
6506.00,1.10
6505.00,1.10
6504.00,1.10
6503.00,1.10
6502.00,1.10
6501.00,1.11
6500.00,1.11
6499.00,1.11
6498.00,1.11
6497.00,1.11
6496.00,1.11
6495.00,1.11
6494.00,1.11
6493.00,1.11
6492.00,1.11
6491.00,1.11
6490.00,1.12
6489.00,1.12
6488.00,1.12
6487.00,1.12
6486.00,1.12
6485.00,1.12
6484.00,1.12
6483.00,1.12
6482.00,1.12
6481.00,1.12
6480.00,1.12
6479.00,1.12
6478.00,1.12
6477.00,1.12
6476.00,1.12
6475.00,1.13
6474.00,1.13
6473.00,1.13
6472.00,1.13
6471.00,1.13
6470.00,1.13
6469.00,1.13
6468.00,1.13
6467.00,1.13
6466.00,1.13
6465.00,1.13
6464.00,1.13
6463.00,1.13
6462.00,1.13
6461.00,1.13
6460.00,1.13
6459.00,1.13
6458.00,1.14
6457.00,1.14
6456.00,1.14
6455.00,1.14
6454.00,1.14
6453.00,1.14
6452.00,1.14
6451.00,1.14
6450.00,1.15
6449.00,1.15
6448.00,1.15
6447.00,1.15
6446.00,1.15
6445.00,1.15
6444.00,1.15
6443.00,1.15
6442.00,1.15
6441.00,1.16
6440.00,1.16
6439.00,1.16
6438.00,1.16
6437.00,1.16
6436.00,1.16
6435.00,1.16
6434.00,1.16
6433.00,1.16
6432.00,1.17
6431.00,1.17
6430.00,1.17
6429.00,1.17
6428.00,1.17
6427.00,1.17
6426.00,1.17
6425.00,1.17
6424.00,1.17
6423.00,1.17
6422.00,1.17
6421.00,1.17
6420.00,1.18
6419.00,1.18
6418.00,1.18
6417.00,1.18
6416.00,1.18
6415.00,1.18
6414.00,1.18
6413.00,1.18
6412.00,1.18
6411.00,1.18
6410.00,1.18
6409.00,1.18
6408.00,1.18
6407.00,1.18
6406.00,1.18
6405.00,1.18
6404.00,1.18
6403.00,1.18
6402.00,1.18
6401.00,1.18
6400.00,1.18
6399.00,1.18
6398.00,1.19
6397.00,1.19
6396.00,1.19
6395.00,1.19
6394.00,1.19
6393.00,1.19
6392.00,1.19
6391.00,1.19
6390.00,1.19
6389.00,1.19
6388.00,1.19
6387.00,1.19
6386.00,1.19
6385.00,1.19
6384.00,1.20
6383.00,1.20
6382.00,1.20
6381.00,1.20
6380.00,1.20
6379.00,1.20
6378.00,1.20
6377.00,1.20
6376.00,1.20
6375.00,1.20
6374.00,1.21
6373.00,1.21
6372.00,1.21
6371.00,1.21
6370.00,1.21
6369.00,1.21
6368.00,1.21
6367.00,1.22
6366.00,1.22
6365.00,1.22
6364.00,1.22
6363.00,1.22
6362.00,1.22
6361.00,1.22
6360.00,1.22
6359.00,1.22
6358.00,1.23
6357.00,1.23
6356.00,1.23
6355.00,1.23
6354.00,1.23
6353.00,1.23
6352.00,1.23
6351.00,1.23
6350.00,1.23
6349.00,1.24
6348.00,1.24
6347.00,1.24
6346.00,1.24
6345.00,1.24
6344.00,1.24
6343.00,1.24
6342.00,1.24
6341.00,1.25
6340.00,1.25
6339.00,1.25
6338.00,1.25
6337.00,1.25
6336.00,1.25
6335.00,1.25
6334.00,1.26
6333.00,1.26
6332.00,1.26
6331.00,1.26
6330.00,1.26
6329.00,1.26
6328.00,1.26
6327.00,1.27
6326.00,1.27
6325.00,1.27
6324.00,1.27
6323.00,1.27
6322.00,1.27
6321.00,1.27
6320.00,1.28
6319.00,1.28
6318.00,1.28
6317.00,1.28
6316.00,1.28
6315.00,1.29
6314.00,1.29
6313.00,1.29
6312.00,1.29
6311.00,1.29
6310.00,1.29
6309.00,1.29
6308.00,1.30
6307.00,1.30
6306.00,1.30
6305.00,1.30
6304.00,1.30
6303.00,1.30
6302.00,1.31
6301.00,1.31
6300.00,1.31
6299.00,1.31
6298.00,1.31
6297.00,1.31
6296.00,1.31
6295.00,1.31
6294.00,1.32
6293.00,1.32
6292.00,1.32
6291.00,1.32
6290.00,1.32
6289.00,1.32
6288.00,1.33
6287.00,1.33
6286.00,1.33
6285.00,1.33
6284.00,1.33
6283.00,1.33
6282.00,1.34
6281.00,1.34
6280.00,1.34
6279.00,1.34
6278.00,1.34
6277.00,1.35
6276.00,1.35
6275.00,1.35
6274.00,1.35
6273.00,1.35
6272.00,1.35
6271.00,1.35
6270.00,1.35
6269.00,1.36
6268.00,1.36
6267.00,1.36
6266.00,1.36
6265.00,1.36
6264.00,1.36
6263.00,1.36
6262.00,1.37
6261.00,1.37
6260.00,1.37
6259.00,1.37
6258.00,1.37
6257.00,1.38
6256.00,1.38
6255.00,1.38
6254.00,1.38
6253.00,1.39
6252.00,1.39
6251.00,1.39
6250.00,1.39
6249.00,1.39
6248.00,1.40
6247.00,1.40
6246.00,1.40
6245.00,1.40
6244.00,1.40
6243.00,1.40
6242.00,1.41
6241.00,1.41
6240.00,1.41
6239.00,1.41
6238.00,1.41
6237.00,1.41
6236.00,1.42
6235.00,1.42
6234.00,1.42
6233.00,1.42
6232.00,1.42
6231.00,1.42
6230.00,1.43
6229.00,1.43
6228.00,1.43
6227.00,1.43
6226.00,1.44
6225.00,1.44
6224.00,1.44
6223.00,1.44
6222.00,1.44
6221.00,1.45
6220.00,1.45
6219.00,1.45
6218.00,1.45
6217.00,1.45
6216.00,1.45
6215.00,1.46
6214.00,1.46
6213.00,1.46
6212.00,1.46
6211.00,1.46
6210.00,1.46
6209.00,1.47
6208.00,1.47
6207.00,1.47
6206.00,1.47
6205.00,1.47
6204.00,1.48
6203.00,1.48
6202.00,1.48
6201.00,1.48
6200.00,1.49
6199.00,1.49
6198.00,1.49
6197.00,1.49
6196.00,1.50
6195.00,1.50
6194.00,1.50
6193.00,1.50
6192.00,1.51
6191.00,1.51
6190.00,1.51
6189.00,1.51
6188.00,1.52
6187.00,1.52
6186.00,1.52
6185.00,1.52
6184.00,1.52
6183.00,1.53
6182.00,1.53
6181.00,1.53
6180.00,1.53
6179.00,1.53
6178.00,1.53
6177.00,1.54
6176.00,1.54
6175.00,1.54
6174.00,1.54
6173.00,1.54
6172.00,1.55
6171.00,1.55
6170.00,1.55
6169.00,1.55
6168.00,1.56
6167.00,1.56
6166.00,1.56
6165.00,1.56
6164.00,1.57
6163.00,1.57
6162.00,1.57
6161.00,1.57
6160.00,1.58
6159.00,1.58
6158.00,1.58
6157.00,1.59
6156.00,1.59
6155.00,1.59
6154.00,1.59
6153.00,1.60
6152.00,1.60
6151.00,1.60
6150.00,1.60
6149.00,1.61
6148.00,1.61
6147.00,1.61
6146.00,1.61
6145.00,1.62
6144.00,1.62
6143.00,1.62
6142.00,1.62
6141.00,1.62
6140.00,1.63
6139.00,1.63
6138.00,1.63
6137.00,1.63
6136.00,1.64
6135.00,1.64
6134.00,1.64
6133.00,1.64
6132.00,1.65
6131.00,1.65
6130.00,1.65
6129.00,1.65
6128.00,1.66
6127.00,1.66
6126.00,1.66
6125.00,1.66
6124.00,1.67
6123.00,1.67
6122.00,1.67
6121.00,1.67
6120.00,1.68
6119.00,1.68
6118.00,1.68
6117.00,1.68
6116.00,1.69
6115.00,1.69
6114.00,1.69
6113.00,1.69
6112.00,1.70
6111.00,1.70
6110.00,1.70
6109.00,1.70
6108.00,1.71
6107.00,1.71
6106.00,1.71
6105.00,1.71
6104.00,1.71
6103.00,1.72
6102.00,1.72
6101.00,1.72
6100.00,1.72
6099.00,1.72
6098.00,1.73
6097.00,1.73
6096.00,1.73
6095.00,1.73
6094.00,1.73
6093.00,1.74
6092.00,1.74
6091.00,1.74
6090.00,1.74
6089.00,1.74
6088.00,1.75
6087.00,1.75
6086.00,1.75
6085.00,1.75
6084.00,1.75
6083.00,1.75
6082.00,1.76
6081.00,1.76
6080.00,1.76
6079.00,1.76
6078.00,1.77
6077.00,1.77
6076.00,1.77
6075.00,1.77
6074.00,1.78
6073.00,1.78
6072.00,1.78
6071.00,1.78
6070.00,1.78
6069.00,1.79
6068.00,1.79
6067.00,1.79
6066.00,1.79
6065.00,1.79
6064.00,1.80
6063.00,1.80
6062.00,1.80
6061.00,1.80
6060.00,1.80
6059.00,1.80
6058.00,1.81
6057.00,1.81
6056.00,1.81
6055.00,1.81
6054.00,1.81
6053.00,1.81
6052.00,1.81
6051.00,1.82
6050.00,1.82
6049.00,1.82
6048.00,1.82
6047.00,1.82
6046.00,1.82
6045.00,1.82
6044.00,1.82
6043.00,1.83
6042.00,1.83
6041.00,1.83
6040.00,1.83
6039.00,1.83
6038.00,1.83
6037.00,1.83
6036.00,1.83
6035.00,1.83
6034.00,1.83
6033.00,1.84
6032.00,1.84
6031.00,1.84
6030.00,1.84
6029.00,1.84
6028.00,1.84
6027.00,1.84
6026.00,1.84
6025.00,1.84
6024.00,1.85
6023.00,1.85
6022.00,1.85
6021.00,1.85
6020.00,1.85
6019.00,1.85
6018.00,1.85
6017.00,1.85
6016.00,1.85
6015.00,1.85
6014.00,1.85
6013.00,1.85
6012.00,1.85
6011.00,1.85
6010.00,1.85
6009.00,1.85
6008.00,1.85
6007.00,1.85
6006.00,1.85
6005.00,1.85
6004.00,1.85
6003.00,1.85
6002.00,1.84
6001.00,1.84
6000.00,1.84
5999.00,1.84
5998.00,1.84
5997.00,1.84
5996.00,1.83
5995.00,1.83
5994.00,1.83
5993.00,1.83
5992.00,1.83
5991.00,1.82
5990.00,1.82
5989.00,1.82
5988.00,1.82
5987.00,1.81
5986.00,1.81
5985.00,1.80
5984.00,1.80
5983.00,1.80
5982.00,1.79
5981.00,1.79
5980.00,1.78
5979.00,1.77
5978.00,1.77
5977.00,1.76
5976.00,1.75
5975.00,1.75
5974.00,1.74
5973.00,1.73
5972.00,1.72
5971.00,1.71
5970.00,1.70
5969.00,1.69
5968.00,1.68
5967.00,1.67
5966.00,1.65
5965.00,1.64
5964.00,1.63
5963.00,1.62
5962.00,1.60
5961.00,1.59
5960.00,1.58
5959.00,1.57
5958.00,1.55
5957.00,1.54
5956.00,1.53
5955.00,1.52
5954.00,1.51
5953.00,1.50
5952.00,1.49
5951.00,1.48
5950.00,1.47
5949.00,1.46
5948.00,1.45
5947.00,1.44
5946.00,1.44
5945.00,1.43
5944.00,1.42
5943.00,1.42
5942.00,1.41
5941.00,1.41
5940.00,1.41
5939.00,1.40
5938.00,1.40
5937.00,1.40
5936.00,1.39
5935.00,1.39
5934.00,1.39
5933.00,1.39
5932.00,1.39
5931.00,1.38
5930.00,1.38
5929.00,1.38
5928.00,1.38
5927.00,1.38
5926.00,1.37
5925.00,1.37
5924.00,1.37
5923.00,1.36
5922.00,1.36
5921.00,1.36
5920.00,1.35
5919.00,1.35
5918.00,1.35
5917.00,1.34
5916.00,1.34
5915.00,1.33
5914.00,1.33
5913.00,1.32
5912.00,1.32
5911.00,1.32
5910.00,1.31
5909.00,1.31
5908.00,1.31
5907.00,1.30
5906.00,1.30
5905.00,1.30
5904.00,1.30
5903.00,1.29
5902.00,1.29
5901.00,1.29
5900.00,1.29
5899.00,1.29
5898.00,1.29
5897.00,1.30
5896.00,1.30
5895.00,1.30
5894.00,1.30
5893.00,1.31
5892.00,1.31
5891.00,1.31
5890.00,1.32
5889.00,1.32
5888.00,1.33
5887.00,1.33
5886.00,1.33
5885.00,1.34
5884.00,1.34
5883.00,1.35
5882.00,1.35
5881.00,1.36
5880.00,1.36
5879.00,1.37
5878.00,1.37
5877.00,1.38
5876.00,1.38
5875.00,1.39
5874.00,1.39
5873.00,1.39
5872.00,1.40
5871.00,1.40
5870.00,1.41
5869.00,1.41
5868.00,1.41
5867.00,1.42
5866.00,1.42
5865.00,1.42
5864.00,1.42
5863.00,1.43
5862.00,1.43
5861.00,1.43
5860.00,1.43
5859.00,1.43
5858.00,1.43
5857.00,1.43
5856.00,1.43
5855.00,1.43
5854.00,1.44
5853.00,1.44
5852.00,1.44
5851.00,1.44
5850.00,1.44
5849.00,1.44
5848.00,1.44
5847.00,1.44
5846.00,1.44
5845.00,1.44
5844.00,1.44
5843.00,1.45
5842.00,1.45
5841.00,1.45
5840.00,1.45
5839.00,1.45
5838.00,1.45
5837.00,1.45
5836.00,1.45
5835.00,1.44
5834.00,1.44
5833.00,1.44
5832.00,1.44
5831.00,1.44
5830.00,1.44
5829.00,1.44
5828.00,1.44
5827.00,1.44
5826.00,1.44
5825.00,1.44
5824.00,1.44
5823.00,1.44
5822.00,1.44
5821.00,1.44
5820.00,1.44
5819.00,1.44
5818.00,1.44
5817.00,1.45
5816.00,1.45
5815.00,1.45
5814.00,1.45
5813.00,1.45
5812.00,1.45
5811.00,1.45
5810.00,1.45
5809.00,1.45
5808.00,1.45
5807.00,1.45
5806.00,1.45
5805.00,1.45
5804.00,1.45
5803.00,1.45
5802.00,1.44
5801.00,1.44
5800.00,1.44
5799.00,1.44
5798.00,1.44
5797.00,1.43
5796.00,1.43
5795.00,1.43
5794.00,1.42
5793.00,1.42
5792.00,1.42
5791.00,1.41
5790.00,1.41
5789.00,1.41
5788.00,1.40
5787.00,1.40
5786.00,1.40
5785.00,1.39
5784.00,1.39
5783.00,1.38
5782.00,1.38
5781.00,1.38
5780.00,1.37
5779.00,1.37
5778.00,1.37
5777.00,1.37
5776.00,1.37
5775.00,1.36
5774.00,1.36
5773.00,1.36
5772.00,1.36
5771.00,1.36
5770.00,1.37
5769.00,1.37
5768.00,1.37
5767.00,1.37
5766.00,1.37
5765.00,1.38
5764.00,1.38
5763.00,1.38
5762.00,1.39
5761.00,1.39
5760.00,1.40
5759.00,1.40
5758.00,1.41
5757.00,1.41
5756.00,1.42
5755.00,1.42
5754.00,1.43
5753.00,1.43
5752.00,1.44
5751.00,1.44
5750.00,1.45
5749.00,1.46
5748.00,1.46
5747.00,1.47
5746.00,1.47
5745.00,1.48
5744.00,1.49
5743.00,1.49
5742.00,1.50
5741.00,1.50
5740.00,1.51
5739.00,1.51
5738.00,1.51
5737.00,1.52
5736.00,1.52
5735.00,1.53
5734.00,1.53
5733.00,1.53
5732.00,1.54
5731.00,1.54
5730.00,1.54
5729.00,1.54
5728.00,1.55
5727.00,1.55
5726.00,1.55
5725.00,1.55
5724.00,1.55
5723.00,1.55
5722.00,1.56
5721.00,1.56
5720.00,1.56
5719.00,1.56
5718.00,1.56
5717.00,1.56
5716.00,1.56
5715.00,1.56
5714.00,1.56
5713.00,1.56
5712.00,1.56
5711.00,1.56
5710.00,1.56
5709.00,1.56
5708.00,1.56
5707.00,1.56
5706.00,1.56
5705.00,1.56
5704.00,1.56
5703.00,1.56
5702.00,1.56
5701.00,1.56
5700.00,1.55
5699.00,1.55
5698.00,1.55
5697.00,1.55
5696.00,1.55
5695.00,1.54
5694.00,1.54
5693.00,1.54
5692.00,1.54
5691.00,1.53
5690.00,1.53
5689.00,1.53
5688.00,1.52
5687.00,1.52
5686.00,1.52
5685.00,1.52
5684.00,1.51
5683.00,1.51
5682.00,1.51
5681.00,1.51
5680.00,1.51
5679.00,1.51
5678.00,1.50
5677.00,1.50
5676.00,1.50
5675.00,1.50
5674.00,1.50
5673.00,1.50
5672.00,1.50
5671.00,1.50
5670.00,1.50
5669.00,1.51
5668.00,1.51
5667.00,1.51
5666.00,1.51
5665.00,1.51
5664.00,1.51
5663.00,1.51
5662.00,1.52
5661.00,1.52
5660.00,1.52
5659.00,1.52
5658.00,1.53
5657.00,1.53
5656.00,1.53
5655.00,1.53
5654.00,1.54
5653.00,1.54
5652.00,1.54
5651.00,1.55
5650.00,1.55
5649.00,1.56
5648.00,1.56
5647.00,1.56
5646.00,1.57
5645.00,1.57
5644.00,1.58
5643.00,1.58
5642.00,1.58
5641.00,1.59
5640.00,1.59
5639.00,1.60
5638.00,1.60
5637.00,1.60
5636.00,1.61
5635.00,1.61
5634.00,1.61
5633.00,1.62
5632.00,1.62
5631.00,1.62
5630.00,1.63
5629.00,1.63
5628.00,1.63
5627.00,1.64
5626.00,1.64
5625.00,1.64
5624.00,1.64
5623.00,1.65
5622.00,1.65
5621.00,1.65
5620.00,1.66
5619.00,1.66
5618.00,1.66
5617.00,1.66
5616.00,1.67
5615.00,1.67
5614.00,1.67
5613.00,1.68
5612.00,1.68
5611.00,1.68
5610.00,1.68
5609.00,1.69
5608.00,1.69
5607.00,1.69
5606.00,1.70
5605.00,1.70
5604.00,1.70
5603.00,1.71
5602.00,1.71
5601.00,1.71
5600.00,1.72
5599.00,1.72
5598.00,1.72
5597.00,1.73
5596.00,1.73
5595.00,1.73
5594.00,1.74
5593.00,1.74
5592.00,1.74
5591.00,1.75
5590.00,1.75
5589.00,1.75
5588.00,1.76
5587.00,1.76
5586.00,1.76
5585.00,1.76
5584.00,1.77
5583.00,1.77
5582.00,1.77
5581.00,1.77
5580.00,1.78
5579.00,1.78
5578.00,1.78
5577.00,1.78
5576.00,1.78
5575.00,1.79
5574.00,1.79
5573.00,1.79
5572.00,1.79
5571.00,1.80
5570.00,1.80
5569.00,1.80
5568.00,1.80
5567.00,1.81
5566.00,1.81
5565.00,1.81
5564.00,1.81
5563.00,1.82
5562.00,1.82
5561.00,1.82
5560.00,1.82
5559.00,1.82
5558.00,1.83
5557.00,1.83
5556.00,1.83
5555.00,1.83
5554.00,1.83
5553.00,1.84
5552.00,1.84
5551.00,1.84
5550.00,1.84
5549.00,1.84
5548.00,1.85
5547.00,1.85
5546.00,1.85
5545.00,1.85
5544.00,1.86
5543.00,1.86
5542.00,1.86
5541.00,1.86
5540.00,1.86
5539.00,1.87
5538.00,1.87
5537.00,1.87
5536.00,1.87
5535.00,1.88
5534.00,1.88
5533.00,1.88
5532.00,1.88
5531.00,1.88
5530.00,1.89
5529.00,1.89
5528.00,1.89
5527.00,1.89
5526.00,1.89
5525.00,1.89
5524.00,1.89
5523.00,1.89
5522.00,1.89
5521.00,1.90
5520.00,1.90
5519.00,1.90
5518.00,1.90
5517.00,1.90
5516.00,1.90
5515.00,1.90
5514.00,1.90
5513.00,1.90
5512.00,1.90
5511.00,1.90
5510.00,1.90
5509.00,1.90
5508.00,1.91
5507.00,1.91
5506.00,1.91
5505.00,1.91
5504.00,1.91
5503.00,1.91
5502.00,1.91
5501.00,1.91
5500.00,1.91
5499.00,1.91
5498.00,1.91
5497.00,1.91
5496.00,1.91
5495.00,1.91
5494.00,1.91
5493.00,1.92
5492.00,1.92
5491.00,1.92
5490.00,1.92
5489.00,1.92
5488.00,1.93
5487.00,1.93
5486.00,1.93
5485.00,1.94
5484.00,1.94
5483.00,1.94
5482.00,1.95
5481.00,1.95
5480.00,1.95
5479.00,1.95
5478.00,1.96
5477.00,1.96
5476.00,1.96
5475.00,1.96
5474.00,1.96
5473.00,1.96
5472.00,1.97
5471.00,1.97
5470.00,1.97
5469.00,1.97
5468.00,1.97
5467.00,1.98
5466.00,1.98
5465.00,1.98
5464.00,1.98
5463.00,1.98
5462.00,1.99
5461.00,1.99
5460.00,1.99
5459.00,1.99
5458.00,1.99
5457.00,1.99
5456.00,2.00
5455.00,2.00
5454.00,2.00
5453.00,2.00
5452.00,2.00
5451.00,2.00
5450.00,2.00
5449.00,2.00
5448.00,2.00
5447.00,2.00
5446.00,2.00
5445.00,2.00
5444.00,2.00
5443.00,2.00
5442.00,2.00
5441.00,2.00
5440.00,2.00
5439.00,2.00
5438.00,2.01
5437.00,2.01
5436.00,2.01
5435.00,2.01
5434.00,2.01
5433.00,2.01
5432.00,2.01
5431.00,2.02
5430.00,2.02
5429.00,2.02
5428.00,2.02
5427.00,2.02
5426.00,2.02
5425.00,2.03
5424.00,2.03
5423.00,2.03
5422.00,2.03
5421.00,2.03
5420.00,2.03
5419.00,2.03
5418.00,2.03
5417.00,2.03
5416.00,2.03
5415.00,2.03
5414.00,2.03
5413.00,2.03
5412.00,2.03
5411.00,2.03
5410.00,2.03
5409.00,2.03
5408.00,2.03
5407.00,2.03
5406.00,2.03
5405.00,2.03
5404.00,2.03
5403.00,2.03
5402.00,2.03
5401.00,2.03
5400.00,2.03
5399.00,2.03
5398.00,2.03
5397.00,2.03
5396.00,2.03
5395.00,2.03
5394.00,2.03
5393.00,2.02
5392.00,2.02
5391.00,2.02
5390.00,2.02
5389.00,2.02
5388.00,2.01
5387.00,2.01
5386.00,2.01
5385.00,2.00
5384.00,2.00
5383.00,2.00
5382.00,1.99
5381.00,1.99
5380.00,1.99
5379.00,1.98
5378.00,1.98
5377.00,1.97
5376.00,1.97
5375.00,1.97
5374.00,1.96
5373.00,1.96
5372.00,1.95
5371.00,1.94
5370.00,1.94
5369.00,1.93
5368.00,1.93
5367.00,1.92
5366.00,1.91
5365.00,1.90
5364.00,1.90
5363.00,1.89
5362.00,1.88
5361.00,1.87
5360.00,1.86
5359.00,1.84
5358.00,1.83
5357.00,1.82
5356.00,1.81
5355.00,1.79
5354.00,1.78
5353.00,1.77
5352.00,1.75
5351.00,1.74
5350.00,1.73
5349.00,1.71
5348.00,1.70
5347.00,1.68
5346.00,1.67
5345.00,1.65
5344.00,1.64
5343.00,1.62
5342.00,1.61
5341.00,1.59
5340.00,1.58
5339.00,1.56
5338.00,1.55
5337.00,1.53
5336.00,1.52
5335.00,1.50
5334.00,1.49
5333.00,1.47
5332.00,1.46
5331.00,1.44
5330.00,1.43
5329.00,1.41
5328.00,1.40
5327.00,1.38
5326.00,1.36
5325.00,1.35
5324.00,1.33
5323.00,1.31
5322.00,1.30
5321.00,1.28
5320.00,1.26
5319.00,1.25
5318.00,1.23
5317.00,1.22
5316.00,1.20
5315.00,1.18
5314.00,1.17
5313.00,1.15
5312.00,1.14
5311.00,1.12
5310.00,1.11
5309.00,1.09
5308.00,1.08
5307.00,1.07
5306.00,1.05
5305.00,1.04
5304.00,1.03
5303.00,1.02
5302.00,1.01
5301.00,1.00
5300.00,0.99
5299.00,0.98
5298.00,0.97
5297.00,0.96
5296.00,0.95
5295.00,0.94
5294.00,0.94
5293.00,0.93
5292.00,0.92
5291.00,0.92
5290.00,0.91
5289.00,0.90
5288.00,0.90
5287.00,0.89
5286.00,0.89
5285.00,0.89
5284.00,0.88
5283.00,0.88
5282.00,0.87
5281.00,0.87
5280.00,0.87
5279.00,0.86
5278.00,0.86
5277.00,0.86
5276.00,0.86
5275.00,0.85
5274.00,0.85
5273.00,0.85
5272.00,0.85
5271.00,0.84
5270.00,0.84
5269.00,0.84
5268.00,0.84
5267.00,0.83
5266.00,0.83
5265.00,0.83
5264.00,0.83
5263.00,0.83
5262.00,0.82
5261.00,0.82
5260.00,0.82
5259.00,0.82
5258.00,0.82
5257.00,0.82
5256.00,0.81
5255.00,0.81
5254.00,0.81
5253.00,0.81
5252.00,0.81
5251.00,0.81
5250.00,0.81
5249.00,0.81
5248.00,0.81
5247.00,0.81
5246.00,0.81
5245.00,0.81
5244.00,0.81
5243.00,0.81
5242.00,0.81
5241.00,0.81
5240.00,0.81
5239.00,0.81
5238.00,0.81
5237.00,0.81
5236.00,0.81
5235.00,0.81
5234.00,0.81
5233.00,0.81
5232.00,0.81
5231.00,0.81
5230.00,0.81
5229.00,0.81
5228.00,0.81
5227.00,0.81
5226.00,0.81
5225.00,0.81
5224.00,0.81
5223.00,0.81
5222.00,0.81
5221.00,0.81
5220.00,0.81
5219.00,0.81
5218.00,0.81
5217.00,0.81
5216.00,0.81
5215.00,0.81
5214.00,0.81
5213.00,0.81
5212.00,0.81
5211.00,0.81
5210.00,0.81
5209.00,0.81
5208.00,0.81
5207.00,0.81
5206.00,0.81
5205.00,0.81
5204.00,0.82
5203.00,0.82
5202.00,0.82
5201.00,0.82
5200.00,0.82
5199.00,0.82
5198.00,0.82
5197.00,0.82
5196.00,0.82
5195.00,0.82
5194.00,0.82
5193.00,0.82
5192.00,0.82
5191.00,0.82
5190.00,0.82
5189.00,0.82
5188.00,0.82
5187.00,0.83
5186.00,0.83
5185.00,0.83
5184.00,0.83
5183.00,0.83
5182.00,0.83
5181.00,0.83
5180.00,0.83
5179.00,0.83
5178.00,0.83
5177.00,0.83
5176.00,0.83
5175.00,0.83
5174.00,0.83
5173.00,0.83
5172.00,0.83
5171.00,0.84
5170.00,0.84
5169.00,0.84
5168.00,0.84
5167.00,0.84
5166.00,0.84
5165.00,0.84
5164.00,0.84
5163.00,0.84
5162.00,0.84
5161.00,0.84
5160.00,0.84
5159.00,0.85
5158.00,0.85
5157.00,0.85
5156.00,0.85
5155.00,0.85
5154.00,0.85
5153.00,0.85
5152.00,0.85
5151.00,0.85
5150.00,0.85
5149.00,0.85
5148.00,0.86
5147.00,0.86
5146.00,0.86
5145.00,0.86
5144.00,0.86
5143.00,0.86
5142.00,0.86
5141.00,0.86
5140.00,0.86
5139.00,0.86
5138.00,0.86
5137.00,0.86
5136.00,0.87
5135.00,0.87
5134.00,0.87
5133.00,0.87
5132.00,0.87
5131.00,0.87
5130.00,0.87
5129.00,0.87
5128.00,0.87
5127.00,0.87
5126.00,0.87
5125.00,0.88
5124.00,0.88
5123.00,0.88
5122.00,0.88
5121.00,0.88
5120.00,0.88
5119.00,0.88
5118.00,0.88
5117.00,0.88
5116.00,0.88
5115.00,0.88
5114.00,0.88
5113.00,0.89
5112.00,0.89
5111.00,0.89
5110.00,0.89
5109.00,0.89
5108.00,0.89
5107.00,0.89
5106.00,0.90
5105.00,0.90
5104.00,0.90
5103.00,0.90
5102.00,0.90
5101.00,0.90
5100.00,0.90
5099.00,0.90
5098.00,0.90
5097.00,0.91
5096.00,0.91
5095.00,0.91
5094.00,0.91
5093.00,0.91
5092.00,0.91
5091.00,0.91
5090.00,0.91
5089.00,0.91
5088.00,0.91
5087.00,0.91
5086.00,0.91
5085.00,0.91
5084.00,0.91
5083.00,0.92
5082.00,0.92
5081.00,0.92
5080.00,0.92
5079.00,0.92
5078.00,0.92
5077.00,0.93
5076.00,0.93
5075.00,0.93
5074.00,0.93
5073.00,0.93
5072.00,0.93
5071.00,0.93
5070.00,0.94
5069.00,0.94
5068.00,0.94
5067.00,0.94
5066.00,0.94
5065.00,0.94
5064.00,0.94
5063.00,0.94
5062.00,0.94
5061.00,0.94
5060.00,0.94
5059.00,0.95
5058.00,0.95
5057.00,0.95
5056.00,0.95
5055.00,0.95
5054.00,0.95
5053.00,0.95
5052.00,0.95
5051.00,0.95
5050.00,0.95
5049.00,0.96
5048.00,0.96
5047.00,0.96
5046.00,0.96
5045.00,0.96
5044.00,0.96
5043.00,0.97
5042.00,0.97
5041.00,0.97
5040.00,0.97
5039.00,0.97
5038.00,0.97
5037.00,0.98
5036.00,0.98
5035.00,0.98
5034.00,0.98
5033.00,0.98
5032.00,0.98
5031.00,0.98
5030.00,0.99
5029.00,0.99
5028.00,0.99
5027.00,0.99
5026.00,0.99
5025.00,0.99
5024.00,0.99
5023.00,1.00
5022.00,1.00
5021.00,1.00
5020.00,1.00
5019.00,1.00
5018.00,1.00
5017.00,1.01
5016.00,1.01
5015.00,1.01
5014.00,1.01
5013.00,1.01
5012.00,1.01
5011.00,1.01
5010.00,1.02
5009.00,1.02
5008.00,1.02
5007.00,1.02
5006.00,1.02
5005.00,1.02
5004.00,1.02
5003.00,1.02
5002.00,1.02
5001.00,1.03
5000.00,1.03
4999.00,1.03
4998.00,1.03
4997.00,1.03
4996.00,1.03
4995.00,1.03
4994.00,1.04
4993.00,1.04
4992.00,1.04
4991.00,1.04
4990.00,1.04
4989.00,1.04
4988.00,1.05
4987.00,1.05
4986.00,1.05
4985.00,1.05
4984.00,1.06
4983.00,1.06
4982.00,1.06
4981.00,1.06
4980.00,1.06
4979.00,1.06
4978.00,1.07
4977.00,1.07
4976.00,1.07
4975.00,1.07
4974.00,1.07
4973.00,1.07
4972.00,1.07
4971.00,1.07
4970.00,1.08
4969.00,1.08
4968.00,1.08
4967.00,1.08
4966.00,1.08
4965.00,1.08
4964.00,1.08
4963.00,1.09
4962.00,1.09
4961.00,1.09
4960.00,1.09
4959.00,1.09
4958.00,1.10
4957.00,1.10
4956.00,1.10
4955.00,1.10
4954.00,1.10
4953.00,1.10
4952.00,1.10
4951.00,1.11
4950.00,1.11
4949.00,1.11
4948.00,1.11
4947.00,1.11
4946.00,1.11
4945.00,1.12
4944.00,1.12
4943.00,1.12
4942.00,1.12
4941.00,1.12
4940.00,1.12
4939.00,1.12
4938.00,1.12
4937.00,1.12
4936.00,1.13
4935.00,1.13
4934.00,1.13
4933.00,1.13
4932.00,1.13
4931.00,1.13
4930.00,1.13
4929.00,1.13
4928.00,1.13
4927.00,1.13
4926.00,1.13
4925.00,1.13
4924.00,1.14
4923.00,1.14
4922.00,1.14
4921.00,1.14
4920.00,1.14
4919.00,1.14
4918.00,1.14
4917.00,1.14
4916.00,1.15
4915.00,1.15
4914.00,1.15
4913.00,1.15
4912.00,1.15
4911.00,1.15
4910.00,1.15
4909.00,1.16
4908.00,1.16
4907.00,1.16
4906.00,1.16
4905.00,1.16
4904.00,1.16
4903.00,1.16
4902.00,1.16
4901.00,1.16
4900.00,1.16
4899.00,1.16
4898.00,1.16
4897.00,1.16
4896.00,1.16
4895.00,1.16
4894.00,1.16
4893.00,1.17
4892.00,1.17
4891.00,1.17
4890.00,1.17
4889.00,1.17
4888.00,1.17
4887.00,1.17
4886.00,1.17
4885.00,1.17
4884.00,1.17
4883.00,1.17
4882.00,1.17
4881.00,1.18
4880.00,1.18
4879.00,1.18
4878.00,1.18
4877.00,1.18
4876.00,1.18
4875.00,1.18
4874.00,1.18
4873.00,1.18
4872.00,1.19
4871.00,1.19
4870.00,1.19
4869.00,1.19
4868.00,1.19
4867.00,1.19
4866.00,1.19
4865.00,1.19
4864.00,1.19
4863.00,1.19
4862.00,1.19
4861.00,1.19
4860.00,1.19
4859.00,1.19
4858.00,1.19
4857.00,1.19
4856.00,1.19
4855.00,1.19
4854.00,1.20
4853.00,1.20
4852.00,1.20
4851.00,1.20
4850.00,1.20
4849.00,1.20
4848.00,1.20
4847.00,1.20
4846.00,1.20
4845.00,1.21
4844.00,1.21
4843.00,1.21
4842.00,1.21
4841.00,1.21
4840.00,1.21
4839.00,1.21
4838.00,1.21
4837.00,1.21
4836.00,1.21
4835.00,1.21
4834.00,1.21
4833.00,1.21
4832.00,1.21
4831.00,1.21
4830.00,1.21
4829.00,1.22
4828.00,1.22
4827.00,1.22
4826.00,1.22
4825.00,1.22
4824.00,1.22
4823.00,1.23
4822.00,1.23
4821.00,1.23
4820.00,1.23
4819.00,1.23
4818.00,1.24
4817.00,1.24
4816.00,1.24
4815.00,1.24
4814.00,1.24
4813.00,1.25
4812.00,1.25
4811.00,1.25
4810.00,1.25
4809.00,1.25
4808.00,1.25
4807.00,1.26
4806.00,1.26
4805.00,1.26
4804.00,1.26
4803.00,1.26
4802.00,1.26
4801.00,1.26
4800.00,1.26
4799.00,1.26
4798.00,1.26
4797.00,1.27
4796.00,1.27
4795.00,1.27
4794.00,1.27
4793.00,1.27
4792.00,1.27
4791.00,1.27
4790.00,1.28
4789.00,1.28
4788.00,1.28
4787.00,1.28
4786.00,1.29
4785.00,1.29
4784.00,1.29
4783.00,1.29
4782.00,1.30
4781.00,1.30
4780.00,1.30
4779.00,1.30
4778.00,1.31
4777.00,1.31
4776.00,1.31
4775.00,1.32
4774.00,1.32
4773.00,1.32
4772.00,1.32
4771.00,1.33
4770.00,1.33
4769.00,1.33
4768.00,1.33
4767.00,1.33
4766.00,1.34
4765.00,1.34
4764.00,1.34
4763.00,1.34
4762.00,1.34
4761.00,1.35
4760.00,1.35
4759.00,1.35
4758.00,1.35
4757.00,1.35
4756.00,1.36
4755.00,1.36
4754.00,1.36
4753.00,1.36
4752.00,1.37
4751.00,1.37
4750.00,1.37
4749.00,1.37
4748.00,1.38
4747.00,1.38
4746.00,1.38
4745.00,1.38
4744.00,1.39
4743.00,1.39
4742.00,1.39
4741.00,1.39
4740.00,1.39
4739.00,1.40
4738.00,1.40
4737.00,1.40
4736.00,1.40
4735.00,1.40
4734.00,1.41
4733.00,1.41
4732.00,1.41
4731.00,1.41
4730.00,1.41
4729.00,1.42
4728.00,1.42
4727.00,1.42
4726.00,1.42
4725.00,1.43
4724.00,1.43
4723.00,1.43
4722.00,1.44
4721.00,1.44
4720.00,1.44
4719.00,1.44
4718.00,1.45
4717.00,1.45
4716.00,1.45
4715.00,1.46
4714.00,1.46
4713.00,1.47
4712.00,1.47
4711.00,1.47
4710.00,1.47
4709.00,1.48
4708.00,1.48
4707.00,1.48
4706.00,1.49
4705.00,1.49
4704.00,1.49
4703.00,1.49
4702.00,1.49
4701.00,1.50
4700.00,1.50
4699.00,1.50
4698.00,1.50
4697.00,1.50
4696.00,1.51
4695.00,1.51
4694.00,1.51
4693.00,1.51
4692.00,1.52
4691.00,1.52
4690.00,1.52
4689.00,1.52
4688.00,1.53
4687.00,1.53
4686.00,1.53
4685.00,1.54
4684.00,1.54
4683.00,1.54
4682.00,1.54
4681.00,1.55
4680.00,1.55
4679.00,1.55
4678.00,1.55
4677.00,1.56
4676.00,1.56
4675.00,1.56
4674.00,1.56
4673.00,1.57
4672.00,1.57
4671.00,1.57
4670.00,1.58
4669.00,1.58
4668.00,1.58
4667.00,1.59
4666.00,1.59
4665.00,1.59
4664.00,1.60
4663.00,1.60
4662.00,1.60
4661.00,1.61
4660.00,1.61
4659.00,1.61
4658.00,1.61
4657.00,1.61
4656.00,1.62
4655.00,1.62
4654.00,1.62
4653.00,1.62
4652.00,1.62
4651.00,1.62
4650.00,1.63
4649.00,1.63
4648.00,1.63
4647.00,1.63
4646.00,1.64
4645.00,1.64
4644.00,1.64
4643.00,1.64
4642.00,1.65
4641.00,1.65
4640.00,1.65
4639.00,1.66
4638.00,1.66
4637.00,1.66
4636.00,1.67
4635.00,1.67
4634.00,1.67
4633.00,1.67
4632.00,1.68
4631.00,1.68
4630.00,1.68
4629.00,1.68
4628.00,1.68
4627.00,1.69
4626.00,1.69
4625.00,1.69
4624.00,1.69
4623.00,1.69
4622.00,1.70
4621.00,1.70
4620.00,1.70
4619.00,1.70
4618.00,1.70
4617.00,1.70
4616.00,1.71
4615.00,1.71
4614.00,1.71
4613.00,1.71
4612.00,1.72
4611.00,1.72
4610.00,1.72
4609.00,1.72
4608.00,1.72
4607.00,1.72
4606.00,1.73
4605.00,1.73
4604.00,1.73
4603.00,1.73
4602.00,1.73
4601.00,1.73
4600.00,1.73
4599.00,1.73
4598.00,1.73
4597.00,1.73
4596.00,1.74
4595.00,1.74
4594.00,1.74
4593.00,1.74
4592.00,1.74
4591.00,1.74
4590.00,1.74
4589.00,1.74
4588.00,1.74
4587.00,1.75
4586.00,1.75
4585.00,1.75
4584.00,1.75
4583.00,1.75
4582.00,1.76
4581.00,1.76
4580.00,1.76
4579.00,1.76
4578.00,1.77
4577.00,1.77
4576.00,1.77
4575.00,1.77
4574.00,1.78
4573.00,1.78
4572.00,1.78
4571.00,1.78
4570.00,1.78
4569.00,1.79
4568.00,1.79
4567.00,1.79
4566.00,1.79
4565.00,1.79
4564.00,1.79
4563.00,1.79
4562.00,1.80
4561.00,1.80
4560.00,1.80
4559.00,1.80
4558.00,1.80
4557.00,1.80
4556.00,1.81
4555.00,1.81
4554.00,1.81
4553.00,1.81
4552.00,1.82
4551.00,1.82
4550.00,1.82
4549.00,1.82
4548.00,1.83
4547.00,1.83
4546.00,1.83
4545.00,1.83
4544.00,1.83
4543.00,1.83
4542.00,1.84
4541.00,1.84
4540.00,1.84
4539.00,1.84
4538.00,1.84
4537.00,1.84
4536.00,1.84
4535.00,1.84
4534.00,1.84
4533.00,1.84
4532.00,1.84
4531.00,1.84
4530.00,1.84
4529.00,1.84
4528.00,1.84
4527.00,1.85
4526.00,1.85
4525.00,1.85
4524.00,1.85
4523.00,1.85
4522.00,1.85
4521.00,1.85
4520.00,1.85
4519.00,1.85
4518.00,1.85
4517.00,1.85
4516.00,1.85
4515.00,1.85
4514.00,1.85
4513.00,1.85
4512.00,1.86
4511.00,1.86
4510.00,1.86
4509.00,1.86
4508.00,1.86
4507.00,1.86
4506.00,1.86
4505.00,1.86
4504.00,1.86
4503.00,1.86
4502.00,1.86
4501.00,1.86
4500.00,1.86
4499.00,1.86
4498.00,1.86
4497.00,1.86
4496.00,1.86
4495.00,1.86
4494.00,1.86
4493.00,1.86
4492.00,1.86
4491.00,1.86
4490.00,1.86
4489.00,1.85
4488.00,1.85
4487.00,1.85
4486.00,1.85
4485.00,1.84
4484.00,1.84
4483.00,1.84
4482.00,1.83
4481.00,1.83
4480.00,1.83
4479.00,1.82
4478.00,1.82
4477.00,1.82
4476.00,1.81
4475.00,1.81
4474.00,1.80
4473.00,1.80
4472.00,1.80
4471.00,1.79
4470.00,1.79
4469.00,1.78
4468.00,1.78
4467.00,1.77
4466.00,1.77
4465.00,1.76
4464.00,1.76
4463.00,1.75
4462.00,1.75
4461.00,1.74
4460.00,1.74
4459.00,1.73
4458.00,1.73
4457.00,1.72
4456.00,1.71
4455.00,1.71
4454.00,1.70
4453.00,1.70
4452.00,1.69
4451.00,1.69
4450.00,1.68
4449.00,1.67
4448.00,1.67
4447.00,1.66
4446.00,1.65
4445.00,1.65
4444.00,1.64
4443.00,1.63
4442.00,1.63
4441.00,1.62
4440.00,1.61
4439.00,1.60
4438.00,1.60
4437.00,1.59
4436.00,1.58
4435.00,1.58
4434.00,1.57
4433.00,1.56
4432.00,1.56
4431.00,1.55
4430.00,1.55
4429.00,1.54
4428.00,1.54
4427.00,1.53
4426.00,1.53
4425.00,1.52
4424.00,1.52
4423.00,1.52
4422.00,1.52
4421.00,1.52
4420.00,1.52
4419.00,1.52
4418.00,1.52
4417.00,1.52
4416.00,1.52
4415.00,1.52
4414.00,1.52
4413.00,1.52
4412.00,1.52
4411.00,1.53
4410.00,1.53
4409.00,1.53
4408.00,1.53
4407.00,1.53
4406.00,1.53
4405.00,1.53
4404.00,1.53
4403.00,1.53
4402.00,1.54
4401.00,1.54
4400.00,1.54
4399.00,1.54
4398.00,1.54
4397.00,1.54
4396.00,1.54
4395.00,1.54
4394.00,1.55
4393.00,1.55
4392.00,1.55
4391.00,1.55
4390.00,1.55
4389.00,1.56
4388.00,1.56
4387.00,1.56
4386.00,1.56
4385.00,1.56
4384.00,1.56
4383.00,1.57
4382.00,1.57
4381.00,1.57
4380.00,1.57
4379.00,1.57
4378.00,1.57
4377.00,1.57
4376.00,1.57
4375.00,1.57
4374.00,1.57
4373.00,1.57
4372.00,1.58
4371.00,1.58
4370.00,1.58
4369.00,1.58
4368.00,1.58
4367.00,1.58
4366.00,1.58
4365.00,1.58
4364.00,1.58
4363.00,1.59
4362.00,1.59
4361.00,1.59
4360.00,1.59
4359.00,1.59
4358.00,1.59
4357.00,1.59
4356.00,1.59
4355.00,1.59
4354.00,1.59
4353.00,1.59
4352.00,1.59
4351.00,1.59
4350.00,1.59
4349.00,1.59
4348.00,1.59
4347.00,1.59
4346.00,1.59
4345.00,1.59
4344.00,1.59
4343.00,1.59
4342.00,1.60
4341.00,1.60
4340.00,1.60
4339.00,1.60
4338.00,1.60
4337.00,1.60
4336.00,1.60
4335.00,1.61
4334.00,1.61
4333.00,1.61
4332.00,1.61
4331.00,1.61
4330.00,1.62
4329.00,1.62
4328.00,1.62
4327.00,1.62
4326.00,1.62
4325.00,1.62
4324.00,1.62
4323.00,1.62
4322.00,1.62
4321.00,1.63
4320.00,1.63
4319.00,1.63
4318.00,1.63
4317.00,1.63
4316.00,1.64
4315.00,1.64
4314.00,1.64
4313.00,1.64
4312.00,1.65
4311.00,1.65
4310.00,1.65
4309.00,1.66
4308.00,1.66
4307.00,1.66
4306.00,1.67
4305.00,1.67
4304.00,1.67
4303.00,1.68
4302.00,1.68
4301.00,1.68
4300.00,1.69
4299.00,1.69
4298.00,1.69
4297.00,1.69
4296.00,1.70
4295.00,1.70
4294.00,1.70
4293.00,1.70
4292.00,1.71
4291.00,1.71
4290.00,1.71
4289.00,1.71
4288.00,1.71
4287.00,1.72
4286.00,1.72
4285.00,1.72
4284.00,1.72
4283.00,1.73
4282.00,1.73
4281.00,1.73
4280.00,1.73
4279.00,1.73
4278.00,1.73
4277.00,1.73
4276.00,1.73
4275.00,1.73
4274.00,1.73
4273.00,1.73
4272.00,1.73
4271.00,1.73
4270.00,1.73
4269.00,1.73
4268.00,1.72
4267.00,1.72
4266.00,1.72
4265.00,1.72
4264.00,1.72
4263.00,1.71
4262.00,1.71
4261.00,1.71
4260.00,1.71
4259.00,1.71
4258.00,1.71
4257.00,1.71
4256.00,1.71
4255.00,1.72
4254.00,1.72
4253.00,1.72
4252.00,1.72
4251.00,1.72
4250.00,1.73
4249.00,1.73
4248.00,1.73
4247.00,1.74
4246.00,1.74
4245.00,1.74
4244.00,1.75
4243.00,1.75
4242.00,1.75
4241.00,1.76
4240.00,1.76
4239.00,1.76
4238.00,1.76
4237.00,1.77
4236.00,1.77
4235.00,1.77
4234.00,1.78
4233.00,1.78
4232.00,1.78
4231.00,1.78
4230.00,1.78
4229.00,1.78
4228.00,1.78
4227.00,1.79
4226.00,1.79
4225.00,1.79
4224.00,1.79
4223.00,1.79
4222.00,1.79
4221.00,1.79
4220.00,1.79
4219.00,1.79
4218.00,1.79
4217.00,1.79
4216.00,1.80
4215.00,1.80
4214.00,1.80
4213.00,1.80
4212.00,1.80
4211.00,1.81
4210.00,1.81
4209.00,1.81
4208.00,1.81
4207.00,1.81
4206.00,1.82
4205.00,1.82
4204.00,1.82
4203.00,1.82
4202.00,1.82
4201.00,1.82
4200.00,1.82
4199.00,1.82
4198.00,1.82
4197.00,1.82
4196.00,1.82
4195.00,1.82
4194.00,1.82
4193.00,1.82
4192.00,1.82
4191.00,1.82
4190.00,1.82
4189.00,1.82
4188.00,1.82
4187.00,1.82
4186.00,1.82
4185.00,1.82
4184.00,1.82
4183.00,1.83
4182.00,1.83
4181.00,1.83
4180.00,1.83
4179.00,1.83
4178.00,1.84
4177.00,1.84
4176.00,1.84
4175.00,1.84
4174.00,1.84
4173.00,1.84
4172.00,1.84
4171.00,1.84
4170.00,1.85
4169.00,1.85
4168.00,1.85
4167.00,1.85
4166.00,1.85
4165.00,1.85
4164.00,1.85
4163.00,1.85
4162.00,1.85
4161.00,1.85
4160.00,1.85
4159.00,1.85
4158.00,1.85
4157.00,1.85
4156.00,1.85
4155.00,1.85
4154.00,1.85
4153.00,1.85
4152.00,1.85
4151.00,1.85
4150.00,1.85
4149.00,1.85
4148.00,1.85
4147.00,1.86
4146.00,1.86
4145.00,1.86
4144.00,1.86
4143.00,1.86
4142.00,1.87
4141.00,1.87
4140.00,1.87
4139.00,1.88
4138.00,1.88
4137.00,1.88
4136.00,1.88
4135.00,1.88
4134.00,1.89
4133.00,1.89
4132.00,1.89
4131.00,1.89
4130.00,1.89
4129.00,1.89
4128.00,1.89
4127.00,1.89
4126.00,1.89
4125.00,1.89
4124.00,1.89
4123.00,1.89
4122.00,1.89
4121.00,1.89
4120.00,1.89
4119.00,1.89
4118.00,1.89
4117.00,1.89
4116.00,1.89
4115.00,1.89
4114.00,1.89
4113.00,1.89
4112.00,1.90
4111.00,1.90
4110.00,1.90
4109.00,1.90
4108.00,1.91
4107.00,1.91
4106.00,1.91
4105.00,1.91
4104.00,1.92
4103.00,1.92
4102.00,1.92
4101.00,1.92
4100.00,1.92
4099.00,1.93
4098.00,1.93
4097.00,1.93
4096.00,1.93
4095.00,1.93
4094.00,1.93
4093.00,1.93
4092.00,1.93
4091.00,1.93
4090.00,1.93
4089.00,1.93
4088.00,1.93
4087.00,1.93
4086.00,1.93
4085.00,1.93
4084.00,1.93
4083.00,1.93
4082.00,1.93
4081.00,1.93
4080.00,1.93
4079.00,1.93
4078.00,1.93
4077.00,1.93
4076.00,1.93
4075.00,1.93
4074.00,1.93
4073.00,1.94
4072.00,1.94
4071.00,1.94
4070.00,1.94
4069.00,1.94
4068.00,1.94
4067.00,1.95
4066.00,1.95
4065.00,1.95
4064.00,1.95
4063.00,1.96
4062.00,1.96
4061.00,1.96
4060.00,1.96
4059.00,1.97
4058.00,1.97
4057.00,1.97
4056.00,1.97
4055.00,1.98
4054.00,1.98
4053.00,1.98
4052.00,1.99
4051.00,1.99
4050.00,1.99
4049.00,1.99
4048.00,2.00
4047.00,2.00
4046.00,2.00
4045.00,2.01
4044.00,2.01
4043.00,2.01
4042.00,2.01
4041.00,2.01
4040.00,2.01
4039.00,2.02
4038.00,2.02
4037.00,2.02
4036.00,2.02
4035.00,2.02
4034.00,2.02
4033.00,2.02
4032.00,2.02
4031.00,2.02
4030.00,2.02
4029.00,2.02
4028.00,2.02
4027.00,2.02
4026.00,2.02
4025.00,2.02
4024.00,2.02
4023.00,2.02
4022.00,2.03
4021.00,2.03
4020.00,2.03
4019.00,2.03
4018.00,2.03
4017.00,2.03
4016.00,2.03
4015.00,2.02
4014.00,2.02
4013.00,2.02
4012.00,2.02
4011.00,2.02
4010.00,2.02
4009.00,2.02
4008.00,2.02
4007.00,2.02
4006.00,2.03
4005.00,2.03
4004.00,2.03
4003.00,2.03
4002.00,2.03
4001.00,2.03
4000.00,2.03
