创建为新数据集,样品 364 用户 Administrator 日期 星期四, 三月 08 2018
cm-1,%T
10000.00,1.59
9999.00,1.59
9998.00,1.58
9997.00,1.58
9996.00,1.58
9995.00,1.57
9994.00,1.57
9993.00,1.57
9992.00,1.57
9991.00,1.56
9990.00,1.56
9989.00,1.57
9988.00,1.57
9987.00,1.57
9986.00,1.57
9985.00,1.58
9984.00,1.58
9983.00,1.58
9982.00,1.59
9981.00,1.59
9980.00,1.59
9979.00,1.59
9978.00,1.60
9977.00,1.60
9976.00,1.60
9975.00,1.60
9974.00,1.60
9973.00,1.60
9972.00,1.60
9971.00,1.60
9970.00,1.60
9969.00,1.60
9968.00,1.59
9967.00,1.59
9966.00,1.59
9965.00,1.59
9964.00,1.59
9963.00,1.59
9962.00,1.59
9961.00,1.59
9960.00,1.59
9959.00,1.59
9958.00,1.59
9957.00,1.59
9956.00,1.59
9955.00,1.59
9954.00,1.59
9953.00,1.59
9952.00,1.59
9951.00,1.59
9950.00,1.59
9949.00,1.59
9948.00,1.59
9947.00,1.58
9946.00,1.58
9945.00,1.58
9944.00,1.58
9943.00,1.57
9942.00,1.57
9941.00,1.57
9940.00,1.57
9939.00,1.57
9938.00,1.56
9937.00,1.56
9936.00,1.56
9935.00,1.56
9934.00,1.56
9933.00,1.56
9932.00,1.56
9931.00,1.56
9930.00,1.56
9929.00,1.56
9928.00,1.56
9927.00,1.56
9926.00,1.56
9925.00,1.56
9924.00,1.56
9923.00,1.56
9922.00,1.56
9921.00,1.56
9920.00,1.56
9919.00,1.56
9918.00,1.57
9917.00,1.57
9916.00,1.57
9915.00,1.57
9914.00,1.57
9913.00,1.57
9912.00,1.57
9911.00,1.58
9910.00,1.58
9909.00,1.58
9908.00,1.58
9907.00,1.58
9906.00,1.58
9905.00,1.58
9904.00,1.58
9903.00,1.58
9902.00,1.58
9901.00,1.58
9900.00,1.58
9899.00,1.58
9898.00,1.58
9897.00,1.58
9896.00,1.58
9895.00,1.59
9894.00,1.59
9893.00,1.59
9892.00,1.59
9891.00,1.59
9890.00,1.60
9889.00,1.60
9888.00,1.60
9887.00,1.60
9886.00,1.60
9885.00,1.60
9884.00,1.60
9883.00,1.60
9882.00,1.60
9881.00,1.60
9880.00,1.60
9879.00,1.60
9878.00,1.60
9877.00,1.59
9876.00,1.59
9875.00,1.59
9874.00,1.59
9873.00,1.59
9872.00,1.59
9871.00,1.59
9870.00,1.59
9869.00,1.59
9868.00,1.59
9867.00,1.59
9866.00,1.59
9865.00,1.59
9864.00,1.59
9863.00,1.59
9862.00,1.59
9861.00,1.59
9860.00,1.59
9859.00,1.59
9858.00,1.59
9857.00,1.59
9856.00,1.59
9855.00,1.59
9854.00,1.59
9853.00,1.59
9852.00,1.59
9851.00,1.58
9850.00,1.58
9849.00,1.58
9848.00,1.58
9847.00,1.58
9846.00,1.58
9845.00,1.58
9844.00,1.58
9843.00,1.57
9842.00,1.57
9841.00,1.57
9840.00,1.57
9839.00,1.57
9838.00,1.57
9837.00,1.57
9836.00,1.56
9835.00,1.56
9834.00,1.57
9833.00,1.57
9832.00,1.57
9831.00,1.57
9830.00,1.57
9829.00,1.57
9828.00,1.57
9827.00,1.57
9826.00,1.57
9825.00,1.58
9824.00,1.58
9823.00,1.58
9822.00,1.58
9821.00,1.58
9820.00,1.58
9819.00,1.58
9818.00,1.58
9817.00,1.57
9816.00,1.57
9815.00,1.57
9814.00,1.57
9813.00,1.57
9812.00,1.57
9811.00,1.56
9810.00,1.56
9809.00,1.56
9808.00,1.56
9807.00,1.56
9806.00,1.56
9805.00,1.56
9804.00,1.55
9803.00,1.55
9802.00,1.55
9801.00,1.55
9800.00,1.55
9799.00,1.55
9798.00,1.55
9797.00,1.55
9796.00,1.55
9795.00,1.55
9794.00,1.55
9793.00,1.55
9792.00,1.55
9791.00,1.55
9790.00,1.55
9789.00,1.55
9788.00,1.55
9787.00,1.55
9786.00,1.55
9785.00,1.55
9784.00,1.55
9783.00,1.55
9782.00,1.55
9781.00,1.55
9780.00,1.55
9779.00,1.55
9778.00,1.55
9777.00,1.55
9776.00,1.55
9775.00,1.55
9774.00,1.55
9773.00,1.55
9772.00,1.55
9771.00,1.55
9770.00,1.55
9769.00,1.55
9768.00,1.55
9767.00,1.56
9766.00,1.56
9765.00,1.56
9764.00,1.56
9763.00,1.56
9762.00,1.56
9761.00,1.56
9760.00,1.56
9759.00,1.57
9758.00,1.57
9757.00,1.57
9756.00,1.57
9755.00,1.57
9754.00,1.57
9753.00,1.57
9752.00,1.57
9751.00,1.57
9750.00,1.57
9749.00,1.57
9748.00,1.57
9747.00,1.57
9746.00,1.57
9745.00,1.57
9744.00,1.58
9743.00,1.58
9742.00,1.58
9741.00,1.58
9740.00,1.58
9739.00,1.58
9738.00,1.59
9737.00,1.59
9736.00,1.59
9735.00,1.59
9734.00,1.60
9733.00,1.60
9732.00,1.60
9731.00,1.60
9730.00,1.60
9729.00,1.60
9728.00,1.60
9727.00,1.60
9726.00,1.60
9725.00,1.60
9724.00,1.60
9723.00,1.60
9722.00,1.60
9721.00,1.60
9720.00,1.60
9719.00,1.60
9718.00,1.60
9717.00,1.60
9716.00,1.60
9715.00,1.60
9714.00,1.60
9713.00,1.60
9712.00,1.60
9711.00,1.60
9710.00,1.60
9709.00,1.60
9708.00,1.60
9707.00,1.60
9706.00,1.60
9705.00,1.60
9704.00,1.60
9703.00,1.60
9702.00,1.60
9701.00,1.60
9700.00,1.60
9699.00,1.60
9698.00,1.60
9697.00,1.60
9696.00,1.59
9695.00,1.59
9694.00,1.59
9693.00,1.59
9692.00,1.58
9691.00,1.58
9690.00,1.58
9689.00,1.58
9688.00,1.58
9687.00,1.57
9686.00,1.57
9685.00,1.57
9684.00,1.57
9683.00,1.57
9682.00,1.57
9681.00,1.57
9680.00,1.57
9679.00,1.57
9678.00,1.57
9677.00,1.57
9676.00,1.57
9675.00,1.57
9674.00,1.57
9673.00,1.56
9672.00,1.56
9671.00,1.56
9670.00,1.56
9669.00,1.56
9668.00,1.56
9667.00,1.55
9666.00,1.55
9665.00,1.55
9664.00,1.55
9663.00,1.54
9662.00,1.54
9661.00,1.54
9660.00,1.54
9659.00,1.54
9658.00,1.53
9657.00,1.53
9656.00,1.53
9655.00,1.53
9654.00,1.53
9653.00,1.53
9652.00,1.54
9651.00,1.54
9650.00,1.54
9649.00,1.54
9648.00,1.55
9647.00,1.55
9646.00,1.55
9645.00,1.55
9644.00,1.56
9643.00,1.56
9642.00,1.56
9641.00,1.56
9640.00,1.56
9639.00,1.56
9638.00,1.57
9637.00,1.57
9636.00,1.57
9635.00,1.57
9634.00,1.57
9633.00,1.57
9632.00,1.57
9631.00,1.57
9630.00,1.57
9629.00,1.57
9628.00,1.57
9627.00,1.57
9626.00,1.57
9625.00,1.57
9624.00,1.57
9623.00,1.57
9622.00,1.57
9621.00,1.57
9620.00,1.57
9619.00,1.57
9618.00,1.57
9617.00,1.57
9616.00,1.57
9615.00,1.57
9614.00,1.57
9613.00,1.57
9612.00,1.57
9611.00,1.57
9610.00,1.57
9609.00,1.57
9608.00,1.57
9607.00,1.57
9606.00,1.57
9605.00,1.57
9604.00,1.57
9603.00,1.57
9602.00,1.57
9601.00,1.57
9600.00,1.57
9599.00,1.57
9598.00,1.57
9597.00,1.57
9596.00,1.57
9595.00,1.58
9594.00,1.58
9593.00,1.58
9592.00,1.58
9591.00,1.58
9590.00,1.58
9589.00,1.58
9588.00,1.58
9587.00,1.58
9586.00,1.58
9585.00,1.58
9584.00,1.58
9583.00,1.58
9582.00,1.58
9581.00,1.58
9580.00,1.58
9579.00,1.58
9578.00,1.58
9577.00,1.58
9576.00,1.58
9575.00,1.57
9574.00,1.57
9573.00,1.57
9572.00,1.57
9571.00,1.57
9570.00,1.57
9569.00,1.57
9568.00,1.56
9567.00,1.56
9566.00,1.56
9565.00,1.56
9564.00,1.56
9563.00,1.55
9562.00,1.55
9561.00,1.55
9560.00,1.55
9559.00,1.55
9558.00,1.55
9557.00,1.55
9556.00,1.55
9555.00,1.55
9554.00,1.55
9553.00,1.55
9552.00,1.55
9551.00,1.56
9550.00,1.56
9549.00,1.56
9548.00,1.56
9547.00,1.56
9546.00,1.57
9545.00,1.57
9544.00,1.57
9543.00,1.57
9542.00,1.57
9541.00,1.58
9540.00,1.58
9539.00,1.58
9538.00,1.58
9537.00,1.58
9536.00,1.57
9535.00,1.57
9534.00,1.57
9533.00,1.57
9532.00,1.56
9531.00,1.56
9530.00,1.56
9529.00,1.55
9528.00,1.55
9527.00,1.55
9526.00,1.55
9525.00,1.54
9524.00,1.54
9523.00,1.54
9522.00,1.54
9521.00,1.54
9520.00,1.54
9519.00,1.54
9518.00,1.54
9517.00,1.54
9516.00,1.54
9515.00,1.54
9514.00,1.54
9513.00,1.54
9512.00,1.54
9511.00,1.54
9510.00,1.54
9509.00,1.54
9508.00,1.54
9507.00,1.54
9506.00,1.54
9505.00,1.54
9504.00,1.54
9503.00,1.54
9502.00,1.54
9501.00,1.54
9500.00,1.54
9499.00,1.54
9498.00,1.54
9497.00,1.55
9496.00,1.55
9495.00,1.55
9494.00,1.55
9493.00,1.56
9492.00,1.56
9491.00,1.56
9490.00,1.57
9489.00,1.57
9488.00,1.57
9487.00,1.57
9486.00,1.58
9485.00,1.58
9484.00,1.58
9483.00,1.58
9482.00,1.58
9481.00,1.58
9480.00,1.58
9479.00,1.58
9478.00,1.58
9477.00,1.58
9476.00,1.58
9475.00,1.58
9474.00,1.58
9473.00,1.58
9472.00,1.58
9471.00,1.58
9470.00,1.58
9469.00,1.58
9468.00,1.58
9467.00,1.58
9466.00,1.58
9465.00,1.58
9464.00,1.58
9463.00,1.58
9462.00,1.58
9461.00,1.58
9460.00,1.58
9459.00,1.58
9458.00,1.58
9457.00,1.58
9456.00,1.58
9455.00,1.58
9454.00,1.58
9453.00,1.58
9452.00,1.57
9451.00,1.57
9450.00,1.57
9449.00,1.57
9448.00,1.57
9447.00,1.57
9446.00,1.57
9445.00,1.57
9444.00,1.57
9443.00,1.57
9442.00,1.58
9441.00,1.58
9440.00,1.58
9439.00,1.58
9438.00,1.58
9437.00,1.58
9436.00,1.58
9435.00,1.59
9434.00,1.59
9433.00,1.59
9432.00,1.59
9431.00,1.59
9430.00,1.59
9429.00,1.59
9428.00,1.59
9427.00,1.59
9426.00,1.59
9425.00,1.59
9424.00,1.59
9423.00,1.58
9422.00,1.58
9421.00,1.58
9420.00,1.58
9419.00,1.58
9418.00,1.58
9417.00,1.58
9416.00,1.58
9415.00,1.57
9414.00,1.57
9413.00,1.57
9412.00,1.57
9411.00,1.57
9410.00,1.57
9409.00,1.58
9408.00,1.58
9407.00,1.58
9406.00,1.58
9405.00,1.58
9404.00,1.58
9403.00,1.58
9402.00,1.58
9401.00,1.57
9400.00,1.57
9399.00,1.57
9398.00,1.57
9397.00,1.57
9396.00,1.57
9395.00,1.57
9394.00,1.56
9393.00,1.56
9392.00,1.56
9391.00,1.56
9390.00,1.56
9389.00,1.56
9388.00,1.56
9387.00,1.56
9386.00,1.56
9385.00,1.56
9384.00,1.56
9383.00,1.56
9382.00,1.57
9381.00,1.57
9380.00,1.57
9379.00,1.57
9378.00,1.57
9377.00,1.57
9376.00,1.57
9375.00,1.57
9374.00,1.57
9373.00,1.58
9372.00,1.58
9371.00,1.58
9370.00,1.58
9369.00,1.58
9368.00,1.58
9367.00,1.58
9366.00,1.58
9365.00,1.58
9364.00,1.58
9363.00,1.58
9362.00,1.58
9361.00,1.58
9360.00,1.58
9359.00,1.58
9358.00,1.57
9357.00,1.57
9356.00,1.57
9355.00,1.57
9354.00,1.57
9353.00,1.57
9352.00,1.57
9351.00,1.56
9350.00,1.56
9349.00,1.56
9348.00,1.56
9347.00,1.56
9346.00,1.56
9345.00,1.56
9344.00,1.56
9343.00,1.56
9342.00,1.56
9341.00,1.56
9340.00,1.56
9339.00,1.56
9338.00,1.56
9337.00,1.56
9336.00,1.56
9335.00,1.56
9334.00,1.56
9333.00,1.56
9332.00,1.56
9331.00,1.56
9330.00,1.56
9329.00,1.56
9328.00,1.56
9327.00,1.56
9326.00,1.56
9325.00,1.56
9324.00,1.56
9323.00,1.56
9322.00,1.56
9321.00,1.56
9320.00,1.56
9319.00,1.56
9318.00,1.56
9317.00,1.56
9316.00,1.56
9315.00,1.56
9314.00,1.56
9313.00,1.57
9312.00,1.57
9311.00,1.57
9310.00,1.57
9309.00,1.57
9308.00,1.57
9307.00,1.57
9306.00,1.57
9305.00,1.57
9304.00,1.57
9303.00,1.57
9302.00,1.57
9301.00,1.57
9300.00,1.57
9299.00,1.58
9298.00,1.58
9297.00,1.58
9296.00,1.58
9295.00,1.58
9294.00,1.57
9293.00,1.57
9292.00,1.57
9291.00,1.57
9290.00,1.57
9289.00,1.57
9288.00,1.57
9287.00,1.57
9286.00,1.57
9285.00,1.57
9284.00,1.57
9283.00,1.57
9282.00,1.57
9281.00,1.57
9280.00,1.57
9279.00,1.57
9278.00,1.58
9277.00,1.58
9276.00,1.58
9275.00,1.58
9274.00,1.58
9273.00,1.58
9272.00,1.58
9271.00,1.58
9270.00,1.58
9269.00,1.59
9268.00,1.59
9267.00,1.59
9266.00,1.59
9265.00,1.59
9264.00,1.59
9263.00,1.59
9262.00,1.59
9261.00,1.60
9260.00,1.60
9259.00,1.60
9258.00,1.60
9257.00,1.60
9256.00,1.60
9255.00,1.60
9254.00,1.60
9253.00,1.60
9252.00,1.60
9251.00,1.60
9250.00,1.60
9249.00,1.60
9248.00,1.60
9247.00,1.60
9246.00,1.60
9245.00,1.60
9244.00,1.60
9243.00,1.60
9242.00,1.60
9241.00,1.60
9240.00,1.60
9239.00,1.60
9238.00,1.60
9237.00,1.60
9236.00,1.60
9235.00,1.60
9234.00,1.60
9233.00,1.60
9232.00,1.60
9231.00,1.60
9230.00,1.60
9229.00,1.59
9228.00,1.59
9227.00,1.59
9226.00,1.59
9225.00,1.59
9224.00,1.59
9223.00,1.59
9222.00,1.59
9221.00,1.59
9220.00,1.59
9219.00,1.59
9218.00,1.59
9217.00,1.59
9216.00,1.59
9215.00,1.59
9214.00,1.59
9213.00,1.59
9212.00,1.58
9211.00,1.58
9210.00,1.58
9209.00,1.58
9208.00,1.58
9207.00,1.58
9206.00,1.58
9205.00,1.58
9204.00,1.58
9203.00,1.58
9202.00,1.58
9201.00,1.58
9200.00,1.58
9199.00,1.58
9198.00,1.58
9197.00,1.58
9196.00,1.58
9195.00,1.58
9194.00,1.58
9193.00,1.58
9192.00,1.58
9191.00,1.58
9190.00,1.59
9189.00,1.59
9188.00,1.59
9187.00,1.59
9186.00,1.59
9185.00,1.59
9184.00,1.59
9183.00,1.59
9182.00,1.59
9181.00,1.59
9180.00,1.59
9179.00,1.59
9178.00,1.59
9177.00,1.59
9176.00,1.59
9175.00,1.59
9174.00,1.59
9173.00,1.58
9172.00,1.58
9171.00,1.58
9170.00,1.58
9169.00,1.58
9168.00,1.58
9167.00,1.58
9166.00,1.58
9165.00,1.58
9164.00,1.58
9163.00,1.58
9162.00,1.58
9161.00,1.58
9160.00,1.58
9159.00,1.59
9158.00,1.59
9157.00,1.59
9156.00,1.59
9155.00,1.59
9154.00,1.59
9153.00,1.59
9152.00,1.60
9151.00,1.60
9150.00,1.60
9149.00,1.60
9148.00,1.60
9147.00,1.60
9146.00,1.59
9145.00,1.59
9144.00,1.59
9143.00,1.59
9142.00,1.59
9141.00,1.59
9140.00,1.59
9139.00,1.59
9138.00,1.59
9137.00,1.59
9136.00,1.58
9135.00,1.58
9134.00,1.58
9133.00,1.58
9132.00,1.58
9131.00,1.58
9130.00,1.58
9129.00,1.58
9128.00,1.58
9127.00,1.58
9126.00,1.58
9125.00,1.58
9124.00,1.58
9123.00,1.58
9122.00,1.58
9121.00,1.58
9120.00,1.58
9119.00,1.58
9118.00,1.57
9117.00,1.57
9116.00,1.57
9115.00,1.57
9114.00,1.57
9113.00,1.57
9112.00,1.57
9111.00,1.57
9110.00,1.58
9109.00,1.58
9108.00,1.58
9107.00,1.58
9106.00,1.58
9105.00,1.58
9104.00,1.58
9103.00,1.58
9102.00,1.58
9101.00,1.59
9100.00,1.59
9099.00,1.59
9098.00,1.59
9097.00,1.59
9096.00,1.59
9095.00,1.59
9094.00,1.59
9093.00,1.59
9092.00,1.59
9091.00,1.59
9090.00,1.58
9089.00,1.58
9088.00,1.58
9087.00,1.58
9086.00,1.58
9085.00,1.58
9084.00,1.58
9083.00,1.57
9082.00,1.57
9081.00,1.57
9080.00,1.57
9079.00,1.57
9078.00,1.56
9077.00,1.56
9076.00,1.56
9075.00,1.56
9074.00,1.56
9073.00,1.56
9072.00,1.56
9071.00,1.56
9070.00,1.56
9069.00,1.56
9068.00,1.56
9067.00,1.56
9066.00,1.56
9065.00,1.56
9064.00,1.56
9063.00,1.56
9062.00,1.56
9061.00,1.56
9060.00,1.56
9059.00,1.56
9058.00,1.56
9057.00,1.56
9056.00,1.56
9055.00,1.56
9054.00,1.56
9053.00,1.56
9052.00,1.56
9051.00,1.56
9050.00,1.56
9049.00,1.56
9048.00,1.57
9047.00,1.57
9046.00,1.57
9045.00,1.57
9044.00,1.57
9043.00,1.58
9042.00,1.58
9041.00,1.58
9040.00,1.58
9039.00,1.58
9038.00,1.59
9037.00,1.59
9036.00,1.59
9035.00,1.59
9034.00,1.59
9033.00,1.59
9032.00,1.59
9031.00,1.59
9030.00,1.59
9029.00,1.60
9028.00,1.60
9027.00,1.60
9026.00,1.60
9025.00,1.60
9024.00,1.60
9023.00,1.60
9022.00,1.60
9021.00,1.60
9020.00,1.60
9019.00,1.60
9018.00,1.60
9017.00,1.60
9016.00,1.60
9015.00,1.60
9014.00,1.59
9013.00,1.59
9012.00,1.59
9011.00,1.59
9010.00,1.59
9009.00,1.59
9008.00,1.58
9007.00,1.58
9006.00,1.58
9005.00,1.58
9004.00,1.58
9003.00,1.58
9002.00,1.58
9001.00,1.58
9000.00,1.58
8999.00,1.59
8998.00,1.59
8997.00,1.59
8996.00,1.59
8995.00,1.59
8994.00,1.59
8993.00,1.60
8992.00,1.60
8991.00,1.60
8990.00,1.60
8989.00,1.60
8988.00,1.60
8987.00,1.60
8986.00,1.60
8985.00,1.60
8984.00,1.60
8983.00,1.60
8982.00,1.59
8981.00,1.59
8980.00,1.59
8979.00,1.59
8978.00,1.59
8977.00,1.59
8976.00,1.59
8975.00,1.58
8974.00,1.58
8973.00,1.58
8972.00,1.58
8971.00,1.58
8970.00,1.58
8969.00,1.58
8968.00,1.58
8967.00,1.58
8966.00,1.58
8965.00,1.58
8964.00,1.58
8963.00,1.58
8962.00,1.58
8961.00,1.58
8960.00,1.58
8959.00,1.58
8958.00,1.58
8957.00,1.58
8956.00,1.58
8955.00,1.58
8954.00,1.58
8953.00,1.59
8952.00,1.59
8951.00,1.59
8950.00,1.59
8949.00,1.59
8948.00,1.59
8947.00,1.59
8946.00,1.59
8945.00,1.59
8944.00,1.59
8943.00,1.59
8942.00,1.59
8941.00,1.58
8940.00,1.58
8939.00,1.58
8938.00,1.58
8937.00,1.58
8936.00,1.58
8935.00,1.58
8934.00,1.57
8933.00,1.57
8932.00,1.57
8931.00,1.57
8930.00,1.57
8929.00,1.57
8928.00,1.57
8927.00,1.57
8926.00,1.57
8925.00,1.57
8924.00,1.57
8923.00,1.57
8922.00,1.57
8921.00,1.58
8920.00,1.58
8919.00,1.58
8918.00,1.58
8917.00,1.58
8916.00,1.58
8915.00,1.58
8914.00,1.58
8913.00,1.59
8912.00,1.59
8911.00,1.59
8910.00,1.59
8909.00,1.59
8908.00,1.59
8907.00,1.58
8906.00,1.58
8905.00,1.58
8904.00,1.58
8903.00,1.58
8902.00,1.58
8901.00,1.58
8900.00,1.58
8899.00,1.58
8898.00,1.58
8897.00,1.58
8896.00,1.58
8895.00,1.58
8894.00,1.58
8893.00,1.57
8892.00,1.57
8891.00,1.57
8890.00,1.57
8889.00,1.57
8888.00,1.57
8887.00,1.57
8886.00,1.57
8885.00,1.57
8884.00,1.57
8883.00,1.57
8882.00,1.57
8881.00,1.57
8880.00,1.57
8879.00,1.57
8878.00,1.57
8877.00,1.57
8876.00,1.57
8875.00,1.57
8874.00,1.57
8873.00,1.57
8872.00,1.57
8871.00,1.57
8870.00,1.57
8869.00,1.57
8868.00,1.57
8867.00,1.57
8866.00,1.57
8865.00,1.57
8864.00,1.57
8863.00,1.57
8862.00,1.57
8861.00,1.57
8860.00,1.57
8859.00,1.57
8858.00,1.57
8857.00,1.57
8856.00,1.57
8855.00,1.57
8854.00,1.57
8853.00,1.57
8852.00,1.57
8851.00,1.57
8850.00,1.57
8849.00,1.57
8848.00,1.57
8847.00,1.57
8846.00,1.57
8845.00,1.57
8844.00,1.57
8843.00,1.57
8842.00,1.57
8841.00,1.57
8840.00,1.57
8839.00,1.57
8838.00,1.57
8837.00,1.57
8836.00,1.57
8835.00,1.57
8834.00,1.57
8833.00,1.57
8832.00,1.58
8831.00,1.58
8830.00,1.58
8829.00,1.58
8828.00,1.58
8827.00,1.58
8826.00,1.58
8825.00,1.57
8824.00,1.57
8823.00,1.57
8822.00,1.57
8821.00,1.57
8820.00,1.57
8819.00,1.57
8818.00,1.57
8817.00,1.57
8816.00,1.57
8815.00,1.57
8814.00,1.57
8813.00,1.57
8812.00,1.57
8811.00,1.57
8810.00,1.57
8809.00,1.57
8808.00,1.57
8807.00,1.57
8806.00,1.57
8805.00,1.57
8804.00,1.57
8803.00,1.57
8802.00,1.56
8801.00,1.56
8800.00,1.56
8799.00,1.56
8798.00,1.56
8797.00,1.56
8796.00,1.56
8795.00,1.55
8794.00,1.55
8793.00,1.55
8792.00,1.55
8791.00,1.55
8790.00,1.55
8789.00,1.55
8788.00,1.54
8787.00,1.54
8786.00,1.54
8785.00,1.54
8784.00,1.54
8783.00,1.54
8782.00,1.54
8781.00,1.54
8780.00,1.54
8779.00,1.54
8778.00,1.53
8777.00,1.53
8776.00,1.53
8775.00,1.53
8774.00,1.53
8773.00,1.53
8772.00,1.53
8771.00,1.53
8770.00,1.52
8769.00,1.52
8768.00,1.52
8767.00,1.52
8766.00,1.52
8765.00,1.52
8764.00,1.52
8763.00,1.52
8762.00,1.53
8761.00,1.53
8760.00,1.53
8759.00,1.53
8758.00,1.53
8757.00,1.53
8756.00,1.53
8755.00,1.53
8754.00,1.53
8753.00,1.53
8752.00,1.53
8751.00,1.53
8750.00,1.53
8749.00,1.53
8748.00,1.53
8747.00,1.53
8746.00,1.53
8745.00,1.53
8744.00,1.53
8743.00,1.53
8742.00,1.53
8741.00,1.53
8740.00,1.53
8739.00,1.53
8738.00,1.53
8737.00,1.53
8736.00,1.52
8735.00,1.52
8734.00,1.52
8733.00,1.52
8732.00,1.52
8731.00,1.52
8730.00,1.52
8729.00,1.52
8728.00,1.52
8727.00,1.52
8726.00,1.52
8725.00,1.52
8724.00,1.52
8723.00,1.52
8722.00,1.52
8721.00,1.52
8720.00,1.52
8719.00,1.52
8718.00,1.52
8717.00,1.52
8716.00,1.52
8715.00,1.52
8714.00,1.52
8713.00,1.52
8712.00,1.52
8711.00,1.52
8710.00,1.52
8709.00,1.52
8708.00,1.52
8707.00,1.51
8706.00,1.51
8705.00,1.51
8704.00,1.51
8703.00,1.51
8702.00,1.51
8701.00,1.51
8700.00,1.51
8699.00,1.51
8698.00,1.51
8697.00,1.51
8696.00,1.51
8695.00,1.51
8694.00,1.51
8693.00,1.52
8692.00,1.52
8691.00,1.52
8690.00,1.52
8689.00,1.52
8688.00,1.52
8687.00,1.52
8686.00,1.52
8685.00,1.52
8684.00,1.52
8683.00,1.52
8682.00,1.52
8681.00,1.52
8680.00,1.52
8679.00,1.52
8678.00,1.52
8677.00,1.52
8676.00,1.52
8675.00,1.52
8674.00,1.52
8673.00,1.51
8672.00,1.51
8671.00,1.51
8670.00,1.51
8669.00,1.51
8668.00,1.51
8667.00,1.51
8666.00,1.51
8665.00,1.50
8664.00,1.50
8663.00,1.50
8662.00,1.50
8661.00,1.49
8660.00,1.49
8659.00,1.49
8658.00,1.49
8657.00,1.48
8656.00,1.48
8655.00,1.48
8654.00,1.48
8653.00,1.48
8652.00,1.48
8651.00,1.48
8650.00,1.48
8649.00,1.48
8648.00,1.48
8647.00,1.48
8646.00,1.48
8645.00,1.48
8644.00,1.48
8643.00,1.48
8642.00,1.48
8641.00,1.48
8640.00,1.48
8639.00,1.48
8638.00,1.48
8637.00,1.48
8636.00,1.48
8635.00,1.48
8634.00,1.48
8633.00,1.48
8632.00,1.48
8631.00,1.48
8630.00,1.48
8629.00,1.47
8628.00,1.47
8627.00,1.47
8626.00,1.47
8625.00,1.47
8624.00,1.47
8623.00,1.46
8622.00,1.46
8621.00,1.46
8620.00,1.46
8619.00,1.46
8618.00,1.46
8617.00,1.45
8616.00,1.45
8615.00,1.45
8614.00,1.45
8613.00,1.45
8612.00,1.45
8611.00,1.45
8610.00,1.45
8609.00,1.45
8608.00,1.45
8607.00,1.45
8606.00,1.45
8605.00,1.45
8604.00,1.45
8603.00,1.45
8602.00,1.45
8601.00,1.45
8600.00,1.45
8599.00,1.45
8598.00,1.45
8597.00,1.45
8596.00,1.45
8595.00,1.45
8594.00,1.45
8593.00,1.45
8592.00,1.45
8591.00,1.45
8590.00,1.45
8589.00,1.45
8588.00,1.45
8587.00,1.45
8586.00,1.45
8585.00,1.45
8584.00,1.45
8583.00,1.45
8582.00,1.45
8581.00,1.45
8580.00,1.45
8579.00,1.45
8578.00,1.45
8577.00,1.45
8576.00,1.45
8575.00,1.45
8574.00,1.45
8573.00,1.45
8572.00,1.45
8571.00,1.45
8570.00,1.45
8569.00,1.45
8568.00,1.45
8567.00,1.45
8566.00,1.45
8565.00,1.45
8564.00,1.45
8563.00,1.45
8562.00,1.45
8561.00,1.45
8560.00,1.45
8559.00,1.45
8558.00,1.44
8557.00,1.44
8556.00,1.44
8555.00,1.44
8554.00,1.44
8553.00,1.44
8552.00,1.44
8551.00,1.43
8550.00,1.43
8549.00,1.43
8548.00,1.43
8547.00,1.43
8546.00,1.43
8545.00,1.43
8544.00,1.43
8543.00,1.43
8542.00,1.43
8541.00,1.43
8540.00,1.43
8539.00,1.43
8538.00,1.43
8537.00,1.43
8536.00,1.43
8535.00,1.43
8534.00,1.43
8533.00,1.43
8532.00,1.44
8531.00,1.44
8530.00,1.44
8529.00,1.44
8528.00,1.44
8527.00,1.44
8526.00,1.44
8525.00,1.44
8524.00,1.44
8523.00,1.44
8522.00,1.44
8521.00,1.44
8520.00,1.44
8519.00,1.43
8518.00,1.43
8517.00,1.43
8516.00,1.43
8515.00,1.43
8514.00,1.43
8513.00,1.43
8512.00,1.43
8511.00,1.43
8510.00,1.43
8509.00,1.43
8508.00,1.43
8507.00,1.43
8506.00,1.43
8505.00,1.43
8504.00,1.43
8503.00,1.43
8502.00,1.43
8501.00,1.43
8500.00,1.43
8499.00,1.43
8498.00,1.42
8497.00,1.42
8496.00,1.42
8495.00,1.42
8494.00,1.42
8493.00,1.41
8492.00,1.41
8491.00,1.41
8490.00,1.41
8489.00,1.40
8488.00,1.40
8487.00,1.40
8486.00,1.40
8485.00,1.40
8484.00,1.40
8483.00,1.39
8482.00,1.39
8481.00,1.39
8480.00,1.39
8479.00,1.39
8478.00,1.38
8477.00,1.38
8476.00,1.38
8475.00,1.38
8474.00,1.38
8473.00,1.37
8472.00,1.37
8471.00,1.37
8470.00,1.37
8469.00,1.36
8468.00,1.36
8467.00,1.36
8466.00,1.36
8465.00,1.36
8464.00,1.36
8463.00,1.36
8462.00,1.35
8461.00,1.35
8460.00,1.35
8459.00,1.35
8458.00,1.35
8457.00,1.35
8456.00,1.35
8455.00,1.35
8454.00,1.36
8453.00,1.36
8452.00,1.36
8451.00,1.36
8450.00,1.36
8449.00,1.36
8448.00,1.36
8447.00,1.36
8446.00,1.36
8445.00,1.36
8444.00,1.36
8443.00,1.35
8442.00,1.35
8441.00,1.35
8440.00,1.35
8439.00,1.35
8438.00,1.35
8437.00,1.35
8436.00,1.35
8435.00,1.35
8434.00,1.35
8433.00,1.35
8432.00,1.35
8431.00,1.35
8430.00,1.35
8429.00,1.36
8428.00,1.36
8427.00,1.36
8426.00,1.36
8425.00,1.36
8424.00,1.36
8423.00,1.36
8422.00,1.36
8421.00,1.36
8420.00,1.36
8419.00,1.36
8418.00,1.36
8417.00,1.36
8416.00,1.36
8415.00,1.36
8414.00,1.36
8413.00,1.36
8412.00,1.36
8411.00,1.37
8410.00,1.37
8409.00,1.37
8408.00,1.37
8407.00,1.37
8406.00,1.38
8405.00,1.38
8404.00,1.38
8403.00,1.38
8402.00,1.38
8401.00,1.38
8400.00,1.39
8399.00,1.39
8398.00,1.39
8397.00,1.39
8396.00,1.39
8395.00,1.39
8394.00,1.39
8393.00,1.39
8392.00,1.39
8391.00,1.39
8390.00,1.39
8389.00,1.40
8388.00,1.40
8387.00,1.40
8386.00,1.40
8385.00,1.40
8384.00,1.40
8383.00,1.41
8382.00,1.41
8381.00,1.41
8380.00,1.41
8379.00,1.41
8378.00,1.42
8377.00,1.42
8376.00,1.42
8375.00,1.42
8374.00,1.42
8373.00,1.42
8372.00,1.42
8371.00,1.42
8370.00,1.42
8369.00,1.42
8368.00,1.41
8367.00,1.41
8366.00,1.41
8365.00,1.41
8364.00,1.41
8363.00,1.41
8362.00,1.41
8361.00,1.40
8360.00,1.40
8359.00,1.40
8358.00,1.40
8357.00,1.40
8356.00,1.40
8355.00,1.40
8354.00,1.40
8353.00,1.40
8352.00,1.40
8351.00,1.40
8350.00,1.40
8349.00,1.40
8348.00,1.40
8347.00,1.41
8346.00,1.41
8345.00,1.41
8344.00,1.41
8343.00,1.41
8342.00,1.41
8341.00,1.41
8340.00,1.41
8339.00,1.41
8338.00,1.41
8337.00,1.41
8336.00,1.41
8335.00,1.41
8334.00,1.41
8333.00,1.41
8332.00,1.41
8331.00,1.42
8330.00,1.42
8329.00,1.42
8328.00,1.42
8327.00,1.42
8326.00,1.42
8325.00,1.42
8324.00,1.42
8323.00,1.42
8322.00,1.42
8321.00,1.42
8320.00,1.42
8319.00,1.42
8318.00,1.42
8317.00,1.42
8316.00,1.42
8315.00,1.42
8314.00,1.42
8313.00,1.42
8312.00,1.42
8311.00,1.42
8310.00,1.42
8309.00,1.42
8308.00,1.42
8307.00,1.42
8306.00,1.42
8305.00,1.42
8304.00,1.42
8303.00,1.42
8302.00,1.42
8301.00,1.42
8300.00,1.42
8299.00,1.42
8298.00,1.42
8297.00,1.42
8296.00,1.42
8295.00,1.42
8294.00,1.42
8293.00,1.42
8292.00,1.42
8291.00,1.42
8290.00,1.42
8289.00,1.42
8288.00,1.42
8287.00,1.42
8286.00,1.42
8285.00,1.42
8284.00,1.42
8283.00,1.42
8282.00,1.42
8281.00,1.42
8280.00,1.42
8279.00,1.42
8278.00,1.42
8277.00,1.42
8276.00,1.42
8275.00,1.42
8274.00,1.42
8273.00,1.42
8272.00,1.42
8271.00,1.42
8270.00,1.42
8269.00,1.42
8268.00,1.42
8267.00,1.42
8266.00,1.42
8265.00,1.42
8264.00,1.42
8263.00,1.42
8262.00,1.42
8261.00,1.43
8260.00,1.43
8259.00,1.43
8258.00,1.43
8257.00,1.43
8256.00,1.43
8255.00,1.44
8254.00,1.44
8253.00,1.44
8252.00,1.44
8251.00,1.44
8250.00,1.44
8249.00,1.44
8248.00,1.45
8247.00,1.45
8246.00,1.45
8245.00,1.45
8244.00,1.45
8243.00,1.45
8242.00,1.45
8241.00,1.45
8240.00,1.45
8239.00,1.45
8238.00,1.45
8237.00,1.45
8236.00,1.45
8235.00,1.45
8234.00,1.45
8233.00,1.45
8232.00,1.45
8231.00,1.45
8230.00,1.46
8229.00,1.46
8228.00,1.46
8227.00,1.46
8226.00,1.46
8225.00,1.46
8224.00,1.46
8223.00,1.46
8222.00,1.46
8221.00,1.46
8220.00,1.46
8219.00,1.46
8218.00,1.46
8217.00,1.46
8216.00,1.46
8215.00,1.45
8214.00,1.45
8213.00,1.45
8212.00,1.45
8211.00,1.45
8210.00,1.45
8209.00,1.45
8208.00,1.46
8207.00,1.46
8206.00,1.46
8205.00,1.46
8204.00,1.46
8203.00,1.46
8202.00,1.46
8201.00,1.47
8200.00,1.47
8199.00,1.47
8198.00,1.47
8197.00,1.47
8196.00,1.47
8195.00,1.47
8194.00,1.48
8193.00,1.48
8192.00,1.48
8191.00,1.48
8190.00,1.48
8189.00,1.48
8188.00,1.48
8187.00,1.48
8186.00,1.48
8185.00,1.48
8184.00,1.48
8183.00,1.48
8182.00,1.48
8181.00,1.48
8180.00,1.48
8179.00,1.48
8178.00,1.48
8177.00,1.48
8176.00,1.48
8175.00,1.48
8174.00,1.48
8173.00,1.48
8172.00,1.48
8171.00,1.48
8170.00,1.48
8169.00,1.48
8168.00,1.48
8167.00,1.49
8166.00,1.49
8165.00,1.49
8164.00,1.49
8163.00,1.49
8162.00,1.49
8161.00,1.49
8160.00,1.49
8159.00,1.49
8158.00,1.49
8157.00,1.49
8156.00,1.49
8155.00,1.49
8154.00,1.49
8153.00,1.49
8152.00,1.49
8151.00,1.49
8150.00,1.49
8149.00,1.49
8148.00,1.49
8147.00,1.49
8146.00,1.49
8145.00,1.49
8144.00,1.49
8143.00,1.49
8142.00,1.50
8141.00,1.50
8140.00,1.50
8139.00,1.50
8138.00,1.50
8137.00,1.50
8136.00,1.50
8135.00,1.51
8134.00,1.51
8133.00,1.51
8132.00,1.51
8131.00,1.51
8130.00,1.51
8129.00,1.51
8128.00,1.52
8127.00,1.52
8126.00,1.52
8125.00,1.52
8124.00,1.52
8123.00,1.52
8122.00,1.52
8121.00,1.52
8120.00,1.52
8119.00,1.51
8118.00,1.51
8117.00,1.51
8116.00,1.51
8115.00,1.51
8114.00,1.51
8113.00,1.51
8112.00,1.51
8111.00,1.51
8110.00,1.51
8109.00,1.51
8108.00,1.51
8107.00,1.51
8106.00,1.51
8105.00,1.51
8104.00,1.51
8103.00,1.51
8102.00,1.51
8101.00,1.51
8100.00,1.51
8099.00,1.51
8098.00,1.51
8097.00,1.51
8096.00,1.51
8095.00,1.51
8094.00,1.51
8093.00,1.51
8092.00,1.51
8091.00,1.51
8090.00,1.51
8089.00,1.51
8088.00,1.51
8087.00,1.51
8086.00,1.51
8085.00,1.51
8084.00,1.51
8083.00,1.51
8082.00,1.51
8081.00,1.51
8080.00,1.51
8079.00,1.51
8078.00,1.51
8077.00,1.51
8076.00,1.51
8075.00,1.51
8074.00,1.51
8073.00,1.51
8072.00,1.51
8071.00,1.51
8070.00,1.52
8069.00,1.52
8068.00,1.52
8067.00,1.52
8066.00,1.52
8065.00,1.52
8064.00,1.52
8063.00,1.53
8062.00,1.53
8061.00,1.53
8060.00,1.53
8059.00,1.53
8058.00,1.53
8057.00,1.53
8056.00,1.53
8055.00,1.53
8054.00,1.53
8053.00,1.53
8052.00,1.53
8051.00,1.53
8050.00,1.53
8049.00,1.52
8048.00,1.52
8047.00,1.52
8046.00,1.52
8045.00,1.52
8044.00,1.52
8043.00,1.52
8042.00,1.52
8041.00,1.52
8040.00,1.52
8039.00,1.53
8038.00,1.53
8037.00,1.53
8036.00,1.53
8035.00,1.53
8034.00,1.53
8033.00,1.53
8032.00,1.53
8031.00,1.53
8030.00,1.53
8029.00,1.53
8028.00,1.53
8027.00,1.53
8026.00,1.53
8025.00,1.54
8024.00,1.54
8023.00,1.54
8022.00,1.54
8021.00,1.54
8020.00,1.54
8019.00,1.54
8018.00,1.54
8017.00,1.54
8016.00,1.54
8015.00,1.54
8014.00,1.54
8013.00,1.54
8012.00,1.54
8011.00,1.54
8010.00,1.54
8009.00,1.53
8008.00,1.53
8007.00,1.53
8006.00,1.53
8005.00,1.53
8004.00,1.53
8003.00,1.53
8002.00,1.53
8001.00,1.53
8000.00,1.54
7999.00,1.54
7998.00,1.54
7997.00,1.54
7996.00,1.54
7995.00,1.54
7994.00,1.54
7993.00,1.54
7992.00,1.55
7991.00,1.55
7990.00,1.55
7989.00,1.55
7988.00,1.55
7987.00,1.55
7986.00,1.55
7985.00,1.56
7984.00,1.56
7983.00,1.56
7982.00,1.56
7981.00,1.56
7980.00,1.56
7979.00,1.56
7978.00,1.56
7977.00,1.56
7976.00,1.56
7975.00,1.56
7974.00,1.56
7973.00,1.56
7972.00,1.56
7971.00,1.56
7970.00,1.56
7969.00,1.56
7968.00,1.55
7967.00,1.55
7966.00,1.55
7965.00,1.55
7964.00,1.55
7963.00,1.55
7962.00,1.55
7961.00,1.55
7960.00,1.55
7959.00,1.55
7958.00,1.55
7957.00,1.55
7956.00,1.55
7955.00,1.55
7954.00,1.55
7953.00,1.55
7952.00,1.55
7951.00,1.55
7950.00,1.55
7949.00,1.55
7948.00,1.56
7947.00,1.56
7946.00,1.56
7945.00,1.56
7944.00,1.56
7943.00,1.56
7942.00,1.56
7941.00,1.56
7940.00,1.57
7939.00,1.57
7938.00,1.57
7937.00,1.57
7936.00,1.57
7935.00,1.57
7934.00,1.57
7933.00,1.57
7932.00,1.57
7931.00,1.57
7930.00,1.57
7929.00,1.57
7928.00,1.57
7927.00,1.57
7926.00,1.57
7925.00,1.57
7924.00,1.57
7923.00,1.57
7922.00,1.57
7921.00,1.57
7920.00,1.57
7919.00,1.57
7918.00,1.57
7917.00,1.57
7916.00,1.57
7915.00,1.57
7914.00,1.57
7913.00,1.57
7912.00,1.57
7911.00,1.57
7910.00,1.57
7909.00,1.57
7908.00,1.57
7907.00,1.57
7906.00,1.57
7905.00,1.57
7904.00,1.57
7903.00,1.57
7902.00,1.57
7901.00,1.57
7900.00,1.57
7899.00,1.57
7898.00,1.57
7897.00,1.57
7896.00,1.57
7895.00,1.57
7894.00,1.57
7893.00,1.57
7892.00,1.57
7891.00,1.57
7890.00,1.57
7889.00,1.57
7888.00,1.57
7887.00,1.57
7886.00,1.57
7885.00,1.57
7884.00,1.57
7883.00,1.57
7882.00,1.58
7881.00,1.58
7880.00,1.58
7879.00,1.58
7878.00,1.58
7877.00,1.58
7876.00,1.58
7875.00,1.58
7874.00,1.58
7873.00,1.58
7872.00,1.58
7871.00,1.59
7870.00,1.59
7869.00,1.58
7868.00,1.58
7867.00,1.58
7866.00,1.58
7865.00,1.58
7864.00,1.58
7863.00,1.58
7862.00,1.58
7861.00,1.58
7860.00,1.58
7859.00,1.58
7858.00,1.58
7857.00,1.57
7856.00,1.57
7855.00,1.57
7854.00,1.57
7853.00,1.57
7852.00,1.57
7851.00,1.57
7850.00,1.57
7849.00,1.57
7848.00,1.57
7847.00,1.57
7846.00,1.56
7845.00,1.56
7844.00,1.56
7843.00,1.56
7842.00,1.56
7841.00,1.56
7840.00,1.56
7839.00,1.56
7838.00,1.56
7837.00,1.57
7836.00,1.57
7835.00,1.57
7834.00,1.57
7833.00,1.57
7832.00,1.57
7831.00,1.57
7830.00,1.57
7829.00,1.57
7828.00,1.57
7827.00,1.57
7826.00,1.57
7825.00,1.57
7824.00,1.57
7823.00,1.57
7822.00,1.57
7821.00,1.57
7820.00,1.57
7819.00,1.57
7818.00,1.57
7817.00,1.57
7816.00,1.57
7815.00,1.57
7814.00,1.57
7813.00,1.57
7812.00,1.57
7811.00,1.57
7810.00,1.57
7809.00,1.58
7808.00,1.58
7807.00,1.58
7806.00,1.58
7805.00,1.58
7804.00,1.58
7803.00,1.58
7802.00,1.58
7801.00,1.58
7800.00,1.58
7799.00,1.58
7798.00,1.58
7797.00,1.59
7796.00,1.59
7795.00,1.59
7794.00,1.59
7793.00,1.59
7792.00,1.59
7791.00,1.59
7790.00,1.59
7789.00,1.59
7788.00,1.58
7787.00,1.58
7786.00,1.58
7785.00,1.58
7784.00,1.58
7783.00,1.58
7782.00,1.58
7781.00,1.59
7780.00,1.59
7779.00,1.59
7778.00,1.59
7777.00,1.59
7776.00,1.59
7775.00,1.59
7774.00,1.59
7773.00,1.59
7772.00,1.59
7771.00,1.60
7770.00,1.60
7769.00,1.60
7768.00,1.60
7767.00,1.60
7766.00,1.60
7765.00,1.60
7764.00,1.60
7763.00,1.60
7762.00,1.60
7761.00,1.60
7760.00,1.60
7759.00,1.60
7758.00,1.60
7757.00,1.60
7756.00,1.60
7755.00,1.60
7754.00,1.60
7753.00,1.59
7752.00,1.59
7751.00,1.59
7750.00,1.59
7749.00,1.59
7748.00,1.59
7747.00,1.59
7746.00,1.59
7745.00,1.59
7744.00,1.59
7743.00,1.59
7742.00,1.59
7741.00,1.59
7740.00,1.59
7739.00,1.59
7738.00,1.59
7737.00,1.59
7736.00,1.59
7735.00,1.59
7734.00,1.59
7733.00,1.59
7732.00,1.59
7731.00,1.59
7730.00,1.59
7729.00,1.59
7728.00,1.59
7727.00,1.60
7726.00,1.60
7725.00,1.60
7724.00,1.60
7723.00,1.60
7722.00,1.60
7721.00,1.60
7720.00,1.60
7719.00,1.60
7718.00,1.60
7717.00,1.60
7716.00,1.60
7715.00,1.60
7714.00,1.60
7713.00,1.60
7712.00,1.60
7711.00,1.60
7710.00,1.60
7709.00,1.60
7708.00,1.60
7707.00,1.59
7706.00,1.59
7705.00,1.59
7704.00,1.59
7703.00,1.59
7702.00,1.59
7701.00,1.59
7700.00,1.59
7699.00,1.59
7698.00,1.59
7697.00,1.59
7696.00,1.59
7695.00,1.59
7694.00,1.58
7693.00,1.58
7692.00,1.58
7691.00,1.58
7690.00,1.58
7689.00,1.58
7688.00,1.58
7687.00,1.58
7686.00,1.59
7685.00,1.59
7684.00,1.59
7683.00,1.59
7682.00,1.59
7681.00,1.59
7680.00,1.59
7679.00,1.59
7678.00,1.59
7677.00,1.60
7676.00,1.60
7675.00,1.60
7674.00,1.60
7673.00,1.60
7672.00,1.60
7671.00,1.60
7670.00,1.60
7669.00,1.60
7668.00,1.60
7667.00,1.60
7666.00,1.60
7665.00,1.60
7664.00,1.59
7663.00,1.59
7662.00,1.59
7661.00,1.59
7660.00,1.59
7659.00,1.59
7658.00,1.59
7657.00,1.59
7656.00,1.59
7655.00,1.60
7654.00,1.60
7653.00,1.60
7652.00,1.60
7651.00,1.60
7650.00,1.60
7649.00,1.60
7648.00,1.60
7647.00,1.60
7646.00,1.60
7645.00,1.60
7644.00,1.60
7643.00,1.60
7642.00,1.60
7641.00,1.60
7640.00,1.60
7639.00,1.60
7638.00,1.59
7637.00,1.59
7636.00,1.59
7635.00,1.59
7634.00,1.59
7633.00,1.59
7632.00,1.59
7631.00,1.59
7630.00,1.59
7629.00,1.59
7628.00,1.59
7627.00,1.59
7626.00,1.59
7625.00,1.59
7624.00,1.59
7623.00,1.59
7622.00,1.59
7621.00,1.60
7620.00,1.60
7619.00,1.60
7618.00,1.60
7617.00,1.60
7616.00,1.60
7615.00,1.60
7614.00,1.60
7613.00,1.60
7612.00,1.60
7611.00,1.60
7610.00,1.60
7609.00,1.60
7608.00,1.60
7607.00,1.60
7606.00,1.60
7605.00,1.60
7604.00,1.60
7603.00,1.59
7602.00,1.59
7601.00,1.59
7600.00,1.59
7599.00,1.59
7598.00,1.59
7597.00,1.59
7596.00,1.59
7595.00,1.59
7594.00,1.59
7593.00,1.59
7592.00,1.59
7591.00,1.59
7590.00,1.59
7589.00,1.59
7588.00,1.59
7587.00,1.59
7586.00,1.59
7585.00,1.59
7584.00,1.59
7583.00,1.59
7582.00,1.59
7581.00,1.59
7580.00,1.59
7579.00,1.59
7578.00,1.59
7577.00,1.59
7576.00,1.59
7575.00,1.59
7574.00,1.59
7573.00,1.59
7572.00,1.59
7571.00,1.59
7570.00,1.59
7569.00,1.59
7568.00,1.59
7567.00,1.59
7566.00,1.59
7565.00,1.59
7564.00,1.59
7563.00,1.59
7562.00,1.59
7561.00,1.59
7560.00,1.59
7559.00,1.59
7558.00,1.59
7557.00,1.59
7556.00,1.59
7555.00,1.59
7554.00,1.59
7553.00,1.59
7552.00,1.59
7551.00,1.59
7550.00,1.59
7549.00,1.59
7548.00,1.59
7547.00,1.59
7546.00,1.59
7545.00,1.59
7544.00,1.59
7543.00,1.59
7542.00,1.58
7541.00,1.58
7540.00,1.58
7539.00,1.58
7538.00,1.58
7537.00,1.58
7536.00,1.58
7535.00,1.58
7534.00,1.58
7533.00,1.58
7532.00,1.57
7531.00,1.57
7530.00,1.57
7529.00,1.57
7528.00,1.57
7527.00,1.57
7526.00,1.57
7525.00,1.57
7524.00,1.57
7523.00,1.57
7522.00,1.57
7521.00,1.57
7520.00,1.57
7519.00,1.57
7518.00,1.57
7517.00,1.57
7516.00,1.57
7515.00,1.57
7514.00,1.57
7513.00,1.57
7512.00,1.57
7511.00,1.57
7510.00,1.57
7509.00,1.57
7508.00,1.57
7507.00,1.57
7506.00,1.57
7505.00,1.57
7504.00,1.57
7503.00,1.57
7502.00,1.57
7501.00,1.57
7500.00,1.57
7499.00,1.57
7498.00,1.57
7497.00,1.57
7496.00,1.57
7495.00,1.57
7494.00,1.57
7493.00,1.57
7492.00,1.57
7491.00,1.57
7490.00,1.57
7489.00,1.57
7488.00,1.57
7487.00,1.57
7486.00,1.57
7485.00,1.57
7484.00,1.57
7483.00,1.57
7482.00,1.56
7481.00,1.56
7480.00,1.56
7479.00,1.56
7478.00,1.56
7477.00,1.56
7476.00,1.56
7475.00,1.56
7474.00,1.55
7473.00,1.55
7472.00,1.55
7471.00,1.55
7470.00,1.55
7469.00,1.55
7468.00,1.55
7467.00,1.55
7466.00,1.54
7465.00,1.54
7464.00,1.54
7463.00,1.54
7462.00,1.54
7461.00,1.54
7460.00,1.54
7459.00,1.54
7458.00,1.54
7457.00,1.54
7456.00,1.53
7455.00,1.53
7454.00,1.53
7453.00,1.53
7452.00,1.53
7451.00,1.53
7450.00,1.53
7449.00,1.53
7448.00,1.53
7447.00,1.53
7446.00,1.53
7445.00,1.53
7444.00,1.53
7443.00,1.53
7442.00,1.53
7441.00,1.52
7440.00,1.52
7439.00,1.52
7438.00,1.52
7437.00,1.52
7436.00,1.52
7435.00,1.52
7434.00,1.52
7433.00,1.52
7432.00,1.52
7431.00,1.52
7430.00,1.52
7429.00,1.52
7428.00,1.52
7427.00,1.52
7426.00,1.52
7425.00,1.51
7424.00,1.51
7423.00,1.51
7422.00,1.51
7421.00,1.51
7420.00,1.51
7419.00,1.51
7418.00,1.51
7417.00,1.51
7416.00,1.51
7415.00,1.51
7414.00,1.51
7413.00,1.50
7412.00,1.50
7411.00,1.50
7410.00,1.50
7409.00,1.50
7408.00,1.50
7407.00,1.50
7406.00,1.49
7405.00,1.49
7404.00,1.49
7403.00,1.49
7402.00,1.49
7401.00,1.49
7400.00,1.48
7399.00,1.48
7398.00,1.48
7397.00,1.48
7396.00,1.48
7395.00,1.47
7394.00,1.47
7393.00,1.47
7392.00,1.47
7391.00,1.47
7390.00,1.47
7389.00,1.46
7388.00,1.46
7387.00,1.46
7386.00,1.46
7385.00,1.46
7384.00,1.46
7383.00,1.45
7382.00,1.45
7381.00,1.45
7380.00,1.45
7379.00,1.45
7378.00,1.45
7377.00,1.45
7376.00,1.45
7375.00,1.45
7374.00,1.45
7373.00,1.45
7372.00,1.44
7371.00,1.44
7370.00,1.44
7369.00,1.44
7368.00,1.44
7367.00,1.44
7366.00,1.44
7365.00,1.44
7364.00,1.44
7363.00,1.44
7362.00,1.44
7361.00,1.44
7360.00,1.44
7359.00,1.44
7358.00,1.44
7357.00,1.43
7356.00,1.43
7355.00,1.43
7354.00,1.43
7353.00,1.43
7352.00,1.43
7351.00,1.43
7350.00,1.43
7349.00,1.43
7348.00,1.43
7347.00,1.43
7346.00,1.43
7345.00,1.43
7344.00,1.43
7343.00,1.43
7342.00,1.43
7341.00,1.43
7340.00,1.43
7339.00,1.43
7338.00,1.43
7337.00,1.43
7336.00,1.43
7335.00,1.43
7334.00,1.43
7333.00,1.42
7332.00,1.42
7331.00,1.42
7330.00,1.42
7329.00,1.42
7328.00,1.42
7327.00,1.42
7326.00,1.42
7325.00,1.42
7324.00,1.42
7323.00,1.42
7322.00,1.41
7321.00,1.41
7320.00,1.41
7319.00,1.41
7318.00,1.41
7317.00,1.41
7316.00,1.41
7315.00,1.41
7314.00,1.40
7313.00,1.40
7312.00,1.40
7311.00,1.40
7310.00,1.40
7309.00,1.40
7308.00,1.40
7307.00,1.40
7306.00,1.40
7305.00,1.40
7304.00,1.39
7303.00,1.39
7302.00,1.39
7301.00,1.39
7300.00,1.39
7299.00,1.39
7298.00,1.39
7297.00,1.39
7296.00,1.39
7295.00,1.38
7294.00,1.38
7293.00,1.38
7292.00,1.38
7291.00,1.38
7290.00,1.38
7289.00,1.38
7288.00,1.38
7287.00,1.38
7286.00,1.38
7285.00,1.38
7284.00,1.37
7283.00,1.37
7282.00,1.37
7281.00,1.37
7280.00,1.37
7279.00,1.37
7278.00,1.37
7277.00,1.37
7276.00,1.37
7275.00,1.37
7274.00,1.37
7273.00,1.37
7272.00,1.37
7271.00,1.36
7270.00,1.36
7269.00,1.36
7268.00,1.36
7267.00,1.36
7266.00,1.36
7265.00,1.36
7264.00,1.36
7263.00,1.36
7262.00,1.35
7261.00,1.35
7260.00,1.35
7259.00,1.35
7258.00,1.35
7257.00,1.35
7256.00,1.34
7255.00,1.34
7254.00,1.34
7253.00,1.34
7252.00,1.33
7251.00,1.33
7250.00,1.33
7249.00,1.32
7248.00,1.32
7247.00,1.31
7246.00,1.31
7245.00,1.31
7244.00,1.30
7243.00,1.30
7242.00,1.30
7241.00,1.29
7240.00,1.29
7239.00,1.28
7238.00,1.28
7237.00,1.28
7236.00,1.28
7235.00,1.27
7234.00,1.27
7233.00,1.27
7232.00,1.27
7231.00,1.26
7230.00,1.26
7229.00,1.26
7228.00,1.26
7227.00,1.25
7226.00,1.25
7225.00,1.25
7224.00,1.24
7223.00,1.24
7222.00,1.24
7221.00,1.23
7220.00,1.23
7219.00,1.22
7218.00,1.22
7217.00,1.22
7216.00,1.21
7215.00,1.21
7214.00,1.20
7213.00,1.20
7212.00,1.20
7211.00,1.19
7210.00,1.19
7209.00,1.18
7208.00,1.18
7207.00,1.17
7206.00,1.17
7205.00,1.17
7204.00,1.16
7203.00,1.16
7202.00,1.16
7201.00,1.15
7200.00,1.15
7199.00,1.15
7198.00,1.14
7197.00,1.14
7196.00,1.13
7195.00,1.13
7194.00,1.13
7193.00,1.12
7192.00,1.12
7191.00,1.12
7190.00,1.12
7189.00,1.11
7188.00,1.11
7187.00,1.11
7186.00,1.10
7185.00,1.10
7184.00,1.10
7183.00,1.09
7182.00,1.09
7181.00,1.09
7180.00,1.09
7179.00,1.08
7178.00,1.08
7177.00,1.08
7176.00,1.08
7175.00,1.07
7174.00,1.07
7173.00,1.07
7172.00,1.06
7171.00,1.06
7170.00,1.06
7169.00,1.06
7168.00,1.05
7167.00,1.05
7166.00,1.05
7165.00,1.04
7164.00,1.04
7163.00,1.04
7162.00,1.04
7161.00,1.03
7160.00,1.03
7159.00,1.03
7158.00,1.03
7157.00,1.03
7156.00,1.03
7155.00,1.02
7154.00,1.02
7153.00,1.02
7152.00,1.02
7151.00,1.01
7150.00,1.01
7149.00,1.01
7148.00,1.01
7147.00,1.00
7146.00,1.00
7145.00,1.00
7144.00,0.99
7143.00,0.99
7142.00,0.99
7141.00,0.98
7140.00,0.98
7139.00,0.98
7138.00,0.97
7137.00,0.97
7136.00,0.97
7135.00,0.96
7134.00,0.96
7133.00,0.96
7132.00,0.96
7131.00,0.95
7130.00,0.95
7129.00,0.95
7128.00,0.94
7127.00,0.94
7126.00,0.93
7125.00,0.93
7124.00,0.93
7123.00,0.92
7122.00,0.92
7121.00,0.92
7120.00,0.91
7119.00,0.91
7118.00,0.90
7117.00,0.90
7116.00,0.90
7115.00,0.90
7114.00,0.89
7113.00,0.89
7112.00,0.89
7111.00,0.89
7110.00,0.88
7109.00,0.88
7108.00,0.88
7107.00,0.88
7106.00,0.88
7105.00,0.87
7104.00,0.87
7103.00,0.87
7102.00,0.87
7101.00,0.86
7100.00,0.86
7099.00,0.86
7098.00,0.85
7097.00,0.85
7096.00,0.85
7095.00,0.85
7094.00,0.84
7093.00,0.84
7092.00,0.84
7091.00,0.83
7090.00,0.83
7089.00,0.83
7088.00,0.82
7087.00,0.82
7086.00,0.82
7085.00,0.82
7084.00,0.81
7083.00,0.81
7082.00,0.81
7081.00,0.81
7080.00,0.81
7079.00,0.81
7078.00,0.80
7077.00,0.80
7076.00,0.80
7075.00,0.80
7074.00,0.80
7073.00,0.80
7072.00,0.80
7071.00,0.79
7070.00,0.79
7069.00,0.79
7068.00,0.79
7067.00,0.79
7066.00,0.79
7065.00,0.79
7064.00,0.79
7063.00,0.79
7062.00,0.79
7061.00,0.78
7060.00,0.78
7059.00,0.78
7058.00,0.78
7057.00,0.78
7056.00,0.78
7055.00,0.78
7054.00,0.77
7053.00,0.77
7052.00,0.77
7051.00,0.77
7050.00,0.77
7049.00,0.76
7048.00,0.76
7047.00,0.76
7046.00,0.76
7045.00,0.76
7044.00,0.76
7043.00,0.75
7042.00,0.75
7041.00,0.75
7040.00,0.75
7039.00,0.75
7038.00,0.75
7037.00,0.75
7036.00,0.74
7035.00,0.74
7034.00,0.74
7033.00,0.74
7032.00,0.74
7031.00,0.74
7030.00,0.74
7029.00,0.74
7028.00,0.73
7027.00,0.73
7026.00,0.73
7025.00,0.73
7024.00,0.73
7023.00,0.73
7022.00,0.73
7021.00,0.73
7020.00,0.72
7019.00,0.72
7018.00,0.72
7017.00,0.72
7016.00,0.72
7015.00,0.72
7014.00,0.72
7013.00,0.72
7012.00,0.72
7011.00,0.72
7010.00,0.72
7009.00,0.72
7008.00,0.72
7007.00,0.72
7006.00,0.72
7005.00,0.72
7004.00,0.72
7003.00,0.72
7002.00,0.72
7001.00,0.72
7000.00,0.72
6999.00,0.72
6998.00,0.72
6997.00,0.71
6996.00,0.71
6995.00,0.71
6994.00,0.71
6993.00,0.71
6992.00,0.71
6991.00,0.71
6990.00,0.71
6989.00,0.70
6988.00,0.70
6987.00,0.70
6986.00,0.70
6985.00,0.70
6984.00,0.70
6983.00,0.70
6982.00,0.70
6981.00,0.69
6980.00,0.69
6979.00,0.69
6978.00,0.69
6977.00,0.69
6976.00,0.69
6975.00,0.69
6974.00,0.69
6973.00,0.69
6972.00,0.69
6971.00,0.68
6970.00,0.68
6969.00,0.68
6968.00,0.68
6967.00,0.68
6966.00,0.68
6965.00,0.68
6964.00,0.68
6963.00,0.68
6962.00,0.68
6961.00,0.67
6960.00,0.67
6959.00,0.67
6958.00,0.67
6957.00,0.67
6956.00,0.67
6955.00,0.66
6954.00,0.66
6953.00,0.66
6952.00,0.66
6951.00,0.66
6950.00,0.66
6949.00,0.66
6948.00,0.66
6947.00,0.66
6946.00,0.66
6945.00,0.66
6944.00,0.66
6943.00,0.66
6942.00,0.66
6941.00,0.67
6940.00,0.67
6939.00,0.67
6938.00,0.67
6937.00,0.67
6936.00,0.67
6935.00,0.67
6934.00,0.67
6933.00,0.67
6932.00,0.67
6931.00,0.67
6930.00,0.67
6929.00,0.67
6928.00,0.67
6927.00,0.67
6926.00,0.66
6925.00,0.66
6924.00,0.66
6923.00,0.66
6922.00,0.66
6921.00,0.66
6920.00,0.66
6919.00,0.66
6918.00,0.66
6917.00,0.66
6916.00,0.66
6915.00,0.66
6914.00,0.66
6913.00,0.66
6912.00,0.66
6911.00,0.66
6910.00,0.66
6909.00,0.66
6908.00,0.65
6907.00,0.65
6906.00,0.65
6905.00,0.65
6904.00,0.65
6903.00,0.65
6902.00,0.65
6901.00,0.65
6900.00,0.65
6899.00,0.65
6898.00,0.65
6897.00,0.65
6896.00,0.65
6895.00,0.65
6894.00,0.65
6893.00,0.65
6892.00,0.65
6891.00,0.65
6890.00,0.65
6889.00,0.65
6888.00,0.65
6887.00,0.65
6886.00,0.65
6885.00,0.65
6884.00,0.65
6883.00,0.65
6882.00,0.65
6881.00,0.65
6880.00,0.65
6879.00,0.65
6878.00,0.65
6877.00,0.65
6876.00,0.65
6875.00,0.65
6874.00,0.65
6873.00,0.65
6872.00,0.65
6871.00,0.65
6870.00,0.65
6869.00,0.65
6868.00,0.65
6867.00,0.65
6866.00,0.65
6865.00,0.65
6864.00,0.65
6863.00,0.65
6862.00,0.65
6861.00,0.65
6860.00,0.65
6859.00,0.65
6858.00,0.65
6857.00,0.65
6856.00,0.65
6855.00,0.65
6854.00,0.65
6853.00,0.65
6852.00,0.65
6851.00,0.65
6850.00,0.65
6849.00,0.65
6848.00,0.65
6847.00,0.65
6846.00,0.65
6845.00,0.65
6844.00,0.65
6843.00,0.65
6842.00,0.65
6841.00,0.65
6840.00,0.65
6839.00,0.65
6838.00,0.65
6837.00,0.65
6836.00,0.65
6835.00,0.65
6834.00,0.65
6833.00,0.65
6832.00,0.65
6831.00,0.65
6830.00,0.66
6829.00,0.66
6828.00,0.66
6827.00,0.66
6826.00,0.66
6825.00,0.66
6824.00,0.66
6823.00,0.66
6822.00,0.66
6821.00,0.66
6820.00,0.66
6819.00,0.66
6818.00,0.66
6817.00,0.65
6816.00,0.65
6815.00,0.65
6814.00,0.65
6813.00,0.65
6812.00,0.65
6811.00,0.65
6810.00,0.65
6809.00,0.65
6808.00,0.65
6807.00,0.65
6806.00,0.65
6805.00,0.66
6804.00,0.66
6803.00,0.66
6802.00,0.66
6801.00,0.66
6800.00,0.66
6799.00,0.66
6798.00,0.66
6797.00,0.67
6796.00,0.67
6795.00,0.67
6794.00,0.67
6793.00,0.67
6792.00,0.67
6791.00,0.67
6790.00,0.67
6789.00,0.67
6788.00,0.67
6787.00,0.67
6786.00,0.67
6785.00,0.67
6784.00,0.67
6783.00,0.67
6782.00,0.67
6781.00,0.67
6780.00,0.67
6779.00,0.67
6778.00,0.67
6777.00,0.67
6776.00,0.67
6775.00,0.67
6774.00,0.67
6773.00,0.67
6772.00,0.67
6771.00,0.67
6770.00,0.67
6769.00,0.67
6768.00,0.67
6767.00,0.67
6766.00,0.67
6765.00,0.68
6764.00,0.68
6763.00,0.68
6762.00,0.68
6761.00,0.68
6760.00,0.68
6759.00,0.69
6758.00,0.69
6757.00,0.69
6756.00,0.69
6755.00,0.69
6754.00,0.69
6753.00,0.69
6752.00,0.69
6751.00,0.69
6750.00,0.69
6749.00,0.69
6748.00,0.69
6747.00,0.69
6746.00,0.69
6745.00,0.69
6744.00,0.70
6743.00,0.70
6742.00,0.70
6741.00,0.70
6740.00,0.70
6739.00,0.70
6738.00,0.70
6737.00,0.70
6736.00,0.70
6735.00,0.70
6734.00,0.70
6733.00,0.71
6732.00,0.71
6731.00,0.71
6730.00,0.71
6729.00,0.71
6728.00,0.71
6727.00,0.71
6726.00,0.71
6725.00,0.71
6724.00,0.71
6723.00,0.71
6722.00,0.71
6721.00,0.71
6720.00,0.71
6719.00,0.71
6718.00,0.71
6717.00,0.71
6716.00,0.71
6715.00,0.72
6714.00,0.72
6713.00,0.72
6712.00,0.72
6711.00,0.72
6710.00,0.72
6709.00,0.72
6708.00,0.72
6707.00,0.72
6706.00,0.73
6705.00,0.73
6704.00,0.73
6703.00,0.73
6702.00,0.73
6701.00,0.73
6700.00,0.73
6699.00,0.73
6698.00,0.73
6697.00,0.73
6696.00,0.73
6695.00,0.73
6694.00,0.73
6693.00,0.74
6692.00,0.74
6691.00,0.74
6690.00,0.74
6689.00,0.74
6688.00,0.74
6687.00,0.74
6686.00,0.74
6685.00,0.74
6684.00,0.74
6683.00,0.74
6682.00,0.74
6681.00,0.74
6680.00,0.74
6679.00,0.74
6678.00,0.75
6677.00,0.75
6676.00,0.75
6675.00,0.75
6674.00,0.75
6673.00,0.75
6672.00,0.75
6671.00,0.75
6670.00,0.75
6669.00,0.76
6668.00,0.76
6667.00,0.76
6666.00,0.76
6665.00,0.76
6664.00,0.76
6663.00,0.76
6662.00,0.76
6661.00,0.76
6660.00,0.76
6659.00,0.76
6658.00,0.77
6657.00,0.77
6656.00,0.77
6655.00,0.77
6654.00,0.77
6653.00,0.77
6652.00,0.77
6651.00,0.77
6650.00,0.77
6649.00,0.77
6648.00,0.77
6647.00,0.77
6646.00,0.77
6645.00,0.77
6644.00,0.77
6643.00,0.78
6642.00,0.78
6641.00,0.78
6640.00,0.78
6639.00,0.78
6638.00,0.78
6637.00,0.78
6636.00,0.78
6635.00,0.79
6634.00,0.79
6633.00,0.79
6632.00,0.79
6631.00,0.79
6630.00,0.79
6629.00,0.79
6628.00,0.79
6627.00,0.80
6626.00,0.80
6625.00,0.80
6624.00,0.80
6623.00,0.80
6622.00,0.80
6621.00,0.80
6620.00,0.80
6619.00,0.80
6618.00,0.81
6617.00,0.81
6616.00,0.81
6615.00,0.81
6614.00,0.81
6613.00,0.81
6612.00,0.81
6611.00,0.81
6610.00,0.81
6609.00,0.81
6608.00,0.82
6607.00,0.82
6606.00,0.82
6605.00,0.82
6604.00,0.82
6603.00,0.82
6602.00,0.82
6601.00,0.82
6600.00,0.82
6599.00,0.82
6598.00,0.82
6597.00,0.83
6596.00,0.83
6595.00,0.83
6594.00,0.83
6593.00,0.83
6592.00,0.83
6591.00,0.83
6590.00,0.83
6589.00,0.84
6588.00,0.84
6587.00,0.84
6586.00,0.84
6585.00,0.84
6584.00,0.84
6583.00,0.84
6582.00,0.84
6581.00,0.85
6580.00,0.85
6579.00,0.85
6578.00,0.85
6577.00,0.85
6576.00,0.85
6575.00,0.85
6574.00,0.86
6573.00,0.86
6572.00,0.86
6571.00,0.86
6570.00,0.86
6569.00,0.86
6568.00,0.86
6567.00,0.86
6566.00,0.86
6565.00,0.86
6564.00,0.86
6563.00,0.86
6562.00,0.86
6561.00,0.86
6560.00,0.86
6559.00,0.86
6558.00,0.86
6557.00,0.86
6556.00,0.87
6555.00,0.87
6554.00,0.87
6553.00,0.87
6552.00,0.87
6551.00,0.87
6550.00,0.87
6549.00,0.87
6548.00,0.87
6547.00,0.87
6546.00,0.87
6545.00,0.87
6544.00,0.88
6543.00,0.88
6542.00,0.88
6541.00,0.88
6540.00,0.88
6539.00,0.88
6538.00,0.88
6537.00,0.88
6536.00,0.88
6535.00,0.88
6534.00,0.88
6533.00,0.89
6532.00,0.89
6531.00,0.89
6530.00,0.89
6529.00,0.89
6528.00,0.89
6527.00,0.89
6526.00,0.89
6525.00,0.89
6524.00,0.90
6523.00,0.90
6522.00,0.90
6521.00,0.90
6520.00,0.90
6519.00,0.90
6518.00,0.90
6517.00,0.90
6516.00,0.90
6515.00,0.91
6514.00,0.91
6513.00,0.91
6512.00,0.91
6511.00,0.91
6510.00,0.91
6509.00,0.91
6508.00,0.91
6507.00,0.91
6506.00,0.91
6505.00,0.91
6504.00,0.91
6503.00,0.91
6502.00,0.91
6501.00,0.91
6500.00,0.91
6499.00,0.92
6498.00,0.92
6497.00,0.92
6496.00,0.92
6495.00,0.92
6494.00,0.92
6493.00,0.92
6492.00,0.92
6491.00,0.92
6490.00,0.92
6489.00,0.92
6488.00,0.92
6487.00,0.92
6486.00,0.92
6485.00,0.92
6484.00,0.92
6483.00,0.92
6482.00,0.92
6481.00,0.92
6480.00,0.92
6479.00,0.92
6478.00,0.92
6477.00,0.92
6476.00,0.92
6475.00,0.93
6474.00,0.93
6473.00,0.93
6472.00,0.93
6471.00,0.93
6470.00,0.93
6469.00,0.93
6468.00,0.93
6467.00,0.93
6466.00,0.93
6465.00,0.93
6464.00,0.93
6463.00,0.93
6462.00,0.94
6461.00,0.94
6460.00,0.94
6459.00,0.94
6458.00,0.94
6457.00,0.94
6456.00,0.94
6455.00,0.94
6454.00,0.94
6453.00,0.94
6452.00,0.94
6451.00,0.94
6450.00,0.94
6449.00,0.94
6448.00,0.94
6447.00,0.94
6446.00,0.94
6445.00,0.94
6444.00,0.94
6443.00,0.94
6442.00,0.94
6441.00,0.94
6440.00,0.94
6439.00,0.95
6438.00,0.95
6437.00,0.95
6436.00,0.95
6435.00,0.95
6434.00,0.95
6433.00,0.95
6432.00,0.95
6431.00,0.95
6430.00,0.95
6429.00,0.95
6428.00,0.95
6427.00,0.95
6426.00,0.95
6425.00,0.95
6424.00,0.95
6423.00,0.96
6422.00,0.96
6421.00,0.96
6420.00,0.96
6419.00,0.96
6418.00,0.96
6417.00,0.96
6416.00,0.96
6415.00,0.96
6414.00,0.96
6413.00,0.96
6412.00,0.96
6411.00,0.96
6410.00,0.96
6409.00,0.96
6408.00,0.96
6407.00,0.96
6406.00,0.96
6405.00,0.96
6404.00,0.96
6403.00,0.96
6402.00,0.96
6401.00,0.96
6400.00,0.97
6399.00,0.97
6398.00,0.97
6397.00,0.97
6396.00,0.97
6395.00,0.97
6394.00,0.97
6393.00,0.97
6392.00,0.97
6391.00,0.97
6390.00,0.97
6389.00,0.98
6388.00,0.98
6387.00,0.98
6386.00,0.98
6385.00,0.98
6384.00,0.98
6383.00,0.98
6382.00,0.98
6381.00,0.98
6380.00,0.98
6379.00,0.98
6378.00,0.98
6377.00,0.98
6376.00,0.98
6375.00,0.98
6374.00,0.98
6373.00,0.98
6372.00,0.99
6371.00,0.99
6370.00,0.99
6369.00,0.99
6368.00,0.99
6367.00,0.99
6366.00,0.99
6365.00,0.99
6364.00,0.99
6363.00,0.99
6362.00,1.00
6361.00,1.00
6360.00,1.00
6359.00,1.00
6358.00,1.00
6357.00,1.00
6356.00,1.00
6355.00,1.01
6354.00,1.01
6353.00,1.01
6352.00,1.01
6351.00,1.01
6350.00,1.01
6349.00,1.01
6348.00,1.01
6347.00,1.01
6346.00,1.01
6345.00,1.01
6344.00,1.01
6343.00,1.01
6342.00,1.01
6341.00,1.01
6340.00,1.01
6339.00,1.01
6338.00,1.01
6337.00,1.01
6336.00,1.01
6335.00,1.01
6334.00,1.01
6333.00,1.02
6332.00,1.02
6331.00,1.02
6330.00,1.02
6329.00,1.02
6328.00,1.02
6327.00,1.02
6326.00,1.02
6325.00,1.02
6324.00,1.02
6323.00,1.02
6322.00,1.03
6321.00,1.03
6320.00,1.03
6319.00,1.03
6318.00,1.03
6317.00,1.03
6316.00,1.03
6315.00,1.03
6314.00,1.04
6313.00,1.04
6312.00,1.04
6311.00,1.04
6310.00,1.04
6309.00,1.04
6308.00,1.04
6307.00,1.04
6306.00,1.04
6305.00,1.04
6304.00,1.05
6303.00,1.05
6302.00,1.05
6301.00,1.05
6300.00,1.05
6299.00,1.05
6298.00,1.05
6297.00,1.05
6296.00,1.06
6295.00,1.06
6294.00,1.06
6293.00,1.06
6292.00,1.06
6291.00,1.06
6290.00,1.06
6289.00,1.07
6288.00,1.07
6287.00,1.07
6286.00,1.07
6285.00,1.07
6284.00,1.07
6283.00,1.07
6282.00,1.08
6281.00,1.08
6280.00,1.08
6279.00,1.08
6278.00,1.08
6277.00,1.08
6276.00,1.08
6275.00,1.08
6274.00,1.08
6273.00,1.08
6272.00,1.08
6271.00,1.08
6270.00,1.08
6269.00,1.09
6268.00,1.09
6267.00,1.09
6266.00,1.09
6265.00,1.09
6264.00,1.09
6263.00,1.09
6262.00,1.09
6261.00,1.09
6260.00,1.09
6259.00,1.09
6258.00,1.10
6257.00,1.10
6256.00,1.10
6255.00,1.10
6254.00,1.10
6253.00,1.10
6252.00,1.10
6251.00,1.11
6250.00,1.11
6249.00,1.11
6248.00,1.11
6247.00,1.11
6246.00,1.11
6245.00,1.11
6244.00,1.12
6243.00,1.12
6242.00,1.12
6241.00,1.12
6240.00,1.12
6239.00,1.12
6238.00,1.13
6237.00,1.13
6236.00,1.13
6235.00,1.13
6234.00,1.13
6233.00,1.13
6232.00,1.13
6231.00,1.14
6230.00,1.14
6229.00,1.14
6228.00,1.14
6227.00,1.14
6226.00,1.14
6225.00,1.14
6224.00,1.15
6223.00,1.15
6222.00,1.15
6221.00,1.15
6220.00,1.15
6219.00,1.15
6218.00,1.15
6217.00,1.15
6216.00,1.15
6215.00,1.15
6214.00,1.16
6213.00,1.16
6212.00,1.16
6211.00,1.16
6210.00,1.16
6209.00,1.16
6208.00,1.16
6207.00,1.17
6206.00,1.17
6205.00,1.17
6204.00,1.17
6203.00,1.17
6202.00,1.18
6201.00,1.18
6200.00,1.18
6199.00,1.18
6198.00,1.18
6197.00,1.18
6196.00,1.19
6195.00,1.19
6194.00,1.19
6193.00,1.19
6192.00,1.19
6191.00,1.20
6190.00,1.20
6189.00,1.20
6188.00,1.20
6187.00,1.20
6186.00,1.21
6185.00,1.21
6184.00,1.21
6183.00,1.21
6182.00,1.21
6181.00,1.21
6180.00,1.21
6179.00,1.22
6178.00,1.22
6177.00,1.22
6176.00,1.22
6175.00,1.22
6174.00,1.22
6173.00,1.23
6172.00,1.23
6171.00,1.23
6170.00,1.23
6169.00,1.23
6168.00,1.24
6167.00,1.24
6166.00,1.24
6165.00,1.24
6164.00,1.25
6163.00,1.25
6162.00,1.25
6161.00,1.25
6160.00,1.25
6159.00,1.26
6158.00,1.26
6157.00,1.26
6156.00,1.26
6155.00,1.26
6154.00,1.27
6153.00,1.27
6152.00,1.27
6151.00,1.27
6150.00,1.27
6149.00,1.27
6148.00,1.27
6147.00,1.28
6146.00,1.28
6145.00,1.28
6144.00,1.28
6143.00,1.28
6142.00,1.28
6141.00,1.28
6140.00,1.28
6139.00,1.29
6138.00,1.29
6137.00,1.29
6136.00,1.29
6135.00,1.29
6134.00,1.30
6133.00,1.30
6132.00,1.30
6131.00,1.30
6130.00,1.31
6129.00,1.31
6128.00,1.31
6127.00,1.31
6126.00,1.31
6125.00,1.32
6124.00,1.32
6123.00,1.32
6122.00,1.32
6121.00,1.32
6120.00,1.32
6119.00,1.32
6118.00,1.32
6117.00,1.33
6116.00,1.33
6115.00,1.33
6114.00,1.33
6113.00,1.33
6112.00,1.33
6111.00,1.33
6110.00,1.33
6109.00,1.33
6108.00,1.33
6107.00,1.34
6106.00,1.34
6105.00,1.34
6104.00,1.34
6103.00,1.34
6102.00,1.34
6101.00,1.35
6100.00,1.35
6099.00,1.35
6098.00,1.35
6097.00,1.36
6096.00,1.36
6095.00,1.36
6094.00,1.36
6093.00,1.37
6092.00,1.37
6091.00,1.37
6090.00,1.37
6089.00,1.37
6088.00,1.38
6087.00,1.38
6086.00,1.38
6085.00,1.38
6084.00,1.38
6083.00,1.38
6082.00,1.38
6081.00,1.39
6080.00,1.39
6079.00,1.39
6078.00,1.39
6077.00,1.39
6076.00,1.39
6075.00,1.39
6074.00,1.40
6073.00,1.40
6072.00,1.40
6071.00,1.40
6070.00,1.40
6069.00,1.40
6068.00,1.40
6067.00,1.41
6066.00,1.41
6065.00,1.41
6064.00,1.41
6063.00,1.41
6062.00,1.42
6061.00,1.42
6060.00,1.42
6059.00,1.42
6058.00,1.42
6057.00,1.42
6056.00,1.42
6055.00,1.42
6054.00,1.42
6053.00,1.43
6052.00,1.43
6051.00,1.43
6050.00,1.43
6049.00,1.43
6048.00,1.43
6047.00,1.43
6046.00,1.43
6045.00,1.43
6044.00,1.43
6043.00,1.43
6042.00,1.43
6041.00,1.43
6040.00,1.44
6039.00,1.44
6038.00,1.44
6037.00,1.44
6036.00,1.44
6035.00,1.44
6034.00,1.44
6033.00,1.44
6032.00,1.44
6031.00,1.44
6030.00,1.44
6029.00,1.44
6028.00,1.44
6027.00,1.44
6026.00,1.44
6025.00,1.44
6024.00,1.44
6023.00,1.44
6022.00,1.44
6021.00,1.44
6020.00,1.44
6019.00,1.44
6018.00,1.44
6017.00,1.44
6016.00,1.44
6015.00,1.44
6014.00,1.44
6013.00,1.44
6012.00,1.44
6011.00,1.44
6010.00,1.44
6009.00,1.44
6008.00,1.44
6007.00,1.44
6006.00,1.44
6005.00,1.44
6004.00,1.44
6003.00,1.44
6002.00,1.44
6001.00,1.44
6000.00,1.44
5999.00,1.44
5998.00,1.44
5997.00,1.44
5996.00,1.44
5995.00,1.44
5994.00,1.43
5993.00,1.43
5992.00,1.43
5991.00,1.43
5990.00,1.43
5989.00,1.42
5988.00,1.42
5987.00,1.42
5986.00,1.41
5985.00,1.41
5984.00,1.41
5983.00,1.40
5982.00,1.40
5981.00,1.39
5980.00,1.39
5979.00,1.39
5978.00,1.38
5977.00,1.38
5976.00,1.37
5975.00,1.37
5974.00,1.36
5973.00,1.35
5972.00,1.35
5971.00,1.34
5970.00,1.33
5969.00,1.33
5968.00,1.32
5967.00,1.31
5966.00,1.30
5965.00,1.30
5964.00,1.29
5963.00,1.28
5962.00,1.27
5961.00,1.26
5960.00,1.25
5959.00,1.24
5958.00,1.23
5957.00,1.22
5956.00,1.22
5955.00,1.21
5954.00,1.20
5953.00,1.19
5952.00,1.18
5951.00,1.17
5950.00,1.17
5949.00,1.16
5948.00,1.16
5947.00,1.15
5946.00,1.14
5945.00,1.14
5944.00,1.14
5943.00,1.13
5942.00,1.13
5941.00,1.13
5940.00,1.12
5939.00,1.12
5938.00,1.12
5937.00,1.12
5936.00,1.11
5935.00,1.11
5934.00,1.11
5933.00,1.11
5932.00,1.11
5931.00,1.11
5930.00,1.11
5929.00,1.11
5928.00,1.11
5927.00,1.10
5926.00,1.10
5925.00,1.10
5924.00,1.10
5923.00,1.10
5922.00,1.09
5921.00,1.09
5920.00,1.09
5919.00,1.09
5918.00,1.08
5917.00,1.08
5916.00,1.08
5915.00,1.07
5914.00,1.07
5913.00,1.07
5912.00,1.07
5911.00,1.06
5910.00,1.06
5909.00,1.06
5908.00,1.05
5907.00,1.05
5906.00,1.05
5905.00,1.05
5904.00,1.05
5903.00,1.05
5902.00,1.05
5901.00,1.04
5900.00,1.04
5899.00,1.04
5898.00,1.05
5897.00,1.05
5896.00,1.05
5895.00,1.05
5894.00,1.05
5893.00,1.05
5892.00,1.06
5891.00,1.06
5890.00,1.06
5889.00,1.06
5888.00,1.07
5887.00,1.07
5886.00,1.07
5885.00,1.07
5884.00,1.08
5883.00,1.08
5882.00,1.09
5881.00,1.09
5880.00,1.09
5879.00,1.10
5878.00,1.10
5877.00,1.10
5876.00,1.11
5875.00,1.11
5874.00,1.11
5873.00,1.12
5872.00,1.12
5871.00,1.12
5870.00,1.13
5869.00,1.13
5868.00,1.13
5867.00,1.13
5866.00,1.14
5865.00,1.14
5864.00,1.14
5863.00,1.14
5862.00,1.14
5861.00,1.14
5860.00,1.14
5859.00,1.15
5858.00,1.15
5857.00,1.15
5856.00,1.15
5855.00,1.15
5854.00,1.15
5853.00,1.15
5852.00,1.15
5851.00,1.15
5850.00,1.15
5849.00,1.16
5848.00,1.16
5847.00,1.16
5846.00,1.16
5845.00,1.16
5844.00,1.16
5843.00,1.16
5842.00,1.16
5841.00,1.16
5840.00,1.16
5839.00,1.16
5838.00,1.16
5837.00,1.16
5836.00,1.16
5835.00,1.16
5834.00,1.16
5833.00,1.16
5832.00,1.16
5831.00,1.16
5830.00,1.16
5829.00,1.16
5828.00,1.16
5827.00,1.15
5826.00,1.15
5825.00,1.15
5824.00,1.16
5823.00,1.16
5822.00,1.16
5821.00,1.16
5820.00,1.16
5819.00,1.16
5818.00,1.16
5817.00,1.16
5816.00,1.16
5815.00,1.16
5814.00,1.16
5813.00,1.16
5812.00,1.16
5811.00,1.16
5810.00,1.16
5809.00,1.16
5808.00,1.16
5807.00,1.16
5806.00,1.16
5805.00,1.16
5804.00,1.16
5803.00,1.16
5802.00,1.16
5801.00,1.16
5800.00,1.15
5799.00,1.15
5798.00,1.15
5797.00,1.15
5796.00,1.15
5795.00,1.15
5794.00,1.14
5793.00,1.14
5792.00,1.14
5791.00,1.14
5790.00,1.13
5789.00,1.13
5788.00,1.13
5787.00,1.13
5786.00,1.12
5785.00,1.12
5784.00,1.12
5783.00,1.12
5782.00,1.12
5781.00,1.11
5780.00,1.11
5779.00,1.11
5778.00,1.11
5777.00,1.11
5776.00,1.11
5775.00,1.11
5774.00,1.11
5773.00,1.11
5772.00,1.11
5771.00,1.11
5770.00,1.11
5769.00,1.11
5768.00,1.11
5767.00,1.11
5766.00,1.11
5765.00,1.11
5764.00,1.12
5763.00,1.12
5762.00,1.12
5761.00,1.12
5760.00,1.13
5759.00,1.13
5758.00,1.13
5757.00,1.14
5756.00,1.14
5755.00,1.14
5754.00,1.15
5753.00,1.15
5752.00,1.16
5751.00,1.16
5750.00,1.16
5749.00,1.17
5748.00,1.17
5747.00,1.18
5746.00,1.18
5745.00,1.19
5744.00,1.19
5743.00,1.20
5742.00,1.20
5741.00,1.20
5740.00,1.21
5739.00,1.21
5738.00,1.22
5737.00,1.22
5736.00,1.22
5735.00,1.22
5734.00,1.23
5733.00,1.23
5732.00,1.23
5731.00,1.23
5730.00,1.24
5729.00,1.24
5728.00,1.24
5727.00,1.24
5726.00,1.24
5725.00,1.24
5724.00,1.25
5723.00,1.25
5722.00,1.25
5721.00,1.25
5720.00,1.25
5719.00,1.25
5718.00,1.25
5717.00,1.25
5716.00,1.25
5715.00,1.25
5714.00,1.26
5713.00,1.26
5712.00,1.26
5711.00,1.26
5710.00,1.26
5709.00,1.26
5708.00,1.26
5707.00,1.26
5706.00,1.26
5705.00,1.26
5704.00,1.26
5703.00,1.25
5702.00,1.25
5701.00,1.25
5700.00,1.25
5699.00,1.25
5698.00,1.25
5697.00,1.25
5696.00,1.25
5695.00,1.25
5694.00,1.25
5693.00,1.24
5692.00,1.24
5691.00,1.24
5690.00,1.24
5689.00,1.24
5688.00,1.24
5687.00,1.23
5686.00,1.23
5685.00,1.23
5684.00,1.23
5683.00,1.23
5682.00,1.22
5681.00,1.22
5680.00,1.22
5679.00,1.22
5678.00,1.22
5677.00,1.22
5676.00,1.22
5675.00,1.22
5674.00,1.22
5673.00,1.22
5672.00,1.22
5671.00,1.22
5670.00,1.22
5669.00,1.22
5668.00,1.22
5667.00,1.22
5666.00,1.22
5665.00,1.22
5664.00,1.22
5663.00,1.22
5662.00,1.22
5661.00,1.23
5660.00,1.23
5659.00,1.23
5658.00,1.23
5657.00,1.23
5656.00,1.24
5655.00,1.24
5654.00,1.24
5653.00,1.24
5652.00,1.24
5651.00,1.25
5650.00,1.25
5649.00,1.25
5648.00,1.26
5647.00,1.26
5646.00,1.26
5645.00,1.26
5644.00,1.27
5643.00,1.27
5642.00,1.27
5641.00,1.28
5640.00,1.28
5639.00,1.28
5638.00,1.28
5637.00,1.29
5636.00,1.29
5635.00,1.29
5634.00,1.30
5633.00,1.30
5632.00,1.30
5631.00,1.30
5630.00,1.31
5629.00,1.31
5628.00,1.31
5627.00,1.31
5626.00,1.31
5625.00,1.32
5624.00,1.32
5623.00,1.32
5622.00,1.32
5621.00,1.32
5620.00,1.33
5619.00,1.33
5618.00,1.33
5617.00,1.33
5616.00,1.33
5615.00,1.33
5614.00,1.34
5613.00,1.34
5612.00,1.34
5611.00,1.34
5610.00,1.35
5609.00,1.35
5608.00,1.35
5607.00,1.35
5606.00,1.35
5605.00,1.36
5604.00,1.36
5603.00,1.36
5602.00,1.36
5601.00,1.36
5600.00,1.37
5599.00,1.37
5598.00,1.37
5597.00,1.37
5596.00,1.38
5595.00,1.38
5594.00,1.38
5593.00,1.38
5592.00,1.38
5591.00,1.39
5590.00,1.39
5589.00,1.39
5588.00,1.39
5587.00,1.39
5586.00,1.40
5585.00,1.40
5584.00,1.40
5583.00,1.40
5582.00,1.40
5581.00,1.41
5580.00,1.41
5579.00,1.41
5578.00,1.41
5577.00,1.42
5576.00,1.42
5575.00,1.42
5574.00,1.42
5573.00,1.42
5572.00,1.42
5571.00,1.43
5570.00,1.43
5569.00,1.43
5568.00,1.43
5567.00,1.43
5566.00,1.44
5565.00,1.44
5564.00,1.44
5563.00,1.44
5562.00,1.44
5561.00,1.45
5560.00,1.45
5559.00,1.45
5558.00,1.45
5557.00,1.45
5556.00,1.45
5555.00,1.45
5554.00,1.46
5553.00,1.46
5552.00,1.46
5551.00,1.46
5550.00,1.46
5549.00,1.46
5548.00,1.46
5547.00,1.47
5546.00,1.47
5545.00,1.47
5544.00,1.47
5543.00,1.47
5542.00,1.47
5541.00,1.47
5540.00,1.48
5539.00,1.48
5538.00,1.48
5537.00,1.48
5536.00,1.48
5535.00,1.48
5534.00,1.49
5533.00,1.49
5532.00,1.49
5531.00,1.49
5530.00,1.49
5529.00,1.49
5528.00,1.49
5527.00,1.49
5526.00,1.49
5525.00,1.49
5524.00,1.50
5523.00,1.50
5522.00,1.50
5521.00,1.50
5520.00,1.50
5519.00,1.50
5518.00,1.50
5517.00,1.50
5516.00,1.50
5515.00,1.50
5514.00,1.50
5513.00,1.50
5512.00,1.50
5511.00,1.50
5510.00,1.50
5509.00,1.50
5508.00,1.50
5507.00,1.50
5506.00,1.50
5505.00,1.50
5504.00,1.50
5503.00,1.50
5502.00,1.51
5501.00,1.51
5500.00,1.51
5499.00,1.51
5498.00,1.51
5497.00,1.51
5496.00,1.51
5495.00,1.51
5494.00,1.51
5493.00,1.52
5492.00,1.52
5491.00,1.52
5490.00,1.52
5489.00,1.52
5488.00,1.52
5487.00,1.53
5486.00,1.53
5485.00,1.53
5484.00,1.53
5483.00,1.53
5482.00,1.53
5481.00,1.54
5480.00,1.54
5479.00,1.54
5478.00,1.54
5477.00,1.54
5476.00,1.54
5475.00,1.54
5474.00,1.54
5473.00,1.55
5472.00,1.55
5471.00,1.55
5470.00,1.55
5469.00,1.55
5468.00,1.55
5467.00,1.55
5466.00,1.55
5465.00,1.56
5464.00,1.56
5463.00,1.56
5462.00,1.56
5461.00,1.56
5460.00,1.56
5459.00,1.56
5458.00,1.57
5457.00,1.57
5456.00,1.57
5455.00,1.57
5454.00,1.57
5453.00,1.57
5452.00,1.57
5451.00,1.57
5450.00,1.57
5449.00,1.57
5448.00,1.57
5447.00,1.57
5446.00,1.57
5445.00,1.57
5444.00,1.57
5443.00,1.57
5442.00,1.58
5441.00,1.58
5440.00,1.58
5439.00,1.58
5438.00,1.58
5437.00,1.58
5436.00,1.58
5435.00,1.58
5434.00,1.58
5433.00,1.58
5432.00,1.59
5431.00,1.59
5430.00,1.59
5429.00,1.59
5428.00,1.59
5427.00,1.59
5426.00,1.59
5425.00,1.60
5424.00,1.60
5423.00,1.60
5422.00,1.60
5421.00,1.60
5420.00,1.60
5419.00,1.60
5418.00,1.60
5417.00,1.60
5416.00,1.60
5415.00,1.60
5414.00,1.60
5413.00,1.60
5412.00,1.60
5411.00,1.60
5410.00,1.60
5409.00,1.60
5408.00,1.60
5407.00,1.60
5406.00,1.60
5405.00,1.60
5404.00,1.60
5403.00,1.60
5402.00,1.60
5401.00,1.60
5400.00,1.60
5399.00,1.60
5398.00,1.60
5397.00,1.60
5396.00,1.60
5395.00,1.60
5394.00,1.60
5393.00,1.59
5392.00,1.59
5391.00,1.59
5390.00,1.59
5389.00,1.59
5388.00,1.59
5387.00,1.58
5386.00,1.58
5385.00,1.58
5384.00,1.58
5383.00,1.58
5382.00,1.57
5381.00,1.57
5380.00,1.57
5379.00,1.57
5378.00,1.56
5377.00,1.56
5376.00,1.56
5375.00,1.55
5374.00,1.55
5373.00,1.54
5372.00,1.54
5371.00,1.54
5370.00,1.53
5369.00,1.53
5368.00,1.52
5367.00,1.52
5366.00,1.51
5365.00,1.51
5364.00,1.50
5363.00,1.49
5362.00,1.49
5361.00,1.48
5360.00,1.47
5359.00,1.46
5358.00,1.45
5357.00,1.45
5356.00,1.44
5355.00,1.43
5354.00,1.42
5353.00,1.41
5352.00,1.40
5351.00,1.39
5350.00,1.37
5349.00,1.36
5348.00,1.35
5347.00,1.34
5346.00,1.33
5345.00,1.32
5344.00,1.31
5343.00,1.30
5342.00,1.29
5341.00,1.28
5340.00,1.27
5339.00,1.26
5338.00,1.25
5337.00,1.23
5336.00,1.22
5335.00,1.21
5334.00,1.20
5333.00,1.19
5332.00,1.18
5331.00,1.17
5330.00,1.16
5329.00,1.15
5328.00,1.14
5327.00,1.13
5326.00,1.12
5325.00,1.10
5324.00,1.09
5323.00,1.08
5322.00,1.07
5321.00,1.06
5320.00,1.05
5319.00,1.04
5318.00,1.02
5317.00,1.01
5316.00,1.00
5315.00,0.99
5314.00,0.98
5313.00,0.97
5312.00,0.96
5311.00,0.95
5310.00,0.94
5309.00,0.93
5308.00,0.92
5307.00,0.91
5306.00,0.90
5305.00,0.89
5304.00,0.88
5303.00,0.88
5302.00,0.87
5301.00,0.86
5300.00,0.86
5299.00,0.85
5298.00,0.84
5297.00,0.84
5296.00,0.83
5295.00,0.83
5294.00,0.82
5293.00,0.82
5292.00,0.81
5291.00,0.81
5290.00,0.81
5289.00,0.80
5288.00,0.80
5287.00,0.80
5286.00,0.79
5285.00,0.79
5284.00,0.79
5283.00,0.79
5282.00,0.79
5281.00,0.78
5280.00,0.78
5279.00,0.78
5278.00,0.78
5277.00,0.78
5276.00,0.78
5275.00,0.78
5274.00,0.77
5273.00,0.77
5272.00,0.77
5271.00,0.77
5270.00,0.77
5269.00,0.77
5268.00,0.77
5267.00,0.76
5266.00,0.76
5265.00,0.76
5264.00,0.76
5263.00,0.76
5262.00,0.76
5261.00,0.75
5260.00,0.75
5259.00,0.75
5258.00,0.75
5257.00,0.75
5256.00,0.75
5255.00,0.75
5254.00,0.75
5253.00,0.75
5252.00,0.75
5251.00,0.75
5250.00,0.75
5249.00,0.75
5248.00,0.75
5247.00,0.75
5246.00,0.75
5245.00,0.75
5244.00,0.75
5243.00,0.75
5242.00,0.75
5241.00,0.75
5240.00,0.75
5239.00,0.75
5238.00,0.75
5237.00,0.75
5236.00,0.75
5235.00,0.75
5234.00,0.75
5233.00,0.75
5232.00,0.75
5231.00,0.75
5230.00,0.75
5229.00,0.76
5228.00,0.76
5227.00,0.76
5226.00,0.76
5225.00,0.76
5224.00,0.76
5223.00,0.76
5222.00,0.76
5221.00,0.76
5220.00,0.76
5219.00,0.76
5218.00,0.76
5217.00,0.76
5216.00,0.76
5215.00,0.76
5214.00,0.76
5213.00,0.76
5212.00,0.76
5211.00,0.76
5210.00,0.76
5209.00,0.76
5208.00,0.76
5207.00,0.76
5206.00,0.76
5205.00,0.76
5204.00,0.76
5203.00,0.76
5202.00,0.76
5201.00,0.76
5200.00,0.76
5199.00,0.76
5198.00,0.76
5197.00,0.76
5196.00,0.76
5195.00,0.77
5194.00,0.77
5193.00,0.77
5192.00,0.77
5191.00,0.77
5190.00,0.77
5189.00,0.77
5188.00,0.77
5187.00,0.77
5186.00,0.77
5185.00,0.77
5184.00,0.77
5183.00,0.77
5182.00,0.77
5181.00,0.77
5180.00,0.77
5179.00,0.77
5178.00,0.77
5177.00,0.77
5176.00,0.77
5175.00,0.77
5174.00,0.77
5173.00,0.77
5172.00,0.77
5171.00,0.77
5170.00,0.77
5169.00,0.77
5168.00,0.77
5167.00,0.77
5166.00,0.78
5165.00,0.78
5164.00,0.78
5163.00,0.78
5162.00,0.78
5161.00,0.78
5160.00,0.78
5159.00,0.78
5158.00,0.78
5157.00,0.78
5156.00,0.78
5155.00,0.79
5154.00,0.79
5153.00,0.79
5152.00,0.79
5151.00,0.79
5150.00,0.79
5149.00,0.79
5148.00,0.79
5147.00,0.79
5146.00,0.79
5145.00,0.79
5144.00,0.79
5143.00,0.79
5142.00,0.79
5141.00,0.79
5140.00,0.80
5139.00,0.80
5138.00,0.80
5137.00,0.80
5136.00,0.80
5135.00,0.80
5134.00,0.80
5133.00,0.80
5132.00,0.80
5131.00,0.80
5130.00,0.80
5129.00,0.80
5128.00,0.81
5127.00,0.81
5126.00,0.81
5125.00,0.81
5124.00,0.81
5123.00,0.81
5122.00,0.81
5121.00,0.81
5120.00,0.81
5119.00,0.81
5118.00,0.81
5117.00,0.81
5116.00,0.81
5115.00,0.81
5114.00,0.81
5113.00,0.81
5112.00,0.82
5111.00,0.82
5110.00,0.82
5109.00,0.82
5108.00,0.82
5107.00,0.82
5106.00,0.82
5105.00,0.82
5104.00,0.82
5103.00,0.82
5102.00,0.82
5101.00,0.82
5100.00,0.82
5099.00,0.82
5098.00,0.82
5097.00,0.82
5096.00,0.82
5095.00,0.82
5094.00,0.82
5093.00,0.82
5092.00,0.82
5091.00,0.82
5090.00,0.82
5089.00,0.82
5088.00,0.83
5087.00,0.83
5086.00,0.83
5085.00,0.83
5084.00,0.83
5083.00,0.83
5082.00,0.83
5081.00,0.83
5080.00,0.83
5079.00,0.83
5078.00,0.83
5077.00,0.84
5076.00,0.84
5075.00,0.84
5074.00,0.84
5073.00,0.84
5072.00,0.84
5071.00,0.84
5070.00,0.84
5069.00,0.84
5068.00,0.85
5067.00,0.85
5066.00,0.85
5065.00,0.85
5064.00,0.85
5063.00,0.85
5062.00,0.85
5061.00,0.85
5060.00,0.85
5059.00,0.86
5058.00,0.86
5057.00,0.86
5056.00,0.86
5055.00,0.86
5054.00,0.86
5053.00,0.86
5052.00,0.86
5051.00,0.86
5050.00,0.86
5049.00,0.86
5048.00,0.86
5047.00,0.86
5046.00,0.86
5045.00,0.86
5044.00,0.86
5043.00,0.86
5042.00,0.87
5041.00,0.87
5040.00,0.87
5039.00,0.87
5038.00,0.87
5037.00,0.87
5036.00,0.87
5035.00,0.87
5034.00,0.87
5033.00,0.87
5032.00,0.87
5031.00,0.88
5030.00,0.88
5029.00,0.88
5028.00,0.88
5027.00,0.88
5026.00,0.88
5025.00,0.88
5024.00,0.88
5023.00,0.88
5022.00,0.88
5021.00,0.89
5020.00,0.89
5019.00,0.89
5018.00,0.89
5017.00,0.89
5016.00,0.89
5015.00,0.89
5014.00,0.89
5013.00,0.89
5012.00,0.89
5011.00,0.90
5010.00,0.90
5009.00,0.90
5008.00,0.90
5007.00,0.90
5006.00,0.90
5005.00,0.90
5004.00,0.91
5003.00,0.91
5002.00,0.91
5001.00,0.91
5000.00,0.91
4999.00,0.91
4998.00,0.91
4997.00,0.91
4996.00,0.92
4995.00,0.92
4994.00,0.92
4993.00,0.92
4992.00,0.92
4991.00,0.92
4990.00,0.92
4989.00,0.92
4988.00,0.92
4987.00,0.92
4986.00,0.92
4985.00,0.93
4984.00,0.93
4983.00,0.93
4982.00,0.93
4981.00,0.93
4980.00,0.93
4979.00,0.93
4978.00,0.93
4977.00,0.94
4976.00,0.94
4975.00,0.94
4974.00,0.94
4973.00,0.94
4972.00,0.94
4971.00,0.94
4970.00,0.94
4969.00,0.94
4968.00,0.94
4967.00,0.94
4966.00,0.94
4965.00,0.94
4964.00,0.94
4963.00,0.94
4962.00,0.94
4961.00,0.95
4960.00,0.95
4959.00,0.95
4958.00,0.95
4957.00,0.95
4956.00,0.95
4955.00,0.95
4954.00,0.95
4953.00,0.95
4952.00,0.95
4951.00,0.95
4950.00,0.96
4949.00,0.96
4948.00,0.96
4947.00,0.96
4946.00,0.96
4945.00,0.96
4944.00,0.96
4943.00,0.96
4942.00,0.96
4941.00,0.96
4940.00,0.96
4939.00,0.96
4938.00,0.96
4937.00,0.96
4936.00,0.96
4935.00,0.96
4934.00,0.97
4933.00,0.97
4932.00,0.97
4931.00,0.97
4930.00,0.97
4929.00,0.97
4928.00,0.97
4927.00,0.97
4926.00,0.97
4925.00,0.97
4924.00,0.97
4923.00,0.97
4922.00,0.97
4921.00,0.97
4920.00,0.98
4919.00,0.98
4918.00,0.98
4917.00,0.98
4916.00,0.98
4915.00,0.98
4914.00,0.98
4913.00,0.99
4912.00,0.99
4911.00,0.99
4910.00,0.99
4909.00,0.99
4908.00,0.99
4907.00,0.99
4906.00,0.99
4905.00,1.00
4904.00,1.00
4903.00,1.00
4902.00,1.00
4901.00,1.00
4900.00,1.00
4899.00,1.00
4898.00,1.00
4897.00,1.00
4896.00,1.00
4895.00,1.00
4894.00,1.00
4893.00,1.00
4892.00,1.00
4891.00,1.00
4890.00,1.01
4889.00,1.01
4888.00,1.01
4887.00,1.01
4886.00,1.01
4885.00,1.01
4884.00,1.01
4883.00,1.01
4882.00,1.01
4881.00,1.01
4880.00,1.01
4879.00,1.01
4878.00,1.01
4877.00,1.01
4876.00,1.01
4875.00,1.01
4874.00,1.01
4873.00,1.01
4872.00,1.01
4871.00,1.01
4870.00,1.01
4869.00,1.02
4868.00,1.02
4867.00,1.02
4866.00,1.02
4865.00,1.02
4864.00,1.02
4863.00,1.02
4862.00,1.02
4861.00,1.02
4860.00,1.03
4859.00,1.03
4858.00,1.03
4857.00,1.03
4856.00,1.03
4855.00,1.03
4854.00,1.03
4853.00,1.03
4852.00,1.03
4851.00,1.03
4850.00,1.03
4849.00,1.03
4848.00,1.03
4847.00,1.03
4846.00,1.04
4845.00,1.04
4844.00,1.04
4843.00,1.04
4842.00,1.04
4841.00,1.04
4840.00,1.04
4839.00,1.04
4838.00,1.04
4837.00,1.04
4836.00,1.04
4835.00,1.04
4834.00,1.04
4833.00,1.04
4832.00,1.03
4831.00,1.03
4830.00,1.03
4829.00,1.03
4828.00,1.03
4827.00,1.03
4826.00,1.03
4825.00,1.04
4824.00,1.04
4823.00,1.04
4822.00,1.04
4821.00,1.04
4820.00,1.04
4819.00,1.04
4818.00,1.05
4817.00,1.05
4816.00,1.05
4815.00,1.05
4814.00,1.05
4813.00,1.06
4812.00,1.06
4811.00,1.06
4810.00,1.06
4809.00,1.06
4808.00,1.07
4807.00,1.07
4806.00,1.07
4805.00,1.07
4804.00,1.07
4803.00,1.07
4802.00,1.07
4801.00,1.07
4800.00,1.07
4799.00,1.07
4798.00,1.08
4797.00,1.08
4796.00,1.08
4795.00,1.08
4794.00,1.08
4793.00,1.08
4792.00,1.08
4791.00,1.08
4790.00,1.08
4789.00,1.08
4788.00,1.08
4787.00,1.08
4786.00,1.08
4785.00,1.08
4784.00,1.08
4783.00,1.08
4782.00,1.08
4781.00,1.08
4780.00,1.09
4779.00,1.09
4778.00,1.09
4777.00,1.09
4776.00,1.09
4775.00,1.09
4774.00,1.09
4773.00,1.09
4772.00,1.09
4771.00,1.10
4770.00,1.10
4769.00,1.10
4768.00,1.10
4767.00,1.10
4766.00,1.10
4765.00,1.10
4764.00,1.11
4763.00,1.11
4762.00,1.11
4761.00,1.11
4760.00,1.11
4759.00,1.11
4758.00,1.11
4757.00,1.11
4756.00,1.11
4755.00,1.12
4754.00,1.12
4753.00,1.12
4752.00,1.12
4751.00,1.12
4750.00,1.12
4749.00,1.12
4748.00,1.12
4747.00,1.13
4746.00,1.13
4745.00,1.13
4744.00,1.13
4743.00,1.13
4742.00,1.13
4741.00,1.14
4740.00,1.14
4739.00,1.14
4738.00,1.14
4737.00,1.15
4736.00,1.15
4735.00,1.15
4734.00,1.15
4733.00,1.16
4732.00,1.16
4731.00,1.16
4730.00,1.16
4729.00,1.17
4728.00,1.17
4727.00,1.17
4726.00,1.17
4725.00,1.18
4724.00,1.18
4723.00,1.18
4722.00,1.18
4721.00,1.19
4720.00,1.19
4719.00,1.19
4718.00,1.19
4717.00,1.20
4716.00,1.20
4715.00,1.20
4714.00,1.20
4713.00,1.21
4712.00,1.21
4711.00,1.21
4710.00,1.21
4709.00,1.21
4708.00,1.21
4707.00,1.22
4706.00,1.22
4705.00,1.22
4704.00,1.22
4703.00,1.22
4702.00,1.22
4701.00,1.22
4700.00,1.22
4699.00,1.23
4698.00,1.23
4697.00,1.23
4696.00,1.23
4695.00,1.23
4694.00,1.23
4693.00,1.24
4692.00,1.24
4691.00,1.24
4690.00,1.24
4689.00,1.24
4688.00,1.25
4687.00,1.25
4686.00,1.25
4685.00,1.25
4684.00,1.25
4683.00,1.25
4682.00,1.26
4681.00,1.26
4680.00,1.26
4679.00,1.26
4678.00,1.26
4677.00,1.26
4676.00,1.27
4675.00,1.27
4674.00,1.27
4673.00,1.27
4672.00,1.27
4671.00,1.28
4670.00,1.28
4669.00,1.28
4668.00,1.28
4667.00,1.28
4666.00,1.29
4665.00,1.29
4664.00,1.29
4663.00,1.29
4662.00,1.29
4661.00,1.30
4660.00,1.30
4659.00,1.30
4658.00,1.30
4657.00,1.30
4656.00,1.30
4655.00,1.30
4654.00,1.30
4653.00,1.31
4652.00,1.31
4651.00,1.31
4650.00,1.31
4649.00,1.31
4648.00,1.31
4647.00,1.31
4646.00,1.32
4645.00,1.32
4644.00,1.32
4643.00,1.32
4642.00,1.32
4641.00,1.33
4640.00,1.33
4639.00,1.33
4638.00,1.33
4637.00,1.33
4636.00,1.33
4635.00,1.34
4634.00,1.34
4633.00,1.34
4632.00,1.34
4631.00,1.34
4630.00,1.34
4629.00,1.34
4628.00,1.34
4627.00,1.34
4626.00,1.34
4625.00,1.34
4624.00,1.34
4623.00,1.34
4622.00,1.34
4621.00,1.34
4620.00,1.34
4619.00,1.34
4618.00,1.34
4617.00,1.34
4616.00,1.34
4615.00,1.34
4614.00,1.34
4613.00,1.34
4612.00,1.34
4611.00,1.34
4610.00,1.34
4609.00,1.34
4608.00,1.34
4607.00,1.34
4606.00,1.35
4605.00,1.35
4604.00,1.35
4603.00,1.35
4602.00,1.35
4601.00,1.35
4600.00,1.35
4599.00,1.35
4598.00,1.36
4597.00,1.36
4596.00,1.36
4595.00,1.36
4594.00,1.36
4593.00,1.36
4592.00,1.37
4591.00,1.37
4590.00,1.37
4589.00,1.37
4588.00,1.37
4587.00,1.38
4586.00,1.38
4585.00,1.38
4584.00,1.38
4583.00,1.38
4582.00,1.39
4581.00,1.39
4580.00,1.39
4579.00,1.39
4578.00,1.39
4577.00,1.39
4576.00,1.39
4575.00,1.40
4574.00,1.40
4573.00,1.40
4572.00,1.40
4571.00,1.40
4570.00,1.40
4569.00,1.40
4568.00,1.40
4567.00,1.40
4566.00,1.40
4565.00,1.41
4564.00,1.41
4563.00,1.41
4562.00,1.41
4561.00,1.41
4560.00,1.41
4559.00,1.41
4558.00,1.41
4557.00,1.41
4556.00,1.42
4555.00,1.42
4554.00,1.42
4553.00,1.42
4552.00,1.42
4551.00,1.43
4550.00,1.43
4549.00,1.43
4548.00,1.43
4547.00,1.43
4546.00,1.44
4545.00,1.44
4544.00,1.44
4543.00,1.44
4542.00,1.44
4541.00,1.44
4540.00,1.44
4539.00,1.44
4538.00,1.44
4537.00,1.44
4536.00,1.44
4535.00,1.44
4534.00,1.44
4533.00,1.44
4532.00,1.44
4531.00,1.44
4530.00,1.45
4529.00,1.45
4528.00,1.45
4527.00,1.45
4526.00,1.45
4525.00,1.45
4524.00,1.45
4523.00,1.45
4522.00,1.45
4521.00,1.45
4520.00,1.45
4519.00,1.46
4518.00,1.46
4517.00,1.46
4516.00,1.46
4515.00,1.46
4514.00,1.46
4513.00,1.46
4512.00,1.46
4511.00,1.46
4510.00,1.46
4509.00,1.46
4508.00,1.46
4507.00,1.46
4506.00,1.46
4505.00,1.46
4504.00,1.46
4503.00,1.46
4502.00,1.46
4501.00,1.46
4500.00,1.45
4499.00,1.45
4498.00,1.45
4497.00,1.45
4496.00,1.45
4495.00,1.45
4494.00,1.44
4493.00,1.44
4492.00,1.44
4491.00,1.44
4490.00,1.44
4489.00,1.43
4488.00,1.43
4487.00,1.43
4486.00,1.43
4485.00,1.43
4484.00,1.43
4483.00,1.43
4482.00,1.43
4481.00,1.42
4480.00,1.42
4479.00,1.42
4478.00,1.42
4477.00,1.42
4476.00,1.42
4475.00,1.41
4474.00,1.41
4473.00,1.41
4472.00,1.41
4471.00,1.40
4470.00,1.40
4469.00,1.40
4468.00,1.40
4467.00,1.39
4466.00,1.39
4465.00,1.39
4464.00,1.39
4463.00,1.38
4462.00,1.38
4461.00,1.38
4460.00,1.37
4459.00,1.37
4458.00,1.37
4457.00,1.36
4456.00,1.36
4455.00,1.36
4454.00,1.35
4453.00,1.35
4452.00,1.34
4451.00,1.34
4450.00,1.34
4449.00,1.33
4448.00,1.33
4447.00,1.32
4446.00,1.32
4445.00,1.32
4444.00,1.31
4443.00,1.31
4442.00,1.31
4441.00,1.30
4440.00,1.30
4439.00,1.30
4438.00,1.29
4437.00,1.29
4436.00,1.29
4435.00,1.28
4434.00,1.28
4433.00,1.28
4432.00,1.28
4431.00,1.28
4430.00,1.27
4429.00,1.27
4428.00,1.27
4427.00,1.27
4426.00,1.27
4425.00,1.27
4424.00,1.27
4423.00,1.27
4422.00,1.27
4421.00,1.27
4420.00,1.27
4419.00,1.27
4418.00,1.27
4417.00,1.27
4416.00,1.27
4415.00,1.27
4414.00,1.27
4413.00,1.27
4412.00,1.27
4411.00,1.27
4410.00,1.27
4409.00,1.27
4408.00,1.27
4407.00,1.26
4406.00,1.26
4405.00,1.26
4404.00,1.26
4403.00,1.26
4402.00,1.26
4401.00,1.26
4400.00,1.27
4399.00,1.27
4398.00,1.27
4397.00,1.27
4396.00,1.27
4395.00,1.27
4394.00,1.27
4393.00,1.27
4392.00,1.27
4391.00,1.27
4390.00,1.27
4389.00,1.27
4388.00,1.27
4387.00,1.27
4386.00,1.28
4385.00,1.28
4384.00,1.28
4383.00,1.28
4382.00,1.28
4381.00,1.28
4380.00,1.28
4379.00,1.28
4378.00,1.28
4377.00,1.29
4376.00,1.29
4375.00,1.29
4374.00,1.29
4373.00,1.29
4372.00,1.29
4371.00,1.29
4370.00,1.29
4369.00,1.29
4368.00,1.29
4367.00,1.29
4366.00,1.29
4365.00,1.29
4364.00,1.29
4363.00,1.29
4362.00,1.29
4361.00,1.29
4360.00,1.29
4359.00,1.29
4358.00,1.30
4357.00,1.30
4356.00,1.30
4355.00,1.30
4354.00,1.30
4353.00,1.30
4352.00,1.30
4351.00,1.30
4350.00,1.30
4349.00,1.30
4348.00,1.30
4347.00,1.30
4346.00,1.30
4345.00,1.30
4344.00,1.30
4343.00,1.30
4342.00,1.30
4341.00,1.30
4340.00,1.30
4339.00,1.30
4338.00,1.30
4337.00,1.30
4336.00,1.30
4335.00,1.30
4334.00,1.30
4333.00,1.30
4332.00,1.31
4331.00,1.31
4330.00,1.31
4329.00,1.31
4328.00,1.31
4327.00,1.31
4326.00,1.32
4325.00,1.32
4324.00,1.32
4323.00,1.32
4322.00,1.33
4321.00,1.33
4320.00,1.33
4319.00,1.33
4318.00,1.34
4317.00,1.34
4316.00,1.34
4315.00,1.34
4314.00,1.34
4313.00,1.35
4312.00,1.35
4311.00,1.35
4310.00,1.35
4309.00,1.35
4308.00,1.35
4307.00,1.36
4306.00,1.36
4305.00,1.36
4304.00,1.36
4303.00,1.36
4302.00,1.36
4301.00,1.36
4300.00,1.36
4299.00,1.37
4298.00,1.37
4297.00,1.37
4296.00,1.37
4295.00,1.37
4294.00,1.38
4293.00,1.38
4292.00,1.38
4291.00,1.38
4290.00,1.38
4289.00,1.38
4288.00,1.39
4287.00,1.39
4286.00,1.39
4285.00,1.39
4284.00,1.39
4283.00,1.39
4282.00,1.39
4281.00,1.39
4280.00,1.39
4279.00,1.39
4278.00,1.39
4277.00,1.40
4276.00,1.40
4275.00,1.40
4274.00,1.40
4273.00,1.40
4272.00,1.40
4271.00,1.40
4270.00,1.40
4269.00,1.40
4268.00,1.40
4267.00,1.40
4266.00,1.40
4265.00,1.40
4264.00,1.40
4263.00,1.40
4262.00,1.40
4261.00,1.40
4260.00,1.40
4259.00,1.40
4258.00,1.40
4257.00,1.40
4256.00,1.40
4255.00,1.40
4254.00,1.40
4253.00,1.40
4252.00,1.40
4251.00,1.40
4250.00,1.40
4249.00,1.41
4248.00,1.41
4247.00,1.41
4246.00,1.41
4245.00,1.41
4244.00,1.41
4243.00,1.41
4242.00,1.41
4241.00,1.42
4240.00,1.42
4239.00,1.42
4238.00,1.42
4237.00,1.42
4236.00,1.42
4235.00,1.43
4234.00,1.43
4233.00,1.43
4232.00,1.43
4231.00,1.43
4230.00,1.43
4229.00,1.43
4228.00,1.43
4227.00,1.43
4226.00,1.43
4225.00,1.43
4224.00,1.44
4223.00,1.44
4222.00,1.44
4221.00,1.44
4220.00,1.44
4219.00,1.44
4218.00,1.44
4217.00,1.44
4216.00,1.45
4215.00,1.45
4214.00,1.45
4213.00,1.45
4212.00,1.45
4211.00,1.46
4210.00,1.46
4209.00,1.46
4208.00,1.46
4207.00,1.46
4206.00,1.46
4205.00,1.46
4204.00,1.47
4203.00,1.47
4202.00,1.47
4201.00,1.47
4200.00,1.47
4199.00,1.47
4198.00,1.47
4197.00,1.47
4196.00,1.47
4195.00,1.47
4194.00,1.47
4193.00,1.47
4192.00,1.47
4191.00,1.47
4190.00,1.47
4189.00,1.47
4188.00,1.47
4187.00,1.47
4186.00,1.47
4185.00,1.47
4184.00,1.47
4183.00,1.47
4182.00,1.47
4181.00,1.47
4180.00,1.47
4179.00,1.47
4178.00,1.48
4177.00,1.48
4176.00,1.48
4175.00,1.48
4174.00,1.48
4173.00,1.48
4172.00,1.48
4171.00,1.48
4170.00,1.48
4169.00,1.48
4168.00,1.48
4167.00,1.48
4166.00,1.48
4165.00,1.49
4164.00,1.49
4163.00,1.49
4162.00,1.49
4161.00,1.49
4160.00,1.49
4159.00,1.49
4158.00,1.49
4157.00,1.49
4156.00,1.49
4155.00,1.49
4154.00,1.49
4153.00,1.49
4152.00,1.49
4151.00,1.49
4150.00,1.49
4149.00,1.49
4148.00,1.49
4147.00,1.50
4146.00,1.50
4145.00,1.50
4144.00,1.50
4143.00,1.50
4142.00,1.50
4141.00,1.51
4140.00,1.51
4139.00,1.51
4138.00,1.51
4137.00,1.51
4136.00,1.51
4135.00,1.51
4134.00,1.51
4133.00,1.51
4132.00,1.51
4131.00,1.51
4130.00,1.51
4129.00,1.51
4128.00,1.51
4127.00,1.51
4126.00,1.50
4125.00,1.50
4124.00,1.50
4123.00,1.50
4122.00,1.50
4121.00,1.50
4120.00,1.50
4119.00,1.50
4118.00,1.50
4117.00,1.50
4116.00,1.50
4115.00,1.50
4114.00,1.50
4113.00,1.50
4112.00,1.50
4111.00,1.51
4110.00,1.51
4109.00,1.51
4108.00,1.51
4107.00,1.51
4106.00,1.51
4105.00,1.51
4104.00,1.51
4103.00,1.51
4102.00,1.51
4101.00,1.51
4100.00,1.51
4099.00,1.51
4098.00,1.51
4097.00,1.51
4096.00,1.51
4095.00,1.51
4094.00,1.51
4093.00,1.51
4092.00,1.51
4091.00,1.51
4090.00,1.51
4089.00,1.51
4088.00,1.52
4087.00,1.52
4086.00,1.52
4085.00,1.52
4084.00,1.52
4083.00,1.52
4082.00,1.52
4081.00,1.52
4080.00,1.53
4079.00,1.53
4078.00,1.53
4077.00,1.53
4076.00,1.53
4075.00,1.53
4074.00,1.54
4073.00,1.54
4072.00,1.54
4071.00,1.54
4070.00,1.54
4069.00,1.54
4068.00,1.54
4067.00,1.55
4066.00,1.55
4065.00,1.55
4064.00,1.55
4063.00,1.55
4062.00,1.55
4061.00,1.55
4060.00,1.55
4059.00,1.55
4058.00,1.55
4057.00,1.55
4056.00,1.55
4055.00,1.55
4054.00,1.55
4053.00,1.55
4052.00,1.55
4051.00,1.55
4050.00,1.55
4049.00,1.55
4048.00,1.55
4047.00,1.55
4046.00,1.55
4045.00,1.55
4044.00,1.55
4043.00,1.55
4042.00,1.55
4041.00,1.55
4040.00,1.55
4039.00,1.56
4038.00,1.56
4037.00,1.56
4036.00,1.56
4035.00,1.56
4034.00,1.57
4033.00,1.57
4032.00,1.57
4031.00,1.57
4030.00,1.57
4029.00,1.57
4028.00,1.57
4027.00,1.57
4026.00,1.57
4025.00,1.57
4024.00,1.57
4023.00,1.57
4022.00,1.56
4021.00,1.56
4020.00,1.56
4019.00,1.56
4018.00,1.56
4017.00,1.56
4016.00,1.56
4015.00,1.56
4014.00,1.56
4013.00,1.56
4012.00,1.56
4011.00,1.57
4010.00,1.57
4009.00,1.57
4008.00,1.57
4007.00,1.58
4006.00,1.58
4005.00,1.59
4004.00,1.59
4003.00,1.59
4002.00,1.60
4001.00,1.60
4000.00,1.61
