创建为新数据集,样品 374 用户 Administrator 日期 星期四, 三月 08 2018
cm-1,%T
10000.00,1.25
9999.00,1.25
9998.00,1.25
9997.00,1.25
9996.00,1.25
9995.00,1.25
9994.00,1.25
9993.00,1.25
9992.00,1.25
9991.00,1.25
9990.00,1.25
9989.00,1.24
9988.00,1.24
9987.00,1.24
9986.00,1.24
9985.00,1.24
9984.00,1.24
9983.00,1.24
9982.00,1.24
9981.00,1.24
9980.00,1.24
9979.00,1.24
9978.00,1.25
9977.00,1.25
9976.00,1.25
9975.00,1.25
9974.00,1.25
9973.00,1.25
9972.00,1.25
9971.00,1.25
9970.00,1.25
9969.00,1.25
9968.00,1.25
9967.00,1.24
9966.00,1.24
9965.00,1.24
9964.00,1.23
9963.00,1.23
9962.00,1.23
9961.00,1.22
9960.00,1.22
9959.00,1.22
9958.00,1.21
9957.00,1.21
9956.00,1.21
9955.00,1.21
9954.00,1.21
9953.00,1.21
9952.00,1.21
9951.00,1.21
9950.00,1.21
9949.00,1.21
9948.00,1.22
9947.00,1.22
9946.00,1.22
9945.00,1.23
9944.00,1.23
9943.00,1.23
9942.00,1.23
9941.00,1.23
9940.00,1.24
9939.00,1.24
9938.00,1.24
9937.00,1.24
9936.00,1.24
9935.00,1.23
9934.00,1.23
9933.00,1.23
9932.00,1.23
9931.00,1.23
9930.00,1.22
9929.00,1.22
9928.00,1.22
9927.00,1.21
9926.00,1.21
9925.00,1.21
9924.00,1.21
9923.00,1.20
9922.00,1.20
9921.00,1.20
9920.00,1.20
9919.00,1.20
9918.00,1.19
9917.00,1.19
9916.00,1.19
9915.00,1.19
9914.00,1.19
9913.00,1.19
9912.00,1.19
9911.00,1.19
9910.00,1.19
9909.00,1.19
9908.00,1.20
9907.00,1.20
9906.00,1.20
9905.00,1.20
9904.00,1.21
9903.00,1.21
9902.00,1.21
9901.00,1.22
9900.00,1.22
9899.00,1.22
9898.00,1.23
9897.00,1.23
9896.00,1.23
9895.00,1.23
9894.00,1.23
9893.00,1.23
9892.00,1.24
9891.00,1.24
9890.00,1.24
9889.00,1.24
9888.00,1.24
9887.00,1.24
9886.00,1.23
9885.00,1.23
9884.00,1.23
9883.00,1.23
9882.00,1.23
9881.00,1.23
9880.00,1.23
9879.00,1.23
9878.00,1.23
9877.00,1.23
9876.00,1.23
9875.00,1.23
9874.00,1.23
9873.00,1.23
9872.00,1.23
9871.00,1.23
9870.00,1.23
9869.00,1.23
9868.00,1.23
9867.00,1.23
9866.00,1.23
9865.00,1.23
9864.00,1.23
9863.00,1.23
9862.00,1.23
9861.00,1.23
9860.00,1.23
9859.00,1.23
9858.00,1.23
9857.00,1.23
9856.00,1.23
9855.00,1.22
9854.00,1.22
9853.00,1.22
9852.00,1.22
9851.00,1.22
9850.00,1.22
9849.00,1.22
9848.00,1.22
9847.00,1.22
9846.00,1.22
9845.00,1.22
9844.00,1.22
9843.00,1.22
9842.00,1.22
9841.00,1.22
9840.00,1.22
9839.00,1.22
9838.00,1.22
9837.00,1.22
9836.00,1.22
9835.00,1.22
9834.00,1.22
9833.00,1.22
9832.00,1.22
9831.00,1.21
9830.00,1.21
9829.00,1.21
9828.00,1.21
9827.00,1.21
9826.00,1.21
9825.00,1.21
9824.00,1.20
9823.00,1.20
9822.00,1.20
9821.00,1.20
9820.00,1.20
9819.00,1.20
9818.00,1.20
9817.00,1.20
9816.00,1.20
9815.00,1.20
9814.00,1.21
9813.00,1.21
9812.00,1.21
9811.00,1.21
9810.00,1.21
9809.00,1.21
9808.00,1.21
9807.00,1.21
9806.00,1.21
9805.00,1.21
9804.00,1.21
9803.00,1.21
9802.00,1.21
9801.00,1.20
9800.00,1.20
9799.00,1.20
9798.00,1.20
9797.00,1.20
9796.00,1.20
9795.00,1.20
9794.00,1.20
9793.00,1.20
9792.00,1.20
9791.00,1.20
9790.00,1.20
9789.00,1.20
9788.00,1.20
9787.00,1.20
9786.00,1.20
9785.00,1.20
9784.00,1.20
9783.00,1.20
9782.00,1.20
9781.00,1.20
9780.00,1.20
9779.00,1.20
9778.00,1.20
9777.00,1.20
9776.00,1.20
9775.00,1.21
9774.00,1.21
9773.00,1.21
9772.00,1.21
9771.00,1.21
9770.00,1.21
9769.00,1.21
9768.00,1.22
9767.00,1.22
9766.00,1.22
9765.00,1.22
9764.00,1.22
9763.00,1.23
9762.00,1.23
9761.00,1.23
9760.00,1.23
9759.00,1.23
9758.00,1.24
9757.00,1.24
9756.00,1.24
9755.00,1.24
9754.00,1.24
9753.00,1.24
9752.00,1.24
9751.00,1.24
9750.00,1.24
9749.00,1.25
9748.00,1.25
9747.00,1.25
9746.00,1.25
9745.00,1.25
9744.00,1.25
9743.00,1.25
9742.00,1.25
9741.00,1.25
9740.00,1.25
9739.00,1.25
9738.00,1.25
9737.00,1.25
9736.00,1.25
9735.00,1.25
9734.00,1.25
9733.00,1.25
9732.00,1.25
9731.00,1.25
9730.00,1.25
9729.00,1.24
9728.00,1.24
9727.00,1.24
9726.00,1.24
9725.00,1.24
9724.00,1.24
9723.00,1.23
9722.00,1.23
9721.00,1.23
9720.00,1.23
9719.00,1.23
9718.00,1.23
9717.00,1.22
9716.00,1.22
9715.00,1.22
9714.00,1.22
9713.00,1.22
9712.00,1.22
9711.00,1.22
9710.00,1.22
9709.00,1.22
9708.00,1.22
9707.00,1.22
9706.00,1.22
9705.00,1.22
9704.00,1.22
9703.00,1.22
9702.00,1.22
9701.00,1.22
9700.00,1.22
9699.00,1.22
9698.00,1.22
9697.00,1.22
9696.00,1.22
9695.00,1.22
9694.00,1.22
9693.00,1.22
9692.00,1.22
9691.00,1.22
9690.00,1.21
9689.00,1.21
9688.00,1.21
9687.00,1.21
9686.00,1.21
9685.00,1.21
9684.00,1.21
9683.00,1.20
9682.00,1.20
9681.00,1.20
9680.00,1.20
9679.00,1.20
9678.00,1.20
9677.00,1.19
9676.00,1.19
9675.00,1.19
9674.00,1.19
9673.00,1.19
9672.00,1.19
9671.00,1.19
9670.00,1.19
9669.00,1.19
9668.00,1.19
9667.00,1.19
9666.00,1.19
9665.00,1.19
9664.00,1.19
9663.00,1.19
9662.00,1.20
9661.00,1.20
9660.00,1.20
9659.00,1.20
9658.00,1.20
9657.00,1.21
9656.00,1.21
9655.00,1.21
9654.00,1.21
9653.00,1.22
9652.00,1.22
9651.00,1.22
9650.00,1.22
9649.00,1.22
9648.00,1.23
9647.00,1.23
9646.00,1.23
9645.00,1.23
9644.00,1.23
9643.00,1.23
9642.00,1.23
9641.00,1.23
9640.00,1.23
9639.00,1.23
9638.00,1.23
9637.00,1.23
9636.00,1.23
9635.00,1.23
9634.00,1.23
9633.00,1.23
9632.00,1.23
9631.00,1.23
9630.00,1.23
9629.00,1.23
9628.00,1.23
9627.00,1.23
9626.00,1.23
9625.00,1.22
9624.00,1.22
9623.00,1.22
9622.00,1.22
9621.00,1.22
9620.00,1.22
9619.00,1.22
9618.00,1.22
9617.00,1.22
9616.00,1.22
9615.00,1.22
9614.00,1.22
9613.00,1.22
9612.00,1.22
9611.00,1.22
9610.00,1.22
9609.00,1.22
9608.00,1.22
9607.00,1.22
9606.00,1.22
9605.00,1.22
9604.00,1.22
9603.00,1.22
9602.00,1.22
9601.00,1.22
9600.00,1.22
9599.00,1.22
9598.00,1.22
9597.00,1.22
9596.00,1.22
9595.00,1.22
9594.00,1.21
9593.00,1.21
9592.00,1.21
9591.00,1.21
9590.00,1.21
9589.00,1.21
9588.00,1.21
9587.00,1.21
9586.00,1.21
9585.00,1.21
9584.00,1.21
9583.00,1.21
9582.00,1.21
9581.00,1.21
9580.00,1.22
9579.00,1.22
9578.00,1.22
9577.00,1.22
9576.00,1.22
9575.00,1.22
9574.00,1.23
9573.00,1.23
9572.00,1.23
9571.00,1.23
9570.00,1.23
9569.00,1.23
9568.00,1.23
9567.00,1.23
9566.00,1.23
9565.00,1.24
9564.00,1.24
9563.00,1.24
9562.00,1.24
9561.00,1.24
9560.00,1.24
9559.00,1.24
9558.00,1.24
9557.00,1.24
9556.00,1.24
9555.00,1.24
9554.00,1.24
9553.00,1.24
9552.00,1.24
9551.00,1.24
9550.00,1.24
9549.00,1.24
9548.00,1.24
9547.00,1.24
9546.00,1.24
9545.00,1.24
9544.00,1.24
9543.00,1.24
9542.00,1.24
9541.00,1.24
9540.00,1.24
9539.00,1.24
9538.00,1.24
9537.00,1.24
9536.00,1.24
9535.00,1.24
9534.00,1.24
9533.00,1.24
9532.00,1.24
9531.00,1.24
9530.00,1.24
9529.00,1.24
9528.00,1.24
9527.00,1.24
9526.00,1.24
9525.00,1.24
9524.00,1.24
9523.00,1.24
9522.00,1.24
9521.00,1.24
9520.00,1.24
9519.00,1.23
9518.00,1.23
9517.00,1.23
9516.00,1.23
9515.00,1.23
9514.00,1.23
9513.00,1.23
9512.00,1.23
9511.00,1.23
9510.00,1.23
9509.00,1.23
9508.00,1.23
9507.00,1.22
9506.00,1.22
9505.00,1.22
9504.00,1.22
9503.00,1.22
9502.00,1.22
9501.00,1.23
9500.00,1.23
9499.00,1.23
9498.00,1.23
9497.00,1.23
9496.00,1.23
9495.00,1.23
9494.00,1.23
9493.00,1.23
9492.00,1.23
9491.00,1.23
9490.00,1.23
9489.00,1.23
9488.00,1.23
9487.00,1.23
9486.00,1.23
9485.00,1.23
9484.00,1.23
9483.00,1.23
9482.00,1.23
9481.00,1.23
9480.00,1.23
9479.00,1.23
9478.00,1.23
9477.00,1.23
9476.00,1.23
9475.00,1.23
9474.00,1.22
9473.00,1.22
9472.00,1.22
9471.00,1.22
9470.00,1.22
9469.00,1.22
9468.00,1.22
9467.00,1.23
9466.00,1.23
9465.00,1.23
9464.00,1.23
9463.00,1.23
9462.00,1.23
9461.00,1.23
9460.00,1.24
9459.00,1.24
9458.00,1.24
9457.00,1.24
9456.00,1.24
9455.00,1.24
9454.00,1.24
9453.00,1.24
9452.00,1.25
9451.00,1.25
9450.00,1.25
9449.00,1.25
9448.00,1.25
9447.00,1.25
9446.00,1.25
9445.00,1.25
9444.00,1.25
9443.00,1.25
9442.00,1.25
9441.00,1.25
9440.00,1.25
9439.00,1.25
9438.00,1.24
9437.00,1.24
9436.00,1.24
9435.00,1.24
9434.00,1.24
9433.00,1.24
9432.00,1.24
9431.00,1.24
9430.00,1.24
9429.00,1.24
9428.00,1.23
9427.00,1.23
9426.00,1.23
9425.00,1.23
9424.00,1.23
9423.00,1.23
9422.00,1.23
9421.00,1.23
9420.00,1.23
9419.00,1.23
9418.00,1.23
9417.00,1.23
9416.00,1.23
9415.00,1.23
9414.00,1.23
9413.00,1.23
9412.00,1.23
9411.00,1.23
9410.00,1.23
9409.00,1.23
9408.00,1.23
9407.00,1.23
9406.00,1.23
9405.00,1.23
9404.00,1.23
9403.00,1.23
9402.00,1.23
9401.00,1.23
9400.00,1.23
9399.00,1.23
9398.00,1.23
9397.00,1.23
9396.00,1.23
9395.00,1.23
9394.00,1.23
9393.00,1.23
9392.00,1.23
9391.00,1.23
9390.00,1.23
9389.00,1.23
9388.00,1.23
9387.00,1.23
9386.00,1.23
9385.00,1.23
9384.00,1.23
9383.00,1.23
9382.00,1.23
9381.00,1.23
9380.00,1.22
9379.00,1.22
9378.00,1.22
9377.00,1.22
9376.00,1.22
9375.00,1.22
9374.00,1.22
9373.00,1.22
9372.00,1.22
9371.00,1.22
9370.00,1.22
9369.00,1.22
9368.00,1.22
9367.00,1.22
9366.00,1.23
9365.00,1.23
9364.00,1.23
9363.00,1.23
9362.00,1.23
9361.00,1.23
9360.00,1.23
9359.00,1.23
9358.00,1.23
9357.00,1.23
9356.00,1.23
9355.00,1.23
9354.00,1.23
9353.00,1.23
9352.00,1.23
9351.00,1.23
9350.00,1.23
9349.00,1.23
9348.00,1.23
9347.00,1.22
9346.00,1.22
9345.00,1.22
9344.00,1.22
9343.00,1.22
9342.00,1.22
9341.00,1.22
9340.00,1.22
9339.00,1.22
9338.00,1.22
9337.00,1.22
9336.00,1.22
9335.00,1.22
9334.00,1.22
9333.00,1.22
9332.00,1.22
9331.00,1.22
9330.00,1.22
9329.00,1.22
9328.00,1.22
9327.00,1.22
9326.00,1.22
9325.00,1.22
9324.00,1.23
9323.00,1.23
9322.00,1.23
9321.00,1.23
9320.00,1.23
9319.00,1.23
9318.00,1.23
9317.00,1.24
9316.00,1.24
9315.00,1.24
9314.00,1.24
9313.00,1.24
9312.00,1.24
9311.00,1.24
9310.00,1.24
9309.00,1.24
9308.00,1.24
9307.00,1.24
9306.00,1.23
9305.00,1.23
9304.00,1.23
9303.00,1.23
9302.00,1.23
9301.00,1.23
9300.00,1.23
9299.00,1.23
9298.00,1.23
9297.00,1.23
9296.00,1.23
9295.00,1.23
9294.00,1.23
9293.00,1.23
9292.00,1.23
9291.00,1.23
9290.00,1.23
9289.00,1.24
9288.00,1.24
9287.00,1.24
9286.00,1.24
9285.00,1.24
9284.00,1.24
9283.00,1.24
9282.00,1.25
9281.00,1.25
9280.00,1.25
9279.00,1.25
9278.00,1.25
9277.00,1.25
9276.00,1.25
9275.00,1.25
9274.00,1.25
9273.00,1.24
9272.00,1.24
9271.00,1.24
9270.00,1.24
9269.00,1.24
9268.00,1.24
9267.00,1.23
9266.00,1.23
9265.00,1.23
9264.00,1.23
9263.00,1.23
9262.00,1.23
9261.00,1.23
9260.00,1.23
9259.00,1.23
9258.00,1.23
9257.00,1.23
9256.00,1.23
9255.00,1.23
9254.00,1.23
9253.00,1.23
9252.00,1.23
9251.00,1.23
9250.00,1.23
9249.00,1.23
9248.00,1.23
9247.00,1.23
9246.00,1.23
9245.00,1.23
9244.00,1.23
9243.00,1.23
9242.00,1.23
9241.00,1.23
9240.00,1.23
9239.00,1.23
9238.00,1.23
9237.00,1.22
9236.00,1.22
9235.00,1.22
9234.00,1.22
9233.00,1.22
9232.00,1.22
9231.00,1.22
9230.00,1.22
9229.00,1.22
9228.00,1.22
9227.00,1.22
9226.00,1.22
9225.00,1.22
9224.00,1.22
9223.00,1.22
9222.00,1.22
9221.00,1.22
9220.00,1.22
9219.00,1.22
9218.00,1.22
9217.00,1.22
9216.00,1.22
9215.00,1.22
9214.00,1.22
9213.00,1.22
9212.00,1.22
9211.00,1.22
9210.00,1.22
9209.00,1.22
9208.00,1.22
9207.00,1.22
9206.00,1.22
9205.00,1.22
9204.00,1.22
9203.00,1.22
9202.00,1.22
9201.00,1.22
9200.00,1.22
9199.00,1.22
9198.00,1.23
9197.00,1.23
9196.00,1.23
9195.00,1.23
9194.00,1.23
9193.00,1.23
9192.00,1.23
9191.00,1.23
9190.00,1.23
9189.00,1.23
9188.00,1.23
9187.00,1.23
9186.00,1.23
9185.00,1.23
9184.00,1.22
9183.00,1.22
9182.00,1.22
9181.00,1.22
9180.00,1.22
9179.00,1.22
9178.00,1.22
9177.00,1.21
9176.00,1.21
9175.00,1.21
9174.00,1.21
9173.00,1.21
9172.00,1.21
9171.00,1.21
9170.00,1.21
9169.00,1.21
9168.00,1.22
9167.00,1.22
9166.00,1.22
9165.00,1.22
9164.00,1.22
9163.00,1.22
9162.00,1.22
9161.00,1.23
9160.00,1.23
9159.00,1.23
9158.00,1.23
9157.00,1.23
9156.00,1.23
9155.00,1.23
9154.00,1.23
9153.00,1.23
9152.00,1.24
9151.00,1.24
9150.00,1.24
9149.00,1.24
9148.00,1.24
9147.00,1.24
9146.00,1.24
9145.00,1.24
9144.00,1.24
9143.00,1.24
9142.00,1.24
9141.00,1.24
9140.00,1.23
9139.00,1.23
9138.00,1.23
9137.00,1.23
9136.00,1.23
9135.00,1.23
9134.00,1.23
9133.00,1.23
9132.00,1.23
9131.00,1.23
9130.00,1.22
9129.00,1.22
9128.00,1.22
9127.00,1.22
9126.00,1.22
9125.00,1.22
9124.00,1.22
9123.00,1.22
9122.00,1.22
9121.00,1.23
9120.00,1.23
9119.00,1.23
9118.00,1.23
9117.00,1.23
9116.00,1.23
9115.00,1.24
9114.00,1.24
9113.00,1.24
9112.00,1.24
9111.00,1.24
9110.00,1.24
9109.00,1.24
9108.00,1.24
9107.00,1.24
9106.00,1.24
9105.00,1.24
9104.00,1.24
9103.00,1.24
9102.00,1.24
9101.00,1.24
9100.00,1.24
9099.00,1.23
9098.00,1.23
9097.00,1.23
9096.00,1.23
9095.00,1.23
9094.00,1.23
9093.00,1.23
9092.00,1.23
9091.00,1.23
9090.00,1.23
9089.00,1.23
9088.00,1.23
9087.00,1.23
9086.00,1.23
9085.00,1.23
9084.00,1.23
9083.00,1.23
9082.00,1.23
9081.00,1.23
9080.00,1.23
9079.00,1.23
9078.00,1.24
9077.00,1.24
9076.00,1.24
9075.00,1.24
9074.00,1.24
9073.00,1.24
9072.00,1.24
9071.00,1.24
9070.00,1.24
9069.00,1.24
9068.00,1.24
9067.00,1.23
9066.00,1.23
9065.00,1.23
9064.00,1.23
9063.00,1.23
9062.00,1.23
9061.00,1.23
9060.00,1.23
9059.00,1.22
9058.00,1.22
9057.00,1.22
9056.00,1.22
9055.00,1.22
9054.00,1.22
9053.00,1.22
9052.00,1.22
9051.00,1.22
9050.00,1.22
9049.00,1.22
9048.00,1.22
9047.00,1.22
9046.00,1.23
9045.00,1.23
9044.00,1.23
9043.00,1.23
9042.00,1.24
9041.00,1.24
9040.00,1.24
9039.00,1.24
9038.00,1.24
9037.00,1.25
9036.00,1.25
9035.00,1.25
9034.00,1.25
9033.00,1.25
9032.00,1.25
9031.00,1.25
9030.00,1.25
9029.00,1.25
9028.00,1.25
9027.00,1.25
9026.00,1.25
9025.00,1.24
9024.00,1.24
9023.00,1.24
9022.00,1.24
9021.00,1.24
9020.00,1.24
9019.00,1.23
9018.00,1.23
9017.00,1.23
9016.00,1.23
9015.00,1.23
9014.00,1.23
9013.00,1.23
9012.00,1.23
9011.00,1.23
9010.00,1.23
9009.00,1.24
9008.00,1.24
9007.00,1.24
9006.00,1.24
9005.00,1.24
9004.00,1.24
9003.00,1.24
9002.00,1.24
9001.00,1.24
9000.00,1.23
8999.00,1.23
8998.00,1.23
8997.00,1.23
8996.00,1.23
8995.00,1.23
8994.00,1.23
8993.00,1.22
8992.00,1.22
8991.00,1.22
8990.00,1.22
8989.00,1.22
8988.00,1.22
8987.00,1.22
8986.00,1.22
8985.00,1.22
8984.00,1.22
8983.00,1.23
8982.00,1.23
8981.00,1.23
8980.00,1.23
8979.00,1.23
8978.00,1.23
8977.00,1.23
8976.00,1.23
8975.00,1.23
8974.00,1.23
8973.00,1.23
8972.00,1.23
8971.00,1.23
8970.00,1.23
8969.00,1.23
8968.00,1.23
8967.00,1.23
8966.00,1.23
8965.00,1.23
8964.00,1.23
8963.00,1.23
8962.00,1.23
8961.00,1.23
8960.00,1.23
8959.00,1.23
8958.00,1.23
8957.00,1.23
8956.00,1.23
8955.00,1.23
8954.00,1.23
8953.00,1.23
8952.00,1.23
8951.00,1.23
8950.00,1.24
8949.00,1.24
8948.00,1.24
8947.00,1.24
8946.00,1.24
8945.00,1.24
8944.00,1.24
8943.00,1.23
8942.00,1.23
8941.00,1.23
8940.00,1.23
8939.00,1.23
8938.00,1.23
8937.00,1.23
8936.00,1.23
8935.00,1.23
8934.00,1.23
8933.00,1.23
8932.00,1.23
8931.00,1.23
8930.00,1.23
8929.00,1.23
8928.00,1.23
8927.00,1.23
8926.00,1.23
8925.00,1.23
8924.00,1.23
8923.00,1.23
8922.00,1.23
8921.00,1.23
8920.00,1.23
8919.00,1.24
8918.00,1.24
8917.00,1.24
8916.00,1.24
8915.00,1.24
8914.00,1.24
8913.00,1.24
8912.00,1.24
8911.00,1.24
8910.00,1.24
8909.00,1.24
8908.00,1.24
8907.00,1.24
8906.00,1.24
8905.00,1.24
8904.00,1.24
8903.00,1.24
8902.00,1.24
8901.00,1.24
8900.00,1.24
8899.00,1.24
8898.00,1.24
8897.00,1.24
8896.00,1.24
8895.00,1.24
8894.00,1.24
8893.00,1.24
8892.00,1.24
8891.00,1.24
8890.00,1.23
8889.00,1.23
8888.00,1.23
8887.00,1.23
8886.00,1.23
8885.00,1.23
8884.00,1.23
8883.00,1.23
8882.00,1.23
8881.00,1.23
8880.00,1.23
8879.00,1.23
8878.00,1.23
8877.00,1.23
8876.00,1.23
8875.00,1.23
8874.00,1.23
8873.00,1.23
8872.00,1.23
8871.00,1.23
8870.00,1.23
8869.00,1.23
8868.00,1.22
8867.00,1.22
8866.00,1.22
8865.00,1.22
8864.00,1.22
8863.00,1.22
8862.00,1.21
8861.00,1.21
8860.00,1.21
8859.00,1.21
8858.00,1.21
8857.00,1.20
8856.00,1.20
8855.00,1.20
8854.00,1.20
8853.00,1.20
8852.00,1.20
8851.00,1.20
8850.00,1.19
8849.00,1.20
8848.00,1.20
8847.00,1.20
8846.00,1.20
8845.00,1.20
8844.00,1.20
8843.00,1.20
8842.00,1.20
8841.00,1.21
8840.00,1.21
8839.00,1.21
8838.00,1.21
8837.00,1.21
8836.00,1.22
8835.00,1.22
8834.00,1.22
8833.00,1.22
8832.00,1.22
8831.00,1.22
8830.00,1.22
8829.00,1.22
8828.00,1.22
8827.00,1.22
8826.00,1.22
8825.00,1.22
8824.00,1.22
8823.00,1.22
8822.00,1.22
8821.00,1.22
8820.00,1.21
8819.00,1.21
8818.00,1.21
8817.00,1.21
8816.00,1.21
8815.00,1.21
8814.00,1.21
8813.00,1.21
8812.00,1.21
8811.00,1.21
8810.00,1.21
8809.00,1.21
8808.00,1.21
8807.00,1.21
8806.00,1.22
8805.00,1.22
8804.00,1.22
8803.00,1.22
8802.00,1.22
8801.00,1.22
8800.00,1.22
8799.00,1.22
8798.00,1.22
8797.00,1.22
8796.00,1.22
8795.00,1.22
8794.00,1.22
8793.00,1.22
8792.00,1.22
8791.00,1.22
8790.00,1.22
8789.00,1.21
8788.00,1.21
8787.00,1.21
8786.00,1.21
8785.00,1.21
8784.00,1.21
8783.00,1.21
8782.00,1.20
8781.00,1.20
8780.00,1.20
8779.00,1.20
8778.00,1.20
8777.00,1.20
8776.00,1.19
8775.00,1.19
8774.00,1.19
8773.00,1.19
8772.00,1.19
8771.00,1.19
8770.00,1.19
8769.00,1.19
8768.00,1.19
8767.00,1.19
8766.00,1.19
8765.00,1.19
8764.00,1.19
8763.00,1.19
8762.00,1.19
8761.00,1.19
8760.00,1.19
8759.00,1.19
8758.00,1.19
8757.00,1.19
8756.00,1.19
8755.00,1.19
8754.00,1.19
8753.00,1.19
8752.00,1.19
8751.00,1.19
8750.00,1.19
8749.00,1.19
8748.00,1.19
8747.00,1.19
8746.00,1.19
8745.00,1.19
8744.00,1.19
8743.00,1.19
8742.00,1.19
8741.00,1.19
8740.00,1.19
8739.00,1.19
8738.00,1.18
8737.00,1.18
8736.00,1.18
8735.00,1.18
8734.00,1.18
8733.00,1.18
8732.00,1.18
8731.00,1.18
8730.00,1.18
8729.00,1.18
8728.00,1.18
8727.00,1.18
8726.00,1.18
8725.00,1.18
8724.00,1.18
8723.00,1.18
8722.00,1.18
8721.00,1.18
8720.00,1.18
8719.00,1.18
8718.00,1.18
8717.00,1.18
8716.00,1.18
8715.00,1.18
8714.00,1.18
8713.00,1.18
8712.00,1.18
8711.00,1.18
8710.00,1.19
8709.00,1.19
8708.00,1.19
8707.00,1.19
8706.00,1.19
8705.00,1.19
8704.00,1.19
8703.00,1.19
8702.00,1.19
8701.00,1.18
8700.00,1.18
8699.00,1.18
8698.00,1.18
8697.00,1.18
8696.00,1.18
8695.00,1.18
8694.00,1.18
8693.00,1.18
8692.00,1.18
8691.00,1.18
8690.00,1.18
8689.00,1.18
8688.00,1.18
8687.00,1.18
8686.00,1.18
8685.00,1.18
8684.00,1.18
8683.00,1.18
8682.00,1.18
8681.00,1.18
8680.00,1.18
8679.00,1.17
8678.00,1.17
8677.00,1.17
8676.00,1.17
8675.00,1.17
8674.00,1.17
8673.00,1.17
8672.00,1.17
8671.00,1.17
8670.00,1.18
8669.00,1.18
8668.00,1.18
8667.00,1.18
8666.00,1.18
8665.00,1.18
8664.00,1.18
8663.00,1.18
8662.00,1.18
8661.00,1.18
8660.00,1.18
8659.00,1.18
8658.00,1.18
8657.00,1.18
8656.00,1.18
8655.00,1.18
8654.00,1.17
8653.00,1.17
8652.00,1.17
8651.00,1.17
8650.00,1.17
8649.00,1.17
8648.00,1.17
8647.00,1.16
8646.00,1.16
8645.00,1.16
8644.00,1.16
8643.00,1.16
8642.00,1.16
8641.00,1.16
8640.00,1.16
8639.00,1.16
8638.00,1.16
8637.00,1.16
8636.00,1.16
8635.00,1.16
8634.00,1.16
8633.00,1.16
8632.00,1.16
8631.00,1.16
8630.00,1.16
8629.00,1.16
8628.00,1.16
8627.00,1.16
8626.00,1.16
8625.00,1.16
8624.00,1.16
8623.00,1.16
8622.00,1.16
8621.00,1.15
8620.00,1.15
8619.00,1.15
8618.00,1.15
8617.00,1.15
8616.00,1.15
8615.00,1.15
8614.00,1.15
8613.00,1.15
8612.00,1.15
8611.00,1.15
8610.00,1.16
8609.00,1.16
8608.00,1.16
8607.00,1.16
8606.00,1.16
8605.00,1.16
8604.00,1.16
8603.00,1.16
8602.00,1.16
8601.00,1.16
8600.00,1.16
8599.00,1.16
8598.00,1.16
8597.00,1.16
8596.00,1.16
8595.00,1.16
8594.00,1.15
8593.00,1.15
8592.00,1.15
8591.00,1.15
8590.00,1.15
8589.00,1.15
8588.00,1.15
8587.00,1.15
8586.00,1.14
8585.00,1.14
8584.00,1.14
8583.00,1.14
8582.00,1.14
8581.00,1.14
8580.00,1.14
8579.00,1.14
8578.00,1.14
8577.00,1.14
8576.00,1.14
8575.00,1.14
8574.00,1.14
8573.00,1.14
8572.00,1.14
8571.00,1.14
8570.00,1.14
8569.00,1.14
8568.00,1.14
8567.00,1.14
8566.00,1.14
8565.00,1.14
8564.00,1.14
8563.00,1.14
8562.00,1.14
8561.00,1.14
8560.00,1.14
8559.00,1.14
8558.00,1.14
8557.00,1.14
8556.00,1.14
8555.00,1.14
8554.00,1.14
8553.00,1.14
8552.00,1.14
8551.00,1.14
8550.00,1.14
8549.00,1.14
8548.00,1.13
8547.00,1.13
8546.00,1.13
8545.00,1.13
8544.00,1.13
8543.00,1.13
8542.00,1.13
8541.00,1.12
8540.00,1.12
8539.00,1.12
8538.00,1.12
8537.00,1.12
8536.00,1.12
8535.00,1.12
8534.00,1.12
8533.00,1.12
8532.00,1.12
8531.00,1.12
8530.00,1.12
8529.00,1.12
8528.00,1.12
8527.00,1.12
8526.00,1.12
8525.00,1.12
8524.00,1.12
8523.00,1.12
8522.00,1.12
8521.00,1.12
8520.00,1.12
8519.00,1.12
8518.00,1.12
8517.00,1.13
8516.00,1.13
8515.00,1.13
8514.00,1.13
8513.00,1.13
8512.00,1.13
8511.00,1.13
8510.00,1.13
8509.00,1.13
8508.00,1.13
8507.00,1.13
8506.00,1.13
8505.00,1.13
8504.00,1.13
8503.00,1.12
8502.00,1.12
8501.00,1.12
8500.00,1.12
8499.00,1.12
8498.00,1.12
8497.00,1.11
8496.00,1.11
8495.00,1.11
8494.00,1.11
8493.00,1.11
8492.00,1.10
8491.00,1.10
8490.00,1.10
8489.00,1.10
8488.00,1.10
8487.00,1.10
8486.00,1.09
8485.00,1.09
8484.00,1.09
8483.00,1.09
8482.00,1.09
8481.00,1.09
8480.00,1.09
8479.00,1.09
8478.00,1.09
8477.00,1.09
8476.00,1.09
8475.00,1.09
8474.00,1.08
8473.00,1.08
8472.00,1.08
8471.00,1.08
8470.00,1.08
8469.00,1.08
8468.00,1.08
8467.00,1.08
8466.00,1.08
8465.00,1.08
8464.00,1.08
8463.00,1.08
8462.00,1.08
8461.00,1.08
8460.00,1.08
8459.00,1.08
8458.00,1.08
8457.00,1.08
8456.00,1.08
8455.00,1.08
8454.00,1.08
8453.00,1.08
8452.00,1.07
8451.00,1.07
8450.00,1.07
8449.00,1.07
8448.00,1.07
8447.00,1.08
8446.00,1.08
8445.00,1.08
8444.00,1.08
8443.00,1.08
8442.00,1.08
8441.00,1.08
8440.00,1.08
8439.00,1.08
8438.00,1.08
8437.00,1.08
8436.00,1.08
8435.00,1.08
8434.00,1.08
8433.00,1.08
8432.00,1.08
8431.00,1.08
8430.00,1.08
8429.00,1.08
8428.00,1.07
8427.00,1.07
8426.00,1.07
8425.00,1.07
8424.00,1.07
8423.00,1.07
8422.00,1.07
8421.00,1.07
8420.00,1.07
8419.00,1.07
8418.00,1.08
8417.00,1.08
8416.00,1.08
8415.00,1.08
8414.00,1.08
8413.00,1.08
8412.00,1.08
8411.00,1.08
8410.00,1.09
8409.00,1.09
8408.00,1.09
8407.00,1.09
8406.00,1.09
8405.00,1.09
8404.00,1.09
8403.00,1.09
8402.00,1.10
8401.00,1.10
8400.00,1.10
8399.00,1.10
8398.00,1.10
8397.00,1.10
8396.00,1.10
8395.00,1.10
8394.00,1.10
8393.00,1.11
8392.00,1.11
8391.00,1.11
8390.00,1.11
8389.00,1.11
8388.00,1.11
8387.00,1.11
8386.00,1.11
8385.00,1.11
8384.00,1.11
8383.00,1.12
8382.00,1.12
8381.00,1.12
8380.00,1.12
8379.00,1.12
8378.00,1.12
8377.00,1.12
8376.00,1.12
8375.00,1.12
8374.00,1.12
8373.00,1.12
8372.00,1.12
8371.00,1.12
8370.00,1.12
8369.00,1.12
8368.00,1.12
8367.00,1.12
8366.00,1.12
8365.00,1.11
8364.00,1.11
8363.00,1.11
8362.00,1.11
8361.00,1.11
8360.00,1.11
8359.00,1.11
8358.00,1.11
8357.00,1.11
8356.00,1.11
8355.00,1.11
8354.00,1.11
8353.00,1.11
8352.00,1.11
8351.00,1.11
8350.00,1.11
8349.00,1.11
8348.00,1.11
8347.00,1.11
8346.00,1.11
8345.00,1.11
8344.00,1.11
8343.00,1.11
8342.00,1.11
8341.00,1.11
8340.00,1.11
8339.00,1.11
8338.00,1.11
8337.00,1.11
8336.00,1.11
8335.00,1.11
8334.00,1.11
8333.00,1.11
8332.00,1.11
8331.00,1.11
8330.00,1.11
8329.00,1.12
8328.00,1.12
8327.00,1.12
8326.00,1.12
8325.00,1.12
8324.00,1.12
8323.00,1.12
8322.00,1.12
8321.00,1.12
8320.00,1.12
8319.00,1.12
8318.00,1.13
8317.00,1.13
8316.00,1.13
8315.00,1.13
8314.00,1.13
8313.00,1.13
8312.00,1.13
8311.00,1.13
8310.00,1.13
8309.00,1.13
8308.00,1.13
8307.00,1.13
8306.00,1.13
8305.00,1.12
8304.00,1.12
8303.00,1.12
8302.00,1.12
8301.00,1.12
8300.00,1.12
8299.00,1.12
8298.00,1.12
8297.00,1.12
8296.00,1.12
8295.00,1.12
8294.00,1.12
8293.00,1.12
8292.00,1.12
8291.00,1.12
8290.00,1.12
8289.00,1.12
8288.00,1.12
8287.00,1.12
8286.00,1.12
8285.00,1.12
8284.00,1.12
8283.00,1.12
8282.00,1.12
8281.00,1.12
8280.00,1.12
8279.00,1.12
8278.00,1.12
8277.00,1.12
8276.00,1.12
8275.00,1.12
8274.00,1.13
8273.00,1.13
8272.00,1.13
8271.00,1.13
8270.00,1.13
8269.00,1.13
8268.00,1.13
8267.00,1.13
8266.00,1.13
8265.00,1.13
8264.00,1.13
8263.00,1.13
8262.00,1.13
8261.00,1.13
8260.00,1.13
8259.00,1.14
8258.00,1.14
8257.00,1.14
8256.00,1.14
8255.00,1.14
8254.00,1.14
8253.00,1.14
8252.00,1.14
8251.00,1.14
8250.00,1.14
8249.00,1.14
8248.00,1.14
8247.00,1.14
8246.00,1.14
8245.00,1.13
8244.00,1.13
8243.00,1.13
8242.00,1.13
8241.00,1.13
8240.00,1.13
8239.00,1.13
8238.00,1.13
8237.00,1.13
8236.00,1.13
8235.00,1.13
8234.00,1.13
8233.00,1.13
8232.00,1.13
8231.00,1.13
8230.00,1.13
8229.00,1.13
8228.00,1.13
8227.00,1.13
8226.00,1.13
8225.00,1.13
8224.00,1.14
8223.00,1.14
8222.00,1.14
8221.00,1.14
8220.00,1.14
8219.00,1.14
8218.00,1.14
8217.00,1.14
8216.00,1.14
8215.00,1.14
8214.00,1.14
8213.00,1.14
8212.00,1.14
8211.00,1.15
8210.00,1.15
8209.00,1.15
8208.00,1.15
8207.00,1.15
8206.00,1.15
8205.00,1.15
8204.00,1.15
8203.00,1.15
8202.00,1.15
8201.00,1.15
8200.00,1.16
8199.00,1.16
8198.00,1.16
8197.00,1.16
8196.00,1.16
8195.00,1.16
8194.00,1.16
8193.00,1.16
8192.00,1.16
8191.00,1.17
8190.00,1.17
8189.00,1.17
8188.00,1.17
8187.00,1.17
8186.00,1.17
8185.00,1.17
8184.00,1.17
8183.00,1.17
8182.00,1.17
8181.00,1.17
8180.00,1.17
8179.00,1.17
8178.00,1.17
8177.00,1.17
8176.00,1.17
8175.00,1.17
8174.00,1.17
8173.00,1.17
8172.00,1.17
8171.00,1.17
8170.00,1.17
8169.00,1.17
8168.00,1.17
8167.00,1.17
8166.00,1.17
8165.00,1.17
8164.00,1.17
8163.00,1.17
8162.00,1.17
8161.00,1.17
8160.00,1.17
8159.00,1.17
8158.00,1.17
8157.00,1.17
8156.00,1.17
8155.00,1.17
8154.00,1.17
8153.00,1.17
8152.00,1.17
8151.00,1.17
8150.00,1.17
8149.00,1.17
8148.00,1.17
8147.00,1.17
8146.00,1.17
8145.00,1.17
8144.00,1.17
8143.00,1.17
8142.00,1.17
8141.00,1.17
8140.00,1.17
8139.00,1.17
8138.00,1.17
8137.00,1.16
8136.00,1.16
8135.00,1.16
8134.00,1.16
8133.00,1.16
8132.00,1.16
8131.00,1.16
8130.00,1.16
8129.00,1.16
8128.00,1.17
8127.00,1.17
8126.00,1.17
8125.00,1.17
8124.00,1.17
8123.00,1.17
8122.00,1.17
8121.00,1.17
8120.00,1.17
8119.00,1.17
8118.00,1.18
8117.00,1.18
8116.00,1.18
8115.00,1.18
8114.00,1.18
8113.00,1.18
8112.00,1.18
8111.00,1.18
8110.00,1.18
8109.00,1.18
8108.00,1.18
8107.00,1.18
8106.00,1.18
8105.00,1.18
8104.00,1.18
8103.00,1.18
8102.00,1.18
8101.00,1.18
8100.00,1.18
8099.00,1.18
8098.00,1.18
8097.00,1.18
8096.00,1.18
8095.00,1.18
8094.00,1.19
8093.00,1.19
8092.00,1.19
8091.00,1.19
8090.00,1.19
8089.00,1.19
8088.00,1.19
8087.00,1.19
8086.00,1.19
8085.00,1.19
8084.00,1.19
8083.00,1.19
8082.00,1.19
8081.00,1.19
8080.00,1.19
8079.00,1.19
8078.00,1.19
8077.00,1.19
8076.00,1.19
8075.00,1.19
8074.00,1.19
8073.00,1.19
8072.00,1.19
8071.00,1.19
8070.00,1.19
8069.00,1.19
8068.00,1.19
8067.00,1.19
8066.00,1.19
8065.00,1.19
8064.00,1.19
8063.00,1.19
8062.00,1.19
8061.00,1.19
8060.00,1.19
8059.00,1.19
8058.00,1.20
8057.00,1.20
8056.00,1.20
8055.00,1.20
8054.00,1.20
8053.00,1.20
8052.00,1.20
8051.00,1.20
8050.00,1.20
8049.00,1.20
8048.00,1.20
8047.00,1.20
8046.00,1.20
8045.00,1.20
8044.00,1.20
8043.00,1.20
8042.00,1.20
8041.00,1.21
8040.00,1.21
8039.00,1.21
8038.00,1.21
8037.00,1.21
8036.00,1.21
8035.00,1.21
8034.00,1.21
8033.00,1.21
8032.00,1.21
8031.00,1.21
8030.00,1.21
8029.00,1.21
8028.00,1.21
8027.00,1.21
8026.00,1.21
8025.00,1.21
8024.00,1.21
8023.00,1.21
8022.00,1.21
8021.00,1.21
8020.00,1.21
8019.00,1.21
8018.00,1.21
8017.00,1.21
8016.00,1.21
8015.00,1.21
8014.00,1.21
8013.00,1.21
8012.00,1.21
8011.00,1.21
8010.00,1.21
8009.00,1.21
8008.00,1.21
8007.00,1.21
8006.00,1.21
8005.00,1.21
8004.00,1.21
8003.00,1.21
8002.00,1.21
8001.00,1.21
8000.00,1.21
7999.00,1.21
7998.00,1.21
7997.00,1.21
7996.00,1.21
7995.00,1.21
7994.00,1.21
7993.00,1.21
7992.00,1.21
7991.00,1.21
7990.00,1.21
7989.00,1.21
7988.00,1.21
7987.00,1.21
7986.00,1.21
7985.00,1.21
7984.00,1.21
7983.00,1.21
7982.00,1.21
7981.00,1.21
7980.00,1.21
7979.00,1.21
7978.00,1.21
7977.00,1.21
7976.00,1.21
7975.00,1.21
7974.00,1.21
7973.00,1.21
7972.00,1.21
7971.00,1.21
7970.00,1.21
7969.00,1.21
7968.00,1.21
7967.00,1.21
7966.00,1.21
7965.00,1.22
7964.00,1.22
7963.00,1.22
7962.00,1.22
7961.00,1.22
7960.00,1.22
7959.00,1.22
7958.00,1.22
7957.00,1.22
7956.00,1.22
7955.00,1.22
7954.00,1.22
7953.00,1.22
7952.00,1.22
7951.00,1.22
7950.00,1.22
7949.00,1.22
7948.00,1.22
7947.00,1.22
7946.00,1.22
7945.00,1.22
7944.00,1.22
7943.00,1.22
7942.00,1.22
7941.00,1.22
7940.00,1.22
7939.00,1.22
7938.00,1.22
7937.00,1.22
7936.00,1.22
7935.00,1.22
7934.00,1.22
7933.00,1.22
7932.00,1.22
7931.00,1.22
7930.00,1.22
7929.00,1.22
7928.00,1.22
7927.00,1.22
7926.00,1.22
7925.00,1.22
7924.00,1.22
7923.00,1.22
7922.00,1.23
7921.00,1.23
7920.00,1.23
7919.00,1.23
7918.00,1.23
7917.00,1.23
7916.00,1.23
7915.00,1.23
7914.00,1.23
7913.00,1.23
7912.00,1.23
7911.00,1.22
7910.00,1.22
7909.00,1.22
7908.00,1.22
7907.00,1.22
7906.00,1.22
7905.00,1.22
7904.00,1.22
7903.00,1.22
7902.00,1.22
7901.00,1.22
7900.00,1.22
7899.00,1.22
7898.00,1.22
7897.00,1.22
7896.00,1.22
7895.00,1.22
7894.00,1.22
7893.00,1.22
7892.00,1.22
7891.00,1.22
7890.00,1.22
7889.00,1.22
7888.00,1.22
7887.00,1.22
7886.00,1.22
7885.00,1.22
7884.00,1.22
7883.00,1.22
7882.00,1.22
7881.00,1.22
7880.00,1.22
7879.00,1.22
7878.00,1.22
7877.00,1.22
7876.00,1.22
7875.00,1.22
7874.00,1.23
7873.00,1.23
7872.00,1.23
7871.00,1.23
7870.00,1.23
7869.00,1.23
7868.00,1.23
7867.00,1.23
7866.00,1.23
7865.00,1.23
7864.00,1.23
7863.00,1.23
7862.00,1.23
7861.00,1.23
7860.00,1.23
7859.00,1.23
7858.00,1.23
7857.00,1.23
7856.00,1.24
7855.00,1.24
7854.00,1.24
7853.00,1.24
7852.00,1.24
7851.00,1.24
7850.00,1.24
7849.00,1.24
7848.00,1.24
7847.00,1.23
7846.00,1.23
7845.00,1.23
7844.00,1.23
7843.00,1.23
7842.00,1.23
7841.00,1.23
7840.00,1.23
7839.00,1.23
7838.00,1.23
7837.00,1.23
7836.00,1.23
7835.00,1.23
7834.00,1.23
7833.00,1.23
7832.00,1.23
7831.00,1.23
7830.00,1.23
7829.00,1.23
7828.00,1.23
7827.00,1.23
7826.00,1.23
7825.00,1.23
7824.00,1.23
7823.00,1.23
7822.00,1.23
7821.00,1.23
7820.00,1.23
7819.00,1.23
7818.00,1.23
7817.00,1.23
7816.00,1.23
7815.00,1.23
7814.00,1.23
7813.00,1.23
7812.00,1.23
7811.00,1.24
7810.00,1.24
7809.00,1.24
7808.00,1.24
7807.00,1.24
7806.00,1.24
7805.00,1.24
7804.00,1.24
7803.00,1.24
7802.00,1.24
7801.00,1.24
7800.00,1.24
7799.00,1.24
7798.00,1.24
7797.00,1.24
7796.00,1.24
7795.00,1.24
7794.00,1.24
7793.00,1.24
7792.00,1.24
7791.00,1.24
7790.00,1.24
7789.00,1.24
7788.00,1.24
7787.00,1.24
7786.00,1.24
7785.00,1.24
7784.00,1.24
7783.00,1.24
7782.00,1.24
7781.00,1.24
7780.00,1.24
7779.00,1.24
7778.00,1.24
7777.00,1.24
7776.00,1.24
7775.00,1.24
7774.00,1.24
7773.00,1.24
7772.00,1.24
7771.00,1.24
7770.00,1.24
7769.00,1.25
7768.00,1.25
7767.00,1.25
7766.00,1.25
7765.00,1.25
7764.00,1.25
7763.00,1.25
7762.00,1.25
7761.00,1.25
7760.00,1.25
7759.00,1.25
7758.00,1.25
7757.00,1.25
7756.00,1.25
7755.00,1.25
7754.00,1.25
7753.00,1.25
7752.00,1.25
7751.00,1.25
7750.00,1.24
7749.00,1.24
7748.00,1.24
7747.00,1.24
7746.00,1.24
7745.00,1.24
7744.00,1.24
7743.00,1.24
7742.00,1.24
7741.00,1.24
7740.00,1.24
7739.00,1.24
7738.00,1.24
7737.00,1.24
7736.00,1.24
7735.00,1.24
7734.00,1.24
7733.00,1.24
7732.00,1.24
7731.00,1.24
7730.00,1.24
7729.00,1.24
7728.00,1.24
7727.00,1.24
7726.00,1.24
7725.00,1.24
7724.00,1.24
7723.00,1.25
7722.00,1.25
7721.00,1.25
7720.00,1.25
7719.00,1.25
7718.00,1.25
7717.00,1.25
7716.00,1.25
7715.00,1.25
7714.00,1.25
7713.00,1.25
7712.00,1.25
7711.00,1.25
7710.00,1.25
7709.00,1.25
7708.00,1.25
7707.00,1.25
7706.00,1.25
7705.00,1.25
7704.00,1.25
7703.00,1.25
7702.00,1.25
7701.00,1.25
7700.00,1.25
7699.00,1.25
7698.00,1.25
7697.00,1.25
7696.00,1.24
7695.00,1.24
7694.00,1.24
7693.00,1.24
7692.00,1.24
7691.00,1.25
7690.00,1.25
7689.00,1.25
7688.00,1.25
7687.00,1.25
7686.00,1.25
7685.00,1.25
7684.00,1.25
7683.00,1.25
7682.00,1.25
7681.00,1.25
7680.00,1.25
7679.00,1.25
7678.00,1.25
7677.00,1.25
7676.00,1.25
7675.00,1.25
7674.00,1.25
7673.00,1.25
7672.00,1.25
7671.00,1.25
7670.00,1.25
7669.00,1.25
7668.00,1.25
7667.00,1.25
7666.00,1.25
7665.00,1.25
7664.00,1.25
7663.00,1.25
7662.00,1.25
7661.00,1.25
7660.00,1.25
7659.00,1.25
7658.00,1.25
7657.00,1.25
7656.00,1.25
7655.00,1.25
7654.00,1.25
7653.00,1.25
7652.00,1.25
7651.00,1.25
7650.00,1.25
7649.00,1.25
7648.00,1.25
7647.00,1.25
7646.00,1.25
7645.00,1.25
7644.00,1.25
7643.00,1.25
7642.00,1.25
7641.00,1.25
7640.00,1.25
7639.00,1.25
7638.00,1.25
7637.00,1.25
7636.00,1.25
7635.00,1.25
7634.00,1.25
7633.00,1.25
7632.00,1.25
7631.00,1.25
7630.00,1.25
7629.00,1.25
7628.00,1.25
7627.00,1.24
7626.00,1.24
7625.00,1.24
7624.00,1.24
7623.00,1.24
7622.00,1.24
7621.00,1.24
7620.00,1.24
7619.00,1.24
7618.00,1.24
7617.00,1.24
7616.00,1.24
7615.00,1.24
7614.00,1.24
7613.00,1.24
7612.00,1.24
7611.00,1.24
7610.00,1.24
7609.00,1.24
7608.00,1.24
7607.00,1.25
7606.00,1.25
7605.00,1.25
7604.00,1.25
7603.00,1.25
7602.00,1.25
7601.00,1.25
7600.00,1.25
7599.00,1.25
7598.00,1.25
7597.00,1.25
7596.00,1.25
7595.00,1.25
7594.00,1.25
7593.00,1.25
7592.00,1.25
7591.00,1.25
7590.00,1.25
7589.00,1.25
7588.00,1.25
7587.00,1.25
7586.00,1.25
7585.00,1.25
7584.00,1.25
7583.00,1.25
7582.00,1.25
7581.00,1.25
7580.00,1.25
7579.00,1.25
7578.00,1.25
7577.00,1.25
7576.00,1.25
7575.00,1.25
7574.00,1.25
7573.00,1.25
7572.00,1.25
7571.00,1.25
7570.00,1.25
7569.00,1.25
7568.00,1.25
7567.00,1.25
7566.00,1.25
7565.00,1.25
7564.00,1.25
7563.00,1.25
7562.00,1.25
7561.00,1.25
7560.00,1.25
7559.00,1.25
7558.00,1.25
7557.00,1.25
7556.00,1.25
7555.00,1.25
7554.00,1.25
7553.00,1.25
7552.00,1.25
7551.00,1.24
7550.00,1.24
7549.00,1.24
7548.00,1.24
7547.00,1.24
7546.00,1.24
7545.00,1.24
7544.00,1.24
7543.00,1.24
7542.00,1.23
7541.00,1.23
7540.00,1.23
7539.00,1.23
7538.00,1.23
7537.00,1.23
7536.00,1.23
7535.00,1.23
7534.00,1.23
7533.00,1.23
7532.00,1.23
7531.00,1.23
7530.00,1.23
7529.00,1.23
7528.00,1.23
7527.00,1.23
7526.00,1.23
7525.00,1.23
7524.00,1.23
7523.00,1.23
7522.00,1.23
7521.00,1.23
7520.00,1.23
7519.00,1.23
7518.00,1.23
7517.00,1.23
7516.00,1.23
7515.00,1.23
7514.00,1.22
7513.00,1.22
7512.00,1.22
7511.00,1.22
7510.00,1.22
7509.00,1.22
7508.00,1.22
7507.00,1.22
7506.00,1.22
7505.00,1.22
7504.00,1.22
7503.00,1.22
7502.00,1.22
7501.00,1.22
7500.00,1.22
7499.00,1.22
7498.00,1.22
7497.00,1.22
7496.00,1.22
7495.00,1.22
7494.00,1.22
7493.00,1.22
7492.00,1.22
7491.00,1.22
7490.00,1.22
7489.00,1.22
7488.00,1.22
7487.00,1.22
7486.00,1.22
7485.00,1.22
7484.00,1.22
7483.00,1.21
7482.00,1.21
7481.00,1.21
7480.00,1.21
7479.00,1.21
7478.00,1.21
7477.00,1.21
7476.00,1.21
7475.00,1.21
7474.00,1.21
7473.00,1.21
7472.00,1.21
7471.00,1.21
7470.00,1.21
7469.00,1.21
7468.00,1.21
7467.00,1.21
7466.00,1.21
7465.00,1.21
7464.00,1.21
7463.00,1.21
7462.00,1.21
7461.00,1.21
7460.00,1.21
7459.00,1.21
7458.00,1.21
7457.00,1.21
7456.00,1.21
7455.00,1.21
7454.00,1.21
7453.00,1.20
7452.00,1.20
7451.00,1.20
7450.00,1.20
7449.00,1.20
7448.00,1.20
7447.00,1.20
7446.00,1.20
7445.00,1.20
7444.00,1.20
7443.00,1.20
7442.00,1.20
7441.00,1.20
7440.00,1.20
7439.00,1.20
7438.00,1.20
7437.00,1.20
7436.00,1.20
7435.00,1.20
7434.00,1.20
7433.00,1.20
7432.00,1.20
7431.00,1.20
7430.00,1.20
7429.00,1.20
7428.00,1.20
7427.00,1.20
7426.00,1.20
7425.00,1.20
7424.00,1.20
7423.00,1.19
7422.00,1.19
7421.00,1.19
7420.00,1.19
7419.00,1.19
7418.00,1.19
7417.00,1.19
7416.00,1.19
7415.00,1.18
7414.00,1.18
7413.00,1.18
7412.00,1.18
7411.00,1.18
7410.00,1.18
7409.00,1.18
7408.00,1.17
7407.00,1.17
7406.00,1.17
7405.00,1.17
7404.00,1.17
7403.00,1.17
7402.00,1.17
7401.00,1.17
7400.00,1.16
7399.00,1.16
7398.00,1.16
7397.00,1.16
7396.00,1.16
7395.00,1.16
7394.00,1.16
7393.00,1.16
7392.00,1.15
7391.00,1.15
7390.00,1.15
7389.00,1.15
7388.00,1.15
7387.00,1.15
7386.00,1.15
7385.00,1.14
7384.00,1.14
7383.00,1.14
7382.00,1.14
7381.00,1.14
7380.00,1.14
7379.00,1.14
7378.00,1.14
7377.00,1.14
7376.00,1.14
7375.00,1.14
7374.00,1.14
7373.00,1.14
7372.00,1.14
7371.00,1.14
7370.00,1.14
7369.00,1.14
7368.00,1.14
7367.00,1.14
7366.00,1.14
7365.00,1.14
7364.00,1.14
7363.00,1.14
7362.00,1.14
7361.00,1.14
7360.00,1.14
7359.00,1.14
7358.00,1.14
7357.00,1.14
7356.00,1.14
7355.00,1.14
7354.00,1.14
7353.00,1.14
7352.00,1.14
7351.00,1.14
7350.00,1.13
7349.00,1.13
7348.00,1.13
7347.00,1.13
7346.00,1.13
7345.00,1.13
7344.00,1.13
7343.00,1.13
7342.00,1.13
7341.00,1.13
7340.00,1.13
7339.00,1.13
7338.00,1.13
7337.00,1.13
7336.00,1.13
7335.00,1.13
7334.00,1.13
7333.00,1.13
7332.00,1.13
7331.00,1.13
7330.00,1.13
7329.00,1.13
7328.00,1.13
7327.00,1.13
7326.00,1.13
7325.00,1.13
7324.00,1.13
7323.00,1.13
7322.00,1.13
7321.00,1.13
7320.00,1.13
7319.00,1.13
7318.00,1.13
7317.00,1.13
7316.00,1.13
7315.00,1.13
7314.00,1.13
7313.00,1.12
7312.00,1.12
7311.00,1.12
7310.00,1.12
7309.00,1.12
7308.00,1.12
7307.00,1.12
7306.00,1.12
7305.00,1.11
7304.00,1.11
7303.00,1.11
7302.00,1.11
7301.00,1.11
7300.00,1.11
7299.00,1.11
7298.00,1.11
7297.00,1.11
7296.00,1.11
7295.00,1.10
7294.00,1.10
7293.00,1.10
7292.00,1.10
7291.00,1.10
7290.00,1.10
7289.00,1.10
7288.00,1.10
7287.00,1.09
7286.00,1.09
7285.00,1.09
7284.00,1.09
7283.00,1.09
7282.00,1.09
7281.00,1.09
7280.00,1.09
7279.00,1.09
7278.00,1.08
7277.00,1.08
7276.00,1.08
7275.00,1.08
7274.00,1.08
7273.00,1.08
7272.00,1.08
7271.00,1.08
7270.00,1.08
7269.00,1.08
7268.00,1.07
7267.00,1.07
7266.00,1.07
7265.00,1.07
7264.00,1.07
7263.00,1.07
7262.00,1.07
7261.00,1.07
7260.00,1.07
7259.00,1.07
7258.00,1.06
7257.00,1.06
7256.00,1.06
7255.00,1.06
7254.00,1.06
7253.00,1.06
7252.00,1.06
7251.00,1.06
7250.00,1.05
7249.00,1.05
7248.00,1.05
7247.00,1.05
7246.00,1.05
7245.00,1.05
7244.00,1.04
7243.00,1.04
7242.00,1.04
7241.00,1.04
7240.00,1.04
7239.00,1.03
7238.00,1.03
7237.00,1.03
7236.00,1.03
7235.00,1.02
7234.00,1.02
7233.00,1.02
7232.00,1.02
7231.00,1.01
7230.00,1.01
7229.00,1.01
7228.00,1.00
7227.00,1.00
7226.00,1.00
7225.00,0.99
7224.00,0.99
7223.00,0.99
7222.00,0.98
7221.00,0.98
7220.00,0.98
7219.00,0.98
7218.00,0.97
7217.00,0.97
7216.00,0.97
7215.00,0.96
7214.00,0.96
7213.00,0.96
7212.00,0.95
7211.00,0.95
7210.00,0.95
7209.00,0.94
7208.00,0.94
7207.00,0.94
7206.00,0.94
7205.00,0.93
7204.00,0.93
7203.00,0.93
7202.00,0.93
7201.00,0.92
7200.00,0.92
7199.00,0.92
7198.00,0.92
7197.00,0.91
7196.00,0.91
7195.00,0.91
7194.00,0.91
7193.00,0.90
7192.00,0.90
7191.00,0.90
7190.00,0.90
7189.00,0.89
7188.00,0.89
7187.00,0.89
7186.00,0.89
7185.00,0.88
7184.00,0.88
7183.00,0.88
7182.00,0.87
7181.00,0.87
7180.00,0.87
7179.00,0.86
7178.00,0.86
7177.00,0.86
7176.00,0.86
7175.00,0.85
7174.00,0.85
7173.00,0.85
7172.00,0.85
7171.00,0.84
7170.00,0.84
7169.00,0.84
7168.00,0.84
7167.00,0.83
7166.00,0.83
7165.00,0.83
7164.00,0.83
7163.00,0.83
7162.00,0.82
7161.00,0.82
7160.00,0.82
7159.00,0.82
7158.00,0.82
7157.00,0.81
7156.00,0.81
7155.00,0.81
7154.00,0.81
7153.00,0.80
7152.00,0.80
7151.00,0.80
7150.00,0.80
7149.00,0.79
7148.00,0.79
7147.00,0.79
7146.00,0.78
7145.00,0.78
7144.00,0.78
7143.00,0.78
7142.00,0.77
7141.00,0.77
7140.00,0.77
7139.00,0.77
7138.00,0.76
7137.00,0.76
7136.00,0.76
7135.00,0.76
7134.00,0.75
7133.00,0.75
7132.00,0.75
7131.00,0.75
7130.00,0.75
7129.00,0.74
7128.00,0.74
7127.00,0.74
7126.00,0.74
7125.00,0.74
7124.00,0.73
7123.00,0.73
7122.00,0.73
7121.00,0.73
7120.00,0.72
7119.00,0.72
7118.00,0.72
7117.00,0.72
7116.00,0.72
7115.00,0.71
7114.00,0.71
7113.00,0.71
7112.00,0.71
7111.00,0.70
7110.00,0.70
7109.00,0.70
7108.00,0.70
7107.00,0.70
7106.00,0.70
7105.00,0.69
7104.00,0.69
7103.00,0.69
7102.00,0.69
7101.00,0.69
7100.00,0.68
7099.00,0.68
7098.00,0.68
7097.00,0.68
7096.00,0.68
7095.00,0.68
7094.00,0.67
7093.00,0.67
7092.00,0.67
7091.00,0.67
7090.00,0.67
7089.00,0.67
7088.00,0.67
7087.00,0.67
7086.00,0.67
7085.00,0.67
7084.00,0.66
7083.00,0.66
7082.00,0.66
7081.00,0.66
7080.00,0.66
7079.00,0.66
7078.00,0.66
7077.00,0.66
7076.00,0.66
7075.00,0.65
7074.00,0.65
7073.00,0.65
7072.00,0.65
7071.00,0.65
7070.00,0.64
7069.00,0.64
7068.00,0.64
7067.00,0.64
7066.00,0.64
7065.00,0.64
7064.00,0.63
7063.00,0.63
7062.00,0.63
7061.00,0.63
7060.00,0.63
7059.00,0.63
7058.00,0.62
7057.00,0.62
7056.00,0.62
7055.00,0.62
7054.00,0.62
7053.00,0.62
7052.00,0.62
7051.00,0.61
7050.00,0.61
7049.00,0.61
7048.00,0.61
7047.00,0.61
7046.00,0.61
7045.00,0.60
7044.00,0.60
7043.00,0.60
7042.00,0.60
7041.00,0.60
7040.00,0.60
7039.00,0.60
7038.00,0.60
7037.00,0.60
7036.00,0.60
7035.00,0.60
7034.00,0.60
7033.00,0.59
7032.00,0.59
7031.00,0.59
7030.00,0.59
7029.00,0.59
7028.00,0.59
7027.00,0.59
7026.00,0.59
7025.00,0.59
7024.00,0.59
7023.00,0.59
7022.00,0.59
7021.00,0.59
7020.00,0.59
7019.00,0.59
7018.00,0.59
7017.00,0.59
7016.00,0.59
7015.00,0.59
7014.00,0.59
7013.00,0.59
7012.00,0.59
7011.00,0.59
7010.00,0.59
7009.00,0.59
7008.00,0.59
7007.00,0.59
7006.00,0.59
7005.00,0.59
7004.00,0.58
7003.00,0.58
7002.00,0.58
7001.00,0.58
7000.00,0.58
6999.00,0.58
6998.00,0.58
6997.00,0.57
6996.00,0.57
6995.00,0.57
6994.00,0.57
6993.00,0.57
6992.00,0.57
6991.00,0.56
6990.00,0.56
6989.00,0.56
6988.00,0.56
6987.00,0.56
6986.00,0.56
6985.00,0.56
6984.00,0.56
6983.00,0.56
6982.00,0.56
6981.00,0.56
6980.00,0.56
6979.00,0.56
6978.00,0.56
6977.00,0.55
6976.00,0.55
6975.00,0.55
6974.00,0.55
6973.00,0.55
6972.00,0.55
6971.00,0.55
6970.00,0.55
6969.00,0.55
6968.00,0.55
6967.00,0.55
6966.00,0.55
6965.00,0.55
6964.00,0.55
6963.00,0.55
6962.00,0.55
6961.00,0.55
6960.00,0.55
6959.00,0.55
6958.00,0.55
6957.00,0.55
6956.00,0.55
6955.00,0.55
6954.00,0.55
6953.00,0.55
6952.00,0.55
6951.00,0.55
6950.00,0.54
6949.00,0.54
6948.00,0.54
6947.00,0.54
6946.00,0.54
6945.00,0.54
6944.00,0.54
6943.00,0.54
6942.00,0.54
6941.00,0.54
6940.00,0.54
6939.00,0.54
6938.00,0.54
6937.00,0.54
6936.00,0.54
6935.00,0.54
6934.00,0.54
6933.00,0.54
6932.00,0.54
6931.00,0.54
6930.00,0.54
6929.00,0.54
6928.00,0.54
6927.00,0.54
6926.00,0.54
6925.00,0.54
6924.00,0.54
6923.00,0.54
6922.00,0.54
6921.00,0.54
6920.00,0.54
6919.00,0.54
6918.00,0.54
6917.00,0.54
6916.00,0.54
6915.00,0.54
6914.00,0.54
6913.00,0.54
6912.00,0.54
6911.00,0.54
6910.00,0.54
6909.00,0.54
6908.00,0.54
6907.00,0.54
6906.00,0.53
6905.00,0.53
6904.00,0.53
6903.00,0.53
6902.00,0.53
6901.00,0.53
6900.00,0.53
6899.00,0.53
6898.00,0.53
6897.00,0.53
6896.00,0.53
6895.00,0.53
6894.00,0.53
6893.00,0.53
6892.00,0.53
6891.00,0.53
6890.00,0.53
6889.00,0.53
6888.00,0.53
6887.00,0.53
6886.00,0.53
6885.00,0.53
6884.00,0.53
6883.00,0.53
6882.00,0.53
6881.00,0.53
6880.00,0.53
6879.00,0.53
6878.00,0.53
6877.00,0.53
6876.00,0.53
6875.00,0.53
6874.00,0.53
6873.00,0.53
6872.00,0.53
6871.00,0.53
6870.00,0.53
6869.00,0.53
6868.00,0.53
6867.00,0.53
6866.00,0.53
6865.00,0.53
6864.00,0.53
6863.00,0.53
6862.00,0.53
6861.00,0.53
6860.00,0.53
6859.00,0.53
6858.00,0.53
6857.00,0.53
6856.00,0.53
6855.00,0.53
6854.00,0.53
6853.00,0.53
6852.00,0.53
6851.00,0.53
6850.00,0.53
6849.00,0.53
6848.00,0.53
6847.00,0.53
6846.00,0.53
6845.00,0.53
6844.00,0.53
6843.00,0.53
6842.00,0.53
6841.00,0.53
6840.00,0.53
6839.00,0.53
6838.00,0.53
6837.00,0.53
6836.00,0.53
6835.00,0.53
6834.00,0.53
6833.00,0.53
6832.00,0.53
6831.00,0.53
6830.00,0.53
6829.00,0.53
6828.00,0.53
6827.00,0.53
6826.00,0.53
6825.00,0.53
6824.00,0.54
6823.00,0.54
6822.00,0.54
6821.00,0.54
6820.00,0.54
6819.00,0.54
6818.00,0.54
6817.00,0.54
6816.00,0.54
6815.00,0.54
6814.00,0.54
6813.00,0.54
6812.00,0.54
6811.00,0.54
6810.00,0.54
6809.00,0.54
6808.00,0.54
6807.00,0.54
6806.00,0.54
6805.00,0.54
6804.00,0.54
6803.00,0.54
6802.00,0.54
6801.00,0.54
6800.00,0.54
6799.00,0.54
6798.00,0.54
6797.00,0.54
6796.00,0.55
6795.00,0.55
6794.00,0.55
6793.00,0.55
6792.00,0.55
6791.00,0.55
6790.00,0.55
6789.00,0.55
6788.00,0.55
6787.00,0.55
6786.00,0.55
6785.00,0.55
6784.00,0.55
6783.00,0.56
6782.00,0.56
6781.00,0.56
6780.00,0.56
6779.00,0.56
6778.00,0.56
6777.00,0.56
6776.00,0.56
6775.00,0.56
6774.00,0.56
6773.00,0.56
6772.00,0.56
6771.00,0.56
6770.00,0.56
6769.00,0.56
6768.00,0.56
6767.00,0.56
6766.00,0.56
6765.00,0.56
6764.00,0.56
6763.00,0.56
6762.00,0.56
6761.00,0.56
6760.00,0.56
6759.00,0.56
6758.00,0.56
6757.00,0.56
6756.00,0.56
6755.00,0.56
6754.00,0.56
6753.00,0.56
6752.00,0.56
6751.00,0.56
6750.00,0.56
6749.00,0.56
6748.00,0.56
6747.00,0.56
6746.00,0.56
6745.00,0.56
6744.00,0.56
6743.00,0.56
6742.00,0.56
6741.00,0.57
6740.00,0.57
6739.00,0.57
6738.00,0.57
6737.00,0.57
6736.00,0.57
6735.00,0.57
6734.00,0.57
6733.00,0.57
6732.00,0.57
6731.00,0.57
6730.00,0.57
6729.00,0.58
6728.00,0.58
6727.00,0.58
6726.00,0.58
6725.00,0.58
6724.00,0.58
6723.00,0.58
6722.00,0.58
6721.00,0.58
6720.00,0.58
6719.00,0.58
6718.00,0.58
6717.00,0.58
6716.00,0.58
6715.00,0.58
6714.00,0.58
6713.00,0.58
6712.00,0.58
6711.00,0.58
6710.00,0.58
6709.00,0.58
6708.00,0.58
6707.00,0.58
6706.00,0.58
6705.00,0.58
6704.00,0.58
6703.00,0.58
6702.00,0.58
6701.00,0.59
6700.00,0.59
6699.00,0.59
6698.00,0.59
6697.00,0.59
6696.00,0.59
6695.00,0.59
6694.00,0.59
6693.00,0.60
6692.00,0.60
6691.00,0.60
6690.00,0.60
6689.00,0.60
6688.00,0.60
6687.00,0.60
6686.00,0.60
6685.00,0.60
6684.00,0.60
6683.00,0.60
6682.00,0.61
6681.00,0.61
6680.00,0.61
6679.00,0.61
6678.00,0.61
6677.00,0.61
6676.00,0.61
6675.00,0.61
6674.00,0.61
6673.00,0.61
6672.00,0.61
6671.00,0.61
6670.00,0.61
6669.00,0.61
6668.00,0.62
6667.00,0.62
6666.00,0.62
6665.00,0.62
6664.00,0.62
6663.00,0.62
6662.00,0.62
6661.00,0.62
6660.00,0.62
6659.00,0.62
6658.00,0.62
6657.00,0.62
6656.00,0.62
6655.00,0.62
6654.00,0.62
6653.00,0.62
6652.00,0.62
6651.00,0.62
6650.00,0.63
6649.00,0.63
6648.00,0.63
6647.00,0.63
6646.00,0.63
6645.00,0.63
6644.00,0.63
6643.00,0.63
6642.00,0.63
6641.00,0.63
6640.00,0.63
6639.00,0.63
6638.00,0.63
6637.00,0.63
6636.00,0.63
6635.00,0.63
6634.00,0.63
6633.00,0.64
6632.00,0.64
6631.00,0.64
6630.00,0.64
6629.00,0.64
6628.00,0.64
6627.00,0.64
6626.00,0.64
6625.00,0.65
6624.00,0.65
6623.00,0.65
6622.00,0.65
6621.00,0.65
6620.00,0.65
6619.00,0.65
6618.00,0.65
6617.00,0.65
6616.00,0.65
6615.00,0.65
6614.00,0.65
6613.00,0.65
6612.00,0.66
6611.00,0.66
6610.00,0.66
6609.00,0.66
6608.00,0.66
6607.00,0.66
6606.00,0.66
6605.00,0.66
6604.00,0.66
6603.00,0.66
6602.00,0.67
6601.00,0.67
6600.00,0.67
6599.00,0.67
6598.00,0.67
6597.00,0.67
6596.00,0.67
6595.00,0.67
6594.00,0.67
6593.00,0.68
6592.00,0.68
6591.00,0.68
6590.00,0.68
6589.00,0.68
6588.00,0.68
6587.00,0.68
6586.00,0.68
6585.00,0.68
6584.00,0.68
6583.00,0.69
6582.00,0.69
6581.00,0.69
6580.00,0.69
6579.00,0.69
6578.00,0.69
6577.00,0.69
6576.00,0.69
6575.00,0.69
6574.00,0.69
6573.00,0.69
6572.00,0.69
6571.00,0.69
6570.00,0.69
6569.00,0.69
6568.00,0.69
6567.00,0.69
6566.00,0.69
6565.00,0.69
6564.00,0.69
6563.00,0.69
6562.00,0.69
6561.00,0.69
6560.00,0.69
6559.00,0.69
6558.00,0.69
6557.00,0.70
6556.00,0.70
6555.00,0.70
6554.00,0.70
6553.00,0.70
6552.00,0.70
6551.00,0.70
6550.00,0.70
6549.00,0.70
6548.00,0.70
6547.00,0.70
6546.00,0.70
6545.00,0.71
6544.00,0.71
6543.00,0.71
6542.00,0.71
6541.00,0.71
6540.00,0.71
6539.00,0.71
6538.00,0.71
6537.00,0.71
6536.00,0.71
6535.00,0.71
6534.00,0.71
6533.00,0.71
6532.00,0.71
6531.00,0.72
6530.00,0.72
6529.00,0.72
6528.00,0.72
6527.00,0.72
6526.00,0.72
6525.00,0.72
6524.00,0.72
6523.00,0.72
6522.00,0.72
6521.00,0.72
6520.00,0.72
6519.00,0.73
6518.00,0.73
6517.00,0.73
6516.00,0.73
6515.00,0.73
6514.00,0.73
6513.00,0.73
6512.00,0.73
6511.00,0.73
6510.00,0.73
6509.00,0.73
6508.00,0.74
6507.00,0.74
6506.00,0.74
6505.00,0.74
6504.00,0.74
6503.00,0.74
6502.00,0.74
6501.00,0.74
6500.00,0.74
6499.00,0.74
6498.00,0.74
6497.00,0.74
6496.00,0.74
6495.00,0.74
6494.00,0.74
6493.00,0.74
6492.00,0.74
6491.00,0.74
6490.00,0.74
6489.00,0.74
6488.00,0.74
6487.00,0.74
6486.00,0.74
6485.00,0.74
6484.00,0.74
6483.00,0.74
6482.00,0.74
6481.00,0.74
6480.00,0.74
6479.00,0.74
6478.00,0.74
6477.00,0.74
6476.00,0.74
6475.00,0.74
6474.00,0.75
6473.00,0.75
6472.00,0.75
6471.00,0.75
6470.00,0.75
6469.00,0.75
6468.00,0.75
6467.00,0.75
6466.00,0.75
6465.00,0.76
6464.00,0.76
6463.00,0.76
6462.00,0.76
6461.00,0.76
6460.00,0.76
6459.00,0.76
6458.00,0.76
6457.00,0.76
6456.00,0.76
6455.00,0.76
6454.00,0.76
6453.00,0.76
6452.00,0.76
6451.00,0.76
6450.00,0.76
6449.00,0.76
6448.00,0.76
6447.00,0.76
6446.00,0.76
6445.00,0.76
6444.00,0.76
6443.00,0.76
6442.00,0.76
6441.00,0.76
6440.00,0.76
6439.00,0.77
6438.00,0.77
6437.00,0.77
6436.00,0.77
6435.00,0.77
6434.00,0.77
6433.00,0.77
6432.00,0.77
6431.00,0.77
6430.00,0.78
6429.00,0.78
6428.00,0.78
6427.00,0.78
6426.00,0.78
6425.00,0.78
6424.00,0.78
6423.00,0.78
6422.00,0.78
6421.00,0.78
6420.00,0.78
6419.00,0.78
6418.00,0.78
6417.00,0.79
6416.00,0.79
6415.00,0.79
6414.00,0.79
6413.00,0.79
6412.00,0.79
6411.00,0.79
6410.00,0.79
6409.00,0.79
6408.00,0.79
6407.00,0.79
6406.00,0.79
6405.00,0.79
6404.00,0.79
6403.00,0.79
6402.00,0.79
6401.00,0.79
6400.00,0.79
6399.00,0.79
6398.00,0.79
6397.00,0.79
6396.00,0.79
6395.00,0.79
6394.00,0.79
6393.00,0.79
6392.00,0.79
6391.00,0.79
6390.00,0.79
6389.00,0.79
6388.00,0.79
6387.00,0.79
6386.00,0.79
6385.00,0.79
6384.00,0.79
6383.00,0.79
6382.00,0.79
6381.00,0.79
6380.00,0.80
6379.00,0.80
6378.00,0.80
6377.00,0.80
6376.00,0.80
6375.00,0.80
6374.00,0.80
6373.00,0.80
6372.00,0.80
6371.00,0.80
6370.00,0.81
6369.00,0.81
6368.00,0.81
6367.00,0.81
6366.00,0.81
6365.00,0.81
6364.00,0.81
6363.00,0.81
6362.00,0.81
6361.00,0.81
6360.00,0.81
6359.00,0.81
6358.00,0.81
6357.00,0.81
6356.00,0.81
6355.00,0.81
6354.00,0.81
6353.00,0.81
6352.00,0.81
6351.00,0.82
6350.00,0.82
6349.00,0.82
6348.00,0.82
6347.00,0.82
6346.00,0.82
6345.00,0.82
6344.00,0.82
6343.00,0.82
6342.00,0.82
6341.00,0.82
6340.00,0.82
6339.00,0.82
6338.00,0.82
6337.00,0.83
6336.00,0.83
6335.00,0.83
6334.00,0.83
6333.00,0.83
6332.00,0.83
6331.00,0.83
6330.00,0.83
6329.00,0.83
6328.00,0.83
6327.00,0.83
6326.00,0.83
6325.00,0.83
6324.00,0.83
6323.00,0.83
6322.00,0.83
6321.00,0.83
6320.00,0.84
6319.00,0.84
6318.00,0.84
6317.00,0.84
6316.00,0.84
6315.00,0.84
6314.00,0.84
6313.00,0.84
6312.00,0.84
6311.00,0.84
6310.00,0.84
6309.00,0.85
6308.00,0.85
6307.00,0.85
6306.00,0.85
6305.00,0.85
6304.00,0.85
6303.00,0.85
6302.00,0.85
6301.00,0.85
6300.00,0.85
6299.00,0.86
6298.00,0.86
6297.00,0.86
6296.00,0.86
6295.00,0.86
6294.00,0.86
6293.00,0.86
6292.00,0.86
6291.00,0.86
6290.00,0.86
6289.00,0.86
6288.00,0.87
6287.00,0.87
6286.00,0.87
6285.00,0.87
6284.00,0.87
6283.00,0.87
6282.00,0.87
6281.00,0.87
6280.00,0.87
6279.00,0.87
6278.00,0.87
6277.00,0.87
6276.00,0.87
6275.00,0.87
6274.00,0.87
6273.00,0.87
6272.00,0.88
6271.00,0.88
6270.00,0.88
6269.00,0.88
6268.00,0.88
6267.00,0.88
6266.00,0.88
6265.00,0.88
6264.00,0.88
6263.00,0.88
6262.00,0.89
6261.00,0.89
6260.00,0.89
6259.00,0.89
6258.00,0.89
6257.00,0.89
6256.00,0.89
6255.00,0.89
6254.00,0.89
6253.00,0.90
6252.00,0.90
6251.00,0.90
6250.00,0.90
6249.00,0.90
6248.00,0.90
6247.00,0.91
6246.00,0.91
6245.00,0.91
6244.00,0.91
6243.00,0.91
6242.00,0.91
6241.00,0.91
6240.00,0.92
6239.00,0.92
6238.00,0.92
6237.00,0.92
6236.00,0.92
6235.00,0.92
6234.00,0.92
6233.00,0.92
6232.00,0.92
6231.00,0.92
6230.00,0.93
6229.00,0.93
6228.00,0.93
6227.00,0.93
6226.00,0.93
6225.00,0.93
6224.00,0.93
6223.00,0.93
6222.00,0.93
6221.00,0.93
6220.00,0.93
6219.00,0.93
6218.00,0.93
6217.00,0.94
6216.00,0.94
6215.00,0.94
6214.00,0.94
6213.00,0.94
6212.00,0.94
6211.00,0.94
6210.00,0.94
6209.00,0.95
6208.00,0.95
6207.00,0.95
6206.00,0.95
6205.00,0.95
6204.00,0.95
6203.00,0.95
6202.00,0.95
6201.00,0.95
6200.00,0.95
6199.00,0.96
6198.00,0.96
6197.00,0.96
6196.00,0.96
6195.00,0.96
6194.00,0.96
6193.00,0.96
6192.00,0.96
6191.00,0.97
6190.00,0.97
6189.00,0.97
6188.00,0.97
6187.00,0.97
6186.00,0.97
6185.00,0.97
6184.00,0.98
6183.00,0.98
6182.00,0.98
6181.00,0.98
6180.00,0.98
6179.00,0.98
6178.00,0.98
6177.00,0.99
6176.00,0.99
6175.00,0.99
6174.00,0.99
6173.00,0.99
6172.00,0.99
6171.00,0.99
6170.00,1.00
6169.00,1.00
6168.00,1.00
6167.00,1.00
6166.00,1.00
6165.00,1.00
6164.00,1.00
6163.00,1.01
6162.00,1.01
6161.00,1.01
6160.00,1.01
6159.00,1.01
6158.00,1.01
6157.00,1.01
6156.00,1.02
6155.00,1.02
6154.00,1.02
6153.00,1.02
6152.00,1.02
6151.00,1.02
6150.00,1.02
6149.00,1.03
6148.00,1.03
6147.00,1.03
6146.00,1.03
6145.00,1.03
6144.00,1.03
6143.00,1.03
6142.00,1.04
6141.00,1.04
6140.00,1.04
6139.00,1.04
6138.00,1.04
6137.00,1.04
6136.00,1.04
6135.00,1.04
6134.00,1.04
6133.00,1.05
6132.00,1.05
6131.00,1.05
6130.00,1.05
6129.00,1.05
6128.00,1.05
6127.00,1.05
6126.00,1.05
6125.00,1.05
6124.00,1.05
6123.00,1.05
6122.00,1.05
6121.00,1.06
6120.00,1.06
6119.00,1.06
6118.00,1.06
6117.00,1.06
6116.00,1.06
6115.00,1.06
6114.00,1.06
6113.00,1.06
6112.00,1.06
6111.00,1.07
6110.00,1.07
6109.00,1.07
6108.00,1.07
6107.00,1.07
6106.00,1.07
6105.00,1.07
6104.00,1.08
6103.00,1.08
6102.00,1.08
6101.00,1.08
6100.00,1.08
6099.00,1.09
6098.00,1.09
6097.00,1.09
6096.00,1.09
6095.00,1.09
6094.00,1.09
6093.00,1.09
6092.00,1.09
6091.00,1.10
6090.00,1.10
6089.00,1.10
6088.00,1.10
6087.00,1.10
6086.00,1.10
6085.00,1.10
6084.00,1.10
6083.00,1.11
6082.00,1.11
6081.00,1.11
6080.00,1.11
6079.00,1.11
6078.00,1.11
6077.00,1.11
6076.00,1.11
6075.00,1.11
6074.00,1.12
6073.00,1.12
6072.00,1.12
6071.00,1.12
6070.00,1.12
6069.00,1.12
6068.00,1.12
6067.00,1.12
6066.00,1.12
6065.00,1.13
6064.00,1.13
6063.00,1.13
6062.00,1.13
6061.00,1.13
6060.00,1.13
6059.00,1.13
6058.00,1.13
6057.00,1.13
6056.00,1.14
6055.00,1.14
6054.00,1.14
6053.00,1.14
6052.00,1.14
6051.00,1.14
6050.00,1.14
6049.00,1.14
6048.00,1.14
6047.00,1.14
6046.00,1.14
6045.00,1.14
6044.00,1.14
6043.00,1.14
6042.00,1.14
6041.00,1.14
6040.00,1.14
6039.00,1.14
6038.00,1.14
6037.00,1.14
6036.00,1.14
6035.00,1.15
6034.00,1.15
6033.00,1.15
6032.00,1.15
6031.00,1.15
6030.00,1.15
6029.00,1.15
6028.00,1.15
6027.00,1.15
6026.00,1.15
6025.00,1.15
6024.00,1.15
6023.00,1.15
6022.00,1.15
6021.00,1.15
6020.00,1.15
6019.00,1.15
6018.00,1.15
6017.00,1.15
6016.00,1.15
6015.00,1.15
6014.00,1.15
6013.00,1.15
6012.00,1.15
6011.00,1.15
6010.00,1.15
6009.00,1.15
6008.00,1.15
6007.00,1.15
6006.00,1.15
6005.00,1.15
6004.00,1.15
6003.00,1.15
6002.00,1.15
6001.00,1.15
6000.00,1.15
5999.00,1.14
5998.00,1.14
5997.00,1.14
5996.00,1.14
5995.00,1.14
5994.00,1.14
5993.00,1.14
5992.00,1.14
5991.00,1.14
5990.00,1.13
5989.00,1.13
5988.00,1.13
5987.00,1.13
5986.00,1.13
5985.00,1.12
5984.00,1.12
5983.00,1.12
5982.00,1.12
5981.00,1.11
5980.00,1.11
5979.00,1.11
5978.00,1.10
5977.00,1.10
5976.00,1.10
5975.00,1.09
5974.00,1.09
5973.00,1.09
5972.00,1.08
5971.00,1.08
5970.00,1.07
5969.00,1.07
5968.00,1.06
5967.00,1.05
5966.00,1.05
5965.00,1.04
5964.00,1.04
5963.00,1.03
5962.00,1.02
5961.00,1.02
5960.00,1.01
5959.00,1.00
5958.00,1.00
5957.00,0.99
5956.00,0.99
5955.00,0.98
5954.00,0.97
5953.00,0.97
5952.00,0.96
5951.00,0.96
5950.00,0.95
5949.00,0.95
5948.00,0.94
5947.00,0.94
5946.00,0.94
5945.00,0.93
5944.00,0.93
5943.00,0.93
5942.00,0.93
5941.00,0.92
5940.00,0.92
5939.00,0.92
5938.00,0.92
5937.00,0.92
5936.00,0.92
5935.00,0.92
5934.00,0.92
5933.00,0.91
5932.00,0.91
5931.00,0.91
5930.00,0.91
5929.00,0.91
5928.00,0.91
5927.00,0.91
5926.00,0.91
5925.00,0.91
5924.00,0.91
5923.00,0.91
5922.00,0.90
5921.00,0.90
5920.00,0.90
5919.00,0.90
5918.00,0.90
5917.00,0.89
5916.00,0.89
5915.00,0.89
5914.00,0.89
5913.00,0.88
5912.00,0.88
5911.00,0.88
5910.00,0.88
5909.00,0.87
5908.00,0.87
5907.00,0.87
5906.00,0.87
5905.00,0.87
5904.00,0.87
5903.00,0.87
5902.00,0.87
5901.00,0.87
5900.00,0.87
5899.00,0.87
5898.00,0.87
5897.00,0.87
5896.00,0.87
5895.00,0.87
5894.00,0.87
5893.00,0.87
5892.00,0.87
5891.00,0.88
5890.00,0.88
5889.00,0.88
5888.00,0.88
5887.00,0.88
5886.00,0.89
5885.00,0.89
5884.00,0.89
5883.00,0.89
5882.00,0.90
5881.00,0.90
5880.00,0.90
5879.00,0.90
5878.00,0.91
5877.00,0.91
5876.00,0.91
5875.00,0.91
5874.00,0.92
5873.00,0.92
5872.00,0.92
5871.00,0.92
5870.00,0.92
5869.00,0.92
5868.00,0.93
5867.00,0.93
5866.00,0.93
5865.00,0.93
5864.00,0.93
5863.00,0.93
5862.00,0.93
5861.00,0.94
5860.00,0.94
5859.00,0.94
5858.00,0.94
5857.00,0.94
5856.00,0.94
5855.00,0.94
5854.00,0.94
5853.00,0.94
5852.00,0.94
5851.00,0.95
5850.00,0.95
5849.00,0.95
5848.00,0.95
5847.00,0.95
5846.00,0.95
5845.00,0.95
5844.00,0.95
5843.00,0.95
5842.00,0.95
5841.00,0.95
5840.00,0.95
5839.00,0.95
5838.00,0.95
5837.00,0.95
5836.00,0.95
5835.00,0.95
5834.00,0.95
5833.00,0.95
5832.00,0.95
5831.00,0.95
5830.00,0.95
5829.00,0.95
5828.00,0.95
5827.00,0.95
5826.00,0.95
5825.00,0.95
5824.00,0.95
5823.00,0.95
5822.00,0.95
5821.00,0.95
5820.00,0.95
5819.00,0.95
5818.00,0.95
5817.00,0.95
5816.00,0.95
5815.00,0.95
5814.00,0.95
5813.00,0.95
5812.00,0.95
5811.00,0.95
5810.00,0.95
5809.00,0.95
5808.00,0.95
5807.00,0.95
5806.00,0.95
5805.00,0.95
5804.00,0.95
5803.00,0.95
5802.00,0.95
5801.00,0.95
5800.00,0.94
5799.00,0.94
5798.00,0.94
5797.00,0.94
5796.00,0.94
5795.00,0.94
5794.00,0.93
5793.00,0.93
5792.00,0.93
5791.00,0.93
5790.00,0.93
5789.00,0.92
5788.00,0.92
5787.00,0.92
5786.00,0.92
5785.00,0.92
5784.00,0.92
5783.00,0.91
5782.00,0.91
5781.00,0.91
5780.00,0.91
5779.00,0.91
5778.00,0.91
5777.00,0.91
5776.00,0.91
5775.00,0.91
5774.00,0.91
5773.00,0.91
5772.00,0.91
5771.00,0.91
5770.00,0.91
5769.00,0.91
5768.00,0.91
5767.00,0.91
5766.00,0.91
5765.00,0.92
5764.00,0.92
5763.00,0.92
5762.00,0.92
5761.00,0.92
5760.00,0.93
5759.00,0.93
5758.00,0.93
5757.00,0.94
5756.00,0.94
5755.00,0.94
5754.00,0.94
5753.00,0.95
5752.00,0.95
5751.00,0.95
5750.00,0.96
5749.00,0.96
5748.00,0.96
5747.00,0.96
5746.00,0.97
5745.00,0.97
5744.00,0.97
5743.00,0.98
5742.00,0.98
5741.00,0.98
5740.00,0.98
5739.00,0.99
5738.00,0.99
5737.00,0.99
5736.00,0.99
5735.00,1.00
5734.00,1.00
5733.00,1.00
5732.00,1.00
5731.00,1.00
5730.00,1.00
5729.00,1.01
5728.00,1.01
5727.00,1.01
5726.00,1.01
5725.00,1.01
5724.00,1.01
5723.00,1.01
5722.00,1.01
5721.00,1.01
5720.00,1.01
5719.00,1.01
5718.00,1.01
5717.00,1.01
5716.00,1.01
5715.00,1.01
5714.00,1.01
5713.00,1.01
5712.00,1.01
5711.00,1.01
5710.00,1.01
5709.00,1.01
5708.00,1.01
5707.00,1.01
5706.00,1.01
5705.00,1.01
5704.00,1.01
5703.00,1.00
5702.00,1.00
5701.00,1.00
5700.00,1.00
5699.00,1.00
5698.00,1.00
5697.00,1.00
5696.00,1.00
5695.00,1.00
5694.00,1.00
5693.00,0.99
5692.00,0.99
5691.00,0.99
5690.00,0.99
5689.00,0.99
5688.00,0.99
5687.00,0.99
5686.00,0.98
5685.00,0.98
5684.00,0.98
5683.00,0.98
5682.00,0.98
5681.00,0.98
5680.00,0.98
5679.00,0.98
5678.00,0.98
5677.00,0.98
5676.00,0.98
5675.00,0.97
5674.00,0.97
5673.00,0.97
5672.00,0.97
5671.00,0.97
5670.00,0.97
5669.00,0.97
5668.00,0.98
5667.00,0.98
5666.00,0.98
5665.00,0.98
5664.00,0.98
5663.00,0.98
5662.00,0.98
5661.00,0.98
5660.00,0.98
5659.00,0.99
5658.00,0.99
5657.00,0.99
5656.00,0.99
5655.00,0.99
5654.00,0.99
5653.00,1.00
5652.00,1.00
5651.00,1.00
5650.00,1.00
5649.00,1.00
5648.00,1.01
5647.00,1.01
5646.00,1.01
5645.00,1.01
5644.00,1.01
5643.00,1.02
5642.00,1.02
5641.00,1.02
5640.00,1.02
5639.00,1.02
5638.00,1.02
5637.00,1.02
5636.00,1.03
5635.00,1.03
5634.00,1.03
5633.00,1.03
5632.00,1.03
5631.00,1.03
5630.00,1.04
5629.00,1.04
5628.00,1.04
5627.00,1.04
5626.00,1.04
5625.00,1.04
5624.00,1.05
5623.00,1.05
5622.00,1.05
5621.00,1.05
5620.00,1.05
5619.00,1.05
5618.00,1.06
5617.00,1.06
5616.00,1.06
5615.00,1.06
5614.00,1.06
5613.00,1.06
5612.00,1.06
5611.00,1.07
5610.00,1.07
5609.00,1.07
5608.00,1.07
5607.00,1.07
5606.00,1.07
5605.00,1.07
5604.00,1.07
5603.00,1.08
5602.00,1.08
5601.00,1.08
5600.00,1.08
5599.00,1.08
5598.00,1.08
5597.00,1.08
5596.00,1.09
5595.00,1.09
5594.00,1.09
5593.00,1.09
5592.00,1.09
5591.00,1.10
5590.00,1.10
5589.00,1.10
5588.00,1.10
5587.00,1.10
5586.00,1.10
5585.00,1.11
5584.00,1.11
5583.00,1.11
5582.00,1.11
5581.00,1.11
5580.00,1.11
5579.00,1.12
5578.00,1.12
5577.00,1.12
5576.00,1.12
5575.00,1.12
5574.00,1.12
5573.00,1.13
5572.00,1.13
5571.00,1.13
5570.00,1.13
5569.00,1.13
5568.00,1.13
5567.00,1.13
5566.00,1.14
5565.00,1.14
5564.00,1.14
5563.00,1.14
5562.00,1.14
5561.00,1.14
5560.00,1.14
5559.00,1.14
5558.00,1.14
5557.00,1.14
5556.00,1.14
5555.00,1.14
5554.00,1.15
5553.00,1.15
5552.00,1.15
5551.00,1.15
5550.00,1.15
5549.00,1.15
5548.00,1.15
5547.00,1.15
5546.00,1.15
5545.00,1.16
5544.00,1.16
5543.00,1.16
5542.00,1.16
5541.00,1.16
5540.00,1.16
5539.00,1.16
5538.00,1.17
5537.00,1.17
5536.00,1.17
5535.00,1.17
5534.00,1.17
5533.00,1.17
5532.00,1.17
5531.00,1.17
5530.00,1.17
5529.00,1.18
5528.00,1.18
5527.00,1.18
5526.00,1.18
5525.00,1.18
5524.00,1.18
5523.00,1.18
5522.00,1.18
5521.00,1.18
5520.00,1.18
5519.00,1.19
5518.00,1.19
5517.00,1.19
5516.00,1.19
5515.00,1.19
5514.00,1.19
5513.00,1.19
5512.00,1.19
5511.00,1.19
5510.00,1.19
5509.00,1.19
5508.00,1.19
5507.00,1.19
5506.00,1.19
5505.00,1.19
5504.00,1.19
5503.00,1.19
5502.00,1.19
5501.00,1.19
5500.00,1.19
5499.00,1.19
5498.00,1.19
5497.00,1.20
5496.00,1.20
5495.00,1.20
5494.00,1.20
5493.00,1.20
5492.00,1.20
5491.00,1.20
5490.00,1.20
5489.00,1.20
5488.00,1.20
5487.00,1.20
5486.00,1.21
5485.00,1.21
5484.00,1.21
5483.00,1.21
5482.00,1.21
5481.00,1.21
5480.00,1.21
5479.00,1.21
5478.00,1.21
5477.00,1.21
5476.00,1.22
5475.00,1.22
5474.00,1.22
5473.00,1.22
5472.00,1.22
5471.00,1.22
5470.00,1.22
5469.00,1.23
5468.00,1.23
5467.00,1.23
5466.00,1.23
5465.00,1.23
5464.00,1.23
5463.00,1.23
5462.00,1.24
5461.00,1.24
5460.00,1.24
5459.00,1.24
5458.00,1.24
5457.00,1.24
5456.00,1.24
5455.00,1.24
5454.00,1.24
5453.00,1.24
5452.00,1.24
5451.00,1.24
5450.00,1.24
5449.00,1.24
5448.00,1.24
5447.00,1.24
5446.00,1.24
5445.00,1.24
5444.00,1.25
5443.00,1.25
5442.00,1.25
5441.00,1.25
5440.00,1.25
5439.00,1.25
5438.00,1.25
5437.00,1.25
5436.00,1.25
5435.00,1.25
5434.00,1.25
5433.00,1.25
5432.00,1.25
5431.00,1.25
5430.00,1.25
5429.00,1.25
5428.00,1.25
5427.00,1.25
5426.00,1.25
5425.00,1.25
5424.00,1.25
5423.00,1.25
5422.00,1.25
5421.00,1.25
5420.00,1.25
5419.00,1.25
5418.00,1.25
5417.00,1.25
5416.00,1.25
5415.00,1.25
5414.00,1.25
5413.00,1.25
5412.00,1.25
5411.00,1.25
5410.00,1.25
5409.00,1.25
5408.00,1.25
5407.00,1.25
5406.00,1.25
5405.00,1.25
5404.00,1.25
5403.00,1.25
5402.00,1.25
5401.00,1.25
5400.00,1.25
5399.00,1.25
5398.00,1.25
5397.00,1.25
5396.00,1.25
5395.00,1.25
5394.00,1.25
5393.00,1.25
5392.00,1.24
5391.00,1.24
5390.00,1.24
5389.00,1.24
5388.00,1.24
5387.00,1.24
5386.00,1.24
5385.00,1.23
5384.00,1.23
5383.00,1.23
5382.00,1.23
5381.00,1.23
5380.00,1.22
5379.00,1.22
5378.00,1.22
5377.00,1.21
5376.00,1.21
5375.00,1.21
5374.00,1.20
5373.00,1.20
5372.00,1.20
5371.00,1.19
5370.00,1.19
5369.00,1.18
5368.00,1.18
5367.00,1.17
5366.00,1.17
5365.00,1.16
5364.00,1.16
5363.00,1.15
5362.00,1.15
5361.00,1.14
5360.00,1.14
5359.00,1.13
5358.00,1.13
5357.00,1.12
5356.00,1.11
5355.00,1.11
5354.00,1.10
5353.00,1.09
5352.00,1.09
5351.00,1.08
5350.00,1.07
5349.00,1.06
5348.00,1.06
5347.00,1.05
5346.00,1.04
5345.00,1.03
5344.00,1.02
5343.00,1.02
5342.00,1.01
5341.00,1.00
5340.00,0.99
5339.00,0.98
5338.00,0.97
5337.00,0.96
5336.00,0.96
5335.00,0.95
5334.00,0.94
5333.00,0.93
5332.00,0.92
5331.00,0.91
5330.00,0.90
5329.00,0.90
5328.00,0.89
5327.00,0.88
5326.00,0.87
5325.00,0.86
5324.00,0.85
5323.00,0.84
5322.00,0.83
5321.00,0.83
5320.00,0.82
5319.00,0.81
5318.00,0.80
5317.00,0.79
5316.00,0.78
5315.00,0.77
5314.00,0.77
5313.00,0.76
5312.00,0.75
5311.00,0.74
5310.00,0.73
5309.00,0.73
5308.00,0.72
5307.00,0.71
5306.00,0.71
5305.00,0.70
5304.00,0.69
5303.00,0.69
5302.00,0.68
5301.00,0.68
5300.00,0.67
5299.00,0.67
5298.00,0.67
5297.00,0.66
5296.00,0.66
5295.00,0.66
5294.00,0.65
5293.00,0.65
5292.00,0.65
5291.00,0.65
5290.00,0.65
5289.00,0.64
5288.00,0.64
5287.00,0.64
5286.00,0.64
5285.00,0.64
5284.00,0.64
5283.00,0.64
5282.00,0.63
5281.00,0.63
5280.00,0.63
5279.00,0.63
5278.00,0.63
5277.00,0.63
5276.00,0.63
5275.00,0.63
5274.00,0.63
5273.00,0.63
5272.00,0.62
5271.00,0.62
5270.00,0.62
5269.00,0.62
5268.00,0.62
5267.00,0.62
5266.00,0.62
5265.00,0.62
5264.00,0.62
5263.00,0.62
5262.00,0.62
5261.00,0.61
5260.00,0.61
5259.00,0.61
5258.00,0.61
5257.00,0.61
5256.00,0.61
5255.00,0.61
5254.00,0.61
5253.00,0.61
5252.00,0.61
5251.00,0.61
5250.00,0.61
5249.00,0.61
5248.00,0.60
5247.00,0.60
5246.00,0.60
5245.00,0.60
5244.00,0.60
5243.00,0.60
5242.00,0.60
5241.00,0.60
5240.00,0.61
5239.00,0.61
5238.00,0.61
5237.00,0.61
5236.00,0.61
5235.00,0.61
5234.00,0.61
5233.00,0.61
5232.00,0.61
5231.00,0.61
5230.00,0.61
5229.00,0.61
5228.00,0.61
5227.00,0.61
5226.00,0.61
5225.00,0.61
5224.00,0.61
5223.00,0.61
5222.00,0.61
5221.00,0.61
5220.00,0.61
5219.00,0.61
5218.00,0.61
5217.00,0.61
5216.00,0.61
5215.00,0.61
5214.00,0.61
5213.00,0.61
5212.00,0.62
5211.00,0.62
5210.00,0.62
5209.00,0.62
5208.00,0.62
5207.00,0.62
5206.00,0.62
5205.00,0.62
5204.00,0.62
5203.00,0.62
5202.00,0.62
5201.00,0.62
5200.00,0.62
5199.00,0.62
5198.00,0.62
5197.00,0.62
5196.00,0.62
5195.00,0.62
5194.00,0.62
5193.00,0.62
5192.00,0.62
5191.00,0.62
5190.00,0.62
5189.00,0.62
5188.00,0.62
5187.00,0.62
5186.00,0.62
5185.00,0.62
5184.00,0.62
5183.00,0.63
5182.00,0.63
5181.00,0.63
5180.00,0.63
5179.00,0.63
5178.00,0.63
5177.00,0.63
5176.00,0.63
5175.00,0.63
5174.00,0.63
5173.00,0.63
5172.00,0.63
5171.00,0.63
5170.00,0.63
5169.00,0.63
5168.00,0.63
5167.00,0.63
5166.00,0.63
5165.00,0.64
5164.00,0.64
5163.00,0.64
5162.00,0.64
5161.00,0.64
5160.00,0.64
5159.00,0.64
5158.00,0.64
5157.00,0.64
5156.00,0.64
5155.00,0.64
5154.00,0.64
5153.00,0.64
5152.00,0.64
5151.00,0.64
5150.00,0.64
5149.00,0.64
5148.00,0.64
5147.00,0.64
5146.00,0.64
5145.00,0.64
5144.00,0.64
5143.00,0.64
5142.00,0.64
5141.00,0.64
5140.00,0.64
5139.00,0.65
5138.00,0.65
5137.00,0.65
5136.00,0.65
5135.00,0.65
5134.00,0.65
5133.00,0.65
5132.00,0.65
5131.00,0.65
5130.00,0.65
5129.00,0.65
5128.00,0.65
5127.00,0.65
5126.00,0.65
5125.00,0.65
5124.00,0.65
5123.00,0.65
5122.00,0.65
5121.00,0.65
5120.00,0.65
5119.00,0.65
5118.00,0.65
5117.00,0.65
5116.00,0.65
5115.00,0.65
5114.00,0.65
5113.00,0.65
5112.00,0.65
5111.00,0.65
5110.00,0.66
5109.00,0.66
5108.00,0.66
5107.00,0.66
5106.00,0.66
5105.00,0.66
5104.00,0.66
5103.00,0.66
5102.00,0.66
5101.00,0.66
5100.00,0.66
5099.00,0.66
5098.00,0.66
5097.00,0.66
5096.00,0.66
5095.00,0.67
5094.00,0.67
5093.00,0.67
5092.00,0.67
5091.00,0.67
5090.00,0.67
5089.00,0.67
5088.00,0.67
5087.00,0.67
5086.00,0.67
5085.00,0.67
5084.00,0.67
5083.00,0.67
5082.00,0.67
5081.00,0.67
5080.00,0.67
5079.00,0.67
5078.00,0.67
5077.00,0.68
5076.00,0.68
5075.00,0.68
5074.00,0.68
5073.00,0.68
5072.00,0.68
5071.00,0.68
5070.00,0.68
5069.00,0.68
5068.00,0.68
5067.00,0.68
5066.00,0.68
5065.00,0.68
5064.00,0.68
5063.00,0.68
5062.00,0.68
5061.00,0.68
5060.00,0.68
5059.00,0.68
5058.00,0.68
5057.00,0.68
5056.00,0.68
5055.00,0.68
5054.00,0.68
5053.00,0.68
5052.00,0.69
5051.00,0.69
5050.00,0.69
5049.00,0.69
5048.00,0.69
5047.00,0.69
5046.00,0.69
5045.00,0.69
5044.00,0.69
5043.00,0.69
5042.00,0.69
5041.00,0.69
5040.00,0.69
5039.00,0.69
5038.00,0.69
5037.00,0.69
5036.00,0.70
5035.00,0.70
5034.00,0.70
5033.00,0.70
5032.00,0.70
5031.00,0.70
5030.00,0.70
5029.00,0.70
5028.00,0.70
5027.00,0.70
5026.00,0.70
5025.00,0.70
5024.00,0.70
5023.00,0.70
5022.00,0.70
5021.00,0.70
5020.00,0.71
5019.00,0.71
5018.00,0.71
5017.00,0.71
5016.00,0.71
5015.00,0.71
5014.00,0.71
5013.00,0.71
5012.00,0.71
5011.00,0.71
5010.00,0.71
5009.00,0.71
5008.00,0.71
5007.00,0.71
5006.00,0.71
5005.00,0.72
5004.00,0.72
5003.00,0.72
5002.00,0.72
5001.00,0.72
5000.00,0.72
4999.00,0.72
4998.00,0.72
4997.00,0.73
4996.00,0.73
4995.00,0.73
4994.00,0.73
4993.00,0.73
4992.00,0.73
4991.00,0.73
4990.00,0.74
4989.00,0.74
4988.00,0.74
4987.00,0.74
4986.00,0.74
4985.00,0.74
4984.00,0.74
4983.00,0.74
4982.00,0.75
4981.00,0.75
4980.00,0.75
4979.00,0.75
4978.00,0.75
4977.00,0.75
4976.00,0.75
4975.00,0.75
4974.00,0.75
4973.00,0.75
4972.00,0.75
4971.00,0.75
4970.00,0.75
4969.00,0.75
4968.00,0.75
4967.00,0.75
4966.00,0.75
4965.00,0.75
4964.00,0.75
4963.00,0.75
4962.00,0.75
4961.00,0.75
4960.00,0.75
4959.00,0.75
4958.00,0.75
4957.00,0.75
4956.00,0.75
4955.00,0.75
4954.00,0.75
4953.00,0.75
4952.00,0.75
4951.00,0.75
4950.00,0.76
4949.00,0.76
4948.00,0.76
4947.00,0.76
4946.00,0.76
4945.00,0.76
4944.00,0.76
4943.00,0.76
4942.00,0.76
4941.00,0.76
4940.00,0.76
4939.00,0.76
4938.00,0.76
4937.00,0.77
4936.00,0.77
4935.00,0.77
4934.00,0.77
4933.00,0.77
4932.00,0.77
4931.00,0.77
4930.00,0.77
4929.00,0.77
4928.00,0.78
4927.00,0.78
4926.00,0.78
4925.00,0.78
4924.00,0.78
4923.00,0.78
4922.00,0.78
4921.00,0.78
4920.00,0.79
4919.00,0.79
4918.00,0.79
4917.00,0.79
4916.00,0.79
4915.00,0.79
4914.00,0.79
4913.00,0.79
4912.00,0.79
4911.00,0.79
4910.00,0.79
4909.00,0.79
4908.00,0.79
4907.00,0.79
4906.00,0.79
4905.00,0.79
4904.00,0.78
4903.00,0.78
4902.00,0.78
4901.00,0.78
4900.00,0.78
4899.00,0.79
4898.00,0.79
4897.00,0.79
4896.00,0.79
4895.00,0.79
4894.00,0.79
4893.00,0.79
4892.00,0.79
4891.00,0.79
4890.00,0.79
4889.00,0.79
4888.00,0.79
4887.00,0.79
4886.00,0.79
4885.00,0.79
4884.00,0.79
4883.00,0.79
4882.00,0.79
4881.00,0.80
4880.00,0.80
4879.00,0.80
4878.00,0.80
4877.00,0.80
4876.00,0.80
4875.00,0.80
4874.00,0.80
4873.00,0.80
4872.00,0.80
4871.00,0.80
4870.00,0.80
4869.00,0.80
4868.00,0.80
4867.00,0.81
4866.00,0.81
4865.00,0.81
4864.00,0.81
4863.00,0.81
4862.00,0.81
4861.00,0.81
4860.00,0.81
4859.00,0.81
4858.00,0.81
4857.00,0.81
4856.00,0.81
4855.00,0.81
4854.00,0.81
4853.00,0.81
4852.00,0.81
4851.00,0.81
4850.00,0.81
4849.00,0.81
4848.00,0.81
4847.00,0.81
4846.00,0.81
4845.00,0.81
4844.00,0.81
4843.00,0.81
4842.00,0.81
4841.00,0.81
4840.00,0.81
4839.00,0.81
4838.00,0.82
4837.00,0.82
4836.00,0.82
4835.00,0.82
4834.00,0.82
4833.00,0.82
4832.00,0.82
4831.00,0.83
4830.00,0.83
4829.00,0.83
4828.00,0.83
4827.00,0.83
4826.00,0.83
4825.00,0.83
4824.00,0.83
4823.00,0.83
4822.00,0.84
4821.00,0.84
4820.00,0.84
4819.00,0.84
4818.00,0.84
4817.00,0.84
4816.00,0.84
4815.00,0.84
4814.00,0.84
4813.00,0.84
4812.00,0.84
4811.00,0.84
4810.00,0.84
4809.00,0.84
4808.00,0.84
4807.00,0.84
4806.00,0.85
4805.00,0.85
4804.00,0.85
4803.00,0.85
4802.00,0.85
4801.00,0.85
4800.00,0.85
4799.00,0.85
4798.00,0.85
4797.00,0.86
4796.00,0.86
4795.00,0.86
4794.00,0.86
4793.00,0.86
4792.00,0.86
4791.00,0.86
4790.00,0.86
4789.00,0.86
4788.00,0.86
4787.00,0.86
4786.00,0.86
4785.00,0.86
4784.00,0.87
4783.00,0.87
4782.00,0.87
4781.00,0.87
4780.00,0.87
4779.00,0.87
4778.00,0.87
4777.00,0.87
4776.00,0.87
4775.00,0.87
4774.00,0.87
4773.00,0.87
4772.00,0.87
4771.00,0.87
4770.00,0.88
4769.00,0.88
4768.00,0.88
4767.00,0.88
4766.00,0.88
4765.00,0.88
4764.00,0.88
4763.00,0.88
4762.00,0.88
4761.00,0.89
4760.00,0.89
4759.00,0.89
4758.00,0.89
4757.00,0.89
4756.00,0.89
4755.00,0.89
4754.00,0.89
4753.00,0.89
4752.00,0.89
4751.00,0.89
4750.00,0.89
4749.00,0.89
4748.00,0.89
4747.00,0.89
4746.00,0.89
4745.00,0.90
4744.00,0.90
4743.00,0.90
4742.00,0.90
4741.00,0.90
4740.00,0.90
4739.00,0.90
4738.00,0.91
4737.00,0.91
4736.00,0.91
4735.00,0.91
4734.00,0.91
4733.00,0.91
4732.00,0.92
4731.00,0.92
4730.00,0.92
4729.00,0.92
4728.00,0.92
4727.00,0.93
4726.00,0.93
4725.00,0.93
4724.00,0.93
4723.00,0.93
4722.00,0.93
4721.00,0.94
4720.00,0.94
4719.00,0.94
4718.00,0.94
4717.00,0.94
4716.00,0.94
4715.00,0.94
4714.00,0.94
4713.00,0.94
4712.00,0.95
4711.00,0.95
4710.00,0.95
4709.00,0.95
4708.00,0.95
4707.00,0.95
4706.00,0.95
4705.00,0.96
4704.00,0.96
4703.00,0.96
4702.00,0.96
4701.00,0.96
4700.00,0.96
4699.00,0.97
4698.00,0.97
4697.00,0.97
4696.00,0.97
4695.00,0.97
4694.00,0.97
4693.00,0.97
4692.00,0.98
4691.00,0.98
4690.00,0.98
4689.00,0.98
4688.00,0.98
4687.00,0.98
4686.00,0.98
4685.00,0.99
4684.00,0.99
4683.00,0.99
4682.00,0.99
4681.00,0.99
4680.00,0.99
4679.00,0.99
4678.00,0.99
4677.00,1.00
4676.00,1.00
4675.00,1.00
4674.00,1.00
4673.00,1.00
4672.00,1.00
4671.00,1.00
4670.00,1.00
4669.00,1.00
4668.00,1.00
4667.00,1.01
4666.00,1.01
4665.00,1.01
4664.00,1.01
4663.00,1.01
4662.00,1.01
4661.00,1.01
4660.00,1.01
4659.00,1.01
4658.00,1.01
4657.00,1.02
4656.00,1.02
4655.00,1.02
4654.00,1.02
4653.00,1.02
4652.00,1.02
4651.00,1.02
4650.00,1.03
4649.00,1.03
4648.00,1.03
4647.00,1.03
4646.00,1.03
4645.00,1.03
4644.00,1.03
4643.00,1.03
4642.00,1.04
4641.00,1.04
4640.00,1.04
4639.00,1.04
4638.00,1.04
4637.00,1.04
4636.00,1.04
4635.00,1.04
4634.00,1.05
4633.00,1.05
4632.00,1.05
4631.00,1.05
4630.00,1.05
4629.00,1.05
4628.00,1.06
4627.00,1.06
4626.00,1.06
4625.00,1.06
4624.00,1.06
4623.00,1.06
4622.00,1.06
4621.00,1.06
4620.00,1.06
4619.00,1.06
4618.00,1.06
4617.00,1.06
4616.00,1.06
4615.00,1.06
4614.00,1.06
4613.00,1.06
4612.00,1.06
4611.00,1.06
4610.00,1.06
4609.00,1.06
4608.00,1.06
4607.00,1.06
4606.00,1.06
4605.00,1.06
4604.00,1.06
4603.00,1.07
4602.00,1.07
4601.00,1.07
4600.00,1.07
4599.00,1.07
4598.00,1.07
4597.00,1.07
4596.00,1.07
4595.00,1.07
4594.00,1.07
4593.00,1.07
4592.00,1.07
4591.00,1.08
4590.00,1.08
4589.00,1.08
4588.00,1.08
4587.00,1.08
4586.00,1.08
4585.00,1.08
4584.00,1.08
4583.00,1.08
4582.00,1.08
4581.00,1.09
4580.00,1.09
4579.00,1.09
4578.00,1.09
4577.00,1.09
4576.00,1.09
4575.00,1.10
4574.00,1.10
4573.00,1.10
4572.00,1.10
4571.00,1.10
4570.00,1.10
4569.00,1.10
4568.00,1.11
4567.00,1.11
4566.00,1.11
4565.00,1.11
4564.00,1.11
4563.00,1.11
4562.00,1.11
4561.00,1.11
4560.00,1.11
4559.00,1.11
4558.00,1.11
4557.00,1.11
4556.00,1.11
4555.00,1.11
4554.00,1.11
4553.00,1.11
4552.00,1.11
4551.00,1.11
4550.00,1.11
4549.00,1.12
4548.00,1.12
4547.00,1.12
4546.00,1.12
4545.00,1.12
4544.00,1.12
4543.00,1.12
4542.00,1.12
4541.00,1.12
4540.00,1.12
4539.00,1.12
4538.00,1.12
4537.00,1.12
4536.00,1.13
4535.00,1.13
4534.00,1.13
4533.00,1.13
4532.00,1.13
4531.00,1.13
4530.00,1.13
4529.00,1.13
4528.00,1.13
4527.00,1.13
4526.00,1.13
4525.00,1.13
4524.00,1.13
4523.00,1.13
4522.00,1.13
4521.00,1.13
4520.00,1.13
4519.00,1.13
4518.00,1.13
4517.00,1.13
4516.00,1.13
4515.00,1.14
4514.00,1.14
4513.00,1.14
4512.00,1.14
4511.00,1.14
4510.00,1.14
4509.00,1.14
4508.00,1.14
4507.00,1.14
4506.00,1.14
4505.00,1.14
4504.00,1.14
4503.00,1.14
4502.00,1.14
4501.00,1.14
4500.00,1.14
4499.00,1.14
4498.00,1.14
4497.00,1.14
4496.00,1.14
4495.00,1.14
4494.00,1.14
4493.00,1.14
4492.00,1.14
4491.00,1.13
4490.00,1.13
4489.00,1.13
4488.00,1.13
4487.00,1.13
4486.00,1.13
4485.00,1.13
4484.00,1.13
4483.00,1.12
4482.00,1.12
4481.00,1.12
4480.00,1.12
4479.00,1.12
4478.00,1.11
4477.00,1.11
4476.00,1.11
4475.00,1.11
4474.00,1.11
4473.00,1.11
4472.00,1.10
4471.00,1.10
4470.00,1.10
4469.00,1.10
4468.00,1.10
4467.00,1.10
4466.00,1.09
4465.00,1.09
4464.00,1.09
4463.00,1.09
4462.00,1.09
4461.00,1.09
4460.00,1.08
4459.00,1.08
4458.00,1.08
4457.00,1.08
4456.00,1.07
4455.00,1.07
4454.00,1.07
4453.00,1.07
4452.00,1.07
4451.00,1.06
4450.00,1.06
4449.00,1.06
4448.00,1.06
4447.00,1.05
4446.00,1.05
4445.00,1.05
4444.00,1.05
4443.00,1.04
4442.00,1.04
4441.00,1.04
4440.00,1.04
4439.00,1.03
4438.00,1.03
4437.00,1.03
4436.00,1.02
4435.00,1.02
4434.00,1.02
4433.00,1.02
4432.00,1.01
4431.00,1.01
4430.00,1.01
4429.00,1.01
4428.00,1.00
4427.00,1.00
4426.00,1.00
4425.00,1.00
4424.00,1.00
4423.00,1.00
4422.00,1.00
4421.00,1.00
4420.00,0.99
4419.00,0.99
4418.00,0.99
4417.00,0.99
4416.00,1.00
4415.00,1.00
4414.00,1.00
4413.00,1.00
4412.00,1.00
4411.00,1.00
4410.00,1.00
4409.00,1.00
4408.00,1.00
4407.00,1.00
4406.00,1.00
4405.00,1.00
4404.00,1.00
4403.00,1.00
4402.00,1.00
4401.00,1.00
4400.00,1.00
4399.00,1.00
4398.00,1.00
4397.00,1.00
4396.00,1.01
4395.00,1.01
4394.00,1.01
4393.00,1.01
4392.00,1.01
4391.00,1.01
4390.00,1.01
4389.00,1.01
4388.00,1.01
4387.00,1.01
4386.00,1.01
4385.00,1.02
4384.00,1.02
4383.00,1.02
4382.00,1.02
4381.00,1.02
4380.00,1.02
4379.00,1.02
4378.00,1.02
4377.00,1.02
4376.00,1.03
4375.00,1.03
4374.00,1.03
4373.00,1.03
4372.00,1.03
4371.00,1.03
4370.00,1.03
4369.00,1.03
4368.00,1.03
4367.00,1.03
4366.00,1.03
4365.00,1.03
4364.00,1.03
4363.00,1.03
4362.00,1.03
4361.00,1.03
4360.00,1.03
4359.00,1.03
4358.00,1.03
4357.00,1.03
4356.00,1.03
4355.00,1.03
4354.00,1.03
4353.00,1.03
4352.00,1.03
4351.00,1.03
4350.00,1.03
4349.00,1.03
4348.00,1.04
4347.00,1.04
4346.00,1.04
4345.00,1.04
4344.00,1.04
4343.00,1.04
4342.00,1.04
4341.00,1.04
4340.00,1.04
4339.00,1.04
4338.00,1.04
4337.00,1.04
4336.00,1.04
4335.00,1.04
4334.00,1.04
4333.00,1.04
4332.00,1.04
4331.00,1.04
4330.00,1.04
4329.00,1.04
4328.00,1.04
4327.00,1.04
4326.00,1.04
4325.00,1.04
4324.00,1.04
4323.00,1.04
4322.00,1.04
4321.00,1.04
4320.00,1.05
4319.00,1.05
4318.00,1.05
4317.00,1.05
4316.00,1.05
4315.00,1.06
4314.00,1.06
4313.00,1.06
4312.00,1.06
4311.00,1.06
4310.00,1.06
4309.00,1.07
4308.00,1.07
4307.00,1.07
4306.00,1.07
4305.00,1.07
4304.00,1.07
4303.00,1.07
4302.00,1.07
4301.00,1.07
4300.00,1.07
4299.00,1.07
4298.00,1.07
4297.00,1.07
4296.00,1.07
4295.00,1.07
4294.00,1.08
4293.00,1.08
4292.00,1.08
4291.00,1.08
4290.00,1.08
4289.00,1.08
4288.00,1.08
4287.00,1.09
4286.00,1.09
4285.00,1.09
4284.00,1.09
4283.00,1.09
4282.00,1.09
4281.00,1.09
4280.00,1.10
4279.00,1.10
4278.00,1.10
4277.00,1.10
4276.00,1.10
4275.00,1.10
4274.00,1.10
4273.00,1.10
4272.00,1.10
4271.00,1.10
4270.00,1.10
4269.00,1.10
4268.00,1.10
4267.00,1.10
4266.00,1.10
4265.00,1.10
4264.00,1.10
4263.00,1.10
4262.00,1.10
4261.00,1.10
4260.00,1.10
4259.00,1.10
4258.00,1.10
4257.00,1.10
4256.00,1.10
4255.00,1.10
4254.00,1.10
4253.00,1.10
4252.00,1.10
4251.00,1.11
4250.00,1.11
4249.00,1.11
4248.00,1.11
4247.00,1.11
4246.00,1.11
4245.00,1.11
4244.00,1.11
4243.00,1.11
4242.00,1.12
4241.00,1.12
4240.00,1.12
4239.00,1.12
4238.00,1.12
4237.00,1.12
4236.00,1.12
4235.00,1.12
4234.00,1.12
4233.00,1.12
4232.00,1.12
4231.00,1.12
4230.00,1.12
4229.00,1.12
4228.00,1.12
4227.00,1.12
4226.00,1.12
4225.00,1.12
4224.00,1.12
4223.00,1.12
4222.00,1.12
4221.00,1.12
4220.00,1.12
4219.00,1.12
4218.00,1.12
4217.00,1.12
4216.00,1.12
4215.00,1.13
4214.00,1.13
4213.00,1.13
4212.00,1.13
4211.00,1.13
4210.00,1.13
4209.00,1.13
4208.00,1.13
4207.00,1.14
4206.00,1.14
4205.00,1.14
4204.00,1.14
4203.00,1.14
4202.00,1.14
4201.00,1.14
4200.00,1.15
4199.00,1.15
4198.00,1.15
4197.00,1.15
4196.00,1.15
4195.00,1.15
4194.00,1.15
4193.00,1.15
4192.00,1.15
4191.00,1.15
4190.00,1.15
4189.00,1.15
4188.00,1.15
4187.00,1.15
4186.00,1.15
4185.00,1.15
4184.00,1.15
4183.00,1.15
4182.00,1.15
4181.00,1.15
4180.00,1.15
4179.00,1.15
4178.00,1.15
4177.00,1.15
4176.00,1.15
4175.00,1.16
4174.00,1.16
4173.00,1.16
4172.00,1.16
4171.00,1.16
4170.00,1.16
4169.00,1.16
4168.00,1.16
4167.00,1.16
4166.00,1.16
4165.00,1.16
4164.00,1.16
4163.00,1.16
4162.00,1.16
4161.00,1.16
4160.00,1.16
4159.00,1.16
4158.00,1.16
4157.00,1.16
4156.00,1.16
4155.00,1.15
4154.00,1.15
4153.00,1.15
4152.00,1.15
4151.00,1.15
4150.00,1.15
4149.00,1.15
4148.00,1.15
4147.00,1.16
4146.00,1.16
4145.00,1.16
4144.00,1.16
4143.00,1.16
4142.00,1.16
4141.00,1.16
4140.00,1.16
4139.00,1.16
4138.00,1.17
4137.00,1.17
4136.00,1.17
4135.00,1.17
4134.00,1.17
4133.00,1.17
4132.00,1.17
4131.00,1.17
4130.00,1.17
4129.00,1.17
4128.00,1.17
4127.00,1.18
4126.00,1.18
4125.00,1.18
4124.00,1.18
4123.00,1.18
4122.00,1.18
4121.00,1.18
4120.00,1.18
4119.00,1.18
4118.00,1.18
4117.00,1.18
4116.00,1.18
4115.00,1.18
4114.00,1.18
4113.00,1.18
4112.00,1.18
4111.00,1.19
4110.00,1.19
4109.00,1.19
4108.00,1.19
4107.00,1.19
4106.00,1.19
4105.00,1.19
4104.00,1.19
4103.00,1.19
4102.00,1.19
4101.00,1.19
4100.00,1.19
4099.00,1.19
4098.00,1.19
4097.00,1.19
4096.00,1.19
4095.00,1.19
4094.00,1.19
4093.00,1.19
4092.00,1.19
4091.00,1.19
4090.00,1.19
4089.00,1.19
4088.00,1.19
4087.00,1.19
4086.00,1.19
4085.00,1.19
4084.00,1.19
4083.00,1.19
4082.00,1.19
4081.00,1.19
4080.00,1.19
4079.00,1.19
4078.00,1.19
4077.00,1.19
4076.00,1.19
4075.00,1.19
4074.00,1.19
4073.00,1.19
4072.00,1.19
4071.00,1.19
4070.00,1.20
4069.00,1.20
4068.00,1.20
4067.00,1.20
4066.00,1.20
4065.00,1.20
4064.00,1.20
4063.00,1.20
4062.00,1.21
4061.00,1.21
4060.00,1.21
4059.00,1.21
4058.00,1.21
4057.00,1.21
4056.00,1.21
4055.00,1.22
4054.00,1.22
4053.00,1.22
4052.00,1.22
4051.00,1.22
4050.00,1.22
4049.00,1.23
4048.00,1.23
4047.00,1.23
4046.00,1.23
4045.00,1.23
4044.00,1.23
4043.00,1.23
4042.00,1.24
4041.00,1.24
4040.00,1.24
4039.00,1.24
4038.00,1.24
4037.00,1.24
4036.00,1.24
4035.00,1.24
4034.00,1.24
4033.00,1.24
4032.00,1.24
4031.00,1.24
4030.00,1.24
4029.00,1.24
4028.00,1.24
4027.00,1.24
4026.00,1.24
4025.00,1.24
4024.00,1.25
4023.00,1.25
4022.00,1.25
4021.00,1.25
4020.00,1.25
4019.00,1.25
4018.00,1.25
4017.00,1.25
4016.00,1.25
4015.00,1.25
4014.00,1.25
4013.00,1.25
4012.00,1.25
4011.00,1.25
4010.00,1.25
4009.00,1.25
4008.00,1.25
4007.00,1.25
4006.00,1.25
4005.00,1.25
4004.00,1.25
4003.00,1.25
4002.00,1.25
4001.00,1.25
4000.00,1.25
