创建为新数据集,样品 390 用户 Administrator 日期 星期四, 三月 08 2018
cm-1,%T
10000.00,1.48
9999.00,1.48
9998.00,1.48
9997.00,1.48
9996.00,1.48
9995.00,1.48
9994.00,1.48
9993.00,1.49
9992.00,1.49
9991.00,1.49
9990.00,1.49
9989.00,1.49
9988.00,1.48
9987.00,1.48
9986.00,1.48
9985.00,1.48
9984.00,1.48
9983.00,1.47
9982.00,1.47
9981.00,1.47
9980.00,1.46
9979.00,1.46
9978.00,1.46
9977.00,1.45
9976.00,1.45
9975.00,1.45
9974.00,1.44
9973.00,1.44
9972.00,1.44
9971.00,1.43
9970.00,1.43
9969.00,1.43
9968.00,1.42
9967.00,1.42
9966.00,1.42
9965.00,1.42
9964.00,1.41
9963.00,1.41
9962.00,1.41
9961.00,1.41
9960.00,1.41
9959.00,1.41
9958.00,1.40
9957.00,1.40
9956.00,1.40
9955.00,1.40
9954.00,1.41
9953.00,1.41
9952.00,1.41
9951.00,1.41
9950.00,1.41
9949.00,1.41
9948.00,1.42
9947.00,1.42
9946.00,1.42
9945.00,1.42
9944.00,1.43
9943.00,1.43
9942.00,1.43
9941.00,1.43
9940.00,1.43
9939.00,1.43
9938.00,1.43
9937.00,1.43
9936.00,1.43
9935.00,1.43
9934.00,1.43
9933.00,1.43
9932.00,1.43
9931.00,1.43
9930.00,1.43
9929.00,1.43
9928.00,1.43
9927.00,1.43
9926.00,1.43
9925.00,1.43
9924.00,1.43
9923.00,1.43
9922.00,1.43
9921.00,1.43
9920.00,1.44
9919.00,1.44
9918.00,1.44
9917.00,1.44
9916.00,1.44
9915.00,1.44
9914.00,1.44
9913.00,1.44
9912.00,1.44
9911.00,1.44
9910.00,1.44
9909.00,1.44
9908.00,1.44
9907.00,1.44
9906.00,1.44
9905.00,1.44
9904.00,1.44
9903.00,1.44
9902.00,1.44
9901.00,1.44
9900.00,1.44
9899.00,1.44
9898.00,1.44
9897.00,1.44
9896.00,1.44
9895.00,1.43
9894.00,1.43
9893.00,1.43
9892.00,1.43
9891.00,1.43
9890.00,1.43
9889.00,1.44
9888.00,1.44
9887.00,1.44
9886.00,1.44
9885.00,1.44
9884.00,1.44
9883.00,1.44
9882.00,1.44
9881.00,1.44
9880.00,1.45
9879.00,1.45
9878.00,1.45
9877.00,1.45
9876.00,1.45
9875.00,1.45
9874.00,1.45
9873.00,1.45
9872.00,1.45
9871.00,1.44
9870.00,1.44
9869.00,1.44
9868.00,1.44
9867.00,1.44
9866.00,1.44
9865.00,1.44
9864.00,1.44
9863.00,1.43
9862.00,1.43
9861.00,1.43
9860.00,1.43
9859.00,1.43
9858.00,1.43
9857.00,1.43
9856.00,1.44
9855.00,1.44
9854.00,1.44
9853.00,1.44
9852.00,1.44
9851.00,1.44
9850.00,1.44
9849.00,1.44
9848.00,1.45
9847.00,1.45
9846.00,1.45
9845.00,1.45
9844.00,1.45
9843.00,1.45
9842.00,1.45
9841.00,1.45
9840.00,1.45
9839.00,1.45
9838.00,1.45
9837.00,1.45
9836.00,1.44
9835.00,1.44
9834.00,1.44
9833.00,1.44
9832.00,1.44
9831.00,1.44
9830.00,1.44
9829.00,1.44
9828.00,1.44
9827.00,1.44
9826.00,1.44
9825.00,1.44
9824.00,1.44
9823.00,1.44
9822.00,1.44
9821.00,1.44
9820.00,1.44
9819.00,1.44
9818.00,1.45
9817.00,1.45
9816.00,1.45
9815.00,1.45
9814.00,1.45
9813.00,1.45
9812.00,1.45
9811.00,1.45
9810.00,1.46
9809.00,1.46
9808.00,1.46
9807.00,1.46
9806.00,1.46
9805.00,1.46
9804.00,1.46
9803.00,1.46
9802.00,1.46
9801.00,1.46
9800.00,1.46
9799.00,1.45
9798.00,1.45
9797.00,1.45
9796.00,1.45
9795.00,1.45
9794.00,1.45
9793.00,1.45
9792.00,1.45
9791.00,1.45
9790.00,1.45
9789.00,1.45
9788.00,1.45
9787.00,1.45
9786.00,1.45
9785.00,1.45
9784.00,1.45
9783.00,1.45
9782.00,1.45
9781.00,1.45
9780.00,1.45
9779.00,1.45
9778.00,1.45
9777.00,1.45
9776.00,1.45
9775.00,1.45
9774.00,1.45
9773.00,1.45
9772.00,1.45
9771.00,1.45
9770.00,1.45
9769.00,1.45
9768.00,1.45
9767.00,1.45
9766.00,1.45
9765.00,1.45
9764.00,1.45
9763.00,1.46
9762.00,1.46
9761.00,1.46
9760.00,1.46
9759.00,1.47
9758.00,1.47
9757.00,1.47
9756.00,1.47
9755.00,1.48
9754.00,1.48
9753.00,1.48
9752.00,1.48
9751.00,1.48
9750.00,1.48
9749.00,1.48
9748.00,1.48
9747.00,1.48
9746.00,1.48
9745.00,1.48
9744.00,1.47
9743.00,1.47
9742.00,1.47
9741.00,1.47
9740.00,1.46
9739.00,1.46
9738.00,1.46
9737.00,1.46
9736.00,1.46
9735.00,1.46
9734.00,1.45
9733.00,1.45
9732.00,1.45
9731.00,1.45
9730.00,1.45
9729.00,1.46
9728.00,1.46
9727.00,1.46
9726.00,1.46
9725.00,1.46
9724.00,1.46
9723.00,1.47
9722.00,1.47
9721.00,1.47
9720.00,1.47
9719.00,1.48
9718.00,1.48
9717.00,1.48
9716.00,1.48
9715.00,1.48
9714.00,1.48
9713.00,1.48
9712.00,1.48
9711.00,1.48
9710.00,1.48
9709.00,1.48
9708.00,1.47
9707.00,1.47
9706.00,1.47
9705.00,1.47
9704.00,1.47
9703.00,1.47
9702.00,1.46
9701.00,1.46
9700.00,1.46
9699.00,1.46
9698.00,1.46
9697.00,1.46
9696.00,1.45
9695.00,1.45
9694.00,1.45
9693.00,1.45
9692.00,1.45
9691.00,1.45
9690.00,1.44
9689.00,1.44
9688.00,1.44
9687.00,1.44
9686.00,1.44
9685.00,1.44
9684.00,1.44
9683.00,1.44
9682.00,1.44
9681.00,1.44
9680.00,1.44
9679.00,1.44
9678.00,1.44
9677.00,1.45
9676.00,1.45
9675.00,1.45
9674.00,1.45
9673.00,1.45
9672.00,1.46
9671.00,1.46
9670.00,1.46
9669.00,1.46
9668.00,1.46
9667.00,1.46
9666.00,1.46
9665.00,1.46
9664.00,1.46
9663.00,1.46
9662.00,1.46
9661.00,1.46
9660.00,1.46
9659.00,1.46
9658.00,1.46
9657.00,1.46
9656.00,1.46
9655.00,1.46
9654.00,1.46
9653.00,1.46
9652.00,1.46
9651.00,1.46
9650.00,1.47
9649.00,1.47
9648.00,1.47
9647.00,1.47
9646.00,1.47
9645.00,1.48
9644.00,1.48
9643.00,1.48
9642.00,1.48
9641.00,1.48
9640.00,1.48
9639.00,1.48
9638.00,1.48
9637.00,1.48
9636.00,1.48
9635.00,1.48
9634.00,1.48
9633.00,1.48
9632.00,1.48
9631.00,1.48
9630.00,1.47
9629.00,1.47
9628.00,1.47
9627.00,1.47
9626.00,1.47
9625.00,1.46
9624.00,1.46
9623.00,1.46
9622.00,1.46
9621.00,1.46
9620.00,1.45
9619.00,1.45
9618.00,1.45
9617.00,1.45
9616.00,1.45
9615.00,1.45
9614.00,1.45
9613.00,1.45
9612.00,1.45
9611.00,1.45
9610.00,1.46
9609.00,1.46
9608.00,1.46
9607.00,1.46
9606.00,1.47
9605.00,1.47
9604.00,1.47
9603.00,1.47
9602.00,1.47
9601.00,1.47
9600.00,1.47
9599.00,1.47
9598.00,1.47
9597.00,1.47
9596.00,1.47
9595.00,1.47
9594.00,1.47
9593.00,1.47
9592.00,1.46
9591.00,1.46
9590.00,1.46
9589.00,1.46
9588.00,1.46
9587.00,1.46
9586.00,1.46
9585.00,1.46
9584.00,1.45
9583.00,1.45
9582.00,1.45
9581.00,1.45
9580.00,1.45
9579.00,1.45
9578.00,1.45
9577.00,1.45
9576.00,1.45
9575.00,1.45
9574.00,1.45
9573.00,1.45
9572.00,1.45
9571.00,1.45
9570.00,1.45
9569.00,1.45
9568.00,1.45
9567.00,1.45
9566.00,1.45
9565.00,1.45
9564.00,1.45
9563.00,1.45
9562.00,1.46
9561.00,1.46
9560.00,1.46
9559.00,1.46
9558.00,1.46
9557.00,1.46
9556.00,1.46
9555.00,1.46
9554.00,1.47
9553.00,1.47
9552.00,1.47
9551.00,1.47
9550.00,1.47
9549.00,1.47
9548.00,1.47
9547.00,1.47
9546.00,1.47
9545.00,1.47
9544.00,1.48
9543.00,1.48
9542.00,1.48
9541.00,1.48
9540.00,1.48
9539.00,1.48
9538.00,1.48
9537.00,1.48
9536.00,1.48
9535.00,1.48
9534.00,1.48
9533.00,1.48
9532.00,1.48
9531.00,1.48
9530.00,1.48
9529.00,1.48
9528.00,1.48
9527.00,1.48
9526.00,1.48
9525.00,1.47
9524.00,1.47
9523.00,1.47
9522.00,1.47
9521.00,1.47
9520.00,1.47
9519.00,1.47
9518.00,1.47
9517.00,1.47
9516.00,1.47
9515.00,1.47
9514.00,1.47
9513.00,1.46
9512.00,1.46
9511.00,1.46
9510.00,1.46
9509.00,1.46
9508.00,1.46
9507.00,1.46
9506.00,1.46
9505.00,1.46
9504.00,1.46
9503.00,1.46
9502.00,1.46
9501.00,1.46
9500.00,1.46
9499.00,1.46
9498.00,1.46
9497.00,1.46
9496.00,1.46
9495.00,1.46
9494.00,1.46
9493.00,1.46
9492.00,1.46
9491.00,1.46
9490.00,1.47
9489.00,1.47
9488.00,1.47
9487.00,1.47
9486.00,1.47
9485.00,1.47
9484.00,1.47
9483.00,1.47
9482.00,1.47
9481.00,1.48
9480.00,1.48
9479.00,1.48
9478.00,1.48
9477.00,1.48
9476.00,1.48
9475.00,1.48
9474.00,1.48
9473.00,1.48
9472.00,1.48
9471.00,1.48
9470.00,1.48
9469.00,1.48
9468.00,1.48
9467.00,1.47
9466.00,1.47
9465.00,1.47
9464.00,1.47
9463.00,1.46
9462.00,1.46
9461.00,1.46
9460.00,1.45
9459.00,1.45
9458.00,1.45
9457.00,1.44
9456.00,1.44
9455.00,1.44
9454.00,1.44
9453.00,1.43
9452.00,1.43
9451.00,1.43
9450.00,1.43
9449.00,1.43
9448.00,1.43
9447.00,1.43
9446.00,1.43
9445.00,1.44
9444.00,1.44
9443.00,1.44
9442.00,1.44
9441.00,1.44
9440.00,1.44
9439.00,1.45
9438.00,1.45
9437.00,1.45
9436.00,1.45
9435.00,1.45
9434.00,1.45
9433.00,1.45
9432.00,1.45
9431.00,1.45
9430.00,1.45
9429.00,1.45
9428.00,1.46
9427.00,1.46
9426.00,1.46
9425.00,1.46
9424.00,1.46
9423.00,1.46
9422.00,1.46
9421.00,1.46
9420.00,1.46
9419.00,1.46
9418.00,1.46
9417.00,1.46
9416.00,1.46
9415.00,1.46
9414.00,1.46
9413.00,1.46
9412.00,1.46
9411.00,1.45
9410.00,1.45
9409.00,1.45
9408.00,1.45
9407.00,1.45
9406.00,1.45
9405.00,1.45
9404.00,1.45
9403.00,1.45
9402.00,1.45
9401.00,1.45
9400.00,1.45
9399.00,1.45
9398.00,1.45
9397.00,1.45
9396.00,1.46
9395.00,1.46
9394.00,1.46
9393.00,1.46
9392.00,1.46
9391.00,1.46
9390.00,1.46
9389.00,1.46
9388.00,1.46
9387.00,1.46
9386.00,1.46
9385.00,1.46
9384.00,1.46
9383.00,1.46
9382.00,1.46
9381.00,1.46
9380.00,1.46
9379.00,1.46
9378.00,1.46
9377.00,1.46
9376.00,1.46
9375.00,1.46
9374.00,1.46
9373.00,1.46
9372.00,1.47
9371.00,1.47
9370.00,1.47
9369.00,1.47
9368.00,1.47
9367.00,1.47
9366.00,1.46
9365.00,1.46
9364.00,1.46
9363.00,1.46
9362.00,1.46
9361.00,1.46
9360.00,1.46
9359.00,1.45
9358.00,1.45
9357.00,1.45
9356.00,1.45
9355.00,1.45
9354.00,1.45
9353.00,1.46
9352.00,1.46
9351.00,1.46
9350.00,1.46
9349.00,1.46
9348.00,1.46
9347.00,1.47
9346.00,1.47
9345.00,1.47
9344.00,1.47
9343.00,1.47
9342.00,1.47
9341.00,1.47
9340.00,1.47
9339.00,1.47
9338.00,1.47
9337.00,1.47
9336.00,1.47
9335.00,1.47
9334.00,1.47
9333.00,1.47
9332.00,1.47
9331.00,1.47
9330.00,1.47
9329.00,1.47
9328.00,1.47
9327.00,1.47
9326.00,1.47
9325.00,1.48
9324.00,1.48
9323.00,1.48
9322.00,1.48
9321.00,1.48
9320.00,1.48
9319.00,1.48
9318.00,1.48
9317.00,1.48
9316.00,1.48
9315.00,1.48
9314.00,1.48
9313.00,1.48
9312.00,1.48
9311.00,1.48
9310.00,1.48
9309.00,1.47
9308.00,1.47
9307.00,1.47
9306.00,1.47
9305.00,1.47
9304.00,1.47
9303.00,1.47
9302.00,1.46
9301.00,1.46
9300.00,1.46
9299.00,1.46
9298.00,1.46
9297.00,1.45
9296.00,1.45
9295.00,1.45
9294.00,1.45
9293.00,1.45
9292.00,1.45
9291.00,1.45
9290.00,1.45
9289.00,1.45
9288.00,1.45
9287.00,1.45
9286.00,1.45
9285.00,1.45
9284.00,1.46
9283.00,1.46
9282.00,1.46
9281.00,1.46
9280.00,1.47
9279.00,1.47
9278.00,1.47
9277.00,1.47
9276.00,1.47
9275.00,1.47
9274.00,1.47
9273.00,1.47
9272.00,1.47
9271.00,1.47
9270.00,1.47
9269.00,1.47
9268.00,1.47
9267.00,1.47
9266.00,1.47
9265.00,1.46
9264.00,1.46
9263.00,1.46
9262.00,1.46
9261.00,1.46
9260.00,1.46
9259.00,1.46
9258.00,1.46
9257.00,1.46
9256.00,1.46
9255.00,1.46
9254.00,1.46
9253.00,1.46
9252.00,1.46
9251.00,1.46
9250.00,1.46
9249.00,1.46
9248.00,1.46
9247.00,1.46
9246.00,1.46
9245.00,1.46
9244.00,1.46
9243.00,1.46
9242.00,1.46
9241.00,1.46
9240.00,1.46
9239.00,1.46
9238.00,1.46
9237.00,1.46
9236.00,1.46
9235.00,1.46
9234.00,1.46
9233.00,1.46
9232.00,1.46
9231.00,1.46
9230.00,1.46
9229.00,1.46
9228.00,1.47
9227.00,1.47
9226.00,1.47
9225.00,1.47
9224.00,1.47
9223.00,1.47
9222.00,1.47
9221.00,1.47
9220.00,1.47
9219.00,1.47
9218.00,1.47
9217.00,1.47
9216.00,1.47
9215.00,1.47
9214.00,1.47
9213.00,1.47
9212.00,1.47
9211.00,1.47
9210.00,1.46
9209.00,1.46
9208.00,1.46
9207.00,1.46
9206.00,1.46
9205.00,1.46
9204.00,1.46
9203.00,1.46
9202.00,1.46
9201.00,1.46
9200.00,1.46
9199.00,1.46
9198.00,1.46
9197.00,1.46
9196.00,1.46
9195.00,1.46
9194.00,1.46
9193.00,1.46
9192.00,1.46
9191.00,1.47
9190.00,1.47
9189.00,1.47
9188.00,1.47
9187.00,1.47
9186.00,1.47
9185.00,1.47
9184.00,1.47
9183.00,1.47
9182.00,1.47
9181.00,1.47
9180.00,1.47
9179.00,1.48
9178.00,1.48
9177.00,1.48
9176.00,1.48
9175.00,1.48
9174.00,1.48
9173.00,1.48
9172.00,1.48
9171.00,1.48
9170.00,1.48
9169.00,1.48
9168.00,1.48
9167.00,1.48
9166.00,1.48
9165.00,1.48
9164.00,1.48
9163.00,1.47
9162.00,1.47
9161.00,1.47
9160.00,1.47
9159.00,1.47
9158.00,1.47
9157.00,1.47
9156.00,1.47
9155.00,1.47
9154.00,1.47
9153.00,1.47
9152.00,1.47
9151.00,1.47
9150.00,1.47
9149.00,1.47
9148.00,1.47
9147.00,1.47
9146.00,1.48
9145.00,1.48
9144.00,1.48
9143.00,1.48
9142.00,1.48
9141.00,1.48
9140.00,1.48
9139.00,1.48
9138.00,1.47
9137.00,1.47
9136.00,1.47
9135.00,1.47
9134.00,1.47
9133.00,1.46
9132.00,1.46
9131.00,1.46
9130.00,1.46
9129.00,1.46
9128.00,1.45
9127.00,1.45
9126.00,1.45
9125.00,1.45
9124.00,1.45
9123.00,1.45
9122.00,1.45
9121.00,1.45
9120.00,1.45
9119.00,1.45
9118.00,1.45
9117.00,1.45
9116.00,1.45
9115.00,1.45
9114.00,1.45
9113.00,1.45
9112.00,1.45
9111.00,1.45
9110.00,1.45
9109.00,1.45
9108.00,1.45
9107.00,1.45
9106.00,1.45
9105.00,1.45
9104.00,1.45
9103.00,1.45
9102.00,1.45
9101.00,1.45
9100.00,1.45
9099.00,1.45
9098.00,1.45
9097.00,1.45
9096.00,1.45
9095.00,1.45
9094.00,1.45
9093.00,1.44
9092.00,1.44
9091.00,1.44
9090.00,1.44
9089.00,1.44
9088.00,1.44
9087.00,1.44
9086.00,1.44
9085.00,1.44
9084.00,1.44
9083.00,1.44
9082.00,1.44
9081.00,1.44
9080.00,1.44
9079.00,1.45
9078.00,1.45
9077.00,1.45
9076.00,1.45
9075.00,1.45
9074.00,1.46
9073.00,1.46
9072.00,1.46
9071.00,1.46
9070.00,1.46
9069.00,1.47
9068.00,1.47
9067.00,1.47
9066.00,1.47
9065.00,1.47
9064.00,1.47
9063.00,1.47
9062.00,1.47
9061.00,1.48
9060.00,1.48
9059.00,1.48
9058.00,1.48
9057.00,1.48
9056.00,1.48
9055.00,1.48
9054.00,1.48
9053.00,1.48
9052.00,1.48
9051.00,1.47
9050.00,1.47
9049.00,1.47
9048.00,1.47
9047.00,1.47
9046.00,1.47
9045.00,1.47
9044.00,1.47
9043.00,1.47
9042.00,1.47
9041.00,1.47
9040.00,1.47
9039.00,1.46
9038.00,1.46
9037.00,1.46
9036.00,1.46
9035.00,1.47
9034.00,1.47
9033.00,1.47
9032.00,1.47
9031.00,1.47
9030.00,1.47
9029.00,1.47
9028.00,1.47
9027.00,1.48
9026.00,1.48
9025.00,1.48
9024.00,1.48
9023.00,1.48
9022.00,1.48
9021.00,1.48
9020.00,1.48
9019.00,1.48
9018.00,1.48
9017.00,1.48
9016.00,1.48
9015.00,1.48
9014.00,1.48
9013.00,1.48
9012.00,1.48
9011.00,1.48
9010.00,1.48
9009.00,1.48
9008.00,1.48
9007.00,1.48
9006.00,1.48
9005.00,1.48
9004.00,1.48
9003.00,1.47
9002.00,1.47
9001.00,1.47
9000.00,1.47
8999.00,1.47
8998.00,1.47
8997.00,1.47
8996.00,1.47
8995.00,1.47
8994.00,1.47
8993.00,1.47
8992.00,1.47
8991.00,1.47
8990.00,1.47
8989.00,1.47
8988.00,1.47
8987.00,1.47
8986.00,1.47
8985.00,1.47
8984.00,1.47
8983.00,1.47
8982.00,1.47
8981.00,1.47
8980.00,1.47
8979.00,1.47
8978.00,1.48
8977.00,1.48
8976.00,1.48
8975.00,1.48
8974.00,1.48
8973.00,1.48
8972.00,1.48
8971.00,1.47
8970.00,1.47
8969.00,1.47
8968.00,1.47
8967.00,1.47
8966.00,1.47
8965.00,1.47
8964.00,1.47
8963.00,1.47
8962.00,1.47
8961.00,1.47
8960.00,1.47
8959.00,1.46
8958.00,1.46
8957.00,1.46
8956.00,1.46
8955.00,1.46
8954.00,1.46
8953.00,1.46
8952.00,1.46
8951.00,1.46
8950.00,1.46
8949.00,1.46
8948.00,1.46
8947.00,1.46
8946.00,1.47
8945.00,1.47
8944.00,1.47
8943.00,1.47
8942.00,1.47
8941.00,1.47
8940.00,1.47
8939.00,1.47
8938.00,1.47
8937.00,1.47
8936.00,1.47
8935.00,1.47
8934.00,1.47
8933.00,1.47
8932.00,1.47
8931.00,1.47
8930.00,1.48
8929.00,1.48
8928.00,1.48
8927.00,1.48
8926.00,1.48
8925.00,1.48
8924.00,1.48
8923.00,1.48
8922.00,1.48
8921.00,1.48
8920.00,1.48
8919.00,1.48
8918.00,1.48
8917.00,1.48
8916.00,1.48
8915.00,1.48
8914.00,1.48
8913.00,1.48
8912.00,1.48
8911.00,1.48
8910.00,1.48
8909.00,1.48
8908.00,1.48
8907.00,1.48
8906.00,1.48
8905.00,1.48
8904.00,1.48
8903.00,1.48
8902.00,1.48
8901.00,1.48
8900.00,1.48
8899.00,1.48
8898.00,1.48
8897.00,1.48
8896.00,1.48
8895.00,1.48
8894.00,1.48
8893.00,1.48
8892.00,1.48
8891.00,1.48
8890.00,1.48
8889.00,1.48
8888.00,1.48
8887.00,1.47
8886.00,1.47
8885.00,1.47
8884.00,1.47
8883.00,1.47
8882.00,1.47
8881.00,1.47
8880.00,1.47
8879.00,1.47
8878.00,1.47
8877.00,1.47
8876.00,1.47
8875.00,1.47
8874.00,1.47
8873.00,1.47
8872.00,1.47
8871.00,1.47
8870.00,1.47
8869.00,1.47
8868.00,1.47
8867.00,1.46
8866.00,1.46
8865.00,1.46
8864.00,1.46
8863.00,1.46
8862.00,1.46
8861.00,1.46
8860.00,1.46
8859.00,1.45
8858.00,1.45
8857.00,1.45
8856.00,1.45
8855.00,1.45
8854.00,1.45
8853.00,1.45
8852.00,1.45
8851.00,1.45
8850.00,1.45
8849.00,1.45
8848.00,1.45
8847.00,1.46
8846.00,1.46
8845.00,1.46
8844.00,1.46
8843.00,1.46
8842.00,1.45
8841.00,1.45
8840.00,1.45
8839.00,1.45
8838.00,1.45
8837.00,1.45
8836.00,1.45
8835.00,1.45
8834.00,1.45
8833.00,1.45
8832.00,1.44
8831.00,1.44
8830.00,1.44
8829.00,1.44
8828.00,1.44
8827.00,1.44
8826.00,1.44
8825.00,1.43
8824.00,1.43
8823.00,1.43
8822.00,1.43
8821.00,1.43
8820.00,1.43
8819.00,1.43
8818.00,1.43
8817.00,1.43
8816.00,1.43
8815.00,1.43
8814.00,1.43
8813.00,1.43
8812.00,1.43
8811.00,1.43
8810.00,1.43
8809.00,1.43
8808.00,1.43
8807.00,1.43
8806.00,1.43
8805.00,1.43
8804.00,1.43
8803.00,1.44
8802.00,1.44
8801.00,1.44
8800.00,1.44
8799.00,1.44
8798.00,1.44
8797.00,1.44
8796.00,1.44
8795.00,1.44
8794.00,1.43
8793.00,1.43
8792.00,1.43
8791.00,1.43
8790.00,1.43
8789.00,1.43
8788.00,1.43
8787.00,1.43
8786.00,1.42
8785.00,1.42
8784.00,1.42
8783.00,1.42
8782.00,1.42
8781.00,1.42
8780.00,1.42
8779.00,1.42
8778.00,1.42
8777.00,1.42
8776.00,1.42
8775.00,1.42
8774.00,1.42
8773.00,1.42
8772.00,1.42
8771.00,1.42
8770.00,1.42
8769.00,1.42
8768.00,1.43
8767.00,1.43
8766.00,1.43
8765.00,1.43
8764.00,1.43
8763.00,1.43
8762.00,1.43
8761.00,1.43
8760.00,1.42
8759.00,1.42
8758.00,1.42
8757.00,1.42
8756.00,1.42
8755.00,1.42
8754.00,1.42
8753.00,1.41
8752.00,1.41
8751.00,1.41
8750.00,1.41
8749.00,1.41
8748.00,1.41
8747.00,1.41
8746.00,1.41
8745.00,1.41
8744.00,1.41
8743.00,1.41
8742.00,1.41
8741.00,1.41
8740.00,1.41
8739.00,1.41
8738.00,1.41
8737.00,1.41
8736.00,1.40
8735.00,1.40
8734.00,1.40
8733.00,1.40
8732.00,1.40
8731.00,1.40
8730.00,1.40
8729.00,1.40
8728.00,1.40
8727.00,1.40
8726.00,1.39
8725.00,1.39
8724.00,1.39
8723.00,1.39
8722.00,1.39
8721.00,1.39
8720.00,1.39
8719.00,1.39
8718.00,1.39
8717.00,1.39
8716.00,1.39
8715.00,1.39
8714.00,1.39
8713.00,1.39
8712.00,1.39
8711.00,1.39
8710.00,1.38
8709.00,1.38
8708.00,1.38
8707.00,1.38
8706.00,1.38
8705.00,1.38
8704.00,1.38
8703.00,1.38
8702.00,1.38
8701.00,1.38
8700.00,1.38
8699.00,1.38
8698.00,1.38
8697.00,1.38
8696.00,1.38
8695.00,1.38
8694.00,1.38
8693.00,1.38
8692.00,1.38
8691.00,1.38
8690.00,1.38
8689.00,1.38
8688.00,1.38
8687.00,1.38
8686.00,1.38
8685.00,1.38
8684.00,1.38
8683.00,1.38
8682.00,1.38
8681.00,1.38
8680.00,1.38
8679.00,1.38
8678.00,1.38
8677.00,1.38
8676.00,1.38
8675.00,1.38
8674.00,1.38
8673.00,1.38
8672.00,1.38
8671.00,1.38
8670.00,1.38
8669.00,1.37
8668.00,1.37
8667.00,1.37
8666.00,1.37
8665.00,1.37
8664.00,1.37
8663.00,1.37
8662.00,1.37
8661.00,1.37
8660.00,1.37
8659.00,1.37
8658.00,1.37
8657.00,1.37
8656.00,1.37
8655.00,1.37
8654.00,1.37
8653.00,1.37
8652.00,1.37
8651.00,1.37
8650.00,1.37
8649.00,1.37
8648.00,1.37
8647.00,1.37
8646.00,1.37
8645.00,1.37
8644.00,1.37
8643.00,1.37
8642.00,1.37
8641.00,1.37
8640.00,1.37
8639.00,1.37
8638.00,1.37
8637.00,1.37
8636.00,1.37
8635.00,1.37
8634.00,1.37
8633.00,1.37
8632.00,1.37
8631.00,1.37
8630.00,1.37
8629.00,1.37
8628.00,1.36
8627.00,1.36
8626.00,1.36
8625.00,1.36
8624.00,1.36
8623.00,1.36
8622.00,1.36
8621.00,1.36
8620.00,1.35
8619.00,1.35
8618.00,1.35
8617.00,1.35
8616.00,1.35
8615.00,1.35
8614.00,1.35
8613.00,1.35
8612.00,1.35
8611.00,1.35
8610.00,1.35
8609.00,1.35
8608.00,1.35
8607.00,1.35
8606.00,1.35
8605.00,1.35
8604.00,1.35
8603.00,1.35
8602.00,1.35
8601.00,1.35
8600.00,1.35
8599.00,1.35
8598.00,1.35
8597.00,1.35
8596.00,1.35
8595.00,1.35
8594.00,1.35
8593.00,1.35
8592.00,1.35
8591.00,1.35
8590.00,1.35
8589.00,1.35
8588.00,1.35
8587.00,1.35
8586.00,1.35
8585.00,1.35
8584.00,1.34
8583.00,1.34
8582.00,1.34
8581.00,1.34
8580.00,1.34
8579.00,1.34
8578.00,1.34
8577.00,1.33
8576.00,1.33
8575.00,1.33
8574.00,1.33
8573.00,1.33
8572.00,1.33
8571.00,1.32
8570.00,1.32
8569.00,1.32
8568.00,1.32
8567.00,1.32
8566.00,1.32
8565.00,1.31
8564.00,1.31
8563.00,1.31
8562.00,1.31
8561.00,1.31
8560.00,1.31
8559.00,1.31
8558.00,1.30
8557.00,1.30
8556.00,1.30
8555.00,1.30
8554.00,1.30
8553.00,1.30
8552.00,1.30
8551.00,1.30
8550.00,1.30
8549.00,1.30
8548.00,1.30
8547.00,1.30
8546.00,1.30
8545.00,1.30
8544.00,1.30
8543.00,1.30
8542.00,1.30
8541.00,1.30
8540.00,1.30
8539.00,1.30
8538.00,1.30
8537.00,1.30
8536.00,1.30
8535.00,1.30
8534.00,1.30
8533.00,1.30
8532.00,1.30
8531.00,1.30
8530.00,1.30
8529.00,1.29
8528.00,1.29
8527.00,1.29
8526.00,1.29
8525.00,1.29
8524.00,1.29
8523.00,1.29
8522.00,1.29
8521.00,1.28
8520.00,1.28
8519.00,1.28
8518.00,1.28
8517.00,1.28
8516.00,1.28
8515.00,1.28
8514.00,1.28
8513.00,1.28
8512.00,1.28
8511.00,1.28
8510.00,1.28
8509.00,1.28
8508.00,1.28
8507.00,1.28
8506.00,1.28
8505.00,1.28
8504.00,1.28
8503.00,1.28
8502.00,1.28
8501.00,1.28
8500.00,1.27
8499.00,1.27
8498.00,1.27
8497.00,1.27
8496.00,1.27
8495.00,1.26
8494.00,1.26
8493.00,1.26
8492.00,1.26
8491.00,1.25
8490.00,1.25
8489.00,1.25
8488.00,1.25
8487.00,1.24
8486.00,1.24
8485.00,1.24
8484.00,1.24
8483.00,1.24
8482.00,1.24
8481.00,1.24
8480.00,1.23
8479.00,1.23
8478.00,1.23
8477.00,1.23
8476.00,1.23
8475.00,1.23
8474.00,1.23
8473.00,1.23
8472.00,1.23
8471.00,1.23
8470.00,1.23
8469.00,1.23
8468.00,1.23
8467.00,1.22
8466.00,1.22
8465.00,1.22
8464.00,1.22
8463.00,1.22
8462.00,1.22
8461.00,1.22
8460.00,1.21
8459.00,1.21
8458.00,1.21
8457.00,1.21
8456.00,1.21
8455.00,1.21
8454.00,1.20
8453.00,1.20
8452.00,1.20
8451.00,1.20
8450.00,1.20
8449.00,1.20
8448.00,1.20
8447.00,1.19
8446.00,1.19
8445.00,1.19
8444.00,1.19
8443.00,1.19
8442.00,1.19
8441.00,1.19
8440.00,1.19
8439.00,1.19
8438.00,1.19
8437.00,1.20
8436.00,1.20
8435.00,1.20
8434.00,1.20
8433.00,1.20
8432.00,1.20
8431.00,1.20
8430.00,1.20
8429.00,1.20
8428.00,1.21
8427.00,1.21
8426.00,1.21
8425.00,1.21
8424.00,1.21
8423.00,1.21
8422.00,1.21
8421.00,1.21
8420.00,1.21
8419.00,1.21
8418.00,1.21
8417.00,1.22
8416.00,1.22
8415.00,1.22
8414.00,1.22
8413.00,1.22
8412.00,1.22
8411.00,1.22
8410.00,1.22
8409.00,1.22
8408.00,1.23
8407.00,1.23
8406.00,1.23
8405.00,1.23
8404.00,1.23
8403.00,1.23
8402.00,1.23
8401.00,1.23
8400.00,1.23
8399.00,1.24
8398.00,1.24
8397.00,1.24
8396.00,1.24
8395.00,1.24
8394.00,1.25
8393.00,1.25
8392.00,1.25
8391.00,1.25
8390.00,1.26
8389.00,1.26
8388.00,1.26
8387.00,1.26
8386.00,1.26
8385.00,1.27
8384.00,1.27
8383.00,1.27
8382.00,1.27
8381.00,1.27
8380.00,1.28
8379.00,1.28
8378.00,1.28
8377.00,1.28
8376.00,1.28
8375.00,1.28
8374.00,1.28
8373.00,1.28
8372.00,1.28
8371.00,1.28
8370.00,1.28
8369.00,1.28
8368.00,1.28
8367.00,1.28
8366.00,1.28
8365.00,1.28
8364.00,1.28
8363.00,1.28
8362.00,1.27
8361.00,1.27
8360.00,1.27
8359.00,1.27
8358.00,1.27
8357.00,1.27
8356.00,1.27
8355.00,1.27
8354.00,1.27
8353.00,1.27
8352.00,1.27
8351.00,1.27
8350.00,1.27
8349.00,1.27
8348.00,1.27
8347.00,1.27
8346.00,1.27
8345.00,1.27
8344.00,1.27
8343.00,1.27
8342.00,1.27
8341.00,1.27
8340.00,1.28
8339.00,1.28
8338.00,1.28
8337.00,1.28
8336.00,1.28
8335.00,1.28
8334.00,1.28
8333.00,1.28
8332.00,1.28
8331.00,1.28
8330.00,1.28
8329.00,1.28
8328.00,1.28
8327.00,1.28
8326.00,1.28
8325.00,1.28
8324.00,1.28
8323.00,1.28
8322.00,1.28
8321.00,1.28
8320.00,1.28
8319.00,1.28
8318.00,1.28
8317.00,1.28
8316.00,1.28
8315.00,1.28
8314.00,1.28
8313.00,1.28
8312.00,1.28
8311.00,1.28
8310.00,1.28
8309.00,1.28
8308.00,1.28
8307.00,1.28
8306.00,1.28
8305.00,1.28
8304.00,1.28
8303.00,1.28
8302.00,1.28
8301.00,1.28
8300.00,1.28
8299.00,1.28
8298.00,1.28
8297.00,1.28
8296.00,1.28
8295.00,1.28
8294.00,1.28
8293.00,1.28
8292.00,1.28
8291.00,1.28
8290.00,1.28
8289.00,1.28
8288.00,1.28
8287.00,1.28
8286.00,1.28
8285.00,1.28
8284.00,1.28
8283.00,1.28
8282.00,1.28
8281.00,1.28
8280.00,1.28
8279.00,1.28
8278.00,1.29
8277.00,1.29
8276.00,1.29
8275.00,1.29
8274.00,1.29
8273.00,1.29
8272.00,1.29
8271.00,1.29
8270.00,1.30
8269.00,1.30
8268.00,1.30
8267.00,1.30
8266.00,1.30
8265.00,1.30
8264.00,1.30
8263.00,1.30
8262.00,1.30
8261.00,1.30
8260.00,1.30
8259.00,1.30
8258.00,1.30
8257.00,1.30
8256.00,1.31
8255.00,1.31
8254.00,1.31
8253.00,1.31
8252.00,1.31
8251.00,1.31
8250.00,1.31
8249.00,1.31
8248.00,1.31
8247.00,1.31
8246.00,1.31
8245.00,1.31
8244.00,1.31
8243.00,1.31
8242.00,1.31
8241.00,1.30
8240.00,1.30
8239.00,1.30
8238.00,1.30
8237.00,1.30
8236.00,1.30
8235.00,1.30
8234.00,1.30
8233.00,1.30
8232.00,1.30
8231.00,1.30
8230.00,1.30
8229.00,1.30
8228.00,1.30
8227.00,1.30
8226.00,1.31
8225.00,1.31
8224.00,1.31
8223.00,1.31
8222.00,1.31
8221.00,1.31
8220.00,1.31
8219.00,1.32
8218.00,1.32
8217.00,1.32
8216.00,1.32
8215.00,1.32
8214.00,1.32
8213.00,1.32
8212.00,1.32
8211.00,1.32
8210.00,1.32
8209.00,1.32
8208.00,1.32
8207.00,1.32
8206.00,1.32
8205.00,1.32
8204.00,1.32
8203.00,1.32
8202.00,1.32
8201.00,1.32
8200.00,1.32
8199.00,1.32
8198.00,1.32
8197.00,1.32
8196.00,1.32
8195.00,1.32
8194.00,1.32
8193.00,1.33
8192.00,1.33
8191.00,1.33
8190.00,1.33
8189.00,1.33
8188.00,1.33
8187.00,1.33
8186.00,1.33
8185.00,1.34
8184.00,1.34
8183.00,1.34
8182.00,1.34
8181.00,1.34
8180.00,1.34
8179.00,1.34
8178.00,1.34
8177.00,1.34
8176.00,1.34
8175.00,1.34
8174.00,1.34
8173.00,1.34
8172.00,1.33
8171.00,1.33
8170.00,1.33
8169.00,1.33
8168.00,1.33
8167.00,1.33
8166.00,1.33
8165.00,1.33
8164.00,1.33
8163.00,1.33
8162.00,1.33
8161.00,1.34
8160.00,1.34
8159.00,1.34
8158.00,1.34
8157.00,1.34
8156.00,1.34
8155.00,1.34
8154.00,1.34
8153.00,1.34
8152.00,1.34
8151.00,1.34
8150.00,1.34
8149.00,1.34
8148.00,1.34
8147.00,1.34
8146.00,1.34
8145.00,1.34
8144.00,1.34
8143.00,1.34
8142.00,1.34
8141.00,1.34
8140.00,1.35
8139.00,1.35
8138.00,1.35
8137.00,1.35
8136.00,1.35
8135.00,1.35
8134.00,1.35
8133.00,1.35
8132.00,1.35
8131.00,1.36
8130.00,1.36
8129.00,1.36
8128.00,1.36
8127.00,1.36
8126.00,1.36
8125.00,1.36
8124.00,1.36
8123.00,1.36
8122.00,1.36
8121.00,1.37
8120.00,1.37
8119.00,1.37
8118.00,1.37
8117.00,1.37
8116.00,1.37
8115.00,1.37
8114.00,1.37
8113.00,1.37
8112.00,1.37
8111.00,1.37
8110.00,1.37
8109.00,1.37
8108.00,1.37
8107.00,1.37
8106.00,1.37
8105.00,1.37
8104.00,1.37
8103.00,1.37
8102.00,1.37
8101.00,1.37
8100.00,1.37
8099.00,1.37
8098.00,1.37
8097.00,1.37
8096.00,1.37
8095.00,1.38
8094.00,1.38
8093.00,1.38
8092.00,1.38
8091.00,1.38
8090.00,1.38
8089.00,1.38
8088.00,1.38
8087.00,1.38
8086.00,1.38
8085.00,1.38
8084.00,1.38
8083.00,1.38
8082.00,1.38
8081.00,1.38
8080.00,1.38
8079.00,1.38
8078.00,1.38
8077.00,1.38
8076.00,1.39
8075.00,1.39
8074.00,1.39
8073.00,1.39
8072.00,1.39
8071.00,1.39
8070.00,1.39
8069.00,1.39
8068.00,1.39
8067.00,1.40
8066.00,1.40
8065.00,1.40
8064.00,1.40
8063.00,1.40
8062.00,1.40
8061.00,1.40
8060.00,1.40
8059.00,1.40
8058.00,1.40
8057.00,1.40
8056.00,1.40
8055.00,1.40
8054.00,1.40
8053.00,1.41
8052.00,1.41
8051.00,1.41
8050.00,1.41
8049.00,1.41
8048.00,1.41
8047.00,1.41
8046.00,1.41
8045.00,1.41
8044.00,1.41
8043.00,1.41
8042.00,1.41
8041.00,1.41
8040.00,1.41
8039.00,1.41
8038.00,1.41
8037.00,1.41
8036.00,1.41
8035.00,1.41
8034.00,1.41
8033.00,1.41
8032.00,1.41
8031.00,1.41
8030.00,1.41
8029.00,1.41
8028.00,1.41
8027.00,1.41
8026.00,1.41
8025.00,1.41
8024.00,1.41
8023.00,1.41
8022.00,1.41
8021.00,1.42
8020.00,1.42
8019.00,1.42
8018.00,1.42
8017.00,1.42
8016.00,1.42
8015.00,1.42
8014.00,1.43
8013.00,1.43
8012.00,1.43
8011.00,1.43
8010.00,1.43
8009.00,1.43
8008.00,1.43
8007.00,1.43
8006.00,1.43
8005.00,1.43
8004.00,1.43
8003.00,1.43
8002.00,1.43
8001.00,1.43
8000.00,1.43
7999.00,1.43
7998.00,1.43
7997.00,1.43
7996.00,1.43
7995.00,1.43
7994.00,1.43
7993.00,1.43
7992.00,1.43
7991.00,1.43
7990.00,1.43
7989.00,1.43
7988.00,1.43
7987.00,1.43
7986.00,1.43
7985.00,1.43
7984.00,1.43
7983.00,1.43
7982.00,1.43
7981.00,1.43
7980.00,1.43
7979.00,1.43
7978.00,1.43
7977.00,1.43
7976.00,1.43
7975.00,1.43
7974.00,1.43
7973.00,1.43
7972.00,1.43
7971.00,1.43
7970.00,1.43
7969.00,1.43
7968.00,1.43
7967.00,1.43
7966.00,1.43
7965.00,1.43
7964.00,1.43
7963.00,1.43
7962.00,1.43
7961.00,1.43
7960.00,1.43
7959.00,1.43
7958.00,1.43
7957.00,1.43
7956.00,1.43
7955.00,1.43
7954.00,1.43
7953.00,1.43
7952.00,1.43
7951.00,1.43
7950.00,1.43
7949.00,1.43
7948.00,1.43
7947.00,1.43
7946.00,1.43
7945.00,1.43
7944.00,1.43
7943.00,1.43
7942.00,1.43
7941.00,1.43
7940.00,1.43
7939.00,1.43
7938.00,1.43
7937.00,1.43
7936.00,1.43
7935.00,1.43
7934.00,1.43
7933.00,1.43
7932.00,1.43
7931.00,1.43
7930.00,1.43
7929.00,1.43
7928.00,1.43
7927.00,1.43
7926.00,1.43
7925.00,1.43
7924.00,1.43
7923.00,1.43
7922.00,1.43
7921.00,1.43
7920.00,1.43
7919.00,1.43
7918.00,1.43
7917.00,1.43
7916.00,1.43
7915.00,1.44
7914.00,1.44
7913.00,1.44
7912.00,1.44
7911.00,1.44
7910.00,1.44
7909.00,1.44
7908.00,1.44
7907.00,1.44
7906.00,1.44
7905.00,1.44
7904.00,1.44
7903.00,1.44
7902.00,1.45
7901.00,1.45
7900.00,1.45
7899.00,1.45
7898.00,1.45
7897.00,1.45
7896.00,1.45
7895.00,1.45
7894.00,1.45
7893.00,1.45
7892.00,1.45
7891.00,1.45
7890.00,1.45
7889.00,1.45
7888.00,1.45
7887.00,1.45
7886.00,1.45
7885.00,1.45
7884.00,1.45
7883.00,1.45
7882.00,1.45
7881.00,1.45
7880.00,1.45
7879.00,1.45
7878.00,1.45
7877.00,1.45
7876.00,1.45
7875.00,1.45
7874.00,1.46
7873.00,1.46
7872.00,1.46
7871.00,1.46
7870.00,1.46
7869.00,1.46
7868.00,1.46
7867.00,1.46
7866.00,1.46
7865.00,1.46
7864.00,1.46
7863.00,1.46
7862.00,1.46
7861.00,1.46
7860.00,1.46
7859.00,1.46
7858.00,1.46
7857.00,1.46
7856.00,1.46
7855.00,1.46
7854.00,1.46
7853.00,1.46
7852.00,1.46
7851.00,1.46
7850.00,1.46
7849.00,1.46
7848.00,1.46
7847.00,1.46
7846.00,1.46
7845.00,1.46
7844.00,1.46
7843.00,1.46
7842.00,1.46
7841.00,1.46
7840.00,1.46
7839.00,1.46
7838.00,1.46
7837.00,1.46
7836.00,1.46
7835.00,1.46
7834.00,1.46
7833.00,1.46
7832.00,1.46
7831.00,1.46
7830.00,1.46
7829.00,1.46
7828.00,1.46
7827.00,1.46
7826.00,1.46
7825.00,1.46
7824.00,1.46
7823.00,1.46
7822.00,1.46
7821.00,1.46
7820.00,1.46
7819.00,1.46
7818.00,1.46
7817.00,1.46
7816.00,1.46
7815.00,1.46
7814.00,1.46
7813.00,1.46
7812.00,1.46
7811.00,1.47
7810.00,1.47
7809.00,1.47
7808.00,1.47
7807.00,1.47
7806.00,1.47
7805.00,1.47
7804.00,1.47
7803.00,1.47
7802.00,1.47
7801.00,1.47
7800.00,1.47
7799.00,1.47
7798.00,1.47
7797.00,1.47
7796.00,1.47
7795.00,1.47
7794.00,1.47
7793.00,1.47
7792.00,1.47
7791.00,1.47
7790.00,1.47
7789.00,1.47
7788.00,1.47
7787.00,1.47
7786.00,1.47
7785.00,1.47
7784.00,1.47
7783.00,1.47
7782.00,1.47
7781.00,1.47
7780.00,1.47
7779.00,1.47
7778.00,1.47
7777.00,1.47
7776.00,1.47
7775.00,1.47
7774.00,1.47
7773.00,1.47
7772.00,1.47
7771.00,1.47
7770.00,1.47
7769.00,1.47
7768.00,1.47
7767.00,1.47
7766.00,1.47
7765.00,1.47
7764.00,1.47
7763.00,1.47
7762.00,1.47
7761.00,1.47
7760.00,1.47
7759.00,1.47
7758.00,1.47
7757.00,1.47
7756.00,1.47
7755.00,1.47
7754.00,1.47
7753.00,1.47
7752.00,1.47
7751.00,1.47
7750.00,1.47
7749.00,1.47
7748.00,1.47
7747.00,1.47
7746.00,1.47
7745.00,1.47
7744.00,1.47
7743.00,1.47
7742.00,1.47
7741.00,1.47
7740.00,1.47
7739.00,1.47
7738.00,1.47
7737.00,1.47
7736.00,1.47
7735.00,1.47
7734.00,1.47
7733.00,1.48
7732.00,1.48
7731.00,1.48
7730.00,1.48
7729.00,1.48
7728.00,1.48
7727.00,1.48
7726.00,1.48
7725.00,1.48
7724.00,1.48
7723.00,1.48
7722.00,1.48
7721.00,1.48
7720.00,1.48
7719.00,1.48
7718.00,1.48
7717.00,1.48
7716.00,1.48
7715.00,1.48
7714.00,1.48
7713.00,1.48
7712.00,1.48
7711.00,1.48
7710.00,1.48
7709.00,1.48
7708.00,1.48
7707.00,1.48
7706.00,1.48
7705.00,1.48
7704.00,1.48
7703.00,1.48
7702.00,1.48
7701.00,1.48
7700.00,1.48
7699.00,1.48
7698.00,1.48
7697.00,1.48
7696.00,1.48
7695.00,1.48
7694.00,1.48
7693.00,1.48
7692.00,1.48
7691.00,1.48
7690.00,1.48
7689.00,1.48
7688.00,1.48
7687.00,1.48
7686.00,1.48
7685.00,1.48
7684.00,1.48
7683.00,1.48
7682.00,1.48
7681.00,1.48
7680.00,1.48
7679.00,1.48
7678.00,1.48
7677.00,1.48
7676.00,1.48
7675.00,1.48
7674.00,1.48
7673.00,1.48
7672.00,1.48
7671.00,1.48
7670.00,1.48
7669.00,1.48
7668.00,1.48
7667.00,1.48
7666.00,1.48
7665.00,1.48
7664.00,1.48
7663.00,1.48
7662.00,1.48
7661.00,1.48
7660.00,1.48
7659.00,1.48
7658.00,1.48
7657.00,1.48
7656.00,1.48
7655.00,1.48
7654.00,1.48
7653.00,1.48
7652.00,1.48
7651.00,1.48
7650.00,1.48
7649.00,1.48
7648.00,1.48
7647.00,1.48
7646.00,1.48
7645.00,1.48
7644.00,1.48
7643.00,1.48
7642.00,1.48
7641.00,1.48
7640.00,1.48
7639.00,1.48
7638.00,1.48
7637.00,1.48
7636.00,1.48
7635.00,1.48
7634.00,1.48
7633.00,1.48
7632.00,1.48
7631.00,1.48
7630.00,1.48
7629.00,1.48
7628.00,1.48
7627.00,1.48
7626.00,1.48
7625.00,1.48
7624.00,1.48
7623.00,1.48
7622.00,1.48
7621.00,1.48
7620.00,1.48
7619.00,1.48
7618.00,1.48
7617.00,1.48
7616.00,1.48
7615.00,1.48
7614.00,1.48
7613.00,1.48
7612.00,1.48
7611.00,1.48
7610.00,1.48
7609.00,1.48
7608.00,1.48
7607.00,1.48
7606.00,1.48
7605.00,1.48
7604.00,1.48
7603.00,1.48
7602.00,1.48
7601.00,1.48
7600.00,1.48
7599.00,1.48
7598.00,1.48
7597.00,1.48
7596.00,1.48
7595.00,1.48
7594.00,1.48
7593.00,1.48
7592.00,1.48
7591.00,1.48
7590.00,1.48
7589.00,1.48
7588.00,1.48
7587.00,1.48
7586.00,1.48
7585.00,1.48
7584.00,1.48
7583.00,1.48
7582.00,1.48
7581.00,1.48
7580.00,1.48
7579.00,1.48
7578.00,1.48
7577.00,1.48
7576.00,1.48
7575.00,1.48
7574.00,1.48
7573.00,1.48
7572.00,1.48
7571.00,1.48
7570.00,1.48
7569.00,1.48
7568.00,1.48
7567.00,1.48
7566.00,1.48
7565.00,1.48
7564.00,1.48
7563.00,1.48
7562.00,1.48
7561.00,1.48
7560.00,1.48
7559.00,1.48
7558.00,1.48
7557.00,1.48
7556.00,1.48
7555.00,1.48
7554.00,1.47
7553.00,1.47
7552.00,1.47
7551.00,1.47
7550.00,1.47
7549.00,1.47
7548.00,1.47
7547.00,1.47
7546.00,1.47
7545.00,1.47
7544.00,1.47
7543.00,1.47
7542.00,1.47
7541.00,1.47
7540.00,1.47
7539.00,1.47
7538.00,1.47
7537.00,1.47
7536.00,1.47
7535.00,1.47
7534.00,1.47
7533.00,1.47
7532.00,1.47
7531.00,1.47
7530.00,1.47
7529.00,1.47
7528.00,1.47
7527.00,1.47
7526.00,1.47
7525.00,1.47
7524.00,1.46
7523.00,1.46
7522.00,1.46
7521.00,1.46
7520.00,1.46
7519.00,1.46
7518.00,1.46
7517.00,1.46
7516.00,1.46
7515.00,1.46
7514.00,1.46
7513.00,1.46
7512.00,1.46
7511.00,1.46
7510.00,1.45
7509.00,1.45
7508.00,1.45
7507.00,1.45
7506.00,1.45
7505.00,1.45
7504.00,1.45
7503.00,1.45
7502.00,1.45
7501.00,1.45
7500.00,1.45
7499.00,1.45
7498.00,1.45
7497.00,1.45
7496.00,1.45
7495.00,1.45
7494.00,1.45
7493.00,1.45
7492.00,1.45
7491.00,1.45
7490.00,1.45
7489.00,1.45
7488.00,1.45
7487.00,1.45
7486.00,1.45
7485.00,1.45
7484.00,1.45
7483.00,1.45
7482.00,1.44
7481.00,1.44
7480.00,1.44
7479.00,1.44
7478.00,1.44
7477.00,1.44
7476.00,1.44
7475.00,1.44
7474.00,1.44
7473.00,1.44
7472.00,1.43
7471.00,1.43
7470.00,1.43
7469.00,1.43
7468.00,1.43
7467.00,1.43
7466.00,1.43
7465.00,1.43
7464.00,1.43
7463.00,1.43
7462.00,1.43
7461.00,1.43
7460.00,1.43
7459.00,1.43
7458.00,1.43
7457.00,1.43
7456.00,1.43
7455.00,1.42
7454.00,1.42
7453.00,1.42
7452.00,1.42
7451.00,1.42
7450.00,1.42
7449.00,1.42
7448.00,1.42
7447.00,1.42
7446.00,1.42
7445.00,1.41
7444.00,1.41
7443.00,1.41
7442.00,1.41
7441.00,1.41
7440.00,1.41
7439.00,1.41
7438.00,1.41
7437.00,1.41
7436.00,1.41
7435.00,1.41
7434.00,1.40
7433.00,1.40
7432.00,1.40
7431.00,1.40
7430.00,1.40
7429.00,1.40
7428.00,1.40
7427.00,1.40
7426.00,1.40
7425.00,1.40
7424.00,1.40
7423.00,1.40
7422.00,1.40
7421.00,1.40
7420.00,1.39
7419.00,1.39
7418.00,1.39
7417.00,1.39
7416.00,1.39
7415.00,1.39
7414.00,1.38
7413.00,1.38
7412.00,1.38
7411.00,1.38
7410.00,1.38
7409.00,1.37
7408.00,1.37
7407.00,1.37
7406.00,1.37
7405.00,1.37
7404.00,1.37
7403.00,1.37
7402.00,1.36
7401.00,1.36
7400.00,1.36
7399.00,1.36
7398.00,1.36
7397.00,1.36
7396.00,1.35
7395.00,1.35
7394.00,1.35
7393.00,1.35
7392.00,1.35
7391.00,1.35
7390.00,1.34
7389.00,1.34
7388.00,1.34
7387.00,1.34
7386.00,1.34
7385.00,1.33
7384.00,1.33
7383.00,1.33
7382.00,1.33
7381.00,1.33
7380.00,1.33
7379.00,1.33
7378.00,1.33
7377.00,1.33
7376.00,1.33
7375.00,1.33
7374.00,1.33
7373.00,1.33
7372.00,1.33
7371.00,1.33
7370.00,1.33
7369.00,1.33
7368.00,1.33
7367.00,1.33
7366.00,1.33
7365.00,1.33
7364.00,1.33
7363.00,1.32
7362.00,1.32
7361.00,1.32
7360.00,1.32
7359.00,1.32
7358.00,1.32
7357.00,1.32
7356.00,1.32
7355.00,1.32
7354.00,1.32
7353.00,1.32
7352.00,1.32
7351.00,1.32
7350.00,1.32
7349.00,1.31
7348.00,1.31
7347.00,1.31
7346.00,1.31
7345.00,1.31
7344.00,1.31
7343.00,1.31
7342.00,1.31
7341.00,1.31
7340.00,1.31
7339.00,1.31
7338.00,1.31
7337.00,1.31
7336.00,1.31
7335.00,1.31
7334.00,1.31
7333.00,1.31
7332.00,1.31
7331.00,1.31
7330.00,1.31
7329.00,1.31
7328.00,1.31
7327.00,1.31
7326.00,1.30
7325.00,1.30
7324.00,1.30
7323.00,1.30
7322.00,1.30
7321.00,1.30
7320.00,1.30
7319.00,1.30
7318.00,1.29
7317.00,1.29
7316.00,1.29
7315.00,1.29
7314.00,1.29
7313.00,1.29
7312.00,1.29
7311.00,1.28
7310.00,1.28
7309.00,1.28
7308.00,1.28
7307.00,1.28
7306.00,1.28
7305.00,1.28
7304.00,1.27
7303.00,1.27
7302.00,1.27
7301.00,1.27
7300.00,1.27
7299.00,1.27
7298.00,1.27
7297.00,1.26
7296.00,1.26
7295.00,1.26
7294.00,1.26
7293.00,1.26
7292.00,1.26
7291.00,1.26
7290.00,1.25
7289.00,1.25
7288.00,1.25
7287.00,1.25
7286.00,1.25
7285.00,1.25
7284.00,1.25
7283.00,1.24
7282.00,1.24
7281.00,1.24
7280.00,1.24
7279.00,1.24
7278.00,1.24
7277.00,1.24
7276.00,1.23
7275.00,1.23
7274.00,1.23
7273.00,1.23
7272.00,1.23
7271.00,1.23
7270.00,1.23
7269.00,1.22
7268.00,1.22
7267.00,1.22
7266.00,1.22
7265.00,1.22
7264.00,1.22
7263.00,1.22
7262.00,1.21
7261.00,1.21
7260.00,1.21
7259.00,1.21
7258.00,1.21
7257.00,1.20
7256.00,1.20
7255.00,1.20
7254.00,1.20
7253.00,1.20
7252.00,1.19
7251.00,1.19
7250.00,1.19
7249.00,1.18
7248.00,1.18
7247.00,1.18
7246.00,1.17
7245.00,1.17
7244.00,1.17
7243.00,1.16
7242.00,1.16
7241.00,1.15
7240.00,1.15
7239.00,1.14
7238.00,1.14
7237.00,1.14
7236.00,1.13
7235.00,1.13
7234.00,1.12
7233.00,1.12
7232.00,1.11
7231.00,1.11
7230.00,1.10
7229.00,1.10
7228.00,1.10
7227.00,1.09
7226.00,1.09
7225.00,1.08
7224.00,1.08
7223.00,1.08
7222.00,1.07
7221.00,1.07
7220.00,1.06
7219.00,1.06
7218.00,1.06
7217.00,1.05
7216.00,1.05
7215.00,1.05
7214.00,1.04
7213.00,1.04
7212.00,1.03
7211.00,1.03
7210.00,1.02
7209.00,1.02
7208.00,1.01
7207.00,1.01
7206.00,1.01
7205.00,1.00
7204.00,1.00
7203.00,0.99
7202.00,0.99
7201.00,0.98
7200.00,0.98
7199.00,0.97
7198.00,0.97
7197.00,0.96
7196.00,0.96
7195.00,0.96
7194.00,0.95
7193.00,0.95
7192.00,0.95
7191.00,0.94
7190.00,0.94
7189.00,0.93
7188.00,0.93
7187.00,0.93
7186.00,0.92
7185.00,0.92
7184.00,0.92
7183.00,0.91
7182.00,0.91
7181.00,0.91
7180.00,0.90
7179.00,0.90
7178.00,0.90
7177.00,0.89
7176.00,0.89
7175.00,0.89
7174.00,0.89
7173.00,0.88
7172.00,0.88
7171.00,0.88
7170.00,0.87
7169.00,0.87
7168.00,0.86
7167.00,0.86
7166.00,0.86
7165.00,0.85
7164.00,0.85
7163.00,0.85
7162.00,0.84
7161.00,0.84
7160.00,0.84
7159.00,0.83
7158.00,0.83
7157.00,0.83
7156.00,0.82
7155.00,0.82
7154.00,0.82
7153.00,0.82
7152.00,0.81
7151.00,0.81
7150.00,0.81
7149.00,0.81
7148.00,0.80
7147.00,0.80
7146.00,0.80
7145.00,0.80
7144.00,0.79
7143.00,0.79
7142.00,0.79
7141.00,0.78
7140.00,0.78
7139.00,0.78
7138.00,0.78
7137.00,0.77
7136.00,0.77
7135.00,0.77
7134.00,0.76
7133.00,0.76
7132.00,0.76
7131.00,0.75
7130.00,0.75
7129.00,0.75
7128.00,0.74
7127.00,0.74
7126.00,0.74
7125.00,0.73
7124.00,0.73
7123.00,0.72
7122.00,0.72
7121.00,0.72
7120.00,0.71
7119.00,0.71
7118.00,0.71
7117.00,0.70
7116.00,0.70
7115.00,0.70
7114.00,0.69
7113.00,0.69
7112.00,0.69
7111.00,0.69
7110.00,0.68
7109.00,0.68
7108.00,0.68
7107.00,0.68
7106.00,0.67
7105.00,0.67
7104.00,0.67
7103.00,0.66
7102.00,0.66
7101.00,0.66
7100.00,0.66
7099.00,0.65
7098.00,0.65
7097.00,0.65
7096.00,0.65
7095.00,0.64
7094.00,0.64
7093.00,0.64
7092.00,0.63
7091.00,0.63
7090.00,0.63
7089.00,0.63
7088.00,0.62
7087.00,0.62
7086.00,0.62
7085.00,0.62
7084.00,0.61
7083.00,0.61
7082.00,0.61
7081.00,0.61
7080.00,0.60
7079.00,0.60
7078.00,0.60
7077.00,0.60
7076.00,0.60
7075.00,0.59
7074.00,0.59
7073.00,0.59
7072.00,0.59
7071.00,0.59
7070.00,0.58
7069.00,0.58
7068.00,0.58
7067.00,0.58
7066.00,0.58
7065.00,0.58
7064.00,0.58
7063.00,0.58
7062.00,0.57
7061.00,0.57
7060.00,0.57
7059.00,0.57
7058.00,0.57
7057.00,0.57
7056.00,0.57
7055.00,0.57
7054.00,0.56
7053.00,0.56
7052.00,0.56
7051.00,0.56
7050.00,0.56
7049.00,0.55
7048.00,0.55
7047.00,0.55
7046.00,0.55
7045.00,0.54
7044.00,0.54
7043.00,0.54
7042.00,0.54
7041.00,0.54
7040.00,0.54
7039.00,0.53
7038.00,0.53
7037.00,0.53
7036.00,0.53
7035.00,0.53
7034.00,0.53
7033.00,0.53
7032.00,0.53
7031.00,0.53
7030.00,0.53
7029.00,0.53
7028.00,0.53
7027.00,0.52
7026.00,0.52
7025.00,0.52
7024.00,0.52
7023.00,0.52
7022.00,0.52
7021.00,0.51
7020.00,0.51
7019.00,0.51
7018.00,0.51
7017.00,0.51
7016.00,0.50
7015.00,0.50
7014.00,0.50
7013.00,0.50
7012.00,0.50
7011.00,0.50
7010.00,0.50
7009.00,0.50
7008.00,0.50
7007.00,0.50
7006.00,0.50
7005.00,0.50
7004.00,0.50
7003.00,0.50
7002.00,0.50
7001.00,0.50
7000.00,0.50
6999.00,0.49
6998.00,0.49
6997.00,0.49
6996.00,0.49
6995.00,0.49
6994.00,0.49
6993.00,0.49
6992.00,0.49
6991.00,0.49
6990.00,0.49
6989.00,0.49
6988.00,0.49
6987.00,0.49
6986.00,0.48
6985.00,0.48
6984.00,0.48
6983.00,0.48
6982.00,0.48
6981.00,0.48
6980.00,0.48
6979.00,0.48
6978.00,0.48
6977.00,0.48
6976.00,0.48
6975.00,0.48
6974.00,0.48
6973.00,0.48
6972.00,0.48
6971.00,0.48
6970.00,0.48
6969.00,0.48
6968.00,0.48
6967.00,0.48
6966.00,0.48
6965.00,0.48
6964.00,0.48
6963.00,0.48
6962.00,0.48
6961.00,0.48
6960.00,0.48
6959.00,0.47
6958.00,0.47
6957.00,0.47
6956.00,0.47
6955.00,0.47
6954.00,0.47
6953.00,0.47
6952.00,0.47
6951.00,0.47
6950.00,0.47
6949.00,0.47
6948.00,0.47
6947.00,0.47
6946.00,0.47
6945.00,0.47
6944.00,0.47
6943.00,0.47
6942.00,0.47
6941.00,0.47
6940.00,0.47
6939.00,0.47
6938.00,0.47
6937.00,0.47
6936.00,0.47
6935.00,0.47
6934.00,0.47
6933.00,0.47
6932.00,0.47
6931.00,0.47
6930.00,0.47
6929.00,0.47
6928.00,0.47
6927.00,0.47
6926.00,0.47
6925.00,0.47
6924.00,0.47
6923.00,0.47
6922.00,0.46
6921.00,0.46
6920.00,0.46
6919.00,0.46
6918.00,0.46
6917.00,0.46
6916.00,0.46
6915.00,0.46
6914.00,0.46
6913.00,0.46
6912.00,0.46
6911.00,0.46
6910.00,0.46
6909.00,0.46
6908.00,0.46
6907.00,0.46
6906.00,0.46
6905.00,0.46
6904.00,0.46
6903.00,0.46
6902.00,0.46
6901.00,0.46
6900.00,0.46
6899.00,0.46
6898.00,0.46
6897.00,0.46
6896.00,0.46
6895.00,0.46
6894.00,0.46
6893.00,0.46
6892.00,0.46
6891.00,0.46
6890.00,0.46
6889.00,0.46
6888.00,0.46
6887.00,0.46
6886.00,0.46
6885.00,0.46
6884.00,0.46
6883.00,0.46
6882.00,0.46
6881.00,0.46
6880.00,0.46
6879.00,0.46
6878.00,0.46
6877.00,0.46
6876.00,0.46
6875.00,0.46
6874.00,0.46
6873.00,0.46
6872.00,0.46
6871.00,0.46
6870.00,0.46
6869.00,0.46
6868.00,0.46
6867.00,0.46
6866.00,0.46
6865.00,0.46
6864.00,0.46
6863.00,0.46
6862.00,0.46
6861.00,0.46
6860.00,0.46
6859.00,0.46
6858.00,0.46
6857.00,0.46
6856.00,0.46
6855.00,0.45
6854.00,0.45
6853.00,0.45
6852.00,0.45
6851.00,0.45
6850.00,0.45
6849.00,0.45
6848.00,0.45
6847.00,0.45
6846.00,0.45
6845.00,0.45
6844.00,0.45
6843.00,0.45
6842.00,0.45
6841.00,0.45
6840.00,0.45
6839.00,0.45
6838.00,0.45
6837.00,0.45
6836.00,0.45
6835.00,0.45
6834.00,0.45
6833.00,0.45
6832.00,0.45
6831.00,0.45
6830.00,0.45
6829.00,0.45
6828.00,0.45
6827.00,0.45
6826.00,0.45
6825.00,0.45
6824.00,0.45
6823.00,0.45
6822.00,0.45
6821.00,0.45
6820.00,0.45
6819.00,0.46
6818.00,0.46
6817.00,0.46
6816.00,0.46
6815.00,0.46
6814.00,0.46
6813.00,0.46
6812.00,0.46
6811.00,0.46
6810.00,0.46
6809.00,0.46
6808.00,0.46
6807.00,0.46
6806.00,0.47
6805.00,0.47
6804.00,0.47
6803.00,0.47
6802.00,0.47
6801.00,0.47
6800.00,0.47
6799.00,0.47
6798.00,0.47
6797.00,0.47
6796.00,0.47
6795.00,0.47
6794.00,0.47
6793.00,0.47
6792.00,0.47
6791.00,0.47
6790.00,0.47
6789.00,0.47
6788.00,0.47
6787.00,0.47
6786.00,0.47
6785.00,0.47
6784.00,0.47
6783.00,0.48
6782.00,0.48
6781.00,0.48
6780.00,0.48
6779.00,0.48
6778.00,0.48
6777.00,0.48
6776.00,0.48
6775.00,0.48
6774.00,0.48
6773.00,0.48
6772.00,0.49
6771.00,0.49
6770.00,0.49
6769.00,0.49
6768.00,0.49
6767.00,0.49
6766.00,0.49
6765.00,0.49
6764.00,0.49
6763.00,0.49
6762.00,0.49
6761.00,0.49
6760.00,0.50
6759.00,0.50
6758.00,0.50
6757.00,0.50
6756.00,0.50
6755.00,0.50
6754.00,0.50
6753.00,0.50
6752.00,0.50
6751.00,0.50
6750.00,0.50
6749.00,0.50
6748.00,0.50
6747.00,0.50
6746.00,0.50
6745.00,0.50
6744.00,0.50
6743.00,0.50
6742.00,0.50
6741.00,0.50
6740.00,0.50
6739.00,0.50
6738.00,0.50
6737.00,0.50
6736.00,0.50
6735.00,0.50
6734.00,0.50
6733.00,0.50
6732.00,0.50
6731.00,0.50
6730.00,0.50
6729.00,0.50
6728.00,0.50
6727.00,0.51
6726.00,0.51
6725.00,0.51
6724.00,0.51
6723.00,0.51
6722.00,0.51
6721.00,0.51
6720.00,0.51
6719.00,0.51
6718.00,0.51
6717.00,0.51
6716.00,0.51
6715.00,0.51
6714.00,0.51
6713.00,0.51
6712.00,0.52
6711.00,0.52
6710.00,0.52
6709.00,0.52
6708.00,0.52
6707.00,0.52
6706.00,0.52
6705.00,0.52
6704.00,0.53
6703.00,0.53
6702.00,0.53
6701.00,0.53
6700.00,0.53
6699.00,0.53
6698.00,0.53
6697.00,0.53
6696.00,0.53
6695.00,0.54
6694.00,0.54
6693.00,0.54
6692.00,0.54
6691.00,0.54
6690.00,0.54
6689.00,0.54
6688.00,0.54
6687.00,0.54
6686.00,0.54
6685.00,0.54
6684.00,0.54
6683.00,0.54
6682.00,0.55
6681.00,0.55
6680.00,0.55
6679.00,0.55
6678.00,0.55
6677.00,0.55
6676.00,0.55
6675.00,0.55
6674.00,0.55
6673.00,0.56
6672.00,0.56
6671.00,0.56
6670.00,0.56
6669.00,0.56
6668.00,0.56
6667.00,0.56
6666.00,0.56
6665.00,0.56
6664.00,0.56
6663.00,0.56
6662.00,0.56
6661.00,0.56
6660.00,0.56
6659.00,0.56
6658.00,0.56
6657.00,0.56
6656.00,0.57
6655.00,0.57
6654.00,0.57
6653.00,0.57
6652.00,0.57
6651.00,0.57
6650.00,0.57
6649.00,0.57
6648.00,0.57
6647.00,0.57
6646.00,0.57
6645.00,0.58
6644.00,0.58
6643.00,0.58
6642.00,0.58
6641.00,0.58
6640.00,0.58
6639.00,0.58
6638.00,0.58
6637.00,0.59
6636.00,0.59
6635.00,0.59
6634.00,0.59
6633.00,0.59
6632.00,0.59
6631.00,0.59
6630.00,0.59
6629.00,0.60
6628.00,0.60
6627.00,0.60
6626.00,0.60
6625.00,0.60
6624.00,0.60
6623.00,0.60
6622.00,0.60
6621.00,0.60
6620.00,0.60
6619.00,0.60
6618.00,0.60
6617.00,0.61
6616.00,0.61
6615.00,0.61
6614.00,0.61
6613.00,0.61
6612.00,0.61
6611.00,0.61
6610.00,0.61
6609.00,0.61
6608.00,0.61
6607.00,0.62
6606.00,0.62
6605.00,0.62
6604.00,0.62
6603.00,0.62
6602.00,0.62
6601.00,0.62
6600.00,0.62
6599.00,0.62
6598.00,0.63
6597.00,0.63
6596.00,0.63
6595.00,0.63
6594.00,0.63
6593.00,0.63
6592.00,0.63
6591.00,0.63
6590.00,0.63
6589.00,0.63
6588.00,0.63
6587.00,0.64
6586.00,0.64
6585.00,0.64
6584.00,0.64
6583.00,0.64
6582.00,0.64
6581.00,0.64
6580.00,0.64
6579.00,0.64
6578.00,0.64
6577.00,0.65
6576.00,0.65
6575.00,0.65
6574.00,0.65
6573.00,0.65
6572.00,0.65
6571.00,0.65
6570.00,0.65
6569.00,0.65
6568.00,0.66
6567.00,0.66
6566.00,0.66
6565.00,0.66
6564.00,0.66
6563.00,0.66
6562.00,0.66
6561.00,0.66
6560.00,0.66
6559.00,0.66
6558.00,0.67
6557.00,0.67
6556.00,0.67
6555.00,0.67
6554.00,0.67
6553.00,0.67
6552.00,0.67
6551.00,0.67
6550.00,0.67
6549.00,0.67
6548.00,0.67
6547.00,0.67
6546.00,0.67
6545.00,0.67
6544.00,0.67
6543.00,0.67
6542.00,0.68
6541.00,0.68
6540.00,0.68
6539.00,0.68
6538.00,0.68
6537.00,0.68
6536.00,0.68
6535.00,0.69
6534.00,0.69
6533.00,0.69
6532.00,0.69
6531.00,0.69
6530.00,0.69
6529.00,0.70
6528.00,0.70
6527.00,0.70
6526.00,0.70
6525.00,0.70
6524.00,0.70
6523.00,0.70
6522.00,0.70
6521.00,0.71
6520.00,0.71
6519.00,0.71
6518.00,0.71
6517.00,0.71
6516.00,0.71
6515.00,0.71
6514.00,0.71
6513.00,0.71
6512.00,0.71
6511.00,0.71
6510.00,0.72
6509.00,0.72
6508.00,0.72
6507.00,0.72
6506.00,0.72
6505.00,0.72
6504.00,0.72
6503.00,0.72
6502.00,0.72
6501.00,0.72
6500.00,0.72
6499.00,0.72
6498.00,0.72
6497.00,0.72
6496.00,0.72
6495.00,0.72
6494.00,0.72
6493.00,0.72
6492.00,0.72
6491.00,0.72
6490.00,0.72
6489.00,0.72
6488.00,0.72
6487.00,0.72
6486.00,0.72
6485.00,0.73
6484.00,0.73
6483.00,0.73
6482.00,0.73
6481.00,0.73
6480.00,0.73
6479.00,0.73
6478.00,0.73
6477.00,0.73
6476.00,0.73
6475.00,0.73
6474.00,0.73
6473.00,0.73
6472.00,0.74
6471.00,0.74
6470.00,0.74
6469.00,0.74
6468.00,0.74
6467.00,0.74
6466.00,0.74
6465.00,0.74
6464.00,0.74
6463.00,0.74
6462.00,0.74
6461.00,0.75
6460.00,0.75
6459.00,0.75
6458.00,0.75
6457.00,0.75
6456.00,0.75
6455.00,0.75
6454.00,0.75
6453.00,0.75
6452.00,0.75
6451.00,0.76
6450.00,0.76
6449.00,0.76
6448.00,0.76
6447.00,0.76
6446.00,0.76
6445.00,0.76
6444.00,0.76
6443.00,0.76
6442.00,0.76
6441.00,0.76
6440.00,0.76
6439.00,0.76
6438.00,0.77
6437.00,0.77
6436.00,0.77
6435.00,0.77
6434.00,0.77
6433.00,0.77
6432.00,0.77
6431.00,0.77
6430.00,0.77
6429.00,0.77
6428.00,0.77
6427.00,0.77
6426.00,0.77
6425.00,0.77
6424.00,0.77
6423.00,0.77
6422.00,0.77
6421.00,0.77
6420.00,0.77
6419.00,0.77
6418.00,0.77
6417.00,0.77
6416.00,0.77
6415.00,0.77
6414.00,0.77
6413.00,0.77
6412.00,0.77
6411.00,0.78
6410.00,0.78
6409.00,0.78
6408.00,0.78
6407.00,0.78
6406.00,0.78
6405.00,0.79
6404.00,0.79
6403.00,0.79
6402.00,0.79
6401.00,0.79
6400.00,0.79
6399.00,0.79
6398.00,0.80
6397.00,0.80
6396.00,0.80
6395.00,0.80
6394.00,0.80
6393.00,0.80
6392.00,0.80
6391.00,0.80
6390.00,0.80
6389.00,0.80
6388.00,0.80
6387.00,0.80
6386.00,0.80
6385.00,0.80
6384.00,0.80
6383.00,0.80
6382.00,0.80
6381.00,0.80
6380.00,0.80
6379.00,0.80
6378.00,0.81
6377.00,0.81
6376.00,0.81
6375.00,0.81
6374.00,0.81
6373.00,0.81
6372.00,0.81
6371.00,0.81
6370.00,0.81
6369.00,0.81
6368.00,0.81
6367.00,0.81
6366.00,0.81
6365.00,0.81
6364.00,0.81
6363.00,0.81
6362.00,0.81
6361.00,0.82
6360.00,0.82
6359.00,0.82
6358.00,0.82
6357.00,0.82
6356.00,0.82
6355.00,0.82
6354.00,0.82
6353.00,0.82
6352.00,0.83
6351.00,0.83
6350.00,0.83
6349.00,0.83
6348.00,0.83
6347.00,0.83
6346.00,0.83
6345.00,0.84
6344.00,0.84
6343.00,0.84
6342.00,0.84
6341.00,0.84
6340.00,0.84
6339.00,0.85
6338.00,0.85
6337.00,0.85
6336.00,0.85
6335.00,0.85
6334.00,0.85
6333.00,0.85
6332.00,0.85
6331.00,0.85
6330.00,0.85
6329.00,0.85
6328.00,0.86
6327.00,0.86
6326.00,0.86
6325.00,0.86
6324.00,0.86
6323.00,0.86
6322.00,0.86
6321.00,0.86
6320.00,0.86
6319.00,0.86
6318.00,0.87
6317.00,0.87
6316.00,0.87
6315.00,0.87
6314.00,0.87
6313.00,0.87
6312.00,0.87
6311.00,0.87
6310.00,0.88
6309.00,0.88
6308.00,0.88
6307.00,0.88
6306.00,0.88
6305.00,0.88
6304.00,0.88
6303.00,0.88
6302.00,0.89
6301.00,0.89
6300.00,0.89
6299.00,0.89
6298.00,0.89
6297.00,0.89
6296.00,0.89
6295.00,0.89
6294.00,0.90
6293.00,0.90
6292.00,0.90
6291.00,0.90
6290.00,0.90
6289.00,0.90
6288.00,0.90
6287.00,0.90
6286.00,0.90
6285.00,0.91
6284.00,0.91
6283.00,0.91
6282.00,0.91
6281.00,0.91
6280.00,0.91
6279.00,0.91
6278.00,0.91
6277.00,0.91
6276.00,0.92
6275.00,0.92
6274.00,0.92
6273.00,0.92
6272.00,0.92
6271.00,0.92
6270.00,0.92
6269.00,0.92
6268.00,0.93
6267.00,0.93
6266.00,0.93
6265.00,0.93
6264.00,0.93
6263.00,0.93
6262.00,0.93
6261.00,0.94
6260.00,0.94
6259.00,0.94
6258.00,0.94
6257.00,0.94
6256.00,0.94
6255.00,0.95
6254.00,0.95
6253.00,0.95
6252.00,0.95
6251.00,0.95
6250.00,0.96
6249.00,0.96
6248.00,0.96
6247.00,0.96
6246.00,0.96
6245.00,0.96
6244.00,0.97
6243.00,0.97
6242.00,0.97
6241.00,0.97
6240.00,0.97
6239.00,0.97
6238.00,0.98
6237.00,0.98
6236.00,0.98
6235.00,0.98
6234.00,0.98
6233.00,0.98
6232.00,0.99
6231.00,0.99
6230.00,0.99
6229.00,0.99
6228.00,0.99
6227.00,0.99
6226.00,1.00
6225.00,1.00
6224.00,1.00
6223.00,1.00
6222.00,1.00
6221.00,1.00
6220.00,1.01
6219.00,1.01
6218.00,1.01
6217.00,1.01
6216.00,1.01
6215.00,1.01
6214.00,1.02
6213.00,1.02
6212.00,1.02
6211.00,1.02
6210.00,1.02
6209.00,1.03
6208.00,1.03
6207.00,1.03
6206.00,1.03
6205.00,1.03
6204.00,1.03
6203.00,1.04
6202.00,1.04
6201.00,1.04
6200.00,1.04
6199.00,1.04
6198.00,1.05
6197.00,1.05
6196.00,1.05
6195.00,1.05
6194.00,1.05
6193.00,1.05
6192.00,1.06
6191.00,1.06
6190.00,1.06
6189.00,1.06
6188.00,1.06
6187.00,1.07
6186.00,1.07
6185.00,1.07
6184.00,1.07
6183.00,1.07
6182.00,1.08
6181.00,1.08
6180.00,1.08
6179.00,1.08
6178.00,1.08
6177.00,1.09
6176.00,1.09
6175.00,1.09
6174.00,1.09
6173.00,1.09
6172.00,1.10
6171.00,1.10
6170.00,1.10
6169.00,1.10
6168.00,1.10
6167.00,1.10
6166.00,1.11
6165.00,1.11
6164.00,1.11
6163.00,1.11
6162.00,1.11
6161.00,1.11
6160.00,1.12
6159.00,1.12
6158.00,1.12
6157.00,1.12
6156.00,1.12
6155.00,1.12
6154.00,1.13
6153.00,1.13
6152.00,1.13
6151.00,1.13
6150.00,1.13
6149.00,1.13
6148.00,1.14
6147.00,1.14
6146.00,1.14
6145.00,1.14
6144.00,1.14
6143.00,1.15
6142.00,1.15
6141.00,1.15
6140.00,1.15
6139.00,1.15
6138.00,1.16
6137.00,1.16
6136.00,1.16
6135.00,1.16
6134.00,1.17
6133.00,1.17
6132.00,1.17
6131.00,1.17
6130.00,1.17
6129.00,1.18
6128.00,1.18
6127.00,1.18
6126.00,1.18
6125.00,1.18
6124.00,1.19
6123.00,1.19
6122.00,1.19
6121.00,1.19
6120.00,1.20
6119.00,1.20
6118.00,1.20
6117.00,1.20
6116.00,1.21
6115.00,1.21
6114.00,1.21
6113.00,1.21
6112.00,1.21
6111.00,1.22
6110.00,1.22
6109.00,1.22
6108.00,1.22
6107.00,1.22
6106.00,1.22
6105.00,1.23
6104.00,1.23
6103.00,1.23
6102.00,1.23
6101.00,1.23
6100.00,1.23
6099.00,1.24
6098.00,1.24
6097.00,1.24
6096.00,1.24
6095.00,1.24
6094.00,1.24
6093.00,1.25
6092.00,1.25
6091.00,1.25
6090.00,1.25
6089.00,1.26
6088.00,1.26
6087.00,1.26
6086.00,1.26
6085.00,1.26
6084.00,1.27
6083.00,1.27
6082.00,1.27
6081.00,1.27
6080.00,1.27
6079.00,1.27
6078.00,1.28
6077.00,1.28
6076.00,1.28
6075.00,1.28
6074.00,1.28
6073.00,1.28
6072.00,1.28
6071.00,1.28
6070.00,1.29
6069.00,1.29
6068.00,1.29
6067.00,1.29
6066.00,1.29
6065.00,1.29
6064.00,1.29
6063.00,1.29
6062.00,1.29
6061.00,1.30
6060.00,1.30
6059.00,1.30
6058.00,1.30
6057.00,1.30
6056.00,1.30
6055.00,1.30
6054.00,1.30
6053.00,1.31
6052.00,1.31
6051.00,1.31
6050.00,1.31
6049.00,1.31
6048.00,1.31
6047.00,1.31
6046.00,1.32
6045.00,1.32
6044.00,1.32
6043.00,1.32
6042.00,1.32
6041.00,1.32
6040.00,1.32
6039.00,1.32
6038.00,1.33
6037.00,1.33
6036.00,1.33
6035.00,1.33
6034.00,1.33
6033.00,1.33
6032.00,1.33
6031.00,1.33
6030.00,1.33
6029.00,1.33
6028.00,1.33
6027.00,1.33
6026.00,1.34
6025.00,1.34
6024.00,1.34
6023.00,1.34
6022.00,1.34
6021.00,1.34
6020.00,1.34
6019.00,1.34
6018.00,1.34
6017.00,1.34
6016.00,1.34
6015.00,1.34
6014.00,1.34
6013.00,1.34
6012.00,1.34
6011.00,1.34
6010.00,1.34
6009.00,1.34
6008.00,1.34
6007.00,1.34
6006.00,1.34
6005.00,1.34
6004.00,1.34
6003.00,1.34
6002.00,1.33
6001.00,1.33
6000.00,1.33
5999.00,1.33
5998.00,1.33
5997.00,1.33
5996.00,1.32
5995.00,1.32
5994.00,1.32
5993.00,1.32
5992.00,1.32
5991.00,1.31
5990.00,1.31
5989.00,1.31
5988.00,1.30
5987.00,1.30
5986.00,1.30
5985.00,1.29
5984.00,1.29
5983.00,1.29
5982.00,1.28
5981.00,1.28
5980.00,1.27
5979.00,1.27
5978.00,1.26
5977.00,1.26
5976.00,1.25
5975.00,1.25
5974.00,1.24
5973.00,1.23
5972.00,1.23
5971.00,1.22
5970.00,1.21
5969.00,1.21
5968.00,1.20
5967.00,1.19
5966.00,1.18
5965.00,1.17
5964.00,1.16
5963.00,1.15
5962.00,1.15
5961.00,1.14
5960.00,1.13
5959.00,1.12
5958.00,1.11
5957.00,1.10
5956.00,1.09
5955.00,1.08
5954.00,1.08
5953.00,1.07
5952.00,1.06
5951.00,1.05
5950.00,1.04
5949.00,1.04
5948.00,1.03
5947.00,1.03
5946.00,1.02
5945.00,1.01
5944.00,1.01
5943.00,1.01
5942.00,1.00
5941.00,1.00
5940.00,1.00
5939.00,0.99
5938.00,0.99
5937.00,0.99
5936.00,0.99
5935.00,0.99
5934.00,0.98
5933.00,0.98
5932.00,0.98
5931.00,0.98
5930.00,0.98
5929.00,0.98
5928.00,0.97
5927.00,0.97
5926.00,0.97
5925.00,0.97
5924.00,0.97
5923.00,0.96
5922.00,0.96
5921.00,0.96
5920.00,0.95
5919.00,0.95
5918.00,0.95
5917.00,0.95
5916.00,0.94
5915.00,0.94
5914.00,0.94
5913.00,0.93
5912.00,0.93
5911.00,0.93
5910.00,0.92
5909.00,0.92
5908.00,0.92
5907.00,0.92
5906.00,0.91
5905.00,0.91
5904.00,0.91
5903.00,0.91
5902.00,0.91
5901.00,0.91
5900.00,0.91
5899.00,0.91
5898.00,0.91
5897.00,0.91
5896.00,0.91
5895.00,0.91
5894.00,0.91
5893.00,0.92
5892.00,0.92
5891.00,0.92
5890.00,0.92
5889.00,0.93
5888.00,0.93
5887.00,0.93
5886.00,0.94
5885.00,0.94
5884.00,0.94
5883.00,0.95
5882.00,0.95
5881.00,0.95
5880.00,0.96
5879.00,0.96
5878.00,0.96
5877.00,0.97
5876.00,0.97
5875.00,0.97
5874.00,0.97
5873.00,0.98
5872.00,0.98
5871.00,0.98
5870.00,0.98
5869.00,0.99
5868.00,0.99
5867.00,0.99
5866.00,0.99
5865.00,0.99
5864.00,1.00
5863.00,1.00
5862.00,1.00
5861.00,1.00
5860.00,1.00
5859.00,1.00
5858.00,1.01
5857.00,1.01
5856.00,1.01
5855.00,1.01
5854.00,1.01
5853.00,1.01
5852.00,1.01
5851.00,1.02
5850.00,1.02
5849.00,1.02
5848.00,1.02
5847.00,1.02
5846.00,1.02
5845.00,1.02
5844.00,1.02
5843.00,1.02
5842.00,1.02
5841.00,1.02
5840.00,1.02
5839.00,1.02
5838.00,1.02
5837.00,1.02
5836.00,1.02
5835.00,1.02
5834.00,1.02
5833.00,1.02
5832.00,1.02
5831.00,1.02
5830.00,1.02
5829.00,1.02
5828.00,1.02
5827.00,1.02
5826.00,1.02
5825.00,1.02
5824.00,1.02
5823.00,1.02
5822.00,1.02
5821.00,1.02
5820.00,1.02
5819.00,1.02
5818.00,1.02
5817.00,1.02
5816.00,1.02
5815.00,1.02
5814.00,1.02
5813.00,1.02
5812.00,1.02
5811.00,1.02
5810.00,1.02
5809.00,1.02
5808.00,1.02
5807.00,1.02
5806.00,1.02
5805.00,1.02
5804.00,1.02
5803.00,1.02
5802.00,1.02
5801.00,1.02
5800.00,1.01
5799.00,1.01
5798.00,1.01
5797.00,1.01
5796.00,1.01
5795.00,1.00
5794.00,1.00
5793.00,1.00
5792.00,1.00
5791.00,1.00
5790.00,0.99
5789.00,0.99
5788.00,0.99
5787.00,0.99
5786.00,0.98
5785.00,0.98
5784.00,0.98
5783.00,0.98
5782.00,0.98
5781.00,0.98
5780.00,0.97
5779.00,0.97
5778.00,0.97
5777.00,0.97
5776.00,0.97
5775.00,0.97
5774.00,0.97
5773.00,0.97
5772.00,0.97
5771.00,0.97
5770.00,0.97
5769.00,0.97
5768.00,0.97
5767.00,0.97
5766.00,0.97
5765.00,0.98
5764.00,0.98
5763.00,0.98
5762.00,0.98
5761.00,0.99
5760.00,0.99
5759.00,0.99
5758.00,1.00
5757.00,1.00
5756.00,1.00
5755.00,1.01
5754.00,1.01
5753.00,1.02
5752.00,1.02
5751.00,1.02
5750.00,1.03
5749.00,1.03
5748.00,1.04
5747.00,1.04
5746.00,1.04
5745.00,1.05
5744.00,1.05
5743.00,1.05
5742.00,1.06
5741.00,1.06
5740.00,1.07
5739.00,1.07
5738.00,1.07
5737.00,1.08
5736.00,1.08
5735.00,1.08
5734.00,1.09
5733.00,1.09
5732.00,1.09
5731.00,1.09
5730.00,1.10
5729.00,1.10
5728.00,1.10
5727.00,1.10
5726.00,1.10
5725.00,1.11
5724.00,1.11
5723.00,1.11
5722.00,1.11
5721.00,1.11
5720.00,1.11
5719.00,1.11
5718.00,1.11
5717.00,1.11
5716.00,1.11
5715.00,1.11
5714.00,1.11
5713.00,1.11
5712.00,1.11
5711.00,1.11
5710.00,1.11
5709.00,1.11
5708.00,1.11
5707.00,1.11
5706.00,1.10
5705.00,1.10
5704.00,1.10
5703.00,1.10
5702.00,1.10
5701.00,1.10
5700.00,1.10
5699.00,1.10
5698.00,1.10
5697.00,1.09
5696.00,1.09
5695.00,1.09
5694.00,1.09
5693.00,1.09
5692.00,1.09
5691.00,1.08
5690.00,1.08
5689.00,1.08
5688.00,1.08
5687.00,1.08
5686.00,1.07
5685.00,1.07
5684.00,1.07
5683.00,1.07
5682.00,1.07
5681.00,1.07
5680.00,1.06
5679.00,1.06
5678.00,1.06
5677.00,1.06
5676.00,1.06
5675.00,1.06
5674.00,1.06
5673.00,1.06
5672.00,1.06
5671.00,1.06
5670.00,1.06
5669.00,1.07
5668.00,1.07
5667.00,1.07
5666.00,1.07
5665.00,1.07
5664.00,1.07
5663.00,1.08
5662.00,1.08
5661.00,1.08
5660.00,1.08
5659.00,1.08
5658.00,1.09
5657.00,1.09
5656.00,1.09
5655.00,1.09
5654.00,1.09
5653.00,1.10
5652.00,1.10
5651.00,1.10
5650.00,1.10
5649.00,1.11
5648.00,1.11
5647.00,1.11
5646.00,1.12
5645.00,1.12
5644.00,1.12
5643.00,1.12
5642.00,1.13
5641.00,1.13
5640.00,1.13
5639.00,1.14
5638.00,1.14
5637.00,1.14
5636.00,1.14
5635.00,1.15
5634.00,1.15
5633.00,1.15
5632.00,1.15
5631.00,1.16
5630.00,1.16
5629.00,1.16
5628.00,1.16
5627.00,1.17
5626.00,1.17
5625.00,1.17
5624.00,1.17
5623.00,1.18
5622.00,1.18
5621.00,1.18
5620.00,1.18
5619.00,1.18
5618.00,1.19
5617.00,1.19
5616.00,1.19
5615.00,1.19
5614.00,1.20
5613.00,1.20
5612.00,1.20
5611.00,1.20
5610.00,1.20
5609.00,1.21
5608.00,1.21
5607.00,1.21
5606.00,1.21
5605.00,1.21
5604.00,1.22
5603.00,1.22
5602.00,1.22
5601.00,1.22
5600.00,1.23
5599.00,1.23
5598.00,1.23
5597.00,1.23
5596.00,1.24
5595.00,1.24
5594.00,1.24
5593.00,1.24
5592.00,1.25
5591.00,1.25
5590.00,1.25
5589.00,1.25
5588.00,1.26
5587.00,1.26
5586.00,1.26
5585.00,1.26
5584.00,1.27
5583.00,1.27
5582.00,1.27
5581.00,1.27
5580.00,1.27
5579.00,1.28
5578.00,1.28
5577.00,1.28
5576.00,1.28
5575.00,1.29
5574.00,1.29
5573.00,1.29
5572.00,1.29
5571.00,1.29
5570.00,1.29
5569.00,1.30
5568.00,1.30
5567.00,1.30
5566.00,1.30
5565.00,1.30
5564.00,1.30
5563.00,1.31
5562.00,1.31
5561.00,1.31
5560.00,1.31
5559.00,1.31
5558.00,1.31
5557.00,1.32
5556.00,1.32
5555.00,1.32
5554.00,1.32
5553.00,1.32
5552.00,1.33
5551.00,1.33
5550.00,1.33
5549.00,1.33
5548.00,1.33
5547.00,1.34
5546.00,1.34
5545.00,1.34
5544.00,1.34
5543.00,1.34
5542.00,1.35
5541.00,1.35
5540.00,1.35
5539.00,1.35
5538.00,1.35
5537.00,1.36
5536.00,1.36
5535.00,1.36
5534.00,1.36
5533.00,1.36
5532.00,1.36
5531.00,1.36
5530.00,1.37
5529.00,1.37
5528.00,1.37
5527.00,1.37
5526.00,1.37
5525.00,1.37
5524.00,1.37
5523.00,1.37
5522.00,1.37
5521.00,1.38
5520.00,1.38
5519.00,1.38
5518.00,1.38
5517.00,1.38
5516.00,1.38
5515.00,1.38
5514.00,1.38
5513.00,1.38
5512.00,1.38
5511.00,1.38
5510.00,1.38
5509.00,1.39
5508.00,1.39
5507.00,1.39
5506.00,1.39
5505.00,1.39
5504.00,1.39
5503.00,1.39
5502.00,1.39
5501.00,1.39
5500.00,1.39
5499.00,1.40
5498.00,1.40
5497.00,1.40
5496.00,1.40
5495.00,1.40
5494.00,1.40
5493.00,1.40
5492.00,1.40
5491.00,1.40
5490.00,1.41
5489.00,1.41
5488.00,1.41
5487.00,1.41
5486.00,1.41
5485.00,1.41
5484.00,1.41
5483.00,1.42
5482.00,1.42
5481.00,1.42
5480.00,1.42
5479.00,1.42
5478.00,1.43
5477.00,1.43
5476.00,1.43
5475.00,1.43
5474.00,1.44
5473.00,1.44
5472.00,1.44
5471.00,1.44
5470.00,1.44
5469.00,1.45
5468.00,1.45
5467.00,1.45
5466.00,1.45
5465.00,1.45
5464.00,1.45
5463.00,1.46
5462.00,1.46
5461.00,1.46
5460.00,1.46
5459.00,1.46
5458.00,1.46
5457.00,1.46
5456.00,1.46
5455.00,1.46
5454.00,1.47
5453.00,1.47
5452.00,1.47
5451.00,1.47
5450.00,1.47
5449.00,1.47
5448.00,1.47
5447.00,1.47
5446.00,1.47
5445.00,1.47
5444.00,1.47
5443.00,1.48
5442.00,1.48
5441.00,1.48
5440.00,1.48
5439.00,1.48
5438.00,1.48
5437.00,1.48
5436.00,1.48
5435.00,1.48
5434.00,1.48
5433.00,1.48
5432.00,1.48
5431.00,1.48
5430.00,1.48
5429.00,1.48
5428.00,1.48
5427.00,1.48
5426.00,1.48
5425.00,1.48
5424.00,1.48
5423.00,1.48
5422.00,1.48
5421.00,1.48
5420.00,1.48
5419.00,1.48
5418.00,1.48
5417.00,1.48
5416.00,1.48
5415.00,1.48
5414.00,1.48
5413.00,1.48
5412.00,1.48
5411.00,1.48
5410.00,1.48
5409.00,1.48
5408.00,1.48
5407.00,1.48
5406.00,1.48
5405.00,1.48
5404.00,1.48
5403.00,1.48
5402.00,1.48
5401.00,1.48
5400.00,1.48
5399.00,1.48
5398.00,1.48
5397.00,1.48
5396.00,1.48
5395.00,1.48
5394.00,1.48
5393.00,1.48
5392.00,1.48
5391.00,1.47
5390.00,1.47
5389.00,1.47
5388.00,1.47
5387.00,1.46
5386.00,1.46
5385.00,1.46
5384.00,1.45
5383.00,1.45
5382.00,1.45
5381.00,1.44
5380.00,1.44
5379.00,1.43
5378.00,1.43
5377.00,1.43
5376.00,1.42
5375.00,1.42
5374.00,1.41
5373.00,1.41
5372.00,1.40
5371.00,1.39
5370.00,1.39
5369.00,1.38
5368.00,1.37
5367.00,1.37
5366.00,1.36
5365.00,1.35
5364.00,1.35
5363.00,1.34
5362.00,1.33
5361.00,1.32
5360.00,1.31
5359.00,1.31
5358.00,1.30
5357.00,1.29
5356.00,1.28
5355.00,1.27
5354.00,1.26
5353.00,1.25
5352.00,1.24
5351.00,1.22
5350.00,1.21
5349.00,1.20
5348.00,1.19
5347.00,1.18
5346.00,1.17
5345.00,1.15
5344.00,1.14
5343.00,1.13
5342.00,1.12
5341.00,1.10
5340.00,1.09
5339.00,1.08
5338.00,1.07
5337.00,1.05
5336.00,1.04
5335.00,1.03
5334.00,1.02
5333.00,1.00
5332.00,0.99
5331.00,0.98
5330.00,0.97
5329.00,0.95
5328.00,0.94
5327.00,0.93
5326.00,0.92
5325.00,0.90
5324.00,0.89
5323.00,0.88
5322.00,0.87
5321.00,0.85
5320.00,0.84
5319.00,0.83
5318.00,0.82
5317.00,0.81
5316.00,0.80
5315.00,0.78
5314.00,0.77
5313.00,0.76
5312.00,0.75
5311.00,0.74
5310.00,0.73
5309.00,0.72
5308.00,0.72
5307.00,0.71
5306.00,0.70
5305.00,0.69
5304.00,0.68
5303.00,0.68
5302.00,0.67
5301.00,0.66
5300.00,0.66
5299.00,0.65
5298.00,0.65
5297.00,0.64
5296.00,0.64
5295.00,0.63
5294.00,0.63
5293.00,0.63
5292.00,0.62
5291.00,0.62
5290.00,0.62
5289.00,0.62
5288.00,0.61
5287.00,0.61
5286.00,0.61
5285.00,0.61
5284.00,0.61
5283.00,0.60
5282.00,0.60
5281.00,0.60
5280.00,0.60
5279.00,0.60
5278.00,0.60
5277.00,0.60
5276.00,0.60
5275.00,0.60
5274.00,0.60
5273.00,0.59
5272.00,0.59
5271.00,0.59
5270.00,0.59
5269.00,0.59
5268.00,0.59
5267.00,0.59
5266.00,0.59
5265.00,0.59
5264.00,0.59
5263.00,0.59
5262.00,0.59
5261.00,0.59
5260.00,0.58
5259.00,0.58
5258.00,0.58
5257.00,0.58
5256.00,0.58
5255.00,0.58
5254.00,0.58
5253.00,0.58
5252.00,0.58
5251.00,0.58
5250.00,0.58
5249.00,0.58
5248.00,0.58
5247.00,0.58
5246.00,0.58
5245.00,0.58
5244.00,0.58
5243.00,0.58
5242.00,0.58
5241.00,0.58
5240.00,0.58
5239.00,0.58
5238.00,0.58
5237.00,0.58
5236.00,0.58
5235.00,0.58
5234.00,0.58
5233.00,0.58
5232.00,0.58
5231.00,0.58
5230.00,0.58
5229.00,0.58
5228.00,0.58
5227.00,0.58
5226.00,0.58
5225.00,0.58
5224.00,0.58
5223.00,0.58
5222.00,0.59
5221.00,0.59
5220.00,0.59
5219.00,0.59
5218.00,0.59
5217.00,0.59
5216.00,0.59
5215.00,0.59
5214.00,0.59
5213.00,0.59
5212.00,0.59
5211.00,0.59
5210.00,0.60
5209.00,0.60
5208.00,0.60
5207.00,0.60
5206.00,0.60
5205.00,0.60
5204.00,0.60
5203.00,0.60
5202.00,0.60
5201.00,0.60
5200.00,0.60
5199.00,0.60
5198.00,0.60
5197.00,0.60
5196.00,0.60
5195.00,0.60
5194.00,0.60
5193.00,0.60
5192.00,0.60
5191.00,0.60
5190.00,0.60
5189.00,0.60
5188.00,0.60
5187.00,0.60
5186.00,0.60
5185.00,0.60
5184.00,0.60
5183.00,0.60
5182.00,0.60
5181.00,0.60
5180.00,0.60
5179.00,0.60
5178.00,0.60
5177.00,0.60
5176.00,0.60
5175.00,0.60
5174.00,0.60
5173.00,0.60
5172.00,0.61
5171.00,0.61
5170.00,0.61
5169.00,0.61
5168.00,0.61
5167.00,0.61
5166.00,0.61
5165.00,0.61
5164.00,0.61
5163.00,0.61
5162.00,0.61
5161.00,0.61
5160.00,0.62
5159.00,0.62
5158.00,0.62
5157.00,0.62
5156.00,0.62
5155.00,0.62
5154.00,0.62
5153.00,0.62
5152.00,0.62
5151.00,0.62
5150.00,0.62
5149.00,0.62
5148.00,0.62
5147.00,0.63
5146.00,0.63
5145.00,0.63
5144.00,0.63
5143.00,0.63
5142.00,0.63
5141.00,0.63
5140.00,0.63
5139.00,0.63
5138.00,0.63
5137.00,0.63
5136.00,0.63
5135.00,0.63
5134.00,0.63
5133.00,0.63
5132.00,0.63
5131.00,0.63
5130.00,0.63
5129.00,0.63
5128.00,0.63
5127.00,0.63
5126.00,0.63
5125.00,0.63
5124.00,0.63
5123.00,0.63
5122.00,0.63
5121.00,0.63
5120.00,0.63
5119.00,0.63
5118.00,0.63
5117.00,0.63
5116.00,0.63
5115.00,0.63
5114.00,0.63
5113.00,0.64
5112.00,0.64
5111.00,0.64
5110.00,0.64
5109.00,0.64
5108.00,0.64
5107.00,0.64
5106.00,0.64
5105.00,0.64
5104.00,0.64
5103.00,0.64
5102.00,0.65
5101.00,0.65
5100.00,0.65
5099.00,0.65
5098.00,0.65
5097.00,0.65
5096.00,0.65
5095.00,0.65
5094.00,0.65
5093.00,0.65
5092.00,0.65
5091.00,0.65
5090.00,0.66
5089.00,0.66
5088.00,0.66
5087.00,0.66
5086.00,0.66
5085.00,0.66
5084.00,0.66
5083.00,0.66
5082.00,0.66
5081.00,0.66
5080.00,0.66
5079.00,0.66
5078.00,0.66
5077.00,0.67
5076.00,0.67
5075.00,0.67
5074.00,0.67
5073.00,0.67
5072.00,0.67
5071.00,0.67
5070.00,0.67
5069.00,0.67
5068.00,0.67
5067.00,0.67
5066.00,0.67
5065.00,0.67
5064.00,0.67
5063.00,0.68
5062.00,0.68
5061.00,0.68
5060.00,0.68
5059.00,0.68
5058.00,0.68
5057.00,0.68
5056.00,0.68
5055.00,0.68
5054.00,0.68
5053.00,0.68
5052.00,0.68
5051.00,0.68
5050.00,0.68
5049.00,0.68
5048.00,0.68
5047.00,0.68
5046.00,0.68
5045.00,0.68
5044.00,0.68
5043.00,0.69
5042.00,0.69
5041.00,0.69
5040.00,0.69
5039.00,0.69
5038.00,0.69
5037.00,0.69
5036.00,0.69
5035.00,0.69
5034.00,0.70
5033.00,0.70
5032.00,0.70
5031.00,0.70
5030.00,0.70
5029.00,0.70
5028.00,0.70
5027.00,0.70
5026.00,0.70
5025.00,0.70
5024.00,0.70
5023.00,0.70
5022.00,0.70
5021.00,0.70
5020.00,0.70
5019.00,0.70
5018.00,0.70
5017.00,0.70
5016.00,0.70
5015.00,0.71
5014.00,0.71
5013.00,0.71
5012.00,0.71
5011.00,0.71
5010.00,0.71
5009.00,0.71
5008.00,0.71
5007.00,0.72
5006.00,0.72
5005.00,0.72
5004.00,0.72
5003.00,0.72
5002.00,0.72
5001.00,0.72
5000.00,0.72
4999.00,0.73
4998.00,0.73
4997.00,0.73
4996.00,0.73
4995.00,0.73
4994.00,0.73
4993.00,0.73
4992.00,0.73
4991.00,0.73
4990.00,0.73
4989.00,0.74
4988.00,0.74
4987.00,0.74
4986.00,0.74
4985.00,0.74
4984.00,0.74
4983.00,0.74
4982.00,0.74
4981.00,0.74
4980.00,0.74
4979.00,0.74
4978.00,0.74
4977.00,0.74
4976.00,0.74
4975.00,0.74
4974.00,0.74
4973.00,0.74
4972.00,0.74
4971.00,0.74
4970.00,0.75
4969.00,0.75
4968.00,0.75
4967.00,0.75
4966.00,0.75
4965.00,0.75
4964.00,0.75
4963.00,0.75
4962.00,0.75
4961.00,0.75
4960.00,0.76
4959.00,0.76
4958.00,0.76
4957.00,0.76
4956.00,0.76
4955.00,0.76
4954.00,0.76
4953.00,0.76
4952.00,0.77
4951.00,0.77
4950.00,0.77
4949.00,0.77
4948.00,0.77
4947.00,0.77
4946.00,0.77
4945.00,0.77
4944.00,0.78
4943.00,0.78
4942.00,0.78
4941.00,0.78
4940.00,0.78
4939.00,0.78
4938.00,0.78
4937.00,0.78
4936.00,0.78
4935.00,0.79
4934.00,0.79
4933.00,0.79
4932.00,0.79
4931.00,0.79
4930.00,0.79
4929.00,0.79
4928.00,0.79
4927.00,0.79
4926.00,0.79
4925.00,0.79
4924.00,0.79
4923.00,0.79
4922.00,0.79
4921.00,0.79
4920.00,0.79
4919.00,0.79
4918.00,0.80
4917.00,0.80
4916.00,0.80
4915.00,0.80
4914.00,0.80
4913.00,0.80
4912.00,0.80
4911.00,0.80
4910.00,0.80
4909.00,0.80
4908.00,0.80
4907.00,0.81
4906.00,0.81
4905.00,0.81
4904.00,0.81
4903.00,0.81
4902.00,0.81
4901.00,0.81
4900.00,0.81
4899.00,0.81
4898.00,0.81
4897.00,0.81
4896.00,0.82
4895.00,0.82
4894.00,0.82
4893.00,0.82
4892.00,0.82
4891.00,0.82
4890.00,0.82
4889.00,0.82
4888.00,0.82
4887.00,0.82
4886.00,0.82
4885.00,0.82
4884.00,0.82
4883.00,0.82
4882.00,0.82
4881.00,0.82
4880.00,0.82
4879.00,0.82
4878.00,0.82
4877.00,0.82
4876.00,0.82
4875.00,0.82
4874.00,0.82
4873.00,0.82
4872.00,0.83
4871.00,0.83
4870.00,0.83
4869.00,0.83
4868.00,0.83
4867.00,0.83
4866.00,0.83
4865.00,0.83
4864.00,0.83
4863.00,0.83
4862.00,0.83
4861.00,0.83
4860.00,0.83
4859.00,0.83
4858.00,0.83
4857.00,0.83
4856.00,0.83
4855.00,0.83
4854.00,0.83
4853.00,0.84
4852.00,0.84
4851.00,0.84
4850.00,0.84
4849.00,0.84
4848.00,0.84
4847.00,0.84
4846.00,0.84
4845.00,0.84
4844.00,0.85
4843.00,0.85
4842.00,0.85
4841.00,0.85
4840.00,0.85
4839.00,0.85
4838.00,0.85
4837.00,0.85
4836.00,0.85
4835.00,0.85
4834.00,0.85
4833.00,0.85
4832.00,0.86
4831.00,0.86
4830.00,0.86
4829.00,0.86
4828.00,0.86
4827.00,0.86
4826.00,0.86
4825.00,0.86
4824.00,0.86
4823.00,0.86
4822.00,0.86
4821.00,0.86
4820.00,0.86
4819.00,0.86
4818.00,0.86
4817.00,0.87
4816.00,0.87
4815.00,0.87
4814.00,0.87
4813.00,0.87
4812.00,0.87
4811.00,0.87
4810.00,0.87
4809.00,0.88
4808.00,0.88
4807.00,0.88
4806.00,0.88
4805.00,0.88
4804.00,0.88
4803.00,0.89
4802.00,0.89
4801.00,0.89
4800.00,0.89
4799.00,0.89
4798.00,0.90
4797.00,0.90
4796.00,0.90
4795.00,0.90
4794.00,0.90
4793.00,0.90
4792.00,0.91
4791.00,0.91
4790.00,0.91
4789.00,0.91
4788.00,0.91
4787.00,0.91
4786.00,0.91
4785.00,0.91
4784.00,0.91
4783.00,0.91
4782.00,0.91
4781.00,0.91
4780.00,0.92
4779.00,0.92
4778.00,0.92
4777.00,0.92
4776.00,0.92
4775.00,0.92
4774.00,0.92
4773.00,0.92
4772.00,0.92
4771.00,0.92
4770.00,0.92
4769.00,0.92
4768.00,0.93
4767.00,0.93
4766.00,0.93
4765.00,0.93
4764.00,0.93
4763.00,0.93
4762.00,0.94
4761.00,0.94
4760.00,0.94
4759.00,0.94
4758.00,0.94
4757.00,0.94
4756.00,0.95
4755.00,0.95
4754.00,0.95
4753.00,0.95
4752.00,0.95
4751.00,0.96
4750.00,0.96
4749.00,0.96
4748.00,0.96
4747.00,0.96
4746.00,0.96
4745.00,0.96
4744.00,0.96
4743.00,0.96
4742.00,0.96
4741.00,0.96
4740.00,0.97
4739.00,0.97
4738.00,0.97
4737.00,0.97
4736.00,0.97
4735.00,0.97
4734.00,0.97
4733.00,0.97
4732.00,0.97
4731.00,0.98
4730.00,0.98
4729.00,0.98
4728.00,0.98
4727.00,0.98
4726.00,0.98
4725.00,0.99
4724.00,0.99
4723.00,0.99
4722.00,0.99
4721.00,1.00
4720.00,1.00
4719.00,1.00
4718.00,1.00
4717.00,1.01
4716.00,1.01
4715.00,1.01
4714.00,1.01
4713.00,1.02
4712.00,1.02
4711.00,1.02
4710.00,1.02
4709.00,1.02
4708.00,1.03
4707.00,1.03
4706.00,1.03
4705.00,1.03
4704.00,1.03
4703.00,1.04
4702.00,1.04
4701.00,1.04
4700.00,1.04
4699.00,1.04
4698.00,1.05
4697.00,1.05
4696.00,1.05
4695.00,1.05
4694.00,1.05
4693.00,1.05
4692.00,1.05
4691.00,1.05
4690.00,1.06
4689.00,1.06
4688.00,1.06
4687.00,1.06
4686.00,1.06
4685.00,1.06
4684.00,1.06
4683.00,1.06
4682.00,1.07
4681.00,1.07
4680.00,1.07
4679.00,1.07
4678.00,1.08
4677.00,1.08
4676.00,1.08
4675.00,1.09
4674.00,1.09
4673.00,1.09
4672.00,1.09
4671.00,1.10
4670.00,1.10
4669.00,1.10
4668.00,1.10
4667.00,1.11
4666.00,1.11
4665.00,1.11
4664.00,1.11
4663.00,1.11
4662.00,1.11
4661.00,1.12
4660.00,1.12
4659.00,1.12
4658.00,1.12
4657.00,1.12
4656.00,1.12
4655.00,1.12
4654.00,1.12
4653.00,1.13
4652.00,1.13
4651.00,1.13
4650.00,1.13
4649.00,1.13
4648.00,1.13
4647.00,1.14
4646.00,1.14
4645.00,1.14
4644.00,1.14
4643.00,1.14
4642.00,1.14
4641.00,1.14
4640.00,1.14
4639.00,1.15
4638.00,1.15
4637.00,1.15
4636.00,1.15
4635.00,1.15
4634.00,1.15
4633.00,1.15
4632.00,1.15
4631.00,1.15
4630.00,1.15
4629.00,1.15
4628.00,1.15
4627.00,1.15
4626.00,1.16
4625.00,1.16
4624.00,1.16
4623.00,1.16
4622.00,1.16
4621.00,1.16
4620.00,1.16
4619.00,1.16
4618.00,1.17
4617.00,1.17
4616.00,1.17
4615.00,1.17
4614.00,1.17
4613.00,1.17
4612.00,1.17
4611.00,1.18
4610.00,1.18
4609.00,1.18
4608.00,1.18
4607.00,1.18
4606.00,1.18
4605.00,1.18
4604.00,1.18
4603.00,1.18
4602.00,1.19
4601.00,1.19
4600.00,1.19
4599.00,1.19
4598.00,1.19
4597.00,1.19
4596.00,1.19
4595.00,1.19
4594.00,1.20
4593.00,1.20
4592.00,1.20
4591.00,1.20
4590.00,1.20
4589.00,1.20
4588.00,1.20
4587.00,1.20
4586.00,1.20
4585.00,1.20
4584.00,1.20
4583.00,1.20
4582.00,1.21
4581.00,1.21
4580.00,1.21
4579.00,1.21
4578.00,1.21
4577.00,1.21
4576.00,1.21
4575.00,1.21
4574.00,1.21
4573.00,1.22
4572.00,1.22
4571.00,1.22
4570.00,1.22
4569.00,1.22
4568.00,1.22
4567.00,1.23
4566.00,1.23
4565.00,1.23
4564.00,1.23
4563.00,1.23
4562.00,1.23
4561.00,1.24
4560.00,1.24
4559.00,1.24
4558.00,1.24
4557.00,1.24
4556.00,1.24
4555.00,1.24
4554.00,1.25
4553.00,1.25
4552.00,1.25
4551.00,1.25
4550.00,1.25
4549.00,1.25
4548.00,1.25
4547.00,1.25
4546.00,1.25
4545.00,1.25
4544.00,1.26
4543.00,1.26
4542.00,1.26
4541.00,1.26
4540.00,1.26
4539.00,1.26
4538.00,1.26
4537.00,1.26
4536.00,1.26
4535.00,1.26
4534.00,1.26
4533.00,1.27
4532.00,1.27
4531.00,1.27
4530.00,1.27
4529.00,1.27
4528.00,1.27
4527.00,1.27
4526.00,1.27
4525.00,1.27
4524.00,1.28
4523.00,1.28
4522.00,1.28
4521.00,1.28
4520.00,1.28
4519.00,1.28
4518.00,1.28
4517.00,1.28
4516.00,1.28
4515.00,1.28
4514.00,1.28
4513.00,1.28
4512.00,1.28
4511.00,1.29
4510.00,1.29
4509.00,1.29
4508.00,1.29
4507.00,1.29
4506.00,1.29
4505.00,1.29
4504.00,1.29
4503.00,1.29
4502.00,1.29
4501.00,1.29
4500.00,1.29
4499.00,1.29
4498.00,1.29
4497.00,1.29
4496.00,1.29
4495.00,1.29
4494.00,1.29
4493.00,1.29
4492.00,1.28
4491.00,1.28
4490.00,1.28
4489.00,1.28
4488.00,1.28
4487.00,1.28
4486.00,1.27
4485.00,1.27
4484.00,1.27
4483.00,1.27
4482.00,1.26
4481.00,1.26
4480.00,1.26
4479.00,1.26
4478.00,1.25
4477.00,1.25
4476.00,1.25
4475.00,1.25
4474.00,1.24
4473.00,1.24
4472.00,1.24
4471.00,1.24
4470.00,1.24
4469.00,1.23
4468.00,1.23
4467.00,1.23
4466.00,1.23
4465.00,1.22
4464.00,1.22
4463.00,1.22
4462.00,1.22
4461.00,1.21
4460.00,1.21
4459.00,1.21
4458.00,1.20
4457.00,1.20
4456.00,1.20
4455.00,1.19
4454.00,1.19
4453.00,1.19
4452.00,1.18
4451.00,1.18
4450.00,1.18
4449.00,1.17
4448.00,1.17
4447.00,1.17
4446.00,1.16
4445.00,1.16
4444.00,1.16
4443.00,1.15
4442.00,1.15
4441.00,1.15
4440.00,1.14
4439.00,1.14
4438.00,1.14
4437.00,1.13
4436.00,1.13
4435.00,1.13
4434.00,1.13
4433.00,1.12
4432.00,1.12
4431.00,1.12
4430.00,1.11
4429.00,1.11
4428.00,1.11
4427.00,1.11
4426.00,1.11
4425.00,1.10
4424.00,1.10
4423.00,1.10
4422.00,1.10
4421.00,1.10
4420.00,1.10
4419.00,1.10
4418.00,1.09
4417.00,1.09
4416.00,1.09
4415.00,1.09
4414.00,1.09
4413.00,1.09
4412.00,1.10
4411.00,1.10
4410.00,1.10
4409.00,1.10
4408.00,1.10
4407.00,1.10
4406.00,1.10
4405.00,1.10
4404.00,1.10
4403.00,1.10
4402.00,1.11
4401.00,1.11
4400.00,1.11
4399.00,1.11
4398.00,1.11
4397.00,1.11
4396.00,1.11
4395.00,1.11
4394.00,1.12
4393.00,1.12
4392.00,1.12
4391.00,1.12
4390.00,1.12
4389.00,1.12
4388.00,1.13
4387.00,1.13
4386.00,1.13
4385.00,1.13
4384.00,1.13
4383.00,1.13
4382.00,1.14
4381.00,1.14
4380.00,1.14
4379.00,1.14
4378.00,1.14
4377.00,1.14
4376.00,1.14
4375.00,1.15
4374.00,1.15
4373.00,1.15
4372.00,1.15
4371.00,1.15
4370.00,1.15
4369.00,1.15
4368.00,1.15
4367.00,1.15
4366.00,1.15
4365.00,1.15
4364.00,1.15
4363.00,1.15
4362.00,1.15
4361.00,1.15
4360.00,1.15
4359.00,1.15
4358.00,1.15
4357.00,1.15
4356.00,1.15
4355.00,1.15
4354.00,1.15
4353.00,1.15
4352.00,1.15
4351.00,1.15
4350.00,1.15
4349.00,1.15
4348.00,1.15
4347.00,1.15
4346.00,1.15
4345.00,1.15
4344.00,1.15
4343.00,1.15
4342.00,1.15
4341.00,1.15
4340.00,1.15
4339.00,1.15
4338.00,1.15
4337.00,1.15
4336.00,1.15
4335.00,1.15
4334.00,1.15
4333.00,1.16
4332.00,1.16
4331.00,1.16
4330.00,1.16
4329.00,1.16
4328.00,1.16
4327.00,1.17
4326.00,1.17
4325.00,1.17
4324.00,1.17
4323.00,1.17
4322.00,1.17
4321.00,1.17
4320.00,1.18
4319.00,1.18
4318.00,1.18
4317.00,1.18
4316.00,1.18
4315.00,1.18
4314.00,1.18
4313.00,1.18
4312.00,1.19
4311.00,1.19
4310.00,1.19
4309.00,1.19
4308.00,1.19
4307.00,1.20
4306.00,1.20
4305.00,1.20
4304.00,1.21
4303.00,1.21
4302.00,1.21
4301.00,1.21
4300.00,1.22
4299.00,1.22
4298.00,1.22
4297.00,1.22
4296.00,1.22
4295.00,1.23
4294.00,1.23
4293.00,1.23
4292.00,1.23
4291.00,1.23
4290.00,1.23
4289.00,1.23
4288.00,1.24
4287.00,1.24
4286.00,1.24
4285.00,1.24
4284.00,1.24
4283.00,1.24
4282.00,1.24
4281.00,1.24
4280.00,1.24
4279.00,1.24
4278.00,1.25
4277.00,1.25
4276.00,1.25
4275.00,1.25
4274.00,1.25
4273.00,1.25
4272.00,1.25
4271.00,1.25
4270.00,1.25
4269.00,1.24
4268.00,1.24
4267.00,1.24
4266.00,1.24
4265.00,1.24
4264.00,1.24
4263.00,1.24
4262.00,1.24
4261.00,1.24
4260.00,1.24
4259.00,1.25
4258.00,1.25
4257.00,1.25
4256.00,1.25
4255.00,1.25
4254.00,1.25
4253.00,1.25
4252.00,1.25
4251.00,1.25
4250.00,1.25
4249.00,1.25
4248.00,1.26
4247.00,1.26
4246.00,1.26
4245.00,1.26
4244.00,1.26
4243.00,1.26
4242.00,1.26
4241.00,1.26
4240.00,1.26
4239.00,1.26
4238.00,1.26
4237.00,1.27
4236.00,1.27
4235.00,1.27
4234.00,1.27
4233.00,1.27
4232.00,1.28
4231.00,1.28
4230.00,1.28
4229.00,1.28
4228.00,1.29
4227.00,1.29
4226.00,1.29
4225.00,1.29
4224.00,1.30
4223.00,1.30
4222.00,1.30
4221.00,1.30
4220.00,1.30
4219.00,1.30
4218.00,1.30
4217.00,1.30
4216.00,1.31
4215.00,1.31
4214.00,1.31
4213.00,1.31
4212.00,1.31
4211.00,1.31
4210.00,1.31
4209.00,1.31
4208.00,1.31
4207.00,1.31
4206.00,1.31
4205.00,1.31
4204.00,1.31
4203.00,1.31
4202.00,1.31
4201.00,1.31
4200.00,1.31
4199.00,1.31
4198.00,1.31
4197.00,1.31
4196.00,1.31
4195.00,1.31
4194.00,1.31
4193.00,1.31
4192.00,1.31
4191.00,1.31
4190.00,1.31
4189.00,1.31
4188.00,1.31
4187.00,1.31
4186.00,1.31
4185.00,1.31
4184.00,1.31
4183.00,1.31
4182.00,1.32
4181.00,1.32
4180.00,1.32
4179.00,1.32
4178.00,1.32
4177.00,1.32
4176.00,1.32
4175.00,1.32
4174.00,1.32
4173.00,1.32
4172.00,1.32
4171.00,1.33
4170.00,1.33
4169.00,1.33
4168.00,1.33
4167.00,1.33
4166.00,1.33
4165.00,1.34
4164.00,1.34
4163.00,1.34
4162.00,1.34
4161.00,1.34
4160.00,1.35
4159.00,1.35
4158.00,1.35
4157.00,1.35
4156.00,1.35
4155.00,1.35
4154.00,1.35
4153.00,1.35
4152.00,1.35
4151.00,1.35
4150.00,1.35
4149.00,1.35
4148.00,1.35
4147.00,1.35
4146.00,1.36
4145.00,1.36
4144.00,1.36
4143.00,1.36
4142.00,1.36
4141.00,1.36
4140.00,1.36
4139.00,1.36
4138.00,1.36
4137.00,1.36
4136.00,1.36
4135.00,1.36
4134.00,1.36
4133.00,1.37
4132.00,1.37
4131.00,1.37
4130.00,1.37
4129.00,1.37
4128.00,1.37
4127.00,1.38
4126.00,1.38
4125.00,1.38
4124.00,1.38
4123.00,1.38
4122.00,1.38
4121.00,1.39
4120.00,1.39
4119.00,1.39
4118.00,1.39
4117.00,1.39
4116.00,1.39
4115.00,1.39
4114.00,1.39
4113.00,1.39
4112.00,1.39
4111.00,1.39
4110.00,1.39
4109.00,1.39
4108.00,1.39
4107.00,1.39
4106.00,1.39
4105.00,1.39
4104.00,1.39
4103.00,1.39
4102.00,1.39
4101.00,1.39
4100.00,1.38
4099.00,1.38
4098.00,1.38
4097.00,1.38
4096.00,1.38
4095.00,1.38
4094.00,1.38
4093.00,1.38
4092.00,1.38
4091.00,1.38
4090.00,1.38
4089.00,1.38
4088.00,1.38
4087.00,1.38
4086.00,1.38
4085.00,1.38
4084.00,1.38
4083.00,1.38
4082.00,1.38
4081.00,1.38
4080.00,1.38
4079.00,1.38
4078.00,1.38
4077.00,1.39
4076.00,1.39
4075.00,1.39
4074.00,1.39
4073.00,1.39
4072.00,1.40
4071.00,1.40
4070.00,1.40
4069.00,1.40
4068.00,1.41
4067.00,1.41
4066.00,1.41
4065.00,1.41
4064.00,1.41
4063.00,1.41
4062.00,1.42
4061.00,1.42
4060.00,1.42
4059.00,1.42
4058.00,1.42
4057.00,1.42
4056.00,1.42
4055.00,1.42
4054.00,1.43
4053.00,1.43
4052.00,1.43
4051.00,1.43
4050.00,1.43
4049.00,1.43
4048.00,1.44
4047.00,1.44
4046.00,1.44
4045.00,1.44
4044.00,1.44
4043.00,1.45
4042.00,1.45
4041.00,1.45
4040.00,1.45
4039.00,1.45
4038.00,1.46
4037.00,1.46
4036.00,1.46
4035.00,1.46
4034.00,1.46
4033.00,1.46
4032.00,1.46
4031.00,1.46
4030.00,1.46
4029.00,1.46
4028.00,1.46
4027.00,1.46
4026.00,1.46
4025.00,1.46
4024.00,1.46
4023.00,1.46
4022.00,1.46
4021.00,1.46
4020.00,1.46
4019.00,1.47
4018.00,1.47
4017.00,1.47
4016.00,1.47
4015.00,1.47
4014.00,1.48
4013.00,1.48
4012.00,1.48
4011.00,1.48
4010.00,1.48
4009.00,1.48
4008.00,1.48
4007.00,1.48
4006.00,1.48
4005.00,1.48
4004.00,1.48
4003.00,1.48
4002.00,1.48
4001.00,1.48
4000.00,1.48
