创建为新数据集,样品 400 用户 Administrator 日期 星期四, 三月 08 2018
cm-1,%T
10000.00,1.64
9999.00,1.64
9998.00,1.64
9997.00,1.64
9996.00,1.64
9995.00,1.64
9994.00,1.64
9993.00,1.64
9992.00,1.64
9991.00,1.64
9990.00,1.64
9989.00,1.64
9988.00,1.64
9987.00,1.64
9986.00,1.64
9985.00,1.64
9984.00,1.64
9983.00,1.64
9982.00,1.64
9981.00,1.64
9980.00,1.64
9979.00,1.64
9978.00,1.63
9977.00,1.63
9976.00,1.63
9975.00,1.63
9974.00,1.63
9973.00,1.62
9972.00,1.62
9971.00,1.62
9970.00,1.62
9969.00,1.61
9968.00,1.61
9967.00,1.61
9966.00,1.61
9965.00,1.61
9964.00,1.60
9963.00,1.60
9962.00,1.60
9961.00,1.60
9960.00,1.60
9959.00,1.60
9958.00,1.60
9957.00,1.60
9956.00,1.59
9955.00,1.59
9954.00,1.59
9953.00,1.59
9952.00,1.59
9951.00,1.59
9950.00,1.59
9949.00,1.59
9948.00,1.59
9947.00,1.59
9946.00,1.59
9945.00,1.59
9944.00,1.59
9943.00,1.59
9942.00,1.59
9941.00,1.59
9940.00,1.59
9939.00,1.59
9938.00,1.59
9937.00,1.59
9936.00,1.59
9935.00,1.59
9934.00,1.59
9933.00,1.59
9932.00,1.59
9931.00,1.59
9930.00,1.59
9929.00,1.59
9928.00,1.59
9927.00,1.59
9926.00,1.59
9925.00,1.59
9924.00,1.59
9923.00,1.59
9922.00,1.59
9921.00,1.59
9920.00,1.59
9919.00,1.59
9918.00,1.59
9917.00,1.59
9916.00,1.59
9915.00,1.59
9914.00,1.59
9913.00,1.59
9912.00,1.59
9911.00,1.59
9910.00,1.59
9909.00,1.59
9908.00,1.60
9907.00,1.60
9906.00,1.60
9905.00,1.61
9904.00,1.61
9903.00,1.61
9902.00,1.62
9901.00,1.62
9900.00,1.62
9899.00,1.63
9898.00,1.63
9897.00,1.63
9896.00,1.64
9895.00,1.64
9894.00,1.64
9893.00,1.64
9892.00,1.63
9891.00,1.63
9890.00,1.63
9889.00,1.63
9888.00,1.62
9887.00,1.62
9886.00,1.61
9885.00,1.61
9884.00,1.61
9883.00,1.60
9882.00,1.60
9881.00,1.59
9880.00,1.59
9879.00,1.59
9878.00,1.59
9877.00,1.58
9876.00,1.58
9875.00,1.58
9874.00,1.58
9873.00,1.58
9872.00,1.58
9871.00,1.58
9870.00,1.58
9869.00,1.58
9868.00,1.59
9867.00,1.59
9866.00,1.59
9865.00,1.59
9864.00,1.59
9863.00,1.59
9862.00,1.60
9861.00,1.60
9860.00,1.60
9859.00,1.60
9858.00,1.60
9857.00,1.61
9856.00,1.61
9855.00,1.61
9854.00,1.61
9853.00,1.61
9852.00,1.61
9851.00,1.61
9850.00,1.61
9849.00,1.61
9848.00,1.61
9847.00,1.61
9846.00,1.61
9845.00,1.61
9844.00,1.61
9843.00,1.61
9842.00,1.61
9841.00,1.61
9840.00,1.61
9839.00,1.61
9838.00,1.61
9837.00,1.61
9836.00,1.61
9835.00,1.61
9834.00,1.61
9833.00,1.62
9832.00,1.62
9831.00,1.62
9830.00,1.62
9829.00,1.62
9828.00,1.62
9827.00,1.62
9826.00,1.62
9825.00,1.62
9824.00,1.62
9823.00,1.62
9822.00,1.62
9821.00,1.62
9820.00,1.62
9819.00,1.62
9818.00,1.62
9817.00,1.61
9816.00,1.61
9815.00,1.61
9814.00,1.61
9813.00,1.61
9812.00,1.61
9811.00,1.61
9810.00,1.61
9809.00,1.61
9808.00,1.61
9807.00,1.60
9806.00,1.60
9805.00,1.60
9804.00,1.60
9803.00,1.60
9802.00,1.60
9801.00,1.60
9800.00,1.59
9799.00,1.59
9798.00,1.59
9797.00,1.59
9796.00,1.59
9795.00,1.59
9794.00,1.59
9793.00,1.59
9792.00,1.59
9791.00,1.59
9790.00,1.59
9789.00,1.59
9788.00,1.59
9787.00,1.59
9786.00,1.59
9785.00,1.59
9784.00,1.59
9783.00,1.60
9782.00,1.60
9781.00,1.60
9780.00,1.60
9779.00,1.60
9778.00,1.60
9777.00,1.60
9776.00,1.59
9775.00,1.59
9774.00,1.59
9773.00,1.59
9772.00,1.59
9771.00,1.59
9770.00,1.59
9769.00,1.59
9768.00,1.59
9767.00,1.59
9766.00,1.59
9765.00,1.59
9764.00,1.59
9763.00,1.59
9762.00,1.59
9761.00,1.59
9760.00,1.59
9759.00,1.59
9758.00,1.59
9757.00,1.59
9756.00,1.59
9755.00,1.59
9754.00,1.59
9753.00,1.59
9752.00,1.59
9751.00,1.59
9750.00,1.59
9749.00,1.59
9748.00,1.59
9747.00,1.59
9746.00,1.59
9745.00,1.59
9744.00,1.59
9743.00,1.58
9742.00,1.58
9741.00,1.58
9740.00,1.58
9739.00,1.58
9738.00,1.58
9737.00,1.58
9736.00,1.58
9735.00,1.58
9734.00,1.58
9733.00,1.58
9732.00,1.58
9731.00,1.58
9730.00,1.59
9729.00,1.59
9728.00,1.59
9727.00,1.59
9726.00,1.59
9725.00,1.59
9724.00,1.60
9723.00,1.60
9722.00,1.60
9721.00,1.60
9720.00,1.60
9719.00,1.60
9718.00,1.60
9717.00,1.60
9716.00,1.60
9715.00,1.60
9714.00,1.61
9713.00,1.61
9712.00,1.61
9711.00,1.61
9710.00,1.61
9709.00,1.60
9708.00,1.60
9707.00,1.60
9706.00,1.60
9705.00,1.60
9704.00,1.60
9703.00,1.60
9702.00,1.61
9701.00,1.61
9700.00,1.61
9699.00,1.61
9698.00,1.61
9697.00,1.61
9696.00,1.61
9695.00,1.61
9694.00,1.61
9693.00,1.61
9692.00,1.62
9691.00,1.62
9690.00,1.62
9689.00,1.62
9688.00,1.62
9687.00,1.62
9686.00,1.62
9685.00,1.61
9684.00,1.61
9683.00,1.61
9682.00,1.61
9681.00,1.61
9680.00,1.61
9679.00,1.61
9678.00,1.61
9677.00,1.61
9676.00,1.61
9675.00,1.61
9674.00,1.61
9673.00,1.61
9672.00,1.60
9671.00,1.60
9670.00,1.60
9669.00,1.60
9668.00,1.60
9667.00,1.60
9666.00,1.60
9665.00,1.59
9664.00,1.59
9663.00,1.59
9662.00,1.58
9661.00,1.58
9660.00,1.58
9659.00,1.58
9658.00,1.57
9657.00,1.57
9656.00,1.57
9655.00,1.57
9654.00,1.57
9653.00,1.57
9652.00,1.57
9651.00,1.57
9650.00,1.57
9649.00,1.57
9648.00,1.57
9647.00,1.58
9646.00,1.58
9645.00,1.58
9644.00,1.58
9643.00,1.58
9642.00,1.59
9641.00,1.59
9640.00,1.59
9639.00,1.59
9638.00,1.60
9637.00,1.60
9636.00,1.60
9635.00,1.60
9634.00,1.61
9633.00,1.61
9632.00,1.61
9631.00,1.61
9630.00,1.62
9629.00,1.62
9628.00,1.62
9627.00,1.62
9626.00,1.62
9625.00,1.63
9624.00,1.63
9623.00,1.63
9622.00,1.63
9621.00,1.63
9620.00,1.64
9619.00,1.64
9618.00,1.64
9617.00,1.64
9616.00,1.64
9615.00,1.64
9614.00,1.64
9613.00,1.64
9612.00,1.64
9611.00,1.64
9610.00,1.63
9609.00,1.63
9608.00,1.63
9607.00,1.63
9606.00,1.63
9605.00,1.63
9604.00,1.63
9603.00,1.63
9602.00,1.63
9601.00,1.62
9600.00,1.62
9599.00,1.62
9598.00,1.62
9597.00,1.62
9596.00,1.62
9595.00,1.62
9594.00,1.62
9593.00,1.62
9592.00,1.61
9591.00,1.61
9590.00,1.61
9589.00,1.61
9588.00,1.61
9587.00,1.61
9586.00,1.61
9585.00,1.61
9584.00,1.62
9583.00,1.62
9582.00,1.62
9581.00,1.62
9580.00,1.62
9579.00,1.62
9578.00,1.62
9577.00,1.63
9576.00,1.63
9575.00,1.63
9574.00,1.63
9573.00,1.63
9572.00,1.63
9571.00,1.63
9570.00,1.63
9569.00,1.63
9568.00,1.63
9567.00,1.63
9566.00,1.63
9565.00,1.63
9564.00,1.63
9563.00,1.63
9562.00,1.63
9561.00,1.63
9560.00,1.63
9559.00,1.62
9558.00,1.62
9557.00,1.62
9556.00,1.62
9555.00,1.62
9554.00,1.62
9553.00,1.62
9552.00,1.62
9551.00,1.62
9550.00,1.62
9549.00,1.63
9548.00,1.63
9547.00,1.63
9546.00,1.63
9545.00,1.63
9544.00,1.63
9543.00,1.63
9542.00,1.63
9541.00,1.63
9540.00,1.63
9539.00,1.63
9538.00,1.63
9537.00,1.63
9536.00,1.63
9535.00,1.63
9534.00,1.63
9533.00,1.63
9532.00,1.63
9531.00,1.63
9530.00,1.63
9529.00,1.63
9528.00,1.63
9527.00,1.63
9526.00,1.63
9525.00,1.63
9524.00,1.63
9523.00,1.62
9522.00,1.62
9521.00,1.62
9520.00,1.62
9519.00,1.63
9518.00,1.63
9517.00,1.63
9516.00,1.63
9515.00,1.63
9514.00,1.63
9513.00,1.63
9512.00,1.63
9511.00,1.63
9510.00,1.63
9509.00,1.63
9508.00,1.63
9507.00,1.63
9506.00,1.63
9505.00,1.63
9504.00,1.63
9503.00,1.62
9502.00,1.62
9501.00,1.62
9500.00,1.62
9499.00,1.62
9498.00,1.62
9497.00,1.61
9496.00,1.61
9495.00,1.61
9494.00,1.61
9493.00,1.61
9492.00,1.61
9491.00,1.61
9490.00,1.61
9489.00,1.61
9488.00,1.61
9487.00,1.61
9486.00,1.61
9485.00,1.61
9484.00,1.61
9483.00,1.61
9482.00,1.61
9481.00,1.61
9480.00,1.62
9479.00,1.62
9478.00,1.62
9477.00,1.62
9476.00,1.62
9475.00,1.62
9474.00,1.62
9473.00,1.62
9472.00,1.63
9471.00,1.63
9470.00,1.63
9469.00,1.63
9468.00,1.63
9467.00,1.63
9466.00,1.63
9465.00,1.63
9464.00,1.63
9463.00,1.63
9462.00,1.63
9461.00,1.62
9460.00,1.62
9459.00,1.62
9458.00,1.62
9457.00,1.62
9456.00,1.62
9455.00,1.62
9454.00,1.62
9453.00,1.61
9452.00,1.61
9451.00,1.61
9450.00,1.61
9449.00,1.61
9448.00,1.61
9447.00,1.61
9446.00,1.61
9445.00,1.61
9444.00,1.61
9443.00,1.61
9442.00,1.61
9441.00,1.61
9440.00,1.61
9439.00,1.61
9438.00,1.61
9437.00,1.61
9436.00,1.61
9435.00,1.61
9434.00,1.61
9433.00,1.61
9432.00,1.61
9431.00,1.61
9430.00,1.61
9429.00,1.61
9428.00,1.61
9427.00,1.61
9426.00,1.61
9425.00,1.61
9424.00,1.60
9423.00,1.60
9422.00,1.60
9421.00,1.60
9420.00,1.60
9419.00,1.60
9418.00,1.60
9417.00,1.60
9416.00,1.60
9415.00,1.61
9414.00,1.61
9413.00,1.61
9412.00,1.61
9411.00,1.61
9410.00,1.61
9409.00,1.61
9408.00,1.61
9407.00,1.61
9406.00,1.61
9405.00,1.62
9404.00,1.62
9403.00,1.62
9402.00,1.62
9401.00,1.62
9400.00,1.62
9399.00,1.62
9398.00,1.62
9397.00,1.62
9396.00,1.62
9395.00,1.62
9394.00,1.62
9393.00,1.62
9392.00,1.62
9391.00,1.62
9390.00,1.62
9389.00,1.62
9388.00,1.62
9387.00,1.62
9386.00,1.62
9385.00,1.62
9384.00,1.62
9383.00,1.62
9382.00,1.62
9381.00,1.62
9380.00,1.62
9379.00,1.62
9378.00,1.62
9377.00,1.62
9376.00,1.62
9375.00,1.62
9374.00,1.62
9373.00,1.62
9372.00,1.62
9371.00,1.62
9370.00,1.62
9369.00,1.62
9368.00,1.62
9367.00,1.62
9366.00,1.62
9365.00,1.63
9364.00,1.63
9363.00,1.63
9362.00,1.63
9361.00,1.63
9360.00,1.63
9359.00,1.63
9358.00,1.63
9357.00,1.64
9356.00,1.64
9355.00,1.64
9354.00,1.64
9353.00,1.64
9352.00,1.64
9351.00,1.64
9350.00,1.64
9349.00,1.64
9348.00,1.64
9347.00,1.64
9346.00,1.64
9345.00,1.64
9344.00,1.63
9343.00,1.63
9342.00,1.63
9341.00,1.63
9340.00,1.63
9339.00,1.63
9338.00,1.63
9337.00,1.63
9336.00,1.63
9335.00,1.63
9334.00,1.63
9333.00,1.63
9332.00,1.64
9331.00,1.64
9330.00,1.64
9329.00,1.64
9328.00,1.64
9327.00,1.64
9326.00,1.64
9325.00,1.63
9324.00,1.63
9323.00,1.63
9322.00,1.63
9321.00,1.63
9320.00,1.63
9319.00,1.63
9318.00,1.63
9317.00,1.63
9316.00,1.63
9315.00,1.63
9314.00,1.63
9313.00,1.62
9312.00,1.62
9311.00,1.62
9310.00,1.62
9309.00,1.62
9308.00,1.62
9307.00,1.62
9306.00,1.62
9305.00,1.62
9304.00,1.61
9303.00,1.61
9302.00,1.61
9301.00,1.61
9300.00,1.61
9299.00,1.61
9298.00,1.61
9297.00,1.61
9296.00,1.61
9295.00,1.61
9294.00,1.62
9293.00,1.62
9292.00,1.62
9291.00,1.62
9290.00,1.62
9289.00,1.62
9288.00,1.62
9287.00,1.62
9286.00,1.62
9285.00,1.63
9284.00,1.63
9283.00,1.63
9282.00,1.63
9281.00,1.63
9280.00,1.63
9279.00,1.63
9278.00,1.63
9277.00,1.63
9276.00,1.63
9275.00,1.63
9274.00,1.63
9273.00,1.63
9272.00,1.63
9271.00,1.63
9270.00,1.63
9269.00,1.63
9268.00,1.63
9267.00,1.63
9266.00,1.63
9265.00,1.63
9264.00,1.63
9263.00,1.63
9262.00,1.63
9261.00,1.63
9260.00,1.63
9259.00,1.63
9258.00,1.63
9257.00,1.63
9256.00,1.63
9255.00,1.63
9254.00,1.63
9253.00,1.63
9252.00,1.63
9251.00,1.63
9250.00,1.63
9249.00,1.63
9248.00,1.63
9247.00,1.63
9246.00,1.63
9245.00,1.63
9244.00,1.63
9243.00,1.63
9242.00,1.63
9241.00,1.63
9240.00,1.63
9239.00,1.63
9238.00,1.63
9237.00,1.63
9236.00,1.63
9235.00,1.63
9234.00,1.63
9233.00,1.63
9232.00,1.63
9231.00,1.63
9230.00,1.63
9229.00,1.63
9228.00,1.63
9227.00,1.63
9226.00,1.63
9225.00,1.63
9224.00,1.63
9223.00,1.63
9222.00,1.63
9221.00,1.63
9220.00,1.63
9219.00,1.63
9218.00,1.63
9217.00,1.63
9216.00,1.63
9215.00,1.63
9214.00,1.63
9213.00,1.63
9212.00,1.63
9211.00,1.63
9210.00,1.63
9209.00,1.63
9208.00,1.63
9207.00,1.63
9206.00,1.63
9205.00,1.63
9204.00,1.63
9203.00,1.63
9202.00,1.63
9201.00,1.63
9200.00,1.63
9199.00,1.63
9198.00,1.63
9197.00,1.63
9196.00,1.63
9195.00,1.63
9194.00,1.62
9193.00,1.62
9192.00,1.62
9191.00,1.62
9190.00,1.62
9189.00,1.62
9188.00,1.62
9187.00,1.62
9186.00,1.62
9185.00,1.62
9184.00,1.62
9183.00,1.62
9182.00,1.62
9181.00,1.62
9180.00,1.62
9179.00,1.62
9178.00,1.63
9177.00,1.63
9176.00,1.63
9175.00,1.63
9174.00,1.63
9173.00,1.63
9172.00,1.63
9171.00,1.63
9170.00,1.62
9169.00,1.62
9168.00,1.62
9167.00,1.62
9166.00,1.62
9165.00,1.62
9164.00,1.62
9163.00,1.62
9162.00,1.62
9161.00,1.62
9160.00,1.62
9159.00,1.62
9158.00,1.62
9157.00,1.62
9156.00,1.62
9155.00,1.62
9154.00,1.62
9153.00,1.62
9152.00,1.62
9151.00,1.62
9150.00,1.62
9149.00,1.62
9148.00,1.62
9147.00,1.62
9146.00,1.62
9145.00,1.62
9144.00,1.62
9143.00,1.62
9142.00,1.62
9141.00,1.62
9140.00,1.62
9139.00,1.62
9138.00,1.62
9137.00,1.62
9136.00,1.62
9135.00,1.62
9134.00,1.62
9133.00,1.62
9132.00,1.62
9131.00,1.62
9130.00,1.62
9129.00,1.62
9128.00,1.62
9127.00,1.63
9126.00,1.63
9125.00,1.63
9124.00,1.63
9123.00,1.63
9122.00,1.63
9121.00,1.63
9120.00,1.63
9119.00,1.63
9118.00,1.63
9117.00,1.63
9116.00,1.63
9115.00,1.63
9114.00,1.63
9113.00,1.63
9112.00,1.63
9111.00,1.63
9110.00,1.63
9109.00,1.63
9108.00,1.63
9107.00,1.62
9106.00,1.62
9105.00,1.62
9104.00,1.62
9103.00,1.62
9102.00,1.62
9101.00,1.62
9100.00,1.63
9099.00,1.63
9098.00,1.63
9097.00,1.63
9096.00,1.63
9095.00,1.63
9094.00,1.63
9093.00,1.63
9092.00,1.63
9091.00,1.63
9090.00,1.63
9089.00,1.63
9088.00,1.63
9087.00,1.63
9086.00,1.63
9085.00,1.63
9084.00,1.63
9083.00,1.63
9082.00,1.63
9081.00,1.63
9080.00,1.63
9079.00,1.63
9078.00,1.62
9077.00,1.62
9076.00,1.62
9075.00,1.62
9074.00,1.62
9073.00,1.62
9072.00,1.62
9071.00,1.62
9070.00,1.62
9069.00,1.62
9068.00,1.62
9067.00,1.62
9066.00,1.63
9065.00,1.63
9064.00,1.63
9063.00,1.63
9062.00,1.63
9061.00,1.63
9060.00,1.63
9059.00,1.64
9058.00,1.64
9057.00,1.64
9056.00,1.64
9055.00,1.64
9054.00,1.64
9053.00,1.64
9052.00,1.64
9051.00,1.64
9050.00,1.64
9049.00,1.63
9048.00,1.63
9047.00,1.63
9046.00,1.63
9045.00,1.63
9044.00,1.63
9043.00,1.63
9042.00,1.63
9041.00,1.63
9040.00,1.63
9039.00,1.63
9038.00,1.63
9037.00,1.63
9036.00,1.63
9035.00,1.63
9034.00,1.63
9033.00,1.63
9032.00,1.63
9031.00,1.63
9030.00,1.63
9029.00,1.63
9028.00,1.62
9027.00,1.62
9026.00,1.62
9025.00,1.62
9024.00,1.62
9023.00,1.62
9022.00,1.62
9021.00,1.62
9020.00,1.62
9019.00,1.62
9018.00,1.62
9017.00,1.62
9016.00,1.62
9015.00,1.62
9014.00,1.62
9013.00,1.62
9012.00,1.63
9011.00,1.63
9010.00,1.63
9009.00,1.63
9008.00,1.63
9007.00,1.63
9006.00,1.63
9005.00,1.64
9004.00,1.64
9003.00,1.64
9002.00,1.64
9001.00,1.64
9000.00,1.64
8999.00,1.64
8998.00,1.63
8997.00,1.63
8996.00,1.63
8995.00,1.63
8994.00,1.63
8993.00,1.63
8992.00,1.63
8991.00,1.63
8990.00,1.63
8989.00,1.63
8988.00,1.63
8987.00,1.63
8986.00,1.63
8985.00,1.63
8984.00,1.63
8983.00,1.63
8982.00,1.63
8981.00,1.63
8980.00,1.63
8979.00,1.63
8978.00,1.63
8977.00,1.63
8976.00,1.63
8975.00,1.63
8974.00,1.63
8973.00,1.63
8972.00,1.63
8971.00,1.63
8970.00,1.63
8969.00,1.63
8968.00,1.64
8967.00,1.64
8966.00,1.64
8965.00,1.64
8964.00,1.64
8963.00,1.64
8962.00,1.64
8961.00,1.64
8960.00,1.64
8959.00,1.64
8958.00,1.64
8957.00,1.64
8956.00,1.64
8955.00,1.64
8954.00,1.64
8953.00,1.64
8952.00,1.64
8951.00,1.63
8950.00,1.63
8949.00,1.63
8948.00,1.63
8947.00,1.63
8946.00,1.63
8945.00,1.63
8944.00,1.63
8943.00,1.63
8942.00,1.63
8941.00,1.63
8940.00,1.63
8939.00,1.63
8938.00,1.63
8937.00,1.63
8936.00,1.63
8935.00,1.63
8934.00,1.63
8933.00,1.62
8932.00,1.62
8931.00,1.62
8930.00,1.62
8929.00,1.62
8928.00,1.62
8927.00,1.62
8926.00,1.62
8925.00,1.62
8924.00,1.62
8923.00,1.62
8922.00,1.62
8921.00,1.62
8920.00,1.62
8919.00,1.62
8918.00,1.62
8917.00,1.62
8916.00,1.62
8915.00,1.62
8914.00,1.62
8913.00,1.61
8912.00,1.61
8911.00,1.61
8910.00,1.61
8909.00,1.61
8908.00,1.61
8907.00,1.61
8906.00,1.61
8905.00,1.61
8904.00,1.61
8903.00,1.61
8902.00,1.61
8901.00,1.61
8900.00,1.61
8899.00,1.61
8898.00,1.61
8897.00,1.61
8896.00,1.61
8895.00,1.61
8894.00,1.61
8893.00,1.61
8892.00,1.61
8891.00,1.61
8890.00,1.61
8889.00,1.61
8888.00,1.62
8887.00,1.62
8886.00,1.62
8885.00,1.62
8884.00,1.62
8883.00,1.62
8882.00,1.62
8881.00,1.62
8880.00,1.62
8879.00,1.62
8878.00,1.62
8877.00,1.62
8876.00,1.62
8875.00,1.63
8874.00,1.63
8873.00,1.63
8872.00,1.63
8871.00,1.63
8870.00,1.63
8869.00,1.63
8868.00,1.63
8867.00,1.63
8866.00,1.63
8865.00,1.63
8864.00,1.63
8863.00,1.63
8862.00,1.63
8861.00,1.63
8860.00,1.63
8859.00,1.62
8858.00,1.62
8857.00,1.62
8856.00,1.62
8855.00,1.61
8854.00,1.61
8853.00,1.61
8852.00,1.61
8851.00,1.61
8850.00,1.61
8849.00,1.61
8848.00,1.61
8847.00,1.61
8846.00,1.61
8845.00,1.61
8844.00,1.61
8843.00,1.61
8842.00,1.61
8841.00,1.61
8840.00,1.61
8839.00,1.61
8838.00,1.61
8837.00,1.61
8836.00,1.61
8835.00,1.61
8834.00,1.61
8833.00,1.60
8832.00,1.60
8831.00,1.60
8830.00,1.60
8829.00,1.60
8828.00,1.60
8827.00,1.60
8826.00,1.59
8825.00,1.59
8824.00,1.59
8823.00,1.59
8822.00,1.59
8821.00,1.59
8820.00,1.59
8819.00,1.59
8818.00,1.58
8817.00,1.58
8816.00,1.58
8815.00,1.58
8814.00,1.58
8813.00,1.58
8812.00,1.58
8811.00,1.58
8810.00,1.58
8809.00,1.58
8808.00,1.58
8807.00,1.58
8806.00,1.58
8805.00,1.58
8804.00,1.58
8803.00,1.58
8802.00,1.58
8801.00,1.58
8800.00,1.57
8799.00,1.57
8798.00,1.57
8797.00,1.57
8796.00,1.57
8795.00,1.57
8794.00,1.56
8793.00,1.56
8792.00,1.56
8791.00,1.56
8790.00,1.56
8789.00,1.56
8788.00,1.56
8787.00,1.56
8786.00,1.56
8785.00,1.56
8784.00,1.56
8783.00,1.56
8782.00,1.57
8781.00,1.57
8780.00,1.57
8779.00,1.57
8778.00,1.57
8777.00,1.57
8776.00,1.57
8775.00,1.57
8774.00,1.57
8773.00,1.57
8772.00,1.57
8771.00,1.56
8770.00,1.56
8769.00,1.56
8768.00,1.56
8767.00,1.56
8766.00,1.56
8765.00,1.56
8764.00,1.56
8763.00,1.56
8762.00,1.56
8761.00,1.56
8760.00,1.56
8759.00,1.56
8758.00,1.56
8757.00,1.56
8756.00,1.56
8755.00,1.56
8754.00,1.56
8753.00,1.56
8752.00,1.56
8751.00,1.56
8750.00,1.56
8749.00,1.56
8748.00,1.56
8747.00,1.56
8746.00,1.56
8745.00,1.56
8744.00,1.56
8743.00,1.55
8742.00,1.55
8741.00,1.55
8740.00,1.55
8739.00,1.55
8738.00,1.55
8737.00,1.55
8736.00,1.54
8735.00,1.54
8734.00,1.54
8733.00,1.54
8732.00,1.54
8731.00,1.54
8730.00,1.54
8729.00,1.54
8728.00,1.54
8727.00,1.54
8726.00,1.54
8725.00,1.54
8724.00,1.54
8723.00,1.54
8722.00,1.54
8721.00,1.54
8720.00,1.54
8719.00,1.54
8718.00,1.54
8717.00,1.54
8716.00,1.54
8715.00,1.53
8714.00,1.53
8713.00,1.53
8712.00,1.53
8711.00,1.53
8710.00,1.53
8709.00,1.53
8708.00,1.53
8707.00,1.53
8706.00,1.53
8705.00,1.53
8704.00,1.53
8703.00,1.54
8702.00,1.54
8701.00,1.54
8700.00,1.54
8699.00,1.54
8698.00,1.54
8697.00,1.54
8696.00,1.54
8695.00,1.54
8694.00,1.54
8693.00,1.54
8692.00,1.55
8691.00,1.55
8690.00,1.55
8689.00,1.55
8688.00,1.55
8687.00,1.55
8686.00,1.55
8685.00,1.55
8684.00,1.55
8683.00,1.55
8682.00,1.54
8681.00,1.54
8680.00,1.54
8679.00,1.54
8678.00,1.54
8677.00,1.54
8676.00,1.53
8675.00,1.53
8674.00,1.53
8673.00,1.53
8672.00,1.53
8671.00,1.52
8670.00,1.52
8669.00,1.52
8668.00,1.52
8667.00,1.52
8666.00,1.52
8665.00,1.52
8664.00,1.52
8663.00,1.52
8662.00,1.51
8661.00,1.51
8660.00,1.51
8659.00,1.51
8658.00,1.51
8657.00,1.51
8656.00,1.51
8655.00,1.51
8654.00,1.51
8653.00,1.51
8652.00,1.51
8651.00,1.52
8650.00,1.52
8649.00,1.52
8648.00,1.52
8647.00,1.52
8646.00,1.52
8645.00,1.52
8644.00,1.52
8643.00,1.52
8642.00,1.52
8641.00,1.52
8640.00,1.52
8639.00,1.52
8638.00,1.53
8637.00,1.53
8636.00,1.53
8635.00,1.53
8634.00,1.53
8633.00,1.53
8632.00,1.53
8631.00,1.53
8630.00,1.53
8629.00,1.52
8628.00,1.52
8627.00,1.52
8626.00,1.52
8625.00,1.52
8624.00,1.52
8623.00,1.52
8622.00,1.52
8621.00,1.51
8620.00,1.51
8619.00,1.51
8618.00,1.51
8617.00,1.51
8616.00,1.51
8615.00,1.51
8614.00,1.51
8613.00,1.51
8612.00,1.51
8611.00,1.51
8610.00,1.51
8609.00,1.51
8608.00,1.51
8607.00,1.51
8606.00,1.51
8605.00,1.51
8604.00,1.51
8603.00,1.51
8602.00,1.51
8601.00,1.51
8600.00,1.50
8599.00,1.50
8598.00,1.50
8597.00,1.50
8596.00,1.50
8595.00,1.50
8594.00,1.50
8593.00,1.50
8592.00,1.50
8591.00,1.50
8590.00,1.50
8589.00,1.50
8588.00,1.50
8587.00,1.50
8586.00,1.50
8585.00,1.50
8584.00,1.50
8583.00,1.50
8582.00,1.50
8581.00,1.50
8580.00,1.50
8579.00,1.50
8578.00,1.50
8577.00,1.50
8576.00,1.50
8575.00,1.49
8574.00,1.49
8573.00,1.49
8572.00,1.49
8571.00,1.49
8570.00,1.49
8569.00,1.49
8568.00,1.48
8567.00,1.48
8566.00,1.48
8565.00,1.48
8564.00,1.48
8563.00,1.47
8562.00,1.47
8561.00,1.47
8560.00,1.47
8559.00,1.47
8558.00,1.47
8557.00,1.47
8556.00,1.47
8555.00,1.47
8554.00,1.47
8553.00,1.47
8552.00,1.47
8551.00,1.47
8550.00,1.46
8549.00,1.46
8548.00,1.46
8547.00,1.46
8546.00,1.46
8545.00,1.46
8544.00,1.46
8543.00,1.46
8542.00,1.46
8541.00,1.46
8540.00,1.46
8539.00,1.46
8538.00,1.46
8537.00,1.46
8536.00,1.46
8535.00,1.46
8534.00,1.46
8533.00,1.46
8532.00,1.46
8531.00,1.46
8530.00,1.46
8529.00,1.46
8528.00,1.46
8527.00,1.46
8526.00,1.46
8525.00,1.46
8524.00,1.46
8523.00,1.46
8522.00,1.46
8521.00,1.45
8520.00,1.45
8519.00,1.45
8518.00,1.45
8517.00,1.45
8516.00,1.45
8515.00,1.45
8514.00,1.45
8513.00,1.45
8512.00,1.44
8511.00,1.44
8510.00,1.44
8509.00,1.44
8508.00,1.44
8507.00,1.44
8506.00,1.44
8505.00,1.44
8504.00,1.44
8503.00,1.44
8502.00,1.44
8501.00,1.44
8500.00,1.44
8499.00,1.44
8498.00,1.44
8497.00,1.43
8496.00,1.43
8495.00,1.43
8494.00,1.43
8493.00,1.43
8492.00,1.43
8491.00,1.43
8490.00,1.43
8489.00,1.43
8488.00,1.43
8487.00,1.42
8486.00,1.42
8485.00,1.42
8484.00,1.42
8483.00,1.42
8482.00,1.42
8481.00,1.41
8480.00,1.41
8479.00,1.41
8478.00,1.41
8477.00,1.41
8476.00,1.41
8475.00,1.41
8474.00,1.41
8473.00,1.40
8472.00,1.40
8471.00,1.40
8470.00,1.40
8469.00,1.40
8468.00,1.40
8467.00,1.40
8466.00,1.39
8465.00,1.39
8464.00,1.39
8463.00,1.39
8462.00,1.39
8461.00,1.39
8460.00,1.39
8459.00,1.38
8458.00,1.38
8457.00,1.38
8456.00,1.38
8455.00,1.38
8454.00,1.38
8453.00,1.38
8452.00,1.38
8451.00,1.38
8450.00,1.38
8449.00,1.37
8448.00,1.37
8447.00,1.37
8446.00,1.37
8445.00,1.37
8444.00,1.37
8443.00,1.37
8442.00,1.37
8441.00,1.37
8440.00,1.37
8439.00,1.37
8438.00,1.37
8437.00,1.37
8436.00,1.38
8435.00,1.38
8434.00,1.38
8433.00,1.38
8432.00,1.38
8431.00,1.38
8430.00,1.38
8429.00,1.38
8428.00,1.38
8427.00,1.38
8426.00,1.38
8425.00,1.38
8424.00,1.38
8423.00,1.38
8422.00,1.38
8421.00,1.38
8420.00,1.38
8419.00,1.38
8418.00,1.38
8417.00,1.38
8416.00,1.38
8415.00,1.38
8414.00,1.38
8413.00,1.38
8412.00,1.38
8411.00,1.38
8410.00,1.38
8409.00,1.39
8408.00,1.39
8407.00,1.39
8406.00,1.39
8405.00,1.39
8404.00,1.39
8403.00,1.39
8402.00,1.39
8401.00,1.40
8400.00,1.40
8399.00,1.40
8398.00,1.40
8397.00,1.40
8396.00,1.40
8395.00,1.40
8394.00,1.40
8393.00,1.41
8392.00,1.41
8391.00,1.41
8390.00,1.41
8389.00,1.41
8388.00,1.41
8387.00,1.41
8386.00,1.41
8385.00,1.41
8384.00,1.41
8383.00,1.41
8382.00,1.41
8381.00,1.41
8380.00,1.41
8379.00,1.41
8378.00,1.41
8377.00,1.41
8376.00,1.41
8375.00,1.41
8374.00,1.41
8373.00,1.41
8372.00,1.41
8371.00,1.41
8370.00,1.41
8369.00,1.41
8368.00,1.41
8367.00,1.41
8366.00,1.41
8365.00,1.42
8364.00,1.42
8363.00,1.42
8362.00,1.42
8361.00,1.42
8360.00,1.42
8359.00,1.42
8358.00,1.43
8357.00,1.43
8356.00,1.43
8355.00,1.43
8354.00,1.43
8353.00,1.43
8352.00,1.43
8351.00,1.43
8350.00,1.44
8349.00,1.44
8348.00,1.44
8347.00,1.44
8346.00,1.44
8345.00,1.44
8344.00,1.44
8343.00,1.44
8342.00,1.44
8341.00,1.44
8340.00,1.44
8339.00,1.44
8338.00,1.43
8337.00,1.43
8336.00,1.43
8335.00,1.43
8334.00,1.43
8333.00,1.43
8332.00,1.43
8331.00,1.43
8330.00,1.43
8329.00,1.43
8328.00,1.43
8327.00,1.43
8326.00,1.43
8325.00,1.43
8324.00,1.43
8323.00,1.43
8322.00,1.43
8321.00,1.43
8320.00,1.43
8319.00,1.44
8318.00,1.44
8317.00,1.44
8316.00,1.44
8315.00,1.44
8314.00,1.44
8313.00,1.44
8312.00,1.44
8311.00,1.44
8310.00,1.44
8309.00,1.44
8308.00,1.44
8307.00,1.44
8306.00,1.44
8305.00,1.44
8304.00,1.44
8303.00,1.44
8302.00,1.44
8301.00,1.44
8300.00,1.44
8299.00,1.44
8298.00,1.44
8297.00,1.44
8296.00,1.44
8295.00,1.44
8294.00,1.44
8293.00,1.44
8292.00,1.45
8291.00,1.45
8290.00,1.45
8289.00,1.45
8288.00,1.45
8287.00,1.45
8286.00,1.45
8285.00,1.45
8284.00,1.45
8283.00,1.45
8282.00,1.45
8281.00,1.45
8280.00,1.45
8279.00,1.45
8278.00,1.45
8277.00,1.45
8276.00,1.46
8275.00,1.46
8274.00,1.46
8273.00,1.46
8272.00,1.46
8271.00,1.46
8270.00,1.46
8269.00,1.46
8268.00,1.46
8267.00,1.47
8266.00,1.47
8265.00,1.47
8264.00,1.47
8263.00,1.47
8262.00,1.47
8261.00,1.47
8260.00,1.47
8259.00,1.47
8258.00,1.47
8257.00,1.47
8256.00,1.47
8255.00,1.47
8254.00,1.47
8253.00,1.47
8252.00,1.47
8251.00,1.46
8250.00,1.46
8249.00,1.46
8248.00,1.46
8247.00,1.47
8246.00,1.47
8245.00,1.47
8244.00,1.47
8243.00,1.47
8242.00,1.47
8241.00,1.47
8240.00,1.47
8239.00,1.47
8238.00,1.48
8237.00,1.48
8236.00,1.48
8235.00,1.48
8234.00,1.48
8233.00,1.48
8232.00,1.49
8231.00,1.49
8230.00,1.49
8229.00,1.49
8228.00,1.49
8227.00,1.49
8226.00,1.49
8225.00,1.49
8224.00,1.49
8223.00,1.49
8222.00,1.49
8221.00,1.49
8220.00,1.49
8219.00,1.49
8218.00,1.49
8217.00,1.49
8216.00,1.49
8215.00,1.49
8214.00,1.48
8213.00,1.48
8212.00,1.48
8211.00,1.48
8210.00,1.48
8209.00,1.48
8208.00,1.49
8207.00,1.49
8206.00,1.49
8205.00,1.49
8204.00,1.49
8203.00,1.49
8202.00,1.49
8201.00,1.49
8200.00,1.49
8199.00,1.49
8198.00,1.50
8197.00,1.50
8196.00,1.50
8195.00,1.50
8194.00,1.50
8193.00,1.50
8192.00,1.50
8191.00,1.50
8190.00,1.50
8189.00,1.50
8188.00,1.50
8187.00,1.50
8186.00,1.50
8185.00,1.50
8184.00,1.50
8183.00,1.50
8182.00,1.50
8181.00,1.51
8180.00,1.51
8179.00,1.51
8178.00,1.51
8177.00,1.51
8176.00,1.51
8175.00,1.51
8174.00,1.51
8173.00,1.51
8172.00,1.51
8171.00,1.51
8170.00,1.51
8169.00,1.51
8168.00,1.51
8167.00,1.51
8166.00,1.51
8165.00,1.51
8164.00,1.51
8163.00,1.51
8162.00,1.51
8161.00,1.51
8160.00,1.51
8159.00,1.51
8158.00,1.51
8157.00,1.51
8156.00,1.51
8155.00,1.51
8154.00,1.52
8153.00,1.52
8152.00,1.52
8151.00,1.52
8150.00,1.52
8149.00,1.52
8148.00,1.52
8147.00,1.53
8146.00,1.53
8145.00,1.53
8144.00,1.53
8143.00,1.53
8142.00,1.53
8141.00,1.53
8140.00,1.53
8139.00,1.53
8138.00,1.53
8137.00,1.53
8136.00,1.53
8135.00,1.53
8134.00,1.53
8133.00,1.53
8132.00,1.53
8131.00,1.53
8130.00,1.53
8129.00,1.53
8128.00,1.53
8127.00,1.53
8126.00,1.53
8125.00,1.53
8124.00,1.53
8123.00,1.53
8122.00,1.53
8121.00,1.53
8120.00,1.53
8119.00,1.53
8118.00,1.53
8117.00,1.53
8116.00,1.53
8115.00,1.53
8114.00,1.53
8113.00,1.53
8112.00,1.53
8111.00,1.53
8110.00,1.53
8109.00,1.53
8108.00,1.53
8107.00,1.53
8106.00,1.53
8105.00,1.54
8104.00,1.54
8103.00,1.54
8102.00,1.54
8101.00,1.54
8100.00,1.54
8099.00,1.54
8098.00,1.54
8097.00,1.54
8096.00,1.54
8095.00,1.55
8094.00,1.55
8093.00,1.55
8092.00,1.55
8091.00,1.55
8090.00,1.55
8089.00,1.55
8088.00,1.55
8087.00,1.55
8086.00,1.55
8085.00,1.55
8084.00,1.55
8083.00,1.55
8082.00,1.55
8081.00,1.55
8080.00,1.55
8079.00,1.55
8078.00,1.55
8077.00,1.55
8076.00,1.55
8075.00,1.55
8074.00,1.55
8073.00,1.55
8072.00,1.55
8071.00,1.55
8070.00,1.54
8069.00,1.54
8068.00,1.54
8067.00,1.54
8066.00,1.55
8065.00,1.55
8064.00,1.55
8063.00,1.55
8062.00,1.55
8061.00,1.55
8060.00,1.55
8059.00,1.55
8058.00,1.55
8057.00,1.56
8056.00,1.56
8055.00,1.56
8054.00,1.56
8053.00,1.56
8052.00,1.56
8051.00,1.56
8050.00,1.56
8049.00,1.57
8048.00,1.57
8047.00,1.57
8046.00,1.57
8045.00,1.57
8044.00,1.57
8043.00,1.57
8042.00,1.57
8041.00,1.57
8040.00,1.57
8039.00,1.57
8038.00,1.57
8037.00,1.57
8036.00,1.57
8035.00,1.57
8034.00,1.57
8033.00,1.57
8032.00,1.57
8031.00,1.57
8030.00,1.57
8029.00,1.57
8028.00,1.57
8027.00,1.57
8026.00,1.57
8025.00,1.57
8024.00,1.57
8023.00,1.57
8022.00,1.57
8021.00,1.57
8020.00,1.57
8019.00,1.57
8018.00,1.57
8017.00,1.57
8016.00,1.57
8015.00,1.57
8014.00,1.57
8013.00,1.57
8012.00,1.57
8011.00,1.57
8010.00,1.57
8009.00,1.57
8008.00,1.57
8007.00,1.57
8006.00,1.57
8005.00,1.57
8004.00,1.57
8003.00,1.58
8002.00,1.58
8001.00,1.58
8000.00,1.58
7999.00,1.58
7998.00,1.58
7997.00,1.58
7996.00,1.58
7995.00,1.58
7994.00,1.58
7993.00,1.59
7992.00,1.59
7991.00,1.59
7990.00,1.59
7989.00,1.59
7988.00,1.59
7987.00,1.59
7986.00,1.59
7985.00,1.59
7984.00,1.59
7983.00,1.59
7982.00,1.59
7981.00,1.58
7980.00,1.58
7979.00,1.58
7978.00,1.58
7977.00,1.58
7976.00,1.58
7975.00,1.58
7974.00,1.58
7973.00,1.58
7972.00,1.58
7971.00,1.58
7970.00,1.58
7969.00,1.58
7968.00,1.58
7967.00,1.58
7966.00,1.58
7965.00,1.58
7964.00,1.58
7963.00,1.58
7962.00,1.58
7961.00,1.58
7960.00,1.59
7959.00,1.59
7958.00,1.59
7957.00,1.59
7956.00,1.59
7955.00,1.59
7954.00,1.59
7953.00,1.59
7952.00,1.59
7951.00,1.59
7950.00,1.59
7949.00,1.60
7948.00,1.60
7947.00,1.60
7946.00,1.60
7945.00,1.60
7944.00,1.60
7943.00,1.60
7942.00,1.60
7941.00,1.60
7940.00,1.60
7939.00,1.60
7938.00,1.60
7937.00,1.60
7936.00,1.60
7935.00,1.60
7934.00,1.60
7933.00,1.60
7932.00,1.60
7931.00,1.60
7930.00,1.60
7929.00,1.60
7928.00,1.60
7927.00,1.60
7926.00,1.60
7925.00,1.60
7924.00,1.60
7923.00,1.60
7922.00,1.60
7921.00,1.60
7920.00,1.60
7919.00,1.60
7918.00,1.60
7917.00,1.60
7916.00,1.60
7915.00,1.60
7914.00,1.60
7913.00,1.60
7912.00,1.60
7911.00,1.60
7910.00,1.60
7909.00,1.60
7908.00,1.60
7907.00,1.60
7906.00,1.60
7905.00,1.60
7904.00,1.60
7903.00,1.60
7902.00,1.60
7901.00,1.60
7900.00,1.60
7899.00,1.60
7898.00,1.60
7897.00,1.60
7896.00,1.60
7895.00,1.61
7894.00,1.61
7893.00,1.61
7892.00,1.61
7891.00,1.61
7890.00,1.61
7889.00,1.61
7888.00,1.61
7887.00,1.61
7886.00,1.61
7885.00,1.61
7884.00,1.61
7883.00,1.61
7882.00,1.61
7881.00,1.61
7880.00,1.61
7879.00,1.61
7878.00,1.61
7877.00,1.61
7876.00,1.61
7875.00,1.61
7874.00,1.61
7873.00,1.61
7872.00,1.61
7871.00,1.61
7870.00,1.61
7869.00,1.61
7868.00,1.61
7867.00,1.61
7866.00,1.61
7865.00,1.61
7864.00,1.61
7863.00,1.61
7862.00,1.62
7861.00,1.62
7860.00,1.62
7859.00,1.62
7858.00,1.62
7857.00,1.62
7856.00,1.62
7855.00,1.62
7854.00,1.62
7853.00,1.62
7852.00,1.62
7851.00,1.62
7850.00,1.62
7849.00,1.62
7848.00,1.62
7847.00,1.62
7846.00,1.62
7845.00,1.62
7844.00,1.62
7843.00,1.62
7842.00,1.62
7841.00,1.62
7840.00,1.62
7839.00,1.62
7838.00,1.62
7837.00,1.62
7836.00,1.62
7835.00,1.62
7834.00,1.62
7833.00,1.62
7832.00,1.62
7831.00,1.62
7830.00,1.62
7829.00,1.62
7828.00,1.62
7827.00,1.62
7826.00,1.62
7825.00,1.62
7824.00,1.62
7823.00,1.62
7822.00,1.62
7821.00,1.62
7820.00,1.62
7819.00,1.62
7818.00,1.62
7817.00,1.62
7816.00,1.62
7815.00,1.62
7814.00,1.62
7813.00,1.62
7812.00,1.62
7811.00,1.62
7810.00,1.62
7809.00,1.62
7808.00,1.62
7807.00,1.62
7806.00,1.62
7805.00,1.62
7804.00,1.62
7803.00,1.62
7802.00,1.62
7801.00,1.62
7800.00,1.62
7799.00,1.63
7798.00,1.63
7797.00,1.63
7796.00,1.63
7795.00,1.63
7794.00,1.63
7793.00,1.63
7792.00,1.63
7791.00,1.63
7790.00,1.63
7789.00,1.63
7788.00,1.63
7787.00,1.63
7786.00,1.63
7785.00,1.63
7784.00,1.63
7783.00,1.63
7782.00,1.63
7781.00,1.63
7780.00,1.63
7779.00,1.63
7778.00,1.63
7777.00,1.63
7776.00,1.63
7775.00,1.63
7774.00,1.63
7773.00,1.63
7772.00,1.63
7771.00,1.63
7770.00,1.63
7769.00,1.63
7768.00,1.63
7767.00,1.63
7766.00,1.63
7765.00,1.63
7764.00,1.63
7763.00,1.63
7762.00,1.63
7761.00,1.63
7760.00,1.63
7759.00,1.63
7758.00,1.63
7757.00,1.63
7756.00,1.63
7755.00,1.63
7754.00,1.63
7753.00,1.63
7752.00,1.63
7751.00,1.63
7750.00,1.63
7749.00,1.63
7748.00,1.63
7747.00,1.64
7746.00,1.64
7745.00,1.64
7744.00,1.64
7743.00,1.64
7742.00,1.64
7741.00,1.64
7740.00,1.64
7739.00,1.64
7738.00,1.64
7737.00,1.64
7736.00,1.64
7735.00,1.64
7734.00,1.64
7733.00,1.64
7732.00,1.64
7731.00,1.64
7730.00,1.63
7729.00,1.63
7728.00,1.63
7727.00,1.63
7726.00,1.63
7725.00,1.63
7724.00,1.63
7723.00,1.63
7722.00,1.63
7721.00,1.63
7720.00,1.63
7719.00,1.63
7718.00,1.63
7717.00,1.63
7716.00,1.63
7715.00,1.63
7714.00,1.63
7713.00,1.63
7712.00,1.63
7711.00,1.63
7710.00,1.63
7709.00,1.63
7708.00,1.63
7707.00,1.63
7706.00,1.63
7705.00,1.63
7704.00,1.63
7703.00,1.63
7702.00,1.63
7701.00,1.63
7700.00,1.63
7699.00,1.63
7698.00,1.63
7697.00,1.63
7696.00,1.63
7695.00,1.63
7694.00,1.63
7693.00,1.63
7692.00,1.63
7691.00,1.63
7690.00,1.63
7689.00,1.63
7688.00,1.63
7687.00,1.63
7686.00,1.64
7685.00,1.64
7684.00,1.64
7683.00,1.64
7682.00,1.64
7681.00,1.64
7680.00,1.64
7679.00,1.64
7678.00,1.64
7677.00,1.64
7676.00,1.64
7675.00,1.64
7674.00,1.64
7673.00,1.64
7672.00,1.64
7671.00,1.64
7670.00,1.64
7669.00,1.64
7668.00,1.64
7667.00,1.64
7666.00,1.64
7665.00,1.64
7664.00,1.64
7663.00,1.64
7662.00,1.63
7661.00,1.63
7660.00,1.63
7659.00,1.63
7658.00,1.63
7657.00,1.63
7656.00,1.63
7655.00,1.63
7654.00,1.63
7653.00,1.63
7652.00,1.63
7651.00,1.63
7650.00,1.63
7649.00,1.63
7648.00,1.63
7647.00,1.63
7646.00,1.63
7645.00,1.63
7644.00,1.63
7643.00,1.63
7642.00,1.63
7641.00,1.63
7640.00,1.63
7639.00,1.63
7638.00,1.63
7637.00,1.63
7636.00,1.63
7635.00,1.63
7634.00,1.63
7633.00,1.63
7632.00,1.63
7631.00,1.63
7630.00,1.63
7629.00,1.63
7628.00,1.63
7627.00,1.63
7626.00,1.63
7625.00,1.63
7624.00,1.64
7623.00,1.64
7622.00,1.64
7621.00,1.64
7620.00,1.64
7619.00,1.64
7618.00,1.64
7617.00,1.64
7616.00,1.64
7615.00,1.64
7614.00,1.64
7613.00,1.64
7612.00,1.64
7611.00,1.64
7610.00,1.64
7609.00,1.64
7608.00,1.64
7607.00,1.64
7606.00,1.64
7605.00,1.64
7604.00,1.64
7603.00,1.64
7602.00,1.64
7601.00,1.64
7600.00,1.64
7599.00,1.64
7598.00,1.64
7597.00,1.64
7596.00,1.64
7595.00,1.64
7594.00,1.64
7593.00,1.64
7592.00,1.64
7591.00,1.64
7590.00,1.64
7589.00,1.64
7588.00,1.64
7587.00,1.64
7586.00,1.64
7585.00,1.64
7584.00,1.64
7583.00,1.64
7582.00,1.64
7581.00,1.64
7580.00,1.64
7579.00,1.64
7578.00,1.64
7577.00,1.64
7576.00,1.64
7575.00,1.64
7574.00,1.64
7573.00,1.64
7572.00,1.64
7571.00,1.64
7570.00,1.64
7569.00,1.64
7568.00,1.64
7567.00,1.64
7566.00,1.64
7565.00,1.64
7564.00,1.64
7563.00,1.64
7562.00,1.64
7561.00,1.64
7560.00,1.64
7559.00,1.64
7558.00,1.64
7557.00,1.64
7556.00,1.64
7555.00,1.64
7554.00,1.64
7553.00,1.64
7552.00,1.63
7551.00,1.63
7550.00,1.63
7549.00,1.63
7548.00,1.63
7547.00,1.63
7546.00,1.63
7545.00,1.63
7544.00,1.63
7543.00,1.63
7542.00,1.63
7541.00,1.63
7540.00,1.62
7539.00,1.62
7538.00,1.62
7537.00,1.62
7536.00,1.62
7535.00,1.62
7534.00,1.62
7533.00,1.62
7532.00,1.62
7531.00,1.62
7530.00,1.62
7529.00,1.62
7528.00,1.61
7527.00,1.61
7526.00,1.61
7525.00,1.61
7524.00,1.61
7523.00,1.61
7522.00,1.61
7521.00,1.61
7520.00,1.61
7519.00,1.61
7518.00,1.61
7517.00,1.61
7516.00,1.61
7515.00,1.61
7514.00,1.61
7513.00,1.61
7512.00,1.61
7511.00,1.61
7510.00,1.61
7509.00,1.61
7508.00,1.61
7507.00,1.61
7506.00,1.61
7505.00,1.61
7504.00,1.61
7503.00,1.61
7502.00,1.61
7501.00,1.61
7500.00,1.61
7499.00,1.61
7498.00,1.61
7497.00,1.61
7496.00,1.61
7495.00,1.61
7494.00,1.61
7493.00,1.61
7492.00,1.61
7491.00,1.61
7490.00,1.61
7489.00,1.61
7488.00,1.61
7487.00,1.60
7486.00,1.60
7485.00,1.60
7484.00,1.60
7483.00,1.60
7482.00,1.60
7481.00,1.60
7480.00,1.60
7479.00,1.60
7478.00,1.60
7477.00,1.59
7476.00,1.59
7475.00,1.59
7474.00,1.59
7473.00,1.59
7472.00,1.59
7471.00,1.59
7470.00,1.58
7469.00,1.58
7468.00,1.58
7467.00,1.58
7466.00,1.58
7465.00,1.58
7464.00,1.58
7463.00,1.58
7462.00,1.58
7461.00,1.58
7460.00,1.58
7459.00,1.58
7458.00,1.58
7457.00,1.58
7456.00,1.58
7455.00,1.58
7454.00,1.58
7453.00,1.58
7452.00,1.58
7451.00,1.58
7450.00,1.58
7449.00,1.58
7448.00,1.58
7447.00,1.58
7446.00,1.58
7445.00,1.58
7444.00,1.58
7443.00,1.58
7442.00,1.58
7441.00,1.58
7440.00,1.57
7439.00,1.57
7438.00,1.57
7437.00,1.57
7436.00,1.57
7435.00,1.57
7434.00,1.57
7433.00,1.56
7432.00,1.56
7431.00,1.56
7430.00,1.56
7429.00,1.56
7428.00,1.56
7427.00,1.55
7426.00,1.55
7425.00,1.55
7424.00,1.55
7423.00,1.55
7422.00,1.54
7421.00,1.54
7420.00,1.54
7419.00,1.54
7418.00,1.54
7417.00,1.54
7416.00,1.53
7415.00,1.53
7414.00,1.53
7413.00,1.53
7412.00,1.53
7411.00,1.53
7410.00,1.53
7409.00,1.53
7408.00,1.53
7407.00,1.53
7406.00,1.52
7405.00,1.52
7404.00,1.52
7403.00,1.52
7402.00,1.52
7401.00,1.52
7400.00,1.52
7399.00,1.51
7398.00,1.51
7397.00,1.51
7396.00,1.51
7395.00,1.51
7394.00,1.51
7393.00,1.50
7392.00,1.50
7391.00,1.50
7390.00,1.50
7389.00,1.50
7388.00,1.49
7387.00,1.49
7386.00,1.49
7385.00,1.49
7384.00,1.49
7383.00,1.49
7382.00,1.49
7381.00,1.49
7380.00,1.48
7379.00,1.48
7378.00,1.48
7377.00,1.48
7376.00,1.48
7375.00,1.48
7374.00,1.48
7373.00,1.48
7372.00,1.48
7371.00,1.48
7370.00,1.47
7369.00,1.47
7368.00,1.47
7367.00,1.47
7366.00,1.47
7365.00,1.47
7364.00,1.47
7363.00,1.47
7362.00,1.47
7361.00,1.47
7360.00,1.47
7359.00,1.47
7358.00,1.47
7357.00,1.47
7356.00,1.47
7355.00,1.47
7354.00,1.47
7353.00,1.47
7352.00,1.47
7351.00,1.47
7350.00,1.47
7349.00,1.47
7348.00,1.47
7347.00,1.47
7346.00,1.46
7345.00,1.46
7344.00,1.46
7343.00,1.46
7342.00,1.46
7341.00,1.46
7340.00,1.46
7339.00,1.46
7338.00,1.46
7337.00,1.46
7336.00,1.46
7335.00,1.46
7334.00,1.46
7333.00,1.46
7332.00,1.46
7331.00,1.46
7330.00,1.46
7329.00,1.46
7328.00,1.45
7327.00,1.45
7326.00,1.45
7325.00,1.45
7324.00,1.45
7323.00,1.45
7322.00,1.45
7321.00,1.45
7320.00,1.45
7319.00,1.45
7318.00,1.45
7317.00,1.44
7316.00,1.44
7315.00,1.44
7314.00,1.44
7313.00,1.44
7312.00,1.44
7311.00,1.44
7310.00,1.43
7309.00,1.43
7308.00,1.43
7307.00,1.43
7306.00,1.43
7305.00,1.42
7304.00,1.42
7303.00,1.42
7302.00,1.42
7301.00,1.42
7300.00,1.41
7299.00,1.41
7298.00,1.41
7297.00,1.41
7296.00,1.41
7295.00,1.40
7294.00,1.40
7293.00,1.40
7292.00,1.40
7291.00,1.40
7290.00,1.40
7289.00,1.40
7288.00,1.40
7287.00,1.40
7286.00,1.39
7285.00,1.39
7284.00,1.39
7283.00,1.39
7282.00,1.39
7281.00,1.39
7280.00,1.39
7279.00,1.39
7278.00,1.39
7277.00,1.39
7276.00,1.39
7275.00,1.39
7274.00,1.38
7273.00,1.38
7272.00,1.38
7271.00,1.38
7270.00,1.38
7269.00,1.38
7268.00,1.38
7267.00,1.38
7266.00,1.37
7265.00,1.37
7264.00,1.37
7263.00,1.37
7262.00,1.37
7261.00,1.37
7260.00,1.37
7259.00,1.36
7258.00,1.36
7257.00,1.36
7256.00,1.36
7255.00,1.36
7254.00,1.36
7253.00,1.35
7252.00,1.35
7251.00,1.35
7250.00,1.35
7249.00,1.34
7248.00,1.34
7247.00,1.34
7246.00,1.33
7245.00,1.33
7244.00,1.33
7243.00,1.32
7242.00,1.32
7241.00,1.32
7240.00,1.31
7239.00,1.31
7238.00,1.30
7237.00,1.30
7236.00,1.29
7235.00,1.29
7234.00,1.28
7233.00,1.28
7232.00,1.27
7231.00,1.27
7230.00,1.27
7229.00,1.26
7228.00,1.26
7227.00,1.25
7226.00,1.25
7225.00,1.24
7224.00,1.24
7223.00,1.24
7222.00,1.23
7221.00,1.23
7220.00,1.22
7219.00,1.22
7218.00,1.22
7217.00,1.21
7216.00,1.21
7215.00,1.20
7214.00,1.20
7213.00,1.20
7212.00,1.19
7211.00,1.19
7210.00,1.18
7209.00,1.18
7208.00,1.17
7207.00,1.17
7206.00,1.16
7205.00,1.16
7204.00,1.15
7203.00,1.15
7202.00,1.14
7201.00,1.14
7200.00,1.14
7199.00,1.13
7198.00,1.13
7197.00,1.12
7196.00,1.12
7195.00,1.11
7194.00,1.11
7193.00,1.10
7192.00,1.10
7191.00,1.09
7190.00,1.09
7189.00,1.08
7188.00,1.08
7187.00,1.07
7186.00,1.07
7185.00,1.06
7184.00,1.06
7183.00,1.06
7182.00,1.05
7181.00,1.05
7180.00,1.05
7179.00,1.04
7178.00,1.04
7177.00,1.04
7176.00,1.03
7175.00,1.03
7174.00,1.03
7173.00,1.03
7172.00,1.02
7171.00,1.02
7170.00,1.02
7169.00,1.01
7168.00,1.01
7167.00,1.01
7166.00,1.00
7165.00,1.00
7164.00,0.99
7163.00,0.99
7162.00,0.99
7161.00,0.98
7160.00,0.98
7159.00,0.97
7158.00,0.97
7157.00,0.97
7156.00,0.96
7155.00,0.96
7154.00,0.95
7153.00,0.95
7152.00,0.94
7151.00,0.94
7150.00,0.94
7149.00,0.93
7148.00,0.93
7147.00,0.92
7146.00,0.92
7145.00,0.91
7144.00,0.91
7143.00,0.91
7142.00,0.90
7141.00,0.90
7140.00,0.90
7139.00,0.89
7138.00,0.89
7137.00,0.89
7136.00,0.89
7135.00,0.88
7134.00,0.88
7133.00,0.88
7132.00,0.87
7131.00,0.87
7130.00,0.87
7129.00,0.87
7128.00,0.86
7127.00,0.86
7126.00,0.85
7125.00,0.85
7124.00,0.85
7123.00,0.84
7122.00,0.84
7121.00,0.84
7120.00,0.83
7119.00,0.83
7118.00,0.83
7117.00,0.82
7116.00,0.82
7115.00,0.81
7114.00,0.81
7113.00,0.81
7112.00,0.80
7111.00,0.80
7110.00,0.80
7109.00,0.80
7108.00,0.79
7107.00,0.79
7106.00,0.79
7105.00,0.78
7104.00,0.78
7103.00,0.78
7102.00,0.78
7101.00,0.77
7100.00,0.77
7099.00,0.77
7098.00,0.77
7097.00,0.76
7096.00,0.76
7095.00,0.76
7094.00,0.75
7093.00,0.75
7092.00,0.75
7091.00,0.75
7090.00,0.74
7089.00,0.74
7088.00,0.74
7087.00,0.74
7086.00,0.73
7085.00,0.73
7084.00,0.73
7083.00,0.73
7082.00,0.72
7081.00,0.72
7080.00,0.72
7079.00,0.72
7078.00,0.71
7077.00,0.71
7076.00,0.71
7075.00,0.71
7074.00,0.70
7073.00,0.70
7072.00,0.70
7071.00,0.70
7070.00,0.70
7069.00,0.70
7068.00,0.69
7067.00,0.69
7066.00,0.69
7065.00,0.69
7064.00,0.69
7063.00,0.68
7062.00,0.68
7061.00,0.68
7060.00,0.68
7059.00,0.68
7058.00,0.67
7057.00,0.67
7056.00,0.67
7055.00,0.67
7054.00,0.67
7053.00,0.66
7052.00,0.66
7051.00,0.66
7050.00,0.66
7049.00,0.66
7048.00,0.66
7047.00,0.66
7046.00,0.65
7045.00,0.65
7044.00,0.65
7043.00,0.65
7042.00,0.65
7041.00,0.65
7040.00,0.64
7039.00,0.64
7038.00,0.64
7037.00,0.64
7036.00,0.64
7035.00,0.63
7034.00,0.63
7033.00,0.63
7032.00,0.63
7031.00,0.63
7030.00,0.62
7029.00,0.62
7028.00,0.62
7027.00,0.62
7026.00,0.62
7025.00,0.62
7024.00,0.62
7023.00,0.61
7022.00,0.61
7021.00,0.61
7020.00,0.61
7019.00,0.61
7018.00,0.61
7017.00,0.61
7016.00,0.61
7015.00,0.61
7014.00,0.61
7013.00,0.60
7012.00,0.60
7011.00,0.60
7010.00,0.60
7009.00,0.60
7008.00,0.60
7007.00,0.60
7006.00,0.60
7005.00,0.60
7004.00,0.59
7003.00,0.59
7002.00,0.59
7001.00,0.59
7000.00,0.59
6999.00,0.59
6998.00,0.59
6997.00,0.59
6996.00,0.59
6995.00,0.59
6994.00,0.58
6993.00,0.58
6992.00,0.58
6991.00,0.58
6990.00,0.58
6989.00,0.58
6988.00,0.58
6987.00,0.58
6986.00,0.58
6985.00,0.58
6984.00,0.58
6983.00,0.58
6982.00,0.58
6981.00,0.58
6980.00,0.58
6979.00,0.58
6978.00,0.58
6977.00,0.58
6976.00,0.58
6975.00,0.57
6974.00,0.57
6973.00,0.57
6972.00,0.57
6971.00,0.57
6970.00,0.57
6969.00,0.57
6968.00,0.57
6967.00,0.56
6966.00,0.56
6965.00,0.56
6964.00,0.56
6963.00,0.56
6962.00,0.56
6961.00,0.56
6960.00,0.56
6959.00,0.56
6958.00,0.56
6957.00,0.56
6956.00,0.55
6955.00,0.55
6954.00,0.55
6953.00,0.55
6952.00,0.55
6951.00,0.55
6950.00,0.55
6949.00,0.55
6948.00,0.55
6947.00,0.55
6946.00,0.55
6945.00,0.55
6944.00,0.55
6943.00,0.55
6942.00,0.55
6941.00,0.55
6940.00,0.55
6939.00,0.55
6938.00,0.55
6937.00,0.55
6936.00,0.55
6935.00,0.55
6934.00,0.55
6933.00,0.55
6932.00,0.55
6931.00,0.55
6930.00,0.54
6929.00,0.54
6928.00,0.54
6927.00,0.54
6926.00,0.54
6925.00,0.54
6924.00,0.54
6923.00,0.54
6922.00,0.54
6921.00,0.54
6920.00,0.54
6919.00,0.54
6918.00,0.54
6917.00,0.54
6916.00,0.54
6915.00,0.54
6914.00,0.54
6913.00,0.54
6912.00,0.54
6911.00,0.54
6910.00,0.54
6909.00,0.53
6908.00,0.53
6907.00,0.53
6906.00,0.53
6905.00,0.53
6904.00,0.53
6903.00,0.53
6902.00,0.53
6901.00,0.53
6900.00,0.53
6899.00,0.53
6898.00,0.53
6897.00,0.53
6896.00,0.53
6895.00,0.53
6894.00,0.53
6893.00,0.53
6892.00,0.53
6891.00,0.53
6890.00,0.53
6889.00,0.52
6888.00,0.52
6887.00,0.52
6886.00,0.52
6885.00,0.52
6884.00,0.52
6883.00,0.52
6882.00,0.52
6881.00,0.52
6880.00,0.52
6879.00,0.52
6878.00,0.52
6877.00,0.52
6876.00,0.52
6875.00,0.52
6874.00,0.52
6873.00,0.52
6872.00,0.52
6871.00,0.52
6870.00,0.52
6869.00,0.53
6868.00,0.53
6867.00,0.53
6866.00,0.53
6865.00,0.52
6864.00,0.52
6863.00,0.52
6862.00,0.52
6861.00,0.52
6860.00,0.52
6859.00,0.52
6858.00,0.52
6857.00,0.52
6856.00,0.52
6855.00,0.52
6854.00,0.52
6853.00,0.52
6852.00,0.52
6851.00,0.52
6850.00,0.52
6849.00,0.52
6848.00,0.52
6847.00,0.53
6846.00,0.53
6845.00,0.53
6844.00,0.53
6843.00,0.53
6842.00,0.53
6841.00,0.53
6840.00,0.53
6839.00,0.53
6838.00,0.53
6837.00,0.53
6836.00,0.53
6835.00,0.53
6834.00,0.53
6833.00,0.53
6832.00,0.53
6831.00,0.54
6830.00,0.54
6829.00,0.54
6828.00,0.54
6827.00,0.54
6826.00,0.54
6825.00,0.54
6824.00,0.54
6823.00,0.54
6822.00,0.54
6821.00,0.54
6820.00,0.54
6819.00,0.54
6818.00,0.54
6817.00,0.54
6816.00,0.54
6815.00,0.54
6814.00,0.54
6813.00,0.54
6812.00,0.54
6811.00,0.54
6810.00,0.54
6809.00,0.54
6808.00,0.54
6807.00,0.54
6806.00,0.54
6805.00,0.54
6804.00,0.54
6803.00,0.55
6802.00,0.55
6801.00,0.55
6800.00,0.55
6799.00,0.55
6798.00,0.55
6797.00,0.55
6796.00,0.55
6795.00,0.55
6794.00,0.55
6793.00,0.55
6792.00,0.55
6791.00,0.55
6790.00,0.55
6789.00,0.55
6788.00,0.55
6787.00,0.55
6786.00,0.55
6785.00,0.55
6784.00,0.56
6783.00,0.56
6782.00,0.56
6781.00,0.56
6780.00,0.56
6779.00,0.56
6778.00,0.56
6777.00,0.56
6776.00,0.56
6775.00,0.56
6774.00,0.57
6773.00,0.57
6772.00,0.57
6771.00,0.57
6770.00,0.57
6769.00,0.57
6768.00,0.57
6767.00,0.57
6766.00,0.57
6765.00,0.57
6764.00,0.57
6763.00,0.57
6762.00,0.57
6761.00,0.57
6760.00,0.57
6759.00,0.57
6758.00,0.57
6757.00,0.57
6756.00,0.57
6755.00,0.58
6754.00,0.58
6753.00,0.58
6752.00,0.58
6751.00,0.58
6750.00,0.58
6749.00,0.58
6748.00,0.58
6747.00,0.58
6746.00,0.58
6745.00,0.58
6744.00,0.58
6743.00,0.58
6742.00,0.58
6741.00,0.58
6740.00,0.58
6739.00,0.58
6738.00,0.58
6737.00,0.58
6736.00,0.58
6735.00,0.58
6734.00,0.59
6733.00,0.59
6732.00,0.59
6731.00,0.59
6730.00,0.59
6729.00,0.59
6728.00,0.59
6727.00,0.60
6726.00,0.60
6725.00,0.60
6724.00,0.60
6723.00,0.60
6722.00,0.60
6721.00,0.61
6720.00,0.61
6719.00,0.61
6718.00,0.61
6717.00,0.61
6716.00,0.61
6715.00,0.61
6714.00,0.62
6713.00,0.62
6712.00,0.62
6711.00,0.62
6710.00,0.62
6709.00,0.62
6708.00,0.62
6707.00,0.62
6706.00,0.62
6705.00,0.62
6704.00,0.62
6703.00,0.62
6702.00,0.62
6701.00,0.62
6700.00,0.63
6699.00,0.63
6698.00,0.63
6697.00,0.63
6696.00,0.63
6695.00,0.63
6694.00,0.63
6693.00,0.63
6692.00,0.63
6691.00,0.63
6690.00,0.63
6689.00,0.64
6688.00,0.64
6687.00,0.64
6686.00,0.64
6685.00,0.64
6684.00,0.64
6683.00,0.64
6682.00,0.65
6681.00,0.65
6680.00,0.65
6679.00,0.65
6678.00,0.65
6677.00,0.65
6676.00,0.66
6675.00,0.66
6674.00,0.66
6673.00,0.66
6672.00,0.66
6671.00,0.66
6670.00,0.66
6669.00,0.67
6668.00,0.67
6667.00,0.67
6666.00,0.67
6665.00,0.67
6664.00,0.67
6663.00,0.67
6662.00,0.67
6661.00,0.67
6660.00,0.68
6659.00,0.68
6658.00,0.68
6657.00,0.68
6656.00,0.68
6655.00,0.68
6654.00,0.68
6653.00,0.68
6652.00,0.68
6651.00,0.68
6650.00,0.69
6649.00,0.69
6648.00,0.69
6647.00,0.69
6646.00,0.69
6645.00,0.69
6644.00,0.69
6643.00,0.69
6642.00,0.69
6641.00,0.70
6640.00,0.70
6639.00,0.70
6638.00,0.70
6637.00,0.70
6636.00,0.70
6635.00,0.70
6634.00,0.70
6633.00,0.70
6632.00,0.70
6631.00,0.71
6630.00,0.71
6629.00,0.71
6628.00,0.71
6627.00,0.71
6626.00,0.71
6625.00,0.71
6624.00,0.71
6623.00,0.71
6622.00,0.72
6621.00,0.72
6620.00,0.72
6619.00,0.72
6618.00,0.72
6617.00,0.72
6616.00,0.72
6615.00,0.72
6614.00,0.72
6613.00,0.73
6612.00,0.73
6611.00,0.73
6610.00,0.73
6609.00,0.73
6608.00,0.73
6607.00,0.73
6606.00,0.73
6605.00,0.74
6604.00,0.74
6603.00,0.74
6602.00,0.74
6601.00,0.74
6600.00,0.74
6599.00,0.74
6598.00,0.75
6597.00,0.75
6596.00,0.75
6595.00,0.75
6594.00,0.75
6593.00,0.75
6592.00,0.75
6591.00,0.76
6590.00,0.76
6589.00,0.76
6588.00,0.76
6587.00,0.76
6586.00,0.76
6585.00,0.76
6584.00,0.77
6583.00,0.77
6582.00,0.77
6581.00,0.77
6580.00,0.77
6579.00,0.77
6578.00,0.77
6577.00,0.77
6576.00,0.78
6575.00,0.78
6574.00,0.78
6573.00,0.78
6572.00,0.78
6571.00,0.78
6570.00,0.78
6569.00,0.78
6568.00,0.78
6567.00,0.78
6566.00,0.78
6565.00,0.78
6564.00,0.78
6563.00,0.78
6562.00,0.78
6561.00,0.79
6560.00,0.79
6559.00,0.79
6558.00,0.79
6557.00,0.79
6556.00,0.79
6555.00,0.79
6554.00,0.79
6553.00,0.80
6552.00,0.80
6551.00,0.80
6550.00,0.80
6549.00,0.80
6548.00,0.80
6547.00,0.80
6546.00,0.81
6545.00,0.81
6544.00,0.81
6543.00,0.81
6542.00,0.81
6541.00,0.81
6540.00,0.81
6539.00,0.81
6538.00,0.82
6537.00,0.82
6536.00,0.82
6535.00,0.82
6534.00,0.82
6533.00,0.82
6532.00,0.82
6531.00,0.82
6530.00,0.83
6529.00,0.83
6528.00,0.83
6527.00,0.83
6526.00,0.83
6525.00,0.83
6524.00,0.83
6523.00,0.83
6522.00,0.84
6521.00,0.84
6520.00,0.84
6519.00,0.84
6518.00,0.84
6517.00,0.84
6516.00,0.84
6515.00,0.84
6514.00,0.84
6513.00,0.85
6512.00,0.85
6511.00,0.85
6510.00,0.85
6509.00,0.85
6508.00,0.85
6507.00,0.85
6506.00,0.85
6505.00,0.85
6504.00,0.85
6503.00,0.85
6502.00,0.85
6501.00,0.85
6500.00,0.86
6499.00,0.86
6498.00,0.86
6497.00,0.86
6496.00,0.86
6495.00,0.86
6494.00,0.86
6493.00,0.86
6492.00,0.86
6491.00,0.86
6490.00,0.86
6489.00,0.86
6488.00,0.87
6487.00,0.87
6486.00,0.87
6485.00,0.87
6484.00,0.87
6483.00,0.87
6482.00,0.87
6481.00,0.87
6480.00,0.87
6479.00,0.87
6478.00,0.87
6477.00,0.87
6476.00,0.87
6475.00,0.87
6474.00,0.88
6473.00,0.88
6472.00,0.88
6471.00,0.88
6470.00,0.88
6469.00,0.88
6468.00,0.88
6467.00,0.88
6466.00,0.88
6465.00,0.88
6464.00,0.88
6463.00,0.88
6462.00,0.88
6461.00,0.88
6460.00,0.88
6459.00,0.88
6458.00,0.89
6457.00,0.89
6456.00,0.89
6455.00,0.89
6454.00,0.89
6453.00,0.89
6452.00,0.89
6451.00,0.89
6450.00,0.89
6449.00,0.90
6448.00,0.90
6447.00,0.90
6446.00,0.90
6445.00,0.90
6444.00,0.90
6443.00,0.90
6442.00,0.90
6441.00,0.90
6440.00,0.90
6439.00,0.90
6438.00,0.91
6437.00,0.91
6436.00,0.91
6435.00,0.91
6434.00,0.91
6433.00,0.91
6432.00,0.91
6431.00,0.91
6430.00,0.91
6429.00,0.91
6428.00,0.91
6427.00,0.91
6426.00,0.92
6425.00,0.92
6424.00,0.92
6423.00,0.92
6422.00,0.92
6421.00,0.92
6420.00,0.92
6419.00,0.92
6418.00,0.92
6417.00,0.92
6416.00,0.92
6415.00,0.92
6414.00,0.92
6413.00,0.92
6412.00,0.93
6411.00,0.93
6410.00,0.93
6409.00,0.93
6408.00,0.93
6407.00,0.93
6406.00,0.93
6405.00,0.93
6404.00,0.93
6403.00,0.93
6402.00,0.93
6401.00,0.93
6400.00,0.93
6399.00,0.93
6398.00,0.93
6397.00,0.93
6396.00,0.93
6395.00,0.93
6394.00,0.93
6393.00,0.94
6392.00,0.94
6391.00,0.94
6390.00,0.94
6389.00,0.94
6388.00,0.94
6387.00,0.94
6386.00,0.94
6385.00,0.94
6384.00,0.95
6383.00,0.95
6382.00,0.95
6381.00,0.95
6380.00,0.95
6379.00,0.95
6378.00,0.95
6377.00,0.95
6376.00,0.95
6375.00,0.96
6374.00,0.96
6373.00,0.96
6372.00,0.96
6371.00,0.96
6370.00,0.96
6369.00,0.96
6368.00,0.96
6367.00,0.96
6366.00,0.96
6365.00,0.96
6364.00,0.97
6363.00,0.97
6362.00,0.97
6361.00,0.97
6360.00,0.97
6359.00,0.97
6358.00,0.97
6357.00,0.98
6356.00,0.98
6355.00,0.98
6354.00,0.98
6353.00,0.98
6352.00,0.98
6351.00,0.98
6350.00,0.98
6349.00,0.99
6348.00,0.99
6347.00,0.99
6346.00,0.99
6345.00,0.99
6344.00,0.99
6343.00,0.99
6342.00,0.99
6341.00,0.99
6340.00,0.99
6339.00,0.99
6338.00,0.99
6337.00,0.99
6336.00,1.00
6335.00,1.00
6334.00,1.00
6333.00,1.00
6332.00,1.00
6331.00,1.00
6330.00,1.00
6329.00,1.00
6328.00,1.01
6327.00,1.01
6326.00,1.01
6325.00,1.01
6324.00,1.01
6323.00,1.01
6322.00,1.01
6321.00,1.02
6320.00,1.02
6319.00,1.02
6318.00,1.02
6317.00,1.02
6316.00,1.02
6315.00,1.02
6314.00,1.03
6313.00,1.03
6312.00,1.03
6311.00,1.03
6310.00,1.03
6309.00,1.03
6308.00,1.04
6307.00,1.04
6306.00,1.04
6305.00,1.04
6304.00,1.04
6303.00,1.04
6302.00,1.05
6301.00,1.05
6300.00,1.05
6299.00,1.05
6298.00,1.05
6297.00,1.05
6296.00,1.05
6295.00,1.06
6294.00,1.06
6293.00,1.06
6292.00,1.06
6291.00,1.06
6290.00,1.06
6289.00,1.06
6288.00,1.06
6287.00,1.06
6286.00,1.07
6285.00,1.07
6284.00,1.07
6283.00,1.07
6282.00,1.07
6281.00,1.07
6280.00,1.07
6279.00,1.08
6278.00,1.08
6277.00,1.08
6276.00,1.08
6275.00,1.08
6274.00,1.08
6273.00,1.09
6272.00,1.09
6271.00,1.09
6270.00,1.09
6269.00,1.09
6268.00,1.09
6267.00,1.09
6266.00,1.10
6265.00,1.10
6264.00,1.10
6263.00,1.10
6262.00,1.10
6261.00,1.10
6260.00,1.11
6259.00,1.11
6258.00,1.11
6257.00,1.11
6256.00,1.11
6255.00,1.11
6254.00,1.11
6253.00,1.12
6252.00,1.12
6251.00,1.12
6250.00,1.12
6249.00,1.12
6248.00,1.13
6247.00,1.13
6246.00,1.13
6245.00,1.13
6244.00,1.13
6243.00,1.13
6242.00,1.14
6241.00,1.14
6240.00,1.14
6239.00,1.14
6238.00,1.15
6237.00,1.15
6236.00,1.15
6235.00,1.15
6234.00,1.15
6233.00,1.15
6232.00,1.16
6231.00,1.16
6230.00,1.16
6229.00,1.16
6228.00,1.16
6227.00,1.17
6226.00,1.17
6225.00,1.17
6224.00,1.17
6223.00,1.17
6222.00,1.17
6221.00,1.18
6220.00,1.18
6219.00,1.18
6218.00,1.18
6217.00,1.18
6216.00,1.19
6215.00,1.19
6214.00,1.19
6213.00,1.19
6212.00,1.19
6211.00,1.20
6210.00,1.20
6209.00,1.20
6208.00,1.20
6207.00,1.20
6206.00,1.20
6205.00,1.21
6204.00,1.21
6203.00,1.21
6202.00,1.21
6201.00,1.21
6200.00,1.22
6199.00,1.22
6198.00,1.22
6197.00,1.22
6196.00,1.22
6195.00,1.22
6194.00,1.23
6193.00,1.23
6192.00,1.23
6191.00,1.23
6190.00,1.23
6189.00,1.24
6188.00,1.24
6187.00,1.24
6186.00,1.24
6185.00,1.24
6184.00,1.24
6183.00,1.25
6182.00,1.25
6181.00,1.25
6180.00,1.25
6179.00,1.25
6178.00,1.26
6177.00,1.26
6176.00,1.26
6175.00,1.26
6174.00,1.26
6173.00,1.26
6172.00,1.27
6171.00,1.27
6170.00,1.27
6169.00,1.27
6168.00,1.27
6167.00,1.27
6166.00,1.28
6165.00,1.28
6164.00,1.28
6163.00,1.28
6162.00,1.28
6161.00,1.29
6160.00,1.29
6159.00,1.29
6158.00,1.29
6157.00,1.29
6156.00,1.29
6155.00,1.30
6154.00,1.30
6153.00,1.30
6152.00,1.30
6151.00,1.31
6150.00,1.31
6149.00,1.31
6148.00,1.31
6147.00,1.31
6146.00,1.32
6145.00,1.32
6144.00,1.32
6143.00,1.32
6142.00,1.33
6141.00,1.33
6140.00,1.33
6139.00,1.33
6138.00,1.33
6137.00,1.34
6136.00,1.34
6135.00,1.34
6134.00,1.34
6133.00,1.34
6132.00,1.34
6131.00,1.35
6130.00,1.35
6129.00,1.35
6128.00,1.35
6127.00,1.35
6126.00,1.36
6125.00,1.36
6124.00,1.36
6123.00,1.36
6122.00,1.36
6121.00,1.37
6120.00,1.37
6119.00,1.37
6118.00,1.37
6117.00,1.37
6116.00,1.38
6115.00,1.38
6114.00,1.38
6113.00,1.38
6112.00,1.38
6111.00,1.38
6110.00,1.39
6109.00,1.39
6108.00,1.39
6107.00,1.39
6106.00,1.39
6105.00,1.39
6104.00,1.39
6103.00,1.40
6102.00,1.40
6101.00,1.40
6100.00,1.40
6099.00,1.40
6098.00,1.40
6097.00,1.40
6096.00,1.41
6095.00,1.41
6094.00,1.41
6093.00,1.41
6092.00,1.41
6091.00,1.42
6090.00,1.42
6089.00,1.42
6088.00,1.42
6087.00,1.42
6086.00,1.43
6085.00,1.43
6084.00,1.43
6083.00,1.43
6082.00,1.43
6081.00,1.44
6080.00,1.44
6079.00,1.44
6078.00,1.44
6077.00,1.45
6076.00,1.45
6075.00,1.45
6074.00,1.45
6073.00,1.46
6072.00,1.46
6071.00,1.46
6070.00,1.46
6069.00,1.47
6068.00,1.47
6067.00,1.47
6066.00,1.47
6065.00,1.47
6064.00,1.48
6063.00,1.48
6062.00,1.48
6061.00,1.48
6060.00,1.48
6059.00,1.48
6058.00,1.48
6057.00,1.49
6056.00,1.49
6055.00,1.49
6054.00,1.49
6053.00,1.49
6052.00,1.49
6051.00,1.49
6050.00,1.49
6049.00,1.49
6048.00,1.49
6047.00,1.49
6046.00,1.49
6045.00,1.49
6044.00,1.49
6043.00,1.50
6042.00,1.50
6041.00,1.50
6040.00,1.50
6039.00,1.50
6038.00,1.50
6037.00,1.50
6036.00,1.50
6035.00,1.50
6034.00,1.50
6033.00,1.50
6032.00,1.51
6031.00,1.51
6030.00,1.51
6029.00,1.51
6028.00,1.51
6027.00,1.51
6026.00,1.51
6025.00,1.51
6024.00,1.51
6023.00,1.51
6022.00,1.51
6021.00,1.52
6020.00,1.52
6019.00,1.52
6018.00,1.52
6017.00,1.52
6016.00,1.52
6015.00,1.52
6014.00,1.52
6013.00,1.52
6012.00,1.52
6011.00,1.52
6010.00,1.52
6009.00,1.52
6008.00,1.52
6007.00,1.52
6006.00,1.52
6005.00,1.51
6004.00,1.51
6003.00,1.51
6002.00,1.51
6001.00,1.51
6000.00,1.51
5999.00,1.51
5998.00,1.51
5997.00,1.51
5996.00,1.50
5995.00,1.50
5994.00,1.50
5993.00,1.50
5992.00,1.50
5991.00,1.50
5990.00,1.49
5989.00,1.49
5988.00,1.49
5987.00,1.48
5986.00,1.48
5985.00,1.48
5984.00,1.47
5983.00,1.47
5982.00,1.47
5981.00,1.46
5980.00,1.46
5979.00,1.45
5978.00,1.45
5977.00,1.44
5976.00,1.43
5975.00,1.43
5974.00,1.42
5973.00,1.41
5972.00,1.41
5971.00,1.40
5970.00,1.39
5969.00,1.38
5968.00,1.37
5967.00,1.37
5966.00,1.36
5965.00,1.35
5964.00,1.34
5963.00,1.33
5962.00,1.32
5961.00,1.31
5960.00,1.30
5959.00,1.29
5958.00,1.28
5957.00,1.27
5956.00,1.26
5955.00,1.25
5954.00,1.24
5953.00,1.24
5952.00,1.23
5951.00,1.22
5950.00,1.21
5949.00,1.21
5948.00,1.20
5947.00,1.19
5946.00,1.19
5945.00,1.18
5944.00,1.18
5943.00,1.17
5942.00,1.17
5941.00,1.17
5940.00,1.16
5939.00,1.16
5938.00,1.16
5937.00,1.16
5936.00,1.16
5935.00,1.15
5934.00,1.15
5933.00,1.15
5932.00,1.15
5931.00,1.15
5930.00,1.15
5929.00,1.15
5928.00,1.15
5927.00,1.14
5926.00,1.14
5925.00,1.14
5924.00,1.14
5923.00,1.13
5922.00,1.13
5921.00,1.13
5920.00,1.12
5919.00,1.12
5918.00,1.12
5917.00,1.11
5916.00,1.11
5915.00,1.10
5914.00,1.10
5913.00,1.10
5912.00,1.09
5911.00,1.09
5910.00,1.09
5909.00,1.08
5908.00,1.08
5907.00,1.08
5906.00,1.08
5905.00,1.07
5904.00,1.07
5903.00,1.07
5902.00,1.07
5901.00,1.07
5900.00,1.07
5899.00,1.07
5898.00,1.07
5897.00,1.07
5896.00,1.07
5895.00,1.08
5894.00,1.08
5893.00,1.08
5892.00,1.08
5891.00,1.09
5890.00,1.09
5889.00,1.09
5888.00,1.10
5887.00,1.10
5886.00,1.10
5885.00,1.11
5884.00,1.11
5883.00,1.11
5882.00,1.12
5881.00,1.12
5880.00,1.12
5879.00,1.13
5878.00,1.13
5877.00,1.13
5876.00,1.14
5875.00,1.14
5874.00,1.14
5873.00,1.14
5872.00,1.15
5871.00,1.15
5870.00,1.15
5869.00,1.16
5868.00,1.16
5867.00,1.16
5866.00,1.16
5865.00,1.17
5864.00,1.17
5863.00,1.17
5862.00,1.17
5861.00,1.17
5860.00,1.18
5859.00,1.18
5858.00,1.18
5857.00,1.18
5856.00,1.18
5855.00,1.19
5854.00,1.19
5853.00,1.19
5852.00,1.19
5851.00,1.19
5850.00,1.19
5849.00,1.19
5848.00,1.19
5847.00,1.19
5846.00,1.19
5845.00,1.19
5844.00,1.19
5843.00,1.19
5842.00,1.19
5841.00,1.19
5840.00,1.19
5839.00,1.19
5838.00,1.19
5837.00,1.19
5836.00,1.19
5835.00,1.19
5834.00,1.19
5833.00,1.19
5832.00,1.19
5831.00,1.19
5830.00,1.19
5829.00,1.19
5828.00,1.19
5827.00,1.19
5826.00,1.19
5825.00,1.19
5824.00,1.19
5823.00,1.19
5822.00,1.19
5821.00,1.19
5820.00,1.19
5819.00,1.19
5818.00,1.19
5817.00,1.19
5816.00,1.19
5815.00,1.19
5814.00,1.19
5813.00,1.19
5812.00,1.19
5811.00,1.19
5810.00,1.19
5809.00,1.19
5808.00,1.19
5807.00,1.19
5806.00,1.19
5805.00,1.19
5804.00,1.19
5803.00,1.19
5802.00,1.19
5801.00,1.18
5800.00,1.18
5799.00,1.18
5798.00,1.18
5797.00,1.18
5796.00,1.18
5795.00,1.17
5794.00,1.17
5793.00,1.17
5792.00,1.16
5791.00,1.16
5790.00,1.16
5789.00,1.16
5788.00,1.15
5787.00,1.15
5786.00,1.15
5785.00,1.14
5784.00,1.14
5783.00,1.14
5782.00,1.14
5781.00,1.13
5780.00,1.13
5779.00,1.13
5778.00,1.13
5777.00,1.13
5776.00,1.13
5775.00,1.13
5774.00,1.13
5773.00,1.13
5772.00,1.13
5771.00,1.13
5770.00,1.13
5769.00,1.13
5768.00,1.13
5767.00,1.14
5766.00,1.14
5765.00,1.14
5764.00,1.14
5763.00,1.14
5762.00,1.15
5761.00,1.15
5760.00,1.15
5759.00,1.16
5758.00,1.16
5757.00,1.16
5756.00,1.17
5755.00,1.17
5754.00,1.18
5753.00,1.18
5752.00,1.18
5751.00,1.19
5750.00,1.19
5749.00,1.20
5748.00,1.20
5747.00,1.21
5746.00,1.21
5745.00,1.22
5744.00,1.22
5743.00,1.22
5742.00,1.23
5741.00,1.23
5740.00,1.23
5739.00,1.24
5738.00,1.24
5737.00,1.25
5736.00,1.25
5735.00,1.25
5734.00,1.25
5733.00,1.26
5732.00,1.26
5731.00,1.26
5730.00,1.26
5729.00,1.27
5728.00,1.27
5727.00,1.27
5726.00,1.27
5725.00,1.27
5724.00,1.27
5723.00,1.27
5722.00,1.27
5721.00,1.27
5720.00,1.28
5719.00,1.28
5718.00,1.28
5717.00,1.28
5716.00,1.28
5715.00,1.28
5714.00,1.28
5713.00,1.28
5712.00,1.28
5711.00,1.28
5710.00,1.27
5709.00,1.27
5708.00,1.27
5707.00,1.27
5706.00,1.27
5705.00,1.27
5704.00,1.27
5703.00,1.27
5702.00,1.26
5701.00,1.26
5700.00,1.26
5699.00,1.26
5698.00,1.26
5697.00,1.26
5696.00,1.25
5695.00,1.25
5694.00,1.25
5693.00,1.25
5692.00,1.24
5691.00,1.24
5690.00,1.24
5689.00,1.24
5688.00,1.24
5687.00,1.23
5686.00,1.23
5685.00,1.23
5684.00,1.23
5683.00,1.23
5682.00,1.23
5681.00,1.22
5680.00,1.22
5679.00,1.22
5678.00,1.22
5677.00,1.22
5676.00,1.22
5675.00,1.22
5674.00,1.22
5673.00,1.22
5672.00,1.22
5671.00,1.22
5670.00,1.22
5669.00,1.23
5668.00,1.23
5667.00,1.23
5666.00,1.23
5665.00,1.23
5664.00,1.23
5663.00,1.24
5662.00,1.24
5661.00,1.24
5660.00,1.24
5659.00,1.24
5658.00,1.25
5657.00,1.25
5656.00,1.25
5655.00,1.25
5654.00,1.26
5653.00,1.26
5652.00,1.26
5651.00,1.26
5650.00,1.27
5649.00,1.27
5648.00,1.27
5647.00,1.28
5646.00,1.28
5645.00,1.28
5644.00,1.28
5643.00,1.29
5642.00,1.29
5641.00,1.29
5640.00,1.29
5639.00,1.30
5638.00,1.30
5637.00,1.30
5636.00,1.30
5635.00,1.31
5634.00,1.31
5633.00,1.31
5632.00,1.31
5631.00,1.32
5630.00,1.32
5629.00,1.32
5628.00,1.32
5627.00,1.32
5626.00,1.33
5625.00,1.33
5624.00,1.33
5623.00,1.33
5622.00,1.33
5621.00,1.33
5620.00,1.34
5619.00,1.34
5618.00,1.34
5617.00,1.34
5616.00,1.35
5615.00,1.35
5614.00,1.35
5613.00,1.35
5612.00,1.35
5611.00,1.36
5610.00,1.36
5609.00,1.36
5608.00,1.36
5607.00,1.37
5606.00,1.37
5605.00,1.37
5604.00,1.38
5603.00,1.38
5602.00,1.38
5601.00,1.38
5600.00,1.39
5599.00,1.39
5598.00,1.39
5597.00,1.40
5596.00,1.40
5595.00,1.40
5594.00,1.40
5593.00,1.41
5592.00,1.41
5591.00,1.41
5590.00,1.41
5589.00,1.41
5588.00,1.42
5587.00,1.42
5586.00,1.42
5585.00,1.42
5584.00,1.42
5583.00,1.43
5582.00,1.43
5581.00,1.43
5580.00,1.43
5579.00,1.43
5578.00,1.43
5577.00,1.44
5576.00,1.44
5575.00,1.44
5574.00,1.44
5573.00,1.44
5572.00,1.44
5571.00,1.45
5570.00,1.45
5569.00,1.45
5568.00,1.45
5567.00,1.45
5566.00,1.46
5565.00,1.46
5564.00,1.46
5563.00,1.46
5562.00,1.46
5561.00,1.47
5560.00,1.47
5559.00,1.47
5558.00,1.47
5557.00,1.48
5556.00,1.48
5555.00,1.48
5554.00,1.48
5553.00,1.48
5552.00,1.49
5551.00,1.49
5550.00,1.49
5549.00,1.49
5548.00,1.49
5547.00,1.50
5546.00,1.50
5545.00,1.50
5544.00,1.50
5543.00,1.50
5542.00,1.51
5541.00,1.51
5540.00,1.51
5539.00,1.51
5538.00,1.51
5537.00,1.52
5536.00,1.52
5535.00,1.52
5534.00,1.52
5533.00,1.52
5532.00,1.52
5531.00,1.52
5530.00,1.53
5529.00,1.53
5528.00,1.53
5527.00,1.53
5526.00,1.53
5525.00,1.53
5524.00,1.53
5523.00,1.53
5522.00,1.53
5521.00,1.54
5520.00,1.54
5519.00,1.54
5518.00,1.54
5517.00,1.54
5516.00,1.54
5515.00,1.54
5514.00,1.54
5513.00,1.54
5512.00,1.54
5511.00,1.54
5510.00,1.54
5509.00,1.54
5508.00,1.54
5507.00,1.54
5506.00,1.54
5505.00,1.55
5504.00,1.55
5503.00,1.55
5502.00,1.55
5501.00,1.55
5500.00,1.55
5499.00,1.55
5498.00,1.55
5497.00,1.55
5496.00,1.55
5495.00,1.55
5494.00,1.56
5493.00,1.56
5492.00,1.56
5491.00,1.56
5490.00,1.56
5489.00,1.56
5488.00,1.57
5487.00,1.57
5486.00,1.57
5485.00,1.57
5484.00,1.57
5483.00,1.58
5482.00,1.58
5481.00,1.58
5480.00,1.58
5479.00,1.58
5478.00,1.58
5477.00,1.59
5476.00,1.59
5475.00,1.59
5474.00,1.59
5473.00,1.59
5472.00,1.59
5471.00,1.60
5470.00,1.60
5469.00,1.60
5468.00,1.60
5467.00,1.60
5466.00,1.60
5465.00,1.61
5464.00,1.61
5463.00,1.61
5462.00,1.61
5461.00,1.61
5460.00,1.62
5459.00,1.62
5458.00,1.62
5457.00,1.62
5456.00,1.62
5455.00,1.62
5454.00,1.62
5453.00,1.62
5452.00,1.63
5451.00,1.63
5450.00,1.63
5449.00,1.63
5448.00,1.63
5447.00,1.63
5446.00,1.63
5445.00,1.63
5444.00,1.63
5443.00,1.63
5442.00,1.63
5441.00,1.63
5440.00,1.63
5439.00,1.63
5438.00,1.63
5437.00,1.63
5436.00,1.63
5435.00,1.63
5434.00,1.63
5433.00,1.63
5432.00,1.63
5431.00,1.64
5430.00,1.64
5429.00,1.64
5428.00,1.64
5427.00,1.64
5426.00,1.64
5425.00,1.64
5424.00,1.64
5423.00,1.64
5422.00,1.64
5421.00,1.64
5420.00,1.64
5419.00,1.64
5418.00,1.64
5417.00,1.64
5416.00,1.64
5415.00,1.64
5414.00,1.64
5413.00,1.64
5412.00,1.64
5411.00,1.64
5410.00,1.64
5409.00,1.64
5408.00,1.64
5407.00,1.64
5406.00,1.64
5405.00,1.64
5404.00,1.64
5403.00,1.64
5402.00,1.64
5401.00,1.64
5400.00,1.64
5399.00,1.64
5398.00,1.64
5397.00,1.64
5396.00,1.63
5395.00,1.63
5394.00,1.63
5393.00,1.63
5392.00,1.63
5391.00,1.62
5390.00,1.62
5389.00,1.62
5388.00,1.62
5387.00,1.61
5386.00,1.61
5385.00,1.61
5384.00,1.60
5383.00,1.60
5382.00,1.60
5381.00,1.59
5380.00,1.59
5379.00,1.59
5378.00,1.58
5377.00,1.58
5376.00,1.57
5375.00,1.57
5374.00,1.56
5373.00,1.56
5372.00,1.55
5371.00,1.55
5370.00,1.54
5369.00,1.53
5368.00,1.53
5367.00,1.52
5366.00,1.51
5365.00,1.50
5364.00,1.50
5363.00,1.49
5362.00,1.48
5361.00,1.47
5360.00,1.46
5359.00,1.45
5358.00,1.44
5357.00,1.43
5356.00,1.42
5355.00,1.41
5354.00,1.40
5353.00,1.39
5352.00,1.38
5351.00,1.36
5350.00,1.35
5349.00,1.34
5348.00,1.33
5347.00,1.31
5346.00,1.30
5345.00,1.29
5344.00,1.27
5343.00,1.26
5342.00,1.25
5341.00,1.23
5340.00,1.22
5339.00,1.20
5338.00,1.19
5337.00,1.18
5336.00,1.16
5335.00,1.15
5334.00,1.13
5333.00,1.12
5332.00,1.11
5331.00,1.09
5330.00,1.08
5329.00,1.06
5328.00,1.05
5327.00,1.04
5326.00,1.02
5325.00,1.01
5324.00,0.99
5323.00,0.98
5322.00,0.97
5321.00,0.95
5320.00,0.94
5319.00,0.93
5318.00,0.91
5317.00,0.90
5316.00,0.89
5315.00,0.87
5314.00,0.86
5313.00,0.85
5312.00,0.84
5311.00,0.82
5310.00,0.81
5309.00,0.80
5308.00,0.79
5307.00,0.78
5306.00,0.77
5305.00,0.76
5304.00,0.75
5303.00,0.74
5302.00,0.74
5301.00,0.73
5300.00,0.72
5299.00,0.71
5298.00,0.71
5297.00,0.70
5296.00,0.69
5295.00,0.69
5294.00,0.68
5293.00,0.68
5292.00,0.67
5291.00,0.67
5290.00,0.66
5289.00,0.66
5288.00,0.65
5287.00,0.65
5286.00,0.65
5285.00,0.64
5284.00,0.64
5283.00,0.64
5282.00,0.64
5281.00,0.63
5280.00,0.63
5279.00,0.63
5278.00,0.63
5277.00,0.63
5276.00,0.63
5275.00,0.63
5274.00,0.63
5273.00,0.62
5272.00,0.62
5271.00,0.62
5270.00,0.62
5269.00,0.62
5268.00,0.62
5267.00,0.62
5266.00,0.62
5265.00,0.62
5264.00,0.62
5263.00,0.61
5262.00,0.61
5261.00,0.61
5260.00,0.61
5259.00,0.61
5258.00,0.61
5257.00,0.61
5256.00,0.61
5255.00,0.61
5254.00,0.61
5253.00,0.61
5252.00,0.60
5251.00,0.60
5250.00,0.60
5249.00,0.60
5248.00,0.60
5247.00,0.60
5246.00,0.60
5245.00,0.60
5244.00,0.60
5243.00,0.60
5242.00,0.60
5241.00,0.60
5240.00,0.60
5239.00,0.60
5238.00,0.60
5237.00,0.60
5236.00,0.60
5235.00,0.60
5234.00,0.60
5233.00,0.60
5232.00,0.60
5231.00,0.60
5230.00,0.60
5229.00,0.60
5228.00,0.60
5227.00,0.60
5226.00,0.60
5225.00,0.60
5224.00,0.60
5223.00,0.60
5222.00,0.60
5221.00,0.60
5220.00,0.60
5219.00,0.60
5218.00,0.60
5217.00,0.60
5216.00,0.60
5215.00,0.60
5214.00,0.60
5213.00,0.60
5212.00,0.60
5211.00,0.60
5210.00,0.60
5209.00,0.60
5208.00,0.60
5207.00,0.60
5206.00,0.60
5205.00,0.61
5204.00,0.61
5203.00,0.61
5202.00,0.61
5201.00,0.61
5200.00,0.61
5199.00,0.61
5198.00,0.61
5197.00,0.61
5196.00,0.61
5195.00,0.61
5194.00,0.61
5193.00,0.61
5192.00,0.62
5191.00,0.62
5190.00,0.62
5189.00,0.62
5188.00,0.62
5187.00,0.62
5186.00,0.62
5185.00,0.62
5184.00,0.63
5183.00,0.63
5182.00,0.63
5181.00,0.63
5180.00,0.63
5179.00,0.63
5178.00,0.63
5177.00,0.63
5176.00,0.63
5175.00,0.63
5174.00,0.63
5173.00,0.63
5172.00,0.63
5171.00,0.63
5170.00,0.63
5169.00,0.63
5168.00,0.63
5167.00,0.63
5166.00,0.63
5165.00,0.63
5164.00,0.64
5163.00,0.64
5162.00,0.64
5161.00,0.64
5160.00,0.64
5159.00,0.64
5158.00,0.64
5157.00,0.64
5156.00,0.64
5155.00,0.64
5154.00,0.64
5153.00,0.64
5152.00,0.64
5151.00,0.64
5150.00,0.64
5149.00,0.64
5148.00,0.64
5147.00,0.65
5146.00,0.65
5145.00,0.65
5144.00,0.65
5143.00,0.65
5142.00,0.65
5141.00,0.65
5140.00,0.65
5139.00,0.65
5138.00,0.65
5137.00,0.65
5136.00,0.66
5135.00,0.66
5134.00,0.66
5133.00,0.66
5132.00,0.66
5131.00,0.66
5130.00,0.66
5129.00,0.66
5128.00,0.66
5127.00,0.66
5126.00,0.66
5125.00,0.66
5124.00,0.66
5123.00,0.66
5122.00,0.66
5121.00,0.66
5120.00,0.66
5119.00,0.66
5118.00,0.66
5117.00,0.66
5116.00,0.66
5115.00,0.66
5114.00,0.66
5113.00,0.67
5112.00,0.67
5111.00,0.67
5110.00,0.67
5109.00,0.67
5108.00,0.67
5107.00,0.67
5106.00,0.67
5105.00,0.67
5104.00,0.67
5103.00,0.67
5102.00,0.67
5101.00,0.67
5100.00,0.67
5099.00,0.67
5098.00,0.68
5097.00,0.68
5096.00,0.68
5095.00,0.68
5094.00,0.68
5093.00,0.68
5092.00,0.68
5091.00,0.68
5090.00,0.68
5089.00,0.68
5088.00,0.68
5087.00,0.68
5086.00,0.68
5085.00,0.68
5084.00,0.69
5083.00,0.69
5082.00,0.69
5081.00,0.69
5080.00,0.69
5079.00,0.69
5078.00,0.69
5077.00,0.69
5076.00,0.69
5075.00,0.69
5074.00,0.70
5073.00,0.70
5072.00,0.70
5071.00,0.70
5070.00,0.70
5069.00,0.70
5068.00,0.70
5067.00,0.70
5066.00,0.70
5065.00,0.70
5064.00,0.70
5063.00,0.70
5062.00,0.70
5061.00,0.70
5060.00,0.70
5059.00,0.70
5058.00,0.70
5057.00,0.70
5056.00,0.71
5055.00,0.71
5054.00,0.71
5053.00,0.71
5052.00,0.71
5051.00,0.71
5050.00,0.71
5049.00,0.71
5048.00,0.71
5047.00,0.71
5046.00,0.71
5045.00,0.71
5044.00,0.72
5043.00,0.72
5042.00,0.72
5041.00,0.72
5040.00,0.72
5039.00,0.72
5038.00,0.72
5037.00,0.72
5036.00,0.73
5035.00,0.73
5034.00,0.73
5033.00,0.73
5032.00,0.73
5031.00,0.73
5030.00,0.74
5029.00,0.74
5028.00,0.74
5027.00,0.74
5026.00,0.74
5025.00,0.74
5024.00,0.74
5023.00,0.74
5022.00,0.75
5021.00,0.75
5020.00,0.75
5019.00,0.75
5018.00,0.75
5017.00,0.75
5016.00,0.75
5015.00,0.75
5014.00,0.75
5013.00,0.75
5012.00,0.76
5011.00,0.76
5010.00,0.76
5009.00,0.76
5008.00,0.76
5007.00,0.76
5006.00,0.76
5005.00,0.76
5004.00,0.76
5003.00,0.77
5002.00,0.77
5001.00,0.77
5000.00,0.77
4999.00,0.77
4998.00,0.77
4997.00,0.77
4996.00,0.77
4995.00,0.77
4994.00,0.78
4993.00,0.78
4992.00,0.78
4991.00,0.78
4990.00,0.78
4989.00,0.78
4988.00,0.78
4987.00,0.78
4986.00,0.78
4985.00,0.78
4984.00,0.79
4983.00,0.79
4982.00,0.79
4981.00,0.79
4980.00,0.79
4979.00,0.79
4978.00,0.79
4977.00,0.79
4976.00,0.79
4975.00,0.80
4974.00,0.80
4973.00,0.80
4972.00,0.80
4971.00,0.80
4970.00,0.80
4969.00,0.80
4968.00,0.81
4967.00,0.81
4966.00,0.81
4965.00,0.81
4964.00,0.81
4963.00,0.81
4962.00,0.82
4961.00,0.82
4960.00,0.82
4959.00,0.82
4958.00,0.82
4957.00,0.82
4956.00,0.83
4955.00,0.83
4954.00,0.83
4953.00,0.83
4952.00,0.83
4951.00,0.83
4950.00,0.83
4949.00,0.83
4948.00,0.84
4947.00,0.84
4946.00,0.84
4945.00,0.84
4944.00,0.84
4943.00,0.84
4942.00,0.84
4941.00,0.84
4940.00,0.84
4939.00,0.84
4938.00,0.84
4937.00,0.84
4936.00,0.85
4935.00,0.85
4934.00,0.85
4933.00,0.85
4932.00,0.85
4931.00,0.85
4930.00,0.85
4929.00,0.85
4928.00,0.86
4927.00,0.86
4926.00,0.86
4925.00,0.86
4924.00,0.86
4923.00,0.86
4922.00,0.86
4921.00,0.86
4920.00,0.86
4919.00,0.87
4918.00,0.87
4917.00,0.87
4916.00,0.87
4915.00,0.87
4914.00,0.87
4913.00,0.87
4912.00,0.87
4911.00,0.87
4910.00,0.87
4909.00,0.87
4908.00,0.87
4907.00,0.87
4906.00,0.88
4905.00,0.88
4904.00,0.88
4903.00,0.88
4902.00,0.88
4901.00,0.88
4900.00,0.88
4899.00,0.88
4898.00,0.88
4897.00,0.88
4896.00,0.89
4895.00,0.89
4894.00,0.89
4893.00,0.89
4892.00,0.89
4891.00,0.89
4890.00,0.89
4889.00,0.89
4888.00,0.89
4887.00,0.89
4886.00,0.89
4885.00,0.89
4884.00,0.89
4883.00,0.90
4882.00,0.90
4881.00,0.90
4880.00,0.90
4879.00,0.90
4878.00,0.90
4877.00,0.90
4876.00,0.90
4875.00,0.90
4874.00,0.90
4873.00,0.90
4872.00,0.90
4871.00,0.90
4870.00,0.90
4869.00,0.90
4868.00,0.90
4867.00,0.90
4866.00,0.90
4865.00,0.90
4864.00,0.90
4863.00,0.91
4862.00,0.91
4861.00,0.91
4860.00,0.91
4859.00,0.91
4858.00,0.91
4857.00,0.91
4856.00,0.91
4855.00,0.92
4854.00,0.92
4853.00,0.92
4852.00,0.92
4851.00,0.92
4850.00,0.92
4849.00,0.92
4848.00,0.92
4847.00,0.93
4846.00,0.93
4845.00,0.93
4844.00,0.93
4843.00,0.93
4842.00,0.93
4841.00,0.93
4840.00,0.94
4839.00,0.94
4838.00,0.94
4837.00,0.94
4836.00,0.94
4835.00,0.94
4834.00,0.94
4833.00,0.94
4832.00,0.94
4831.00,0.95
4830.00,0.95
4829.00,0.95
4828.00,0.95
4827.00,0.95
4826.00,0.95
4825.00,0.95
4824.00,0.95
4823.00,0.95
4822.00,0.95
4821.00,0.95
4820.00,0.95
4819.00,0.95
4818.00,0.96
4817.00,0.96
4816.00,0.96
4815.00,0.96
4814.00,0.96
4813.00,0.96
4812.00,0.96
4811.00,0.97
4810.00,0.97
4809.00,0.97
4808.00,0.97
4807.00,0.97
4806.00,0.97
4805.00,0.98
4804.00,0.98
4803.00,0.98
4802.00,0.98
4801.00,0.98
4800.00,0.98
4799.00,0.99
4798.00,0.99
4797.00,0.99
4796.00,0.99
4795.00,0.99
4794.00,1.00
4793.00,1.00
4792.00,1.00
4791.00,1.00
4790.00,1.00
4789.00,1.00
4788.00,1.01
4787.00,1.01
4786.00,1.01
4785.00,1.01
4784.00,1.01
4783.00,1.01
4782.00,1.02
4781.00,1.02
4780.00,1.02
4779.00,1.02
4778.00,1.02
4777.00,1.02
4776.00,1.02
4775.00,1.03
4774.00,1.03
4773.00,1.03
4772.00,1.03
4771.00,1.03
4770.00,1.03
4769.00,1.04
4768.00,1.04
4767.00,1.04
4766.00,1.04
4765.00,1.04
4764.00,1.05
4763.00,1.05
4762.00,1.05
4761.00,1.05
4760.00,1.05
4759.00,1.06
4758.00,1.06
4757.00,1.06
4756.00,1.06
4755.00,1.06
4754.00,1.07
4753.00,1.07
4752.00,1.07
4751.00,1.07
4750.00,1.07
4749.00,1.07
4748.00,1.07
4747.00,1.08
4746.00,1.08
4745.00,1.08
4744.00,1.08
4743.00,1.08
4742.00,1.08
4741.00,1.08
4740.00,1.09
4739.00,1.09
4738.00,1.09
4737.00,1.09
4736.00,1.09
4735.00,1.10
4734.00,1.10
4733.00,1.10
4732.00,1.11
4731.00,1.11
4730.00,1.11
4729.00,1.11
4728.00,1.12
4727.00,1.12
4726.00,1.12
4725.00,1.13
4724.00,1.13
4723.00,1.13
4722.00,1.13
4721.00,1.14
4720.00,1.14
4719.00,1.14
4718.00,1.15
4717.00,1.15
4716.00,1.15
4715.00,1.15
4714.00,1.16
4713.00,1.16
4712.00,1.16
4711.00,1.16
4710.00,1.17
4709.00,1.17
4708.00,1.17
4707.00,1.17
4706.00,1.17
4705.00,1.18
4704.00,1.18
4703.00,1.18
4702.00,1.18
4701.00,1.19
4700.00,1.19
4699.00,1.19
4698.00,1.19
4697.00,1.20
4696.00,1.20
4695.00,1.20
4694.00,1.20
4693.00,1.20
4692.00,1.21
4691.00,1.21
4690.00,1.21
4689.00,1.21
4688.00,1.21
4687.00,1.22
4686.00,1.22
4685.00,1.22
4684.00,1.22
4683.00,1.22
4682.00,1.22
4681.00,1.23
4680.00,1.23
4679.00,1.23
4678.00,1.23
4677.00,1.23
4676.00,1.24
4675.00,1.24
4674.00,1.24
4673.00,1.24
4672.00,1.24
4671.00,1.25
4670.00,1.25
4669.00,1.25
4668.00,1.26
4667.00,1.26
4666.00,1.26
4665.00,1.27
4664.00,1.27
4663.00,1.27
4662.00,1.27
4661.00,1.28
4660.00,1.28
4659.00,1.28
4658.00,1.29
4657.00,1.29
4656.00,1.29
4655.00,1.30
4654.00,1.30
4653.00,1.30
4652.00,1.31
4651.00,1.31
4650.00,1.31
4649.00,1.31
4648.00,1.32
4647.00,1.32
4646.00,1.32
4645.00,1.32
4644.00,1.33
4643.00,1.33
4642.00,1.33
4641.00,1.33
4640.00,1.33
4639.00,1.33
4638.00,1.34
4637.00,1.34
4636.00,1.34
4635.00,1.34
4634.00,1.34
4633.00,1.34
4632.00,1.35
4631.00,1.35
4630.00,1.35
4629.00,1.35
4628.00,1.35
4627.00,1.35
4626.00,1.36
4625.00,1.36
4624.00,1.36
4623.00,1.36
4622.00,1.36
4621.00,1.36
4620.00,1.36
4619.00,1.36
4618.00,1.37
4617.00,1.37
4616.00,1.37
4615.00,1.37
4614.00,1.37
4613.00,1.37
4612.00,1.37
4611.00,1.37
4610.00,1.37
4609.00,1.38
4608.00,1.38
4607.00,1.38
4606.00,1.38
4605.00,1.38
4604.00,1.39
4603.00,1.39
4602.00,1.39
4601.00,1.39
4600.00,1.40
4599.00,1.40
4598.00,1.40
4597.00,1.40
4596.00,1.41
4595.00,1.41
4594.00,1.41
4593.00,1.41
4592.00,1.41
4591.00,1.42
4590.00,1.42
4589.00,1.42
4588.00,1.42
4587.00,1.42
4586.00,1.42
4585.00,1.43
4584.00,1.43
4583.00,1.43
4582.00,1.43
4581.00,1.43
4580.00,1.43
4579.00,1.43
4578.00,1.43
4577.00,1.44
4576.00,1.44
4575.00,1.44
4574.00,1.44
4573.00,1.44
4572.00,1.44
4571.00,1.44
4570.00,1.44
4569.00,1.44
4568.00,1.44
4567.00,1.45
4566.00,1.45
4565.00,1.45
4564.00,1.45
4563.00,1.45
4562.00,1.45
4561.00,1.46
4560.00,1.46
4559.00,1.46
4558.00,1.46
4557.00,1.47
4556.00,1.47
4555.00,1.47
4554.00,1.47
4553.00,1.48
4552.00,1.48
4551.00,1.48
4550.00,1.48
4549.00,1.48
4548.00,1.49
4547.00,1.49
4546.00,1.49
4545.00,1.49
4544.00,1.49
4543.00,1.49
4542.00,1.49
4541.00,1.49
4540.00,1.49
4539.00,1.49
4538.00,1.49
4537.00,1.50
4536.00,1.50
4535.00,1.50
4534.00,1.50
4533.00,1.50
4532.00,1.50
4531.00,1.50
4530.00,1.50
4529.00,1.50
4528.00,1.50
4527.00,1.50
4526.00,1.50
4525.00,1.50
4524.00,1.51
4523.00,1.51
4522.00,1.51
4521.00,1.51
4520.00,1.51
4519.00,1.51
4518.00,1.51
4517.00,1.51
4516.00,1.51
4515.00,1.51
4514.00,1.51
4513.00,1.51
4512.00,1.52
4511.00,1.52
4510.00,1.52
4509.00,1.52
4508.00,1.52
4507.00,1.52
4506.00,1.52
4505.00,1.52
4504.00,1.52
4503.00,1.52
4502.00,1.52
4501.00,1.52
4500.00,1.52
4499.00,1.52
4498.00,1.52
4497.00,1.52
4496.00,1.52
4495.00,1.52
4494.00,1.51
4493.00,1.51
4492.00,1.51
4491.00,1.51
4490.00,1.51
4489.00,1.50
4488.00,1.50
4487.00,1.50
4486.00,1.50
4485.00,1.50
4484.00,1.49
4483.00,1.49
4482.00,1.49
4481.00,1.48
4480.00,1.48
4479.00,1.48
4478.00,1.48
4477.00,1.47
4476.00,1.47
4475.00,1.47
4474.00,1.46
4473.00,1.46
4472.00,1.45
4471.00,1.45
4470.00,1.45
4469.00,1.44
4468.00,1.44
4467.00,1.43
4466.00,1.43
4465.00,1.43
4464.00,1.42
4463.00,1.42
4462.00,1.41
4461.00,1.41
4460.00,1.40
4459.00,1.40
4458.00,1.39
4457.00,1.39
4456.00,1.39
4455.00,1.38
4454.00,1.38
4453.00,1.37
4452.00,1.37
4451.00,1.36
4450.00,1.35
4449.00,1.35
4448.00,1.34
4447.00,1.34
4446.00,1.33
4445.00,1.32
4444.00,1.32
4443.00,1.31
4442.00,1.30
4441.00,1.30
4440.00,1.29
4439.00,1.28
4438.00,1.28
4437.00,1.27
4436.00,1.26
4435.00,1.26
4434.00,1.25
4433.00,1.24
4432.00,1.24
4431.00,1.23
4430.00,1.23
4429.00,1.22
4428.00,1.22
4427.00,1.22
4426.00,1.21
4425.00,1.21
4424.00,1.21
4423.00,1.20
4422.00,1.20
4421.00,1.20
4420.00,1.20
4419.00,1.20
4418.00,1.19
4417.00,1.19
4416.00,1.19
4415.00,1.19
4414.00,1.19
4413.00,1.19
4412.00,1.19
4411.00,1.19
4410.00,1.19
4409.00,1.19
4408.00,1.19
4407.00,1.19
4406.00,1.19
4405.00,1.19
4404.00,1.19
4403.00,1.19
4402.00,1.20
4401.00,1.20
4400.00,1.20
4399.00,1.20
4398.00,1.20
4397.00,1.21
4396.00,1.21
4395.00,1.21
4394.00,1.21
4393.00,1.22
4392.00,1.22
4391.00,1.22
4390.00,1.22
4389.00,1.23
4388.00,1.23
4387.00,1.23
4386.00,1.23
4385.00,1.24
4384.00,1.24
4383.00,1.24
4382.00,1.24
4381.00,1.25
4380.00,1.25
4379.00,1.25
4378.00,1.25
4377.00,1.25
4376.00,1.25
4375.00,1.26
4374.00,1.26
4373.00,1.26
4372.00,1.26
4371.00,1.26
4370.00,1.26
4369.00,1.26
4368.00,1.26
4367.00,1.26
4366.00,1.26
4365.00,1.26
4364.00,1.26
4363.00,1.26
4362.00,1.26
4361.00,1.26
4360.00,1.26
4359.00,1.26
4358.00,1.27
4357.00,1.27
4356.00,1.27
4355.00,1.27
4354.00,1.27
4353.00,1.27
4352.00,1.27
4351.00,1.27
4350.00,1.27
4349.00,1.27
4348.00,1.27
4347.00,1.27
4346.00,1.27
4345.00,1.27
4344.00,1.27
4343.00,1.27
4342.00,1.27
4341.00,1.27
4340.00,1.27
4339.00,1.27
4338.00,1.27
4337.00,1.27
4336.00,1.27
4335.00,1.27
4334.00,1.27
4333.00,1.27
4332.00,1.27
4331.00,1.27
4330.00,1.28
4329.00,1.28
4328.00,1.28
4327.00,1.28
4326.00,1.28
4325.00,1.28
4324.00,1.28
4323.00,1.29
4322.00,1.29
4321.00,1.29
4320.00,1.29
4319.00,1.30
4318.00,1.30
4317.00,1.30
4316.00,1.30
4315.00,1.31
4314.00,1.31
4313.00,1.31
4312.00,1.32
4311.00,1.32
4310.00,1.32
4309.00,1.32
4308.00,1.33
4307.00,1.33
4306.00,1.33
4305.00,1.33
4304.00,1.34
4303.00,1.34
4302.00,1.34
4301.00,1.34
4300.00,1.35
4299.00,1.35
4298.00,1.35
4297.00,1.35
4296.00,1.36
4295.00,1.36
4294.00,1.36
4293.00,1.36
4292.00,1.37
4291.00,1.37
4290.00,1.37
4289.00,1.37
4288.00,1.38
4287.00,1.38
4286.00,1.38
4285.00,1.38
4284.00,1.38
4283.00,1.39
4282.00,1.39
4281.00,1.39
4280.00,1.39
4279.00,1.39
4278.00,1.39
4277.00,1.39
4276.00,1.39
4275.00,1.39
4274.00,1.39
4273.00,1.39
4272.00,1.39
4271.00,1.38
4270.00,1.38
4269.00,1.38
4268.00,1.38
4267.00,1.38
4266.00,1.38
4265.00,1.38
4264.00,1.38
4263.00,1.38
4262.00,1.38
4261.00,1.38
4260.00,1.38
4259.00,1.38
4258.00,1.38
4257.00,1.38
4256.00,1.38
4255.00,1.38
4254.00,1.38
4253.00,1.38
4252.00,1.39
4251.00,1.39
4250.00,1.39
4249.00,1.40
4248.00,1.40
4247.00,1.40
4246.00,1.41
4245.00,1.41
4244.00,1.41
4243.00,1.42
4242.00,1.42
4241.00,1.42
4240.00,1.43
4239.00,1.43
4238.00,1.43
4237.00,1.43
4236.00,1.44
4235.00,1.44
4234.00,1.44
4233.00,1.44
4232.00,1.44
4231.00,1.44
4230.00,1.44
4229.00,1.44
4228.00,1.45
4227.00,1.45
4226.00,1.45
4225.00,1.45
4224.00,1.45
4223.00,1.45
4222.00,1.45
4221.00,1.45
4220.00,1.46
4219.00,1.46
4218.00,1.46
4217.00,1.46
4216.00,1.46
4215.00,1.46
4214.00,1.46
4213.00,1.47
4212.00,1.47
4211.00,1.47
4210.00,1.47
4209.00,1.47
4208.00,1.47
4207.00,1.47
4206.00,1.47
4205.00,1.48
4204.00,1.48
4203.00,1.48
4202.00,1.48
4201.00,1.48
4200.00,1.48
4199.00,1.48
4198.00,1.48
4197.00,1.47
4196.00,1.47
4195.00,1.47
4194.00,1.47
4193.00,1.47
4192.00,1.47
4191.00,1.47
4190.00,1.47
4189.00,1.47
4188.00,1.47
4187.00,1.48
4186.00,1.48
4185.00,1.48
4184.00,1.48
4183.00,1.48
4182.00,1.48
4181.00,1.49
4180.00,1.49
4179.00,1.49
4178.00,1.49
4177.00,1.49
4176.00,1.50
4175.00,1.50
4174.00,1.50
4173.00,1.50
4172.00,1.50
4171.00,1.50
4170.00,1.50
4169.00,1.50
4168.00,1.50
4167.00,1.50
4166.00,1.50
4165.00,1.50
4164.00,1.50
4163.00,1.50
4162.00,1.50
4161.00,1.50
4160.00,1.50
4159.00,1.50
4158.00,1.50
4157.00,1.50
4156.00,1.50
4155.00,1.50
4154.00,1.50
4153.00,1.50
4152.00,1.50
4151.00,1.50
4150.00,1.50
4149.00,1.50
4148.00,1.50
4147.00,1.50
4146.00,1.51
4145.00,1.51
4144.00,1.51
4143.00,1.51
4142.00,1.52
4141.00,1.52
4140.00,1.52
4139.00,1.53
4138.00,1.53
4137.00,1.53
4136.00,1.53
4135.00,1.54
4134.00,1.54
4133.00,1.54
4132.00,1.54
4131.00,1.54
4130.00,1.54
4129.00,1.54
4128.00,1.54
4127.00,1.54
4126.00,1.54
4125.00,1.54
4124.00,1.54
4123.00,1.54
4122.00,1.54
4121.00,1.53
4120.00,1.53
4119.00,1.53
4118.00,1.53
4117.00,1.53
4116.00,1.53
4115.00,1.53
4114.00,1.53
4113.00,1.53
4112.00,1.53
4111.00,1.53
4110.00,1.53
4109.00,1.53
4108.00,1.53
4107.00,1.53
4106.00,1.52
4105.00,1.52
4104.00,1.52
4103.00,1.52
4102.00,1.52
4101.00,1.52
4100.00,1.52
4099.00,1.52
4098.00,1.52
4097.00,1.52
4096.00,1.53
4095.00,1.53
4094.00,1.53
4093.00,1.53
4092.00,1.54
4091.00,1.54
4090.00,1.54
4089.00,1.55
4088.00,1.55
4087.00,1.56
4086.00,1.56
4085.00,1.56
4084.00,1.57
4083.00,1.57
4082.00,1.57
4081.00,1.58
4080.00,1.58
4079.00,1.58
4078.00,1.58
4077.00,1.59
4076.00,1.59
4075.00,1.59
4074.00,1.59
4073.00,1.59
4072.00,1.59
4071.00,1.59
4070.00,1.59
4069.00,1.59
4068.00,1.59
4067.00,1.59
4066.00,1.59
4065.00,1.59
4064.00,1.59
4063.00,1.59
4062.00,1.59
4061.00,1.59
4060.00,1.59
4059.00,1.59
4058.00,1.59
4057.00,1.59
4056.00,1.59
4055.00,1.59
4054.00,1.59
4053.00,1.59
4052.00,1.59
4051.00,1.59
4050.00,1.59
4049.00,1.59
4048.00,1.59
4047.00,1.59
4046.00,1.59
4045.00,1.59
4044.00,1.60
4043.00,1.60
4042.00,1.60
4041.00,1.60
4040.00,1.60
4039.00,1.60
4038.00,1.60
4037.00,1.61
4036.00,1.61
4035.00,1.61
4034.00,1.61
4033.00,1.62
4032.00,1.62
4031.00,1.62
4030.00,1.62
4029.00,1.62
4028.00,1.62
4027.00,1.63
4026.00,1.63
4025.00,1.63
4024.00,1.63
4023.00,1.63
4022.00,1.63
4021.00,1.63
4020.00,1.63
4019.00,1.63
4018.00,1.63
4017.00,1.63
4016.00,1.63
4015.00,1.63
4014.00,1.64
4013.00,1.64
4012.00,1.64
4011.00,1.64
4010.00,1.64
4009.00,1.64
4008.00,1.64
4007.00,1.64
4006.00,1.64
4005.00,1.64
4004.00,1.64
4003.00,1.64
4002.00,1.64
4001.00,1.64
4000.00,1.64
