创建为新数据集,样品 404 用户 Administrator 日期 星期四, 三月 08 2018
cm-1,%T
10000.00,1.15
9999.00,1.15
9998.00,1.15
9997.00,1.15
9996.00,1.16
9995.00,1.16
9994.00,1.16
9993.00,1.17
9992.00,1.17
9991.00,1.17
9990.00,1.17
9989.00,1.17
9988.00,1.17
9987.00,1.17
9986.00,1.17
9985.00,1.17
9984.00,1.17
9983.00,1.17
9982.00,1.17
9981.00,1.17
9980.00,1.16
9979.00,1.16
9978.00,1.16
9977.00,1.16
9976.00,1.16
9975.00,1.16
9974.00,1.16
9973.00,1.16
9972.00,1.15
9971.00,1.15
9970.00,1.15
9969.00,1.15
9968.00,1.15
9967.00,1.15
9966.00,1.15
9965.00,1.15
9964.00,1.15
9963.00,1.15
9962.00,1.15
9961.00,1.15
9960.00,1.15
9959.00,1.15
9958.00,1.15
9957.00,1.15
9956.00,1.15
9955.00,1.15
9954.00,1.14
9953.00,1.14
9952.00,1.14
9951.00,1.14
9950.00,1.14
9949.00,1.14
9948.00,1.14
9947.00,1.14
9946.00,1.14
9945.00,1.14
9944.00,1.14
9943.00,1.14
9942.00,1.14
9941.00,1.14
9940.00,1.14
9939.00,1.14
9938.00,1.14
9937.00,1.14
9936.00,1.14
9935.00,1.14
9934.00,1.14
9933.00,1.14
9932.00,1.14
9931.00,1.14
9930.00,1.14
9929.00,1.14
9928.00,1.14
9927.00,1.14
9926.00,1.14
9925.00,1.14
9924.00,1.15
9923.00,1.15
9922.00,1.15
9921.00,1.15
9920.00,1.16
9919.00,1.16
9918.00,1.16
9917.00,1.16
9916.00,1.16
9915.00,1.16
9914.00,1.16
9913.00,1.16
9912.00,1.16
9911.00,1.16
9910.00,1.16
9909.00,1.16
9908.00,1.16
9907.00,1.16
9906.00,1.16
9905.00,1.16
9904.00,1.16
9903.00,1.16
9902.00,1.16
9901.00,1.16
9900.00,1.16
9899.00,1.16
9898.00,1.17
9897.00,1.17
9896.00,1.17
9895.00,1.17
9894.00,1.17
9893.00,1.17
9892.00,1.17
9891.00,1.17
9890.00,1.17
9889.00,1.17
9888.00,1.17
9887.00,1.17
9886.00,1.17
9885.00,1.17
9884.00,1.17
9883.00,1.17
9882.00,1.17
9881.00,1.17
9880.00,1.17
9879.00,1.17
9878.00,1.17
9877.00,1.17
9876.00,1.17
9875.00,1.16
9874.00,1.16
9873.00,1.16
9872.00,1.16
9871.00,1.16
9870.00,1.16
9869.00,1.16
9868.00,1.15
9867.00,1.15
9866.00,1.15
9865.00,1.15
9864.00,1.15
9863.00,1.15
9862.00,1.15
9861.00,1.15
9860.00,1.15
9859.00,1.15
9858.00,1.15
9857.00,1.15
9856.00,1.15
9855.00,1.15
9854.00,1.15
9853.00,1.15
9852.00,1.15
9851.00,1.15
9850.00,1.15
9849.00,1.16
9848.00,1.16
9847.00,1.16
9846.00,1.16
9845.00,1.16
9844.00,1.16
9843.00,1.16
9842.00,1.16
9841.00,1.16
9840.00,1.16
9839.00,1.16
9838.00,1.15
9837.00,1.15
9836.00,1.15
9835.00,1.15
9834.00,1.15
9833.00,1.15
9832.00,1.15
9831.00,1.15
9830.00,1.15
9829.00,1.15
9828.00,1.15
9827.00,1.15
9826.00,1.15
9825.00,1.15
9824.00,1.15
9823.00,1.15
9822.00,1.15
9821.00,1.15
9820.00,1.15
9819.00,1.15
9818.00,1.16
9817.00,1.16
9816.00,1.16
9815.00,1.16
9814.00,1.16
9813.00,1.16
9812.00,1.16
9811.00,1.16
9810.00,1.16
9809.00,1.16
9808.00,1.16
9807.00,1.16
9806.00,1.16
9805.00,1.16
9804.00,1.16
9803.00,1.16
9802.00,1.15
9801.00,1.15
9800.00,1.15
9799.00,1.15
9798.00,1.15
9797.00,1.15
9796.00,1.15
9795.00,1.15
9794.00,1.15
9793.00,1.15
9792.00,1.14
9791.00,1.14
9790.00,1.14
9789.00,1.14
9788.00,1.14
9787.00,1.14
9786.00,1.14
9785.00,1.14
9784.00,1.13
9783.00,1.13
9782.00,1.14
9781.00,1.14
9780.00,1.14
9779.00,1.14
9778.00,1.14
9777.00,1.15
9776.00,1.15
9775.00,1.15
9774.00,1.16
9773.00,1.16
9772.00,1.16
9771.00,1.17
9770.00,1.17
9769.00,1.17
9768.00,1.17
9767.00,1.18
9766.00,1.18
9765.00,1.18
9764.00,1.18
9763.00,1.18
9762.00,1.18
9761.00,1.18
9760.00,1.17
9759.00,1.17
9758.00,1.17
9757.00,1.17
9756.00,1.16
9755.00,1.16
9754.00,1.15
9753.00,1.15
9752.00,1.15
9751.00,1.14
9750.00,1.14
9749.00,1.14
9748.00,1.13
9747.00,1.13
9746.00,1.13
9745.00,1.13
9744.00,1.13
9743.00,1.13
9742.00,1.13
9741.00,1.13
9740.00,1.13
9739.00,1.13
9738.00,1.13
9737.00,1.13
9736.00,1.13
9735.00,1.13
9734.00,1.13
9733.00,1.14
9732.00,1.14
9731.00,1.14
9730.00,1.14
9729.00,1.14
9728.00,1.14
9727.00,1.14
9726.00,1.15
9725.00,1.15
9724.00,1.15
9723.00,1.15
9722.00,1.15
9721.00,1.15
9720.00,1.16
9719.00,1.16
9718.00,1.16
9717.00,1.16
9716.00,1.16
9715.00,1.17
9714.00,1.17
9713.00,1.17
9712.00,1.17
9711.00,1.17
9710.00,1.17
9709.00,1.17
9708.00,1.17
9707.00,1.17
9706.00,1.17
9705.00,1.17
9704.00,1.17
9703.00,1.17
9702.00,1.17
9701.00,1.16
9700.00,1.16
9699.00,1.16
9698.00,1.16
9697.00,1.16
9696.00,1.16
9695.00,1.15
9694.00,1.15
9693.00,1.15
9692.00,1.15
9691.00,1.15
9690.00,1.15
9689.00,1.15
9688.00,1.15
9687.00,1.15
9686.00,1.15
9685.00,1.15
9684.00,1.15
9683.00,1.15
9682.00,1.14
9681.00,1.14
9680.00,1.14
9679.00,1.14
9678.00,1.14
9677.00,1.14
9676.00,1.14
9675.00,1.14
9674.00,1.14
9673.00,1.14
9672.00,1.14
9671.00,1.14
9670.00,1.14
9669.00,1.14
9668.00,1.14
9667.00,1.13
9666.00,1.13
9665.00,1.13
9664.00,1.13
9663.00,1.13
9662.00,1.13
9661.00,1.13
9660.00,1.13
9659.00,1.13
9658.00,1.13
9657.00,1.13
9656.00,1.13
9655.00,1.14
9654.00,1.14
9653.00,1.14
9652.00,1.14
9651.00,1.15
9650.00,1.15
9649.00,1.15
9648.00,1.15
9647.00,1.16
9646.00,1.16
9645.00,1.16
9644.00,1.16
9643.00,1.17
9642.00,1.17
9641.00,1.17
9640.00,1.17
9639.00,1.17
9638.00,1.17
9637.00,1.17
9636.00,1.17
9635.00,1.17
9634.00,1.17
9633.00,1.17
9632.00,1.17
9631.00,1.17
9630.00,1.17
9629.00,1.16
9628.00,1.16
9627.00,1.16
9626.00,1.16
9625.00,1.16
9624.00,1.16
9623.00,1.16
9622.00,1.15
9621.00,1.15
9620.00,1.15
9619.00,1.15
9618.00,1.15
9617.00,1.15
9616.00,1.15
9615.00,1.15
9614.00,1.15
9613.00,1.15
9612.00,1.15
9611.00,1.16
9610.00,1.16
9609.00,1.16
9608.00,1.16
9607.00,1.16
9606.00,1.16
9605.00,1.16
9604.00,1.16
9603.00,1.16
9602.00,1.16
9601.00,1.16
9600.00,1.16
9599.00,1.16
9598.00,1.16
9597.00,1.16
9596.00,1.16
9595.00,1.16
9594.00,1.16
9593.00,1.16
9592.00,1.16
9591.00,1.16
9590.00,1.16
9589.00,1.15
9588.00,1.15
9587.00,1.15
9586.00,1.15
9585.00,1.15
9584.00,1.15
9583.00,1.15
9582.00,1.15
9581.00,1.15
9580.00,1.14
9579.00,1.14
9578.00,1.14
9577.00,1.14
9576.00,1.14
9575.00,1.14
9574.00,1.14
9573.00,1.14
9572.00,1.14
9571.00,1.14
9570.00,1.14
9569.00,1.14
9568.00,1.14
9567.00,1.14
9566.00,1.14
9565.00,1.15
9564.00,1.15
9563.00,1.15
9562.00,1.15
9561.00,1.15
9560.00,1.15
9559.00,1.16
9558.00,1.16
9557.00,1.16
9556.00,1.16
9555.00,1.16
9554.00,1.16
9553.00,1.16
9552.00,1.16
9551.00,1.16
9550.00,1.16
9549.00,1.16
9548.00,1.16
9547.00,1.17
9546.00,1.17
9545.00,1.17
9544.00,1.16
9543.00,1.16
9542.00,1.16
9541.00,1.16
9540.00,1.16
9539.00,1.16
9538.00,1.16
9537.00,1.17
9536.00,1.17
9535.00,1.17
9534.00,1.17
9533.00,1.17
9532.00,1.17
9531.00,1.17
9530.00,1.17
9529.00,1.17
9528.00,1.17
9527.00,1.17
9526.00,1.17
9525.00,1.17
9524.00,1.17
9523.00,1.17
9522.00,1.16
9521.00,1.16
9520.00,1.16
9519.00,1.16
9518.00,1.16
9517.00,1.16
9516.00,1.16
9515.00,1.16
9514.00,1.16
9513.00,1.16
9512.00,1.16
9511.00,1.16
9510.00,1.16
9509.00,1.16
9508.00,1.16
9507.00,1.16
9506.00,1.16
9505.00,1.16
9504.00,1.16
9503.00,1.16
9502.00,1.16
9501.00,1.16
9500.00,1.16
9499.00,1.16
9498.00,1.16
9497.00,1.16
9496.00,1.16
9495.00,1.15
9494.00,1.15
9493.00,1.15
9492.00,1.15
9491.00,1.15
9490.00,1.15
9489.00,1.15
9488.00,1.15
9487.00,1.15
9486.00,1.15
9485.00,1.15
9484.00,1.15
9483.00,1.15
9482.00,1.15
9481.00,1.15
9480.00,1.15
9479.00,1.15
9478.00,1.15
9477.00,1.15
9476.00,1.15
9475.00,1.15
9474.00,1.14
9473.00,1.14
9472.00,1.14
9471.00,1.14
9470.00,1.14
9469.00,1.14
9468.00,1.14
9467.00,1.14
9466.00,1.15
9465.00,1.15
9464.00,1.15
9463.00,1.15
9462.00,1.15
9461.00,1.15
9460.00,1.15
9459.00,1.15
9458.00,1.15
9457.00,1.15
9456.00,1.15
9455.00,1.15
9454.00,1.16
9453.00,1.16
9452.00,1.16
9451.00,1.16
9450.00,1.16
9449.00,1.16
9448.00,1.16
9447.00,1.16
9446.00,1.16
9445.00,1.16
9444.00,1.16
9443.00,1.16
9442.00,1.16
9441.00,1.16
9440.00,1.16
9439.00,1.16
9438.00,1.16
9437.00,1.16
9436.00,1.16
9435.00,1.16
9434.00,1.16
9433.00,1.16
9432.00,1.16
9431.00,1.16
9430.00,1.16
9429.00,1.16
9428.00,1.16
9427.00,1.16
9426.00,1.17
9425.00,1.17
9424.00,1.17
9423.00,1.17
9422.00,1.17
9421.00,1.17
9420.00,1.17
9419.00,1.17
9418.00,1.17
9417.00,1.17
9416.00,1.17
9415.00,1.17
9414.00,1.17
9413.00,1.17
9412.00,1.17
9411.00,1.17
9410.00,1.17
9409.00,1.17
9408.00,1.17
9407.00,1.17
9406.00,1.17
9405.00,1.16
9404.00,1.16
9403.00,1.16
9402.00,1.16
9401.00,1.16
9400.00,1.16
9399.00,1.16
9398.00,1.16
9397.00,1.16
9396.00,1.16
9395.00,1.16
9394.00,1.16
9393.00,1.16
9392.00,1.16
9391.00,1.16
9390.00,1.16
9389.00,1.16
9388.00,1.16
9387.00,1.16
9386.00,1.16
9385.00,1.16
9384.00,1.16
9383.00,1.16
9382.00,1.16
9381.00,1.16
9380.00,1.16
9379.00,1.16
9378.00,1.16
9377.00,1.16
9376.00,1.16
9375.00,1.16
9374.00,1.16
9373.00,1.15
9372.00,1.15
9371.00,1.15
9370.00,1.15
9369.00,1.15
9368.00,1.15
9367.00,1.15
9366.00,1.15
9365.00,1.15
9364.00,1.15
9363.00,1.15
9362.00,1.15
9361.00,1.15
9360.00,1.15
9359.00,1.15
9358.00,1.15
9357.00,1.15
9356.00,1.14
9355.00,1.14
9354.00,1.14
9353.00,1.14
9352.00,1.14
9351.00,1.14
9350.00,1.14
9349.00,1.14
9348.00,1.14
9347.00,1.14
9346.00,1.14
9345.00,1.14
9344.00,1.14
9343.00,1.14
9342.00,1.15
9341.00,1.15
9340.00,1.15
9339.00,1.15
9338.00,1.15
9337.00,1.16
9336.00,1.16
9335.00,1.16
9334.00,1.16
9333.00,1.16
9332.00,1.16
9331.00,1.17
9330.00,1.17
9329.00,1.17
9328.00,1.17
9327.00,1.17
9326.00,1.17
9325.00,1.16
9324.00,1.16
9323.00,1.16
9322.00,1.16
9321.00,1.16
9320.00,1.16
9319.00,1.16
9318.00,1.16
9317.00,1.16
9316.00,1.16
9315.00,1.16
9314.00,1.16
9313.00,1.16
9312.00,1.16
9311.00,1.16
9310.00,1.16
9309.00,1.16
9308.00,1.15
9307.00,1.15
9306.00,1.15
9305.00,1.15
9304.00,1.15
9303.00,1.15
9302.00,1.15
9301.00,1.15
9300.00,1.15
9299.00,1.15
9298.00,1.15
9297.00,1.15
9296.00,1.15
9295.00,1.15
9294.00,1.15
9293.00,1.15
9292.00,1.15
9291.00,1.15
9290.00,1.15
9289.00,1.16
9288.00,1.16
9287.00,1.16
9286.00,1.16
9285.00,1.16
9284.00,1.16
9283.00,1.16
9282.00,1.16
9281.00,1.16
9280.00,1.17
9279.00,1.17
9278.00,1.17
9277.00,1.17
9276.00,1.17
9275.00,1.17
9274.00,1.17
9273.00,1.17
9272.00,1.17
9271.00,1.17
9270.00,1.17
9269.00,1.17
9268.00,1.17
9267.00,1.17
9266.00,1.17
9265.00,1.17
9264.00,1.17
9263.00,1.17
9262.00,1.17
9261.00,1.16
9260.00,1.16
9259.00,1.16
9258.00,1.16
9257.00,1.16
9256.00,1.16
9255.00,1.15
9254.00,1.15
9253.00,1.15
9252.00,1.15
9251.00,1.15
9250.00,1.15
9249.00,1.15
9248.00,1.15
9247.00,1.15
9246.00,1.15
9245.00,1.15
9244.00,1.15
9243.00,1.15
9242.00,1.15
9241.00,1.15
9240.00,1.15
9239.00,1.15
9238.00,1.15
9237.00,1.15
9236.00,1.15
9235.00,1.15
9234.00,1.15
9233.00,1.15
9232.00,1.16
9231.00,1.16
9230.00,1.16
9229.00,1.16
9228.00,1.16
9227.00,1.16
9226.00,1.16
9225.00,1.16
9224.00,1.16
9223.00,1.16
9222.00,1.15
9221.00,1.15
9220.00,1.15
9219.00,1.15
9218.00,1.15
9217.00,1.15
9216.00,1.15
9215.00,1.15
9214.00,1.15
9213.00,1.14
9212.00,1.14
9211.00,1.14
9210.00,1.14
9209.00,1.15
9208.00,1.15
9207.00,1.15
9206.00,1.15
9205.00,1.15
9204.00,1.15
9203.00,1.15
9202.00,1.16
9201.00,1.16
9200.00,1.16
9199.00,1.16
9198.00,1.16
9197.00,1.16
9196.00,1.17
9195.00,1.17
9194.00,1.17
9193.00,1.17
9192.00,1.17
9191.00,1.17
9190.00,1.17
9189.00,1.17
9188.00,1.17
9187.00,1.17
9186.00,1.17
9185.00,1.17
9184.00,1.17
9183.00,1.17
9182.00,1.17
9181.00,1.17
9180.00,1.17
9179.00,1.17
9178.00,1.17
9177.00,1.17
9176.00,1.17
9175.00,1.17
9174.00,1.17
9173.00,1.17
9172.00,1.17
9171.00,1.17
9170.00,1.17
9169.00,1.17
9168.00,1.17
9167.00,1.17
9166.00,1.17
9165.00,1.17
9164.00,1.17
9163.00,1.17
9162.00,1.17
9161.00,1.17
9160.00,1.16
9159.00,1.16
9158.00,1.16
9157.00,1.16
9156.00,1.16
9155.00,1.16
9154.00,1.16
9153.00,1.16
9152.00,1.16
9151.00,1.16
9150.00,1.16
9149.00,1.16
9148.00,1.16
9147.00,1.16
9146.00,1.16
9145.00,1.15
9144.00,1.15
9143.00,1.15
9142.00,1.15
9141.00,1.15
9140.00,1.15
9139.00,1.14
9138.00,1.14
9137.00,1.14
9136.00,1.14
9135.00,1.14
9134.00,1.14
9133.00,1.14
9132.00,1.14
9131.00,1.14
9130.00,1.14
9129.00,1.14
9128.00,1.14
9127.00,1.14
9126.00,1.14
9125.00,1.14
9124.00,1.15
9123.00,1.15
9122.00,1.15
9121.00,1.15
9120.00,1.15
9119.00,1.15
9118.00,1.15
9117.00,1.15
9116.00,1.15
9115.00,1.16
9114.00,1.16
9113.00,1.16
9112.00,1.16
9111.00,1.16
9110.00,1.16
9109.00,1.16
9108.00,1.16
9107.00,1.16
9106.00,1.16
9105.00,1.16
9104.00,1.16
9103.00,1.16
9102.00,1.16
9101.00,1.16
9100.00,1.16
9099.00,1.16
9098.00,1.16
9097.00,1.16
9096.00,1.16
9095.00,1.16
9094.00,1.16
9093.00,1.16
9092.00,1.16
9091.00,1.16
9090.00,1.16
9089.00,1.16
9088.00,1.16
9087.00,1.16
9086.00,1.15
9085.00,1.15
9084.00,1.15
9083.00,1.15
9082.00,1.15
9081.00,1.15
9080.00,1.15
9079.00,1.15
9078.00,1.15
9077.00,1.14
9076.00,1.14
9075.00,1.14
9074.00,1.14
9073.00,1.14
9072.00,1.14
9071.00,1.14
9070.00,1.14
9069.00,1.14
9068.00,1.14
9067.00,1.14
9066.00,1.14
9065.00,1.15
9064.00,1.15
9063.00,1.15
9062.00,1.15
9061.00,1.15
9060.00,1.15
9059.00,1.15
9058.00,1.15
9057.00,1.15
9056.00,1.15
9055.00,1.16
9054.00,1.16
9053.00,1.16
9052.00,1.16
9051.00,1.16
9050.00,1.16
9049.00,1.16
9048.00,1.16
9047.00,1.16
9046.00,1.16
9045.00,1.16
9044.00,1.16
9043.00,1.16
9042.00,1.16
9041.00,1.16
9040.00,1.16
9039.00,1.16
9038.00,1.16
9037.00,1.16
9036.00,1.16
9035.00,1.16
9034.00,1.16
9033.00,1.16
9032.00,1.16
9031.00,1.16
9030.00,1.16
9029.00,1.16
9028.00,1.16
9027.00,1.16
9026.00,1.17
9025.00,1.17
9024.00,1.17
9023.00,1.17
9022.00,1.17
9021.00,1.17
9020.00,1.17
9019.00,1.17
9018.00,1.17
9017.00,1.17
9016.00,1.17
9015.00,1.17
9014.00,1.17
9013.00,1.17
9012.00,1.17
9011.00,1.17
9010.00,1.17
9009.00,1.17
9008.00,1.17
9007.00,1.17
9006.00,1.17
9005.00,1.17
9004.00,1.17
9003.00,1.17
9002.00,1.17
9001.00,1.17
9000.00,1.17
8999.00,1.17
8998.00,1.17
8997.00,1.17
8996.00,1.17
8995.00,1.17
8994.00,1.17
8993.00,1.17
8992.00,1.17
8991.00,1.17
8990.00,1.17
8989.00,1.17
8988.00,1.17
8987.00,1.17
8986.00,1.16
8985.00,1.16
8984.00,1.16
8983.00,1.16
8982.00,1.16
8981.00,1.16
8980.00,1.16
8979.00,1.16
8978.00,1.16
8977.00,1.16
8976.00,1.16
8975.00,1.16
8974.00,1.16
8973.00,1.16
8972.00,1.16
8971.00,1.16
8970.00,1.16
8969.00,1.16
8968.00,1.16
8967.00,1.16
8966.00,1.16
8965.00,1.16
8964.00,1.16
8963.00,1.16
8962.00,1.16
8961.00,1.16
8960.00,1.16
8959.00,1.15
8958.00,1.15
8957.00,1.15
8956.00,1.15
8955.00,1.15
8954.00,1.15
8953.00,1.15
8952.00,1.15
8951.00,1.14
8950.00,1.14
8949.00,1.14
8948.00,1.14
8947.00,1.14
8946.00,1.14
8945.00,1.14
8944.00,1.15
8943.00,1.15
8942.00,1.15
8941.00,1.15
8940.00,1.15
8939.00,1.15
8938.00,1.15
8937.00,1.15
8936.00,1.15
8935.00,1.15
8934.00,1.15
8933.00,1.15
8932.00,1.15
8931.00,1.15
8930.00,1.15
8929.00,1.15
8928.00,1.15
8927.00,1.15
8926.00,1.15
8925.00,1.15
8924.00,1.15
8923.00,1.15
8922.00,1.15
8921.00,1.15
8920.00,1.15
8919.00,1.15
8918.00,1.15
8917.00,1.15
8916.00,1.15
8915.00,1.15
8914.00,1.15
8913.00,1.15
8912.00,1.15
8911.00,1.15
8910.00,1.15
8909.00,1.15
8908.00,1.15
8907.00,1.15
8906.00,1.15
8905.00,1.15
8904.00,1.15
8903.00,1.15
8902.00,1.15
8901.00,1.15
8900.00,1.15
8899.00,1.15
8898.00,1.15
8897.00,1.15
8896.00,1.15
8895.00,1.15
8894.00,1.15
8893.00,1.15
8892.00,1.15
8891.00,1.16
8890.00,1.16
8889.00,1.16
8888.00,1.16
8887.00,1.16
8886.00,1.16
8885.00,1.16
8884.00,1.16
8883.00,1.16
8882.00,1.16
8881.00,1.16
8880.00,1.16
8879.00,1.16
8878.00,1.16
8877.00,1.16
8876.00,1.16
8875.00,1.16
8874.00,1.16
8873.00,1.16
8872.00,1.16
8871.00,1.16
8870.00,1.16
8869.00,1.16
8868.00,1.16
8867.00,1.15
8866.00,1.15
8865.00,1.15
8864.00,1.15
8863.00,1.15
8862.00,1.15
8861.00,1.15
8860.00,1.15
8859.00,1.14
8858.00,1.14
8857.00,1.14
8856.00,1.14
8855.00,1.14
8854.00,1.14
8853.00,1.14
8852.00,1.14
8851.00,1.14
8850.00,1.14
8849.00,1.14
8848.00,1.15
8847.00,1.15
8846.00,1.15
8845.00,1.15
8844.00,1.15
8843.00,1.15
8842.00,1.15
8841.00,1.15
8840.00,1.15
8839.00,1.15
8838.00,1.15
8837.00,1.15
8836.00,1.15
8835.00,1.15
8834.00,1.15
8833.00,1.15
8832.00,1.15
8831.00,1.15
8830.00,1.14
8829.00,1.14
8828.00,1.14
8827.00,1.14
8826.00,1.14
8825.00,1.14
8824.00,1.14
8823.00,1.14
8822.00,1.14
8821.00,1.14
8820.00,1.14
8819.00,1.14
8818.00,1.14
8817.00,1.14
8816.00,1.14
8815.00,1.14
8814.00,1.15
8813.00,1.15
8812.00,1.15
8811.00,1.15
8810.00,1.15
8809.00,1.15
8808.00,1.15
8807.00,1.15
8806.00,1.15
8805.00,1.15
8804.00,1.15
8803.00,1.15
8802.00,1.14
8801.00,1.14
8800.00,1.14
8799.00,1.14
8798.00,1.14
8797.00,1.14
8796.00,1.14
8795.00,1.14
8794.00,1.13
8793.00,1.13
8792.00,1.13
8791.00,1.13
8790.00,1.13
8789.00,1.13
8788.00,1.13
8787.00,1.13
8786.00,1.13
8785.00,1.13
8784.00,1.13
8783.00,1.13
8782.00,1.13
8781.00,1.13
8780.00,1.13
8779.00,1.13
8778.00,1.13
8777.00,1.13
8776.00,1.13
8775.00,1.13
8774.00,1.13
8773.00,1.13
8772.00,1.13
8771.00,1.13
8770.00,1.13
8769.00,1.13
8768.00,1.13
8767.00,1.13
8766.00,1.13
8765.00,1.13
8764.00,1.13
8763.00,1.13
8762.00,1.13
8761.00,1.13
8760.00,1.13
8759.00,1.13
8758.00,1.13
8757.00,1.13
8756.00,1.13
8755.00,1.13
8754.00,1.13
8753.00,1.13
8752.00,1.13
8751.00,1.12
8750.00,1.12
8749.00,1.12
8748.00,1.12
8747.00,1.12
8746.00,1.12
8745.00,1.11
8744.00,1.11
8743.00,1.11
8742.00,1.11
8741.00,1.11
8740.00,1.11
8739.00,1.10
8738.00,1.10
8737.00,1.10
8736.00,1.10
8735.00,1.10
8734.00,1.10
8733.00,1.10
8732.00,1.10
8731.00,1.10
8730.00,1.10
8729.00,1.10
8728.00,1.10
8727.00,1.10
8726.00,1.10
8725.00,1.10
8724.00,1.10
8723.00,1.11
8722.00,1.11
8721.00,1.11
8720.00,1.11
8719.00,1.11
8718.00,1.11
8717.00,1.11
8716.00,1.11
8715.00,1.11
8714.00,1.11
8713.00,1.11
8712.00,1.11
8711.00,1.11
8710.00,1.11
8709.00,1.11
8708.00,1.11
8707.00,1.11
8706.00,1.11
8705.00,1.11
8704.00,1.11
8703.00,1.11
8702.00,1.11
8701.00,1.11
8700.00,1.11
8699.00,1.11
8698.00,1.11
8697.00,1.11
8696.00,1.11
8695.00,1.11
8694.00,1.11
8693.00,1.11
8692.00,1.11
8691.00,1.11
8690.00,1.11
8689.00,1.11
8688.00,1.11
8687.00,1.11
8686.00,1.11
8685.00,1.11
8684.00,1.11
8683.00,1.11
8682.00,1.11
8681.00,1.11
8680.00,1.11
8679.00,1.11
8678.00,1.11
8677.00,1.11
8676.00,1.11
8675.00,1.11
8674.00,1.11
8673.00,1.11
8672.00,1.11
8671.00,1.11
8670.00,1.11
8669.00,1.11
8668.00,1.11
8667.00,1.11
8666.00,1.11
8665.00,1.11
8664.00,1.11
8663.00,1.11
8662.00,1.11
8661.00,1.11
8660.00,1.11
8659.00,1.11
8658.00,1.11
8657.00,1.11
8656.00,1.11
8655.00,1.11
8654.00,1.11
8653.00,1.11
8652.00,1.11
8651.00,1.11
8650.00,1.11
8649.00,1.11
8648.00,1.11
8647.00,1.11
8646.00,1.10
8645.00,1.10
8644.00,1.10
8643.00,1.10
8642.00,1.10
8641.00,1.10
8640.00,1.10
8639.00,1.10
8638.00,1.10
8637.00,1.10
8636.00,1.10
8635.00,1.10
8634.00,1.09
8633.00,1.09
8632.00,1.09
8631.00,1.09
8630.00,1.09
8629.00,1.09
8628.00,1.09
8627.00,1.09
8626.00,1.09
8625.00,1.09
8624.00,1.09
8623.00,1.09
8622.00,1.09
8621.00,1.09
8620.00,1.09
8619.00,1.09
8618.00,1.09
8617.00,1.09
8616.00,1.09
8615.00,1.09
8614.00,1.09
8613.00,1.09
8612.00,1.08
8611.00,1.08
8610.00,1.08
8609.00,1.08
8608.00,1.08
8607.00,1.08
8606.00,1.08
8605.00,1.08
8604.00,1.08
8603.00,1.08
8602.00,1.08
8601.00,1.08
8600.00,1.08
8599.00,1.08
8598.00,1.08
8597.00,1.08
8596.00,1.08
8595.00,1.08
8594.00,1.08
8593.00,1.08
8592.00,1.08
8591.00,1.08
8590.00,1.08
8589.00,1.08
8588.00,1.08
8587.00,1.08
8586.00,1.08
8585.00,1.08
8584.00,1.08
8583.00,1.08
8582.00,1.08
8581.00,1.08
8580.00,1.07
8579.00,1.07
8578.00,1.07
8577.00,1.07
8576.00,1.07
8575.00,1.07
8574.00,1.07
8573.00,1.07
8572.00,1.07
8571.00,1.07
8570.00,1.07
8569.00,1.07
8568.00,1.07
8567.00,1.07
8566.00,1.07
8565.00,1.07
8564.00,1.07
8563.00,1.07
8562.00,1.06
8561.00,1.06
8560.00,1.06
8559.00,1.06
8558.00,1.06
8557.00,1.06
8556.00,1.06
8555.00,1.06
8554.00,1.06
8553.00,1.06
8552.00,1.06
8551.00,1.06
8550.00,1.07
8549.00,1.07
8548.00,1.07
8547.00,1.07
8546.00,1.07
8545.00,1.07
8544.00,1.07
8543.00,1.07
8542.00,1.07
8541.00,1.07
8540.00,1.07
8539.00,1.07
8538.00,1.07
8537.00,1.07
8536.00,1.07
8535.00,1.07
8534.00,1.07
8533.00,1.06
8532.00,1.06
8531.00,1.06
8530.00,1.06
8529.00,1.06
8528.00,1.06
8527.00,1.06
8526.00,1.06
8525.00,1.05
8524.00,1.05
8523.00,1.05
8522.00,1.05
8521.00,1.05
8520.00,1.05
8519.00,1.05
8518.00,1.05
8517.00,1.05
8516.00,1.05
8515.00,1.05
8514.00,1.05
8513.00,1.05
8512.00,1.05
8511.00,1.06
8510.00,1.06
8509.00,1.06
8508.00,1.06
8507.00,1.06
8506.00,1.06
8505.00,1.06
8504.00,1.06
8503.00,1.06
8502.00,1.06
8501.00,1.06
8500.00,1.05
8499.00,1.05
8498.00,1.05
8497.00,1.05
8496.00,1.05
8495.00,1.05
8494.00,1.05
8493.00,1.05
8492.00,1.05
8491.00,1.05
8490.00,1.05
8489.00,1.05
8488.00,1.05
8487.00,1.05
8486.00,1.05
8485.00,1.05
8484.00,1.05
8483.00,1.05
8482.00,1.05
8481.00,1.05
8480.00,1.05
8479.00,1.04
8478.00,1.04
8477.00,1.04
8476.00,1.04
8475.00,1.04
8474.00,1.04
8473.00,1.04
8472.00,1.03
8471.00,1.03
8470.00,1.03
8469.00,1.03
8468.00,1.03
8467.00,1.03
8466.00,1.02
8465.00,1.02
8464.00,1.02
8463.00,1.02
8462.00,1.02
8461.00,1.02
8460.00,1.02
8459.00,1.02
8458.00,1.02
8457.00,1.02
8456.00,1.02
8455.00,1.02
8454.00,1.02
8453.00,1.02
8452.00,1.02
8451.00,1.02
8450.00,1.02
8449.00,1.02
8448.00,1.03
8447.00,1.03
8446.00,1.03
8445.00,1.03
8444.00,1.03
8443.00,1.03
8442.00,1.03
8441.00,1.03
8440.00,1.03
8439.00,1.03
8438.00,1.03
8437.00,1.03
8436.00,1.03
8435.00,1.03
8434.00,1.03
8433.00,1.03
8432.00,1.02
8431.00,1.02
8430.00,1.02
8429.00,1.02
8428.00,1.02
8427.00,1.02
8426.00,1.02
8425.00,1.02
8424.00,1.02
8423.00,1.02
8422.00,1.02
8421.00,1.02
8420.00,1.02
8419.00,1.02
8418.00,1.02
8417.00,1.02
8416.00,1.02
8415.00,1.02
8414.00,1.02
8413.00,1.02
8412.00,1.02
8411.00,1.02
8410.00,1.02
8409.00,1.02
8408.00,1.02
8407.00,1.02
8406.00,1.02
8405.00,1.02
8404.00,1.02
8403.00,1.03
8402.00,1.03
8401.00,1.03
8400.00,1.03
8399.00,1.03
8398.00,1.03
8397.00,1.03
8396.00,1.03
8395.00,1.03
8394.00,1.03
8393.00,1.03
8392.00,1.03
8391.00,1.03
8390.00,1.03
8389.00,1.02
8388.00,1.02
8387.00,1.02
8386.00,1.02
8385.00,1.03
8384.00,1.03
8383.00,1.03
8382.00,1.03
8381.00,1.03
8380.00,1.03
8379.00,1.03
8378.00,1.03
8377.00,1.04
8376.00,1.04
8375.00,1.04
8374.00,1.04
8373.00,1.04
8372.00,1.04
8371.00,1.05
8370.00,1.05
8369.00,1.05
8368.00,1.05
8367.00,1.05
8366.00,1.06
8365.00,1.06
8364.00,1.06
8363.00,1.06
8362.00,1.06
8361.00,1.06
8360.00,1.06
8359.00,1.06
8358.00,1.06
8357.00,1.06
8356.00,1.06
8355.00,1.06
8354.00,1.06
8353.00,1.06
8352.00,1.06
8351.00,1.06
8350.00,1.06
8349.00,1.06
8348.00,1.06
8347.00,1.06
8346.00,1.06
8345.00,1.06
8344.00,1.06
8343.00,1.06
8342.00,1.06
8341.00,1.06
8340.00,1.06
8339.00,1.06
8338.00,1.06
8337.00,1.06
8336.00,1.06
8335.00,1.06
8334.00,1.06
8333.00,1.06
8332.00,1.06
8331.00,1.06
8330.00,1.06
8329.00,1.06
8328.00,1.06
8327.00,1.06
8326.00,1.06
8325.00,1.06
8324.00,1.06
8323.00,1.06
8322.00,1.06
8321.00,1.06
8320.00,1.06
8319.00,1.06
8318.00,1.06
8317.00,1.05
8316.00,1.05
8315.00,1.05
8314.00,1.05
8313.00,1.05
8312.00,1.05
8311.00,1.05
8310.00,1.05
8309.00,1.05
8308.00,1.05
8307.00,1.05
8306.00,1.06
8305.00,1.06
8304.00,1.06
8303.00,1.06
8302.00,1.06
8301.00,1.06
8300.00,1.06
8299.00,1.06
8298.00,1.06
8297.00,1.06
8296.00,1.06
8295.00,1.06
8294.00,1.06
8293.00,1.06
8292.00,1.06
8291.00,1.06
8290.00,1.06
8289.00,1.06
8288.00,1.06
8287.00,1.06
8286.00,1.06
8285.00,1.06
8284.00,1.06
8283.00,1.06
8282.00,1.06
8281.00,1.06
8280.00,1.06
8279.00,1.06
8278.00,1.06
8277.00,1.06
8276.00,1.06
8275.00,1.06
8274.00,1.06
8273.00,1.06
8272.00,1.06
8271.00,1.06
8270.00,1.06
8269.00,1.06
8268.00,1.06
8267.00,1.06
8266.00,1.06
8265.00,1.06
8264.00,1.06
8263.00,1.06
8262.00,1.06
8261.00,1.06
8260.00,1.06
8259.00,1.07
8258.00,1.07
8257.00,1.07
8256.00,1.07
8255.00,1.07
8254.00,1.07
8253.00,1.07
8252.00,1.07
8251.00,1.07
8250.00,1.07
8249.00,1.07
8248.00,1.07
8247.00,1.07
8246.00,1.07
8245.00,1.07
8244.00,1.07
8243.00,1.07
8242.00,1.07
8241.00,1.08
8240.00,1.08
8239.00,1.08
8238.00,1.08
8237.00,1.08
8236.00,1.08
8235.00,1.08
8234.00,1.08
8233.00,1.08
8232.00,1.08
8231.00,1.08
8230.00,1.08
8229.00,1.08
8228.00,1.08
8227.00,1.08
8226.00,1.08
8225.00,1.08
8224.00,1.08
8223.00,1.08
8222.00,1.08
8221.00,1.08
8220.00,1.08
8219.00,1.08
8218.00,1.08
8217.00,1.08
8216.00,1.08
8215.00,1.08
8214.00,1.08
8213.00,1.08
8212.00,1.08
8211.00,1.08
8210.00,1.08
8209.00,1.08
8208.00,1.08
8207.00,1.08
8206.00,1.08
8205.00,1.08
8204.00,1.08
8203.00,1.09
8202.00,1.09
8201.00,1.09
8200.00,1.09
8199.00,1.09
8198.00,1.09
8197.00,1.09
8196.00,1.09
8195.00,1.09
8194.00,1.09
8193.00,1.09
8192.00,1.09
8191.00,1.09
8190.00,1.10
8189.00,1.10
8188.00,1.10
8187.00,1.10
8186.00,1.10
8185.00,1.10
8184.00,1.10
8183.00,1.10
8182.00,1.10
8181.00,1.10
8180.00,1.10
8179.00,1.10
8178.00,1.10
8177.00,1.09
8176.00,1.09
8175.00,1.09
8174.00,1.09
8173.00,1.09
8172.00,1.09
8171.00,1.09
8170.00,1.09
8169.00,1.09
8168.00,1.09
8167.00,1.09
8166.00,1.09
8165.00,1.08
8164.00,1.08
8163.00,1.08
8162.00,1.08
8161.00,1.08
8160.00,1.08
8159.00,1.08
8158.00,1.09
8157.00,1.09
8156.00,1.09
8155.00,1.09
8154.00,1.09
8153.00,1.09
8152.00,1.09
8151.00,1.09
8150.00,1.09
8149.00,1.09
8148.00,1.10
8147.00,1.10
8146.00,1.10
8145.00,1.10
8144.00,1.10
8143.00,1.10
8142.00,1.10
8141.00,1.10
8140.00,1.10
8139.00,1.11
8138.00,1.11
8137.00,1.11
8136.00,1.11
8135.00,1.11
8134.00,1.11
8133.00,1.10
8132.00,1.10
8131.00,1.10
8130.00,1.10
8129.00,1.10
8128.00,1.10
8127.00,1.10
8126.00,1.10
8125.00,1.10
8124.00,1.10
8123.00,1.10
8122.00,1.10
8121.00,1.10
8120.00,1.10
8119.00,1.11
8118.00,1.11
8117.00,1.11
8116.00,1.11
8115.00,1.11
8114.00,1.11
8113.00,1.11
8112.00,1.11
8111.00,1.11
8110.00,1.11
8109.00,1.11
8108.00,1.11
8107.00,1.11
8106.00,1.11
8105.00,1.11
8104.00,1.11
8103.00,1.11
8102.00,1.11
8101.00,1.11
8100.00,1.11
8099.00,1.11
8098.00,1.11
8097.00,1.11
8096.00,1.11
8095.00,1.11
8094.00,1.11
8093.00,1.11
8092.00,1.11
8091.00,1.11
8090.00,1.11
8089.00,1.11
8088.00,1.11
8087.00,1.12
8086.00,1.12
8085.00,1.12
8084.00,1.12
8083.00,1.12
8082.00,1.12
8081.00,1.12
8080.00,1.12
8079.00,1.12
8078.00,1.12
8077.00,1.12
8076.00,1.12
8075.00,1.12
8074.00,1.12
8073.00,1.12
8072.00,1.12
8071.00,1.12
8070.00,1.12
8069.00,1.12
8068.00,1.12
8067.00,1.12
8066.00,1.12
8065.00,1.12
8064.00,1.12
8063.00,1.12
8062.00,1.12
8061.00,1.12
8060.00,1.12
8059.00,1.12
8058.00,1.12
8057.00,1.12
8056.00,1.12
8055.00,1.12
8054.00,1.12
8053.00,1.12
8052.00,1.12
8051.00,1.12
8050.00,1.12
8049.00,1.12
8048.00,1.13
8047.00,1.13
8046.00,1.13
8045.00,1.13
8044.00,1.13
8043.00,1.13
8042.00,1.13
8041.00,1.13
8040.00,1.13
8039.00,1.14
8038.00,1.14
8037.00,1.14
8036.00,1.14
8035.00,1.14
8034.00,1.14
8033.00,1.14
8032.00,1.13
8031.00,1.13
8030.00,1.13
8029.00,1.13
8028.00,1.13
8027.00,1.13
8026.00,1.13
8025.00,1.13
8024.00,1.13
8023.00,1.12
8022.00,1.12
8021.00,1.12
8020.00,1.12
8019.00,1.12
8018.00,1.12
8017.00,1.12
8016.00,1.12
8015.00,1.12
8014.00,1.12
8013.00,1.12
8012.00,1.12
8011.00,1.13
8010.00,1.13
8009.00,1.13
8008.00,1.13
8007.00,1.13
8006.00,1.13
8005.00,1.13
8004.00,1.13
8003.00,1.13
8002.00,1.14
8001.00,1.14
8000.00,1.14
7999.00,1.14
7998.00,1.14
7997.00,1.14
7996.00,1.14
7995.00,1.14
7994.00,1.14
7993.00,1.14
7992.00,1.14
7991.00,1.14
7990.00,1.14
7989.00,1.14
7988.00,1.14
7987.00,1.14
7986.00,1.14
7985.00,1.14
7984.00,1.14
7983.00,1.14
7982.00,1.14
7981.00,1.14
7980.00,1.14
7979.00,1.14
7978.00,1.14
7977.00,1.14
7976.00,1.14
7975.00,1.14
7974.00,1.14
7973.00,1.14
7972.00,1.14
7971.00,1.14
7970.00,1.14
7969.00,1.14
7968.00,1.15
7967.00,1.15
7966.00,1.15
7965.00,1.15
7964.00,1.15
7963.00,1.15
7962.00,1.15
7961.00,1.15
7960.00,1.15
7959.00,1.15
7958.00,1.15
7957.00,1.15
7956.00,1.15
7955.00,1.15
7954.00,1.15
7953.00,1.15
7952.00,1.15
7951.00,1.15
7950.00,1.15
7949.00,1.15
7948.00,1.15
7947.00,1.15
7946.00,1.15
7945.00,1.15
7944.00,1.15
7943.00,1.14
7942.00,1.14
7941.00,1.14
7940.00,1.14
7939.00,1.14
7938.00,1.14
7937.00,1.14
7936.00,1.14
7935.00,1.14
7934.00,1.14
7933.00,1.14
7932.00,1.14
7931.00,1.14
7930.00,1.14
7929.00,1.14
7928.00,1.14
7927.00,1.14
7926.00,1.14
7925.00,1.14
7924.00,1.14
7923.00,1.14
7922.00,1.14
7921.00,1.14
7920.00,1.14
7919.00,1.14
7918.00,1.14
7917.00,1.14
7916.00,1.14
7915.00,1.14
7914.00,1.14
7913.00,1.14
7912.00,1.14
7911.00,1.15
7910.00,1.15
7909.00,1.15
7908.00,1.15
7907.00,1.15
7906.00,1.15
7905.00,1.15
7904.00,1.15
7903.00,1.15
7902.00,1.15
7901.00,1.15
7900.00,1.15
7899.00,1.15
7898.00,1.15
7897.00,1.15
7896.00,1.15
7895.00,1.15
7894.00,1.15
7893.00,1.15
7892.00,1.15
7891.00,1.15
7890.00,1.15
7889.00,1.15
7888.00,1.15
7887.00,1.15
7886.00,1.15
7885.00,1.15
7884.00,1.15
7883.00,1.15
7882.00,1.15
7881.00,1.15
7880.00,1.15
7879.00,1.16
7878.00,1.16
7877.00,1.16
7876.00,1.16
7875.00,1.16
7874.00,1.16
7873.00,1.16
7872.00,1.16
7871.00,1.16
7870.00,1.16
7869.00,1.15
7868.00,1.15
7867.00,1.15
7866.00,1.15
7865.00,1.15
7864.00,1.15
7863.00,1.15
7862.00,1.15
7861.00,1.15
7860.00,1.15
7859.00,1.15
7858.00,1.15
7857.00,1.15
7856.00,1.15
7855.00,1.15
7854.00,1.15
7853.00,1.15
7852.00,1.15
7851.00,1.15
7850.00,1.15
7849.00,1.14
7848.00,1.14
7847.00,1.14
7846.00,1.14
7845.00,1.14
7844.00,1.14
7843.00,1.14
7842.00,1.14
7841.00,1.14
7840.00,1.14
7839.00,1.14
7838.00,1.14
7837.00,1.15
7836.00,1.15
7835.00,1.15
7834.00,1.15
7833.00,1.15
7832.00,1.15
7831.00,1.15
7830.00,1.15
7829.00,1.15
7828.00,1.15
7827.00,1.16
7826.00,1.16
7825.00,1.16
7824.00,1.16
7823.00,1.16
7822.00,1.16
7821.00,1.16
7820.00,1.16
7819.00,1.16
7818.00,1.16
7817.00,1.16
7816.00,1.16
7815.00,1.16
7814.00,1.16
7813.00,1.16
7812.00,1.16
7811.00,1.16
7810.00,1.16
7809.00,1.16
7808.00,1.16
7807.00,1.16
7806.00,1.16
7805.00,1.16
7804.00,1.16
7803.00,1.16
7802.00,1.16
7801.00,1.16
7800.00,1.16
7799.00,1.16
7798.00,1.16
7797.00,1.16
7796.00,1.16
7795.00,1.16
7794.00,1.16
7793.00,1.16
7792.00,1.16
7791.00,1.16
7790.00,1.16
7789.00,1.16
7788.00,1.16
7787.00,1.16
7786.00,1.16
7785.00,1.16
7784.00,1.16
7783.00,1.16
7782.00,1.16
7781.00,1.16
7780.00,1.16
7779.00,1.16
7778.00,1.16
7777.00,1.17
7776.00,1.17
7775.00,1.17
7774.00,1.17
7773.00,1.17
7772.00,1.17
7771.00,1.17
7770.00,1.17
7769.00,1.17
7768.00,1.17
7767.00,1.17
7766.00,1.17
7765.00,1.17
7764.00,1.17
7763.00,1.17
7762.00,1.17
7761.00,1.17
7760.00,1.17
7759.00,1.17
7758.00,1.17
7757.00,1.17
7756.00,1.17
7755.00,1.17
7754.00,1.17
7753.00,1.17
7752.00,1.17
7751.00,1.17
7750.00,1.17
7749.00,1.17
7748.00,1.17
7747.00,1.17
7746.00,1.17
7745.00,1.17
7744.00,1.17
7743.00,1.17
7742.00,1.17
7741.00,1.17
7740.00,1.17
7739.00,1.17
7738.00,1.17
7737.00,1.17
7736.00,1.17
7735.00,1.16
7734.00,1.16
7733.00,1.16
7732.00,1.16
7731.00,1.16
7730.00,1.16
7729.00,1.16
7728.00,1.16
7727.00,1.16
7726.00,1.16
7725.00,1.16
7724.00,1.16
7723.00,1.16
7722.00,1.16
7721.00,1.16
7720.00,1.16
7719.00,1.16
7718.00,1.16
7717.00,1.16
7716.00,1.16
7715.00,1.16
7714.00,1.16
7713.00,1.16
7712.00,1.17
7711.00,1.17
7710.00,1.17
7709.00,1.17
7708.00,1.17
7707.00,1.17
7706.00,1.17
7705.00,1.17
7704.00,1.17
7703.00,1.17
7702.00,1.17
7701.00,1.17
7700.00,1.17
7699.00,1.17
7698.00,1.17
7697.00,1.17
7696.00,1.17
7695.00,1.17
7694.00,1.17
7693.00,1.17
7692.00,1.17
7691.00,1.17
7690.00,1.17
7689.00,1.17
7688.00,1.17
7687.00,1.17
7686.00,1.17
7685.00,1.17
7684.00,1.17
7683.00,1.17
7682.00,1.17
7681.00,1.17
7680.00,1.17
7679.00,1.17
7678.00,1.17
7677.00,1.17
7676.00,1.17
7675.00,1.17
7674.00,1.17
7673.00,1.17
7672.00,1.17
7671.00,1.17
7670.00,1.17
7669.00,1.17
7668.00,1.17
7667.00,1.17
7666.00,1.17
7665.00,1.17
7664.00,1.17
7663.00,1.17
7662.00,1.17
7661.00,1.17
7660.00,1.17
7659.00,1.17
7658.00,1.17
7657.00,1.17
7656.00,1.17
7655.00,1.17
7654.00,1.17
7653.00,1.17
7652.00,1.17
7651.00,1.17
7650.00,1.17
7649.00,1.17
7648.00,1.17
7647.00,1.17
7646.00,1.17
7645.00,1.17
7644.00,1.17
7643.00,1.17
7642.00,1.17
7641.00,1.17
7640.00,1.17
7639.00,1.17
7638.00,1.17
7637.00,1.17
7636.00,1.17
7635.00,1.17
7634.00,1.17
7633.00,1.17
7632.00,1.17
7631.00,1.17
7630.00,1.17
7629.00,1.17
7628.00,1.17
7627.00,1.17
7626.00,1.17
7625.00,1.17
7624.00,1.17
7623.00,1.17
7622.00,1.17
7621.00,1.17
7620.00,1.17
7619.00,1.16
7618.00,1.16
7617.00,1.16
7616.00,1.16
7615.00,1.16
7614.00,1.16
7613.00,1.16
7612.00,1.16
7611.00,1.16
7610.00,1.16
7609.00,1.16
7608.00,1.16
7607.00,1.16
7606.00,1.16
7605.00,1.16
7604.00,1.16
7603.00,1.16
7602.00,1.16
7601.00,1.16
7600.00,1.16
7599.00,1.17
7598.00,1.17
7597.00,1.17
7596.00,1.17
7595.00,1.17
7594.00,1.17
7593.00,1.17
7592.00,1.17
7591.00,1.17
7590.00,1.17
7589.00,1.17
7588.00,1.17
7587.00,1.17
7586.00,1.17
7585.00,1.17
7584.00,1.17
7583.00,1.17
7582.00,1.17
7581.00,1.17
7580.00,1.17
7579.00,1.17
7578.00,1.17
7577.00,1.17
7576.00,1.17
7575.00,1.17
7574.00,1.17
7573.00,1.17
7572.00,1.17
7571.00,1.17
7570.00,1.17
7569.00,1.16
7568.00,1.16
7567.00,1.16
7566.00,1.16
7565.00,1.16
7564.00,1.16
7563.00,1.16
7562.00,1.16
7561.00,1.16
7560.00,1.16
7559.00,1.16
7558.00,1.16
7557.00,1.16
7556.00,1.16
7555.00,1.16
7554.00,1.16
7553.00,1.16
7552.00,1.16
7551.00,1.16
7550.00,1.16
7549.00,1.16
7548.00,1.16
7547.00,1.16
7546.00,1.16
7545.00,1.16
7544.00,1.16
7543.00,1.16
7542.00,1.16
7541.00,1.16
7540.00,1.16
7539.00,1.16
7538.00,1.16
7537.00,1.16
7536.00,1.16
7535.00,1.16
7534.00,1.16
7533.00,1.16
7532.00,1.16
7531.00,1.16
7530.00,1.16
7529.00,1.16
7528.00,1.16
7527.00,1.16
7526.00,1.16
7525.00,1.16
7524.00,1.16
7523.00,1.16
7522.00,1.15
7521.00,1.15
7520.00,1.15
7519.00,1.15
7518.00,1.15
7517.00,1.15
7516.00,1.15
7515.00,1.15
7514.00,1.15
7513.00,1.14
7512.00,1.14
7511.00,1.14
7510.00,1.14
7509.00,1.14
7508.00,1.14
7507.00,1.14
7506.00,1.14
7505.00,1.14
7504.00,1.14
7503.00,1.14
7502.00,1.14
7501.00,1.14
7500.00,1.14
7499.00,1.14
7498.00,1.13
7497.00,1.13
7496.00,1.13
7495.00,1.13
7494.00,1.13
7493.00,1.13
7492.00,1.13
7491.00,1.13
7490.00,1.13
7489.00,1.14
7488.00,1.14
7487.00,1.14
7486.00,1.14
7485.00,1.14
7484.00,1.14
7483.00,1.14
7482.00,1.14
7481.00,1.14
7480.00,1.14
7479.00,1.14
7478.00,1.14
7477.00,1.14
7476.00,1.14
7475.00,1.14
7474.00,1.14
7473.00,1.14
7472.00,1.14
7471.00,1.14
7470.00,1.14
7469.00,1.14
7468.00,1.14
7467.00,1.14
7466.00,1.14
7465.00,1.14
7464.00,1.14
7463.00,1.14
7462.00,1.13
7461.00,1.13
7460.00,1.13
7459.00,1.13
7458.00,1.13
7457.00,1.13
7456.00,1.13
7455.00,1.13
7454.00,1.13
7453.00,1.13
7452.00,1.13
7451.00,1.13
7450.00,1.13
7449.00,1.13
7448.00,1.13
7447.00,1.13
7446.00,1.12
7445.00,1.12
7444.00,1.12
7443.00,1.12
7442.00,1.12
7441.00,1.12
7440.00,1.12
7439.00,1.12
7438.00,1.12
7437.00,1.12
7436.00,1.12
7435.00,1.12
7434.00,1.12
7433.00,1.12
7432.00,1.12
7431.00,1.12
7430.00,1.12
7429.00,1.11
7428.00,1.11
7427.00,1.11
7426.00,1.11
7425.00,1.11
7424.00,1.11
7423.00,1.11
7422.00,1.11
7421.00,1.11
7420.00,1.11
7419.00,1.11
7418.00,1.10
7417.00,1.10
7416.00,1.10
7415.00,1.10
7414.00,1.10
7413.00,1.10
7412.00,1.11
7411.00,1.11
7410.00,1.11
7409.00,1.11
7408.00,1.10
7407.00,1.10
7406.00,1.10
7405.00,1.10
7404.00,1.10
7403.00,1.10
7402.00,1.10
7401.00,1.10
7400.00,1.10
7399.00,1.10
7398.00,1.10
7397.00,1.10
7396.00,1.10
7395.00,1.09
7394.00,1.09
7393.00,1.09
7392.00,1.09
7391.00,1.09
7390.00,1.09
7389.00,1.08
7388.00,1.08
7387.00,1.08
7386.00,1.08
7385.00,1.08
7384.00,1.08
7383.00,1.08
7382.00,1.08
7381.00,1.07
7380.00,1.07
7379.00,1.07
7378.00,1.07
7377.00,1.07
7376.00,1.07
7375.00,1.07
7374.00,1.07
7373.00,1.07
7372.00,1.07
7371.00,1.07
7370.00,1.07
7369.00,1.07
7368.00,1.07
7367.00,1.07
7366.00,1.07
7365.00,1.07
7364.00,1.07
7363.00,1.07
7362.00,1.07
7361.00,1.07
7360.00,1.07
7359.00,1.06
7358.00,1.06
7357.00,1.06
7356.00,1.06
7355.00,1.06
7354.00,1.06
7353.00,1.06
7352.00,1.06
7351.00,1.06
7350.00,1.06
7349.00,1.06
7348.00,1.06
7347.00,1.06
7346.00,1.06
7345.00,1.06
7344.00,1.06
7343.00,1.06
7342.00,1.06
7341.00,1.06
7340.00,1.06
7339.00,1.06
7338.00,1.06
7337.00,1.06
7336.00,1.06
7335.00,1.06
7334.00,1.06
7333.00,1.06
7332.00,1.06
7331.00,1.06
7330.00,1.06
7329.00,1.06
7328.00,1.06
7327.00,1.06
7326.00,1.05
7325.00,1.05
7324.00,1.05
7323.00,1.05
7322.00,1.05
7321.00,1.05
7320.00,1.05
7319.00,1.05
7318.00,1.05
7317.00,1.05
7316.00,1.05
7315.00,1.05
7314.00,1.05
7313.00,1.04
7312.00,1.04
7311.00,1.04
7310.00,1.04
7309.00,1.04
7308.00,1.04
7307.00,1.04
7306.00,1.04
7305.00,1.04
7304.00,1.04
7303.00,1.04
7302.00,1.04
7301.00,1.04
7300.00,1.03
7299.00,1.03
7298.00,1.03
7297.00,1.03
7296.00,1.03
7295.00,1.03
7294.00,1.03
7293.00,1.03
7292.00,1.03
7291.00,1.03
7290.00,1.03
7289.00,1.03
7288.00,1.03
7287.00,1.03
7286.00,1.02
7285.00,1.02
7284.00,1.02
7283.00,1.02
7282.00,1.02
7281.00,1.02
7280.00,1.02
7279.00,1.02
7278.00,1.02
7277.00,1.02
7276.00,1.02
7275.00,1.02
7274.00,1.02
7273.00,1.02
7272.00,1.02
7271.00,1.01
7270.00,1.01
7269.00,1.01
7268.00,1.01
7267.00,1.01
7266.00,1.01
7265.00,1.01
7264.00,1.01
7263.00,1.01
7262.00,1.01
7261.00,1.01
7260.00,1.01
7259.00,1.01
7258.00,1.01
7257.00,1.00
7256.00,1.00
7255.00,1.00
7254.00,1.00
7253.00,1.00
7252.00,0.99
7251.00,0.99
7250.00,0.99
7249.00,0.99
7248.00,0.98
7247.00,0.98
7246.00,0.98
7245.00,0.98
7244.00,0.97
7243.00,0.97
7242.00,0.97
7241.00,0.96
7240.00,0.96
7239.00,0.96
7238.00,0.95
7237.00,0.95
7236.00,0.95
7235.00,0.95
7234.00,0.94
7233.00,0.94
7232.00,0.94
7231.00,0.94
7230.00,0.93
7229.00,0.93
7228.00,0.93
7227.00,0.93
7226.00,0.93
7225.00,0.93
7224.00,0.93
7223.00,0.92
7222.00,0.92
7221.00,0.92
7220.00,0.92
7219.00,0.92
7218.00,0.92
7217.00,0.91
7216.00,0.91
7215.00,0.91
7214.00,0.91
7213.00,0.91
7212.00,0.90
7211.00,0.90
7210.00,0.90
7209.00,0.90
7208.00,0.90
7207.00,0.89
7206.00,0.89
7205.00,0.89
7204.00,0.89
7203.00,0.88
7202.00,0.88
7201.00,0.88
7200.00,0.88
7199.00,0.88
7198.00,0.87
7197.00,0.87
7196.00,0.87
7195.00,0.87
7194.00,0.87
7193.00,0.86
7192.00,0.86
7191.00,0.86
7190.00,0.86
7189.00,0.85
7188.00,0.85
7187.00,0.85
7186.00,0.84
7185.00,0.84
7184.00,0.84
7183.00,0.84
7182.00,0.83
7181.00,0.83
7180.00,0.83
7179.00,0.82
7178.00,0.82
7177.00,0.82
7176.00,0.81
7175.00,0.81
7174.00,0.81
7173.00,0.80
7172.00,0.80
7171.00,0.80
7170.00,0.79
7169.00,0.79
7168.00,0.79
7167.00,0.79
7166.00,0.78
7165.00,0.78
7164.00,0.78
7163.00,0.78
7162.00,0.78
7161.00,0.77
7160.00,0.77
7159.00,0.77
7158.00,0.77
7157.00,0.77
7156.00,0.77
7155.00,0.77
7154.00,0.77
7153.00,0.76
7152.00,0.76
7151.00,0.76
7150.00,0.76
7149.00,0.76
7148.00,0.76
7147.00,0.76
7146.00,0.76
7145.00,0.75
7144.00,0.75
7143.00,0.75
7142.00,0.75
7141.00,0.75
7140.00,0.74
7139.00,0.74
7138.00,0.74
7137.00,0.74
7136.00,0.74
7135.00,0.73
7134.00,0.73
7133.00,0.73
7132.00,0.73
7131.00,0.72
7130.00,0.72
7129.00,0.72
7128.00,0.72
7127.00,0.72
7126.00,0.71
7125.00,0.71
7124.00,0.71
7123.00,0.71
7122.00,0.71
7121.00,0.70
7120.00,0.70
7119.00,0.70
7118.00,0.70
7117.00,0.69
7116.00,0.69
7115.00,0.69
7114.00,0.68
7113.00,0.68
7112.00,0.68
7111.00,0.68
7110.00,0.67
7109.00,0.67
7108.00,0.67
7107.00,0.67
7106.00,0.67
7105.00,0.66
7104.00,0.66
7103.00,0.66
7102.00,0.66
7101.00,0.66
7100.00,0.65
7099.00,0.65
7098.00,0.65
7097.00,0.65
7096.00,0.65
7095.00,0.65
7094.00,0.65
7093.00,0.64
7092.00,0.64
7091.00,0.64
7090.00,0.64
7089.00,0.64
7088.00,0.64
7087.00,0.64
7086.00,0.64
7085.00,0.64
7084.00,0.64
7083.00,0.64
7082.00,0.63
7081.00,0.63
7080.00,0.63
7079.00,0.63
7078.00,0.63
7077.00,0.63
7076.00,0.63
7075.00,0.63
7074.00,0.63
7073.00,0.63
7072.00,0.63
7071.00,0.63
7070.00,0.63
7069.00,0.63
7068.00,0.62
7067.00,0.62
7066.00,0.62
7065.00,0.62
7064.00,0.62
7063.00,0.62
7062.00,0.62
7061.00,0.62
7060.00,0.62
7059.00,0.62
7058.00,0.62
7057.00,0.62
7056.00,0.62
7055.00,0.62
7054.00,0.62
7053.00,0.62
7052.00,0.62
7051.00,0.62
7050.00,0.62
7049.00,0.62
7048.00,0.62
7047.00,0.61
7046.00,0.61
7045.00,0.61
7044.00,0.61
7043.00,0.61
7042.00,0.61
7041.00,0.61
7040.00,0.61
7039.00,0.61
7038.00,0.60
7037.00,0.60
7036.00,0.60
7035.00,0.60
7034.00,0.60
7033.00,0.60
7032.00,0.60
7031.00,0.60
7030.00,0.60
7029.00,0.60
7028.00,0.60
7027.00,0.59
7026.00,0.59
7025.00,0.59
7024.00,0.59
7023.00,0.59
7022.00,0.59
7021.00,0.59
7020.00,0.59
7019.00,0.59
7018.00,0.58
7017.00,0.58
7016.00,0.58
7015.00,0.58
7014.00,0.58
7013.00,0.58
7012.00,0.58
7011.00,0.58
7010.00,0.58
7009.00,0.58
7008.00,0.58
7007.00,0.58
7006.00,0.58
7005.00,0.58
7004.00,0.58
7003.00,0.58
7002.00,0.58
7001.00,0.58
7000.00,0.58
6999.00,0.58
6998.00,0.58
6997.00,0.58
6996.00,0.58
6995.00,0.58
6994.00,0.58
6993.00,0.57
6992.00,0.57
6991.00,0.57
6990.00,0.57
6989.00,0.57
6988.00,0.57
6987.00,0.57
6986.00,0.57
6985.00,0.57
6984.00,0.57
6983.00,0.57
6982.00,0.57
6981.00,0.57
6980.00,0.57
6979.00,0.57
6978.00,0.57
6977.00,0.57
6976.00,0.57
6975.00,0.57
6974.00,0.57
6973.00,0.57
6972.00,0.57
6971.00,0.57
6970.00,0.57
6969.00,0.57
6968.00,0.57
6967.00,0.57
6966.00,0.57
6965.00,0.57
6964.00,0.57
6963.00,0.57
6962.00,0.57
6961.00,0.57
6960.00,0.57
6959.00,0.57
6958.00,0.57
6957.00,0.57
6956.00,0.57
6955.00,0.57
6954.00,0.57
6953.00,0.57
6952.00,0.57
6951.00,0.57
6950.00,0.57
6949.00,0.57
6948.00,0.57
6947.00,0.57
6946.00,0.57
6945.00,0.57
6944.00,0.56
6943.00,0.56
6942.00,0.56
6941.00,0.56
6940.00,0.56
6939.00,0.56
6938.00,0.56
6937.00,0.56
6936.00,0.56
6935.00,0.56
6934.00,0.56
6933.00,0.56
6932.00,0.56
6931.00,0.56
6930.00,0.56
6929.00,0.56
6928.00,0.56
6927.00,0.56
6926.00,0.56
6925.00,0.55
6924.00,0.55
6923.00,0.55
6922.00,0.55
6921.00,0.55
6920.00,0.55
6919.00,0.55
6918.00,0.55
6917.00,0.55
6916.00,0.55
6915.00,0.55
6914.00,0.55
6913.00,0.55
6912.00,0.55
6911.00,0.55
6910.00,0.55
6909.00,0.55
6908.00,0.55
6907.00,0.55
6906.00,0.55
6905.00,0.55
6904.00,0.55
6903.00,0.55
6902.00,0.55
6901.00,0.55
6900.00,0.55
6899.00,0.56
6898.00,0.56
6897.00,0.56
6896.00,0.56
6895.00,0.56
6894.00,0.56
6893.00,0.56
6892.00,0.56
6891.00,0.56
6890.00,0.56
6889.00,0.56
6888.00,0.56
6887.00,0.56
6886.00,0.56
6885.00,0.56
6884.00,0.55
6883.00,0.55
6882.00,0.55
6881.00,0.55
6880.00,0.55
6879.00,0.55
6878.00,0.55
6877.00,0.55
6876.00,0.55
6875.00,0.55
6874.00,0.55
6873.00,0.55
6872.00,0.55
6871.00,0.55
6870.00,0.55
6869.00,0.55
6868.00,0.55
6867.00,0.55
6866.00,0.55
6865.00,0.55
6864.00,0.55
6863.00,0.55
6862.00,0.55
6861.00,0.55
6860.00,0.55
6859.00,0.55
6858.00,0.55
6857.00,0.55
6856.00,0.55
6855.00,0.55
6854.00,0.55
6853.00,0.55
6852.00,0.55
6851.00,0.55
6850.00,0.55
6849.00,0.55
6848.00,0.55
6847.00,0.55
6846.00,0.55
6845.00,0.55
6844.00,0.55
6843.00,0.55
6842.00,0.55
6841.00,0.55
6840.00,0.55
6839.00,0.55
6838.00,0.55
6837.00,0.55
6836.00,0.55
6835.00,0.55
6834.00,0.55
6833.00,0.55
6832.00,0.56
6831.00,0.56
6830.00,0.56
6829.00,0.56
6828.00,0.56
6827.00,0.56
6826.00,0.56
6825.00,0.56
6824.00,0.56
6823.00,0.56
6822.00,0.56
6821.00,0.56
6820.00,0.56
6819.00,0.56
6818.00,0.56
6817.00,0.56
6816.00,0.56
6815.00,0.56
6814.00,0.56
6813.00,0.56
6812.00,0.56
6811.00,0.56
6810.00,0.56
6809.00,0.56
6808.00,0.56
6807.00,0.56
6806.00,0.56
6805.00,0.56
6804.00,0.56
6803.00,0.56
6802.00,0.56
6801.00,0.56
6800.00,0.56
6799.00,0.56
6798.00,0.56
6797.00,0.56
6796.00,0.56
6795.00,0.57
6794.00,0.57
6793.00,0.57
6792.00,0.57
6791.00,0.57
6790.00,0.57
6789.00,0.57
6788.00,0.57
6787.00,0.57
6786.00,0.57
6785.00,0.57
6784.00,0.57
6783.00,0.57
6782.00,0.57
6781.00,0.57
6780.00,0.57
6779.00,0.57
6778.00,0.57
6777.00,0.57
6776.00,0.57
6775.00,0.57
6774.00,0.57
6773.00,0.57
6772.00,0.57
6771.00,0.57
6770.00,0.57
6769.00,0.57
6768.00,0.57
6767.00,0.57
6766.00,0.57
6765.00,0.57
6764.00,0.57
6763.00,0.57
6762.00,0.57
6761.00,0.57
6760.00,0.57
6759.00,0.57
6758.00,0.57
6757.00,0.57
6756.00,0.57
6755.00,0.57
6754.00,0.57
6753.00,0.58
6752.00,0.58
6751.00,0.58
6750.00,0.58
6749.00,0.58
6748.00,0.58
6747.00,0.58
6746.00,0.58
6745.00,0.58
6744.00,0.58
6743.00,0.58
6742.00,0.58
6741.00,0.58
6740.00,0.58
6739.00,0.58
6738.00,0.58
6737.00,0.58
6736.00,0.58
6735.00,0.58
6734.00,0.58
6733.00,0.58
6732.00,0.58
6731.00,0.58
6730.00,0.58
6729.00,0.58
6728.00,0.59
6727.00,0.59
6726.00,0.59
6725.00,0.59
6724.00,0.59
6723.00,0.59
6722.00,0.59
6721.00,0.59
6720.00,0.59
6719.00,0.59
6718.00,0.59
6717.00,0.60
6716.00,0.60
6715.00,0.60
6714.00,0.60
6713.00,0.60
6712.00,0.60
6711.00,0.60
6710.00,0.60
6709.00,0.60
6708.00,0.60
6707.00,0.60
6706.00,0.60
6705.00,0.60
6704.00,0.60
6703.00,0.60
6702.00,0.60
6701.00,0.60
6700.00,0.60
6699.00,0.60
6698.00,0.60
6697.00,0.60
6696.00,0.60
6695.00,0.60
6694.00,0.60
6693.00,0.60
6692.00,0.60
6691.00,0.60
6690.00,0.61
6689.00,0.61
6688.00,0.61
6687.00,0.61
6686.00,0.61
6685.00,0.61
6684.00,0.61
6683.00,0.61
6682.00,0.61
6681.00,0.61
6680.00,0.61
6679.00,0.61
6678.00,0.62
6677.00,0.62
6676.00,0.62
6675.00,0.62
6674.00,0.62
6673.00,0.62
6672.00,0.62
6671.00,0.62
6670.00,0.62
6669.00,0.62
6668.00,0.62
6667.00,0.62
6666.00,0.62
6665.00,0.62
6664.00,0.62
6663.00,0.63
6662.00,0.63
6661.00,0.63
6660.00,0.63
6659.00,0.63
6658.00,0.63
6657.00,0.63
6656.00,0.63
6655.00,0.63
6654.00,0.63
6653.00,0.63
6652.00,0.63
6651.00,0.63
6650.00,0.63
6649.00,0.63
6648.00,0.63
6647.00,0.63
6646.00,0.63
6645.00,0.64
6644.00,0.64
6643.00,0.64
6642.00,0.64
6641.00,0.64
6640.00,0.64
6639.00,0.64
6638.00,0.64
6637.00,0.64
6636.00,0.64
6635.00,0.64
6634.00,0.64
6633.00,0.64
6632.00,0.64
6631.00,0.65
6630.00,0.65
6629.00,0.65
6628.00,0.65
6627.00,0.65
6626.00,0.65
6625.00,0.65
6624.00,0.65
6623.00,0.65
6622.00,0.65
6621.00,0.65
6620.00,0.66
6619.00,0.66
6618.00,0.66
6617.00,0.66
6616.00,0.66
6615.00,0.66
6614.00,0.66
6613.00,0.66
6612.00,0.66
6611.00,0.66
6610.00,0.66
6609.00,0.66
6608.00,0.66
6607.00,0.66
6606.00,0.67
6605.00,0.67
6604.00,0.67
6603.00,0.67
6602.00,0.67
6601.00,0.67
6600.00,0.67
6599.00,0.67
6598.00,0.67
6597.00,0.67
6596.00,0.67
6595.00,0.67
6594.00,0.68
6593.00,0.68
6592.00,0.68
6591.00,0.68
6590.00,0.68
6589.00,0.68
6588.00,0.68
6587.00,0.68
6586.00,0.68
6585.00,0.68
6584.00,0.68
6583.00,0.68
6582.00,0.68
6581.00,0.68
6580.00,0.68
6579.00,0.68
6578.00,0.68
6577.00,0.68
6576.00,0.68
6575.00,0.68
6574.00,0.68
6573.00,0.68
6572.00,0.68
6571.00,0.68
6570.00,0.69
6569.00,0.69
6568.00,0.69
6567.00,0.69
6566.00,0.69
6565.00,0.69
6564.00,0.69
6563.00,0.69
6562.00,0.69
6561.00,0.69
6560.00,0.69
6559.00,0.70
6558.00,0.70
6557.00,0.70
6556.00,0.70
6555.00,0.70
6554.00,0.70
6553.00,0.70
6552.00,0.70
6551.00,0.70
6550.00,0.70
6549.00,0.70
6548.00,0.70
6547.00,0.70
6546.00,0.70
6545.00,0.70
6544.00,0.70
6543.00,0.70
6542.00,0.70
6541.00,0.70
6540.00,0.70
6539.00,0.70
6538.00,0.70
6537.00,0.70
6536.00,0.70
6535.00,0.71
6534.00,0.71
6533.00,0.71
6532.00,0.71
6531.00,0.71
6530.00,0.71
6529.00,0.71
6528.00,0.71
6527.00,0.71
6526.00,0.71
6525.00,0.71
6524.00,0.71
6523.00,0.72
6522.00,0.72
6521.00,0.72
6520.00,0.72
6519.00,0.72
6518.00,0.72
6517.00,0.72
6516.00,0.72
6515.00,0.72
6514.00,0.72
6513.00,0.72
6512.00,0.72
6511.00,0.72
6510.00,0.72
6509.00,0.72
6508.00,0.72
6507.00,0.72
6506.00,0.72
6505.00,0.72
6504.00,0.72
6503.00,0.73
6502.00,0.73
6501.00,0.73
6500.00,0.73
6499.00,0.73
6498.00,0.73
6497.00,0.73
6496.00,0.73
6495.00,0.73
6494.00,0.73
6493.00,0.73
6492.00,0.73
6491.00,0.73
6490.00,0.73
6489.00,0.73
6488.00,0.74
6487.00,0.74
6486.00,0.74
6485.00,0.74
6484.00,0.74
6483.00,0.74
6482.00,0.74
6481.00,0.74
6480.00,0.74
6479.00,0.74
6478.00,0.74
6477.00,0.74
6476.00,0.74
6475.00,0.74
6474.00,0.74
6473.00,0.74
6472.00,0.74
6471.00,0.74
6470.00,0.74
6469.00,0.74
6468.00,0.74
6467.00,0.74
6466.00,0.74
6465.00,0.74
6464.00,0.74
6463.00,0.74
6462.00,0.74
6461.00,0.74
6460.00,0.74
6459.00,0.74
6458.00,0.74
6457.00,0.74
6456.00,0.74
6455.00,0.74
6454.00,0.75
6453.00,0.75
6452.00,0.75
6451.00,0.75
6450.00,0.75
6449.00,0.75
6448.00,0.75
6447.00,0.75
6446.00,0.75
6445.00,0.75
6444.00,0.75
6443.00,0.75
6442.00,0.75
6441.00,0.75
6440.00,0.75
6439.00,0.75
6438.00,0.75
6437.00,0.75
6436.00,0.75
6435.00,0.75
6434.00,0.75
6433.00,0.75
6432.00,0.75
6431.00,0.75
6430.00,0.75
6429.00,0.75
6428.00,0.75
6427.00,0.75
6426.00,0.75
6425.00,0.75
6424.00,0.75
6423.00,0.75
6422.00,0.75
6421.00,0.75
6420.00,0.76
6419.00,0.76
6418.00,0.76
6417.00,0.76
6416.00,0.76
6415.00,0.76
6414.00,0.76
6413.00,0.76
6412.00,0.76
6411.00,0.76
6410.00,0.76
6409.00,0.76
6408.00,0.76
6407.00,0.76
6406.00,0.77
6405.00,0.77
6404.00,0.77
6403.00,0.77
6402.00,0.77
6401.00,0.77
6400.00,0.77
6399.00,0.77
6398.00,0.77
6397.00,0.77
6396.00,0.77
6395.00,0.77
6394.00,0.77
6393.00,0.77
6392.00,0.77
6391.00,0.77
6390.00,0.77
6389.00,0.77
6388.00,0.78
6387.00,0.78
6386.00,0.78
6385.00,0.78
6384.00,0.78
6383.00,0.78
6382.00,0.78
6381.00,0.78
6380.00,0.78
6379.00,0.78
6378.00,0.78
6377.00,0.78
6376.00,0.78
6375.00,0.78
6374.00,0.79
6373.00,0.79
6372.00,0.79
6371.00,0.79
6370.00,0.79
6369.00,0.79
6368.00,0.79
6367.00,0.79
6366.00,0.79
6365.00,0.79
6364.00,0.79
6363.00,0.79
6362.00,0.79
6361.00,0.79
6360.00,0.79
6359.00,0.79
6358.00,0.79
6357.00,0.79
6356.00,0.79
6355.00,0.79
6354.00,0.79
6353.00,0.79
6352.00,0.79
6351.00,0.79
6350.00,0.80
6349.00,0.80
6348.00,0.80
6347.00,0.80
6346.00,0.80
6345.00,0.80
6344.00,0.80
6343.00,0.80
6342.00,0.80
6341.00,0.80
6340.00,0.80
6339.00,0.80
6338.00,0.80
6337.00,0.81
6336.00,0.81
6335.00,0.81
6334.00,0.81
6333.00,0.81
6332.00,0.81
6331.00,0.81
6330.00,0.81
6329.00,0.81
6328.00,0.81
6327.00,0.81
6326.00,0.81
6325.00,0.81
6324.00,0.82
6323.00,0.82
6322.00,0.82
6321.00,0.82
6320.00,0.82
6319.00,0.82
6318.00,0.82
6317.00,0.82
6316.00,0.82
6315.00,0.82
6314.00,0.82
6313.00,0.82
6312.00,0.82
6311.00,0.82
6310.00,0.82
6309.00,0.82
6308.00,0.83
6307.00,0.83
6306.00,0.83
6305.00,0.83
6304.00,0.83
6303.00,0.83
6302.00,0.83
6301.00,0.83
6300.00,0.83
6299.00,0.83
6298.00,0.83
6297.00,0.83
6296.00,0.84
6295.00,0.84
6294.00,0.84
6293.00,0.84
6292.00,0.84
6291.00,0.84
6290.00,0.84
6289.00,0.84
6288.00,0.84
6287.00,0.84
6286.00,0.84
6285.00,0.84
6284.00,0.84
6283.00,0.84
6282.00,0.84
6281.00,0.84
6280.00,0.84
6279.00,0.84
6278.00,0.85
6277.00,0.85
6276.00,0.85
6275.00,0.85
6274.00,0.85
6273.00,0.85
6272.00,0.85
6271.00,0.85
6270.00,0.85
6269.00,0.86
6268.00,0.86
6267.00,0.86
6266.00,0.86
6265.00,0.86
6264.00,0.86
6263.00,0.86
6262.00,0.86
6261.00,0.86
6260.00,0.86
6259.00,0.87
6258.00,0.87
6257.00,0.87
6256.00,0.87
6255.00,0.87
6254.00,0.87
6253.00,0.87
6252.00,0.87
6251.00,0.87
6250.00,0.87
6249.00,0.87
6248.00,0.88
6247.00,0.88
6246.00,0.88
6245.00,0.88
6244.00,0.88
6243.00,0.88
6242.00,0.88
6241.00,0.88
6240.00,0.88
6239.00,0.88
6238.00,0.89
6237.00,0.89
6236.00,0.89
6235.00,0.89
6234.00,0.89
6233.00,0.89
6232.00,0.89
6231.00,0.89
6230.00,0.89
6229.00,0.89
6228.00,0.90
6227.00,0.90
6226.00,0.90
6225.00,0.90
6224.00,0.90
6223.00,0.90
6222.00,0.90
6221.00,0.90
6220.00,0.90
6219.00,0.90
6218.00,0.90
6217.00,0.90
6216.00,0.91
6215.00,0.91
6214.00,0.91
6213.00,0.91
6212.00,0.91
6211.00,0.91
6210.00,0.91
6209.00,0.91
6208.00,0.91
6207.00,0.91
6206.00,0.91
6205.00,0.91
6204.00,0.91
6203.00,0.92
6202.00,0.92
6201.00,0.92
6200.00,0.92
6199.00,0.92
6198.00,0.92
6197.00,0.92
6196.00,0.92
6195.00,0.92
6194.00,0.92
6193.00,0.92
6192.00,0.93
6191.00,0.93
6190.00,0.93
6189.00,0.93
6188.00,0.93
6187.00,0.93
6186.00,0.93
6185.00,0.93
6184.00,0.93
6183.00,0.93
6182.00,0.94
6181.00,0.94
6180.00,0.94
6179.00,0.94
6178.00,0.94
6177.00,0.94
6176.00,0.94
6175.00,0.94
6174.00,0.94
6173.00,0.95
6172.00,0.95
6171.00,0.95
6170.00,0.95
6169.00,0.95
6168.00,0.95
6167.00,0.95
6166.00,0.95
6165.00,0.95
6164.00,0.95
6163.00,0.95
6162.00,0.96
6161.00,0.96
6160.00,0.96
6159.00,0.96
6158.00,0.96
6157.00,0.96
6156.00,0.96
6155.00,0.96
6154.00,0.96
6153.00,0.96
6152.00,0.97
6151.00,0.97
6150.00,0.97
6149.00,0.97
6148.00,0.97
6147.00,0.97
6146.00,0.97
6145.00,0.97
6144.00,0.97
6143.00,0.98
6142.00,0.98
6141.00,0.98
6140.00,0.98
6139.00,0.98
6138.00,0.98
6137.00,0.98
6136.00,0.98
6135.00,0.98
6134.00,0.99
6133.00,0.99
6132.00,0.99
6131.00,0.99
6130.00,0.99
6129.00,0.99
6128.00,0.99
6127.00,1.00
6126.00,1.00
6125.00,1.00
6124.00,1.00
6123.00,1.00
6122.00,1.00
6121.00,1.00
6120.00,1.01
6119.00,1.01
6118.00,1.01
6117.00,1.01
6116.00,1.01
6115.00,1.01
6114.00,1.01
6113.00,1.01
6112.00,1.02
6111.00,1.02
6110.00,1.02
6109.00,1.02
6108.00,1.02
6107.00,1.02
6106.00,1.02
6105.00,1.02
6104.00,1.02
6103.00,1.02
6102.00,1.02
6101.00,1.02
6100.00,1.02
6099.00,1.02
6098.00,1.03
6097.00,1.03
6096.00,1.03
6095.00,1.03
6094.00,1.03
6093.00,1.03
6092.00,1.03
6091.00,1.03
6090.00,1.04
6089.00,1.04
6088.00,1.04
6087.00,1.04
6086.00,1.04
6085.00,1.04
6084.00,1.04
6083.00,1.05
6082.00,1.05
6081.00,1.05
6080.00,1.05
6079.00,1.05
6078.00,1.05
6077.00,1.05
6076.00,1.05
6075.00,1.05
6074.00,1.05
6073.00,1.05
6072.00,1.06
6071.00,1.06
6070.00,1.06
6069.00,1.06
6068.00,1.06
6067.00,1.06
6066.00,1.06
6065.00,1.06
6064.00,1.06
6063.00,1.06
6062.00,1.06
6061.00,1.06
6060.00,1.06
6059.00,1.07
6058.00,1.07
6057.00,1.07
6056.00,1.07
6055.00,1.07
6054.00,1.07
6053.00,1.07
6052.00,1.07
6051.00,1.07
6050.00,1.07
6049.00,1.07
6048.00,1.07
6047.00,1.07
6046.00,1.07
6045.00,1.07
6044.00,1.07
6043.00,1.07
6042.00,1.08
6041.00,1.08
6040.00,1.08
6039.00,1.08
6038.00,1.08
6037.00,1.08
6036.00,1.08
6035.00,1.08
6034.00,1.08
6033.00,1.08
6032.00,1.08
6031.00,1.08
6030.00,1.08
6029.00,1.08
6028.00,1.08
6027.00,1.08
6026.00,1.08
6025.00,1.08
6024.00,1.08
6023.00,1.08
6022.00,1.08
6021.00,1.09
6020.00,1.09
6019.00,1.09
6018.00,1.09
6017.00,1.09
6016.00,1.09
6015.00,1.08
6014.00,1.08
6013.00,1.08
6012.00,1.08
6011.00,1.08
6010.00,1.08
6009.00,1.08
6008.00,1.08
6007.00,1.08
6006.00,1.08
6005.00,1.08
6004.00,1.08
6003.00,1.08
6002.00,1.08
6001.00,1.08
6000.00,1.08
5999.00,1.08
5998.00,1.08
5997.00,1.08
5996.00,1.08
5995.00,1.08
5994.00,1.08
5993.00,1.08
5992.00,1.08
5991.00,1.08
5990.00,1.07
5989.00,1.07
5988.00,1.07
5987.00,1.07
5986.00,1.07
5985.00,1.07
5984.00,1.07
5983.00,1.06
5982.00,1.06
5981.00,1.06
5980.00,1.06
5979.00,1.06
5978.00,1.05
5977.00,1.05
5976.00,1.05
5975.00,1.04
5974.00,1.04
5973.00,1.04
5972.00,1.03
5971.00,1.03
5970.00,1.02
5969.00,1.02
5968.00,1.01
5967.00,1.01
5966.00,1.00
5965.00,1.00
5964.00,0.99
5963.00,0.99
5962.00,0.98
5961.00,0.97
5960.00,0.97
5959.00,0.96
5958.00,0.96
5957.00,0.95
5956.00,0.95
5955.00,0.94
5954.00,0.94
5953.00,0.93
5952.00,0.93
5951.00,0.93
5950.00,0.92
5949.00,0.92
5948.00,0.92
5947.00,0.91
5946.00,0.91
5945.00,0.91
5944.00,0.91
5943.00,0.90
5942.00,0.90
5941.00,0.90
5940.00,0.90
5939.00,0.90
5938.00,0.90
5937.00,0.90
5936.00,0.90
5935.00,0.90
5934.00,0.90
5933.00,0.89
5932.00,0.89
5931.00,0.89
5930.00,0.89
5929.00,0.89
5928.00,0.89
5927.00,0.89
5926.00,0.89
5925.00,0.89
5924.00,0.89
5923.00,0.88
5922.00,0.88
5921.00,0.88
5920.00,0.88
5919.00,0.88
5918.00,0.88
5917.00,0.87
5916.00,0.87
5915.00,0.87
5914.00,0.87
5913.00,0.87
5912.00,0.86
5911.00,0.86
5910.00,0.86
5909.00,0.86
5908.00,0.86
5907.00,0.86
5906.00,0.86
5905.00,0.86
5904.00,0.86
5903.00,0.86
5902.00,0.86
5901.00,0.86
5900.00,0.86
5899.00,0.86
5898.00,0.86
5897.00,0.86
5896.00,0.86
5895.00,0.86
5894.00,0.86
5893.00,0.86
5892.00,0.87
5891.00,0.87
5890.00,0.87
5889.00,0.87
5888.00,0.87
5887.00,0.87
5886.00,0.88
5885.00,0.88
5884.00,0.88
5883.00,0.88
5882.00,0.88
5881.00,0.89
5880.00,0.89
5879.00,0.89
5878.00,0.89
5877.00,0.89
5876.00,0.90
5875.00,0.90
5874.00,0.90
5873.00,0.90
5872.00,0.90
5871.00,0.91
5870.00,0.91
5869.00,0.91
5868.00,0.91
5867.00,0.91
5866.00,0.91
5865.00,0.92
5864.00,0.92
5863.00,0.92
5862.00,0.92
5861.00,0.92
5860.00,0.92
5859.00,0.93
5858.00,0.93
5857.00,0.93
5856.00,0.93
5855.00,0.93
5854.00,0.93
5853.00,0.93
5852.00,0.93
5851.00,0.93
5850.00,0.93
5849.00,0.93
5848.00,0.93
5847.00,0.93
5846.00,0.93
5845.00,0.93
5844.00,0.93
5843.00,0.93
5842.00,0.93
5841.00,0.93
5840.00,0.93
5839.00,0.93
5838.00,0.93
5837.00,0.93
5836.00,0.93
5835.00,0.93
5834.00,0.93
5833.00,0.93
5832.00,0.93
5831.00,0.93
5830.00,0.93
5829.00,0.93
5828.00,0.93
5827.00,0.93
5826.00,0.93
5825.00,0.93
5824.00,0.93
5823.00,0.93
5822.00,0.93
5821.00,0.93
5820.00,0.93
5819.00,0.93
5818.00,0.93
5817.00,0.93
5816.00,0.93
5815.00,0.93
5814.00,0.93
5813.00,0.94
5812.00,0.94
5811.00,0.94
5810.00,0.94
5809.00,0.94
5808.00,0.94
5807.00,0.94
5806.00,0.93
5805.00,0.93
5804.00,0.93
5803.00,0.93
5802.00,0.93
5801.00,0.93
5800.00,0.93
5799.00,0.93
5798.00,0.93
5797.00,0.93
5796.00,0.93
5795.00,0.93
5794.00,0.92
5793.00,0.92
5792.00,0.92
5791.00,0.92
5790.00,0.92
5789.00,0.92
5788.00,0.92
5787.00,0.91
5786.00,0.91
5785.00,0.91
5784.00,0.91
5783.00,0.91
5782.00,0.91
5781.00,0.91
5780.00,0.90
5779.00,0.90
5778.00,0.90
5777.00,0.90
5776.00,0.90
5775.00,0.90
5774.00,0.90
5773.00,0.90
5772.00,0.90
5771.00,0.90
5770.00,0.90
5769.00,0.90
5768.00,0.90
5767.00,0.90
5766.00,0.90
5765.00,0.90
5764.00,0.90
5763.00,0.90
5762.00,0.90
5761.00,0.91
5760.00,0.91
5759.00,0.91
5758.00,0.91
5757.00,0.92
5756.00,0.92
5755.00,0.92
5754.00,0.93
5753.00,0.93
5752.00,0.93
5751.00,0.93
5750.00,0.94
5749.00,0.94
5748.00,0.94
5747.00,0.95
5746.00,0.95
5745.00,0.95
5744.00,0.95
5743.00,0.96
5742.00,0.96
5741.00,0.96
5740.00,0.96
5739.00,0.96
5738.00,0.96
5737.00,0.97
5736.00,0.97
5735.00,0.97
5734.00,0.97
5733.00,0.97
5732.00,0.97
5731.00,0.97
5730.00,0.97
5729.00,0.97
5728.00,0.97
5727.00,0.97
5726.00,0.98
5725.00,0.98
5724.00,0.98
5723.00,0.98
5722.00,0.98
5721.00,0.98
5720.00,0.98
5719.00,0.98
5718.00,0.98
5717.00,0.98
5716.00,0.98
5715.00,0.98
5714.00,0.98
5713.00,0.98
5712.00,0.98
5711.00,0.98
5710.00,0.98
5709.00,0.98
5708.00,0.98
5707.00,0.98
5706.00,0.98
5705.00,0.98
5704.00,0.98
5703.00,0.97
5702.00,0.97
5701.00,0.97
5700.00,0.97
5699.00,0.97
5698.00,0.97
5697.00,0.97
5696.00,0.97
5695.00,0.97
5694.00,0.96
5693.00,0.96
5692.00,0.96
5691.00,0.96
5690.00,0.96
5689.00,0.96
5688.00,0.96
5687.00,0.96
5686.00,0.96
5685.00,0.96
5684.00,0.96
5683.00,0.96
5682.00,0.95
5681.00,0.95
5680.00,0.95
5679.00,0.95
5678.00,0.95
5677.00,0.95
5676.00,0.95
5675.00,0.95
5674.00,0.96
5673.00,0.96
5672.00,0.96
5671.00,0.96
5670.00,0.96
5669.00,0.96
5668.00,0.96
5667.00,0.96
5666.00,0.96
5665.00,0.96
5664.00,0.96
5663.00,0.96
5662.00,0.96
5661.00,0.96
5660.00,0.96
5659.00,0.96
5658.00,0.97
5657.00,0.97
5656.00,0.97
5655.00,0.97
5654.00,0.97
5653.00,0.97
5652.00,0.97
5651.00,0.97
5650.00,0.97
5649.00,0.98
5648.00,0.98
5647.00,0.98
5646.00,0.98
5645.00,0.98
5644.00,0.98
5643.00,0.98
5642.00,0.98
5641.00,0.99
5640.00,0.99
5639.00,0.99
5638.00,0.99
5637.00,0.99
5636.00,0.99
5635.00,0.99
5634.00,0.99
5633.00,1.00
5632.00,1.00
5631.00,1.00
5630.00,1.00
5629.00,1.00
5628.00,1.00
5627.00,1.00
5626.00,1.00
5625.00,1.01
5624.00,1.01
5623.00,1.01
5622.00,1.01
5621.00,1.01
5620.00,1.01
5619.00,1.01
5618.00,1.01
5617.00,1.01
5616.00,1.02
5615.00,1.02
5614.00,1.02
5613.00,1.02
5612.00,1.02
5611.00,1.02
5610.00,1.02
5609.00,1.02
5608.00,1.02
5607.00,1.03
5606.00,1.03
5605.00,1.03
5604.00,1.03
5603.00,1.03
5602.00,1.03
5601.00,1.03
5600.00,1.03
5599.00,1.03
5598.00,1.04
5597.00,1.04
5596.00,1.04
5595.00,1.04
5594.00,1.04
5593.00,1.04
5592.00,1.04
5591.00,1.05
5590.00,1.05
5589.00,1.05
5588.00,1.05
5587.00,1.05
5586.00,1.05
5585.00,1.05
5584.00,1.05
5583.00,1.06
5582.00,1.06
5581.00,1.06
5580.00,1.06
5579.00,1.06
5578.00,1.06
5577.00,1.06
5576.00,1.06
5575.00,1.07
5574.00,1.07
5573.00,1.07
5572.00,1.07
5571.00,1.07
5570.00,1.07
5569.00,1.07
5568.00,1.07
5567.00,1.07
5566.00,1.08
5565.00,1.08
5564.00,1.08
5563.00,1.08
5562.00,1.08
5561.00,1.08
5560.00,1.08
5559.00,1.08
5558.00,1.08
5557.00,1.08
5556.00,1.09
5555.00,1.09
5554.00,1.09
5553.00,1.09
5552.00,1.09
5551.00,1.09
5550.00,1.09
5549.00,1.09
5548.00,1.09
5547.00,1.09
5546.00,1.10
5545.00,1.10
5544.00,1.10
5543.00,1.10
5542.00,1.10
5541.00,1.10
5540.00,1.10
5539.00,1.10
5538.00,1.10
5537.00,1.10
5536.00,1.11
5535.00,1.11
5534.00,1.11
5533.00,1.11
5532.00,1.11
5531.00,1.11
5530.00,1.11
5529.00,1.11
5528.00,1.11
5527.00,1.11
5526.00,1.11
5525.00,1.11
5524.00,1.11
5523.00,1.11
5522.00,1.11
5521.00,1.11
5520.00,1.11
5519.00,1.11
5518.00,1.11
5517.00,1.11
5516.00,1.11
5515.00,1.11
5514.00,1.12
5513.00,1.12
5512.00,1.12
5511.00,1.12
5510.00,1.12
5509.00,1.12
5508.00,1.12
5507.00,1.12
5506.00,1.12
5505.00,1.12
5504.00,1.12
5503.00,1.12
5502.00,1.12
5501.00,1.12
5500.00,1.12
5499.00,1.12
5498.00,1.13
5497.00,1.13
5496.00,1.13
5495.00,1.13
5494.00,1.13
5493.00,1.13
5492.00,1.13
5491.00,1.13
5490.00,1.13
5489.00,1.13
5488.00,1.13
5487.00,1.13
5486.00,1.13
5485.00,1.13
5484.00,1.13
5483.00,1.14
5482.00,1.14
5481.00,1.14
5480.00,1.14
5479.00,1.14
5478.00,1.14
5477.00,1.14
5476.00,1.14
5475.00,1.14
5474.00,1.14
5473.00,1.15
5472.00,1.15
5471.00,1.15
5470.00,1.15
5469.00,1.15
5468.00,1.15
5467.00,1.15
5466.00,1.15
5465.00,1.15
5464.00,1.15
5463.00,1.16
5462.00,1.16
5461.00,1.16
5460.00,1.16
5459.00,1.16
5458.00,1.16
5457.00,1.16
5456.00,1.16
5455.00,1.16
5454.00,1.16
5453.00,1.16
5452.00,1.17
5451.00,1.17
5450.00,1.17
5449.00,1.17
5448.00,1.17
5447.00,1.17
5446.00,1.17
5445.00,1.17
5444.00,1.17
5443.00,1.17
5442.00,1.17
5441.00,1.17
5440.00,1.17
5439.00,1.17
5438.00,1.17
5437.00,1.17
5436.00,1.17
5435.00,1.17
5434.00,1.17
5433.00,1.17
5432.00,1.17
5431.00,1.17
5430.00,1.17
5429.00,1.17
5428.00,1.17
5427.00,1.17
5426.00,1.17
5425.00,1.17
5424.00,1.17
5423.00,1.17
5422.00,1.17
5421.00,1.17
5420.00,1.17
5419.00,1.17
5418.00,1.17
5417.00,1.17
5416.00,1.17
5415.00,1.17
5414.00,1.17
5413.00,1.17
5412.00,1.17
5411.00,1.17
5410.00,1.17
5409.00,1.17
5408.00,1.17
5407.00,1.17
5406.00,1.17
5405.00,1.17
5404.00,1.17
5403.00,1.17
5402.00,1.17
5401.00,1.16
5400.00,1.16
5399.00,1.16
5398.00,1.16
5397.00,1.16
5396.00,1.16
5395.00,1.16
5394.00,1.16
5393.00,1.16
5392.00,1.16
5391.00,1.15
5390.00,1.15
5389.00,1.15
5388.00,1.15
5387.00,1.15
5386.00,1.15
5385.00,1.14
5384.00,1.14
5383.00,1.14
5382.00,1.14
5381.00,1.14
5380.00,1.13
5379.00,1.13
5378.00,1.13
5377.00,1.13
5376.00,1.12
5375.00,1.12
5374.00,1.12
5373.00,1.12
5372.00,1.11
5371.00,1.11
5370.00,1.11
5369.00,1.10
5368.00,1.10
5367.00,1.10
5366.00,1.09
5365.00,1.09
5364.00,1.09
5363.00,1.08
5362.00,1.08
5361.00,1.07
5360.00,1.07
5359.00,1.06
5358.00,1.06
5357.00,1.05
5356.00,1.05
5355.00,1.04
5354.00,1.03
5353.00,1.03
5352.00,1.02
5351.00,1.01
5350.00,1.01
5349.00,1.00
5348.00,0.99
5347.00,0.99
5346.00,0.98
5345.00,0.97
5344.00,0.97
5343.00,0.96
5342.00,0.95
5341.00,0.95
5340.00,0.94
5339.00,0.94
5338.00,0.93
5337.00,0.92
5336.00,0.92
5335.00,0.91
5334.00,0.90
5333.00,0.90
5332.00,0.89
5331.00,0.88
5330.00,0.88
5329.00,0.87
5328.00,0.86
5327.00,0.86
5326.00,0.85
5325.00,0.85
5324.00,0.84
5323.00,0.83
5322.00,0.83
5321.00,0.82
5320.00,0.81
5319.00,0.81
5318.00,0.80
5317.00,0.80
5316.00,0.79
5315.00,0.79
5314.00,0.78
5313.00,0.77
5312.00,0.77
5311.00,0.76
5310.00,0.76
5309.00,0.76
5308.00,0.75
5307.00,0.75
5306.00,0.74
5305.00,0.74
5304.00,0.74
5303.00,0.73
5302.00,0.73
5301.00,0.73
5300.00,0.73
5299.00,0.72
5298.00,0.72
5297.00,0.72
5296.00,0.72
5295.00,0.72
5294.00,0.71
5293.00,0.71
5292.00,0.71
5291.00,0.71
5290.00,0.71
5289.00,0.71
5288.00,0.71
5287.00,0.70
5286.00,0.70
5285.00,0.70
5284.00,0.70
5283.00,0.70
5282.00,0.70
5281.00,0.70
5280.00,0.70
5279.00,0.70
5278.00,0.70
5277.00,0.70
5276.00,0.70
5275.00,0.70
5274.00,0.70
5273.00,0.70
5272.00,0.69
5271.00,0.69
5270.00,0.69
5269.00,0.69
5268.00,0.69
5267.00,0.69
5266.00,0.69
5265.00,0.69
5264.00,0.69
5263.00,0.69
5262.00,0.69
5261.00,0.69
5260.00,0.69
5259.00,0.70
5258.00,0.70
5257.00,0.70
5256.00,0.70
5255.00,0.70
5254.00,0.70
5253.00,0.70
5252.00,0.70
5251.00,0.70
5250.00,0.70
5249.00,0.70
5248.00,0.70
5247.00,0.70
5246.00,0.70
5245.00,0.70
5244.00,0.70
5243.00,0.70
5242.00,0.70
5241.00,0.70
5240.00,0.70
5239.00,0.70
5238.00,0.70
5237.00,0.70
5236.00,0.70
5235.00,0.70
5234.00,0.70
5233.00,0.70
5232.00,0.70
5231.00,0.70
5230.00,0.70
5229.00,0.70
5228.00,0.70
5227.00,0.70
5226.00,0.70
5225.00,0.70
5224.00,0.70
5223.00,0.70
5222.00,0.70
5221.00,0.70
5220.00,0.70
5219.00,0.70
5218.00,0.70
5217.00,0.70
5216.00,0.70
5215.00,0.70
5214.00,0.70
5213.00,0.70
5212.00,0.70
5211.00,0.70
5210.00,0.70
5209.00,0.70
5208.00,0.70
5207.00,0.70
5206.00,0.70
5205.00,0.70
5204.00,0.70
5203.00,0.70
5202.00,0.71
5201.00,0.71
5200.00,0.71
5199.00,0.71
5198.00,0.71
5197.00,0.71
5196.00,0.71
5195.00,0.71
5194.00,0.71
5193.00,0.71
5192.00,0.71
5191.00,0.71
5190.00,0.71
5189.00,0.72
5188.00,0.72
5187.00,0.72
5186.00,0.72
5185.00,0.72
5184.00,0.72
5183.00,0.72
5182.00,0.72
5181.00,0.72
5180.00,0.72
5179.00,0.72
5178.00,0.72
5177.00,0.72
5176.00,0.73
5175.00,0.73
5174.00,0.73
5173.00,0.73
5172.00,0.73
5171.00,0.73
5170.00,0.73
5169.00,0.73
5168.00,0.73
5167.00,0.73
5166.00,0.73
5165.00,0.73
5164.00,0.73
5163.00,0.73
5162.00,0.73
5161.00,0.73
5160.00,0.73
5159.00,0.73
5158.00,0.73
5157.00,0.73
5156.00,0.73
5155.00,0.73
5154.00,0.73
5153.00,0.73
5152.00,0.73
5151.00,0.73
5150.00,0.73
5149.00,0.73
5148.00,0.73
5147.00,0.73
5146.00,0.73
5145.00,0.73
5144.00,0.73
5143.00,0.73
5142.00,0.73
5141.00,0.73
5140.00,0.73
5139.00,0.73
5138.00,0.73
5137.00,0.73
5136.00,0.73
5135.00,0.73
5134.00,0.73
5133.00,0.73
5132.00,0.73
5131.00,0.73
5130.00,0.73
5129.00,0.73
5128.00,0.73
5127.00,0.73
5126.00,0.73
5125.00,0.73
5124.00,0.74
5123.00,0.74
5122.00,0.74
5121.00,0.74
5120.00,0.74
5119.00,0.74
5118.00,0.74
5117.00,0.74
5116.00,0.74
5115.00,0.74
5114.00,0.74
5113.00,0.74
5112.00,0.74
5111.00,0.74
5110.00,0.74
5109.00,0.74
5108.00,0.74
5107.00,0.74
5106.00,0.74
5105.00,0.74
5104.00,0.74
5103.00,0.74
5102.00,0.74
5101.00,0.74
5100.00,0.74
5099.00,0.74
5098.00,0.74
5097.00,0.74
5096.00,0.74
5095.00,0.74
5094.00,0.74
5093.00,0.74
5092.00,0.75
5091.00,0.75
5090.00,0.75
5089.00,0.75
5088.00,0.75
5087.00,0.75
5086.00,0.75
5085.00,0.75
5084.00,0.75
5083.00,0.75
5082.00,0.75
5081.00,0.75
5080.00,0.75
5079.00,0.75
5078.00,0.75
5077.00,0.75
5076.00,0.75
5075.00,0.75
5074.00,0.75
5073.00,0.76
5072.00,0.76
5071.00,0.76
5070.00,0.76
5069.00,0.76
5068.00,0.76
5067.00,0.76
5066.00,0.76
5065.00,0.76
5064.00,0.76
5063.00,0.76
5062.00,0.76
5061.00,0.76
5060.00,0.76
5059.00,0.76
5058.00,0.76
5057.00,0.76
5056.00,0.76
5055.00,0.76
5054.00,0.76
5053.00,0.76
5052.00,0.76
5051.00,0.76
5050.00,0.76
5049.00,0.76
5048.00,0.76
5047.00,0.76
5046.00,0.76
5045.00,0.76
5044.00,0.77
5043.00,0.77
5042.00,0.77
5041.00,0.77
5040.00,0.77
5039.00,0.77
5038.00,0.77
5037.00,0.77
5036.00,0.77
5035.00,0.77
5034.00,0.77
5033.00,0.77
5032.00,0.77
5031.00,0.78
5030.00,0.78
5029.00,0.78
5028.00,0.78
5027.00,0.78
5026.00,0.78
5025.00,0.78
5024.00,0.78
5023.00,0.78
5022.00,0.78
5021.00,0.78
5020.00,0.78
5019.00,0.78
5018.00,0.78
5017.00,0.78
5016.00,0.78
5015.00,0.78
5014.00,0.78
5013.00,0.78
5012.00,0.78
5011.00,0.78
5010.00,0.78
5009.00,0.78
5008.00,0.78
5007.00,0.78
5006.00,0.78
5005.00,0.78
5004.00,0.78
5003.00,0.78
5002.00,0.78
5001.00,0.78
5000.00,0.78
4999.00,0.78
4998.00,0.78
4997.00,0.78
4996.00,0.79
4995.00,0.79
4994.00,0.79
4993.00,0.79
4992.00,0.79
4991.00,0.79
4990.00,0.79
4989.00,0.79
4988.00,0.79
4987.00,0.79
4986.00,0.79
4985.00,0.79
4984.00,0.79
4983.00,0.79
4982.00,0.79
4981.00,0.79
4980.00,0.79
4979.00,0.79
4978.00,0.79
4977.00,0.79
4976.00,0.79
4975.00,0.79
4974.00,0.79
4973.00,0.79
4972.00,0.79
4971.00,0.79
4970.00,0.79
4969.00,0.79
4968.00,0.79
4967.00,0.79
4966.00,0.79
4965.00,0.79
4964.00,0.80
4963.00,0.80
4962.00,0.80
4961.00,0.80
4960.00,0.80
4959.00,0.80
4958.00,0.80
4957.00,0.80
4956.00,0.80
4955.00,0.80
4954.00,0.81
4953.00,0.81
4952.00,0.81
4951.00,0.81
4950.00,0.81
4949.00,0.81
4948.00,0.81
4947.00,0.81
4946.00,0.81
4945.00,0.81
4944.00,0.81
4943.00,0.81
4942.00,0.81
4941.00,0.81
4940.00,0.82
4939.00,0.82
4938.00,0.82
4937.00,0.82
4936.00,0.82
4935.00,0.82
4934.00,0.82
4933.00,0.82
4932.00,0.82
4931.00,0.82
4930.00,0.82
4929.00,0.82
4928.00,0.82
4927.00,0.82
4926.00,0.82
4925.00,0.82
4924.00,0.82
4923.00,0.82
4922.00,0.82
4921.00,0.82
4920.00,0.82
4919.00,0.82
4918.00,0.82
4917.00,0.82
4916.00,0.82
4915.00,0.82
4914.00,0.82
4913.00,0.82
4912.00,0.83
4911.00,0.83
4910.00,0.83
4909.00,0.83
4908.00,0.83
4907.00,0.83
4906.00,0.83
4905.00,0.83
4904.00,0.83
4903.00,0.83
4902.00,0.83
4901.00,0.83
4900.00,0.83
4899.00,0.83
4898.00,0.83
4897.00,0.83
4896.00,0.83
4895.00,0.83
4894.00,0.84
4893.00,0.84
4892.00,0.84
4891.00,0.84
4890.00,0.84
4889.00,0.84
4888.00,0.84
4887.00,0.84
4886.00,0.84
4885.00,0.84
4884.00,0.84
4883.00,0.84
4882.00,0.84
4881.00,0.84
4880.00,0.84
4879.00,0.84
4878.00,0.84
4877.00,0.84
4876.00,0.84
4875.00,0.84
4874.00,0.84
4873.00,0.84
4872.00,0.84
4871.00,0.84
4870.00,0.84
4869.00,0.84
4868.00,0.84
4867.00,0.84
4866.00,0.84
4865.00,0.84
4864.00,0.84
4863.00,0.84
4862.00,0.84
4861.00,0.84
4860.00,0.84
4859.00,0.84
4858.00,0.84
4857.00,0.85
4856.00,0.85
4855.00,0.85
4854.00,0.85
4853.00,0.85
4852.00,0.85
4851.00,0.85
4850.00,0.85
4849.00,0.85
4848.00,0.85
4847.00,0.85
4846.00,0.85
4845.00,0.85
4844.00,0.85
4843.00,0.85
4842.00,0.85
4841.00,0.86
4840.00,0.86
4839.00,0.86
4838.00,0.86
4837.00,0.86
4836.00,0.86
4835.00,0.86
4834.00,0.86
4833.00,0.86
4832.00,0.86
4831.00,0.86
4830.00,0.86
4829.00,0.86
4828.00,0.86
4827.00,0.86
4826.00,0.86
4825.00,0.86
4824.00,0.86
4823.00,0.86
4822.00,0.86
4821.00,0.86
4820.00,0.86
4819.00,0.86
4818.00,0.86
4817.00,0.86
4816.00,0.87
4815.00,0.87
4814.00,0.87
4813.00,0.87
4812.00,0.87
4811.00,0.87
4810.00,0.87
4809.00,0.87
4808.00,0.87
4807.00,0.87
4806.00,0.87
4805.00,0.87
4804.00,0.87
4803.00,0.87
4802.00,0.88
4801.00,0.88
4800.00,0.88
4799.00,0.88
4798.00,0.88
4797.00,0.88
4796.00,0.88
4795.00,0.88
4794.00,0.88
4793.00,0.88
4792.00,0.88
4791.00,0.88
4790.00,0.88
4789.00,0.88
4788.00,0.88
4787.00,0.88
4786.00,0.88
4785.00,0.88
4784.00,0.88
4783.00,0.89
4782.00,0.89
4781.00,0.89
4780.00,0.89
4779.00,0.89
4778.00,0.89
4777.00,0.89
4776.00,0.89
4775.00,0.89
4774.00,0.89
4773.00,0.89
4772.00,0.90
4771.00,0.90
4770.00,0.90
4769.00,0.90
4768.00,0.90
4767.00,0.90
4766.00,0.90
4765.00,0.90
4764.00,0.90
4763.00,0.90
4762.00,0.90
4761.00,0.90
4760.00,0.91
4759.00,0.91
4758.00,0.91
4757.00,0.91
4756.00,0.91
4755.00,0.91
4754.00,0.91
4753.00,0.91
4752.00,0.91
4751.00,0.91
4750.00,0.91
4749.00,0.91
4748.00,0.91
4747.00,0.91
4746.00,0.91
4745.00,0.91
4744.00,0.91
4743.00,0.91
4742.00,0.91
4741.00,0.91
4740.00,0.91
4739.00,0.91
4738.00,0.92
4737.00,0.92
4736.00,0.92
4735.00,0.92
4734.00,0.92
4733.00,0.92
4732.00,0.92
4731.00,0.92
4730.00,0.92
4729.00,0.92
4728.00,0.92
4727.00,0.92
4726.00,0.92
4725.00,0.93
4724.00,0.93
4723.00,0.93
4722.00,0.93
4721.00,0.93
4720.00,0.93
4719.00,0.94
4718.00,0.94
4717.00,0.94
4716.00,0.94
4715.00,0.94
4714.00,0.94
4713.00,0.94
4712.00,0.94
4711.00,0.95
4710.00,0.95
4709.00,0.95
4708.00,0.95
4707.00,0.95
4706.00,0.95
4705.00,0.95
4704.00,0.95
4703.00,0.95
4702.00,0.95
4701.00,0.95
4700.00,0.95
4699.00,0.95
4698.00,0.95
4697.00,0.95
4696.00,0.96
4695.00,0.96
4694.00,0.96
4693.00,0.96
4692.00,0.96
4691.00,0.96
4690.00,0.96
4689.00,0.96
4688.00,0.96
4687.00,0.97
4686.00,0.97
4685.00,0.97
4684.00,0.97
4683.00,0.97
4682.00,0.97
4681.00,0.97
4680.00,0.97
4679.00,0.97
4678.00,0.97
4677.00,0.97
4676.00,0.97
4675.00,0.98
4674.00,0.98
4673.00,0.98
4672.00,0.98
4671.00,0.98
4670.00,0.98
4669.00,0.98
4668.00,0.98
4667.00,0.98
4666.00,0.98
4665.00,0.98
4664.00,0.98
4663.00,0.98
4662.00,0.98
4661.00,0.98
4660.00,0.99
4659.00,0.99
4658.00,0.99
4657.00,0.99
4656.00,0.99
4655.00,0.99
4654.00,0.99
4653.00,0.99
4652.00,0.99
4651.00,0.99
4650.00,0.99
4649.00,0.99
4648.00,0.99
4647.00,0.99
4646.00,0.99
4645.00,1.00
4644.00,1.00
4643.00,1.00
4642.00,1.00
4641.00,1.00
4640.00,1.00
4639.00,1.00
4638.00,1.00
4637.00,1.00
4636.00,1.01
4635.00,1.01
4634.00,1.01
4633.00,1.01
4632.00,1.01
4631.00,1.01
4630.00,1.01
4629.00,1.01
4628.00,1.01
4627.00,1.01
4626.00,1.02
4625.00,1.02
4624.00,1.02
4623.00,1.02
4622.00,1.02
4621.00,1.02
4620.00,1.02
4619.00,1.02
4618.00,1.02
4617.00,1.02
4616.00,1.02
4615.00,1.03
4614.00,1.03
4613.00,1.03
4612.00,1.03
4611.00,1.03
4610.00,1.03
4609.00,1.03
4608.00,1.03
4607.00,1.03
4606.00,1.03
4605.00,1.03
4604.00,1.03
4603.00,1.03
4602.00,1.03
4601.00,1.03
4600.00,1.03
4599.00,1.03
4598.00,1.03
4597.00,1.03
4596.00,1.03
4595.00,1.03
4594.00,1.03
4593.00,1.04
4592.00,1.04
4591.00,1.04
4590.00,1.04
4589.00,1.04
4588.00,1.04
4587.00,1.04
4586.00,1.04
4585.00,1.04
4584.00,1.04
4583.00,1.04
4582.00,1.04
4581.00,1.04
4580.00,1.04
4579.00,1.04
4578.00,1.04
4577.00,1.04
4576.00,1.04
4575.00,1.04
4574.00,1.04
4573.00,1.05
4572.00,1.05
4571.00,1.05
4570.00,1.05
4569.00,1.05
4568.00,1.05
4567.00,1.05
4566.00,1.05
4565.00,1.05
4564.00,1.05
4563.00,1.05
4562.00,1.05
4561.00,1.06
4560.00,1.06
4559.00,1.06
4558.00,1.06
4557.00,1.06
4556.00,1.06
4555.00,1.06
4554.00,1.06
4553.00,1.06
4552.00,1.06
4551.00,1.06
4550.00,1.06
4549.00,1.06
4548.00,1.06
4547.00,1.06
4546.00,1.06
4545.00,1.06
4544.00,1.06
4543.00,1.06
4542.00,1.06
4541.00,1.06
4540.00,1.06
4539.00,1.07
4538.00,1.07
4537.00,1.07
4536.00,1.07
4535.00,1.07
4534.00,1.07
4533.00,1.07
4532.00,1.07
4531.00,1.07
4530.00,1.07
4529.00,1.07
4528.00,1.07
4527.00,1.07
4526.00,1.08
4525.00,1.08
4524.00,1.08
4523.00,1.08
4522.00,1.08
4521.00,1.08
4520.00,1.08
4519.00,1.08
4518.00,1.08
4517.00,1.08
4516.00,1.08
4515.00,1.08
4514.00,1.08
4513.00,1.08
4512.00,1.08
4511.00,1.08
4510.00,1.08
4509.00,1.08
4508.00,1.08
4507.00,1.08
4506.00,1.08
4505.00,1.08
4504.00,1.08
4503.00,1.08
4502.00,1.08
4501.00,1.08
4500.00,1.08
4499.00,1.08
4498.00,1.08
4497.00,1.08
4496.00,1.08
4495.00,1.08
4494.00,1.08
4493.00,1.08
4492.00,1.08
4491.00,1.08
4490.00,1.08
4489.00,1.08
4488.00,1.08
4487.00,1.08
4486.00,1.08
4485.00,1.08
4484.00,1.07
4483.00,1.07
4482.00,1.07
4481.00,1.07
4480.00,1.07
4479.00,1.07
4478.00,1.07
4477.00,1.06
4476.00,1.06
4475.00,1.06
4474.00,1.06
4473.00,1.06
4472.00,1.06
4471.00,1.06
4470.00,1.05
4469.00,1.05
4468.00,1.05
4467.00,1.05
4466.00,1.05
4465.00,1.05
4464.00,1.04
4463.00,1.04
4462.00,1.04
4461.00,1.04
4460.00,1.04
4459.00,1.03
4458.00,1.03
4457.00,1.03
4456.00,1.03
4455.00,1.03
4454.00,1.03
4453.00,1.02
4452.00,1.02
4451.00,1.02
4450.00,1.02
4449.00,1.02
4448.00,1.02
4447.00,1.02
4446.00,1.02
4445.00,1.02
4444.00,1.02
4443.00,1.02
4442.00,1.02
4441.00,1.02
4440.00,1.01
4439.00,1.01
4438.00,1.01
4437.00,1.01
4436.00,1.01
4435.00,1.01
4434.00,1.01
4433.00,1.01
4432.00,1.01
4431.00,1.01
4430.00,1.00
4429.00,1.00
4428.00,1.00
4427.00,1.00
4426.00,1.00
4425.00,1.00
4424.00,1.00
4423.00,1.00
4422.00,1.00
4421.00,1.00
4420.00,1.00
4419.00,1.00
4418.00,1.00
4417.00,1.00
4416.00,1.00
4415.00,1.00
4414.00,1.00
4413.00,1.00
4412.00,1.00
4411.00,1.00
4410.00,1.00
4409.00,1.00
4408.00,1.00
4407.00,1.00
4406.00,1.00
4405.00,1.00
4404.00,1.00
4403.00,1.00
4402.00,1.00
4401.00,1.00
4400.00,1.00
4399.00,1.00
4398.00,1.00
4397.00,1.00
4396.00,1.00
4395.00,1.00
4394.00,1.00
4393.00,1.01
4392.00,1.01
4391.00,1.01
4390.00,1.01
4389.00,1.01
4388.00,1.01
4387.00,1.01
4386.00,1.01
4385.00,1.01
4384.00,1.01
4383.00,1.01
4382.00,1.02
4381.00,1.02
4380.00,1.02
4379.00,1.02
4378.00,1.02
4377.00,1.02
4376.00,1.02
4375.00,1.02
4374.00,1.03
4373.00,1.03
4372.00,1.03
4371.00,1.03
4370.00,1.03
4369.00,1.03
4368.00,1.03
4367.00,1.03
4366.00,1.03
4365.00,1.03
4364.00,1.03
4363.00,1.03
4362.00,1.03
4361.00,1.03
4360.00,1.02
4359.00,1.02
4358.00,1.02
4357.00,1.02
4356.00,1.02
4355.00,1.02
4354.00,1.02
4353.00,1.02
4352.00,1.02
4351.00,1.02
4350.00,1.02
4349.00,1.02
4348.00,1.02
4347.00,1.02
4346.00,1.02
4345.00,1.02
4344.00,1.02
4343.00,1.02
4342.00,1.02
4341.00,1.02
4340.00,1.02
4339.00,1.02
4338.00,1.02
4337.00,1.02
4336.00,1.02
4335.00,1.02
4334.00,1.02
4333.00,1.02
4332.00,1.02
4331.00,1.03
4330.00,1.03
4329.00,1.03
4328.00,1.03
4327.00,1.03
4326.00,1.03
4325.00,1.03
4324.00,1.03
4323.00,1.03
4322.00,1.03
4321.00,1.03
4320.00,1.03
4319.00,1.04
4318.00,1.04
4317.00,1.04
4316.00,1.04
4315.00,1.04
4314.00,1.04
4313.00,1.04
4312.00,1.05
4311.00,1.05
4310.00,1.05
4309.00,1.05
4308.00,1.05
4307.00,1.05
4306.00,1.05
4305.00,1.05
4304.00,1.05
4303.00,1.05
4302.00,1.05
4301.00,1.05
4300.00,1.05
4299.00,1.05
4298.00,1.05
4297.00,1.05
4296.00,1.06
4295.00,1.06
4294.00,1.06
4293.00,1.06
4292.00,1.06
4291.00,1.06
4290.00,1.06
4289.00,1.06
4288.00,1.06
4287.00,1.07
4286.00,1.07
4285.00,1.07
4284.00,1.07
4283.00,1.07
4282.00,1.07
4281.00,1.07
4280.00,1.07
4279.00,1.07
4278.00,1.07
4277.00,1.07
4276.00,1.07
4275.00,1.07
4274.00,1.07
4273.00,1.07
4272.00,1.06
4271.00,1.06
4270.00,1.06
4269.00,1.06
4268.00,1.06
4267.00,1.06
4266.00,1.06
4265.00,1.06
4264.00,1.06
4263.00,1.06
4262.00,1.06
4261.00,1.06
4260.00,1.06
4259.00,1.06
4258.00,1.06
4257.00,1.06
4256.00,1.06
4255.00,1.06
4254.00,1.07
4253.00,1.07
4252.00,1.07
4251.00,1.07
4250.00,1.07
4249.00,1.07
4248.00,1.07
4247.00,1.07
4246.00,1.07
4245.00,1.08
4244.00,1.08
4243.00,1.08
4242.00,1.08
4241.00,1.08
4240.00,1.08
4239.00,1.08
4238.00,1.08
4237.00,1.08
4236.00,1.08
4235.00,1.08
4234.00,1.08
4233.00,1.08
4232.00,1.08
4231.00,1.08
4230.00,1.08
4229.00,1.09
4228.00,1.09
4227.00,1.09
4226.00,1.09
4225.00,1.09
4224.00,1.09
4223.00,1.09
4222.00,1.09
4221.00,1.09
4220.00,1.09
4219.00,1.09
4218.00,1.09
4217.00,1.09
4216.00,1.09
4215.00,1.09
4214.00,1.09
4213.00,1.09
4212.00,1.09
4211.00,1.09
4210.00,1.09
4209.00,1.09
4208.00,1.09
4207.00,1.09
4206.00,1.09
4205.00,1.09
4204.00,1.10
4203.00,1.10
4202.00,1.10
4201.00,1.10
4200.00,1.10
4199.00,1.10
4198.00,1.10
4197.00,1.10
4196.00,1.10
4195.00,1.10
4194.00,1.10
4193.00,1.10
4192.00,1.10
4191.00,1.10
4190.00,1.10
4189.00,1.11
4188.00,1.11
4187.00,1.11
4186.00,1.11
4185.00,1.11
4184.00,1.11
4183.00,1.11
4182.00,1.11
4181.00,1.11
4180.00,1.11
4179.00,1.11
4178.00,1.11
4177.00,1.11
4176.00,1.11
4175.00,1.11
4174.00,1.11
4173.00,1.11
4172.00,1.11
4171.00,1.11
4170.00,1.11
4169.00,1.11
4168.00,1.11
4167.00,1.11
4166.00,1.11
4165.00,1.11
4164.00,1.11
4163.00,1.11
4162.00,1.11
4161.00,1.11
4160.00,1.11
4159.00,1.11
4158.00,1.12
4157.00,1.12
4156.00,1.12
4155.00,1.12
4154.00,1.12
4153.00,1.12
4152.00,1.12
4151.00,1.12
4150.00,1.12
4149.00,1.12
4148.00,1.12
4147.00,1.13
4146.00,1.13
4145.00,1.13
4144.00,1.13
4143.00,1.13
4142.00,1.13
4141.00,1.13
4140.00,1.13
4139.00,1.13
4138.00,1.13
4137.00,1.13
4136.00,1.13
4135.00,1.13
4134.00,1.13
4133.00,1.13
4132.00,1.13
4131.00,1.13
4130.00,1.13
4129.00,1.13
4128.00,1.13
4127.00,1.13
4126.00,1.13
4125.00,1.13
4124.00,1.13
4123.00,1.13
4122.00,1.13
4121.00,1.13
4120.00,1.13
4119.00,1.13
4118.00,1.13
4117.00,1.13
4116.00,1.13
4115.00,1.13
4114.00,1.13
4113.00,1.13
4112.00,1.13
4111.00,1.13
4110.00,1.13
4109.00,1.13
4108.00,1.13
4107.00,1.13
4106.00,1.13
4105.00,1.13
4104.00,1.14
4103.00,1.14
4102.00,1.14
4101.00,1.14
4100.00,1.14
4099.00,1.14
4098.00,1.14
4097.00,1.14
4096.00,1.14
4095.00,1.14
4094.00,1.14
4093.00,1.14
4092.00,1.14
4091.00,1.14
4090.00,1.14
4089.00,1.14
4088.00,1.14
4087.00,1.14
4086.00,1.14
4085.00,1.14
4084.00,1.14
4083.00,1.14
4082.00,1.14
4081.00,1.14
4080.00,1.14
4079.00,1.14
4078.00,1.14
4077.00,1.14
4076.00,1.15
4075.00,1.15
4074.00,1.15
4073.00,1.15
4072.00,1.15
4071.00,1.15
4070.00,1.15
4069.00,1.15
4068.00,1.15
4067.00,1.15
4066.00,1.15
4065.00,1.15
4064.00,1.15
4063.00,1.15
4062.00,1.15
4061.00,1.15
4060.00,1.15
4059.00,1.15
4058.00,1.15
4057.00,1.15
4056.00,1.15
4055.00,1.16
4054.00,1.16
4053.00,1.16
4052.00,1.16
4051.00,1.16
4050.00,1.16
4049.00,1.16
4048.00,1.16
4047.00,1.16
4046.00,1.16
4045.00,1.16
4044.00,1.16
4043.00,1.16
4042.00,1.16
4041.00,1.16
4040.00,1.16
4039.00,1.16
4038.00,1.16
4037.00,1.16
4036.00,1.16
4035.00,1.16
4034.00,1.16
4033.00,1.16
4032.00,1.16
4031.00,1.16
4030.00,1.16
4029.00,1.16
4028.00,1.16
4027.00,1.16
4026.00,1.16
4025.00,1.16
4024.00,1.16
4023.00,1.16
4022.00,1.17
4021.00,1.17
4020.00,1.17
4019.00,1.17
4018.00,1.17
4017.00,1.17
4016.00,1.17
4015.00,1.17
4014.00,1.17
4013.00,1.17
4012.00,1.17
4011.00,1.17
4010.00,1.17
4009.00,1.17
4008.00,1.17
4007.00,1.17
4006.00,1.17
4005.00,1.17
4004.00,1.17
4003.00,1.17
4002.00,1.17
4001.00,1.17
4000.00,1.17
