创建为新数据集,样品 407 用户 Administrator 日期 星期四, 三月 08 2018
cm-1,%T
10000.00,1.70
9999.00,1.70
9998.00,1.70
9997.00,1.70
9996.00,1.70
9995.00,1.70
9994.00,1.70
9993.00,1.70
9992.00,1.70
9991.00,1.70
9990.00,1.70
9989.00,1.70
9988.00,1.70
9987.00,1.70
9986.00,1.70
9985.00,1.70
9984.00,1.70
9983.00,1.70
9982.00,1.70
9981.00,1.69
9980.00,1.69
9979.00,1.69
9978.00,1.69
9977.00,1.69
9976.00,1.69
9975.00,1.69
9974.00,1.68
9973.00,1.68
9972.00,1.68
9971.00,1.68
9970.00,1.68
9969.00,1.68
9968.00,1.68
9967.00,1.67
9966.00,1.67
9965.00,1.67
9964.00,1.67
9963.00,1.67
9962.00,1.67
9961.00,1.67
9960.00,1.67
9959.00,1.67
9958.00,1.67
9957.00,1.67
9956.00,1.67
9955.00,1.67
9954.00,1.68
9953.00,1.68
9952.00,1.68
9951.00,1.68
9950.00,1.68
9949.00,1.68
9948.00,1.68
9947.00,1.69
9946.00,1.69
9945.00,1.69
9944.00,1.69
9943.00,1.69
9942.00,1.69
9941.00,1.69
9940.00,1.69
9939.00,1.69
9938.00,1.69
9937.00,1.69
9936.00,1.69
9935.00,1.69
9934.00,1.69
9933.00,1.69
9932.00,1.69
9931.00,1.69
9930.00,1.69
9929.00,1.69
9928.00,1.69
9927.00,1.69
9926.00,1.69
9925.00,1.69
9924.00,1.69
9923.00,1.69
9922.00,1.69
9921.00,1.69
9920.00,1.69
9919.00,1.69
9918.00,1.69
9917.00,1.69
9916.00,1.70
9915.00,1.70
9914.00,1.70
9913.00,1.70
9912.00,1.70
9911.00,1.70
9910.00,1.70
9909.00,1.70
9908.00,1.70
9907.00,1.70
9906.00,1.70
9905.00,1.70
9904.00,1.70
9903.00,1.70
9902.00,1.70
9901.00,1.70
9900.00,1.70
9899.00,1.70
9898.00,1.70
9897.00,1.69
9896.00,1.69
9895.00,1.69
9894.00,1.69
9893.00,1.69
9892.00,1.68
9891.00,1.68
9890.00,1.68
9889.00,1.68
9888.00,1.68
9887.00,1.67
9886.00,1.67
9885.00,1.67
9884.00,1.67
9883.00,1.67
9882.00,1.67
9881.00,1.67
9880.00,1.67
9879.00,1.67
9878.00,1.67
9877.00,1.67
9876.00,1.67
9875.00,1.68
9874.00,1.68
9873.00,1.68
9872.00,1.68
9871.00,1.68
9870.00,1.69
9869.00,1.69
9868.00,1.69
9867.00,1.69
9866.00,1.69
9865.00,1.70
9864.00,1.70
9863.00,1.70
9862.00,1.70
9861.00,1.70
9860.00,1.70
9859.00,1.70
9858.00,1.70
9857.00,1.70
9856.00,1.70
9855.00,1.70
9854.00,1.70
9853.00,1.70
9852.00,1.70
9851.00,1.70
9850.00,1.70
9849.00,1.70
9848.00,1.70
9847.00,1.70
9846.00,1.70
9845.00,1.70
9844.00,1.70
9843.00,1.70
9842.00,1.70
9841.00,1.70
9840.00,1.70
9839.00,1.70
9838.00,1.70
9837.00,1.69
9836.00,1.69
9835.00,1.69
9834.00,1.69
9833.00,1.68
9832.00,1.68
9831.00,1.68
9830.00,1.67
9829.00,1.67
9828.00,1.67
9827.00,1.67
9826.00,1.67
9825.00,1.66
9824.00,1.66
9823.00,1.66
9822.00,1.66
9821.00,1.66
9820.00,1.66
9819.00,1.66
9818.00,1.66
9817.00,1.67
9816.00,1.67
9815.00,1.67
9814.00,1.67
9813.00,1.67
9812.00,1.67
9811.00,1.67
9810.00,1.67
9809.00,1.67
9808.00,1.68
9807.00,1.68
9806.00,1.68
9805.00,1.68
9804.00,1.68
9803.00,1.68
9802.00,1.68
9801.00,1.68
9800.00,1.68
9799.00,1.68
9798.00,1.68
9797.00,1.68
9796.00,1.68
9795.00,1.68
9794.00,1.68
9793.00,1.68
9792.00,1.68
9791.00,1.68
9790.00,1.68
9789.00,1.68
9788.00,1.68
9787.00,1.68
9786.00,1.68
9785.00,1.68
9784.00,1.68
9783.00,1.68
9782.00,1.68
9781.00,1.68
9780.00,1.68
9779.00,1.68
9778.00,1.68
9777.00,1.68
9776.00,1.68
9775.00,1.68
9774.00,1.68
9773.00,1.68
9772.00,1.68
9771.00,1.68
9770.00,1.69
9769.00,1.69
9768.00,1.69
9767.00,1.69
9766.00,1.69
9765.00,1.69
9764.00,1.69
9763.00,1.69
9762.00,1.69
9761.00,1.69
9760.00,1.69
9759.00,1.69
9758.00,1.69
9757.00,1.68
9756.00,1.68
9755.00,1.68
9754.00,1.68
9753.00,1.67
9752.00,1.67
9751.00,1.67
9750.00,1.66
9749.00,1.66
9748.00,1.66
9747.00,1.66
9746.00,1.66
9745.00,1.66
9744.00,1.65
9743.00,1.65
9742.00,1.65
9741.00,1.65
9740.00,1.65
9739.00,1.65
9738.00,1.65
9737.00,1.66
9736.00,1.66
9735.00,1.66
9734.00,1.66
9733.00,1.66
9732.00,1.66
9731.00,1.66
9730.00,1.66
9729.00,1.66
9728.00,1.66
9727.00,1.66
9726.00,1.67
9725.00,1.67
9724.00,1.67
9723.00,1.67
9722.00,1.67
9721.00,1.67
9720.00,1.67
9719.00,1.67
9718.00,1.67
9717.00,1.67
9716.00,1.67
9715.00,1.68
9714.00,1.68
9713.00,1.68
9712.00,1.68
9711.00,1.68
9710.00,1.68
9709.00,1.68
9708.00,1.68
9707.00,1.68
9706.00,1.69
9705.00,1.69
9704.00,1.69
9703.00,1.69
9702.00,1.69
9701.00,1.69
9700.00,1.70
9699.00,1.70
9698.00,1.70
9697.00,1.70
9696.00,1.70
9695.00,1.70
9694.00,1.70
9693.00,1.70
9692.00,1.70
9691.00,1.70
9690.00,1.70
9689.00,1.70
9688.00,1.70
9687.00,1.70
9686.00,1.70
9685.00,1.70
9684.00,1.70
9683.00,1.70
9682.00,1.70
9681.00,1.70
9680.00,1.70
9679.00,1.70
9678.00,1.70
9677.00,1.70
9676.00,1.69
9675.00,1.69
9674.00,1.69
9673.00,1.69
9672.00,1.69
9671.00,1.69
9670.00,1.68
9669.00,1.68
9668.00,1.68
9667.00,1.68
9666.00,1.68
9665.00,1.68
9664.00,1.67
9663.00,1.67
9662.00,1.67
9661.00,1.67
9660.00,1.67
9659.00,1.67
9658.00,1.67
9657.00,1.67
9656.00,1.67
9655.00,1.67
9654.00,1.67
9653.00,1.67
9652.00,1.67
9651.00,1.67
9650.00,1.68
9649.00,1.68
9648.00,1.68
9647.00,1.68
9646.00,1.68
9645.00,1.68
9644.00,1.69
9643.00,1.69
9642.00,1.69
9641.00,1.69
9640.00,1.70
9639.00,1.70
9638.00,1.70
9637.00,1.70
9636.00,1.70
9635.00,1.70
9634.00,1.70
9633.00,1.70
9632.00,1.70
9631.00,1.70
9630.00,1.70
9629.00,1.70
9628.00,1.70
9627.00,1.70
9626.00,1.70
9625.00,1.69
9624.00,1.69
9623.00,1.69
9622.00,1.69
9621.00,1.69
9620.00,1.69
9619.00,1.70
9618.00,1.70
9617.00,1.70
9616.00,1.70
9615.00,1.70
9614.00,1.69
9613.00,1.69
9612.00,1.69
9611.00,1.69
9610.00,1.69
9609.00,1.69
9608.00,1.69
9607.00,1.68
9606.00,1.68
9605.00,1.68
9604.00,1.68
9603.00,1.67
9602.00,1.67
9601.00,1.67
9600.00,1.67
9599.00,1.66
9598.00,1.66
9597.00,1.66
9596.00,1.66
9595.00,1.66
9594.00,1.66
9593.00,1.67
9592.00,1.67
9591.00,1.67
9590.00,1.67
9589.00,1.67
9588.00,1.68
9587.00,1.68
9586.00,1.68
9585.00,1.68
9584.00,1.68
9583.00,1.69
9582.00,1.69
9581.00,1.69
9580.00,1.69
9579.00,1.69
9578.00,1.69
9577.00,1.69
9576.00,1.69
9575.00,1.69
9574.00,1.69
9573.00,1.69
9572.00,1.68
9571.00,1.68
9570.00,1.68
9569.00,1.68
9568.00,1.68
9567.00,1.68
9566.00,1.67
9565.00,1.67
9564.00,1.67
9563.00,1.67
9562.00,1.67
9561.00,1.67
9560.00,1.67
9559.00,1.67
9558.00,1.66
9557.00,1.66
9556.00,1.66
9555.00,1.66
9554.00,1.66
9553.00,1.66
9552.00,1.66
9551.00,1.67
9550.00,1.67
9549.00,1.67
9548.00,1.67
9547.00,1.67
9546.00,1.68
9545.00,1.68
9544.00,1.68
9543.00,1.68
9542.00,1.69
9541.00,1.69
9540.00,1.69
9539.00,1.70
9538.00,1.70
9537.00,1.70
9536.00,1.70
9535.00,1.70
9534.00,1.70
9533.00,1.70
9532.00,1.70
9531.00,1.70
9530.00,1.70
9529.00,1.70
9528.00,1.70
9527.00,1.70
9526.00,1.70
9525.00,1.70
9524.00,1.69
9523.00,1.69
9522.00,1.69
9521.00,1.69
9520.00,1.68
9519.00,1.68
9518.00,1.68
9517.00,1.68
9516.00,1.67
9515.00,1.67
9514.00,1.67
9513.00,1.67
9512.00,1.66
9511.00,1.66
9510.00,1.66
9509.00,1.66
9508.00,1.66
9507.00,1.66
9506.00,1.66
9505.00,1.66
9504.00,1.66
9503.00,1.66
9502.00,1.67
9501.00,1.67
9500.00,1.67
9499.00,1.67
9498.00,1.67
9497.00,1.68
9496.00,1.68
9495.00,1.68
9494.00,1.68
9493.00,1.68
9492.00,1.68
9491.00,1.68
9490.00,1.68
9489.00,1.68
9488.00,1.68
9487.00,1.68
9486.00,1.68
9485.00,1.67
9484.00,1.67
9483.00,1.67
9482.00,1.67
9481.00,1.67
9480.00,1.67
9479.00,1.67
9478.00,1.67
9477.00,1.67
9476.00,1.67
9475.00,1.68
9474.00,1.68
9473.00,1.68
9472.00,1.68
9471.00,1.68
9470.00,1.68
9469.00,1.69
9468.00,1.69
9467.00,1.69
9466.00,1.69
9465.00,1.69
9464.00,1.69
9463.00,1.70
9462.00,1.70
9461.00,1.70
9460.00,1.70
9459.00,1.70
9458.00,1.70
9457.00,1.69
9456.00,1.69
9455.00,1.69
9454.00,1.69
9453.00,1.69
9452.00,1.69
9451.00,1.69
9450.00,1.68
9449.00,1.68
9448.00,1.68
9447.00,1.68
9446.00,1.68
9445.00,1.68
9444.00,1.68
9443.00,1.68
9442.00,1.68
9441.00,1.68
9440.00,1.68
9439.00,1.68
9438.00,1.68
9437.00,1.68
9436.00,1.68
9435.00,1.68
9434.00,1.68
9433.00,1.68
9432.00,1.68
9431.00,1.68
9430.00,1.68
9429.00,1.68
9428.00,1.68
9427.00,1.68
9426.00,1.68
9425.00,1.68
9424.00,1.67
9423.00,1.67
9422.00,1.67
9421.00,1.67
9420.00,1.67
9419.00,1.67
9418.00,1.67
9417.00,1.67
9416.00,1.67
9415.00,1.67
9414.00,1.67
9413.00,1.67
9412.00,1.67
9411.00,1.67
9410.00,1.67
9409.00,1.67
9408.00,1.67
9407.00,1.67
9406.00,1.67
9405.00,1.67
9404.00,1.67
9403.00,1.67
9402.00,1.67
9401.00,1.67
9400.00,1.67
9399.00,1.67
9398.00,1.67
9397.00,1.67
9396.00,1.67
9395.00,1.67
9394.00,1.67
9393.00,1.67
9392.00,1.67
9391.00,1.67
9390.00,1.67
9389.00,1.67
9388.00,1.67
9387.00,1.68
9386.00,1.68
9385.00,1.68
9384.00,1.68
9383.00,1.68
9382.00,1.68
9381.00,1.68
9380.00,1.68
9379.00,1.68
9378.00,1.68
9377.00,1.69
9376.00,1.69
9375.00,1.69
9374.00,1.69
9373.00,1.69
9372.00,1.69
9371.00,1.69
9370.00,1.69
9369.00,1.69
9368.00,1.69
9367.00,1.69
9366.00,1.69
9365.00,1.69
9364.00,1.69
9363.00,1.68
9362.00,1.68
9361.00,1.68
9360.00,1.68
9359.00,1.68
9358.00,1.68
9357.00,1.68
9356.00,1.67
9355.00,1.67
9354.00,1.67
9353.00,1.67
9352.00,1.67
9351.00,1.67
9350.00,1.67
9349.00,1.67
9348.00,1.67
9347.00,1.67
9346.00,1.67
9345.00,1.67
9344.00,1.67
9343.00,1.67
9342.00,1.67
9341.00,1.67
9340.00,1.67
9339.00,1.67
9338.00,1.67
9337.00,1.67
9336.00,1.67
9335.00,1.67
9334.00,1.67
9333.00,1.67
9332.00,1.67
9331.00,1.67
9330.00,1.67
9329.00,1.67
9328.00,1.67
9327.00,1.67
9326.00,1.67
9325.00,1.66
9324.00,1.66
9323.00,1.66
9322.00,1.66
9321.00,1.66
9320.00,1.65
9319.00,1.65
9318.00,1.65
9317.00,1.65
9316.00,1.65
9315.00,1.65
9314.00,1.66
9313.00,1.66
9312.00,1.66
9311.00,1.66
9310.00,1.66
9309.00,1.67
9308.00,1.67
9307.00,1.67
9306.00,1.67
9305.00,1.67
9304.00,1.68
9303.00,1.68
9302.00,1.68
9301.00,1.68
9300.00,1.68
9299.00,1.68
9298.00,1.68
9297.00,1.68
9296.00,1.68
9295.00,1.68
9294.00,1.68
9293.00,1.68
9292.00,1.68
9291.00,1.68
9290.00,1.68
9289.00,1.68
9288.00,1.68
9287.00,1.68
9286.00,1.68
9285.00,1.68
9284.00,1.68
9283.00,1.68
9282.00,1.68
9281.00,1.68
9280.00,1.68
9279.00,1.68
9278.00,1.68
9277.00,1.68
9276.00,1.68
9275.00,1.68
9274.00,1.68
9273.00,1.68
9272.00,1.68
9271.00,1.68
9270.00,1.68
9269.00,1.68
9268.00,1.68
9267.00,1.68
9266.00,1.68
9265.00,1.68
9264.00,1.68
9263.00,1.68
9262.00,1.68
9261.00,1.68
9260.00,1.68
9259.00,1.68
9258.00,1.68
9257.00,1.69
9256.00,1.69
9255.00,1.69
9254.00,1.69
9253.00,1.70
9252.00,1.70
9251.00,1.70
9250.00,1.70
9249.00,1.70
9248.00,1.70
9247.00,1.70
9246.00,1.70
9245.00,1.70
9244.00,1.70
9243.00,1.70
9242.00,1.70
9241.00,1.70
9240.00,1.70
9239.00,1.70
9238.00,1.70
9237.00,1.69
9236.00,1.69
9235.00,1.69
9234.00,1.69
9233.00,1.69
9232.00,1.69
9231.00,1.69
9230.00,1.69
9229.00,1.69
9228.00,1.69
9227.00,1.69
9226.00,1.69
9225.00,1.69
9224.00,1.69
9223.00,1.69
9222.00,1.69
9221.00,1.68
9220.00,1.68
9219.00,1.68
9218.00,1.68
9217.00,1.68
9216.00,1.67
9215.00,1.67
9214.00,1.67
9213.00,1.67
9212.00,1.67
9211.00,1.67
9210.00,1.67
9209.00,1.67
9208.00,1.67
9207.00,1.67
9206.00,1.67
9205.00,1.67
9204.00,1.67
9203.00,1.67
9202.00,1.67
9201.00,1.67
9200.00,1.67
9199.00,1.67
9198.00,1.67
9197.00,1.67
9196.00,1.67
9195.00,1.67
9194.00,1.67
9193.00,1.67
9192.00,1.67
9191.00,1.67
9190.00,1.67
9189.00,1.67
9188.00,1.67
9187.00,1.66
9186.00,1.66
9185.00,1.66
9184.00,1.66
9183.00,1.66
9182.00,1.66
9181.00,1.66
9180.00,1.66
9179.00,1.66
9178.00,1.66
9177.00,1.66
9176.00,1.67
9175.00,1.67
9174.00,1.67
9173.00,1.67
9172.00,1.67
9171.00,1.67
9170.00,1.67
9169.00,1.67
9168.00,1.67
9167.00,1.67
9166.00,1.68
9165.00,1.68
9164.00,1.68
9163.00,1.68
9162.00,1.68
9161.00,1.68
9160.00,1.67
9159.00,1.67
9158.00,1.67
9157.00,1.67
9156.00,1.67
9155.00,1.67
9154.00,1.67
9153.00,1.67
9152.00,1.67
9151.00,1.66
9150.00,1.66
9149.00,1.66
9148.00,1.66
9147.00,1.66
9146.00,1.66
9145.00,1.66
9144.00,1.66
9143.00,1.66
9142.00,1.66
9141.00,1.66
9140.00,1.66
9139.00,1.66
9138.00,1.66
9137.00,1.66
9136.00,1.67
9135.00,1.67
9134.00,1.67
9133.00,1.67
9132.00,1.67
9131.00,1.67
9130.00,1.67
9129.00,1.67
9128.00,1.67
9127.00,1.67
9126.00,1.67
9125.00,1.67
9124.00,1.67
9123.00,1.67
9122.00,1.67
9121.00,1.67
9120.00,1.67
9119.00,1.67
9118.00,1.67
9117.00,1.67
9116.00,1.67
9115.00,1.67
9114.00,1.67
9113.00,1.67
9112.00,1.67
9111.00,1.67
9110.00,1.68
9109.00,1.68
9108.00,1.68
9107.00,1.68
9106.00,1.68
9105.00,1.69
9104.00,1.69
9103.00,1.69
9102.00,1.69
9101.00,1.69
9100.00,1.70
9099.00,1.70
9098.00,1.70
9097.00,1.70
9096.00,1.70
9095.00,1.70
9094.00,1.70
9093.00,1.70
9092.00,1.70
9091.00,1.70
9090.00,1.70
9089.00,1.70
9088.00,1.70
9087.00,1.69
9086.00,1.69
9085.00,1.69
9084.00,1.69
9083.00,1.68
9082.00,1.68
9081.00,1.68
9080.00,1.68
9079.00,1.67
9078.00,1.67
9077.00,1.67
9076.00,1.67
9075.00,1.67
9074.00,1.67
9073.00,1.66
9072.00,1.66
9071.00,1.66
9070.00,1.66
9069.00,1.66
9068.00,1.66
9067.00,1.66
9066.00,1.66
9065.00,1.66
9064.00,1.66
9063.00,1.66
9062.00,1.66
9061.00,1.66
9060.00,1.66
9059.00,1.66
9058.00,1.66
9057.00,1.66
9056.00,1.66
9055.00,1.67
9054.00,1.67
9053.00,1.67
9052.00,1.67
9051.00,1.67
9050.00,1.68
9049.00,1.68
9048.00,1.68
9047.00,1.68
9046.00,1.68
9045.00,1.68
9044.00,1.68
9043.00,1.68
9042.00,1.69
9041.00,1.69
9040.00,1.69
9039.00,1.69
9038.00,1.69
9037.00,1.69
9036.00,1.68
9035.00,1.68
9034.00,1.68
9033.00,1.68
9032.00,1.68
9031.00,1.69
9030.00,1.69
9029.00,1.69
9028.00,1.69
9027.00,1.69
9026.00,1.69
9025.00,1.69
9024.00,1.69
9023.00,1.69
9022.00,1.69
9021.00,1.69
9020.00,1.69
9019.00,1.69
9018.00,1.69
9017.00,1.69
9016.00,1.69
9015.00,1.68
9014.00,1.68
9013.00,1.68
9012.00,1.68
9011.00,1.68
9010.00,1.68
9009.00,1.68
9008.00,1.68
9007.00,1.68
9006.00,1.68
9005.00,1.68
9004.00,1.68
9003.00,1.68
9002.00,1.68
9001.00,1.68
9000.00,1.68
8999.00,1.68
8998.00,1.68
8997.00,1.68
8996.00,1.68
8995.00,1.68
8994.00,1.68
8993.00,1.68
8992.00,1.68
8991.00,1.68
8990.00,1.69
8989.00,1.69
8988.00,1.69
8987.00,1.69
8986.00,1.69
8985.00,1.69
8984.00,1.70
8983.00,1.70
8982.00,1.70
8981.00,1.70
8980.00,1.70
8979.00,1.70
8978.00,1.70
8977.00,1.70
8976.00,1.70
8975.00,1.70
8974.00,1.70
8973.00,1.70
8972.00,1.70
8971.00,1.70
8970.00,1.70
8969.00,1.70
8968.00,1.69
8967.00,1.69
8966.00,1.69
8965.00,1.69
8964.00,1.69
8963.00,1.69
8962.00,1.69
8961.00,1.69
8960.00,1.69
8959.00,1.69
8958.00,1.69
8957.00,1.69
8956.00,1.69
8955.00,1.69
8954.00,1.69
8953.00,1.69
8952.00,1.69
8951.00,1.69
8950.00,1.69
8949.00,1.68
8948.00,1.68
8947.00,1.68
8946.00,1.68
8945.00,1.68
8944.00,1.68
8943.00,1.68
8942.00,1.68
8941.00,1.68
8940.00,1.67
8939.00,1.67
8938.00,1.67
8937.00,1.67
8936.00,1.67
8935.00,1.67
8934.00,1.67
8933.00,1.67
8932.00,1.67
8931.00,1.67
8930.00,1.67
8929.00,1.67
8928.00,1.67
8927.00,1.67
8926.00,1.67
8925.00,1.67
8924.00,1.67
8923.00,1.67
8922.00,1.67
8921.00,1.67
8920.00,1.67
8919.00,1.67
8918.00,1.67
8917.00,1.67
8916.00,1.67
8915.00,1.67
8914.00,1.67
8913.00,1.67
8912.00,1.67
8911.00,1.67
8910.00,1.67
8909.00,1.67
8908.00,1.67
8907.00,1.67
8906.00,1.67
8905.00,1.67
8904.00,1.67
8903.00,1.67
8902.00,1.67
8901.00,1.67
8900.00,1.67
8899.00,1.67
8898.00,1.67
8897.00,1.67
8896.00,1.67
8895.00,1.67
8894.00,1.67
8893.00,1.68
8892.00,1.68
8891.00,1.68
8890.00,1.68
8889.00,1.68
8888.00,1.69
8887.00,1.69
8886.00,1.69
8885.00,1.69
8884.00,1.69
8883.00,1.69
8882.00,1.69
8881.00,1.69
8880.00,1.69
8879.00,1.69
8878.00,1.69
8877.00,1.68
8876.00,1.68
8875.00,1.68
8874.00,1.68
8873.00,1.68
8872.00,1.68
8871.00,1.68
8870.00,1.68
8869.00,1.68
8868.00,1.68
8867.00,1.67
8866.00,1.67
8865.00,1.67
8864.00,1.67
8863.00,1.67
8862.00,1.67
8861.00,1.67
8860.00,1.67
8859.00,1.66
8858.00,1.66
8857.00,1.66
8856.00,1.66
8855.00,1.66
8854.00,1.66
8853.00,1.66
8852.00,1.65
8851.00,1.65
8850.00,1.65
8849.00,1.65
8848.00,1.65
8847.00,1.65
8846.00,1.65
8845.00,1.65
8844.00,1.65
8843.00,1.65
8842.00,1.65
8841.00,1.65
8840.00,1.65
8839.00,1.65
8838.00,1.65
8837.00,1.65
8836.00,1.65
8835.00,1.65
8834.00,1.65
8833.00,1.65
8832.00,1.66
8831.00,1.66
8830.00,1.66
8829.00,1.66
8828.00,1.66
8827.00,1.65
8826.00,1.65
8825.00,1.65
8824.00,1.65
8823.00,1.65
8822.00,1.65
8821.00,1.65
8820.00,1.65
8819.00,1.65
8818.00,1.64
8817.00,1.64
8816.00,1.64
8815.00,1.64
8814.00,1.64
8813.00,1.64
8812.00,1.64
8811.00,1.63
8810.00,1.63
8809.00,1.63
8808.00,1.63
8807.00,1.63
8806.00,1.63
8805.00,1.63
8804.00,1.63
8803.00,1.63
8802.00,1.63
8801.00,1.63
8800.00,1.63
8799.00,1.63
8798.00,1.63
8797.00,1.63
8796.00,1.63
8795.00,1.63
8794.00,1.63
8793.00,1.63
8792.00,1.63
8791.00,1.63
8790.00,1.63
8789.00,1.63
8788.00,1.62
8787.00,1.62
8786.00,1.62
8785.00,1.62
8784.00,1.62
8783.00,1.62
8782.00,1.62
8781.00,1.62
8780.00,1.61
8779.00,1.61
8778.00,1.61
8777.00,1.61
8776.00,1.61
8775.00,1.61
8774.00,1.61
8773.00,1.60
8772.00,1.60
8771.00,1.60
8770.00,1.60
8769.00,1.60
8768.00,1.60
8767.00,1.60
8766.00,1.60
8765.00,1.59
8764.00,1.59
8763.00,1.59
8762.00,1.59
8761.00,1.59
8760.00,1.59
8759.00,1.59
8758.00,1.59
8757.00,1.59
8756.00,1.60
8755.00,1.60
8754.00,1.60
8753.00,1.60
8752.00,1.60
8751.00,1.60
8750.00,1.60
8749.00,1.60
8748.00,1.60
8747.00,1.60
8746.00,1.60
8745.00,1.60
8744.00,1.60
8743.00,1.60
8742.00,1.60
8741.00,1.60
8740.00,1.60
8739.00,1.59
8738.00,1.59
8737.00,1.59
8736.00,1.59
8735.00,1.59
8734.00,1.59
8733.00,1.58
8732.00,1.58
8731.00,1.58
8730.00,1.58
8729.00,1.58
8728.00,1.58
8727.00,1.58
8726.00,1.58
8725.00,1.58
8724.00,1.58
8723.00,1.58
8722.00,1.58
8721.00,1.58
8720.00,1.58
8719.00,1.58
8718.00,1.58
8717.00,1.58
8716.00,1.58
8715.00,1.58
8714.00,1.58
8713.00,1.58
8712.00,1.58
8711.00,1.58
8710.00,1.58
8709.00,1.58
8708.00,1.58
8707.00,1.58
8706.00,1.58
8705.00,1.58
8704.00,1.58
8703.00,1.58
8702.00,1.57
8701.00,1.57
8700.00,1.57
8699.00,1.57
8698.00,1.57
8697.00,1.57
8696.00,1.57
8695.00,1.57
8694.00,1.57
8693.00,1.57
8692.00,1.57
8691.00,1.57
8690.00,1.57
8689.00,1.57
8688.00,1.57
8687.00,1.57
8686.00,1.57
8685.00,1.57
8684.00,1.57
8683.00,1.57
8682.00,1.57
8681.00,1.57
8680.00,1.57
8679.00,1.57
8678.00,1.57
8677.00,1.57
8676.00,1.57
8675.00,1.57
8674.00,1.57
8673.00,1.57
8672.00,1.57
8671.00,1.57
8670.00,1.57
8669.00,1.57
8668.00,1.57
8667.00,1.57
8666.00,1.57
8665.00,1.57
8664.00,1.57
8663.00,1.57
8662.00,1.57
8661.00,1.57
8660.00,1.57
8659.00,1.57
8658.00,1.57
8657.00,1.57
8656.00,1.57
8655.00,1.57
8654.00,1.57
8653.00,1.57
8652.00,1.57
8651.00,1.57
8650.00,1.56
8649.00,1.56
8648.00,1.56
8647.00,1.56
8646.00,1.56
8645.00,1.56
8644.00,1.56
8643.00,1.56
8642.00,1.56
8641.00,1.56
8640.00,1.56
8639.00,1.56
8638.00,1.56
8637.00,1.56
8636.00,1.56
8635.00,1.55
8634.00,1.55
8633.00,1.55
8632.00,1.55
8631.00,1.55
8630.00,1.55
8629.00,1.55
8628.00,1.55
8627.00,1.55
8626.00,1.54
8625.00,1.54
8624.00,1.54
8623.00,1.54
8622.00,1.54
8621.00,1.54
8620.00,1.54
8619.00,1.54
8618.00,1.54
8617.00,1.54
8616.00,1.54
8615.00,1.54
8614.00,1.54
8613.00,1.54
8612.00,1.54
8611.00,1.53
8610.00,1.53
8609.00,1.53
8608.00,1.53
8607.00,1.53
8606.00,1.53
8605.00,1.53
8604.00,1.53
8603.00,1.53
8602.00,1.53
8601.00,1.52
8600.00,1.52
8599.00,1.52
8598.00,1.52
8597.00,1.52
8596.00,1.52
8595.00,1.52
8594.00,1.51
8593.00,1.51
8592.00,1.51
8591.00,1.51
8590.00,1.51
8589.00,1.51
8588.00,1.51
8587.00,1.50
8586.00,1.50
8585.00,1.50
8584.00,1.50
8583.00,1.50
8582.00,1.50
8581.00,1.50
8580.00,1.50
8579.00,1.50
8578.00,1.50
8577.00,1.50
8576.00,1.50
8575.00,1.50
8574.00,1.50
8573.00,1.50
8572.00,1.50
8571.00,1.50
8570.00,1.50
8569.00,1.50
8568.00,1.50
8567.00,1.49
8566.00,1.49
8565.00,1.49
8564.00,1.49
8563.00,1.49
8562.00,1.49
8561.00,1.49
8560.00,1.49
8559.00,1.48
8558.00,1.48
8557.00,1.48
8556.00,1.48
8555.00,1.48
8554.00,1.48
8553.00,1.48
8552.00,1.48
8551.00,1.48
8550.00,1.48
8549.00,1.48
8548.00,1.48
8547.00,1.48
8546.00,1.48
8545.00,1.48
8544.00,1.48
8543.00,1.48
8542.00,1.48
8541.00,1.47
8540.00,1.47
8539.00,1.47
8538.00,1.47
8537.00,1.47
8536.00,1.47
8535.00,1.47
8534.00,1.47
8533.00,1.47
8532.00,1.47
8531.00,1.47
8530.00,1.47
8529.00,1.47
8528.00,1.47
8527.00,1.47
8526.00,1.47
8525.00,1.47
8524.00,1.47
8523.00,1.47
8522.00,1.47
8521.00,1.47
8520.00,1.47
8519.00,1.47
8518.00,1.47
8517.00,1.47
8516.00,1.47
8515.00,1.47
8514.00,1.47
8513.00,1.47
8512.00,1.47
8511.00,1.47
8510.00,1.47
8509.00,1.46
8508.00,1.46
8507.00,1.46
8506.00,1.46
8505.00,1.46
8504.00,1.46
8503.00,1.46
8502.00,1.46
8501.00,1.46
8500.00,1.46
8499.00,1.46
8498.00,1.46
8497.00,1.45
8496.00,1.45
8495.00,1.45
8494.00,1.45
8493.00,1.45
8492.00,1.45
8491.00,1.44
8490.00,1.44
8489.00,1.44
8488.00,1.44
8487.00,1.44
8486.00,1.44
8485.00,1.44
8484.00,1.43
8483.00,1.43
8482.00,1.43
8481.00,1.43
8480.00,1.43
8479.00,1.43
8478.00,1.43
8477.00,1.43
8476.00,1.43
8475.00,1.42
8474.00,1.42
8473.00,1.42
8472.00,1.42
8471.00,1.42
8470.00,1.42
8469.00,1.41
8468.00,1.41
8467.00,1.41
8466.00,1.41
8465.00,1.41
8464.00,1.40
8463.00,1.40
8462.00,1.40
8461.00,1.40
8460.00,1.40
8459.00,1.40
8458.00,1.40
8457.00,1.39
8456.00,1.39
8455.00,1.39
8454.00,1.39
8453.00,1.39
8452.00,1.39
8451.00,1.39
8450.00,1.39
8449.00,1.39
8448.00,1.39
8447.00,1.39
8446.00,1.39
8445.00,1.39
8444.00,1.39
8443.00,1.39
8442.00,1.39
8441.00,1.38
8440.00,1.38
8439.00,1.38
8438.00,1.38
8437.00,1.38
8436.00,1.38
8435.00,1.38
8434.00,1.38
8433.00,1.38
8432.00,1.38
8431.00,1.38
8430.00,1.38
8429.00,1.38
8428.00,1.38
8427.00,1.38
8426.00,1.39
8425.00,1.39
8424.00,1.39
8423.00,1.39
8422.00,1.39
8421.00,1.39
8420.00,1.40
8419.00,1.40
8418.00,1.40
8417.00,1.40
8416.00,1.40
8415.00,1.40
8414.00,1.40
8413.00,1.40
8412.00,1.40
8411.00,1.40
8410.00,1.40
8409.00,1.40
8408.00,1.40
8407.00,1.41
8406.00,1.41
8405.00,1.41
8404.00,1.41
8403.00,1.41
8402.00,1.41
8401.00,1.41
8400.00,1.41
8399.00,1.41
8398.00,1.41
8397.00,1.41
8396.00,1.41
8395.00,1.41
8394.00,1.41
8393.00,1.41
8392.00,1.41
8391.00,1.41
8390.00,1.41
8389.00,1.41
8388.00,1.42
8387.00,1.42
8386.00,1.42
8385.00,1.42
8384.00,1.42
8383.00,1.42
8382.00,1.42
8381.00,1.42
8380.00,1.42
8379.00,1.43
8378.00,1.43
8377.00,1.43
8376.00,1.43
8375.00,1.43
8374.00,1.43
8373.00,1.43
8372.00,1.43
8371.00,1.44
8370.00,1.44
8369.00,1.44
8368.00,1.44
8367.00,1.44
8366.00,1.44
8365.00,1.44
8364.00,1.44
8363.00,1.44
8362.00,1.45
8361.00,1.45
8360.00,1.45
8359.00,1.45
8358.00,1.45
8357.00,1.45
8356.00,1.45
8355.00,1.45
8354.00,1.45
8353.00,1.45
8352.00,1.45
8351.00,1.45
8350.00,1.45
8349.00,1.45
8348.00,1.45
8347.00,1.45
8346.00,1.45
8345.00,1.45
8344.00,1.45
8343.00,1.45
8342.00,1.45
8341.00,1.45
8340.00,1.45
8339.00,1.45
8338.00,1.45
8337.00,1.45
8336.00,1.45
8335.00,1.45
8334.00,1.45
8333.00,1.45
8332.00,1.45
8331.00,1.46
8330.00,1.46
8329.00,1.46
8328.00,1.46
8327.00,1.46
8326.00,1.46
8325.00,1.46
8324.00,1.46
8323.00,1.46
8322.00,1.46
8321.00,1.46
8320.00,1.46
8319.00,1.46
8318.00,1.46
8317.00,1.46
8316.00,1.46
8315.00,1.46
8314.00,1.45
8313.00,1.45
8312.00,1.45
8311.00,1.45
8310.00,1.45
8309.00,1.45
8308.00,1.45
8307.00,1.45
8306.00,1.45
8305.00,1.45
8304.00,1.45
8303.00,1.45
8302.00,1.45
8301.00,1.45
8300.00,1.45
8299.00,1.45
8298.00,1.45
8297.00,1.45
8296.00,1.45
8295.00,1.46
8294.00,1.46
8293.00,1.46
8292.00,1.46
8291.00,1.46
8290.00,1.46
8289.00,1.46
8288.00,1.46
8287.00,1.47
8286.00,1.47
8285.00,1.47
8284.00,1.47
8283.00,1.47
8282.00,1.47
8281.00,1.47
8280.00,1.48
8279.00,1.48
8278.00,1.48
8277.00,1.48
8276.00,1.48
8275.00,1.48
8274.00,1.48
8273.00,1.48
8272.00,1.48
8271.00,1.48
8270.00,1.48
8269.00,1.48
8268.00,1.48
8267.00,1.48
8266.00,1.48
8265.00,1.48
8264.00,1.48
8263.00,1.48
8262.00,1.48
8261.00,1.48
8260.00,1.48
8259.00,1.48
8258.00,1.48
8257.00,1.48
8256.00,1.48
8255.00,1.48
8254.00,1.48
8253.00,1.49
8252.00,1.49
8251.00,1.49
8250.00,1.49
8249.00,1.49
8248.00,1.49
8247.00,1.49
8246.00,1.49
8245.00,1.49
8244.00,1.49
8243.00,1.49
8242.00,1.49
8241.00,1.49
8240.00,1.49
8239.00,1.49
8238.00,1.49
8237.00,1.49
8236.00,1.49
8235.00,1.49
8234.00,1.49
8233.00,1.49
8232.00,1.49
8231.00,1.49
8230.00,1.49
8229.00,1.49
8228.00,1.49
8227.00,1.50
8226.00,1.50
8225.00,1.50
8224.00,1.50
8223.00,1.50
8222.00,1.50
8221.00,1.50
8220.00,1.50
8219.00,1.50
8218.00,1.50
8217.00,1.50
8216.00,1.50
8215.00,1.50
8214.00,1.50
8213.00,1.50
8212.00,1.50
8211.00,1.50
8210.00,1.50
8209.00,1.50
8208.00,1.50
8207.00,1.50
8206.00,1.51
8205.00,1.51
8204.00,1.51
8203.00,1.51
8202.00,1.51
8201.00,1.51
8200.00,1.51
8199.00,1.52
8198.00,1.52
8197.00,1.52
8196.00,1.52
8195.00,1.52
8194.00,1.52
8193.00,1.52
8192.00,1.52
8191.00,1.52
8190.00,1.52
8189.00,1.52
8188.00,1.52
8187.00,1.52
8186.00,1.52
8185.00,1.53
8184.00,1.53
8183.00,1.53
8182.00,1.53
8181.00,1.53
8180.00,1.53
8179.00,1.53
8178.00,1.53
8177.00,1.53
8176.00,1.53
8175.00,1.53
8174.00,1.53
8173.00,1.53
8172.00,1.53
8171.00,1.53
8170.00,1.53
8169.00,1.53
8168.00,1.53
8167.00,1.53
8166.00,1.54
8165.00,1.54
8164.00,1.54
8163.00,1.54
8162.00,1.54
8161.00,1.54
8160.00,1.54
8159.00,1.54
8158.00,1.54
8157.00,1.54
8156.00,1.54
8155.00,1.54
8154.00,1.54
8153.00,1.54
8152.00,1.54
8151.00,1.54
8150.00,1.54
8149.00,1.54
8148.00,1.54
8147.00,1.54
8146.00,1.55
8145.00,1.55
8144.00,1.55
8143.00,1.55
8142.00,1.55
8141.00,1.55
8140.00,1.55
8139.00,1.55
8138.00,1.55
8137.00,1.55
8136.00,1.55
8135.00,1.55
8134.00,1.55
8133.00,1.55
8132.00,1.56
8131.00,1.56
8130.00,1.56
8129.00,1.56
8128.00,1.56
8127.00,1.56
8126.00,1.56
8125.00,1.56
8124.00,1.56
8123.00,1.56
8122.00,1.56
8121.00,1.56
8120.00,1.56
8119.00,1.56
8118.00,1.56
8117.00,1.57
8116.00,1.57
8115.00,1.57
8114.00,1.57
8113.00,1.57
8112.00,1.57
8111.00,1.57
8110.00,1.57
8109.00,1.57
8108.00,1.57
8107.00,1.57
8106.00,1.57
8105.00,1.57
8104.00,1.57
8103.00,1.57
8102.00,1.57
8101.00,1.57
8100.00,1.57
8099.00,1.57
8098.00,1.57
8097.00,1.57
8096.00,1.57
8095.00,1.57
8094.00,1.57
8093.00,1.57
8092.00,1.57
8091.00,1.57
8090.00,1.57
8089.00,1.57
8088.00,1.57
8087.00,1.57
8086.00,1.58
8085.00,1.58
8084.00,1.58
8083.00,1.58
8082.00,1.58
8081.00,1.58
8080.00,1.58
8079.00,1.59
8078.00,1.59
8077.00,1.59
8076.00,1.59
8075.00,1.59
8074.00,1.59
8073.00,1.59
8072.00,1.60
8071.00,1.60
8070.00,1.60
8069.00,1.60
8068.00,1.60
8067.00,1.60
8066.00,1.60
8065.00,1.60
8064.00,1.60
8063.00,1.60
8062.00,1.60
8061.00,1.60
8060.00,1.60
8059.00,1.60
8058.00,1.60
8057.00,1.60
8056.00,1.60
8055.00,1.60
8054.00,1.60
8053.00,1.60
8052.00,1.60
8051.00,1.60
8050.00,1.60
8049.00,1.60
8048.00,1.60
8047.00,1.60
8046.00,1.60
8045.00,1.60
8044.00,1.60
8043.00,1.60
8042.00,1.60
8041.00,1.60
8040.00,1.60
8039.00,1.60
8038.00,1.61
8037.00,1.61
8036.00,1.61
8035.00,1.61
8034.00,1.61
8033.00,1.61
8032.00,1.61
8031.00,1.61
8030.00,1.61
8029.00,1.62
8028.00,1.62
8027.00,1.62
8026.00,1.62
8025.00,1.62
8024.00,1.62
8023.00,1.62
8022.00,1.62
8021.00,1.62
8020.00,1.62
8019.00,1.62
8018.00,1.61
8017.00,1.61
8016.00,1.61
8015.00,1.61
8014.00,1.61
8013.00,1.61
8012.00,1.61
8011.00,1.61
8010.00,1.61
8009.00,1.61
8008.00,1.61
8007.00,1.61
8006.00,1.62
8005.00,1.62
8004.00,1.62
8003.00,1.62
8002.00,1.62
8001.00,1.62
8000.00,1.62
7999.00,1.62
7998.00,1.62
7997.00,1.62
7996.00,1.62
7995.00,1.62
7994.00,1.62
7993.00,1.62
7992.00,1.63
7991.00,1.63
7990.00,1.63
7989.00,1.63
7988.00,1.63
7987.00,1.63
7986.00,1.63
7985.00,1.63
7984.00,1.64
7983.00,1.64
7982.00,1.64
7981.00,1.64
7980.00,1.64
7979.00,1.64
7978.00,1.64
7977.00,1.64
7976.00,1.64
7975.00,1.64
7974.00,1.64
7973.00,1.64
7972.00,1.64
7971.00,1.64
7970.00,1.64
7969.00,1.64
7968.00,1.64
7967.00,1.64
7966.00,1.64
7965.00,1.64
7964.00,1.64
7963.00,1.64
7962.00,1.64
7961.00,1.64
7960.00,1.64
7959.00,1.64
7958.00,1.64
7957.00,1.64
7956.00,1.64
7955.00,1.64
7954.00,1.64
7953.00,1.64
7952.00,1.64
7951.00,1.64
7950.00,1.64
7949.00,1.64
7948.00,1.64
7947.00,1.64
7946.00,1.64
7945.00,1.64
7944.00,1.64
7943.00,1.64
7942.00,1.65
7941.00,1.65
7940.00,1.65
7939.00,1.65
7938.00,1.65
7937.00,1.65
7936.00,1.65
7935.00,1.65
7934.00,1.65
7933.00,1.65
7932.00,1.65
7931.00,1.65
7930.00,1.65
7929.00,1.65
7928.00,1.65
7927.00,1.65
7926.00,1.65
7925.00,1.65
7924.00,1.65
7923.00,1.65
7922.00,1.65
7921.00,1.65
7920.00,1.65
7919.00,1.65
7918.00,1.65
7917.00,1.65
7916.00,1.65
7915.00,1.65
7914.00,1.65
7913.00,1.65
7912.00,1.65
7911.00,1.65
7910.00,1.65
7909.00,1.65
7908.00,1.65
7907.00,1.65
7906.00,1.65
7905.00,1.65
7904.00,1.65
7903.00,1.65
7902.00,1.65
7901.00,1.65
7900.00,1.65
7899.00,1.65
7898.00,1.65
7897.00,1.65
7896.00,1.65
7895.00,1.65
7894.00,1.65
7893.00,1.66
7892.00,1.66
7891.00,1.66
7890.00,1.66
7889.00,1.66
7888.00,1.66
7887.00,1.66
7886.00,1.66
7885.00,1.66
7884.00,1.67
7883.00,1.67
7882.00,1.67
7881.00,1.67
7880.00,1.67
7879.00,1.67
7878.00,1.67
7877.00,1.67
7876.00,1.67
7875.00,1.67
7874.00,1.67
7873.00,1.67
7872.00,1.67
7871.00,1.67
7870.00,1.67
7869.00,1.67
7868.00,1.67
7867.00,1.67
7866.00,1.67
7865.00,1.67
7864.00,1.67
7863.00,1.67
7862.00,1.67
7861.00,1.67
7860.00,1.67
7859.00,1.67
7858.00,1.67
7857.00,1.67
7856.00,1.67
7855.00,1.67
7854.00,1.67
7853.00,1.67
7852.00,1.67
7851.00,1.67
7850.00,1.67
7849.00,1.67
7848.00,1.67
7847.00,1.67
7846.00,1.67
7845.00,1.67
7844.00,1.67
7843.00,1.67
7842.00,1.67
7841.00,1.67
7840.00,1.67
7839.00,1.67
7838.00,1.67
7837.00,1.68
7836.00,1.68
7835.00,1.68
7834.00,1.68
7833.00,1.68
7832.00,1.68
7831.00,1.68
7830.00,1.68
7829.00,1.68
7828.00,1.68
7827.00,1.68
7826.00,1.68
7825.00,1.68
7824.00,1.68
7823.00,1.68
7822.00,1.68
7821.00,1.68
7820.00,1.68
7819.00,1.68
7818.00,1.68
7817.00,1.68
7816.00,1.67
7815.00,1.67
7814.00,1.67
7813.00,1.67
7812.00,1.67
7811.00,1.67
7810.00,1.67
7809.00,1.67
7808.00,1.67
7807.00,1.67
7806.00,1.67
7805.00,1.67
7804.00,1.67
7803.00,1.67
7802.00,1.67
7801.00,1.67
7800.00,1.67
7799.00,1.67
7798.00,1.68
7797.00,1.68
7796.00,1.68
7795.00,1.68
7794.00,1.68
7793.00,1.68
7792.00,1.68
7791.00,1.68
7790.00,1.68
7789.00,1.68
7788.00,1.68
7787.00,1.68
7786.00,1.68
7785.00,1.68
7784.00,1.68
7783.00,1.68
7782.00,1.68
7781.00,1.68
7780.00,1.68
7779.00,1.68
7778.00,1.68
7777.00,1.68
7776.00,1.68
7775.00,1.68
7774.00,1.68
7773.00,1.68
7772.00,1.68
7771.00,1.69
7770.00,1.69
7769.00,1.69
7768.00,1.69
7767.00,1.69
7766.00,1.69
7765.00,1.69
7764.00,1.69
7763.00,1.69
7762.00,1.69
7761.00,1.69
7760.00,1.69
7759.00,1.69
7758.00,1.69
7757.00,1.69
7756.00,1.69
7755.00,1.69
7754.00,1.69
7753.00,1.68
7752.00,1.68
7751.00,1.68
7750.00,1.68
7749.00,1.68
7748.00,1.68
7747.00,1.68
7746.00,1.68
7745.00,1.68
7744.00,1.68
7743.00,1.68
7742.00,1.68
7741.00,1.68
7740.00,1.68
7739.00,1.68
7738.00,1.68
7737.00,1.68
7736.00,1.68
7735.00,1.68
7734.00,1.68
7733.00,1.68
7732.00,1.68
7731.00,1.68
7730.00,1.69
7729.00,1.69
7728.00,1.69
7727.00,1.69
7726.00,1.69
7725.00,1.69
7724.00,1.69
7723.00,1.69
7722.00,1.69
7721.00,1.69
7720.00,1.69
7719.00,1.69
7718.00,1.69
7717.00,1.69
7716.00,1.69
7715.00,1.69
7714.00,1.70
7713.00,1.70
7712.00,1.70
7711.00,1.70
7710.00,1.70
7709.00,1.70
7708.00,1.70
7707.00,1.70
7706.00,1.70
7705.00,1.70
7704.00,1.70
7703.00,1.70
7702.00,1.70
7701.00,1.70
7700.00,1.70
7699.00,1.70
7698.00,1.70
7697.00,1.70
7696.00,1.70
7695.00,1.70
7694.00,1.70
7693.00,1.70
7692.00,1.70
7691.00,1.70
7690.00,1.70
7689.00,1.70
7688.00,1.70
7687.00,1.70
7686.00,1.70
7685.00,1.70
7684.00,1.70
7683.00,1.70
7682.00,1.70
7681.00,1.70
7680.00,1.70
7679.00,1.70
7678.00,1.70
7677.00,1.70
7676.00,1.70
7675.00,1.70
7674.00,1.70
7673.00,1.70
7672.00,1.70
7671.00,1.70
7670.00,1.70
7669.00,1.70
7668.00,1.70
7667.00,1.70
7666.00,1.70
7665.00,1.70
7664.00,1.70
7663.00,1.70
7662.00,1.70
7661.00,1.70
7660.00,1.70
7659.00,1.70
7658.00,1.70
7657.00,1.70
7656.00,1.70
7655.00,1.70
7654.00,1.70
7653.00,1.70
7652.00,1.70
7651.00,1.70
7650.00,1.70
7649.00,1.70
7648.00,1.70
7647.00,1.70
7646.00,1.70
7645.00,1.70
7644.00,1.70
7643.00,1.70
7642.00,1.70
7641.00,1.70
7640.00,1.70
7639.00,1.70
7638.00,1.70
7637.00,1.70
7636.00,1.70
7635.00,1.70
7634.00,1.70
7633.00,1.70
7632.00,1.70
7631.00,1.70
7630.00,1.70
7629.00,1.70
7628.00,1.70
7627.00,1.70
7626.00,1.70
7625.00,1.70
7624.00,1.70
7623.00,1.70
7622.00,1.70
7621.00,1.70
7620.00,1.70
7619.00,1.70
7618.00,1.70
7617.00,1.70
7616.00,1.70
7615.00,1.70
7614.00,1.70
7613.00,1.70
7612.00,1.70
7611.00,1.70
7610.00,1.70
7609.00,1.70
7608.00,1.70
7607.00,1.70
7606.00,1.70
7605.00,1.70
7604.00,1.70
7603.00,1.70
7602.00,1.70
7601.00,1.70
7600.00,1.70
7599.00,1.70
7598.00,1.70
7597.00,1.70
7596.00,1.69
7595.00,1.69
7594.00,1.69
7593.00,1.69
7592.00,1.69
7591.00,1.69
7590.00,1.69
7589.00,1.69
7588.00,1.69
7587.00,1.69
7586.00,1.69
7585.00,1.69
7584.00,1.69
7583.00,1.69
7582.00,1.69
7581.00,1.69
7580.00,1.69
7579.00,1.69
7578.00,1.69
7577.00,1.69
7576.00,1.69
7575.00,1.69
7574.00,1.69
7573.00,1.69
7572.00,1.69
7571.00,1.69
7570.00,1.69
7569.00,1.69
7568.00,1.69
7567.00,1.69
7566.00,1.69
7565.00,1.69
7564.00,1.69
7563.00,1.69
7562.00,1.69
7561.00,1.69
7560.00,1.69
7559.00,1.69
7558.00,1.69
7557.00,1.69
7556.00,1.69
7555.00,1.69
7554.00,1.69
7553.00,1.69
7552.00,1.69
7551.00,1.69
7550.00,1.69
7549.00,1.69
7548.00,1.69
7547.00,1.69
7546.00,1.69
7545.00,1.69
7544.00,1.69
7543.00,1.69
7542.00,1.69
7541.00,1.69
7540.00,1.69
7539.00,1.68
7538.00,1.68
7537.00,1.68
7536.00,1.68
7535.00,1.68
7534.00,1.68
7533.00,1.68
7532.00,1.68
7531.00,1.68
7530.00,1.68
7529.00,1.68
7528.00,1.68
7527.00,1.68
7526.00,1.68
7525.00,1.68
7524.00,1.68
7523.00,1.68
7522.00,1.68
7521.00,1.68
7520.00,1.68
7519.00,1.68
7518.00,1.68
7517.00,1.68
7516.00,1.68
7515.00,1.68
7514.00,1.68
7513.00,1.68
7512.00,1.68
7511.00,1.68
7510.00,1.68
7509.00,1.67
7508.00,1.67
7507.00,1.67
7506.00,1.67
7505.00,1.67
7504.00,1.67
7503.00,1.67
7502.00,1.67
7501.00,1.67
7500.00,1.67
7499.00,1.66
7498.00,1.66
7497.00,1.66
7496.00,1.66
7495.00,1.66
7494.00,1.66
7493.00,1.66
7492.00,1.66
7491.00,1.66
7490.00,1.66
7489.00,1.66
7488.00,1.66
7487.00,1.66
7486.00,1.66
7485.00,1.66
7484.00,1.66
7483.00,1.65
7482.00,1.65
7481.00,1.65
7480.00,1.65
7479.00,1.65
7478.00,1.65
7477.00,1.65
7476.00,1.64
7475.00,1.64
7474.00,1.64
7473.00,1.64
7472.00,1.64
7471.00,1.64
7470.00,1.64
7469.00,1.63
7468.00,1.63
7467.00,1.63
7466.00,1.63
7465.00,1.63
7464.00,1.63
7463.00,1.63
7462.00,1.63
7461.00,1.63
7460.00,1.63
7459.00,1.62
7458.00,1.62
7457.00,1.62
7456.00,1.62
7455.00,1.62
7454.00,1.62
7453.00,1.62
7452.00,1.62
7451.00,1.62
7450.00,1.62
7449.00,1.62
7448.00,1.61
7447.00,1.61
7446.00,1.61
7445.00,1.61
7444.00,1.61
7443.00,1.61
7442.00,1.61
7441.00,1.61
7440.00,1.61
7439.00,1.61
7438.00,1.61
7437.00,1.61
7436.00,1.61
7435.00,1.61
7434.00,1.61
7433.00,1.61
7432.00,1.60
7431.00,1.60
7430.00,1.60
7429.00,1.60
7428.00,1.60
7427.00,1.60
7426.00,1.60
7425.00,1.60
7424.00,1.60
7423.00,1.59
7422.00,1.59
7421.00,1.59
7420.00,1.59
7419.00,1.59
7418.00,1.59
7417.00,1.58
7416.00,1.58
7415.00,1.58
7414.00,1.58
7413.00,1.58
7412.00,1.58
7411.00,1.58
7410.00,1.58
7409.00,1.58
7408.00,1.57
7407.00,1.57
7406.00,1.57
7405.00,1.57
7404.00,1.57
7403.00,1.57
7402.00,1.57
7401.00,1.57
7400.00,1.56
7399.00,1.56
7398.00,1.56
7397.00,1.56
7396.00,1.55
7395.00,1.55
7394.00,1.55
7393.00,1.54
7392.00,1.54
7391.00,1.54
7390.00,1.54
7389.00,1.53
7388.00,1.53
7387.00,1.53
7386.00,1.52
7385.00,1.52
7384.00,1.52
7383.00,1.52
7382.00,1.52
7381.00,1.51
7380.00,1.51
7379.00,1.51
7378.00,1.51
7377.00,1.51
7376.00,1.51
7375.00,1.51
7374.00,1.51
7373.00,1.51
7372.00,1.51
7371.00,1.51
7370.00,1.51
7369.00,1.51
7368.00,1.51
7367.00,1.51
7366.00,1.51
7365.00,1.51
7364.00,1.51
7363.00,1.51
7362.00,1.51
7361.00,1.51
7360.00,1.51
7359.00,1.51
7358.00,1.51
7357.00,1.51
7356.00,1.51
7355.00,1.51
7354.00,1.51
7353.00,1.51
7352.00,1.51
7351.00,1.51
7350.00,1.51
7349.00,1.51
7348.00,1.51
7347.00,1.50
7346.00,1.50
7345.00,1.50
7344.00,1.50
7343.00,1.50
7342.00,1.50
7341.00,1.50
7340.00,1.50
7339.00,1.49
7338.00,1.49
7337.00,1.49
7336.00,1.49
7335.00,1.49
7334.00,1.49
7333.00,1.49
7332.00,1.49
7331.00,1.49
7330.00,1.49
7329.00,1.49
7328.00,1.48
7327.00,1.48
7326.00,1.48
7325.00,1.48
7324.00,1.48
7323.00,1.48
7322.00,1.48
7321.00,1.48
7320.00,1.48
7319.00,1.48
7318.00,1.48
7317.00,1.48
7316.00,1.48
7315.00,1.48
7314.00,1.47
7313.00,1.47
7312.00,1.47
7311.00,1.47
7310.00,1.47
7309.00,1.47
7308.00,1.46
7307.00,1.46
7306.00,1.46
7305.00,1.46
7304.00,1.46
7303.00,1.46
7302.00,1.46
7301.00,1.46
7300.00,1.46
7299.00,1.46
7298.00,1.45
7297.00,1.45
7296.00,1.45
7295.00,1.45
7294.00,1.45
7293.00,1.45
7292.00,1.44
7291.00,1.44
7290.00,1.44
7289.00,1.44
7288.00,1.44
7287.00,1.44
7286.00,1.43
7285.00,1.43
7284.00,1.43
7283.00,1.43
7282.00,1.43
7281.00,1.43
7280.00,1.42
7279.00,1.42
7278.00,1.42
7277.00,1.42
7276.00,1.42
7275.00,1.42
7274.00,1.41
7273.00,1.41
7272.00,1.41
7271.00,1.41
7270.00,1.41
7269.00,1.40
7268.00,1.40
7267.00,1.40
7266.00,1.40
7265.00,1.40
7264.00,1.39
7263.00,1.39
7262.00,1.39
7261.00,1.39
7260.00,1.39
7259.00,1.38
7258.00,1.38
7257.00,1.38
7256.00,1.38
7255.00,1.37
7254.00,1.37
7253.00,1.37
7252.00,1.36
7251.00,1.36
7250.00,1.36
7249.00,1.35
7248.00,1.35
7247.00,1.35
7246.00,1.34
7245.00,1.34
7244.00,1.33
7243.00,1.33
7242.00,1.33
7241.00,1.32
7240.00,1.32
7239.00,1.31
7238.00,1.31
7237.00,1.30
7236.00,1.30
7235.00,1.29
7234.00,1.29
7233.00,1.28
7232.00,1.28
7231.00,1.27
7230.00,1.27
7229.00,1.26
7228.00,1.26
7227.00,1.25
7226.00,1.25
7225.00,1.24
7224.00,1.24
7223.00,1.23
7222.00,1.23
7221.00,1.23
7220.00,1.22
7219.00,1.22
7218.00,1.21
7217.00,1.21
7216.00,1.20
7215.00,1.20
7214.00,1.20
7213.00,1.19
7212.00,1.19
7211.00,1.18
7210.00,1.18
7209.00,1.18
7208.00,1.17
7207.00,1.17
7206.00,1.16
7205.00,1.16
7204.00,1.15
7203.00,1.15
7202.00,1.14
7201.00,1.14
7200.00,1.14
7199.00,1.13
7198.00,1.13
7197.00,1.12
7196.00,1.12
7195.00,1.11
7194.00,1.10
7193.00,1.10
7192.00,1.09
7191.00,1.09
7190.00,1.08
7189.00,1.08
7188.00,1.07
7187.00,1.07
7186.00,1.07
7185.00,1.06
7184.00,1.06
7183.00,1.05
7182.00,1.05
7181.00,1.04
7180.00,1.04
7179.00,1.04
7178.00,1.03
7177.00,1.03
7176.00,1.03
7175.00,1.02
7174.00,1.02
7173.00,1.02
7172.00,1.01
7171.00,1.01
7170.00,1.01
7169.00,1.00
7168.00,1.00
7167.00,0.99
7166.00,0.99
7165.00,0.99
7164.00,0.98
7163.00,0.98
7162.00,0.97
7161.00,0.97
7160.00,0.97
7159.00,0.96
7158.00,0.96
7157.00,0.95
7156.00,0.95
7155.00,0.95
7154.00,0.94
7153.00,0.94
7152.00,0.94
7151.00,0.93
7150.00,0.93
7149.00,0.92
7148.00,0.92
7147.00,0.92
7146.00,0.91
7145.00,0.91
7144.00,0.90
7143.00,0.90
7142.00,0.89
7141.00,0.89
7140.00,0.89
7139.00,0.88
7138.00,0.88
7137.00,0.88
7136.00,0.87
7135.00,0.87
7134.00,0.87
7133.00,0.86
7132.00,0.86
7131.00,0.86
7130.00,0.86
7129.00,0.86
7128.00,0.85
7127.00,0.85
7126.00,0.85
7125.00,0.85
7124.00,0.84
7123.00,0.84
7122.00,0.84
7121.00,0.84
7120.00,0.83
7119.00,0.83
7118.00,0.83
7117.00,0.82
7116.00,0.82
7115.00,0.82
7114.00,0.82
7113.00,0.81
7112.00,0.81
7111.00,0.81
7110.00,0.80
7109.00,0.80
7108.00,0.80
7107.00,0.79
7106.00,0.79
7105.00,0.79
7104.00,0.78
7103.00,0.78
7102.00,0.78
7101.00,0.77
7100.00,0.77
7099.00,0.77
7098.00,0.76
7097.00,0.76
7096.00,0.76
7095.00,0.75
7094.00,0.75
7093.00,0.75
7092.00,0.75
7091.00,0.74
7090.00,0.74
7089.00,0.74
7088.00,0.73
7087.00,0.73
7086.00,0.73
7085.00,0.73
7084.00,0.72
7083.00,0.72
7082.00,0.72
7081.00,0.72
7080.00,0.71
7079.00,0.71
7078.00,0.71
7077.00,0.71
7076.00,0.71
7075.00,0.70
7074.00,0.70
7073.00,0.70
7072.00,0.70
7071.00,0.70
7070.00,0.70
7069.00,0.69
7068.00,0.69
7067.00,0.69
7066.00,0.69
7065.00,0.69
7064.00,0.69
7063.00,0.69
7062.00,0.69
7061.00,0.68
7060.00,0.68
7059.00,0.68
7058.00,0.68
7057.00,0.68
7056.00,0.68
7055.00,0.68
7054.00,0.67
7053.00,0.67
7052.00,0.67
7051.00,0.67
7050.00,0.67
7049.00,0.66
7048.00,0.66
7047.00,0.66
7046.00,0.66
7045.00,0.66
7044.00,0.66
7043.00,0.65
7042.00,0.65
7041.00,0.65
7040.00,0.65
7039.00,0.65
7038.00,0.65
7037.00,0.64
7036.00,0.64
7035.00,0.64
7034.00,0.64
7033.00,0.64
7032.00,0.64
7031.00,0.64
7030.00,0.63
7029.00,0.63
7028.00,0.63
7027.00,0.63
7026.00,0.63
7025.00,0.63
7024.00,0.63
7023.00,0.63
7022.00,0.63
7021.00,0.63
7020.00,0.63
7019.00,0.62
7018.00,0.62
7017.00,0.62
7016.00,0.62
7015.00,0.62
7014.00,0.62
7013.00,0.62
7012.00,0.62
7011.00,0.62
7010.00,0.62
7009.00,0.61
7008.00,0.61
7007.00,0.61
7006.00,0.61
7005.00,0.61
7004.00,0.61
7003.00,0.61
7002.00,0.61
7001.00,0.61
7000.00,0.61
6999.00,0.61
6998.00,0.61
6997.00,0.61
6996.00,0.61
6995.00,0.60
6994.00,0.60
6993.00,0.60
6992.00,0.60
6991.00,0.60
6990.00,0.60
6989.00,0.60
6988.00,0.60
6987.00,0.60
6986.00,0.60
6985.00,0.59
6984.00,0.59
6983.00,0.59
6982.00,0.59
6981.00,0.59
6980.00,0.59
6979.00,0.59
6978.00,0.59
6977.00,0.59
6976.00,0.58
6975.00,0.58
6974.00,0.58
6973.00,0.58
6972.00,0.58
6971.00,0.58
6970.00,0.58
6969.00,0.58
6968.00,0.58
6967.00,0.58
6966.00,0.58
6965.00,0.58
6964.00,0.58
6963.00,0.58
6962.00,0.58
6961.00,0.58
6960.00,0.58
6959.00,0.58
6958.00,0.58
6957.00,0.58
6956.00,0.58
6955.00,0.58
6954.00,0.58
6953.00,0.58
6952.00,0.58
6951.00,0.58
6950.00,0.58
6949.00,0.58
6948.00,0.58
6947.00,0.58
6946.00,0.58
6945.00,0.58
6944.00,0.58
6943.00,0.58
6942.00,0.58
6941.00,0.58
6940.00,0.58
6939.00,0.58
6938.00,0.58
6937.00,0.58
6936.00,0.58
6935.00,0.58
6934.00,0.58
6933.00,0.58
6932.00,0.58
6931.00,0.57
6930.00,0.57
6929.00,0.57
6928.00,0.57
6927.00,0.57
6926.00,0.57
6925.00,0.57
6924.00,0.57
6923.00,0.57
6922.00,0.57
6921.00,0.57
6920.00,0.57
6919.00,0.56
6918.00,0.56
6917.00,0.56
6916.00,0.56
6915.00,0.56
6914.00,0.56
6913.00,0.56
6912.00,0.56
6911.00,0.56
6910.00,0.56
6909.00,0.56
6908.00,0.56
6907.00,0.56
6906.00,0.56
6905.00,0.56
6904.00,0.56
6903.00,0.57
6902.00,0.57
6901.00,0.57
6900.00,0.57
6899.00,0.57
6898.00,0.57
6897.00,0.57
6896.00,0.57
6895.00,0.57
6894.00,0.57
6893.00,0.57
6892.00,0.57
6891.00,0.57
6890.00,0.57
6889.00,0.57
6888.00,0.57
6887.00,0.57
6886.00,0.57
6885.00,0.57
6884.00,0.57
6883.00,0.56
6882.00,0.56
6881.00,0.56
6880.00,0.56
6879.00,0.56
6878.00,0.56
6877.00,0.56
6876.00,0.56
6875.00,0.56
6874.00,0.56
6873.00,0.56
6872.00,0.56
6871.00,0.55
6870.00,0.55
6869.00,0.55
6868.00,0.56
6867.00,0.56
6866.00,0.56
6865.00,0.56
6864.00,0.56
6863.00,0.56
6862.00,0.56
6861.00,0.56
6860.00,0.56
6859.00,0.56
6858.00,0.56
6857.00,0.56
6856.00,0.56
6855.00,0.56
6854.00,0.56
6853.00,0.56
6852.00,0.56
6851.00,0.56
6850.00,0.56
6849.00,0.56
6848.00,0.56
6847.00,0.56
6846.00,0.56
6845.00,0.56
6844.00,0.56
6843.00,0.56
6842.00,0.56
6841.00,0.56
6840.00,0.56
6839.00,0.56
6838.00,0.56
6837.00,0.56
6836.00,0.57
6835.00,0.57
6834.00,0.57
6833.00,0.57
6832.00,0.57
6831.00,0.57
6830.00,0.57
6829.00,0.57
6828.00,0.57
6827.00,0.57
6826.00,0.57
6825.00,0.57
6824.00,0.57
6823.00,0.57
6822.00,0.57
6821.00,0.57
6820.00,0.57
6819.00,0.57
6818.00,0.57
6817.00,0.57
6816.00,0.57
6815.00,0.57
6814.00,0.57
6813.00,0.57
6812.00,0.57
6811.00,0.57
6810.00,0.57
6809.00,0.58
6808.00,0.58
6807.00,0.58
6806.00,0.58
6805.00,0.58
6804.00,0.58
6803.00,0.58
6802.00,0.58
6801.00,0.58
6800.00,0.58
6799.00,0.58
6798.00,0.58
6797.00,0.58
6796.00,0.58
6795.00,0.58
6794.00,0.58
6793.00,0.58
6792.00,0.58
6791.00,0.58
6790.00,0.58
6789.00,0.58
6788.00,0.58
6787.00,0.58
6786.00,0.58
6785.00,0.58
6784.00,0.58
6783.00,0.58
6782.00,0.58
6781.00,0.59
6780.00,0.59
6779.00,0.59
6778.00,0.59
6777.00,0.59
6776.00,0.59
6775.00,0.59
6774.00,0.59
6773.00,0.59
6772.00,0.59
6771.00,0.59
6770.00,0.59
6769.00,0.59
6768.00,0.59
6767.00,0.59
6766.00,0.59
6765.00,0.59
6764.00,0.59
6763.00,0.59
6762.00,0.59
6761.00,0.60
6760.00,0.60
6759.00,0.60
6758.00,0.60
6757.00,0.60
6756.00,0.60
6755.00,0.60
6754.00,0.60
6753.00,0.60
6752.00,0.60
6751.00,0.60
6750.00,0.61
6749.00,0.61
6748.00,0.61
6747.00,0.61
6746.00,0.61
6745.00,0.61
6744.00,0.61
6743.00,0.61
6742.00,0.61
6741.00,0.61
6740.00,0.61
6739.00,0.61
6738.00,0.61
6737.00,0.61
6736.00,0.61
6735.00,0.61
6734.00,0.61
6733.00,0.61
6732.00,0.61
6731.00,0.62
6730.00,0.62
6729.00,0.62
6728.00,0.62
6727.00,0.62
6726.00,0.62
6725.00,0.62
6724.00,0.62
6723.00,0.62
6722.00,0.63
6721.00,0.63
6720.00,0.63
6719.00,0.63
6718.00,0.63
6717.00,0.63
6716.00,0.63
6715.00,0.63
6714.00,0.63
6713.00,0.64
6712.00,0.64
6711.00,0.64
6710.00,0.64
6709.00,0.64
6708.00,0.64
6707.00,0.64
6706.00,0.64
6705.00,0.64
6704.00,0.64
6703.00,0.64
6702.00,0.64
6701.00,0.64
6700.00,0.64
6699.00,0.64
6698.00,0.64
6697.00,0.64
6696.00,0.64
6695.00,0.64
6694.00,0.64
6693.00,0.64
6692.00,0.65
6691.00,0.65
6690.00,0.65
6689.00,0.65
6688.00,0.65
6687.00,0.65
6686.00,0.65
6685.00,0.66
6684.00,0.66
6683.00,0.66
6682.00,0.66
6681.00,0.66
6680.00,0.66
6679.00,0.67
6678.00,0.67
6677.00,0.67
6676.00,0.67
6675.00,0.67
6674.00,0.67
6673.00,0.68
6672.00,0.68
6671.00,0.68
6670.00,0.68
6669.00,0.68
6668.00,0.68
6667.00,0.68
6666.00,0.68
6665.00,0.68
6664.00,0.69
6663.00,0.69
6662.00,0.69
6661.00,0.69
6660.00,0.69
6659.00,0.69
6658.00,0.69
6657.00,0.69
6656.00,0.69
6655.00,0.69
6654.00,0.69
6653.00,0.69
6652.00,0.69
6651.00,0.69
6650.00,0.69
6649.00,0.70
6648.00,0.70
6647.00,0.70
6646.00,0.70
6645.00,0.70
6644.00,0.70
6643.00,0.70
6642.00,0.70
6641.00,0.70
6640.00,0.71
6639.00,0.71
6638.00,0.71
6637.00,0.71
6636.00,0.71
6635.00,0.71
6634.00,0.71
6633.00,0.71
6632.00,0.71
6631.00,0.72
6630.00,0.72
6629.00,0.72
6628.00,0.72
6627.00,0.72
6626.00,0.72
6625.00,0.72
6624.00,0.72
6623.00,0.72
6622.00,0.72
6621.00,0.72
6620.00,0.73
6619.00,0.73
6618.00,0.73
6617.00,0.73
6616.00,0.73
6615.00,0.73
6614.00,0.73
6613.00,0.73
6612.00,0.74
6611.00,0.74
6610.00,0.74
6609.00,0.74
6608.00,0.74
6607.00,0.74
6606.00,0.74
6605.00,0.75
6604.00,0.75
6603.00,0.75
6602.00,0.75
6601.00,0.75
6600.00,0.75
6599.00,0.75
6598.00,0.75
6597.00,0.75
6596.00,0.75
6595.00,0.75
6594.00,0.75
6593.00,0.75
6592.00,0.75
6591.00,0.75
6590.00,0.76
6589.00,0.76
6588.00,0.76
6587.00,0.76
6586.00,0.76
6585.00,0.76
6584.00,0.76
6583.00,0.76
6582.00,0.77
6581.00,0.77
6580.00,0.77
6579.00,0.77
6578.00,0.77
6577.00,0.77
6576.00,0.78
6575.00,0.78
6574.00,0.78
6573.00,0.78
6572.00,0.78
6571.00,0.79
6570.00,0.79
6569.00,0.79
6568.00,0.79
6567.00,0.79
6566.00,0.79
6565.00,0.79
6564.00,0.79
6563.00,0.80
6562.00,0.80
6561.00,0.80
6560.00,0.80
6559.00,0.80
6558.00,0.80
6557.00,0.80
6556.00,0.80
6555.00,0.80
6554.00,0.81
6553.00,0.81
6552.00,0.81
6551.00,0.81
6550.00,0.81
6549.00,0.81
6548.00,0.81
6547.00,0.81
6546.00,0.81
6545.00,0.81
6544.00,0.81
6543.00,0.82
6542.00,0.82
6541.00,0.82
6540.00,0.82
6539.00,0.82
6538.00,0.82
6537.00,0.82
6536.00,0.82
6535.00,0.82
6534.00,0.82
6533.00,0.82
6532.00,0.83
6531.00,0.83
6530.00,0.83
6529.00,0.83
6528.00,0.83
6527.00,0.83
6526.00,0.83
6525.00,0.83
6524.00,0.83
6523.00,0.83
6522.00,0.83
6521.00,0.83
6520.00,0.84
6519.00,0.84
6518.00,0.84
6517.00,0.84
6516.00,0.84
6515.00,0.84
6514.00,0.84
6513.00,0.84
6512.00,0.84
6511.00,0.84
6510.00,0.85
6509.00,0.85
6508.00,0.85
6507.00,0.85
6506.00,0.85
6505.00,0.85
6504.00,0.85
6503.00,0.86
6502.00,0.86
6501.00,0.86
6500.00,0.86
6499.00,0.86
6498.00,0.86
6497.00,0.86
6496.00,0.86
6495.00,0.86
6494.00,0.87
6493.00,0.87
6492.00,0.87
6491.00,0.87
6490.00,0.87
6489.00,0.87
6488.00,0.87
6487.00,0.87
6486.00,0.87
6485.00,0.88
6484.00,0.88
6483.00,0.88
6482.00,0.88
6481.00,0.88
6480.00,0.88
6479.00,0.88
6478.00,0.88
6477.00,0.88
6476.00,0.88
6475.00,0.88
6474.00,0.88
6473.00,0.88
6472.00,0.88
6471.00,0.88
6470.00,0.88
6469.00,0.88
6468.00,0.88
6467.00,0.88
6466.00,0.88
6465.00,0.88
6464.00,0.88
6463.00,0.88
6462.00,0.88
6461.00,0.88
6460.00,0.88
6459.00,0.88
6458.00,0.89
6457.00,0.89
6456.00,0.89
6455.00,0.89
6454.00,0.89
6453.00,0.89
6452.00,0.89
6451.00,0.89
6450.00,0.89
6449.00,0.89
6448.00,0.89
6447.00,0.89
6446.00,0.90
6445.00,0.90
6444.00,0.90
6443.00,0.90
6442.00,0.90
6441.00,0.90
6440.00,0.90
6439.00,0.90
6438.00,0.90
6437.00,0.90
6436.00,0.90
6435.00,0.90
6434.00,0.91
6433.00,0.91
6432.00,0.91
6431.00,0.91
6430.00,0.91
6429.00,0.91
6428.00,0.91
6427.00,0.91
6426.00,0.91
6425.00,0.91
6424.00,0.91
6423.00,0.91
6422.00,0.91
6421.00,0.91
6420.00,0.91
6419.00,0.91
6418.00,0.92
6417.00,0.92
6416.00,0.92
6415.00,0.92
6414.00,0.92
6413.00,0.92
6412.00,0.92
6411.00,0.92
6410.00,0.92
6409.00,0.92
6408.00,0.92
6407.00,0.92
6406.00,0.93
6405.00,0.93
6404.00,0.93
6403.00,0.93
6402.00,0.93
6401.00,0.93
6400.00,0.93
6399.00,0.93
6398.00,0.93
6397.00,0.93
6396.00,0.93
6395.00,0.93
6394.00,0.93
6393.00,0.94
6392.00,0.94
6391.00,0.94
6390.00,0.94
6389.00,0.94
6388.00,0.94
6387.00,0.94
6386.00,0.94
6385.00,0.94
6384.00,0.94
6383.00,0.95
6382.00,0.95
6381.00,0.95
6380.00,0.95
6379.00,0.95
6378.00,0.95
6377.00,0.95
6376.00,0.95
6375.00,0.95
6374.00,0.95
6373.00,0.95
6372.00,0.95
6371.00,0.96
6370.00,0.96
6369.00,0.96
6368.00,0.96
6367.00,0.96
6366.00,0.96
6365.00,0.96
6364.00,0.96
6363.00,0.97
6362.00,0.97
6361.00,0.97
6360.00,0.97
6359.00,0.97
6358.00,0.97
6357.00,0.97
6356.00,0.98
6355.00,0.98
6354.00,0.98
6353.00,0.98
6352.00,0.98
6351.00,0.98
6350.00,0.98
6349.00,0.98
6348.00,0.98
6347.00,0.99
6346.00,0.99
6345.00,0.99
6344.00,0.99
6343.00,0.99
6342.00,0.99
6341.00,0.99
6340.00,0.99
6339.00,0.99
6338.00,0.99
6337.00,0.99
6336.00,0.99
6335.00,0.99
6334.00,0.99
6333.00,0.99
6332.00,1.00
6331.00,1.00
6330.00,1.00
6329.00,1.00
6328.00,1.00
6327.00,1.00
6326.00,1.00
6325.00,1.00
6324.00,1.00
6323.00,1.00
6322.00,1.01
6321.00,1.01
6320.00,1.01
6319.00,1.01
6318.00,1.01
6317.00,1.01
6316.00,1.01
6315.00,1.01
6314.00,1.01
6313.00,1.02
6312.00,1.02
6311.00,1.02
6310.00,1.02
6309.00,1.02
6308.00,1.02
6307.00,1.02
6306.00,1.02
6305.00,1.03
6304.00,1.03
6303.00,1.03
6302.00,1.03
6301.00,1.03
6300.00,1.03
6299.00,1.04
6298.00,1.04
6297.00,1.04
6296.00,1.04
6295.00,1.04
6294.00,1.05
6293.00,1.05
6292.00,1.05
6291.00,1.05
6290.00,1.05
6289.00,1.06
6288.00,1.06
6287.00,1.06
6286.00,1.06
6285.00,1.06
6284.00,1.06
6283.00,1.07
6282.00,1.07
6281.00,1.07
6280.00,1.07
6279.00,1.07
6278.00,1.07
6277.00,1.07
6276.00,1.07
6275.00,1.08
6274.00,1.08
6273.00,1.08
6272.00,1.08
6271.00,1.08
6270.00,1.08
6269.00,1.09
6268.00,1.09
6267.00,1.09
6266.00,1.09
6265.00,1.09
6264.00,1.10
6263.00,1.10
6262.00,1.10
6261.00,1.10
6260.00,1.10
6259.00,1.11
6258.00,1.11
6257.00,1.11
6256.00,1.11
6255.00,1.11
6254.00,1.12
6253.00,1.12
6252.00,1.12
6251.00,1.12
6250.00,1.12
6249.00,1.13
6248.00,1.13
6247.00,1.13
6246.00,1.13
6245.00,1.13
6244.00,1.14
6243.00,1.14
6242.00,1.14
6241.00,1.14
6240.00,1.14
6239.00,1.15
6238.00,1.15
6237.00,1.15
6236.00,1.15
6235.00,1.15
6234.00,1.15
6233.00,1.15
6232.00,1.16
6231.00,1.16
6230.00,1.16
6229.00,1.16
6228.00,1.16
6227.00,1.16
6226.00,1.16
6225.00,1.17
6224.00,1.17
6223.00,1.17
6222.00,1.17
6221.00,1.17
6220.00,1.17
6219.00,1.18
6218.00,1.18
6217.00,1.18
6216.00,1.18
6215.00,1.18
6214.00,1.19
6213.00,1.19
6212.00,1.19
6211.00,1.19
6210.00,1.19
6209.00,1.20
6208.00,1.20
6207.00,1.20
6206.00,1.20
6205.00,1.20
6204.00,1.21
6203.00,1.21
6202.00,1.21
6201.00,1.21
6200.00,1.21
6199.00,1.22
6198.00,1.22
6197.00,1.22
6196.00,1.22
6195.00,1.22
6194.00,1.22
6193.00,1.23
6192.00,1.23
6191.00,1.23
6190.00,1.23
6189.00,1.23
6188.00,1.24
6187.00,1.24
6186.00,1.24
6185.00,1.24
6184.00,1.24
6183.00,1.25
6182.00,1.25
6181.00,1.25
6180.00,1.25
6179.00,1.25
6178.00,1.26
6177.00,1.26
6176.00,1.26
6175.00,1.26
6174.00,1.26
6173.00,1.27
6172.00,1.27
6171.00,1.27
6170.00,1.27
6169.00,1.28
6168.00,1.28
6167.00,1.28
6166.00,1.28
6165.00,1.29
6164.00,1.29
6163.00,1.29
6162.00,1.29
6161.00,1.29
6160.00,1.30
6159.00,1.30
6158.00,1.30
6157.00,1.30
6156.00,1.30
6155.00,1.31
6154.00,1.31
6153.00,1.31
6152.00,1.31
6151.00,1.32
6150.00,1.32
6149.00,1.32
6148.00,1.32
6147.00,1.33
6146.00,1.33
6145.00,1.33
6144.00,1.33
6143.00,1.34
6142.00,1.34
6141.00,1.34
6140.00,1.34
6139.00,1.35
6138.00,1.35
6137.00,1.35
6136.00,1.35
6135.00,1.36
6134.00,1.36
6133.00,1.36
6132.00,1.36
6131.00,1.36
6130.00,1.37
6129.00,1.37
6128.00,1.37
6127.00,1.37
6126.00,1.37
6125.00,1.37
6124.00,1.38
6123.00,1.38
6122.00,1.38
6121.00,1.38
6120.00,1.38
6119.00,1.39
6118.00,1.39
6117.00,1.39
6116.00,1.39
6115.00,1.40
6114.00,1.40
6113.00,1.40
6112.00,1.40
6111.00,1.41
6110.00,1.41
6109.00,1.41
6108.00,1.41
6107.00,1.42
6106.00,1.42
6105.00,1.42
6104.00,1.42
6103.00,1.43
6102.00,1.43
6101.00,1.43
6100.00,1.43
6099.00,1.43
6098.00,1.44
6097.00,1.44
6096.00,1.44
6095.00,1.44
6094.00,1.44
6093.00,1.44
6092.00,1.45
6091.00,1.45
6090.00,1.45
6089.00,1.45
6088.00,1.45
6087.00,1.45
6086.00,1.45
6085.00,1.46
6084.00,1.46
6083.00,1.46
6082.00,1.46
6081.00,1.46
6080.00,1.47
6079.00,1.47
6078.00,1.47
6077.00,1.47
6076.00,1.48
6075.00,1.48
6074.00,1.48
6073.00,1.48
6072.00,1.48
6071.00,1.49
6070.00,1.49
6069.00,1.49
6068.00,1.49
6067.00,1.49
6066.00,1.50
6065.00,1.50
6064.00,1.50
6063.00,1.50
6062.00,1.50
6061.00,1.51
6060.00,1.51
6059.00,1.51
6058.00,1.51
6057.00,1.51
6056.00,1.51
6055.00,1.52
6054.00,1.52
6053.00,1.52
6052.00,1.52
6051.00,1.52
6050.00,1.52
6049.00,1.53
6048.00,1.53
6047.00,1.53
6046.00,1.53
6045.00,1.53
6044.00,1.53
6043.00,1.53
6042.00,1.53
6041.00,1.53
6040.00,1.53
6039.00,1.54
6038.00,1.54
6037.00,1.54
6036.00,1.54
6035.00,1.54
6034.00,1.54
6033.00,1.54
6032.00,1.54
6031.00,1.54
6030.00,1.54
6029.00,1.55
6028.00,1.55
6027.00,1.55
6026.00,1.55
6025.00,1.55
6024.00,1.55
6023.00,1.55
6022.00,1.55
6021.00,1.55
6020.00,1.55
6019.00,1.55
6018.00,1.55
6017.00,1.55
6016.00,1.55
6015.00,1.55
6014.00,1.55
6013.00,1.55
6012.00,1.55
6011.00,1.55
6010.00,1.55
6009.00,1.55
6008.00,1.55
6007.00,1.55
6006.00,1.55
6005.00,1.55
6004.00,1.55
6003.00,1.55
6002.00,1.54
6001.00,1.54
6000.00,1.54
5999.00,1.54
5998.00,1.54
5997.00,1.54
5996.00,1.54
5995.00,1.54
5994.00,1.53
5993.00,1.53
5992.00,1.53
5991.00,1.53
5990.00,1.52
5989.00,1.52
5988.00,1.52
5987.00,1.51
5986.00,1.51
5985.00,1.51
5984.00,1.50
5983.00,1.50
5982.00,1.49
5981.00,1.49
5980.00,1.48
5979.00,1.48
5978.00,1.47
5977.00,1.46
5976.00,1.46
5975.00,1.45
5974.00,1.44
5973.00,1.43
5972.00,1.42
5971.00,1.42
5970.00,1.41
5969.00,1.40
5968.00,1.39
5967.00,1.38
5966.00,1.37
5965.00,1.36
5964.00,1.35
5963.00,1.34
5962.00,1.33
5961.00,1.31
5960.00,1.30
5959.00,1.29
5958.00,1.28
5957.00,1.27
5956.00,1.26
5955.00,1.25
5954.00,1.24
5953.00,1.23
5952.00,1.23
5951.00,1.22
5950.00,1.21
5949.00,1.20
5948.00,1.19
5947.00,1.19
5946.00,1.18
5945.00,1.18
5944.00,1.17
5943.00,1.17
5942.00,1.16
5941.00,1.16
5940.00,1.16
5939.00,1.15
5938.00,1.15
5937.00,1.15
5936.00,1.15
5935.00,1.15
5934.00,1.14
5933.00,1.14
5932.00,1.14
5931.00,1.14
5930.00,1.14
5929.00,1.14
5928.00,1.14
5927.00,1.14
5926.00,1.14
5925.00,1.13
5924.00,1.13
5923.00,1.13
5922.00,1.13
5921.00,1.12
5920.00,1.12
5919.00,1.12
5918.00,1.11
5917.00,1.11
5916.00,1.10
5915.00,1.10
5914.00,1.10
5913.00,1.09
5912.00,1.09
5911.00,1.08
5910.00,1.08
5909.00,1.08
5908.00,1.08
5907.00,1.07
5906.00,1.07
5905.00,1.07
5904.00,1.07
5903.00,1.07
5902.00,1.07
5901.00,1.07
5900.00,1.07
5899.00,1.07
5898.00,1.07
5897.00,1.07
5896.00,1.07
5895.00,1.07
5894.00,1.07
5893.00,1.07
5892.00,1.08
5891.00,1.08
5890.00,1.08
5889.00,1.08
5888.00,1.09
5887.00,1.09
5886.00,1.09
5885.00,1.10
5884.00,1.10
5883.00,1.11
5882.00,1.11
5881.00,1.11
5880.00,1.12
5879.00,1.12
5878.00,1.12
5877.00,1.13
5876.00,1.13
5875.00,1.13
5874.00,1.14
5873.00,1.14
5872.00,1.14
5871.00,1.15
5870.00,1.15
5869.00,1.15
5868.00,1.16
5867.00,1.16
5866.00,1.16
5865.00,1.16
5864.00,1.17
5863.00,1.17
5862.00,1.17
5861.00,1.17
5860.00,1.17
5859.00,1.18
5858.00,1.18
5857.00,1.18
5856.00,1.18
5855.00,1.18
5854.00,1.18
5853.00,1.18
5852.00,1.19
5851.00,1.19
5850.00,1.19
5849.00,1.19
5848.00,1.19
5847.00,1.19
5846.00,1.19
5845.00,1.19
5844.00,1.19
5843.00,1.19
5842.00,1.19
5841.00,1.19
5840.00,1.19
5839.00,1.19
5838.00,1.19
5837.00,1.19
5836.00,1.19
5835.00,1.19
5834.00,1.19
5833.00,1.19
5832.00,1.19
5831.00,1.19
5830.00,1.19
5829.00,1.19
5828.00,1.19
5827.00,1.19
5826.00,1.19
5825.00,1.19
5824.00,1.19
5823.00,1.19
5822.00,1.19
5821.00,1.19
5820.00,1.19
5819.00,1.19
5818.00,1.19
5817.00,1.19
5816.00,1.19
5815.00,1.19
5814.00,1.19
5813.00,1.19
5812.00,1.20
5811.00,1.20
5810.00,1.20
5809.00,1.20
5808.00,1.20
5807.00,1.20
5806.00,1.20
5805.00,1.19
5804.00,1.19
5803.00,1.19
5802.00,1.19
5801.00,1.19
5800.00,1.19
5799.00,1.19
5798.00,1.18
5797.00,1.18
5796.00,1.18
5795.00,1.18
5794.00,1.17
5793.00,1.17
5792.00,1.17
5791.00,1.17
5790.00,1.16
5789.00,1.16
5788.00,1.16
5787.00,1.16
5786.00,1.15
5785.00,1.15
5784.00,1.15
5783.00,1.15
5782.00,1.14
5781.00,1.14
5780.00,1.14
5779.00,1.14
5778.00,1.14
5777.00,1.13
5776.00,1.13
5775.00,1.13
5774.00,1.13
5773.00,1.13
5772.00,1.13
5771.00,1.13
5770.00,1.13
5769.00,1.13
5768.00,1.13
5767.00,1.13
5766.00,1.14
5765.00,1.14
5764.00,1.14
5763.00,1.14
5762.00,1.15
5761.00,1.15
5760.00,1.16
5759.00,1.16
5758.00,1.16
5757.00,1.17
5756.00,1.17
5755.00,1.18
5754.00,1.18
5753.00,1.19
5752.00,1.20
5751.00,1.20
5750.00,1.21
5749.00,1.21
5748.00,1.22
5747.00,1.22
5746.00,1.23
5745.00,1.23
5744.00,1.24
5743.00,1.24
5742.00,1.25
5741.00,1.25
5740.00,1.25
5739.00,1.26
5738.00,1.26
5737.00,1.26
5736.00,1.27
5735.00,1.27
5734.00,1.27
5733.00,1.28
5732.00,1.28
5731.00,1.28
5730.00,1.28
5729.00,1.28
5728.00,1.29
5727.00,1.29
5726.00,1.29
5725.00,1.29
5724.00,1.29
5723.00,1.29
5722.00,1.29
5721.00,1.29
5720.00,1.29
5719.00,1.29
5718.00,1.29
5717.00,1.29
5716.00,1.29
5715.00,1.29
5714.00,1.29
5713.00,1.29
5712.00,1.29
5711.00,1.29
5710.00,1.29
5709.00,1.29
5708.00,1.29
5707.00,1.29
5706.00,1.29
5705.00,1.29
5704.00,1.28
5703.00,1.28
5702.00,1.28
5701.00,1.28
5700.00,1.28
5699.00,1.28
5698.00,1.28
5697.00,1.27
5696.00,1.27
5695.00,1.27
5694.00,1.27
5693.00,1.27
5692.00,1.26
5691.00,1.26
5690.00,1.26
5689.00,1.26
5688.00,1.26
5687.00,1.26
5686.00,1.25
5685.00,1.25
5684.00,1.25
5683.00,1.25
5682.00,1.25
5681.00,1.25
5680.00,1.25
5679.00,1.25
5678.00,1.24
5677.00,1.24
5676.00,1.24
5675.00,1.24
5674.00,1.24
5673.00,1.24
5672.00,1.24
5671.00,1.24
5670.00,1.24
5669.00,1.24
5668.00,1.24
5667.00,1.25
5666.00,1.25
5665.00,1.25
5664.00,1.25
5663.00,1.25
5662.00,1.25
5661.00,1.26
5660.00,1.26
5659.00,1.26
5658.00,1.26
5657.00,1.27
5656.00,1.27
5655.00,1.27
5654.00,1.27
5653.00,1.28
5652.00,1.28
5651.00,1.28
5650.00,1.28
5649.00,1.29
5648.00,1.29
5647.00,1.29
5646.00,1.29
5645.00,1.30
5644.00,1.30
5643.00,1.30
5642.00,1.31
5641.00,1.31
5640.00,1.31
5639.00,1.31
5638.00,1.32
5637.00,1.32
5636.00,1.32
5635.00,1.33
5634.00,1.33
5633.00,1.33
5632.00,1.33
5631.00,1.34
5630.00,1.34
5629.00,1.34
5628.00,1.35
5627.00,1.35
5626.00,1.35
5625.00,1.35
5624.00,1.36
5623.00,1.36
5622.00,1.36
5621.00,1.36
5620.00,1.37
5619.00,1.37
5618.00,1.37
5617.00,1.37
5616.00,1.38
5615.00,1.38
5614.00,1.38
5613.00,1.38
5612.00,1.39
5611.00,1.39
5610.00,1.39
5609.00,1.39
5608.00,1.40
5607.00,1.40
5606.00,1.40
5605.00,1.40
5604.00,1.41
5603.00,1.41
5602.00,1.41
5601.00,1.41
5600.00,1.42
5599.00,1.42
5598.00,1.42
5597.00,1.42
5596.00,1.43
5595.00,1.43
5594.00,1.43
5593.00,1.44
5592.00,1.44
5591.00,1.44
5590.00,1.45
5589.00,1.45
5588.00,1.45
5587.00,1.45
5586.00,1.46
5585.00,1.46
5584.00,1.46
5583.00,1.46
5582.00,1.47
5581.00,1.47
5580.00,1.47
5579.00,1.47
5578.00,1.48
5577.00,1.48
5576.00,1.48
5575.00,1.48
5574.00,1.48
5573.00,1.48
5572.00,1.49
5571.00,1.49
5570.00,1.49
5569.00,1.49
5568.00,1.50
5567.00,1.50
5566.00,1.50
5565.00,1.50
5564.00,1.50
5563.00,1.51
5562.00,1.51
5561.00,1.51
5560.00,1.51
5559.00,1.52
5558.00,1.52
5557.00,1.52
5556.00,1.52
5555.00,1.52
5554.00,1.53
5553.00,1.53
5552.00,1.53
5551.00,1.53
5550.00,1.54
5549.00,1.54
5548.00,1.54
5547.00,1.54
5546.00,1.54
5545.00,1.55
5544.00,1.55
5543.00,1.55
5542.00,1.55
5541.00,1.55
5540.00,1.56
5539.00,1.56
5538.00,1.56
5537.00,1.56
5536.00,1.56
5535.00,1.57
5534.00,1.57
5533.00,1.57
5532.00,1.57
5531.00,1.57
5530.00,1.57
5529.00,1.57
5528.00,1.58
5527.00,1.58
5526.00,1.58
5525.00,1.58
5524.00,1.58
5523.00,1.58
5522.00,1.58
5521.00,1.59
5520.00,1.59
5519.00,1.59
5518.00,1.59
5517.00,1.59
5516.00,1.59
5515.00,1.59
5514.00,1.59
5513.00,1.59
5512.00,1.59
5511.00,1.59
5510.00,1.59
5509.00,1.60
5508.00,1.60
5507.00,1.60
5506.00,1.60
5505.00,1.60
5504.00,1.60
5503.00,1.60
5502.00,1.60
5501.00,1.60
5500.00,1.60
5499.00,1.60
5498.00,1.60
5497.00,1.60
5496.00,1.60
5495.00,1.60
5494.00,1.61
5493.00,1.61
5492.00,1.61
5491.00,1.61
5490.00,1.61
5489.00,1.61
5488.00,1.61
5487.00,1.62
5486.00,1.62
5485.00,1.62
5484.00,1.62
5483.00,1.63
5482.00,1.63
5481.00,1.63
5480.00,1.63
5479.00,1.63
5478.00,1.64
5477.00,1.64
5476.00,1.64
5475.00,1.64
5474.00,1.65
5473.00,1.65
5472.00,1.65
5471.00,1.65
5470.00,1.65
5469.00,1.66
5468.00,1.66
5467.00,1.66
5466.00,1.66
5465.00,1.66
5464.00,1.67
5463.00,1.67
5462.00,1.67
5461.00,1.67
5460.00,1.67
5459.00,1.67
5458.00,1.68
5457.00,1.68
5456.00,1.68
5455.00,1.68
5454.00,1.68
5453.00,1.68
5452.00,1.68
5451.00,1.68
5450.00,1.68
5449.00,1.68
5448.00,1.68
5447.00,1.68
5446.00,1.68
5445.00,1.69
5444.00,1.69
5443.00,1.69
5442.00,1.69
5441.00,1.69
5440.00,1.69
5439.00,1.69
5438.00,1.69
5437.00,1.69
5436.00,1.69
5435.00,1.69
5434.00,1.69
5433.00,1.70
5432.00,1.70
5431.00,1.70
5430.00,1.70
5429.00,1.70
5428.00,1.70
5427.00,1.70
5426.00,1.70
5425.00,1.70
5424.00,1.70
5423.00,1.70
5422.00,1.70
5421.00,1.70
5420.00,1.70
5419.00,1.70
5418.00,1.70
5417.00,1.70
5416.00,1.70
5415.00,1.70
5414.00,1.70
5413.00,1.70
5412.00,1.70
5411.00,1.70
5410.00,1.70
5409.00,1.70
5408.00,1.70
5407.00,1.70
5406.00,1.70
5405.00,1.70
5404.00,1.70
5403.00,1.70
5402.00,1.70
5401.00,1.70
5400.00,1.70
5399.00,1.70
5398.00,1.70
5397.00,1.70
5396.00,1.70
5395.00,1.70
5394.00,1.70
5393.00,1.70
5392.00,1.70
5391.00,1.69
5390.00,1.69
5389.00,1.69
5388.00,1.69
5387.00,1.68
5386.00,1.68
5385.00,1.68
5384.00,1.67
5383.00,1.67
5382.00,1.66
5381.00,1.66
5380.00,1.66
5379.00,1.65
5378.00,1.65
5377.00,1.64
5376.00,1.64
5375.00,1.63
5374.00,1.62
5373.00,1.62
5372.00,1.61
5371.00,1.61
5370.00,1.60
5369.00,1.59
5368.00,1.58
5367.00,1.58
5366.00,1.57
5365.00,1.56
5364.00,1.55
5363.00,1.54
5362.00,1.53
5361.00,1.52
5360.00,1.51
5359.00,1.50
5358.00,1.49
5357.00,1.48
5356.00,1.47
5355.00,1.46
5354.00,1.45
5353.00,1.43
5352.00,1.42
5351.00,1.41
5350.00,1.40
5349.00,1.38
5348.00,1.37
5347.00,1.36
5346.00,1.34
5345.00,1.33
5344.00,1.32
5343.00,1.30
5342.00,1.29
5341.00,1.27
5340.00,1.26
5339.00,1.25
5338.00,1.23
5337.00,1.22
5336.00,1.21
5335.00,1.19
5334.00,1.18
5333.00,1.17
5332.00,1.15
5331.00,1.14
5330.00,1.13
5329.00,1.11
5328.00,1.10
5327.00,1.09
5326.00,1.07
5325.00,1.06
5324.00,1.05
5323.00,1.03
5322.00,1.02
5321.00,1.01
5320.00,1.00
5319.00,0.98
5318.00,0.97
5317.00,0.96
5316.00,0.95
5315.00,0.94
5314.00,0.93
5313.00,0.92
5312.00,0.91
5311.00,0.90
5310.00,0.89
5309.00,0.88
5308.00,0.87
5307.00,0.86
5306.00,0.85
5305.00,0.84
5304.00,0.84
5303.00,0.83
5302.00,0.82
5301.00,0.82
5300.00,0.81
5299.00,0.81
5298.00,0.80
5297.00,0.80
5296.00,0.79
5295.00,0.79
5294.00,0.78
5293.00,0.78
5292.00,0.77
5291.00,0.77
5290.00,0.77
5289.00,0.76
5288.00,0.76
5287.00,0.76
5286.00,0.76
5285.00,0.75
5284.00,0.75
5283.00,0.75
5282.00,0.75
5281.00,0.74
5280.00,0.74
5279.00,0.74
5278.00,0.74
5277.00,0.74
5276.00,0.74
5275.00,0.74
5274.00,0.74
5273.00,0.73
5272.00,0.73
5271.00,0.73
5270.00,0.73
5269.00,0.73
5268.00,0.73
5267.00,0.73
5266.00,0.73
5265.00,0.73
5264.00,0.73
5263.00,0.73
5262.00,0.73
5261.00,0.73
5260.00,0.73
5259.00,0.73
5258.00,0.73
5257.00,0.73
5256.00,0.73
5255.00,0.73
5254.00,0.73
5253.00,0.72
5252.00,0.72
5251.00,0.72
5250.00,0.72
5249.00,0.72
5248.00,0.72
5247.00,0.72
5246.00,0.72
5245.00,0.72
5244.00,0.72
5243.00,0.72
5242.00,0.72
5241.00,0.72
5240.00,0.72
5239.00,0.72
5238.00,0.72
5237.00,0.73
5236.00,0.73
5235.00,0.73
5234.00,0.73
5233.00,0.73
5232.00,0.73
5231.00,0.73
5230.00,0.73
5229.00,0.73
5228.00,0.73
5227.00,0.73
5226.00,0.73
5225.00,0.73
5224.00,0.74
5223.00,0.74
5222.00,0.74
5221.00,0.74
5220.00,0.74
5219.00,0.74
5218.00,0.74
5217.00,0.74
5216.00,0.74
5215.00,0.74
5214.00,0.74
5213.00,0.74
5212.00,0.74
5211.00,0.74
5210.00,0.74
5209.00,0.74
5208.00,0.74
5207.00,0.74
5206.00,0.74
5205.00,0.74
5204.00,0.74
5203.00,0.74
5202.00,0.74
5201.00,0.74
5200.00,0.74
5199.00,0.74
5198.00,0.74
5197.00,0.74
5196.00,0.74
5195.00,0.74
5194.00,0.74
5193.00,0.74
5192.00,0.74
5191.00,0.74
5190.00,0.74
5189.00,0.75
5188.00,0.75
5187.00,0.75
5186.00,0.75
5185.00,0.75
5184.00,0.75
5183.00,0.75
5182.00,0.75
5181.00,0.75
5180.00,0.75
5179.00,0.75
5178.00,0.75
5177.00,0.75
5176.00,0.76
5175.00,0.76
5174.00,0.76
5173.00,0.76
5172.00,0.76
5171.00,0.76
5170.00,0.76
5169.00,0.76
5168.00,0.76
5167.00,0.76
5166.00,0.76
5165.00,0.77
5164.00,0.77
5163.00,0.77
5162.00,0.77
5161.00,0.77
5160.00,0.77
5159.00,0.77
5158.00,0.77
5157.00,0.77
5156.00,0.77
5155.00,0.78
5154.00,0.78
5153.00,0.78
5152.00,0.78
5151.00,0.78
5150.00,0.78
5149.00,0.78
5148.00,0.78
5147.00,0.78
5146.00,0.78
5145.00,0.78
5144.00,0.78
5143.00,0.78
5142.00,0.78
5141.00,0.78
5140.00,0.78
5139.00,0.78
5138.00,0.78
5137.00,0.78
5136.00,0.78
5135.00,0.78
5134.00,0.78
5133.00,0.78
5132.00,0.79
5131.00,0.79
5130.00,0.79
5129.00,0.79
5128.00,0.79
5127.00,0.79
5126.00,0.79
5125.00,0.79
5124.00,0.79
5123.00,0.79
5122.00,0.79
5121.00,0.79
5120.00,0.79
5119.00,0.79
5118.00,0.79
5117.00,0.79
5116.00,0.79
5115.00,0.80
5114.00,0.80
5113.00,0.80
5112.00,0.80
5111.00,0.80
5110.00,0.80
5109.00,0.80
5108.00,0.80
5107.00,0.80
5106.00,0.80
5105.00,0.80
5104.00,0.80
5103.00,0.80
5102.00,0.80
5101.00,0.81
5100.00,0.81
5099.00,0.81
5098.00,0.81
5097.00,0.81
5096.00,0.81
5095.00,0.81
5094.00,0.81
5093.00,0.81
5092.00,0.81
5091.00,0.81
5090.00,0.81
5089.00,0.81
5088.00,0.81
5087.00,0.81
5086.00,0.81
5085.00,0.81
5084.00,0.81
5083.00,0.82
5082.00,0.82
5081.00,0.82
5080.00,0.82
5079.00,0.82
5078.00,0.82
5077.00,0.82
5076.00,0.82
5075.00,0.82
5074.00,0.82
5073.00,0.82
5072.00,0.82
5071.00,0.82
5070.00,0.83
5069.00,0.83
5068.00,0.83
5067.00,0.83
5066.00,0.83
5065.00,0.83
5064.00,0.83
5063.00,0.83
5062.00,0.83
5061.00,0.84
5060.00,0.84
5059.00,0.84
5058.00,0.84
5057.00,0.84
5056.00,0.84
5055.00,0.84
5054.00,0.84
5053.00,0.84
5052.00,0.84
5051.00,0.84
5050.00,0.84
5049.00,0.84
5048.00,0.85
5047.00,0.85
5046.00,0.85
5045.00,0.85
5044.00,0.85
5043.00,0.85
5042.00,0.85
5041.00,0.85
5040.00,0.85
5039.00,0.85
5038.00,0.85
5037.00,0.85
5036.00,0.85
5035.00,0.85
5034.00,0.85
5033.00,0.85
5032.00,0.85
5031.00,0.85
5030.00,0.85
5029.00,0.85
5028.00,0.85
5027.00,0.86
5026.00,0.86
5025.00,0.86
5024.00,0.86
5023.00,0.86
5022.00,0.86
5021.00,0.86
5020.00,0.87
5019.00,0.87
5018.00,0.87
5017.00,0.87
5016.00,0.87
5015.00,0.87
5014.00,0.87
5013.00,0.88
5012.00,0.88
5011.00,0.88
5010.00,0.88
5009.00,0.88
5008.00,0.88
5007.00,0.88
5006.00,0.88
5005.00,0.88
5004.00,0.88
5003.00,0.88
5002.00,0.89
5001.00,0.89
5000.00,0.89
4999.00,0.89
4998.00,0.89
4997.00,0.89
4996.00,0.89
4995.00,0.89
4994.00,0.89
4993.00,0.89
4992.00,0.89
4991.00,0.89
4990.00,0.89
4989.00,0.89
4988.00,0.89
4987.00,0.90
4986.00,0.90
4985.00,0.90
4984.00,0.90
4983.00,0.90
4982.00,0.90
4981.00,0.90
4980.00,0.90
4979.00,0.90
4978.00,0.90
4977.00,0.91
4976.00,0.91
4975.00,0.91
4974.00,0.91
4973.00,0.91
4972.00,0.91
4971.00,0.91
4970.00,0.92
4969.00,0.92
4968.00,0.92
4967.00,0.92
4966.00,0.92
4965.00,0.92
4964.00,0.93
4963.00,0.93
4962.00,0.93
4961.00,0.93
4960.00,0.93
4959.00,0.93
4958.00,0.93
4957.00,0.93
4956.00,0.93
4955.00,0.93
4954.00,0.93
4953.00,0.94
4952.00,0.94
4951.00,0.94
4950.00,0.94
4949.00,0.94
4948.00,0.94
4947.00,0.94
4946.00,0.94
4945.00,0.94
4944.00,0.94
4943.00,0.94
4942.00,0.94
4941.00,0.94
4940.00,0.94
4939.00,0.94
4938.00,0.94
4937.00,0.95
4936.00,0.95
4935.00,0.95
4934.00,0.95
4933.00,0.95
4932.00,0.95
4931.00,0.95
4930.00,0.95
4929.00,0.95
4928.00,0.96
4927.00,0.96
4926.00,0.96
4925.00,0.96
4924.00,0.96
4923.00,0.96
4922.00,0.96
4921.00,0.96
4920.00,0.96
4919.00,0.96
4918.00,0.96
4917.00,0.96
4916.00,0.96
4915.00,0.97
4914.00,0.97
4913.00,0.97
4912.00,0.97
4911.00,0.97
4910.00,0.97
4909.00,0.97
4908.00,0.97
4907.00,0.97
4906.00,0.98
4905.00,0.98
4904.00,0.98
4903.00,0.98
4902.00,0.98
4901.00,0.98
4900.00,0.98
4899.00,0.98
4898.00,0.98
4897.00,0.98
4896.00,0.98
4895.00,0.98
4894.00,0.98
4893.00,0.98
4892.00,0.98
4891.00,0.98
4890.00,0.99
4889.00,0.99
4888.00,0.99
4887.00,0.99
4886.00,0.99
4885.00,0.99
4884.00,0.99
4883.00,0.99
4882.00,0.99
4881.00,0.99
4880.00,0.99
4879.00,0.99
4878.00,1.00
4877.00,1.00
4876.00,1.00
4875.00,1.00
4874.00,1.00
4873.00,1.00
4872.00,1.00
4871.00,1.00
4870.00,1.00
4869.00,1.00
4868.00,1.00
4867.00,1.00
4866.00,1.00
4865.00,1.00
4864.00,1.00
4863.00,1.01
4862.00,1.01
4861.00,1.01
4860.00,1.01
4859.00,1.01
4858.00,1.01
4857.00,1.01
4856.00,1.01
4855.00,1.01
4854.00,1.01
4853.00,1.01
4852.00,1.02
4851.00,1.02
4850.00,1.02
4849.00,1.02
4848.00,1.02
4847.00,1.02
4846.00,1.02
4845.00,1.02
4844.00,1.02
4843.00,1.03
4842.00,1.03
4841.00,1.03
4840.00,1.03
4839.00,1.03
4838.00,1.03
4837.00,1.03
4836.00,1.03
4835.00,1.03
4834.00,1.03
4833.00,1.03
4832.00,1.03
4831.00,1.03
4830.00,1.03
4829.00,1.04
4828.00,1.04
4827.00,1.04
4826.00,1.04
4825.00,1.04
4824.00,1.04
4823.00,1.04
4822.00,1.04
4821.00,1.04
4820.00,1.04
4819.00,1.04
4818.00,1.04
4817.00,1.04
4816.00,1.04
4815.00,1.04
4814.00,1.04
4813.00,1.04
4812.00,1.04
4811.00,1.04
4810.00,1.05
4809.00,1.05
4808.00,1.05
4807.00,1.05
4806.00,1.05
4805.00,1.05
4804.00,1.06
4803.00,1.06
4802.00,1.06
4801.00,1.06
4800.00,1.06
4799.00,1.06
4798.00,1.07
4797.00,1.07
4796.00,1.07
4795.00,1.07
4794.00,1.07
4793.00,1.07
4792.00,1.07
4791.00,1.07
4790.00,1.07
4789.00,1.08
4788.00,1.08
4787.00,1.08
4786.00,1.08
4785.00,1.08
4784.00,1.08
4783.00,1.08
4782.00,1.08
4781.00,1.09
4780.00,1.09
4779.00,1.09
4778.00,1.09
4777.00,1.09
4776.00,1.09
4775.00,1.09
4774.00,1.10
4773.00,1.10
4772.00,1.10
4771.00,1.10
4770.00,1.10
4769.00,1.10
4768.00,1.10
4767.00,1.11
4766.00,1.11
4765.00,1.11
4764.00,1.11
4763.00,1.11
4762.00,1.11
4761.00,1.11
4760.00,1.11
4759.00,1.12
4758.00,1.12
4757.00,1.12
4756.00,1.12
4755.00,1.12
4754.00,1.12
4753.00,1.12
4752.00,1.12
4751.00,1.12
4750.00,1.13
4749.00,1.13
4748.00,1.13
4747.00,1.13
4746.00,1.13
4745.00,1.13
4744.00,1.13
4743.00,1.14
4742.00,1.14
4741.00,1.14
4740.00,1.14
4739.00,1.14
4738.00,1.14
4737.00,1.14
4736.00,1.15
4735.00,1.15
4734.00,1.15
4733.00,1.15
4732.00,1.16
4731.00,1.16
4730.00,1.16
4729.00,1.16
4728.00,1.17
4727.00,1.17
4726.00,1.17
4725.00,1.17
4724.00,1.18
4723.00,1.18
4722.00,1.18
4721.00,1.18
4720.00,1.19
4719.00,1.19
4718.00,1.19
4717.00,1.19
4716.00,1.20
4715.00,1.20
4714.00,1.20
4713.00,1.20
4712.00,1.20
4711.00,1.20
4710.00,1.21
4709.00,1.21
4708.00,1.21
4707.00,1.21
4706.00,1.21
4705.00,1.21
4704.00,1.21
4703.00,1.21
4702.00,1.22
4701.00,1.22
4700.00,1.22
4699.00,1.22
4698.00,1.22
4697.00,1.23
4696.00,1.23
4695.00,1.23
4694.00,1.23
4693.00,1.24
4692.00,1.24
4691.00,1.24
4690.00,1.24
4689.00,1.25
4688.00,1.25
4687.00,1.25
4686.00,1.25
4685.00,1.25
4684.00,1.26
4683.00,1.26
4682.00,1.26
4681.00,1.26
4680.00,1.26
4679.00,1.26
4678.00,1.26
4677.00,1.27
4676.00,1.27
4675.00,1.27
4674.00,1.27
4673.00,1.27
4672.00,1.27
4671.00,1.27
4670.00,1.28
4669.00,1.28
4668.00,1.28
4667.00,1.28
4666.00,1.28
4665.00,1.28
4664.00,1.29
4663.00,1.29
4662.00,1.29
4661.00,1.29
4660.00,1.29
4659.00,1.29
4658.00,1.29
4657.00,1.30
4656.00,1.30
4655.00,1.30
4654.00,1.30
4653.00,1.30
4652.00,1.30
4651.00,1.31
4650.00,1.31
4649.00,1.31
4648.00,1.31
4647.00,1.31
4646.00,1.32
4645.00,1.32
4644.00,1.32
4643.00,1.32
4642.00,1.32
4641.00,1.32
4640.00,1.32
4639.00,1.33
4638.00,1.33
4637.00,1.33
4636.00,1.33
4635.00,1.33
4634.00,1.33
4633.00,1.34
4632.00,1.34
4631.00,1.34
4630.00,1.34
4629.00,1.34
4628.00,1.34
4627.00,1.35
4626.00,1.35
4625.00,1.35
4624.00,1.35
4623.00,1.35
4622.00,1.35
4621.00,1.36
4620.00,1.36
4619.00,1.36
4618.00,1.36
4617.00,1.36
4616.00,1.36
4615.00,1.36
4614.00,1.36
4613.00,1.37
4612.00,1.37
4611.00,1.37
4610.00,1.37
4609.00,1.37
4608.00,1.37
4607.00,1.37
4606.00,1.37
4605.00,1.37
4604.00,1.37
4603.00,1.37
4602.00,1.37
4601.00,1.37
4600.00,1.37
4599.00,1.38
4598.00,1.38
4597.00,1.38
4596.00,1.38
4595.00,1.38
4594.00,1.39
4593.00,1.39
4592.00,1.39
4591.00,1.39
4590.00,1.39
4589.00,1.39
4588.00,1.40
4587.00,1.40
4586.00,1.40
4585.00,1.40
4584.00,1.40
4583.00,1.40
4582.00,1.40
4581.00,1.40
4580.00,1.40
4579.00,1.40
4578.00,1.40
4577.00,1.40
4576.00,1.40
4575.00,1.41
4574.00,1.41
4573.00,1.41
4572.00,1.41
4571.00,1.41
4570.00,1.41
4569.00,1.41
4568.00,1.42
4567.00,1.42
4566.00,1.42
4565.00,1.42
4564.00,1.42
4563.00,1.42
4562.00,1.42
4561.00,1.43
4560.00,1.43
4559.00,1.43
4558.00,1.43
4557.00,1.43
4556.00,1.43
4555.00,1.44
4554.00,1.44
4553.00,1.44
4552.00,1.44
4551.00,1.44
4550.00,1.44
4549.00,1.45
4548.00,1.45
4547.00,1.45
4546.00,1.45
4545.00,1.45
4544.00,1.45
4543.00,1.46
4542.00,1.46
4541.00,1.46
4540.00,1.46
4539.00,1.46
4538.00,1.46
4537.00,1.46
4536.00,1.46
4535.00,1.46
4534.00,1.46
4533.00,1.46
4532.00,1.46
4531.00,1.46
4530.00,1.47
4529.00,1.47
4528.00,1.47
4527.00,1.47
4526.00,1.47
4525.00,1.47
4524.00,1.47
4523.00,1.47
4522.00,1.47
4521.00,1.47
4520.00,1.47
4519.00,1.48
4518.00,1.48
4517.00,1.48
4516.00,1.48
4515.00,1.48
4514.00,1.48
4513.00,1.48
4512.00,1.48
4511.00,1.48
4510.00,1.48
4509.00,1.48
4508.00,1.48
4507.00,1.48
4506.00,1.48
4505.00,1.48
4504.00,1.48
4503.00,1.47
4502.00,1.47
4501.00,1.47
4500.00,1.47
4499.00,1.47
4498.00,1.47
4497.00,1.47
4496.00,1.47
4495.00,1.47
4494.00,1.46
4493.00,1.46
4492.00,1.46
4491.00,1.46
4490.00,1.46
4489.00,1.46
4488.00,1.46
4487.00,1.45
4486.00,1.45
4485.00,1.45
4484.00,1.45
4483.00,1.45
4482.00,1.45
4481.00,1.45
4480.00,1.44
4479.00,1.44
4478.00,1.44
4477.00,1.44
4476.00,1.44
4475.00,1.44
4474.00,1.44
4473.00,1.43
4472.00,1.43
4471.00,1.43
4470.00,1.43
4469.00,1.42
4468.00,1.42
4467.00,1.42
4466.00,1.42
4465.00,1.41
4464.00,1.41
4463.00,1.41
4462.00,1.41
4461.00,1.40
4460.00,1.40
4459.00,1.40
4458.00,1.40
4457.00,1.39
4456.00,1.39
4455.00,1.39
4454.00,1.38
4453.00,1.38
4452.00,1.38
4451.00,1.38
4450.00,1.37
4449.00,1.37
4448.00,1.37
4447.00,1.37
4446.00,1.36
4445.00,1.36
4444.00,1.36
4443.00,1.35
4442.00,1.35
4441.00,1.35
4440.00,1.35
4439.00,1.34
4438.00,1.34
4437.00,1.34
4436.00,1.33
4435.00,1.33
4434.00,1.33
4433.00,1.33
4432.00,1.32
4431.00,1.32
4430.00,1.32
4429.00,1.31
4428.00,1.31
4427.00,1.31
4426.00,1.31
4425.00,1.30
4424.00,1.30
4423.00,1.30
4422.00,1.30
4421.00,1.30
4420.00,1.30
4419.00,1.30
4418.00,1.30
4417.00,1.30
4416.00,1.29
4415.00,1.29
4414.00,1.30
4413.00,1.30
4412.00,1.30
4411.00,1.30
4410.00,1.30
4409.00,1.30
4408.00,1.30
4407.00,1.30
4406.00,1.30
4405.00,1.30
4404.00,1.30
4403.00,1.30
4402.00,1.30
4401.00,1.30
4400.00,1.30
4399.00,1.30
4398.00,1.30
4397.00,1.30
4396.00,1.30
4395.00,1.30
4394.00,1.31
4393.00,1.31
4392.00,1.31
4391.00,1.31
4390.00,1.31
4389.00,1.31
4388.00,1.31
4387.00,1.31
4386.00,1.32
4385.00,1.32
4384.00,1.32
4383.00,1.32
4382.00,1.32
4381.00,1.33
4380.00,1.33
4379.00,1.33
4378.00,1.33
4377.00,1.33
4376.00,1.34
4375.00,1.34
4374.00,1.34
4373.00,1.34
4372.00,1.34
4371.00,1.34
4370.00,1.34
4369.00,1.34
4368.00,1.35
4367.00,1.35
4366.00,1.35
4365.00,1.35
4364.00,1.35
4363.00,1.35
4362.00,1.35
4361.00,1.35
4360.00,1.35
4359.00,1.35
4358.00,1.35
4357.00,1.35
4356.00,1.35
4355.00,1.35
4354.00,1.35
4353.00,1.35
4352.00,1.35
4351.00,1.35
4350.00,1.35
4349.00,1.35
4348.00,1.35
4347.00,1.35
4346.00,1.35
4345.00,1.35
4344.00,1.35
4343.00,1.35
4342.00,1.35
4341.00,1.35
4340.00,1.35
4339.00,1.36
4338.00,1.36
4337.00,1.36
4336.00,1.36
4335.00,1.36
4334.00,1.36
4333.00,1.36
4332.00,1.37
4331.00,1.37
4330.00,1.37
4329.00,1.37
4328.00,1.37
4327.00,1.37
4326.00,1.37
4325.00,1.37
4324.00,1.37
4323.00,1.37
4322.00,1.38
4321.00,1.38
4320.00,1.38
4319.00,1.38
4318.00,1.38
4317.00,1.38
4316.00,1.38
4315.00,1.39
4314.00,1.39
4313.00,1.39
4312.00,1.39
4311.00,1.39
4310.00,1.40
4309.00,1.40
4308.00,1.40
4307.00,1.40
4306.00,1.41
4305.00,1.41
4304.00,1.41
4303.00,1.41
4302.00,1.41
4301.00,1.42
4300.00,1.42
4299.00,1.42
4298.00,1.42
4297.00,1.42
4296.00,1.42
4295.00,1.43
4294.00,1.43
4293.00,1.43
4292.00,1.43
4291.00,1.43
4290.00,1.43
4289.00,1.43
4288.00,1.44
4287.00,1.44
4286.00,1.44
4285.00,1.44
4284.00,1.44
4283.00,1.44
4282.00,1.44
4281.00,1.44
4280.00,1.44
4279.00,1.44
4278.00,1.45
4277.00,1.45
4276.00,1.45
4275.00,1.45
4274.00,1.45
4273.00,1.45
4272.00,1.45
4271.00,1.45
4270.00,1.45
4269.00,1.45
4268.00,1.45
4267.00,1.45
4266.00,1.45
4265.00,1.45
4264.00,1.45
4263.00,1.45
4262.00,1.45
4261.00,1.45
4260.00,1.45
4259.00,1.45
4258.00,1.45
4257.00,1.45
4256.00,1.45
4255.00,1.45
4254.00,1.45
4253.00,1.45
4252.00,1.45
4251.00,1.45
4250.00,1.45
4249.00,1.46
4248.00,1.46
4247.00,1.46
4246.00,1.46
4245.00,1.46
4244.00,1.47
4243.00,1.47
4242.00,1.47
4241.00,1.47
4240.00,1.48
4239.00,1.48
4238.00,1.48
4237.00,1.48
4236.00,1.48
4235.00,1.48
4234.00,1.49
4233.00,1.49
4232.00,1.49
4231.00,1.49
4230.00,1.49
4229.00,1.49
4228.00,1.49
4227.00,1.49
4226.00,1.49
4225.00,1.49
4224.00,1.49
4223.00,1.49
4222.00,1.49
4221.00,1.49
4220.00,1.50
4219.00,1.50
4218.00,1.50
4217.00,1.50
4216.00,1.50
4215.00,1.50
4214.00,1.50
4213.00,1.51
4212.00,1.51
4211.00,1.51
4210.00,1.51
4209.00,1.51
4208.00,1.51
4207.00,1.51
4206.00,1.52
4205.00,1.52
4204.00,1.52
4203.00,1.52
4202.00,1.52
4201.00,1.52
4200.00,1.52
4199.00,1.52
4198.00,1.52
4197.00,1.52
4196.00,1.52
4195.00,1.53
4194.00,1.53
4193.00,1.53
4192.00,1.53
4191.00,1.53
4190.00,1.53
4189.00,1.53
4188.00,1.53
4187.00,1.53
4186.00,1.53
4185.00,1.53
4184.00,1.53
4183.00,1.53
4182.00,1.53
4181.00,1.53
4180.00,1.52
4179.00,1.52
4178.00,1.52
4177.00,1.52
4176.00,1.52
4175.00,1.52
4174.00,1.52
4173.00,1.52
4172.00,1.53
4171.00,1.53
4170.00,1.53
4169.00,1.53
4168.00,1.53
4167.00,1.53
4166.00,1.54
4165.00,1.54
4164.00,1.54
4163.00,1.54
4162.00,1.55
4161.00,1.55
4160.00,1.55
4159.00,1.55
4158.00,1.56
4157.00,1.56
4156.00,1.56
4155.00,1.56
4154.00,1.56
4153.00,1.57
4152.00,1.57
4151.00,1.57
4150.00,1.57
4149.00,1.57
4148.00,1.57
4147.00,1.57
4146.00,1.57
4145.00,1.57
4144.00,1.57
4143.00,1.57
4142.00,1.57
4141.00,1.57
4140.00,1.57
4139.00,1.57
4138.00,1.57
4137.00,1.57
4136.00,1.57
4135.00,1.57
4134.00,1.57
4133.00,1.57
4132.00,1.57
4131.00,1.57
4130.00,1.57
4129.00,1.57
4128.00,1.57
4127.00,1.57
4126.00,1.58
4125.00,1.58
4124.00,1.58
4123.00,1.58
4122.00,1.58
4121.00,1.58
4120.00,1.58
4119.00,1.59
4118.00,1.59
4117.00,1.59
4116.00,1.59
4115.00,1.59
4114.00,1.59
4113.00,1.59
4112.00,1.59
4111.00,1.59
4110.00,1.59
4109.00,1.59
4108.00,1.59
4107.00,1.59
4106.00,1.59
4105.00,1.59
4104.00,1.59
4103.00,1.59
4102.00,1.59
4101.00,1.59
4100.00,1.59
4099.00,1.59
4098.00,1.60
4097.00,1.60
4096.00,1.60
4095.00,1.60
4094.00,1.60
4093.00,1.60
4092.00,1.60
4091.00,1.60
4090.00,1.61
4089.00,1.61
4088.00,1.61
4087.00,1.61
4086.00,1.61
4085.00,1.61
4084.00,1.61
4083.00,1.61
4082.00,1.61
4081.00,1.62
4080.00,1.62
4079.00,1.62
4078.00,1.62
4077.00,1.62
4076.00,1.63
4075.00,1.63
4074.00,1.63
4073.00,1.63
4072.00,1.64
4071.00,1.64
4070.00,1.64
4069.00,1.64
4068.00,1.64
4067.00,1.65
4066.00,1.65
4065.00,1.65
4064.00,1.65
4063.00,1.65
4062.00,1.65
4061.00,1.65
4060.00,1.65
4059.00,1.66
4058.00,1.66
4057.00,1.66
4056.00,1.66
4055.00,1.66
4054.00,1.66
4053.00,1.66
4052.00,1.66
4051.00,1.66
4050.00,1.66
4049.00,1.66
4048.00,1.67
4047.00,1.67
4046.00,1.67
4045.00,1.67
4044.00,1.67
4043.00,1.67
4042.00,1.67
4041.00,1.67
4040.00,1.67
4039.00,1.67
4038.00,1.67
4037.00,1.67
4036.00,1.67
4035.00,1.67
4034.00,1.67
4033.00,1.67
4032.00,1.67
4031.00,1.66
4030.00,1.66
4029.00,1.66
4028.00,1.67
4027.00,1.67
4026.00,1.67
4025.00,1.67
4024.00,1.67
4023.00,1.67
4022.00,1.67
4021.00,1.67
4020.00,1.67
4019.00,1.67
4018.00,1.67
4017.00,1.67
4016.00,1.67
4015.00,1.67
4014.00,1.67
4013.00,1.67
4012.00,1.68
4011.00,1.68
4010.00,1.68
4009.00,1.68
4008.00,1.68
4007.00,1.68
4006.00,1.69
4005.00,1.69
4004.00,1.69
4003.00,1.70
4002.00,1.70
4001.00,1.70
4000.00,1.71
