创建为新数据集,样品 413 用户 Administrator 日期 星期四, 三月 08 2018
cm-1,%T
10000.00,1.05
9999.00,1.05
9998.00,1.05
9997.00,1.05
9996.00,1.05
9995.00,1.04
9994.00,1.04
9993.00,1.04
9992.00,1.04
9991.00,1.04
9990.00,1.04
9989.00,1.04
9988.00,1.04
9987.00,1.03
9986.00,1.03
9985.00,1.03
9984.00,1.03
9983.00,1.04
9982.00,1.04
9981.00,1.04
9980.00,1.04
9979.00,1.04
9978.00,1.04
9977.00,1.04
9976.00,1.04
9975.00,1.04
9974.00,1.04
9973.00,1.05
9972.00,1.05
9971.00,1.05
9970.00,1.05
9969.00,1.05
9968.00,1.05
9967.00,1.05
9966.00,1.05
9965.00,1.05
9964.00,1.05
9963.00,1.04
9962.00,1.04
9961.00,1.04
9960.00,1.04
9959.00,1.04
9958.00,1.04
9957.00,1.04
9956.00,1.04
9955.00,1.04
9954.00,1.04
9953.00,1.04
9952.00,1.04
9951.00,1.04
9950.00,1.04
9949.00,1.04
9948.00,1.04
9947.00,1.04
9946.00,1.04
9945.00,1.04
9944.00,1.04
9943.00,1.04
9942.00,1.04
9941.00,1.04
9940.00,1.04
9939.00,1.04
9938.00,1.04
9937.00,1.04
9936.00,1.04
9935.00,1.04
9934.00,1.03
9933.00,1.03
9932.00,1.03
9931.00,1.03
9930.00,1.03
9929.00,1.02
9928.00,1.02
9927.00,1.02
9926.00,1.02
9925.00,1.02
9924.00,1.02
9923.00,1.02
9922.00,1.02
9921.00,1.02
9920.00,1.02
9919.00,1.02
9918.00,1.02
9917.00,1.02
9916.00,1.02
9915.00,1.02
9914.00,1.02
9913.00,1.02
9912.00,1.02
9911.00,1.02
9910.00,1.02
9909.00,1.02
9908.00,1.02
9907.00,1.02
9906.00,1.02
9905.00,1.02
9904.00,1.02
9903.00,1.02
9902.00,1.02
9901.00,1.02
9900.00,1.02
9899.00,1.02
9898.00,1.02
9897.00,1.02
9896.00,1.02
9895.00,1.02
9894.00,1.03
9893.00,1.03
9892.00,1.03
9891.00,1.03
9890.00,1.03
9889.00,1.03
9888.00,1.04
9887.00,1.04
9886.00,1.04
9885.00,1.04
9884.00,1.04
9883.00,1.04
9882.00,1.04
9881.00,1.04
9880.00,1.04
9879.00,1.04
9878.00,1.04
9877.00,1.04
9876.00,1.04
9875.00,1.04
9874.00,1.04
9873.00,1.04
9872.00,1.04
9871.00,1.04
9870.00,1.04
9869.00,1.04
9868.00,1.04
9867.00,1.04
9866.00,1.04
9865.00,1.04
9864.00,1.04
9863.00,1.04
9862.00,1.04
9861.00,1.03
9860.00,1.03
9859.00,1.03
9858.00,1.03
9857.00,1.02
9856.00,1.02
9855.00,1.02
9854.00,1.02
9853.00,1.02
9852.00,1.01
9851.00,1.01
9850.00,1.01
9849.00,1.01
9848.00,1.01
9847.00,1.01
9846.00,1.01
9845.00,1.02
9844.00,1.02
9843.00,1.02
9842.00,1.02
9841.00,1.02
9840.00,1.03
9839.00,1.03
9838.00,1.03
9837.00,1.03
9836.00,1.04
9835.00,1.04
9834.00,1.04
9833.00,1.04
9832.00,1.04
9831.00,1.05
9830.00,1.05
9829.00,1.05
9828.00,1.05
9827.00,1.05
9826.00,1.05
9825.00,1.04
9824.00,1.04
9823.00,1.04
9822.00,1.04
9821.00,1.03
9820.00,1.03
9819.00,1.03
9818.00,1.02
9817.00,1.02
9816.00,1.01
9815.00,1.01
9814.00,1.01
9813.00,1.00
9812.00,1.00
9811.00,1.00
9810.00,0.99
9809.00,0.99
9808.00,0.99
9807.00,0.99
9806.00,0.99
9805.00,0.99
9804.00,0.99
9803.00,0.99
9802.00,0.99
9801.00,0.99
9800.00,1.00
9799.00,1.00
9798.00,1.00
9797.00,1.00
9796.00,1.00
9795.00,1.00
9794.00,1.00
9793.00,1.01
9792.00,1.01
9791.00,1.01
9790.00,1.01
9789.00,1.01
9788.00,1.01
9787.00,1.01
9786.00,1.01
9785.00,1.01
9784.00,1.02
9783.00,1.02
9782.00,1.02
9781.00,1.02
9780.00,1.02
9779.00,1.02
9778.00,1.03
9777.00,1.03
9776.00,1.03
9775.00,1.03
9774.00,1.03
9773.00,1.03
9772.00,1.03
9771.00,1.03
9770.00,1.03
9769.00,1.03
9768.00,1.03
9767.00,1.03
9766.00,1.03
9765.00,1.03
9764.00,1.03
9763.00,1.03
9762.00,1.03
9761.00,1.03
9760.00,1.03
9759.00,1.02
9758.00,1.02
9757.00,1.02
9756.00,1.02
9755.00,1.03
9754.00,1.03
9753.00,1.03
9752.00,1.03
9751.00,1.03
9750.00,1.03
9749.00,1.03
9748.00,1.03
9747.00,1.03
9746.00,1.03
9745.00,1.03
9744.00,1.03
9743.00,1.03
9742.00,1.03
9741.00,1.03
9740.00,1.03
9739.00,1.02
9738.00,1.02
9737.00,1.02
9736.00,1.02
9735.00,1.02
9734.00,1.02
9733.00,1.02
9732.00,1.02
9731.00,1.02
9730.00,1.02
9729.00,1.02
9728.00,1.02
9727.00,1.03
9726.00,1.03
9725.00,1.03
9724.00,1.03
9723.00,1.03
9722.00,1.03
9721.00,1.04
9720.00,1.04
9719.00,1.04
9718.00,1.04
9717.00,1.04
9716.00,1.04
9715.00,1.04
9714.00,1.04
9713.00,1.04
9712.00,1.04
9711.00,1.04
9710.00,1.04
9709.00,1.04
9708.00,1.04
9707.00,1.04
9706.00,1.04
9705.00,1.04
9704.00,1.04
9703.00,1.03
9702.00,1.03
9701.00,1.03
9700.00,1.03
9699.00,1.03
9698.00,1.03
9697.00,1.03
9696.00,1.03
9695.00,1.03
9694.00,1.03
9693.00,1.03
9692.00,1.03
9691.00,1.03
9690.00,1.03
9689.00,1.03
9688.00,1.03
9687.00,1.03
9686.00,1.03
9685.00,1.03
9684.00,1.03
9683.00,1.03
9682.00,1.03
9681.00,1.03
9680.00,1.03
9679.00,1.03
9678.00,1.03
9677.00,1.03
9676.00,1.03
9675.00,1.03
9674.00,1.03
9673.00,1.03
9672.00,1.03
9671.00,1.03
9670.00,1.03
9669.00,1.03
9668.00,1.03
9667.00,1.03
9666.00,1.03
9665.00,1.03
9664.00,1.03
9663.00,1.03
9662.00,1.03
9661.00,1.03
9660.00,1.03
9659.00,1.03
9658.00,1.03
9657.00,1.03
9656.00,1.03
9655.00,1.03
9654.00,1.03
9653.00,1.03
9652.00,1.03
9651.00,1.03
9650.00,1.04
9649.00,1.04
9648.00,1.04
9647.00,1.04
9646.00,1.04
9645.00,1.04
9644.00,1.04
9643.00,1.03
9642.00,1.03
9641.00,1.03
9640.00,1.03
9639.00,1.03
9638.00,1.03
9637.00,1.03
9636.00,1.03
9635.00,1.03
9634.00,1.03
9633.00,1.03
9632.00,1.03
9631.00,1.02
9630.00,1.02
9629.00,1.02
9628.00,1.02
9627.00,1.02
9626.00,1.03
9625.00,1.03
9624.00,1.03
9623.00,1.03
9622.00,1.03
9621.00,1.03
9620.00,1.03
9619.00,1.03
9618.00,1.03
9617.00,1.03
9616.00,1.03
9615.00,1.03
9614.00,1.03
9613.00,1.03
9612.00,1.03
9611.00,1.02
9610.00,1.02
9609.00,1.02
9608.00,1.02
9607.00,1.02
9606.00,1.01
9605.00,1.01
9604.00,1.01
9603.00,1.01
9602.00,1.01
9601.00,1.01
9600.00,1.01
9599.00,1.01
9598.00,1.01
9597.00,1.01
9596.00,1.01
9595.00,1.01
9594.00,1.01
9593.00,1.01
9592.00,1.01
9591.00,1.01
9590.00,1.02
9589.00,1.02
9588.00,1.02
9587.00,1.02
9586.00,1.02
9585.00,1.03
9584.00,1.03
9583.00,1.03
9582.00,1.03
9581.00,1.03
9580.00,1.03
9579.00,1.03
9578.00,1.03
9577.00,1.03
9576.00,1.03
9575.00,1.03
9574.00,1.03
9573.00,1.03
9572.00,1.02
9571.00,1.02
9570.00,1.02
9569.00,1.02
9568.00,1.02
9567.00,1.01
9566.00,1.01
9565.00,1.01
9564.00,1.01
9563.00,1.01
9562.00,1.01
9561.00,1.01
9560.00,1.01
9559.00,1.01
9558.00,1.01
9557.00,1.01
9556.00,1.01
9555.00,1.01
9554.00,1.01
9553.00,1.01
9552.00,1.01
9551.00,1.01
9550.00,1.01
9549.00,1.01
9548.00,1.01
9547.00,1.01
9546.00,1.01
9545.00,1.01
9544.00,1.01
9543.00,1.01
9542.00,1.01
9541.00,1.00
9540.00,1.00
9539.00,1.00
9538.00,1.00
9537.00,1.00
9536.00,1.00
9535.00,1.01
9534.00,1.01
9533.00,1.01
9532.00,1.01
9531.00,1.01
9530.00,1.01
9529.00,1.01
9528.00,1.02
9527.00,1.02
9526.00,1.02
9525.00,1.02
9524.00,1.03
9523.00,1.03
9522.00,1.03
9521.00,1.03
9520.00,1.04
9519.00,1.04
9518.00,1.04
9517.00,1.05
9516.00,1.05
9515.00,1.05
9514.00,1.05
9513.00,1.05
9512.00,1.05
9511.00,1.05
9510.00,1.05
9509.00,1.05
9508.00,1.05
9507.00,1.05
9506.00,1.05
9505.00,1.04
9504.00,1.04
9503.00,1.04
9502.00,1.04
9501.00,1.03
9500.00,1.03
9499.00,1.03
9498.00,1.03
9497.00,1.03
9496.00,1.03
9495.00,1.02
9494.00,1.02
9493.00,1.02
9492.00,1.02
9491.00,1.02
9490.00,1.02
9489.00,1.02
9488.00,1.02
9487.00,1.02
9486.00,1.02
9485.00,1.02
9484.00,1.02
9483.00,1.02
9482.00,1.02
9481.00,1.02
9480.00,1.01
9479.00,1.01
9478.00,1.01
9477.00,1.01
9476.00,1.01
9475.00,1.00
9474.00,1.00
9473.00,1.00
9472.00,1.00
9471.00,1.00
9470.00,1.00
9469.00,1.00
9468.00,1.00
9467.00,1.00
9466.00,1.00
9465.00,1.01
9464.00,1.01
9463.00,1.01
9462.00,1.01
9461.00,1.02
9460.00,1.02
9459.00,1.02
9458.00,1.02
9457.00,1.03
9456.00,1.03
9455.00,1.03
9454.00,1.03
9453.00,1.03
9452.00,1.03
9451.00,1.03
9450.00,1.03
9449.00,1.03
9448.00,1.03
9447.00,1.03
9446.00,1.03
9445.00,1.03
9444.00,1.03
9443.00,1.03
9442.00,1.03
9441.00,1.03
9440.00,1.03
9439.00,1.03
9438.00,1.03
9437.00,1.03
9436.00,1.03
9435.00,1.03
9434.00,1.03
9433.00,1.02
9432.00,1.02
9431.00,1.02
9430.00,1.02
9429.00,1.02
9428.00,1.02
9427.00,1.02
9426.00,1.02
9425.00,1.02
9424.00,1.02
9423.00,1.02
9422.00,1.02
9421.00,1.02
9420.00,1.02
9419.00,1.02
9418.00,1.02
9417.00,1.02
9416.00,1.03
9415.00,1.03
9414.00,1.03
9413.00,1.03
9412.00,1.03
9411.00,1.03
9410.00,1.03
9409.00,1.03
9408.00,1.03
9407.00,1.04
9406.00,1.04
9405.00,1.04
9404.00,1.04
9403.00,1.04
9402.00,1.04
9401.00,1.04
9400.00,1.04
9399.00,1.04
9398.00,1.04
9397.00,1.04
9396.00,1.04
9395.00,1.04
9394.00,1.04
9393.00,1.03
9392.00,1.03
9391.00,1.03
9390.00,1.03
9389.00,1.03
9388.00,1.03
9387.00,1.03
9386.00,1.02
9385.00,1.02
9384.00,1.02
9383.00,1.02
9382.00,1.02
9381.00,1.02
9380.00,1.02
9379.00,1.02
9378.00,1.02
9377.00,1.02
9376.00,1.02
9375.00,1.02
9374.00,1.02
9373.00,1.01
9372.00,1.01
9371.00,1.01
9370.00,1.01
9369.00,1.01
9368.00,1.01
9367.00,1.01
9366.00,1.01
9365.00,1.01
9364.00,1.01
9363.00,1.01
9362.00,1.01
9361.00,1.01
9360.00,1.01
9359.00,1.01
9358.00,1.01
9357.00,1.02
9356.00,1.02
9355.00,1.02
9354.00,1.02
9353.00,1.02
9352.00,1.02
9351.00,1.02
9350.00,1.02
9349.00,1.02
9348.00,1.02
9347.00,1.02
9346.00,1.02
9345.00,1.02
9344.00,1.03
9343.00,1.03
9342.00,1.03
9341.00,1.03
9340.00,1.03
9339.00,1.03
9338.00,1.03
9337.00,1.03
9336.00,1.02
9335.00,1.02
9334.00,1.02
9333.00,1.02
9332.00,1.02
9331.00,1.02
9330.00,1.02
9329.00,1.02
9328.00,1.02
9327.00,1.02
9326.00,1.02
9325.00,1.02
9324.00,1.02
9323.00,1.02
9322.00,1.02
9321.00,1.02
9320.00,1.02
9319.00,1.02
9318.00,1.02
9317.00,1.02
9316.00,1.02
9315.00,1.03
9314.00,1.03
9313.00,1.03
9312.00,1.03
9311.00,1.03
9310.00,1.03
9309.00,1.03
9308.00,1.03
9307.00,1.03
9306.00,1.03
9305.00,1.03
9304.00,1.03
9303.00,1.03
9302.00,1.03
9301.00,1.03
9300.00,1.03
9299.00,1.03
9298.00,1.03
9297.00,1.03
9296.00,1.03
9295.00,1.03
9294.00,1.02
9293.00,1.02
9292.00,1.02
9291.00,1.02
9290.00,1.02
9289.00,1.02
9288.00,1.02
9287.00,1.02
9286.00,1.02
9285.00,1.02
9284.00,1.02
9283.00,1.02
9282.00,1.02
9281.00,1.02
9280.00,1.02
9279.00,1.03
9278.00,1.03
9277.00,1.02
9276.00,1.02
9275.00,1.02
9274.00,1.02
9273.00,1.02
9272.00,1.02
9271.00,1.02
9270.00,1.02
9269.00,1.02
9268.00,1.01
9267.00,1.01
9266.00,1.01
9265.00,1.01
9264.00,1.01
9263.00,1.01
9262.00,1.01
9261.00,1.01
9260.00,1.01
9259.00,1.01
9258.00,1.01
9257.00,1.01
9256.00,1.01
9255.00,1.02
9254.00,1.02
9253.00,1.02
9252.00,1.02
9251.00,1.02
9250.00,1.03
9249.00,1.03
9248.00,1.03
9247.00,1.03
9246.00,1.03
9245.00,1.03
9244.00,1.04
9243.00,1.04
9242.00,1.04
9241.00,1.04
9240.00,1.04
9239.00,1.04
9238.00,1.04
9237.00,1.04
9236.00,1.04
9235.00,1.03
9234.00,1.03
9233.00,1.03
9232.00,1.03
9231.00,1.03
9230.00,1.03
9229.00,1.03
9228.00,1.03
9227.00,1.03
9226.00,1.03
9225.00,1.03
9224.00,1.03
9223.00,1.03
9222.00,1.03
9221.00,1.03
9220.00,1.03
9219.00,1.03
9218.00,1.03
9217.00,1.03
9216.00,1.03
9215.00,1.03
9214.00,1.03
9213.00,1.03
9212.00,1.03
9211.00,1.03
9210.00,1.03
9209.00,1.03
9208.00,1.03
9207.00,1.03
9206.00,1.03
9205.00,1.03
9204.00,1.03
9203.00,1.03
9202.00,1.03
9201.00,1.03
9200.00,1.03
9199.00,1.03
9198.00,1.03
9197.00,1.03
9196.00,1.03
9195.00,1.03
9194.00,1.03
9193.00,1.03
9192.00,1.03
9191.00,1.03
9190.00,1.03
9189.00,1.03
9188.00,1.03
9187.00,1.03
9186.00,1.03
9185.00,1.03
9184.00,1.03
9183.00,1.03
9182.00,1.03
9181.00,1.03
9180.00,1.03
9179.00,1.03
9178.00,1.04
9177.00,1.04
9176.00,1.04
9175.00,1.04
9174.00,1.04
9173.00,1.04
9172.00,1.04
9171.00,1.04
9170.00,1.04
9169.00,1.04
9168.00,1.05
9167.00,1.05
9166.00,1.05
9165.00,1.05
9164.00,1.05
9163.00,1.05
9162.00,1.05
9161.00,1.05
9160.00,1.05
9159.00,1.05
9158.00,1.05
9157.00,1.05
9156.00,1.05
9155.00,1.05
9154.00,1.05
9153.00,1.05
9152.00,1.04
9151.00,1.04
9150.00,1.04
9149.00,1.04
9148.00,1.04
9147.00,1.04
9146.00,1.04
9145.00,1.04
9144.00,1.04
9143.00,1.04
9142.00,1.04
9141.00,1.04
9140.00,1.04
9139.00,1.03
9138.00,1.03
9137.00,1.03
9136.00,1.03
9135.00,1.03
9134.00,1.03
9133.00,1.03
9132.00,1.03
9131.00,1.03
9130.00,1.03
9129.00,1.03
9128.00,1.03
9127.00,1.03
9126.00,1.03
9125.00,1.03
9124.00,1.03
9123.00,1.03
9122.00,1.03
9121.00,1.03
9120.00,1.03
9119.00,1.03
9118.00,1.03
9117.00,1.02
9116.00,1.02
9115.00,1.02
9114.00,1.02
9113.00,1.02
9112.00,1.01
9111.00,1.01
9110.00,1.01
9109.00,1.01
9108.00,1.01
9107.00,1.01
9106.00,1.01
9105.00,1.01
9104.00,1.01
9103.00,1.01
9102.00,1.01
9101.00,1.01
9100.00,1.01
9099.00,1.01
9098.00,1.01
9097.00,1.02
9096.00,1.02
9095.00,1.02
9094.00,1.02
9093.00,1.02
9092.00,1.02
9091.00,1.03
9090.00,1.03
9089.00,1.03
9088.00,1.03
9087.00,1.03
9086.00,1.03
9085.00,1.03
9084.00,1.03
9083.00,1.04
9082.00,1.04
9081.00,1.04
9080.00,1.03
9079.00,1.03
9078.00,1.03
9077.00,1.03
9076.00,1.03
9075.00,1.03
9074.00,1.03
9073.00,1.03
9072.00,1.03
9071.00,1.03
9070.00,1.03
9069.00,1.03
9068.00,1.03
9067.00,1.03
9066.00,1.03
9065.00,1.03
9064.00,1.03
9063.00,1.04
9062.00,1.04
9061.00,1.04
9060.00,1.04
9059.00,1.04
9058.00,1.04
9057.00,1.04
9056.00,1.04
9055.00,1.04
9054.00,1.04
9053.00,1.04
9052.00,1.04
9051.00,1.03
9050.00,1.03
9049.00,1.03
9048.00,1.03
9047.00,1.03
9046.00,1.03
9045.00,1.03
9044.00,1.03
9043.00,1.03
9042.00,1.03
9041.00,1.03
9040.00,1.03
9039.00,1.03
9038.00,1.03
9037.00,1.03
9036.00,1.03
9035.00,1.03
9034.00,1.03
9033.00,1.04
9032.00,1.04
9031.00,1.04
9030.00,1.04
9029.00,1.04
9028.00,1.04
9027.00,1.04
9026.00,1.04
9025.00,1.04
9024.00,1.04
9023.00,1.04
9022.00,1.04
9021.00,1.04
9020.00,1.04
9019.00,1.04
9018.00,1.04
9017.00,1.04
9016.00,1.04
9015.00,1.04
9014.00,1.04
9013.00,1.04
9012.00,1.04
9011.00,1.04
9010.00,1.04
9009.00,1.04
9008.00,1.04
9007.00,1.04
9006.00,1.04
9005.00,1.05
9004.00,1.05
9003.00,1.05
9002.00,1.05
9001.00,1.05
9000.00,1.05
8999.00,1.05
8998.00,1.05
8997.00,1.05
8996.00,1.05
8995.00,1.04
8994.00,1.04
8993.00,1.04
8992.00,1.04
8991.00,1.04
8990.00,1.04
8989.00,1.03
8988.00,1.03
8987.00,1.03
8986.00,1.03
8985.00,1.03
8984.00,1.03
8983.00,1.02
8982.00,1.02
8981.00,1.02
8980.00,1.02
8979.00,1.02
8978.00,1.02
8977.00,1.02
8976.00,1.02
8975.00,1.02
8974.00,1.02
8973.00,1.02
8972.00,1.02
8971.00,1.02
8970.00,1.02
8969.00,1.02
8968.00,1.02
8967.00,1.02
8966.00,1.02
8965.00,1.02
8964.00,1.03
8963.00,1.03
8962.00,1.03
8961.00,1.03
8960.00,1.03
8959.00,1.03
8958.00,1.03
8957.00,1.03
8956.00,1.03
8955.00,1.03
8954.00,1.03
8953.00,1.03
8952.00,1.03
8951.00,1.03
8950.00,1.03
8949.00,1.03
8948.00,1.03
8947.00,1.03
8946.00,1.03
8945.00,1.03
8944.00,1.03
8943.00,1.03
8942.00,1.03
8941.00,1.03
8940.00,1.03
8939.00,1.03
8938.00,1.03
8937.00,1.04
8936.00,1.04
8935.00,1.04
8934.00,1.04
8933.00,1.04
8932.00,1.04
8931.00,1.04
8930.00,1.04
8929.00,1.04
8928.00,1.04
8927.00,1.04
8926.00,1.04
8925.00,1.04
8924.00,1.04
8923.00,1.04
8922.00,1.05
8921.00,1.05
8920.00,1.05
8919.00,1.05
8918.00,1.05
8917.00,1.05
8916.00,1.05
8915.00,1.04
8914.00,1.04
8913.00,1.04
8912.00,1.04
8911.00,1.04
8910.00,1.04
8909.00,1.03
8908.00,1.03
8907.00,1.03
8906.00,1.03
8905.00,1.03
8904.00,1.02
8903.00,1.02
8902.00,1.02
8901.00,1.02
8900.00,1.02
8899.00,1.02
8898.00,1.02
8897.00,1.02
8896.00,1.02
8895.00,1.02
8894.00,1.02
8893.00,1.02
8892.00,1.03
8891.00,1.03
8890.00,1.03
8889.00,1.03
8888.00,1.03
8887.00,1.03
8886.00,1.03
8885.00,1.04
8884.00,1.04
8883.00,1.04
8882.00,1.04
8881.00,1.04
8880.00,1.04
8879.00,1.03
8878.00,1.03
8877.00,1.03
8876.00,1.03
8875.00,1.03
8874.00,1.03
8873.00,1.03
8872.00,1.03
8871.00,1.03
8870.00,1.03
8869.00,1.03
8868.00,1.03
8867.00,1.03
8866.00,1.03
8865.00,1.03
8864.00,1.03
8863.00,1.03
8862.00,1.03
8861.00,1.03
8860.00,1.03
8859.00,1.03
8858.00,1.03
8857.00,1.03
8856.00,1.03
8855.00,1.03
8854.00,1.03
8853.00,1.03
8852.00,1.03
8851.00,1.03
8850.00,1.03
8849.00,1.03
8848.00,1.03
8847.00,1.03
8846.00,1.03
8845.00,1.03
8844.00,1.03
8843.00,1.03
8842.00,1.03
8841.00,1.03
8840.00,1.03
8839.00,1.03
8838.00,1.03
8837.00,1.03
8836.00,1.03
8835.00,1.03
8834.00,1.03
8833.00,1.03
8832.00,1.03
8831.00,1.02
8830.00,1.02
8829.00,1.02
8828.00,1.02
8827.00,1.02
8826.00,1.02
8825.00,1.02
8824.00,1.01
8823.00,1.01
8822.00,1.01
8821.00,1.01
8820.00,1.01
8819.00,1.01
8818.00,1.01
8817.00,1.01
8816.00,1.01
8815.00,1.01
8814.00,1.01
8813.00,1.01
8812.00,1.01
8811.00,1.01
8810.00,1.01
8809.00,1.01
8808.00,1.01
8807.00,1.01
8806.00,1.01
8805.00,1.01
8804.00,1.01
8803.00,1.01
8802.00,1.01
8801.00,1.01
8800.00,1.01
8799.00,1.01
8798.00,1.01
8797.00,1.01
8796.00,1.01
8795.00,1.01
8794.00,1.01
8793.00,1.01
8792.00,1.01
8791.00,1.01
8790.00,1.01
8789.00,1.02
8788.00,1.02
8787.00,1.02
8786.00,1.02
8785.00,1.02
8784.00,1.02
8783.00,1.02
8782.00,1.02
8781.00,1.01
8780.00,1.01
8779.00,1.01
8778.00,1.01
8777.00,1.01
8776.00,1.01
8775.00,1.01
8774.00,1.01
8773.00,1.01
8772.00,1.01
8771.00,1.01
8770.00,1.01
8769.00,1.01
8768.00,1.01
8767.00,1.01
8766.00,1.01
8765.00,1.01
8764.00,1.01
8763.00,1.01
8762.00,1.01
8761.00,1.00
8760.00,1.00
8759.00,1.00
8758.00,1.00
8757.00,1.00
8756.00,1.00
8755.00,1.00
8754.00,1.00
8753.00,0.99
8752.00,0.99
8751.00,0.99
8750.00,0.99
8749.00,0.99
8748.00,0.99
8747.00,0.99
8746.00,0.99
8745.00,0.99
8744.00,0.99
8743.00,0.99
8742.00,0.99
8741.00,0.99
8740.00,0.99
8739.00,0.99
8738.00,0.99
8737.00,0.99
8736.00,0.99
8735.00,0.99
8734.00,0.99
8733.00,0.99
8732.00,0.99
8731.00,0.99
8730.00,0.99
8729.00,0.99
8728.00,0.99
8727.00,1.00
8726.00,1.00
8725.00,1.00
8724.00,1.00
8723.00,1.00
8722.00,1.00
8721.00,1.00
8720.00,1.00
8719.00,1.00
8718.00,1.00
8717.00,1.00
8716.00,1.00
8715.00,1.00
8714.00,1.00
8713.00,1.00
8712.00,1.00
8711.00,1.00
8710.00,1.00
8709.00,0.99
8708.00,0.99
8707.00,0.99
8706.00,0.99
8705.00,0.99
8704.00,0.99
8703.00,0.99
8702.00,0.99
8701.00,0.99
8700.00,0.99
8699.00,0.99
8698.00,0.99
8697.00,0.99
8696.00,0.99
8695.00,0.99
8694.00,0.99
8693.00,0.99
8692.00,0.99
8691.00,0.99
8690.00,0.99
8689.00,0.99
8688.00,0.99
8687.00,0.99
8686.00,0.99
8685.00,0.99
8684.00,0.99
8683.00,0.99
8682.00,0.99
8681.00,0.99
8680.00,0.99
8679.00,0.99
8678.00,0.99
8677.00,0.99
8676.00,0.99
8675.00,0.99
8674.00,0.98
8673.00,0.98
8672.00,0.98
8671.00,0.98
8670.00,0.98
8669.00,0.98
8668.00,0.98
8667.00,0.98
8666.00,0.98
8665.00,0.98
8664.00,0.98
8663.00,0.98
8662.00,0.98
8661.00,0.98
8660.00,0.98
8659.00,0.98
8658.00,0.98
8657.00,0.98
8656.00,0.98
8655.00,0.98
8654.00,0.98
8653.00,0.98
8652.00,0.98
8651.00,0.98
8650.00,0.98
8649.00,0.98
8648.00,0.98
8647.00,0.98
8646.00,0.98
8645.00,0.98
8644.00,0.98
8643.00,0.99
8642.00,0.99
8641.00,0.99
8640.00,0.99
8639.00,0.99
8638.00,0.99
8637.00,0.99
8636.00,0.99
8635.00,0.99
8634.00,0.99
8633.00,1.00
8632.00,1.00
8631.00,1.00
8630.00,1.00
8629.00,1.00
8628.00,1.00
8627.00,0.99
8626.00,0.99
8625.00,0.99
8624.00,0.99
8623.00,0.99
8622.00,0.99
8621.00,0.99
8620.00,0.99
8619.00,0.99
8618.00,0.98
8617.00,0.98
8616.00,0.98
8615.00,0.98
8614.00,0.97
8613.00,0.97
8612.00,0.97
8611.00,0.97
8610.00,0.97
8609.00,0.97
8608.00,0.97
8607.00,0.97
8606.00,0.97
8605.00,0.97
8604.00,0.97
8603.00,0.97
8602.00,0.97
8601.00,0.97
8600.00,0.97
8599.00,0.97
8598.00,0.98
8597.00,0.98
8596.00,0.98
8595.00,0.98
8594.00,0.98
8593.00,0.98
8592.00,0.98
8591.00,0.98
8590.00,0.98
8589.00,0.98
8588.00,0.98
8587.00,0.98
8586.00,0.98
8585.00,0.98
8584.00,0.98
8583.00,0.98
8582.00,0.98
8581.00,0.98
8580.00,0.98
8579.00,0.98
8578.00,0.98
8577.00,0.98
8576.00,0.98
8575.00,0.98
8574.00,0.98
8573.00,0.97
8572.00,0.97
8571.00,0.97
8570.00,0.97
8569.00,0.97
8568.00,0.97
8567.00,0.97
8566.00,0.97
8565.00,0.96
8564.00,0.96
8563.00,0.96
8562.00,0.96
8561.00,0.96
8560.00,0.96
8559.00,0.96
8558.00,0.95
8557.00,0.95
8556.00,0.95
8555.00,0.95
8554.00,0.95
8553.00,0.95
8552.00,0.95
8551.00,0.95
8550.00,0.95
8549.00,0.95
8548.00,0.95
8547.00,0.95
8546.00,0.95
8545.00,0.95
8544.00,0.95
8543.00,0.95
8542.00,0.95
8541.00,0.95
8540.00,0.95
8539.00,0.95
8538.00,0.95
8537.00,0.95
8536.00,0.95
8535.00,0.95
8534.00,0.95
8533.00,0.95
8532.00,0.95
8531.00,0.94
8530.00,0.94
8529.00,0.94
8528.00,0.94
8527.00,0.94
8526.00,0.94
8525.00,0.94
8524.00,0.94
8523.00,0.94
8522.00,0.94
8521.00,0.94
8520.00,0.94
8519.00,0.94
8518.00,0.94
8517.00,0.94
8516.00,0.94
8515.00,0.94
8514.00,0.94
8513.00,0.94
8512.00,0.94
8511.00,0.94
8510.00,0.94
8509.00,0.94
8508.00,0.94
8507.00,0.94
8506.00,0.94
8505.00,0.94
8504.00,0.94
8503.00,0.94
8502.00,0.95
8501.00,0.95
8500.00,0.95
8499.00,0.95
8498.00,0.95
8497.00,0.95
8496.00,0.95
8495.00,0.95
8494.00,0.95
8493.00,0.95
8492.00,0.95
8491.00,0.95
8490.00,0.95
8489.00,0.95
8488.00,0.94
8487.00,0.94
8486.00,0.94
8485.00,0.94
8484.00,0.94
8483.00,0.94
8482.00,0.94
8481.00,0.94
8480.00,0.94
8479.00,0.93
8478.00,0.93
8477.00,0.93
8476.00,0.93
8475.00,0.93
8474.00,0.93
8473.00,0.93
8472.00,0.93
8471.00,0.93
8470.00,0.93
8469.00,0.93
8468.00,0.93
8467.00,0.93
8466.00,0.93
8465.00,0.93
8464.00,0.93
8463.00,0.93
8462.00,0.93
8461.00,0.93
8460.00,0.93
8459.00,0.93
8458.00,0.93
8457.00,0.93
8456.00,0.93
8455.00,0.93
8454.00,0.93
8453.00,0.93
8452.00,0.93
8451.00,0.93
8450.00,0.93
8449.00,0.93
8448.00,0.93
8447.00,0.93
8446.00,0.93
8445.00,0.93
8444.00,0.93
8443.00,0.93
8442.00,0.93
8441.00,0.93
8440.00,0.93
8439.00,0.93
8438.00,0.93
8437.00,0.93
8436.00,0.93
8435.00,0.93
8434.00,0.93
8433.00,0.93
8432.00,0.93
8431.00,0.92
8430.00,0.92
8429.00,0.92
8428.00,0.92
8427.00,0.92
8426.00,0.92
8425.00,0.92
8424.00,0.92
8423.00,0.92
8422.00,0.92
8421.00,0.92
8420.00,0.92
8419.00,0.92
8418.00,0.92
8417.00,0.92
8416.00,0.92
8415.00,0.92
8414.00,0.92
8413.00,0.92
8412.00,0.92
8411.00,0.92
8410.00,0.92
8409.00,0.92
8408.00,0.92
8407.00,0.92
8406.00,0.92
8405.00,0.92
8404.00,0.92
8403.00,0.92
8402.00,0.92
8401.00,0.92
8400.00,0.92
8399.00,0.92
8398.00,0.92
8397.00,0.92
8396.00,0.92
8395.00,0.92
8394.00,0.92
8393.00,0.92
8392.00,0.92
8391.00,0.92
8390.00,0.92
8389.00,0.92
8388.00,0.92
8387.00,0.92
8386.00,0.92
8385.00,0.92
8384.00,0.92
8383.00,0.92
8382.00,0.92
8381.00,0.93
8380.00,0.93
8379.00,0.93
8378.00,0.93
8377.00,0.93
8376.00,0.93
8375.00,0.93
8374.00,0.93
8373.00,0.93
8372.00,0.93
8371.00,0.93
8370.00,0.93
8369.00,0.93
8368.00,0.93
8367.00,0.93
8366.00,0.93
8365.00,0.93
8364.00,0.93
8363.00,0.93
8362.00,0.93
8361.00,0.93
8360.00,0.94
8359.00,0.94
8358.00,0.94
8357.00,0.94
8356.00,0.94
8355.00,0.94
8354.00,0.94
8353.00,0.95
8352.00,0.95
8351.00,0.95
8350.00,0.95
8349.00,0.95
8348.00,0.95
8347.00,0.95
8346.00,0.95
8345.00,0.95
8344.00,0.95
8343.00,0.95
8342.00,0.95
8341.00,0.95
8340.00,0.95
8339.00,0.95
8338.00,0.95
8337.00,0.95
8336.00,0.95
8335.00,0.95
8334.00,0.96
8333.00,0.96
8332.00,0.96
8331.00,0.96
8330.00,0.96
8329.00,0.96
8328.00,0.96
8327.00,0.96
8326.00,0.96
8325.00,0.96
8324.00,0.96
8323.00,0.95
8322.00,0.95
8321.00,0.95
8320.00,0.95
8319.00,0.95
8318.00,0.95
8317.00,0.95
8316.00,0.95
8315.00,0.95
8314.00,0.95
8313.00,0.95
8312.00,0.95
8311.00,0.94
8310.00,0.94
8309.00,0.94
8308.00,0.94
8307.00,0.94
8306.00,0.94
8305.00,0.94
8304.00,0.94
8303.00,0.94
8302.00,0.94
8301.00,0.94
8300.00,0.94
8299.00,0.94
8298.00,0.94
8297.00,0.94
8296.00,0.94
8295.00,0.94
8294.00,0.94
8293.00,0.94
8292.00,0.95
8291.00,0.95
8290.00,0.95
8289.00,0.95
8288.00,0.95
8287.00,0.95
8286.00,0.95
8285.00,0.95
8284.00,0.95
8283.00,0.95
8282.00,0.96
8281.00,0.96
8280.00,0.96
8279.00,0.96
8278.00,0.96
8277.00,0.96
8276.00,0.96
8275.00,0.96
8274.00,0.96
8273.00,0.96
8272.00,0.96
8271.00,0.96
8270.00,0.96
8269.00,0.96
8268.00,0.96
8267.00,0.96
8266.00,0.96
8265.00,0.96
8264.00,0.96
8263.00,0.96
8262.00,0.96
8261.00,0.96
8260.00,0.96
8259.00,0.96
8258.00,0.96
8257.00,0.96
8256.00,0.96
8255.00,0.96
8254.00,0.96
8253.00,0.96
8252.00,0.96
8251.00,0.96
8250.00,0.96
8249.00,0.96
8248.00,0.96
8247.00,0.96
8246.00,0.96
8245.00,0.96
8244.00,0.96
8243.00,0.96
8242.00,0.96
8241.00,0.96
8240.00,0.96
8239.00,0.96
8238.00,0.96
8237.00,0.96
8236.00,0.96
8235.00,0.96
8234.00,0.96
8233.00,0.96
8232.00,0.96
8231.00,0.96
8230.00,0.96
8229.00,0.96
8228.00,0.96
8227.00,0.96
8226.00,0.96
8225.00,0.96
8224.00,0.96
8223.00,0.96
8222.00,0.97
8221.00,0.97
8220.00,0.97
8219.00,0.97
8218.00,0.97
8217.00,0.97
8216.00,0.97
8215.00,0.97
8214.00,0.97
8213.00,0.97
8212.00,0.97
8211.00,0.97
8210.00,0.97
8209.00,0.97
8208.00,0.97
8207.00,0.97
8206.00,0.97
8205.00,0.97
8204.00,0.97
8203.00,0.97
8202.00,0.97
8201.00,0.97
8200.00,0.97
8199.00,0.97
8198.00,0.97
8197.00,0.97
8196.00,0.97
8195.00,0.97
8194.00,0.97
8193.00,0.97
8192.00,0.97
8191.00,0.97
8190.00,0.97
8189.00,0.97
8188.00,0.97
8187.00,0.97
8186.00,0.97
8185.00,0.97
8184.00,0.97
8183.00,0.97
8182.00,0.98
8181.00,0.98
8180.00,0.98
8179.00,0.98
8178.00,0.98
8177.00,0.98
8176.00,0.98
8175.00,0.98
8174.00,0.98
8173.00,0.98
8172.00,0.98
8171.00,0.98
8170.00,0.98
8169.00,0.98
8168.00,0.98
8167.00,0.98
8166.00,0.98
8165.00,0.98
8164.00,0.98
8163.00,0.98
8162.00,0.98
8161.00,0.98
8160.00,0.98
8159.00,0.98
8158.00,0.98
8157.00,0.98
8156.00,0.98
8155.00,0.98
8154.00,0.98
8153.00,0.98
8152.00,0.98
8151.00,0.99
8150.00,0.99
8149.00,0.99
8148.00,0.99
8147.00,0.99
8146.00,0.99
8145.00,0.99
8144.00,0.99
8143.00,0.99
8142.00,0.99
8141.00,0.99
8140.00,0.99
8139.00,0.99
8138.00,0.99
8137.00,0.99
8136.00,0.99
8135.00,0.99
8134.00,0.99
8133.00,0.99
8132.00,0.99
8131.00,0.99
8130.00,0.99
8129.00,0.99
8128.00,0.99
8127.00,0.99
8126.00,0.99
8125.00,0.99
8124.00,0.99
8123.00,0.99
8122.00,1.00
8121.00,1.00
8120.00,1.00
8119.00,1.00
8118.00,1.00
8117.00,1.00
8116.00,1.00
8115.00,1.00
8114.00,1.00
8113.00,1.00
8112.00,1.00
8111.00,1.00
8110.00,1.01
8109.00,1.01
8108.00,1.01
8107.00,1.01
8106.00,1.01
8105.00,1.01
8104.00,1.01
8103.00,1.01
8102.00,1.01
8101.00,1.01
8100.00,1.01
8099.00,1.01
8098.00,1.01
8097.00,1.01
8096.00,1.01
8095.00,1.01
8094.00,1.01
8093.00,1.01
8092.00,1.01
8091.00,1.01
8090.00,1.01
8089.00,1.01
8088.00,1.01
8087.00,1.01
8086.00,1.01
8085.00,1.01
8084.00,1.01
8083.00,1.01
8082.00,1.00
8081.00,1.00
8080.00,1.00
8079.00,1.00
8078.00,1.00
8077.00,1.00
8076.00,1.00
8075.00,1.00
8074.00,1.00
8073.00,1.00
8072.00,1.00
8071.00,1.00
8070.00,1.00
8069.00,1.00
8068.00,1.00
8067.00,1.00
8066.00,1.00
8065.00,1.00
8064.00,1.00
8063.00,1.00
8062.00,1.00
8061.00,1.00
8060.00,1.00
8059.00,1.00
8058.00,1.01
8057.00,1.01
8056.00,1.01
8055.00,1.01
8054.00,1.01
8053.00,1.01
8052.00,1.01
8051.00,1.01
8050.00,1.01
8049.00,1.01
8048.00,1.01
8047.00,1.02
8046.00,1.02
8045.00,1.02
8044.00,1.02
8043.00,1.02
8042.00,1.02
8041.00,1.02
8040.00,1.02
8039.00,1.02
8038.00,1.02
8037.00,1.01
8036.00,1.01
8035.00,1.01
8034.00,1.01
8033.00,1.01
8032.00,1.01
8031.00,1.01
8030.00,1.01
8029.00,1.01
8028.00,1.01
8027.00,1.01
8026.00,1.01
8025.00,1.01
8024.00,1.01
8023.00,1.01
8022.00,1.01
8021.00,1.01
8020.00,1.01
8019.00,1.01
8018.00,1.01
8017.00,1.02
8016.00,1.02
8015.00,1.02
8014.00,1.02
8013.00,1.02
8012.00,1.02
8011.00,1.02
8010.00,1.02
8009.00,1.02
8008.00,1.02
8007.00,1.02
8006.00,1.02
8005.00,1.02
8004.00,1.02
8003.00,1.02
8002.00,1.02
8001.00,1.02
8000.00,1.02
7999.00,1.02
7998.00,1.02
7997.00,1.02
7996.00,1.02
7995.00,1.02
7994.00,1.02
7993.00,1.02
7992.00,1.02
7991.00,1.02
7990.00,1.02
7989.00,1.02
7988.00,1.02
7987.00,1.02
7986.00,1.02
7985.00,1.02
7984.00,1.02
7983.00,1.02
7982.00,1.02
7981.00,1.02
7980.00,1.02
7979.00,1.02
7978.00,1.03
7977.00,1.03
7976.00,1.03
7975.00,1.03
7974.00,1.03
7973.00,1.03
7972.00,1.03
7971.00,1.03
7970.00,1.03
7969.00,1.03
7968.00,1.03
7967.00,1.03
7966.00,1.02
7965.00,1.02
7964.00,1.02
7963.00,1.02
7962.00,1.02
7961.00,1.02
7960.00,1.02
7959.00,1.02
7958.00,1.02
7957.00,1.02
7956.00,1.02
7955.00,1.02
7954.00,1.02
7953.00,1.02
7952.00,1.02
7951.00,1.02
7950.00,1.02
7949.00,1.02
7948.00,1.02
7947.00,1.02
7946.00,1.02
7945.00,1.02
7944.00,1.02
7943.00,1.02
7942.00,1.02
7941.00,1.02
7940.00,1.02
7939.00,1.02
7938.00,1.02
7937.00,1.02
7936.00,1.02
7935.00,1.02
7934.00,1.03
7933.00,1.03
7932.00,1.03
7931.00,1.03
7930.00,1.03
7929.00,1.03
7928.00,1.03
7927.00,1.03
7926.00,1.03
7925.00,1.03
7924.00,1.03
7923.00,1.03
7922.00,1.03
7921.00,1.03
7920.00,1.03
7919.00,1.03
7918.00,1.03
7917.00,1.03
7916.00,1.03
7915.00,1.03
7914.00,1.03
7913.00,1.03
7912.00,1.03
7911.00,1.03
7910.00,1.03
7909.00,1.04
7908.00,1.04
7907.00,1.04
7906.00,1.04
7905.00,1.04
7904.00,1.04
7903.00,1.04
7902.00,1.04
7901.00,1.04
7900.00,1.04
7899.00,1.04
7898.00,1.04
7897.00,1.04
7896.00,1.04
7895.00,1.04
7894.00,1.04
7893.00,1.04
7892.00,1.04
7891.00,1.04
7890.00,1.04
7889.00,1.04
7888.00,1.04
7887.00,1.04
7886.00,1.04
7885.00,1.04
7884.00,1.03
7883.00,1.03
7882.00,1.03
7881.00,1.03
7880.00,1.03
7879.00,1.03
7878.00,1.03
7877.00,1.03
7876.00,1.03
7875.00,1.03
7874.00,1.03
7873.00,1.03
7872.00,1.03
7871.00,1.03
7870.00,1.03
7869.00,1.03
7868.00,1.04
7867.00,1.04
7866.00,1.04
7865.00,1.04
7864.00,1.04
7863.00,1.04
7862.00,1.04
7861.00,1.04
7860.00,1.04
7859.00,1.04
7858.00,1.04
7857.00,1.04
7856.00,1.04
7855.00,1.04
7854.00,1.04
7853.00,1.04
7852.00,1.04
7851.00,1.04
7850.00,1.04
7849.00,1.04
7848.00,1.04
7847.00,1.04
7846.00,1.04
7845.00,1.04
7844.00,1.04
7843.00,1.04
7842.00,1.04
7841.00,1.04
7840.00,1.04
7839.00,1.04
7838.00,1.04
7837.00,1.04
7836.00,1.04
7835.00,1.04
7834.00,1.04
7833.00,1.04
7832.00,1.04
7831.00,1.04
7830.00,1.04
7829.00,1.04
7828.00,1.04
7827.00,1.04
7826.00,1.04
7825.00,1.04
7824.00,1.04
7823.00,1.04
7822.00,1.04
7821.00,1.04
7820.00,1.04
7819.00,1.04
7818.00,1.04
7817.00,1.04
7816.00,1.04
7815.00,1.04
7814.00,1.04
7813.00,1.04
7812.00,1.04
7811.00,1.04
7810.00,1.04
7809.00,1.04
7808.00,1.04
7807.00,1.04
7806.00,1.04
7805.00,1.04
7804.00,1.04
7803.00,1.04
7802.00,1.04
7801.00,1.04
7800.00,1.04
7799.00,1.04
7798.00,1.04
7797.00,1.04
7796.00,1.04
7795.00,1.04
7794.00,1.04
7793.00,1.04
7792.00,1.04
7791.00,1.05
7790.00,1.05
7789.00,1.05
7788.00,1.05
7787.00,1.05
7786.00,1.05
7785.00,1.05
7784.00,1.05
7783.00,1.05
7782.00,1.05
7781.00,1.05
7780.00,1.05
7779.00,1.05
7778.00,1.05
7777.00,1.04
7776.00,1.04
7775.00,1.04
7774.00,1.04
7773.00,1.04
7772.00,1.04
7771.00,1.04
7770.00,1.04
7769.00,1.04
7768.00,1.04
7767.00,1.04
7766.00,1.04
7765.00,1.04
7764.00,1.05
7763.00,1.05
7762.00,1.05
7761.00,1.05
7760.00,1.05
7759.00,1.05
7758.00,1.05
7757.00,1.05
7756.00,1.05
7755.00,1.05
7754.00,1.05
7753.00,1.05
7752.00,1.05
7751.00,1.05
7750.00,1.05
7749.00,1.05
7748.00,1.05
7747.00,1.05
7746.00,1.05
7745.00,1.05
7744.00,1.05
7743.00,1.05
7742.00,1.04
7741.00,1.04
7740.00,1.04
7739.00,1.04
7738.00,1.04
7737.00,1.04
7736.00,1.04
7735.00,1.04
7734.00,1.04
7733.00,1.04
7732.00,1.04
7731.00,1.04
7730.00,1.04
7729.00,1.04
7728.00,1.04
7727.00,1.04
7726.00,1.04
7725.00,1.04
7724.00,1.04
7723.00,1.04
7722.00,1.04
7721.00,1.04
7720.00,1.04
7719.00,1.04
7718.00,1.04
7717.00,1.04
7716.00,1.04
7715.00,1.05
7714.00,1.05
7713.00,1.05
7712.00,1.05
7711.00,1.05
7710.00,1.05
7709.00,1.05
7708.00,1.05
7707.00,1.05
7706.00,1.05
7705.00,1.05
7704.00,1.05
7703.00,1.05
7702.00,1.05
7701.00,1.05
7700.00,1.05
7699.00,1.05
7698.00,1.05
7697.00,1.05
7696.00,1.05
7695.00,1.05
7694.00,1.05
7693.00,1.05
7692.00,1.05
7691.00,1.05
7690.00,1.05
7689.00,1.05
7688.00,1.05
7687.00,1.05
7686.00,1.05
7685.00,1.05
7684.00,1.05
7683.00,1.05
7682.00,1.05
7681.00,1.05
7680.00,1.05
7679.00,1.05
7678.00,1.05
7677.00,1.05
7676.00,1.05
7675.00,1.05
7674.00,1.05
7673.00,1.05
7672.00,1.05
7671.00,1.05
7670.00,1.05
7669.00,1.04
7668.00,1.04
7667.00,1.04
7666.00,1.04
7665.00,1.04
7664.00,1.04
7663.00,1.04
7662.00,1.04
7661.00,1.04
7660.00,1.04
7659.00,1.04
7658.00,1.04
7657.00,1.04
7656.00,1.04
7655.00,1.04
7654.00,1.04
7653.00,1.04
7652.00,1.04
7651.00,1.04
7650.00,1.04
7649.00,1.04
7648.00,1.04
7647.00,1.04
7646.00,1.04
7645.00,1.04
7644.00,1.04
7643.00,1.04
7642.00,1.04
7641.00,1.04
7640.00,1.04
7639.00,1.04
7638.00,1.04
7637.00,1.04
7636.00,1.05
7635.00,1.05
7634.00,1.05
7633.00,1.05
7632.00,1.05
7631.00,1.05
7630.00,1.04
7629.00,1.04
7628.00,1.04
7627.00,1.04
7626.00,1.04
7625.00,1.04
7624.00,1.04
7623.00,1.04
7622.00,1.04
7621.00,1.04
7620.00,1.04
7619.00,1.04
7618.00,1.04
7617.00,1.04
7616.00,1.04
7615.00,1.04
7614.00,1.04
7613.00,1.04
7612.00,1.05
7611.00,1.05
7610.00,1.05
7609.00,1.05
7608.00,1.05
7607.00,1.05
7606.00,1.05
7605.00,1.05
7604.00,1.05
7603.00,1.05
7602.00,1.05
7601.00,1.05
7600.00,1.05
7599.00,1.04
7598.00,1.04
7597.00,1.04
7596.00,1.04
7595.00,1.04
7594.00,1.04
7593.00,1.04
7592.00,1.04
7591.00,1.04
7590.00,1.04
7589.00,1.04
7588.00,1.04
7587.00,1.04
7586.00,1.04
7585.00,1.04
7584.00,1.04
7583.00,1.04
7582.00,1.04
7581.00,1.04
7580.00,1.04
7579.00,1.04
7578.00,1.04
7577.00,1.04
7576.00,1.04
7575.00,1.04
7574.00,1.04
7573.00,1.04
7572.00,1.04
7571.00,1.04
7570.00,1.04
7569.00,1.04
7568.00,1.04
7567.00,1.04
7566.00,1.04
7565.00,1.04
7564.00,1.04
7563.00,1.04
7562.00,1.04
7561.00,1.04
7560.00,1.04
7559.00,1.04
7558.00,1.04
7557.00,1.04
7556.00,1.04
7555.00,1.04
7554.00,1.04
7553.00,1.04
7552.00,1.04
7551.00,1.04
7550.00,1.04
7549.00,1.04
7548.00,1.04
7547.00,1.04
7546.00,1.04
7545.00,1.04
7544.00,1.04
7543.00,1.04
7542.00,1.04
7541.00,1.04
7540.00,1.04
7539.00,1.04
7538.00,1.04
7537.00,1.04
7536.00,1.04
7535.00,1.04
7534.00,1.04
7533.00,1.04
7532.00,1.04
7531.00,1.04
7530.00,1.04
7529.00,1.04
7528.00,1.04
7527.00,1.04
7526.00,1.04
7525.00,1.04
7524.00,1.04
7523.00,1.04
7522.00,1.04
7521.00,1.04
7520.00,1.04
7519.00,1.04
7518.00,1.04
7517.00,1.04
7516.00,1.04
7515.00,1.04
7514.00,1.04
7513.00,1.04
7512.00,1.04
7511.00,1.04
7510.00,1.04
7509.00,1.03
7508.00,1.03
7507.00,1.03
7506.00,1.03
7505.00,1.03
7504.00,1.03
7503.00,1.03
7502.00,1.03
7501.00,1.03
7500.00,1.03
7499.00,1.03
7498.00,1.03
7497.00,1.03
7496.00,1.03
7495.00,1.03
7494.00,1.03
7493.00,1.03
7492.00,1.03
7491.00,1.03
7490.00,1.03
7489.00,1.03
7488.00,1.03
7487.00,1.02
7486.00,1.02
7485.00,1.02
7484.00,1.02
7483.00,1.02
7482.00,1.02
7481.00,1.02
7480.00,1.02
7479.00,1.02
7478.00,1.02
7477.00,1.02
7476.00,1.02
7475.00,1.02
7474.00,1.02
7473.00,1.02
7472.00,1.02
7471.00,1.02
7470.00,1.02
7469.00,1.02
7468.00,1.02
7467.00,1.02
7466.00,1.02
7465.00,1.02
7464.00,1.02
7463.00,1.02
7462.00,1.02
7461.00,1.02
7460.00,1.02
7459.00,1.02
7458.00,1.02
7457.00,1.02
7456.00,1.02
7455.00,1.02
7454.00,1.02
7453.00,1.02
7452.00,1.02
7451.00,1.02
7450.00,1.02
7449.00,1.02
7448.00,1.02
7447.00,1.02
7446.00,1.02
7445.00,1.02
7444.00,1.02
7443.00,1.02
7442.00,1.02
7441.00,1.01
7440.00,1.01
7439.00,1.01
7438.00,1.01
7437.00,1.01
7436.00,1.01
7435.00,1.01
7434.00,1.01
7433.00,1.01
7432.00,1.01
7431.00,1.01
7430.00,1.01
7429.00,1.01
7428.00,1.01
7427.00,1.01
7426.00,1.01
7425.00,1.01
7424.00,1.01
7423.00,1.00
7422.00,1.00
7421.00,1.00
7420.00,1.00
7419.00,1.00
7418.00,1.00
7417.00,1.00
7416.00,1.00
7415.00,1.00
7414.00,1.00
7413.00,1.00
7412.00,1.00
7411.00,1.00
7410.00,1.00
7409.00,1.00
7408.00,0.99
7407.00,0.99
7406.00,0.99
7405.00,0.99
7404.00,0.99
7403.00,0.99
7402.00,0.99
7401.00,0.99
7400.00,0.98
7399.00,0.98
7398.00,0.98
7397.00,0.98
7396.00,0.98
7395.00,0.98
7394.00,0.98
7393.00,0.98
7392.00,0.98
7391.00,0.97
7390.00,0.97
7389.00,0.97
7388.00,0.97
7387.00,0.97
7386.00,0.97
7385.00,0.97
7384.00,0.97
7383.00,0.97
7382.00,0.97
7381.00,0.96
7380.00,0.96
7379.00,0.96
7378.00,0.96
7377.00,0.96
7376.00,0.96
7375.00,0.96
7374.00,0.96
7373.00,0.96
7372.00,0.96
7371.00,0.96
7370.00,0.96
7369.00,0.96
7368.00,0.96
7367.00,0.96
7366.00,0.96
7365.00,0.96
7364.00,0.96
7363.00,0.96
7362.00,0.96
7361.00,0.96
7360.00,0.96
7359.00,0.96
7358.00,0.96
7357.00,0.96
7356.00,0.96
7355.00,0.96
7354.00,0.96
7353.00,0.96
7352.00,0.95
7351.00,0.95
7350.00,0.95
7349.00,0.95
7348.00,0.95
7347.00,0.95
7346.00,0.95
7345.00,0.95
7344.00,0.95
7343.00,0.95
7342.00,0.95
7341.00,0.95
7340.00,0.95
7339.00,0.95
7338.00,0.95
7337.00,0.95
7336.00,0.95
7335.00,0.95
7334.00,0.95
7333.00,0.95
7332.00,0.95
7331.00,0.95
7330.00,0.95
7329.00,0.95
7328.00,0.95
7327.00,0.95
7326.00,0.95
7325.00,0.95
7324.00,0.95
7323.00,0.95
7322.00,0.95
7321.00,0.95
7320.00,0.95
7319.00,0.95
7318.00,0.95
7317.00,0.94
7316.00,0.94
7315.00,0.94
7314.00,0.94
7313.00,0.94
7312.00,0.94
7311.00,0.94
7310.00,0.94
7309.00,0.94
7308.00,0.94
7307.00,0.94
7306.00,0.94
7305.00,0.94
7304.00,0.94
7303.00,0.94
7302.00,0.94
7301.00,0.94
7300.00,0.94
7299.00,0.94
7298.00,0.94
7297.00,0.94
7296.00,0.94
7295.00,0.94
7294.00,0.94
7293.00,0.93
7292.00,0.93
7291.00,0.93
7290.00,0.93
7289.00,0.93
7288.00,0.93
7287.00,0.93
7286.00,0.93
7285.00,0.93
7284.00,0.93
7283.00,0.92
7282.00,0.92
7281.00,0.92
7280.00,0.92
7279.00,0.92
7278.00,0.92
7277.00,0.92
7276.00,0.91
7275.00,0.91
7274.00,0.91
7273.00,0.91
7272.00,0.91
7271.00,0.91
7270.00,0.91
7269.00,0.91
7268.00,0.91
7267.00,0.91
7266.00,0.91
7265.00,0.91
7264.00,0.91
7263.00,0.91
7262.00,0.91
7261.00,0.91
7260.00,0.91
7259.00,0.91
7258.00,0.90
7257.00,0.90
7256.00,0.90
7255.00,0.90
7254.00,0.90
7253.00,0.90
7252.00,0.90
7251.00,0.90
7250.00,0.90
7249.00,0.90
7248.00,0.89
7247.00,0.89
7246.00,0.89
7245.00,0.89
7244.00,0.89
7243.00,0.89
7242.00,0.88
7241.00,0.88
7240.00,0.88
7239.00,0.88
7238.00,0.88
7237.00,0.87
7236.00,0.87
7235.00,0.87
7234.00,0.87
7233.00,0.86
7232.00,0.86
7231.00,0.86
7230.00,0.86
7229.00,0.86
7228.00,0.85
7227.00,0.85
7226.00,0.85
7225.00,0.85
7224.00,0.84
7223.00,0.84
7222.00,0.84
7221.00,0.84
7220.00,0.84
7219.00,0.83
7218.00,0.83
7217.00,0.83
7216.00,0.83
7215.00,0.82
7214.00,0.82
7213.00,0.82
7212.00,0.82
7211.00,0.82
7210.00,0.81
7209.00,0.81
7208.00,0.81
7207.00,0.81
7206.00,0.80
7205.00,0.80
7204.00,0.80
7203.00,0.80
7202.00,0.79
7201.00,0.79
7200.00,0.79
7199.00,0.79
7198.00,0.79
7197.00,0.78
7196.00,0.78
7195.00,0.78
7194.00,0.78
7193.00,0.78
7192.00,0.77
7191.00,0.77
7190.00,0.77
7189.00,0.77
7188.00,0.77
7187.00,0.76
7186.00,0.76
7185.00,0.76
7184.00,0.76
7183.00,0.75
7182.00,0.75
7181.00,0.75
7180.00,0.75
7179.00,0.74
7178.00,0.74
7177.00,0.74
7176.00,0.74
7175.00,0.74
7174.00,0.73
7173.00,0.73
7172.00,0.73
7171.00,0.73
7170.00,0.73
7169.00,0.72
7168.00,0.72
7167.00,0.72
7166.00,0.72
7165.00,0.72
7164.00,0.71
7163.00,0.71
7162.00,0.71
7161.00,0.71
7160.00,0.71
7159.00,0.71
7158.00,0.70
7157.00,0.70
7156.00,0.70
7155.00,0.70
7154.00,0.70
7153.00,0.69
7152.00,0.69
7151.00,0.69
7150.00,0.69
7149.00,0.69
7148.00,0.69
7147.00,0.69
7146.00,0.68
7145.00,0.68
7144.00,0.68
7143.00,0.68
7142.00,0.68
7141.00,0.68
7140.00,0.67
7139.00,0.67
7138.00,0.67
7137.00,0.67
7136.00,0.67
7135.00,0.67
7134.00,0.66
7133.00,0.66
7132.00,0.66
7131.00,0.66
7130.00,0.66
7129.00,0.66
7128.00,0.65
7127.00,0.65
7126.00,0.65
7125.00,0.65
7124.00,0.65
7123.00,0.64
7122.00,0.64
7121.00,0.64
7120.00,0.64
7119.00,0.64
7118.00,0.63
7117.00,0.63
7116.00,0.63
7115.00,0.63
7114.00,0.63
7113.00,0.63
7112.00,0.62
7111.00,0.62
7110.00,0.62
7109.00,0.62
7108.00,0.62
7107.00,0.62
7106.00,0.61
7105.00,0.61
7104.00,0.61
7103.00,0.61
7102.00,0.61
7101.00,0.61
7100.00,0.60
7099.00,0.60
7098.00,0.60
7097.00,0.60
7096.00,0.60
7095.00,0.60
7094.00,0.60
7093.00,0.60
7092.00,0.60
7091.00,0.59
7090.00,0.59
7089.00,0.59
7088.00,0.59
7087.00,0.59
7086.00,0.59
7085.00,0.59
7084.00,0.58
7083.00,0.58
7082.00,0.58
7081.00,0.58
7080.00,0.58
7079.00,0.58
7078.00,0.57
7077.00,0.57
7076.00,0.57
7075.00,0.57
7074.00,0.57
7073.00,0.57
7072.00,0.56
7071.00,0.56
7070.00,0.56
7069.00,0.56
7068.00,0.56
7067.00,0.56
7066.00,0.56
7065.00,0.56
7064.00,0.56
7063.00,0.56
7062.00,0.56
7061.00,0.56
7060.00,0.56
7059.00,0.56
7058.00,0.56
7057.00,0.55
7056.00,0.55
7055.00,0.55
7054.00,0.55
7053.00,0.55
7052.00,0.55
7051.00,0.55
7050.00,0.55
7049.00,0.55
7048.00,0.55
7047.00,0.54
7046.00,0.54
7045.00,0.54
7044.00,0.54
7043.00,0.54
7042.00,0.54
7041.00,0.54
7040.00,0.54
7039.00,0.53
7038.00,0.53
7037.00,0.53
7036.00,0.53
7035.00,0.53
7034.00,0.53
7033.00,0.53
7032.00,0.53
7031.00,0.53
7030.00,0.53
7029.00,0.53
7028.00,0.53
7027.00,0.53
7026.00,0.53
7025.00,0.53
7024.00,0.53
7023.00,0.53
7022.00,0.53
7021.00,0.53
7020.00,0.53
7019.00,0.53
7018.00,0.53
7017.00,0.53
7016.00,0.53
7015.00,0.53
7014.00,0.52
7013.00,0.52
7012.00,0.52
7011.00,0.52
7010.00,0.52
7009.00,0.52
7008.00,0.52
7007.00,0.52
7006.00,0.52
7005.00,0.52
7004.00,0.51
7003.00,0.51
7002.00,0.51
7001.00,0.51
7000.00,0.51
6999.00,0.51
6998.00,0.51
6997.00,0.51
6996.00,0.50
6995.00,0.50
6994.00,0.50
6993.00,0.50
6992.00,0.50
6991.00,0.50
6990.00,0.50
6989.00,0.50
6988.00,0.50
6987.00,0.50
6986.00,0.50
6985.00,0.50
6984.00,0.50
6983.00,0.50
6982.00,0.50
6981.00,0.50
6980.00,0.50
6979.00,0.49
6978.00,0.49
6977.00,0.49
6976.00,0.49
6975.00,0.49
6974.00,0.49
6973.00,0.49
6972.00,0.49
6971.00,0.49
6970.00,0.49
6969.00,0.49
6968.00,0.49
6967.00,0.49
6966.00,0.49
6965.00,0.49
6964.00,0.49
6963.00,0.49
6962.00,0.49
6961.00,0.49
6960.00,0.49
6959.00,0.49
6958.00,0.49
6957.00,0.49
6956.00,0.49
6955.00,0.49
6954.00,0.49
6953.00,0.49
6952.00,0.49
6951.00,0.49
6950.00,0.49
6949.00,0.49
6948.00,0.49
6947.00,0.49
6946.00,0.49
6945.00,0.49
6944.00,0.49
6943.00,0.49
6942.00,0.49
6941.00,0.49
6940.00,0.49
6939.00,0.49
6938.00,0.49
6937.00,0.49
6936.00,0.49
6935.00,0.49
6934.00,0.48
6933.00,0.48
6932.00,0.48
6931.00,0.48
6930.00,0.48
6929.00,0.48
6928.00,0.48
6927.00,0.48
6926.00,0.48
6925.00,0.48
6924.00,0.48
6923.00,0.48
6922.00,0.48
6921.00,0.48
6920.00,0.48
6919.00,0.48
6918.00,0.48
6917.00,0.48
6916.00,0.48
6915.00,0.48
6914.00,0.48
6913.00,0.48
6912.00,0.48
6911.00,0.48
6910.00,0.48
6909.00,0.48
6908.00,0.48
6907.00,0.48
6906.00,0.48
6905.00,0.48
6904.00,0.48
6903.00,0.48
6902.00,0.48
6901.00,0.48
6900.00,0.48
6899.00,0.48
6898.00,0.48
6897.00,0.48
6896.00,0.48
6895.00,0.48
6894.00,0.48
6893.00,0.48
6892.00,0.48
6891.00,0.48
6890.00,0.48
6889.00,0.48
6888.00,0.48
6887.00,0.48
6886.00,0.48
6885.00,0.48
6884.00,0.48
6883.00,0.48
6882.00,0.48
6881.00,0.48
6880.00,0.48
6879.00,0.48
6878.00,0.48
6877.00,0.48
6876.00,0.48
6875.00,0.47
6874.00,0.47
6873.00,0.47
6872.00,0.47
6871.00,0.47
6870.00,0.47
6869.00,0.47
6868.00,0.47
6867.00,0.47
6866.00,0.47
6865.00,0.47
6864.00,0.47
6863.00,0.47
6862.00,0.47
6861.00,0.47
6860.00,0.47
6859.00,0.47
6858.00,0.47
6857.00,0.47
6856.00,0.47
6855.00,0.47
6854.00,0.48
6853.00,0.48
6852.00,0.48
6851.00,0.48
6850.00,0.48
6849.00,0.48
6848.00,0.48
6847.00,0.48
6846.00,0.48
6845.00,0.48
6844.00,0.48
6843.00,0.48
6842.00,0.48
6841.00,0.48
6840.00,0.47
6839.00,0.47
6838.00,0.47
6837.00,0.47
6836.00,0.47
6835.00,0.47
6834.00,0.47
6833.00,0.47
6832.00,0.47
6831.00,0.47
6830.00,0.47
6829.00,0.47
6828.00,0.47
6827.00,0.47
6826.00,0.47
6825.00,0.47
6824.00,0.48
6823.00,0.48
6822.00,0.48
6821.00,0.48
6820.00,0.48
6819.00,0.48
6818.00,0.48
6817.00,0.48
6816.00,0.48
6815.00,0.48
6814.00,0.48
6813.00,0.48
6812.00,0.48
6811.00,0.48
6810.00,0.48
6809.00,0.48
6808.00,0.48
6807.00,0.48
6806.00,0.48
6805.00,0.48
6804.00,0.48
6803.00,0.48
6802.00,0.48
6801.00,0.48
6800.00,0.48
6799.00,0.48
6798.00,0.48
6797.00,0.48
6796.00,0.48
6795.00,0.48
6794.00,0.48
6793.00,0.48
6792.00,0.48
6791.00,0.48
6790.00,0.48
6789.00,0.48
6788.00,0.48
6787.00,0.48
6786.00,0.48
6785.00,0.48
6784.00,0.48
6783.00,0.48
6782.00,0.48
6781.00,0.49
6780.00,0.49
6779.00,0.49
6778.00,0.49
6777.00,0.49
6776.00,0.49
6775.00,0.49
6774.00,0.49
6773.00,0.49
6772.00,0.49
6771.00,0.49
6770.00,0.49
6769.00,0.49
6768.00,0.49
6767.00,0.49
6766.00,0.49
6765.00,0.49
6764.00,0.49
6763.00,0.49
6762.00,0.49
6761.00,0.50
6760.00,0.50
6759.00,0.50
6758.00,0.50
6757.00,0.50
6756.00,0.50
6755.00,0.50
6754.00,0.50
6753.00,0.50
6752.00,0.50
6751.00,0.50
6750.00,0.50
6749.00,0.50
6748.00,0.50
6747.00,0.50
6746.00,0.50
6745.00,0.50
6744.00,0.50
6743.00,0.50
6742.00,0.51
6741.00,0.51
6740.00,0.51
6739.00,0.51
6738.00,0.51
6737.00,0.51
6736.00,0.51
6735.00,0.51
6734.00,0.51
6733.00,0.51
6732.00,0.51
6731.00,0.51
6730.00,0.51
6729.00,0.51
6728.00,0.51
6727.00,0.51
6726.00,0.51
6725.00,0.51
6724.00,0.51
6723.00,0.51
6722.00,0.51
6721.00,0.51
6720.00,0.51
6719.00,0.51
6718.00,0.52
6717.00,0.52
6716.00,0.52
6715.00,0.52
6714.00,0.52
6713.00,0.52
6712.00,0.52
6711.00,0.52
6710.00,0.52
6709.00,0.52
6708.00,0.52
6707.00,0.52
6706.00,0.52
6705.00,0.52
6704.00,0.52
6703.00,0.52
6702.00,0.52
6701.00,0.52
6700.00,0.52
6699.00,0.52
6698.00,0.52
6697.00,0.53
6696.00,0.53
6695.00,0.53
6694.00,0.53
6693.00,0.53
6692.00,0.53
6691.00,0.53
6690.00,0.53
6689.00,0.53
6688.00,0.53
6687.00,0.53
6686.00,0.53
6685.00,0.53
6684.00,0.53
6683.00,0.53
6682.00,0.53
6681.00,0.53
6680.00,0.53
6679.00,0.53
6678.00,0.53
6677.00,0.54
6676.00,0.54
6675.00,0.54
6674.00,0.54
6673.00,0.54
6672.00,0.54
6671.00,0.54
6670.00,0.54
6669.00,0.54
6668.00,0.54
6667.00,0.54
6666.00,0.54
6665.00,0.54
6664.00,0.54
6663.00,0.54
6662.00,0.54
6661.00,0.54
6660.00,0.54
6659.00,0.55
6658.00,0.55
6657.00,0.55
6656.00,0.55
6655.00,0.55
6654.00,0.55
6653.00,0.55
6652.00,0.55
6651.00,0.55
6650.00,0.55
6649.00,0.55
6648.00,0.55
6647.00,0.55
6646.00,0.55
6645.00,0.55
6644.00,0.55
6643.00,0.56
6642.00,0.56
6641.00,0.56
6640.00,0.56
6639.00,0.56
6638.00,0.56
6637.00,0.56
6636.00,0.56
6635.00,0.56
6634.00,0.56
6633.00,0.56
6632.00,0.56
6631.00,0.56
6630.00,0.57
6629.00,0.57
6628.00,0.57
6627.00,0.57
6626.00,0.57
6625.00,0.57
6624.00,0.57
6623.00,0.57
6622.00,0.57
6621.00,0.57
6620.00,0.57
6619.00,0.57
6618.00,0.57
6617.00,0.57
6616.00,0.57
6615.00,0.57
6614.00,0.57
6613.00,0.57
6612.00,0.57
6611.00,0.57
6610.00,0.57
6609.00,0.57
6608.00,0.57
6607.00,0.58
6606.00,0.58
6605.00,0.58
6604.00,0.58
6603.00,0.58
6602.00,0.58
6601.00,0.58
6600.00,0.58
6599.00,0.58
6598.00,0.58
6597.00,0.58
6596.00,0.58
6595.00,0.58
6594.00,0.58
6593.00,0.59
6592.00,0.59
6591.00,0.59
6590.00,0.59
6589.00,0.59
6588.00,0.59
6587.00,0.59
6586.00,0.59
6585.00,0.59
6584.00,0.59
6583.00,0.59
6582.00,0.59
6581.00,0.59
6580.00,0.60
6579.00,0.60
6578.00,0.60
6577.00,0.60
6576.00,0.60
6575.00,0.60
6574.00,0.60
6573.00,0.60
6572.00,0.61
6571.00,0.61
6570.00,0.61
6569.00,0.61
6568.00,0.61
6567.00,0.61
6566.00,0.61
6565.00,0.61
6564.00,0.61
6563.00,0.61
6562.00,0.61
6561.00,0.61
6560.00,0.61
6559.00,0.61
6558.00,0.62
6557.00,0.62
6556.00,0.62
6555.00,0.62
6554.00,0.62
6553.00,0.62
6552.00,0.62
6551.00,0.62
6550.00,0.62
6549.00,0.62
6548.00,0.62
6547.00,0.62
6546.00,0.62
6545.00,0.62
6544.00,0.62
6543.00,0.62
6542.00,0.63
6541.00,0.63
6540.00,0.63
6539.00,0.63
6538.00,0.63
6537.00,0.63
6536.00,0.63
6535.00,0.63
6534.00,0.63
6533.00,0.63
6532.00,0.63
6531.00,0.63
6530.00,0.63
6529.00,0.63
6528.00,0.63
6527.00,0.63
6526.00,0.63
6525.00,0.63
6524.00,0.63
6523.00,0.63
6522.00,0.63
6521.00,0.63
6520.00,0.63
6519.00,0.64
6518.00,0.64
6517.00,0.64
6516.00,0.64
6515.00,0.64
6514.00,0.64
6513.00,0.64
6512.00,0.64
6511.00,0.64
6510.00,0.64
6509.00,0.64
6508.00,0.64
6507.00,0.64
6506.00,0.64
6505.00,0.64
6504.00,0.64
6503.00,0.64
6502.00,0.64
6501.00,0.64
6500.00,0.64
6499.00,0.64
6498.00,0.64
6497.00,0.64
6496.00,0.64
6495.00,0.64
6494.00,0.64
6493.00,0.64
6492.00,0.64
6491.00,0.64
6490.00,0.65
6489.00,0.65
6488.00,0.65
6487.00,0.65
6486.00,0.65
6485.00,0.65
6484.00,0.65
6483.00,0.65
6482.00,0.65
6481.00,0.65
6480.00,0.65
6479.00,0.65
6478.00,0.65
6477.00,0.65
6476.00,0.65
6475.00,0.65
6474.00,0.65
6473.00,0.66
6472.00,0.66
6471.00,0.66
6470.00,0.66
6469.00,0.66
6468.00,0.66
6467.00,0.66
6466.00,0.66
6465.00,0.66
6464.00,0.66
6463.00,0.66
6462.00,0.66
6461.00,0.66
6460.00,0.66
6459.00,0.66
6458.00,0.66
6457.00,0.66
6456.00,0.66
6455.00,0.66
6454.00,0.66
6453.00,0.66
6452.00,0.66
6451.00,0.66
6450.00,0.66
6449.00,0.66
6448.00,0.66
6447.00,0.66
6446.00,0.66
6445.00,0.66
6444.00,0.66
6443.00,0.66
6442.00,0.66
6441.00,0.66
6440.00,0.66
6439.00,0.66
6438.00,0.66
6437.00,0.66
6436.00,0.66
6435.00,0.67
6434.00,0.67
6433.00,0.67
6432.00,0.67
6431.00,0.67
6430.00,0.67
6429.00,0.67
6428.00,0.67
6427.00,0.67
6426.00,0.67
6425.00,0.67
6424.00,0.68
6423.00,0.68
6422.00,0.68
6421.00,0.68
6420.00,0.68
6419.00,0.68
6418.00,0.68
6417.00,0.68
6416.00,0.68
6415.00,0.68
6414.00,0.68
6413.00,0.68
6412.00,0.68
6411.00,0.68
6410.00,0.68
6409.00,0.68
6408.00,0.68
6407.00,0.68
6406.00,0.68
6405.00,0.68
6404.00,0.68
6403.00,0.68
6402.00,0.69
6401.00,0.69
6400.00,0.69
6399.00,0.69
6398.00,0.69
6397.00,0.69
6396.00,0.69
6395.00,0.69
6394.00,0.69
6393.00,0.69
6392.00,0.69
6391.00,0.69
6390.00,0.69
6389.00,0.69
6388.00,0.69
6387.00,0.69
6386.00,0.69
6385.00,0.69
6384.00,0.69
6383.00,0.69
6382.00,0.69
6381.00,0.69
6380.00,0.69
6379.00,0.69
6378.00,0.69
6377.00,0.70
6376.00,0.70
6375.00,0.70
6374.00,0.70
6373.00,0.70
6372.00,0.70
6371.00,0.70
6370.00,0.70
6369.00,0.70
6368.00,0.70
6367.00,0.70
6366.00,0.70
6365.00,0.70
6364.00,0.70
6363.00,0.70
6362.00,0.70
6361.00,0.70
6360.00,0.71
6359.00,0.71
6358.00,0.71
6357.00,0.71
6356.00,0.71
6355.00,0.71
6354.00,0.71
6353.00,0.71
6352.00,0.71
6351.00,0.71
6350.00,0.71
6349.00,0.71
6348.00,0.71
6347.00,0.71
6346.00,0.71
6345.00,0.71
6344.00,0.71
6343.00,0.71
6342.00,0.71
6341.00,0.71
6340.00,0.71
6339.00,0.71
6338.00,0.71
6337.00,0.71
6336.00,0.71
6335.00,0.72
6334.00,0.72
6333.00,0.72
6332.00,0.72
6331.00,0.72
6330.00,0.72
6329.00,0.72
6328.00,0.72
6327.00,0.72
6326.00,0.72
6325.00,0.72
6324.00,0.73
6323.00,0.73
6322.00,0.73
6321.00,0.73
6320.00,0.73
6319.00,0.73
6318.00,0.73
6317.00,0.73
6316.00,0.73
6315.00,0.73
6314.00,0.73
6313.00,0.73
6312.00,0.73
6311.00,0.74
6310.00,0.74
6309.00,0.74
6308.00,0.74
6307.00,0.74
6306.00,0.74
6305.00,0.74
6304.00,0.74
6303.00,0.74
6302.00,0.74
6301.00,0.74
6300.00,0.74
6299.00,0.74
6298.00,0.74
6297.00,0.74
6296.00,0.74
6295.00,0.74
6294.00,0.74
6293.00,0.75
6292.00,0.75
6291.00,0.75
6290.00,0.75
6289.00,0.75
6288.00,0.75
6287.00,0.75
6286.00,0.75
6285.00,0.75
6284.00,0.75
6283.00,0.75
6282.00,0.76
6281.00,0.76
6280.00,0.76
6279.00,0.76
6278.00,0.76
6277.00,0.76
6276.00,0.76
6275.00,0.76
6274.00,0.76
6273.00,0.76
6272.00,0.76
6271.00,0.77
6270.00,0.77
6269.00,0.77
6268.00,0.77
6267.00,0.77
6266.00,0.77
6265.00,0.77
6264.00,0.77
6263.00,0.77
6262.00,0.77
6261.00,0.77
6260.00,0.77
6259.00,0.77
6258.00,0.77
6257.00,0.77
6256.00,0.77
6255.00,0.78
6254.00,0.78
6253.00,0.78
6252.00,0.78
6251.00,0.78
6250.00,0.78
6249.00,0.78
6248.00,0.78
6247.00,0.78
6246.00,0.79
6245.00,0.79
6244.00,0.79
6243.00,0.79
6242.00,0.79
6241.00,0.79
6240.00,0.79
6239.00,0.79
6238.00,0.79
6237.00,0.79
6236.00,0.79
6235.00,0.79
6234.00,0.79
6233.00,0.79
6232.00,0.79
6231.00,0.79
6230.00,0.79
6229.00,0.79
6228.00,0.79
6227.00,0.79
6226.00,0.80
6225.00,0.80
6224.00,0.80
6223.00,0.80
6222.00,0.80
6221.00,0.80
6220.00,0.80
6219.00,0.80
6218.00,0.80
6217.00,0.80
6216.00,0.80
6215.00,0.80
6214.00,0.81
6213.00,0.81
6212.00,0.81
6211.00,0.81
6210.00,0.81
6209.00,0.81
6208.00,0.81
6207.00,0.81
6206.00,0.81
6205.00,0.81
6204.00,0.82
6203.00,0.82
6202.00,0.82
6201.00,0.82
6200.00,0.82
6199.00,0.82
6198.00,0.82
6197.00,0.82
6196.00,0.82
6195.00,0.82
6194.00,0.82
6193.00,0.82
6192.00,0.82
6191.00,0.83
6190.00,0.83
6189.00,0.83
6188.00,0.83
6187.00,0.83
6186.00,0.83
6185.00,0.83
6184.00,0.83
6183.00,0.83
6182.00,0.83
6181.00,0.84
6180.00,0.84
6179.00,0.84
6178.00,0.84
6177.00,0.84
6176.00,0.84
6175.00,0.84
6174.00,0.84
6173.00,0.85
6172.00,0.85
6171.00,0.85
6170.00,0.85
6169.00,0.85
6168.00,0.85
6167.00,0.85
6166.00,0.85
6165.00,0.85
6164.00,0.86
6163.00,0.86
6162.00,0.86
6161.00,0.86
6160.00,0.86
6159.00,0.86
6158.00,0.86
6157.00,0.86
6156.00,0.86
6155.00,0.86
6154.00,0.86
6153.00,0.87
6152.00,0.87
6151.00,0.87
6150.00,0.87
6149.00,0.87
6148.00,0.87
6147.00,0.87
6146.00,0.87
6145.00,0.88
6144.00,0.88
6143.00,0.88
6142.00,0.88
6141.00,0.88
6140.00,0.88
6139.00,0.88
6138.00,0.88
6137.00,0.89
6136.00,0.89
6135.00,0.89
6134.00,0.89
6133.00,0.89
6132.00,0.89
6131.00,0.89
6130.00,0.89
6129.00,0.89
6128.00,0.89
6127.00,0.89
6126.00,0.90
6125.00,0.90
6124.00,0.90
6123.00,0.90
6122.00,0.90
6121.00,0.90
6120.00,0.90
6119.00,0.90
6118.00,0.90
6117.00,0.91
6116.00,0.91
6115.00,0.91
6114.00,0.91
6113.00,0.91
6112.00,0.91
6111.00,0.91
6110.00,0.91
6109.00,0.91
6108.00,0.91
6107.00,0.92
6106.00,0.92
6105.00,0.92
6104.00,0.92
6103.00,0.92
6102.00,0.92
6101.00,0.92
6100.00,0.92
6099.00,0.92
6098.00,0.92
6097.00,0.92
6096.00,0.93
6095.00,0.93
6094.00,0.93
6093.00,0.93
6092.00,0.93
6091.00,0.93
6090.00,0.93
6089.00,0.93
6088.00,0.93
6087.00,0.93
6086.00,0.93
6085.00,0.93
6084.00,0.93
6083.00,0.93
6082.00,0.93
6081.00,0.93
6080.00,0.93
6079.00,0.93
6078.00,0.94
6077.00,0.94
6076.00,0.94
6075.00,0.94
6074.00,0.94
6073.00,0.94
6072.00,0.94
6071.00,0.94
6070.00,0.94
6069.00,0.94
6068.00,0.95
6067.00,0.95
6066.00,0.95
6065.00,0.95
6064.00,0.95
6063.00,0.95
6062.00,0.95
6061.00,0.95
6060.00,0.95
6059.00,0.95
6058.00,0.95
6057.00,0.95
6056.00,0.95
6055.00,0.95
6054.00,0.96
6053.00,0.96
6052.00,0.96
6051.00,0.96
6050.00,0.96
6049.00,0.96
6048.00,0.96
6047.00,0.96
6046.00,0.96
6045.00,0.96
6044.00,0.96
6043.00,0.96
6042.00,0.96
6041.00,0.96
6040.00,0.96
6039.00,0.96
6038.00,0.96
6037.00,0.97
6036.00,0.97
6035.00,0.97
6034.00,0.97
6033.00,0.97
6032.00,0.97
6031.00,0.97
6030.00,0.97
6029.00,0.97
6028.00,0.97
6027.00,0.97
6026.00,0.97
6025.00,0.97
6024.00,0.97
6023.00,0.97
6022.00,0.97
6021.00,0.97
6020.00,0.97
6019.00,0.97
6018.00,0.97
6017.00,0.97
6016.00,0.97
6015.00,0.97
6014.00,0.97
6013.00,0.97
6012.00,0.97
6011.00,0.97
6010.00,0.97
6009.00,0.97
6008.00,0.97
6007.00,0.97
6006.00,0.97
6005.00,0.97
6004.00,0.97
6003.00,0.97
6002.00,0.97
6001.00,0.97
6000.00,0.96
5999.00,0.96
5998.00,0.96
5997.00,0.96
5996.00,0.96
5995.00,0.96
5994.00,0.96
5993.00,0.96
5992.00,0.96
5991.00,0.95
5990.00,0.95
5989.00,0.95
5988.00,0.95
5987.00,0.95
5986.00,0.95
5985.00,0.95
5984.00,0.95
5983.00,0.94
5982.00,0.94
5981.00,0.94
5980.00,0.94
5979.00,0.94
5978.00,0.94
5977.00,0.93
5976.00,0.93
5975.00,0.93
5974.00,0.93
5973.00,0.92
5972.00,0.92
5971.00,0.91
5970.00,0.91
5969.00,0.91
5968.00,0.90
5967.00,0.90
5966.00,0.89
5965.00,0.89
5964.00,0.88
5963.00,0.88
5962.00,0.87
5961.00,0.87
5960.00,0.86
5959.00,0.86
5958.00,0.85
5957.00,0.85
5956.00,0.84
5955.00,0.84
5954.00,0.83
5953.00,0.83
5952.00,0.83
5951.00,0.82
5950.00,0.82
5949.00,0.81
5948.00,0.81
5947.00,0.81
5946.00,0.81
5945.00,0.80
5944.00,0.80
5943.00,0.80
5942.00,0.80
5941.00,0.80
5940.00,0.79
5939.00,0.79
5938.00,0.79
5937.00,0.79
5936.00,0.79
5935.00,0.79
5934.00,0.79
5933.00,0.79
5932.00,0.79
5931.00,0.79
5930.00,0.79
5929.00,0.79
5928.00,0.79
5927.00,0.79
5926.00,0.79
5925.00,0.79
5924.00,0.79
5923.00,0.79
5922.00,0.78
5921.00,0.78
5920.00,0.78
5919.00,0.78
5918.00,0.78
5917.00,0.78
5916.00,0.77
5915.00,0.77
5914.00,0.77
5913.00,0.77
5912.00,0.76
5911.00,0.76
5910.00,0.76
5909.00,0.76
5908.00,0.76
5907.00,0.76
5906.00,0.76
5905.00,0.76
5904.00,0.76
5903.00,0.76
5902.00,0.76
5901.00,0.76
5900.00,0.76
5899.00,0.76
5898.00,0.76
5897.00,0.76
5896.00,0.76
5895.00,0.76
5894.00,0.76
5893.00,0.76
5892.00,0.76
5891.00,0.77
5890.00,0.77
5889.00,0.77
5888.00,0.77
5887.00,0.77
5886.00,0.77
5885.00,0.78
5884.00,0.78
5883.00,0.78
5882.00,0.78
5881.00,0.78
5880.00,0.79
5879.00,0.79
5878.00,0.79
5877.00,0.79
5876.00,0.80
5875.00,0.80
5874.00,0.80
5873.00,0.80
5872.00,0.80
5871.00,0.80
5870.00,0.81
5869.00,0.81
5868.00,0.81
5867.00,0.81
5866.00,0.81
5865.00,0.81
5864.00,0.81
5863.00,0.81
5862.00,0.82
5861.00,0.82
5860.00,0.82
5859.00,0.82
5858.00,0.82
5857.00,0.82
5856.00,0.82
5855.00,0.82
5854.00,0.82
5853.00,0.82
5852.00,0.82
5851.00,0.82
5850.00,0.82
5849.00,0.82
5848.00,0.82
5847.00,0.82
5846.00,0.82
5845.00,0.82
5844.00,0.82
5843.00,0.82
5842.00,0.82
5841.00,0.82
5840.00,0.82
5839.00,0.82
5838.00,0.82
5837.00,0.82
5836.00,0.82
5835.00,0.82
5834.00,0.82
5833.00,0.83
5832.00,0.83
5831.00,0.83
5830.00,0.83
5829.00,0.83
5828.00,0.83
5827.00,0.83
5826.00,0.83
5825.00,0.83
5824.00,0.83
5823.00,0.83
5822.00,0.83
5821.00,0.83
5820.00,0.83
5819.00,0.83
5818.00,0.83
5817.00,0.83
5816.00,0.83
5815.00,0.83
5814.00,0.83
5813.00,0.83
5812.00,0.83
5811.00,0.83
5810.00,0.83
5809.00,0.83
5808.00,0.83
5807.00,0.83
5806.00,0.83
5805.00,0.83
5804.00,0.83
5803.00,0.83
5802.00,0.83
5801.00,0.83
5800.00,0.83
5799.00,0.82
5798.00,0.82
5797.00,0.82
5796.00,0.82
5795.00,0.82
5794.00,0.82
5793.00,0.81
5792.00,0.81
5791.00,0.81
5790.00,0.81
5789.00,0.81
5788.00,0.80
5787.00,0.80
5786.00,0.80
5785.00,0.80
5784.00,0.80
5783.00,0.80
5782.00,0.80
5781.00,0.79
5780.00,0.79
5779.00,0.79
5778.00,0.79
5777.00,0.79
5776.00,0.79
5775.00,0.79
5774.00,0.79
5773.00,0.79
5772.00,0.79
5771.00,0.79
5770.00,0.79
5769.00,0.79
5768.00,0.79
5767.00,0.79
5766.00,0.79
5765.00,0.79
5764.00,0.80
5763.00,0.80
5762.00,0.80
5761.00,0.80
5760.00,0.80
5759.00,0.80
5758.00,0.81
5757.00,0.81
5756.00,0.81
5755.00,0.81
5754.00,0.82
5753.00,0.82
5752.00,0.82
5751.00,0.83
5750.00,0.83
5749.00,0.83
5748.00,0.83
5747.00,0.84
5746.00,0.84
5745.00,0.84
5744.00,0.84
5743.00,0.84
5742.00,0.85
5741.00,0.85
5740.00,0.85
5739.00,0.85
5738.00,0.86
5737.00,0.86
5736.00,0.86
5735.00,0.86
5734.00,0.86
5733.00,0.87
5732.00,0.87
5731.00,0.87
5730.00,0.87
5729.00,0.87
5728.00,0.87
5727.00,0.87
5726.00,0.87
5725.00,0.87
5724.00,0.87
5723.00,0.88
5722.00,0.88
5721.00,0.88
5720.00,0.88
5719.00,0.88
5718.00,0.88
5717.00,0.88
5716.00,0.87
5715.00,0.87
5714.00,0.87
5713.00,0.87
5712.00,0.87
5711.00,0.87
5710.00,0.87
5709.00,0.87
5708.00,0.87
5707.00,0.87
5706.00,0.87
5705.00,0.87
5704.00,0.87
5703.00,0.87
5702.00,0.86
5701.00,0.86
5700.00,0.86
5699.00,0.86
5698.00,0.86
5697.00,0.86
5696.00,0.86
5695.00,0.86
5694.00,0.86
5693.00,0.86
5692.00,0.85
5691.00,0.85
5690.00,0.85
5689.00,0.85
5688.00,0.85
5687.00,0.85
5686.00,0.85
5685.00,0.85
5684.00,0.85
5683.00,0.85
5682.00,0.85
5681.00,0.85
5680.00,0.85
5679.00,0.85
5678.00,0.85
5677.00,0.84
5676.00,0.84
5675.00,0.84
5674.00,0.84
5673.00,0.84
5672.00,0.84
5671.00,0.84
5670.00,0.84
5669.00,0.84
5668.00,0.84
5667.00,0.84
5666.00,0.84
5665.00,0.85
5664.00,0.85
5663.00,0.85
5662.00,0.85
5661.00,0.85
5660.00,0.85
5659.00,0.85
5658.00,0.85
5657.00,0.86
5656.00,0.86
5655.00,0.86
5654.00,0.86
5653.00,0.86
5652.00,0.86
5651.00,0.87
5650.00,0.87
5649.00,0.87
5648.00,0.87
5647.00,0.87
5646.00,0.88
5645.00,0.88
5644.00,0.88
5643.00,0.88
5642.00,0.88
5641.00,0.88
5640.00,0.88
5639.00,0.88
5638.00,0.89
5637.00,0.89
5636.00,0.89
5635.00,0.89
5634.00,0.89
5633.00,0.89
5632.00,0.89
5631.00,0.89
5630.00,0.89
5629.00,0.89
5628.00,0.89
5627.00,0.89
5626.00,0.89
5625.00,0.90
5624.00,0.90
5623.00,0.90
5622.00,0.90
5621.00,0.90
5620.00,0.90
5619.00,0.90
5618.00,0.90
5617.00,0.90
5616.00,0.90
5615.00,0.90
5614.00,0.91
5613.00,0.91
5612.00,0.91
5611.00,0.91
5610.00,0.91
5609.00,0.91
5608.00,0.91
5607.00,0.91
5606.00,0.91
5605.00,0.92
5604.00,0.92
5603.00,0.92
5602.00,0.92
5601.00,0.92
5600.00,0.92
5599.00,0.92
5598.00,0.93
5597.00,0.93
5596.00,0.93
5595.00,0.93
5594.00,0.93
5593.00,0.93
5592.00,0.93
5591.00,0.94
5590.00,0.94
5589.00,0.94
5588.00,0.94
5587.00,0.94
5586.00,0.94
5585.00,0.94
5584.00,0.95
5583.00,0.95
5582.00,0.95
5581.00,0.95
5580.00,0.95
5579.00,0.95
5578.00,0.95
5577.00,0.95
5576.00,0.96
5575.00,0.96
5574.00,0.96
5573.00,0.96
5572.00,0.96
5571.00,0.96
5570.00,0.96
5569.00,0.96
5568.00,0.96
5567.00,0.96
5566.00,0.96
5565.00,0.97
5564.00,0.97
5563.00,0.97
5562.00,0.97
5561.00,0.97
5560.00,0.97
5559.00,0.97
5558.00,0.97
5557.00,0.97
5556.00,0.97
5555.00,0.97
5554.00,0.97
5553.00,0.97
5552.00,0.97
5551.00,0.97
5550.00,0.98
5549.00,0.98
5548.00,0.98
5547.00,0.98
5546.00,0.98
5545.00,0.98
5544.00,0.98
5543.00,0.98
5542.00,0.98
5541.00,0.99
5540.00,0.99
5539.00,0.99
5538.00,0.99
5537.00,0.99
5536.00,0.99
5535.00,0.99
5534.00,0.99
5533.00,0.99
5532.00,0.99
5531.00,0.99
5530.00,0.99
5529.00,0.99
5528.00,1.00
5527.00,1.00
5526.00,1.00
5525.00,1.00
5524.00,1.00
5523.00,1.00
5522.00,1.00
5521.00,1.00
5520.00,1.00
5519.00,1.00
5518.00,1.00
5517.00,1.00
5516.00,1.00
5515.00,1.00
5514.00,1.00
5513.00,1.00
5512.00,1.00
5511.00,1.00
5510.00,1.00
5509.00,1.00
5508.00,1.00
5507.00,1.00
5506.00,1.00
5505.00,1.00
5504.00,1.00
5503.00,1.00
5502.00,1.00
5501.00,1.00
5500.00,1.00
5499.00,1.00
5498.00,1.00
5497.00,1.00
5496.00,1.00
5495.00,1.00
5494.00,1.00
5493.00,1.00
5492.00,1.01
5491.00,1.01
5490.00,1.01
5489.00,1.01
5488.00,1.01
5487.00,1.01
5486.00,1.01
5485.00,1.01
5484.00,1.02
5483.00,1.02
5482.00,1.02
5481.00,1.02
5480.00,1.02
5479.00,1.02
5478.00,1.02
5477.00,1.02
5476.00,1.03
5475.00,1.03
5474.00,1.03
5473.00,1.03
5472.00,1.03
5471.00,1.03
5470.00,1.03
5469.00,1.03
5468.00,1.03
5467.00,1.03
5466.00,1.03
5465.00,1.03
5464.00,1.04
5463.00,1.04
5462.00,1.04
5461.00,1.04
5460.00,1.04
5459.00,1.04
5458.00,1.04
5457.00,1.04
5456.00,1.04
5455.00,1.04
5454.00,1.04
5453.00,1.04
5452.00,1.04
5451.00,1.04
5450.00,1.04
5449.00,1.04
5448.00,1.04
5447.00,1.04
5446.00,1.04
5445.00,1.04
5444.00,1.04
5443.00,1.04
5442.00,1.04
5441.00,1.04
5440.00,1.04
5439.00,1.04
5438.00,1.04
5437.00,1.04
5436.00,1.04
5435.00,1.04
5434.00,1.04
5433.00,1.04
5432.00,1.04
5431.00,1.05
5430.00,1.05
5429.00,1.05
5428.00,1.05
5427.00,1.05
5426.00,1.05
5425.00,1.05
5424.00,1.05
5423.00,1.05
5422.00,1.05
5421.00,1.05
5420.00,1.05
5419.00,1.05
5418.00,1.05
5417.00,1.05
5416.00,1.05
5415.00,1.05
5414.00,1.05
5413.00,1.05
5412.00,1.05
5411.00,1.05
5410.00,1.05
5409.00,1.05
5408.00,1.05
5407.00,1.05
5406.00,1.05
5405.00,1.05
5404.00,1.05
5403.00,1.05
5402.00,1.05
5401.00,1.05
5400.00,1.05
5399.00,1.05
5398.00,1.05
5397.00,1.05
5396.00,1.05
5395.00,1.05
5394.00,1.05
5393.00,1.04
5392.00,1.04
5391.00,1.04
5390.00,1.04
5389.00,1.04
5388.00,1.04
5387.00,1.04
5386.00,1.04
5385.00,1.04
5384.00,1.03
5383.00,1.03
5382.00,1.03
5381.00,1.03
5380.00,1.03
5379.00,1.02
5378.00,1.02
5377.00,1.02
5376.00,1.02
5375.00,1.01
5374.00,1.01
5373.00,1.01
5372.00,1.01
5371.00,1.00
5370.00,1.00
5369.00,1.00
5368.00,0.99
5367.00,0.99
5366.00,0.99
5365.00,0.98
5364.00,0.98
5363.00,0.98
5362.00,0.97
5361.00,0.97
5360.00,0.96
5359.00,0.96
5358.00,0.96
5357.00,0.95
5356.00,0.95
5355.00,0.94
5354.00,0.93
5353.00,0.93
5352.00,0.92
5351.00,0.92
5350.00,0.91
5349.00,0.90
5348.00,0.90
5347.00,0.89
5346.00,0.88
5345.00,0.88
5344.00,0.87
5343.00,0.86
5342.00,0.86
5341.00,0.85
5340.00,0.84
5339.00,0.84
5338.00,0.83
5337.00,0.82
5336.00,0.82
5335.00,0.81
5334.00,0.80
5333.00,0.80
5332.00,0.79
5331.00,0.78
5330.00,0.78
5329.00,0.77
5328.00,0.76
5327.00,0.76
5326.00,0.75
5325.00,0.74
5324.00,0.74
5323.00,0.73
5322.00,0.73
5321.00,0.72
5320.00,0.71
5319.00,0.71
5318.00,0.70
5317.00,0.69
5316.00,0.69
5315.00,0.68
5314.00,0.68
5313.00,0.67
5312.00,0.67
5311.00,0.66
5310.00,0.65
5309.00,0.65
5308.00,0.64
5307.00,0.64
5306.00,0.63
5305.00,0.63
5304.00,0.63
5303.00,0.62
5302.00,0.62
5301.00,0.61
5300.00,0.61
5299.00,0.61
5298.00,0.60
5297.00,0.60
5296.00,0.60
5295.00,0.59
5294.00,0.59
5293.00,0.59
5292.00,0.59
5291.00,0.58
5290.00,0.58
5289.00,0.58
5288.00,0.58
5287.00,0.58
5286.00,0.58
5285.00,0.57
5284.00,0.57
5283.00,0.57
5282.00,0.57
5281.00,0.57
5280.00,0.57
5279.00,0.57
5278.00,0.57
5277.00,0.57
5276.00,0.57
5275.00,0.57
5274.00,0.57
5273.00,0.57
5272.00,0.57
5271.00,0.57
5270.00,0.57
5269.00,0.57
5268.00,0.56
5267.00,0.56
5266.00,0.56
5265.00,0.56
5264.00,0.56
5263.00,0.56
5262.00,0.56
5261.00,0.56
5260.00,0.56
5259.00,0.56
5258.00,0.56
5257.00,0.56
5256.00,0.56
5255.00,0.56
5254.00,0.56
5253.00,0.56
5252.00,0.56
5251.00,0.56
5250.00,0.56
5249.00,0.56
5248.00,0.56
5247.00,0.56
5246.00,0.56
5245.00,0.56
5244.00,0.56
5243.00,0.56
5242.00,0.56
5241.00,0.56
5240.00,0.56
5239.00,0.56
5238.00,0.56
5237.00,0.56
5236.00,0.56
5235.00,0.56
5234.00,0.56
5233.00,0.56
5232.00,0.56
5231.00,0.56
5230.00,0.56
5229.00,0.56
5228.00,0.56
5227.00,0.56
5226.00,0.56
5225.00,0.56
5224.00,0.56
5223.00,0.56
5222.00,0.56
5221.00,0.56
5220.00,0.56
5219.00,0.56
5218.00,0.56
5217.00,0.57
5216.00,0.57
5215.00,0.57
5214.00,0.57
5213.00,0.57
5212.00,0.57
5211.00,0.57
5210.00,0.57
5209.00,0.57
5208.00,0.57
5207.00,0.57
5206.00,0.57
5205.00,0.57
5204.00,0.57
5203.00,0.57
5202.00,0.57
5201.00,0.57
5200.00,0.57
5199.00,0.57
5198.00,0.57
5197.00,0.57
5196.00,0.57
5195.00,0.57
5194.00,0.57
5193.00,0.57
5192.00,0.57
5191.00,0.57
5190.00,0.57
5189.00,0.57
5188.00,0.57
5187.00,0.58
5186.00,0.58
5185.00,0.58
5184.00,0.58
5183.00,0.58
5182.00,0.58
5181.00,0.58
5180.00,0.58
5179.00,0.58
5178.00,0.58
5177.00,0.58
5176.00,0.58
5175.00,0.58
5174.00,0.58
5173.00,0.58
5172.00,0.58
5171.00,0.58
5170.00,0.58
5169.00,0.58
5168.00,0.58
5167.00,0.58
5166.00,0.58
5165.00,0.58
5164.00,0.58
5163.00,0.58
5162.00,0.58
5161.00,0.59
5160.00,0.59
5159.00,0.59
5158.00,0.59
5157.00,0.59
5156.00,0.59
5155.00,0.59
5154.00,0.59
5153.00,0.59
5152.00,0.59
5151.00,0.59
5150.00,0.59
5149.00,0.59
5148.00,0.59
5147.00,0.59
5146.00,0.59
5145.00,0.59
5144.00,0.59
5143.00,0.59
5142.00,0.59
5141.00,0.59
5140.00,0.59
5139.00,0.59
5138.00,0.59
5137.00,0.59
5136.00,0.59
5135.00,0.59
5134.00,0.59
5133.00,0.59
5132.00,0.59
5131.00,0.59
5130.00,0.59
5129.00,0.59
5128.00,0.59
5127.00,0.59
5126.00,0.59
5125.00,0.60
5124.00,0.60
5123.00,0.60
5122.00,0.60
5121.00,0.60
5120.00,0.60
5119.00,0.60
5118.00,0.60
5117.00,0.60
5116.00,0.60
5115.00,0.60
5114.00,0.60
5113.00,0.60
5112.00,0.60
5111.00,0.60
5110.00,0.60
5109.00,0.60
5108.00,0.60
5107.00,0.60
5106.00,0.60
5105.00,0.60
5104.00,0.60
5103.00,0.60
5102.00,0.60
5101.00,0.60
5100.00,0.60
5099.00,0.60
5098.00,0.60
5097.00,0.60
5096.00,0.60
5095.00,0.60
5094.00,0.60
5093.00,0.61
5092.00,0.61
5091.00,0.61
5090.00,0.61
5089.00,0.61
5088.00,0.61
5087.00,0.61
5086.00,0.61
5085.00,0.61
5084.00,0.61
5083.00,0.62
5082.00,0.62
5081.00,0.62
5080.00,0.62
5079.00,0.62
5078.00,0.62
5077.00,0.62
5076.00,0.62
5075.00,0.62
5074.00,0.62
5073.00,0.62
5072.00,0.62
5071.00,0.62
5070.00,0.62
5069.00,0.62
5068.00,0.62
5067.00,0.62
5066.00,0.62
5065.00,0.62
5064.00,0.62
5063.00,0.62
5062.00,0.62
5061.00,0.62
5060.00,0.62
5059.00,0.62
5058.00,0.62
5057.00,0.62
5056.00,0.62
5055.00,0.62
5054.00,0.62
5053.00,0.62
5052.00,0.62
5051.00,0.62
5050.00,0.62
5049.00,0.62
5048.00,0.62
5047.00,0.62
5046.00,0.62
5045.00,0.62
5044.00,0.63
5043.00,0.63
5042.00,0.63
5041.00,0.63
5040.00,0.63
5039.00,0.63
5038.00,0.63
5037.00,0.63
5036.00,0.63
5035.00,0.63
5034.00,0.63
5033.00,0.63
5032.00,0.63
5031.00,0.63
5030.00,0.63
5029.00,0.63
5028.00,0.63
5027.00,0.64
5026.00,0.64
5025.00,0.64
5024.00,0.64
5023.00,0.64
5022.00,0.64
5021.00,0.64
5020.00,0.64
5019.00,0.64
5018.00,0.64
5017.00,0.64
5016.00,0.64
5015.00,0.64
5014.00,0.64
5013.00,0.64
5012.00,0.64
5011.00,0.64
5010.00,0.64
5009.00,0.65
5008.00,0.65
5007.00,0.65
5006.00,0.65
5005.00,0.65
5004.00,0.65
5003.00,0.65
5002.00,0.65
5001.00,0.65
5000.00,0.65
4999.00,0.65
4998.00,0.65
4997.00,0.65
4996.00,0.65
4995.00,0.65
4994.00,0.65
4993.00,0.65
4992.00,0.65
4991.00,0.65
4990.00,0.65
4989.00,0.65
4988.00,0.65
4987.00,0.65
4986.00,0.65
4985.00,0.66
4984.00,0.66
4983.00,0.66
4982.00,0.66
4981.00,0.66
4980.00,0.66
4979.00,0.66
4978.00,0.66
4977.00,0.66
4976.00,0.66
4975.00,0.66
4974.00,0.66
4973.00,0.66
4972.00,0.66
4971.00,0.66
4970.00,0.67
4969.00,0.67
4968.00,0.67
4967.00,0.67
4966.00,0.67
4965.00,0.67
4964.00,0.67
4963.00,0.67
4962.00,0.67
4961.00,0.67
4960.00,0.67
4959.00,0.67
4958.00,0.67
4957.00,0.67
4956.00,0.67
4955.00,0.67
4954.00,0.67
4953.00,0.67
4952.00,0.68
4951.00,0.68
4950.00,0.68
4949.00,0.68
4948.00,0.68
4947.00,0.68
4946.00,0.68
4945.00,0.68
4944.00,0.68
4943.00,0.68
4942.00,0.68
4941.00,0.68
4940.00,0.68
4939.00,0.68
4938.00,0.68
4937.00,0.68
4936.00,0.68
4935.00,0.68
4934.00,0.68
4933.00,0.69
4932.00,0.69
4931.00,0.69
4930.00,0.69
4929.00,0.69
4928.00,0.69
4927.00,0.69
4926.00,0.69
4925.00,0.69
4924.00,0.69
4923.00,0.69
4922.00,0.69
4921.00,0.69
4920.00,0.69
4919.00,0.69
4918.00,0.69
4917.00,0.69
4916.00,0.69
4915.00,0.69
4914.00,0.69
4913.00,0.69
4912.00,0.69
4911.00,0.69
4910.00,0.70
4909.00,0.70
4908.00,0.70
4907.00,0.70
4906.00,0.70
4905.00,0.70
4904.00,0.70
4903.00,0.70
4902.00,0.70
4901.00,0.70
4900.00,0.70
4899.00,0.70
4898.00,0.70
4897.00,0.71
4896.00,0.71
4895.00,0.71
4894.00,0.71
4893.00,0.71
4892.00,0.71
4891.00,0.71
4890.00,0.71
4889.00,0.71
4888.00,0.71
4887.00,0.71
4886.00,0.71
4885.00,0.71
4884.00,0.71
4883.00,0.71
4882.00,0.71
4881.00,0.71
4880.00,0.71
4879.00,0.71
4878.00,0.71
4877.00,0.71
4876.00,0.71
4875.00,0.71
4874.00,0.71
4873.00,0.71
4872.00,0.71
4871.00,0.71
4870.00,0.71
4869.00,0.71
4868.00,0.71
4867.00,0.71
4866.00,0.71
4865.00,0.71
4864.00,0.72
4863.00,0.72
4862.00,0.72
4861.00,0.72
4860.00,0.72
4859.00,0.72
4858.00,0.72
4857.00,0.72
4856.00,0.72
4855.00,0.72
4854.00,0.72
4853.00,0.72
4852.00,0.72
4851.00,0.72
4850.00,0.72
4849.00,0.72
4848.00,0.72
4847.00,0.72
4846.00,0.72
4845.00,0.72
4844.00,0.72
4843.00,0.72
4842.00,0.72
4841.00,0.72
4840.00,0.73
4839.00,0.73
4838.00,0.73
4837.00,0.73
4836.00,0.73
4835.00,0.73
4834.00,0.73
4833.00,0.73
4832.00,0.73
4831.00,0.73
4830.00,0.73
4829.00,0.73
4828.00,0.73
4827.00,0.74
4826.00,0.74
4825.00,0.74
4824.00,0.74
4823.00,0.74
4822.00,0.74
4821.00,0.74
4820.00,0.74
4819.00,0.74
4818.00,0.74
4817.00,0.74
4816.00,0.74
4815.00,0.74
4814.00,0.74
4813.00,0.74
4812.00,0.74
4811.00,0.74
4810.00,0.74
4809.00,0.74
4808.00,0.75
4807.00,0.75
4806.00,0.75
4805.00,0.75
4804.00,0.75
4803.00,0.75
4802.00,0.75
4801.00,0.75
4800.00,0.75
4799.00,0.75
4798.00,0.75
4797.00,0.75
4796.00,0.75
4795.00,0.75
4794.00,0.75
4793.00,0.75
4792.00,0.75
4791.00,0.76
4790.00,0.76
4789.00,0.76
4788.00,0.76
4787.00,0.76
4786.00,0.76
4785.00,0.76
4784.00,0.76
4783.00,0.76
4782.00,0.76
4781.00,0.76
4780.00,0.76
4779.00,0.77
4778.00,0.77
4777.00,0.77
4776.00,0.77
4775.00,0.77
4774.00,0.77
4773.00,0.77
4772.00,0.77
4771.00,0.78
4770.00,0.78
4769.00,0.78
4768.00,0.78
4767.00,0.78
4766.00,0.78
4765.00,0.78
4764.00,0.78
4763.00,0.78
4762.00,0.78
4761.00,0.78
4760.00,0.78
4759.00,0.79
4758.00,0.79
4757.00,0.79
4756.00,0.79
4755.00,0.79
4754.00,0.79
4753.00,0.79
4752.00,0.79
4751.00,0.79
4750.00,0.79
4749.00,0.79
4748.00,0.79
4747.00,0.79
4746.00,0.79
4745.00,0.79
4744.00,0.79
4743.00,0.80
4742.00,0.80
4741.00,0.80
4740.00,0.80
4739.00,0.80
4738.00,0.80
4737.00,0.80
4736.00,0.80
4735.00,0.80
4734.00,0.81
4733.00,0.81
4732.00,0.81
4731.00,0.81
4730.00,0.81
4729.00,0.81
4728.00,0.81
4727.00,0.81
4726.00,0.81
4725.00,0.82
4724.00,0.82
4723.00,0.82
4722.00,0.82
4721.00,0.82
4720.00,0.82
4719.00,0.82
4718.00,0.82
4717.00,0.82
4716.00,0.83
4715.00,0.83
4714.00,0.83
4713.00,0.83
4712.00,0.83
4711.00,0.83
4710.00,0.83
4709.00,0.83
4708.00,0.84
4707.00,0.84
4706.00,0.84
4705.00,0.84
4704.00,0.84
4703.00,0.84
4702.00,0.84
4701.00,0.84
4700.00,0.85
4699.00,0.85
4698.00,0.85
4697.00,0.85
4696.00,0.85
4695.00,0.85
4694.00,0.85
4693.00,0.85
4692.00,0.85
4691.00,0.86
4690.00,0.86
4689.00,0.86
4688.00,0.86
4687.00,0.86
4686.00,0.86
4685.00,0.86
4684.00,0.86
4683.00,0.86
4682.00,0.86
4681.00,0.86
4680.00,0.86
4679.00,0.87
4678.00,0.87
4677.00,0.87
4676.00,0.87
4675.00,0.87
4674.00,0.87
4673.00,0.87
4672.00,0.87
4671.00,0.87
4670.00,0.87
4669.00,0.87
4668.00,0.87
4667.00,0.87
4666.00,0.87
4665.00,0.88
4664.00,0.88
4663.00,0.88
4662.00,0.88
4661.00,0.88
4660.00,0.88
4659.00,0.88
4658.00,0.88
4657.00,0.88
4656.00,0.88
4655.00,0.89
4654.00,0.89
4653.00,0.89
4652.00,0.89
4651.00,0.89
4650.00,0.89
4649.00,0.89
4648.00,0.89
4647.00,0.89
4646.00,0.89
4645.00,0.90
4644.00,0.90
4643.00,0.90
4642.00,0.90
4641.00,0.90
4640.00,0.90
4639.00,0.90
4638.00,0.90
4637.00,0.90
4636.00,0.90
4635.00,0.90
4634.00,0.90
4633.00,0.90
4632.00,0.90
4631.00,0.90
4630.00,0.90
4629.00,0.90
4628.00,0.90
4627.00,0.90
4626.00,0.90
4625.00,0.90
4624.00,0.90
4623.00,0.90
4622.00,0.91
4621.00,0.91
4620.00,0.91
4619.00,0.91
4618.00,0.91
4617.00,0.91
4616.00,0.91
4615.00,0.91
4614.00,0.91
4613.00,0.91
4612.00,0.91
4611.00,0.91
4610.00,0.91
4609.00,0.91
4608.00,0.91
4607.00,0.92
4606.00,0.92
4605.00,0.92
4604.00,0.92
4603.00,0.92
4602.00,0.92
4601.00,0.92
4600.00,0.92
4599.00,0.93
4598.00,0.93
4597.00,0.93
4596.00,0.93
4595.00,0.93
4594.00,0.93
4593.00,0.93
4592.00,0.93
4591.00,0.93
4590.00,0.93
4589.00,0.94
4588.00,0.94
4587.00,0.94
4586.00,0.94
4585.00,0.94
4584.00,0.94
4583.00,0.94
4582.00,0.94
4581.00,0.94
4580.00,0.94
4579.00,0.94
4578.00,0.94
4577.00,0.94
4576.00,0.94
4575.00,0.94
4574.00,0.94
4573.00,0.94
4572.00,0.94
4571.00,0.94
4570.00,0.95
4569.00,0.95
4568.00,0.95
4567.00,0.95
4566.00,0.95
4565.00,0.95
4564.00,0.95
4563.00,0.95
4562.00,0.95
4561.00,0.95
4560.00,0.95
4559.00,0.95
4558.00,0.95
4557.00,0.95
4556.00,0.95
4555.00,0.96
4554.00,0.96
4553.00,0.96
4552.00,0.96
4551.00,0.96
4550.00,0.96
4549.00,0.96
4548.00,0.96
4547.00,0.96
4546.00,0.96
4545.00,0.96
4544.00,0.96
4543.00,0.96
4542.00,0.96
4541.00,0.96
4540.00,0.97
4539.00,0.97
4538.00,0.97
4537.00,0.97
4536.00,0.97
4535.00,0.97
4534.00,0.97
4533.00,0.97
4532.00,0.97
4531.00,0.97
4530.00,0.97
4529.00,0.97
4528.00,0.97
4527.00,0.97
4526.00,0.97
4525.00,0.97
4524.00,0.97
4523.00,0.97
4522.00,0.97
4521.00,0.97
4520.00,0.97
4519.00,0.97
4518.00,0.98
4517.00,0.98
4516.00,0.98
4515.00,0.98
4514.00,0.98
4513.00,0.98
4512.00,0.98
4511.00,0.98
4510.00,0.98
4509.00,0.98
4508.00,0.98
4507.00,0.98
4506.00,0.97
4505.00,0.97
4504.00,0.97
4503.00,0.97
4502.00,0.97
4501.00,0.97
4500.00,0.97
4499.00,0.97
4498.00,0.97
4497.00,0.97
4496.00,0.97
4495.00,0.97
4494.00,0.97
4493.00,0.97
4492.00,0.97
4491.00,0.97
4490.00,0.96
4489.00,0.96
4488.00,0.96
4487.00,0.96
4486.00,0.96
4485.00,0.96
4484.00,0.96
4483.00,0.96
4482.00,0.96
4481.00,0.96
4480.00,0.96
4479.00,0.95
4478.00,0.95
4477.00,0.95
4476.00,0.95
4475.00,0.95
4474.00,0.95
4473.00,0.95
4472.00,0.95
4471.00,0.94
4470.00,0.94
4469.00,0.94
4468.00,0.94
4467.00,0.94
4466.00,0.94
4465.00,0.94
4464.00,0.93
4463.00,0.93
4462.00,0.93
4461.00,0.93
4460.00,0.93
4459.00,0.93
4458.00,0.93
4457.00,0.92
4456.00,0.92
4455.00,0.92
4454.00,0.92
4453.00,0.92
4452.00,0.91
4451.00,0.91
4450.00,0.91
4449.00,0.91
4448.00,0.90
4447.00,0.90
4446.00,0.90
4445.00,0.89
4444.00,0.89
4443.00,0.89
4442.00,0.89
4441.00,0.88
4440.00,0.88
4439.00,0.88
4438.00,0.88
4437.00,0.88
4436.00,0.87
4435.00,0.87
4434.00,0.87
4433.00,0.87
4432.00,0.87
4431.00,0.87
4430.00,0.87
4429.00,0.87
4428.00,0.87
4427.00,0.87
4426.00,0.86
4425.00,0.86
4424.00,0.86
4423.00,0.86
4422.00,0.86
4421.00,0.86
4420.00,0.86
4419.00,0.86
4418.00,0.86
4417.00,0.86
4416.00,0.86
4415.00,0.86
4414.00,0.86
4413.00,0.86
4412.00,0.86
4411.00,0.86
4410.00,0.86
4409.00,0.86
4408.00,0.86
4407.00,0.86
4406.00,0.86
4405.00,0.86
4404.00,0.86
4403.00,0.86
4402.00,0.86
4401.00,0.86
4400.00,0.86
4399.00,0.86
4398.00,0.87
4397.00,0.87
4396.00,0.87
4395.00,0.87
4394.00,0.87
4393.00,0.87
4392.00,0.87
4391.00,0.88
4390.00,0.88
4389.00,0.88
4388.00,0.88
4387.00,0.88
4386.00,0.88
4385.00,0.88
4384.00,0.89
4383.00,0.89
4382.00,0.89
4381.00,0.89
4380.00,0.89
4379.00,0.89
4378.00,0.89
4377.00,0.89
4376.00,0.89
4375.00,0.89
4374.00,0.89
4373.00,0.89
4372.00,0.89
4371.00,0.89
4370.00,0.89
4369.00,0.89
4368.00,0.89
4367.00,0.89
4366.00,0.89
4365.00,0.89
4364.00,0.89
4363.00,0.89
4362.00,0.88
4361.00,0.88
4360.00,0.88
4359.00,0.88
4358.00,0.88
4357.00,0.88
4356.00,0.88
4355.00,0.88
4354.00,0.88
4353.00,0.88
4352.00,0.88
4351.00,0.88
4350.00,0.88
4349.00,0.88
4348.00,0.88
4347.00,0.88
4346.00,0.89
4345.00,0.89
4344.00,0.89
4343.00,0.89
4342.00,0.89
4341.00,0.89
4340.00,0.89
4339.00,0.89
4338.00,0.89
4337.00,0.89
4336.00,0.89
4335.00,0.89
4334.00,0.89
4333.00,0.89
4332.00,0.89
4331.00,0.89
4330.00,0.89
4329.00,0.89
4328.00,0.89
4327.00,0.90
4326.00,0.90
4325.00,0.90
4324.00,0.90
4323.00,0.90
4322.00,0.90
4321.00,0.90
4320.00,0.90
4319.00,0.90
4318.00,0.90
4317.00,0.90
4316.00,0.90
4315.00,0.90
4314.00,0.91
4313.00,0.91
4312.00,0.91
4311.00,0.91
4310.00,0.91
4309.00,0.91
4308.00,0.91
4307.00,0.91
4306.00,0.91
4305.00,0.92
4304.00,0.92
4303.00,0.92
4302.00,0.92
4301.00,0.92
4300.00,0.92
4299.00,0.92
4298.00,0.92
4297.00,0.92
4296.00,0.92
4295.00,0.92
4294.00,0.93
4293.00,0.93
4292.00,0.93
4291.00,0.93
4290.00,0.93
4289.00,0.93
4288.00,0.93
4287.00,0.93
4286.00,0.93
4285.00,0.93
4284.00,0.93
4283.00,0.93
4282.00,0.93
4281.00,0.93
4280.00,0.93
4279.00,0.93
4278.00,0.93
4277.00,0.93
4276.00,0.93
4275.00,0.93
4274.00,0.93
4273.00,0.93
4272.00,0.93
4271.00,0.93
4270.00,0.93
4269.00,0.93
4268.00,0.93
4267.00,0.93
4266.00,0.93
4265.00,0.93
4264.00,0.93
4263.00,0.93
4262.00,0.93
4261.00,0.93
4260.00,0.93
4259.00,0.93
4258.00,0.93
4257.00,0.93
4256.00,0.93
4255.00,0.93
4254.00,0.93
4253.00,0.93
4252.00,0.93
4251.00,0.93
4250.00,0.93
4249.00,0.93
4248.00,0.94
4247.00,0.94
4246.00,0.94
4245.00,0.94
4244.00,0.94
4243.00,0.94
4242.00,0.94
4241.00,0.95
4240.00,0.95
4239.00,0.95
4238.00,0.95
4237.00,0.95
4236.00,0.95
4235.00,0.96
4234.00,0.96
4233.00,0.96
4232.00,0.96
4231.00,0.96
4230.00,0.96
4229.00,0.96
4228.00,0.96
4227.00,0.96
4226.00,0.96
4225.00,0.97
4224.00,0.97
4223.00,0.97
4222.00,0.97
4221.00,0.97
4220.00,0.97
4219.00,0.97
4218.00,0.97
4217.00,0.97
4216.00,0.97
4215.00,0.97
4214.00,0.97
4213.00,0.97
4212.00,0.97
4211.00,0.97
4210.00,0.97
4209.00,0.97
4208.00,0.97
4207.00,0.97
4206.00,0.97
4205.00,0.97
4204.00,0.97
4203.00,0.97
4202.00,0.97
4201.00,0.97
4200.00,0.97
4199.00,0.98
4198.00,0.98
4197.00,0.98
4196.00,0.98
4195.00,0.98
4194.00,0.98
4193.00,0.98
4192.00,0.98
4191.00,0.98
4190.00,0.98
4189.00,0.98
4188.00,0.98
4187.00,0.98
4186.00,0.98
4185.00,0.98
4184.00,0.98
4183.00,0.98
4182.00,0.98
4181.00,0.98
4180.00,0.98
4179.00,0.98
4178.00,0.98
4177.00,0.98
4176.00,0.98
4175.00,0.98
4174.00,0.98
4173.00,0.98
4172.00,0.98
4171.00,0.98
4170.00,0.98
4169.00,0.98
4168.00,0.98
4167.00,0.98
4166.00,0.98
4165.00,0.98
4164.00,0.98
4163.00,0.98
4162.00,0.98
4161.00,0.98
4160.00,0.98
4159.00,0.98
4158.00,0.98
4157.00,0.98
4156.00,0.98
4155.00,0.98
4154.00,0.98
4153.00,0.98
4152.00,0.98
4151.00,0.98
4150.00,0.98
4149.00,0.98
4148.00,0.98
4147.00,0.98
4146.00,0.98
4145.00,0.98
4144.00,0.98
4143.00,0.99
4142.00,0.99
4141.00,0.99
4140.00,0.99
4139.00,0.99
4138.00,0.99
4137.00,0.99
4136.00,0.99
4135.00,0.99
4134.00,0.99
4133.00,0.99
4132.00,0.99
4131.00,0.99
4130.00,0.99
4129.00,0.99
4128.00,0.99
4127.00,0.99
4126.00,0.99
4125.00,0.99
4124.00,0.99
4123.00,0.99
4122.00,1.00
4121.00,1.00
4120.00,1.00
4119.00,1.00
4118.00,1.00
4117.00,1.00
4116.00,1.00
4115.00,1.00
4114.00,1.00
4113.00,1.00
4112.00,1.00
4111.00,1.00
4110.00,1.00
4109.00,1.00
4108.00,1.00
4107.00,1.00
4106.00,1.00
4105.00,1.00
4104.00,1.01
4103.00,1.01
4102.00,1.01
4101.00,1.01
4100.00,1.01
4099.00,1.01
4098.00,1.01
4097.00,1.01
4096.00,1.01
4095.00,1.01
4094.00,1.01
4093.00,1.01
4092.00,1.01
4091.00,1.01
4090.00,1.01
4089.00,1.01
4088.00,1.01
4087.00,1.01
4086.00,1.01
4085.00,1.01
4084.00,1.01
4083.00,1.01
4082.00,1.01
4081.00,1.01
4080.00,1.01
4079.00,1.01
4078.00,1.01
4077.00,1.00
4076.00,1.00
4075.00,1.00
4074.00,1.00
4073.00,1.00
4072.00,1.00
4071.00,1.00
4070.00,1.00
4069.00,1.00
4068.00,1.00
4067.00,1.00
4066.00,1.00
4065.00,1.00
4064.00,1.00
4063.00,1.01
4062.00,1.01
4061.00,1.01
4060.00,1.01
4059.00,1.01
4058.00,1.01
4057.00,1.01
4056.00,1.01
4055.00,1.02
4054.00,1.02
4053.00,1.02
4052.00,1.02
4051.00,1.02
4050.00,1.02
4049.00,1.02
4048.00,1.03
4047.00,1.03
4046.00,1.03
4045.00,1.03
4044.00,1.03
4043.00,1.03
4042.00,1.04
4041.00,1.04
4040.00,1.04
4039.00,1.04
4038.00,1.04
4037.00,1.04
4036.00,1.04
4035.00,1.03
4034.00,1.03
4033.00,1.03
4032.00,1.03
4031.00,1.03
4030.00,1.03
4029.00,1.03
4028.00,1.03
4027.00,1.03
4026.00,1.03
4025.00,1.03
4024.00,1.03
4023.00,1.03
4022.00,1.03
4021.00,1.03
4020.00,1.03
4019.00,1.04
4018.00,1.04
4017.00,1.04
4016.00,1.04
4015.00,1.04
4014.00,1.04
4013.00,1.05
4012.00,1.05
4011.00,1.05
4010.00,1.05
4009.00,1.05
4008.00,1.05
4007.00,1.05
4006.00,1.05
4005.00,1.05
4004.00,1.05
4003.00,1.05
4002.00,1.05
4001.00,1.05
4000.00,1.05
