创建为新数据集,样品 354 用户 Administrator 日期 星期四, 三月 08 2018
cm-1,%T
10000.00,2.31
9999.00,2.31
9998.00,2.31
9997.00,2.31
9996.00,2.31
9995.00,2.31
9994.00,2.31
9993.00,2.31
9992.00,2.31
9991.00,2.31
9990.00,2.31
9989.00,2.31
9988.00,2.31
9987.00,2.31
9986.00,2.31
9985.00,2.31
9984.00,2.31
9983.00,2.31
9982.00,2.31
9981.00,2.31
9980.00,2.31
9979.00,2.31
9978.00,2.31
9977.00,2.31
9976.00,2.31
9975.00,2.31
9974.00,2.31
9973.00,2.31
9972.00,2.31
9971.00,2.31
9970.00,2.31
9969.00,2.31
9968.00,2.31
9967.00,2.31
9966.00,2.31
9965.00,2.31
9964.00,2.31
9963.00,2.31
9962.00,2.31
9961.00,2.31
9960.00,2.31
9959.00,2.31
9958.00,2.31
9957.00,2.31
9956.00,2.31
9955.00,2.31
9954.00,2.31
9953.00,2.31
9952.00,2.31
9951.00,2.31
9950.00,2.30
9949.00,2.30
9948.00,2.30
9947.00,2.30
9946.00,2.29
9945.00,2.29
9944.00,2.29
9943.00,2.28
9942.00,2.28
9941.00,2.27
9940.00,2.27
9939.00,2.27
9938.00,2.27
9937.00,2.26
9936.00,2.26
9935.00,2.26
9934.00,2.26
9933.00,2.26
9932.00,2.26
9931.00,2.26
9930.00,2.26
9929.00,2.26
9928.00,2.27
9927.00,2.27
9926.00,2.27
9925.00,2.27
9924.00,2.28
9923.00,2.28
9922.00,2.28
9921.00,2.28
9920.00,2.28
9919.00,2.29
9918.00,2.29
9917.00,2.29
9916.00,2.29
9915.00,2.29
9914.00,2.29
9913.00,2.29
9912.00,2.29
9911.00,2.29
9910.00,2.29
9909.00,2.29
9908.00,2.29
9907.00,2.29
9906.00,2.29
9905.00,2.30
9904.00,2.30
9903.00,2.30
9902.00,2.30
9901.00,2.30
9900.00,2.30
9899.00,2.31
9898.00,2.31
9897.00,2.31
9896.00,2.31
9895.00,2.31
9894.00,2.31
9893.00,2.31
9892.00,2.31
9891.00,2.31
9890.00,2.31
9889.00,2.31
9888.00,2.31
9887.00,2.31
9886.00,2.31
9885.00,2.30
9884.00,2.30
9883.00,2.30
9882.00,2.30
9881.00,2.30
9880.00,2.29
9879.00,2.29
9878.00,2.29
9877.00,2.29
9876.00,2.28
9875.00,2.28
9874.00,2.28
9873.00,2.28
9872.00,2.28
9871.00,2.27
9870.00,2.27
9869.00,2.27
9868.00,2.27
9867.00,2.27
9866.00,2.27
9865.00,2.27
9864.00,2.27
9863.00,2.27
9862.00,2.27
9861.00,2.27
9860.00,2.27
9859.00,2.27
9858.00,2.27
9857.00,2.27
9856.00,2.27
9855.00,2.27
9854.00,2.27
9853.00,2.27
9852.00,2.28
9851.00,2.28
9850.00,2.28
9849.00,2.28
9848.00,2.28
9847.00,2.28
9846.00,2.28
9845.00,2.28
9844.00,2.28
9843.00,2.28
9842.00,2.28
9841.00,2.28
9840.00,2.28
9839.00,2.28
9838.00,2.28
9837.00,2.28
9836.00,2.28
9835.00,2.29
9834.00,2.29
9833.00,2.29
9832.00,2.29
9831.00,2.29
9830.00,2.29
9829.00,2.29
9828.00,2.29
9827.00,2.29
9826.00,2.29
9825.00,2.29
9824.00,2.29
9823.00,2.29
9822.00,2.29
9821.00,2.28
9820.00,2.28
9819.00,2.28
9818.00,2.27
9817.00,2.27
9816.00,2.27
9815.00,2.27
9814.00,2.26
9813.00,2.26
9812.00,2.26
9811.00,2.26
9810.00,2.26
9809.00,2.26
9808.00,2.26
9807.00,2.26
9806.00,2.26
9805.00,2.26
9804.00,2.26
9803.00,2.26
9802.00,2.27
9801.00,2.27
9800.00,2.27
9799.00,2.28
9798.00,2.28
9797.00,2.29
9796.00,2.29
9795.00,2.29
9794.00,2.30
9793.00,2.30
9792.00,2.30
9791.00,2.31
9790.00,2.31
9789.00,2.31
9788.00,2.31
9787.00,2.31
9786.00,2.31
9785.00,2.31
9784.00,2.30
9783.00,2.30
9782.00,2.30
9781.00,2.29
9780.00,2.29
9779.00,2.28
9778.00,2.28
9777.00,2.28
9776.00,2.27
9775.00,2.27
9774.00,2.26
9773.00,2.26
9772.00,2.25
9771.00,2.25
9770.00,2.25
9769.00,2.24
9768.00,2.24
9767.00,2.24
9766.00,2.24
9765.00,2.24
9764.00,2.24
9763.00,2.23
9762.00,2.24
9761.00,2.24
9760.00,2.24
9759.00,2.24
9758.00,2.24
9757.00,2.25
9756.00,2.25
9755.00,2.25
9754.00,2.26
9753.00,2.26
9752.00,2.27
9751.00,2.27
9750.00,2.28
9749.00,2.29
9748.00,2.29
9747.00,2.29
9746.00,2.30
9745.00,2.30
9744.00,2.30
9743.00,2.31
9742.00,2.31
9741.00,2.31
9740.00,2.31
9739.00,2.31
9738.00,2.31
9737.00,2.31
9736.00,2.31
9735.00,2.31
9734.00,2.30
9733.00,2.30
9732.00,2.30
9731.00,2.30
9730.00,2.30
9729.00,2.30
9728.00,2.29
9727.00,2.29
9726.00,2.29
9725.00,2.29
9724.00,2.29
9723.00,2.29
9722.00,2.29
9721.00,2.29
9720.00,2.29
9719.00,2.29
9718.00,2.29
9717.00,2.29
9716.00,2.29
9715.00,2.29
9714.00,2.28
9713.00,2.28
9712.00,2.28
9711.00,2.28
9710.00,2.28
9709.00,2.28
9708.00,2.28
9707.00,2.28
9706.00,2.27
9705.00,2.27
9704.00,2.27
9703.00,2.27
9702.00,2.27
9701.00,2.27
9700.00,2.27
9699.00,2.27
9698.00,2.27
9697.00,2.27
9696.00,2.27
9695.00,2.28
9694.00,2.28
9693.00,2.28
9692.00,2.28
9691.00,2.28
9690.00,2.28
9689.00,2.28
9688.00,2.28
9687.00,2.28
9686.00,2.28
9685.00,2.28
9684.00,2.28
9683.00,2.28
9682.00,2.28
9681.00,2.28
9680.00,2.28
9679.00,2.28
9678.00,2.28
9677.00,2.28
9676.00,2.28
9675.00,2.28
9674.00,2.28
9673.00,2.28
9672.00,2.28
9671.00,2.28
9670.00,2.28
9669.00,2.28
9668.00,2.28
9667.00,2.29
9666.00,2.29
9665.00,2.29
9664.00,2.29
9663.00,2.29
9662.00,2.29
9661.00,2.29
9660.00,2.29
9659.00,2.29
9658.00,2.29
9657.00,2.29
9656.00,2.29
9655.00,2.29
9654.00,2.28
9653.00,2.28
9652.00,2.28
9651.00,2.28
9650.00,2.27
9649.00,2.27
9648.00,2.27
9647.00,2.27
9646.00,2.27
9645.00,2.27
9644.00,2.26
9643.00,2.26
9642.00,2.26
9641.00,2.26
9640.00,2.26
9639.00,2.27
9638.00,2.27
9637.00,2.27
9636.00,2.27
9635.00,2.27
9634.00,2.28
9633.00,2.28
9632.00,2.28
9631.00,2.28
9630.00,2.29
9629.00,2.29
9628.00,2.29
9627.00,2.29
9626.00,2.29
9625.00,2.29
9624.00,2.29
9623.00,2.29
9622.00,2.29
9621.00,2.29
9620.00,2.29
9619.00,2.29
9618.00,2.29
9617.00,2.29
9616.00,2.28
9615.00,2.28
9614.00,2.28
9613.00,2.28
9612.00,2.28
9611.00,2.28
9610.00,2.28
9609.00,2.28
9608.00,2.28
9607.00,2.28
9606.00,2.28
9605.00,2.28
9604.00,2.29
9603.00,2.29
9602.00,2.29
9601.00,2.29
9600.00,2.29
9599.00,2.30
9598.00,2.30
9597.00,2.30
9596.00,2.30
9595.00,2.30
9594.00,2.30
9593.00,2.30
9592.00,2.30
9591.00,2.30
9590.00,2.30
9589.00,2.30
9588.00,2.30
9587.00,2.30
9586.00,2.30
9585.00,2.30
9584.00,2.30
9583.00,2.30
9582.00,2.30
9581.00,2.30
9580.00,2.30
9579.00,2.30
9578.00,2.30
9577.00,2.30
9576.00,2.30
9575.00,2.30
9574.00,2.30
9573.00,2.29
9572.00,2.29
9571.00,2.29
9570.00,2.29
9569.00,2.29
9568.00,2.29
9567.00,2.28
9566.00,2.28
9565.00,2.28
9564.00,2.27
9563.00,2.27
9562.00,2.27
9561.00,2.26
9560.00,2.26
9559.00,2.26
9558.00,2.25
9557.00,2.25
9556.00,2.25
9555.00,2.24
9554.00,2.24
9553.00,2.24
9552.00,2.24
9551.00,2.24
9550.00,2.25
9549.00,2.25
9548.00,2.25
9547.00,2.25
9546.00,2.26
9545.00,2.26
9544.00,2.27
9543.00,2.27
9542.00,2.27
9541.00,2.28
9540.00,2.28
9539.00,2.29
9538.00,2.29
9537.00,2.29
9536.00,2.30
9535.00,2.30
9534.00,2.30
9533.00,2.30
9532.00,2.30
9531.00,2.30
9530.00,2.30
9529.00,2.30
9528.00,2.30
9527.00,2.30
9526.00,2.29
9525.00,2.29
9524.00,2.29
9523.00,2.29
9522.00,2.28
9521.00,2.28
9520.00,2.28
9519.00,2.27
9518.00,2.27
9517.00,2.27
9516.00,2.27
9515.00,2.27
9514.00,2.26
9513.00,2.26
9512.00,2.26
9511.00,2.26
9510.00,2.26
9509.00,2.26
9508.00,2.26
9507.00,2.27
9506.00,2.27
9505.00,2.27
9504.00,2.27
9503.00,2.27
9502.00,2.27
9501.00,2.28
9500.00,2.28
9499.00,2.28
9498.00,2.28
9497.00,2.28
9496.00,2.28
9495.00,2.28
9494.00,2.28
9493.00,2.28
9492.00,2.28
9491.00,2.28
9490.00,2.28
9489.00,2.28
9488.00,2.28
9487.00,2.28
9486.00,2.28
9485.00,2.27
9484.00,2.27
9483.00,2.27
9482.00,2.27
9481.00,2.27
9480.00,2.27
9479.00,2.27
9478.00,2.27
9477.00,2.27
9476.00,2.27
9475.00,2.27
9474.00,2.27
9473.00,2.27
9472.00,2.27
9471.00,2.27
9470.00,2.27
9469.00,2.27
9468.00,2.27
9467.00,2.27
9466.00,2.27
9465.00,2.27
9464.00,2.27
9463.00,2.27
9462.00,2.27
9461.00,2.27
9460.00,2.27
9459.00,2.27
9458.00,2.27
9457.00,2.27
9456.00,2.27
9455.00,2.27
9454.00,2.27
9453.00,2.27
9452.00,2.27
9451.00,2.27
9450.00,2.27
9449.00,2.27
9448.00,2.27
9447.00,2.27
9446.00,2.27
9445.00,2.27
9444.00,2.27
9443.00,2.27
9442.00,2.27
9441.00,2.27
9440.00,2.27
9439.00,2.27
9438.00,2.27
9437.00,2.27
9436.00,2.27
9435.00,2.27
9434.00,2.27
9433.00,2.27
9432.00,2.27
9431.00,2.27
9430.00,2.27
9429.00,2.27
9428.00,2.27
9427.00,2.28
9426.00,2.28
9425.00,2.28
9424.00,2.28
9423.00,2.28
9422.00,2.28
9421.00,2.28
9420.00,2.28
9419.00,2.28
9418.00,2.28
9417.00,2.29
9416.00,2.29
9415.00,2.29
9414.00,2.28
9413.00,2.28
9412.00,2.28
9411.00,2.28
9410.00,2.28
9409.00,2.28
9408.00,2.28
9407.00,2.28
9406.00,2.27
9405.00,2.27
9404.00,2.27
9403.00,2.27
9402.00,2.27
9401.00,2.26
9400.00,2.26
9399.00,2.26
9398.00,2.26
9397.00,2.26
9396.00,2.26
9395.00,2.26
9394.00,2.26
9393.00,2.26
9392.00,2.26
9391.00,2.26
9390.00,2.26
9389.00,2.26
9388.00,2.26
9387.00,2.26
9386.00,2.26
9385.00,2.26
9384.00,2.27
9383.00,2.27
9382.00,2.27
9381.00,2.27
9380.00,2.28
9379.00,2.28
9378.00,2.28
9377.00,2.28
9376.00,2.29
9375.00,2.29
9374.00,2.29
9373.00,2.29
9372.00,2.29
9371.00,2.30
9370.00,2.30
9369.00,2.30
9368.00,2.30
9367.00,2.30
9366.00,2.30
9365.00,2.30
9364.00,2.30
9363.00,2.30
9362.00,2.30
9361.00,2.30
9360.00,2.30
9359.00,2.30
9358.00,2.30
9357.00,2.29
9356.00,2.29
9355.00,2.28
9354.00,2.28
9353.00,2.27
9352.00,2.27
9351.00,2.27
9350.00,2.26
9349.00,2.26
9348.00,2.25
9347.00,2.25
9346.00,2.25
9345.00,2.24
9344.00,2.24
9343.00,2.24
9342.00,2.24
9341.00,2.24
9340.00,2.24
9339.00,2.24
9338.00,2.24
9337.00,2.24
9336.00,2.24
9335.00,2.24
9334.00,2.25
9333.00,2.25
9332.00,2.25
9331.00,2.25
9330.00,2.25
9329.00,2.25
9328.00,2.25
9327.00,2.25
9326.00,2.25
9325.00,2.25
9324.00,2.25
9323.00,2.25
9322.00,2.25
9321.00,2.26
9320.00,2.26
9319.00,2.26
9318.00,2.26
9317.00,2.26
9316.00,2.26
9315.00,2.26
9314.00,2.26
9313.00,2.26
9312.00,2.26
9311.00,2.26
9310.00,2.26
9309.00,2.26
9308.00,2.26
9307.00,2.27
9306.00,2.27
9305.00,2.27
9304.00,2.27
9303.00,2.27
9302.00,2.27
9301.00,2.27
9300.00,2.27
9299.00,2.28
9298.00,2.28
9297.00,2.28
9296.00,2.28
9295.00,2.28
9294.00,2.29
9293.00,2.29
9292.00,2.29
9291.00,2.29
9290.00,2.29
9289.00,2.30
9288.00,2.30
9287.00,2.30
9286.00,2.30
9285.00,2.30
9284.00,2.30
9283.00,2.30
9282.00,2.30
9281.00,2.30
9280.00,2.30
9279.00,2.30
9278.00,2.30
9277.00,2.29
9276.00,2.29
9275.00,2.29
9274.00,2.29
9273.00,2.29
9272.00,2.29
9271.00,2.29
9270.00,2.29
9269.00,2.29
9268.00,2.29
9267.00,2.29
9266.00,2.29
9265.00,2.29
9264.00,2.29
9263.00,2.29
9262.00,2.29
9261.00,2.29
9260.00,2.29
9259.00,2.29
9258.00,2.29
9257.00,2.29
9256.00,2.29
9255.00,2.29
9254.00,2.29
9253.00,2.29
9252.00,2.29
9251.00,2.29
9250.00,2.29
9249.00,2.29
9248.00,2.29
9247.00,2.29
9246.00,2.29
9245.00,2.29
9244.00,2.29
9243.00,2.29
9242.00,2.29
9241.00,2.29
9240.00,2.29
9239.00,2.29
9238.00,2.29
9237.00,2.29
9236.00,2.29
9235.00,2.29
9234.00,2.29
9233.00,2.29
9232.00,2.29
9231.00,2.29
9230.00,2.29
9229.00,2.29
9228.00,2.29
9227.00,2.29
9226.00,2.30
9225.00,2.30
9224.00,2.30
9223.00,2.30
9222.00,2.30
9221.00,2.30
9220.00,2.30
9219.00,2.30
9218.00,2.30
9217.00,2.30
9216.00,2.30
9215.00,2.29
9214.00,2.29
9213.00,2.29
9212.00,2.29
9211.00,2.29
9210.00,2.29
9209.00,2.29
9208.00,2.29
9207.00,2.28
9206.00,2.28
9205.00,2.28
9204.00,2.28
9203.00,2.28
9202.00,2.28
9201.00,2.28
9200.00,2.29
9199.00,2.29
9198.00,2.29
9197.00,2.29
9196.00,2.29
9195.00,2.29
9194.00,2.29
9193.00,2.29
9192.00,2.29
9191.00,2.30
9190.00,2.30
9189.00,2.30
9188.00,2.30
9187.00,2.30
9186.00,2.29
9185.00,2.29
9184.00,2.29
9183.00,2.29
9182.00,2.29
9181.00,2.29
9180.00,2.29
9179.00,2.29
9178.00,2.29
9177.00,2.29
9176.00,2.29
9175.00,2.29
9174.00,2.29
9173.00,2.29
9172.00,2.29
9171.00,2.29
9170.00,2.29
9169.00,2.29
9168.00,2.29
9167.00,2.29
9166.00,2.29
9165.00,2.29
9164.00,2.29
9163.00,2.30
9162.00,2.30
9161.00,2.30
9160.00,2.30
9159.00,2.30
9158.00,2.30
9157.00,2.30
9156.00,2.31
9155.00,2.31
9154.00,2.31
9153.00,2.31
9152.00,2.31
9151.00,2.31
9150.00,2.31
9149.00,2.31
9148.00,2.31
9147.00,2.31
9146.00,2.31
9145.00,2.31
9144.00,2.31
9143.00,2.31
9142.00,2.31
9141.00,2.31
9140.00,2.31
9139.00,2.31
9138.00,2.31
9137.00,2.30
9136.00,2.30
9135.00,2.30
9134.00,2.30
9133.00,2.29
9132.00,2.29
9131.00,2.29
9130.00,2.29
9129.00,2.28
9128.00,2.28
9127.00,2.28
9126.00,2.27
9125.00,2.27
9124.00,2.27
9123.00,2.27
9122.00,2.27
9121.00,2.27
9120.00,2.27
9119.00,2.27
9118.00,2.27
9117.00,2.27
9116.00,2.27
9115.00,2.27
9114.00,2.27
9113.00,2.27
9112.00,2.27
9111.00,2.27
9110.00,2.27
9109.00,2.28
9108.00,2.28
9107.00,2.28
9106.00,2.28
9105.00,2.28
9104.00,2.28
9103.00,2.28
9102.00,2.28
9101.00,2.28
9100.00,2.28
9099.00,2.28
9098.00,2.28
9097.00,2.28
9096.00,2.28
9095.00,2.28
9094.00,2.28
9093.00,2.28
9092.00,2.29
9091.00,2.29
9090.00,2.29
9089.00,2.29
9088.00,2.29
9087.00,2.29
9086.00,2.28
9085.00,2.28
9084.00,2.28
9083.00,2.28
9082.00,2.28
9081.00,2.28
9080.00,2.28
9079.00,2.28
9078.00,2.28
9077.00,2.28
9076.00,2.28
9075.00,2.28
9074.00,2.28
9073.00,2.28
9072.00,2.28
9071.00,2.28
9070.00,2.28
9069.00,2.28
9068.00,2.28
9067.00,2.28
9066.00,2.29
9065.00,2.29
9064.00,2.29
9063.00,2.29
9062.00,2.29
9061.00,2.29
9060.00,2.29
9059.00,2.29
9058.00,2.29
9057.00,2.29
9056.00,2.29
9055.00,2.29
9054.00,2.29
9053.00,2.29
9052.00,2.29
9051.00,2.29
9050.00,2.29
9049.00,2.29
9048.00,2.29
9047.00,2.29
9046.00,2.29
9045.00,2.29
9044.00,2.29
9043.00,2.29
9042.00,2.29
9041.00,2.29
9040.00,2.28
9039.00,2.28
9038.00,2.28
9037.00,2.28
9036.00,2.28
9035.00,2.29
9034.00,2.29
9033.00,2.29
9032.00,2.29
9031.00,2.29
9030.00,2.29
9029.00,2.30
9028.00,2.30
9027.00,2.30
9026.00,2.30
9025.00,2.30
9024.00,2.30
9023.00,2.30
9022.00,2.30
9021.00,2.30
9020.00,2.30
9019.00,2.30
9018.00,2.30
9017.00,2.30
9016.00,2.30
9015.00,2.30
9014.00,2.30
9013.00,2.30
9012.00,2.30
9011.00,2.30
9010.00,2.30
9009.00,2.30
9008.00,2.30
9007.00,2.30
9006.00,2.30
9005.00,2.29
9004.00,2.29
9003.00,2.29
9002.00,2.29
9001.00,2.29
9000.00,2.29
8999.00,2.29
8998.00,2.29
8997.00,2.29
8996.00,2.29
8995.00,2.29
8994.00,2.29
8993.00,2.28
8992.00,2.28
8991.00,2.28
8990.00,2.28
8989.00,2.28
8988.00,2.28
8987.00,2.28
8986.00,2.28
8985.00,2.28
8984.00,2.28
8983.00,2.28
8982.00,2.28
8981.00,2.28
8980.00,2.28
8979.00,2.28
8978.00,2.28
8977.00,2.28
8976.00,2.28
8975.00,2.28
8974.00,2.28
8973.00,2.28
8972.00,2.28
8971.00,2.28
8970.00,2.28
8969.00,2.28
8968.00,2.28
8967.00,2.28
8966.00,2.28
8965.00,2.29
8964.00,2.29
8963.00,2.29
8962.00,2.29
8961.00,2.29
8960.00,2.29
8959.00,2.29
8958.00,2.29
8957.00,2.30
8956.00,2.30
8955.00,2.30
8954.00,2.30
8953.00,2.30
8952.00,2.31
8951.00,2.31
8950.00,2.31
8949.00,2.31
8948.00,2.31
8947.00,2.31
8946.00,2.31
8945.00,2.31
8944.00,2.31
8943.00,2.31
8942.00,2.31
8941.00,2.31
8940.00,2.31
8939.00,2.31
8938.00,2.30
8937.00,2.30
8936.00,2.30
8935.00,2.30
8934.00,2.30
8933.00,2.30
8932.00,2.29
8931.00,2.29
8930.00,2.29
8929.00,2.29
8928.00,2.29
8927.00,2.29
8926.00,2.28
8925.00,2.28
8924.00,2.28
8923.00,2.28
8922.00,2.28
8921.00,2.28
8920.00,2.28
8919.00,2.28
8918.00,2.28
8917.00,2.28
8916.00,2.28
8915.00,2.28
8914.00,2.28
8913.00,2.28
8912.00,2.29
8911.00,2.29
8910.00,2.29
8909.00,2.29
8908.00,2.29
8907.00,2.29
8906.00,2.29
8905.00,2.29
8904.00,2.29
8903.00,2.29
8902.00,2.29
8901.00,2.29
8900.00,2.29
8899.00,2.29
8898.00,2.29
8897.00,2.29
8896.00,2.29
8895.00,2.29
8894.00,2.29
8893.00,2.28
8892.00,2.28
8891.00,2.28
8890.00,2.28
8889.00,2.28
8888.00,2.28
8887.00,2.28
8886.00,2.28
8885.00,2.28
8884.00,2.28
8883.00,2.28
8882.00,2.28
8881.00,2.28
8880.00,2.28
8879.00,2.28
8878.00,2.28
8877.00,2.29
8876.00,2.29
8875.00,2.29
8874.00,2.29
8873.00,2.29
8872.00,2.29
8871.00,2.29
8870.00,2.29
8869.00,2.29
8868.00,2.29
8867.00,2.29
8866.00,2.29
8865.00,2.29
8864.00,2.29
8863.00,2.28
8862.00,2.28
8861.00,2.28
8860.00,2.28
8859.00,2.28
8858.00,2.28
8857.00,2.28
8856.00,2.27
8855.00,2.27
8854.00,2.27
8853.00,2.27
8852.00,2.27
8851.00,2.27
8850.00,2.27
8849.00,2.27
8848.00,2.27
8847.00,2.27
8846.00,2.27
8845.00,2.27
8844.00,2.27
8843.00,2.27
8842.00,2.27
8841.00,2.27
8840.00,2.27
8839.00,2.27
8838.00,2.27
8837.00,2.27
8836.00,2.27
8835.00,2.27
8834.00,2.27
8833.00,2.27
8832.00,2.27
8831.00,2.28
8830.00,2.28
8829.00,2.28
8828.00,2.28
8827.00,2.28
8826.00,2.28
8825.00,2.28
8824.00,2.28
8823.00,2.27
8822.00,2.27
8821.00,2.27
8820.00,2.27
8819.00,2.27
8818.00,2.27
8817.00,2.26
8816.00,2.26
8815.00,2.26
8814.00,2.26
8813.00,2.25
8812.00,2.25
8811.00,2.25
8810.00,2.25
8809.00,2.25
8808.00,2.24
8807.00,2.24
8806.00,2.24
8805.00,2.24
8804.00,2.24
8803.00,2.24
8802.00,2.24
8801.00,2.23
8800.00,2.23
8799.00,2.23
8798.00,2.23
8797.00,2.23
8796.00,2.23
8795.00,2.23
8794.00,2.23
8793.00,2.23
8792.00,2.23
8791.00,2.23
8790.00,2.23
8789.00,2.23
8788.00,2.22
8787.00,2.22
8786.00,2.22
8785.00,2.22
8784.00,2.22
8783.00,2.22
8782.00,2.22
8781.00,2.22
8780.00,2.22
8779.00,2.21
8778.00,2.21
8777.00,2.21
8776.00,2.21
8775.00,2.21
8774.00,2.21
8773.00,2.21
8772.00,2.21
8771.00,2.20
8770.00,2.20
8769.00,2.20
8768.00,2.20
8767.00,2.20
8766.00,2.20
8765.00,2.20
8764.00,2.20
8763.00,2.20
8762.00,2.20
8761.00,2.20
8760.00,2.21
8759.00,2.21
8758.00,2.21
8757.00,2.21
8756.00,2.21
8755.00,2.22
8754.00,2.22
8753.00,2.22
8752.00,2.22
8751.00,2.22
8750.00,2.22
8749.00,2.22
8748.00,2.22
8747.00,2.22
8746.00,2.22
8745.00,2.22
8744.00,2.22
8743.00,2.22
8742.00,2.22
8741.00,2.21
8740.00,2.21
8739.00,2.21
8738.00,2.21
8737.00,2.21
8736.00,2.21
8735.00,2.21
8734.00,2.20
8733.00,2.20
8732.00,2.20
8731.00,2.20
8730.00,2.20
8729.00,2.20
8728.00,2.20
8727.00,2.20
8726.00,2.20
8725.00,2.19
8724.00,2.19
8723.00,2.19
8722.00,2.19
8721.00,2.19
8720.00,2.19
8719.00,2.19
8718.00,2.19
8717.00,2.19
8716.00,2.18
8715.00,2.18
8714.00,2.18
8713.00,2.18
8712.00,2.18
8711.00,2.18
8710.00,2.18
8709.00,2.18
8708.00,2.18
8707.00,2.18
8706.00,2.18
8705.00,2.18
8704.00,2.18
8703.00,2.18
8702.00,2.18
8701.00,2.18
8700.00,2.18
8699.00,2.18
8698.00,2.18
8697.00,2.18
8696.00,2.19
8695.00,2.19
8694.00,2.19
8693.00,2.19
8692.00,2.19
8691.00,2.19
8690.00,2.19
8689.00,2.19
8688.00,2.19
8687.00,2.19
8686.00,2.19
8685.00,2.18
8684.00,2.18
8683.00,2.18
8682.00,2.18
8681.00,2.18
8680.00,2.18
8679.00,2.18
8678.00,2.18
8677.00,2.18
8676.00,2.18
8675.00,2.18
8674.00,2.18
8673.00,2.17
8672.00,2.17
8671.00,2.17
8670.00,2.17
8669.00,2.17
8668.00,2.17
8667.00,2.17
8666.00,2.17
8665.00,2.17
8664.00,2.17
8663.00,2.17
8662.00,2.17
8661.00,2.17
8660.00,2.17
8659.00,2.16
8658.00,2.16
8657.00,2.16
8656.00,2.16
8655.00,2.16
8654.00,2.16
8653.00,2.16
8652.00,2.16
8651.00,2.15
8650.00,2.15
8649.00,2.15
8648.00,2.15
8647.00,2.15
8646.00,2.15
8645.00,2.15
8644.00,2.15
8643.00,2.15
8642.00,2.15
8641.00,2.15
8640.00,2.15
8639.00,2.15
8638.00,2.15
8637.00,2.15
8636.00,2.15
8635.00,2.15
8634.00,2.15
8633.00,2.15
8632.00,2.15
8631.00,2.15
8630.00,2.15
8629.00,2.15
8628.00,2.15
8627.00,2.15
8626.00,2.15
8625.00,2.15
8624.00,2.15
8623.00,2.15
8622.00,2.15
8621.00,2.15
8620.00,2.15
8619.00,2.15
8618.00,2.15
8617.00,2.15
8616.00,2.15
8615.00,2.14
8614.00,2.14
8613.00,2.14
8612.00,2.14
8611.00,2.14
8610.00,2.14
8609.00,2.14
8608.00,2.14
8607.00,2.13
8606.00,2.13
8605.00,2.13
8604.00,2.13
8603.00,2.13
8602.00,2.14
8601.00,2.14
8600.00,2.14
8599.00,2.14
8598.00,2.14
8597.00,2.14
8596.00,2.14
8595.00,2.14
8594.00,2.14
8593.00,2.14
8592.00,2.14
8591.00,2.14
8590.00,2.14
8589.00,2.14
8588.00,2.13
8587.00,2.13
8586.00,2.13
8585.00,2.13
8584.00,2.13
8583.00,2.13
8582.00,2.13
8581.00,2.13
8580.00,2.13
8579.00,2.13
8578.00,2.12
8577.00,2.12
8576.00,2.12
8575.00,2.12
8574.00,2.12
8573.00,2.12
8572.00,2.12
8571.00,2.11
8570.00,2.11
8569.00,2.11
8568.00,2.11
8567.00,2.11
8566.00,2.11
8565.00,2.10
8564.00,2.10
8563.00,2.10
8562.00,2.10
8561.00,2.10
8560.00,2.10
8559.00,2.10
8558.00,2.10
8557.00,2.09
8556.00,2.09
8555.00,2.09
8554.00,2.09
8553.00,2.09
8552.00,2.09
8551.00,2.09
8550.00,2.09
8549.00,2.09
8548.00,2.09
8547.00,2.09
8546.00,2.09
8545.00,2.09
8544.00,2.09
8543.00,2.09
8542.00,2.09
8541.00,2.09
8540.00,2.09
8539.00,2.09
8538.00,2.09
8537.00,2.09
8536.00,2.09
8535.00,2.09
8534.00,2.09
8533.00,2.09
8532.00,2.09
8531.00,2.09
8530.00,2.09
8529.00,2.09
8528.00,2.09
8527.00,2.08
8526.00,2.08
8525.00,2.08
8524.00,2.08
8523.00,2.08
8522.00,2.08
8521.00,2.08
8520.00,2.08
8519.00,2.08
8518.00,2.07
8517.00,2.07
8516.00,2.07
8515.00,2.07
8514.00,2.07
8513.00,2.07
8512.00,2.07
8511.00,2.07
8510.00,2.07
8509.00,2.07
8508.00,2.07
8507.00,2.07
8506.00,2.07
8505.00,2.07
8504.00,2.07
8503.00,2.07
8502.00,2.07
8501.00,2.07
8500.00,2.06
8499.00,2.06
8498.00,2.06
8497.00,2.06
8496.00,2.06
8495.00,2.05
8494.00,2.05
8493.00,2.05
8492.00,2.05
8491.00,2.04
8490.00,2.04
8489.00,2.04
8488.00,2.04
8487.00,2.04
8486.00,2.03
8485.00,2.03
8484.00,2.03
8483.00,2.03
8482.00,2.03
8481.00,2.03
8480.00,2.03
8479.00,2.02
8478.00,2.02
8477.00,2.02
8476.00,2.02
8475.00,2.02
8474.00,2.02
8473.00,2.02
8472.00,2.02
8471.00,2.02
8470.00,2.02
8469.00,2.01
8468.00,2.01
8467.00,2.01
8466.00,2.01
8465.00,2.01
8464.00,2.01
8463.00,2.01
8462.00,2.00
8461.00,2.00
8460.00,2.00
8459.00,2.00
8458.00,2.00
8457.00,1.99
8456.00,1.99
8455.00,1.99
8454.00,1.99
8453.00,1.99
8452.00,1.99
8451.00,1.99
8450.00,1.99
8449.00,1.99
8448.00,1.99
8447.00,1.99
8446.00,1.99
8445.00,1.99
8444.00,1.99
8443.00,2.00
8442.00,2.00
8441.00,2.00
8440.00,2.00
8439.00,2.00
8438.00,2.00
8437.00,2.00
8436.00,2.00
8435.00,2.00
8434.00,2.00
8433.00,2.00
8432.00,2.00
8431.00,2.00
8430.00,2.00
8429.00,2.00
8428.00,2.00
8427.00,2.00
8426.00,2.00
8425.00,2.00
8424.00,2.00
8423.00,2.00
8422.00,2.00
8421.00,2.00
8420.00,2.00
8419.00,2.00
8418.00,2.00
8417.00,2.00
8416.00,2.00
8415.00,2.00
8414.00,2.00
8413.00,2.00
8412.00,2.00
8411.00,2.00
8410.00,2.01
8409.00,2.01
8408.00,2.01
8407.00,2.01
8406.00,2.01
8405.00,2.02
8404.00,2.02
8403.00,2.02
8402.00,2.02
8401.00,2.02
8400.00,2.03
8399.00,2.03
8398.00,2.03
8397.00,2.03
8396.00,2.04
8395.00,2.04
8394.00,2.04
8393.00,2.04
8392.00,2.04
8391.00,2.04
8390.00,2.04
8389.00,2.04
8388.00,2.04
8387.00,2.04
8386.00,2.04
8385.00,2.04
8384.00,2.04
8383.00,2.05
8382.00,2.05
8381.00,2.05
8380.00,2.05
8379.00,2.05
8378.00,2.05
8377.00,2.05
8376.00,2.05
8375.00,2.05
8374.00,2.05
8373.00,2.06
8372.00,2.06
8371.00,2.06
8370.00,2.06
8369.00,2.06
8368.00,2.06
8367.00,2.06
8366.00,2.06
8365.00,2.06
8364.00,2.06
8363.00,2.07
8362.00,2.07
8361.00,2.07
8360.00,2.07
8359.00,2.07
8358.00,2.07
8357.00,2.06
8356.00,2.06
8355.00,2.06
8354.00,2.06
8353.00,2.06
8352.00,2.06
8351.00,2.05
8350.00,2.05
8349.00,2.05
8348.00,2.05
8347.00,2.05
8346.00,2.04
8345.00,2.04
8344.00,2.04
8343.00,2.04
8342.00,2.04
8341.00,2.04
8340.00,2.04
8339.00,2.04
8338.00,2.04
8337.00,2.04
8336.00,2.04
8335.00,2.04
8334.00,2.04
8333.00,2.04
8332.00,2.04
8331.00,2.04
8330.00,2.04
8329.00,2.04
8328.00,2.04
8327.00,2.04
8326.00,2.04
8325.00,2.04
8324.00,2.04
8323.00,2.04
8322.00,2.04
8321.00,2.05
8320.00,2.05
8319.00,2.05
8318.00,2.05
8317.00,2.05
8316.00,2.05
8315.00,2.05
8314.00,2.05
8313.00,2.05
8312.00,2.05
8311.00,2.05
8310.00,2.06
8309.00,2.06
8308.00,2.06
8307.00,2.06
8306.00,2.06
8305.00,2.06
8304.00,2.06
8303.00,2.07
8302.00,2.07
8301.00,2.07
8300.00,2.07
8299.00,2.07
8298.00,2.07
8297.00,2.07
8296.00,2.07
8295.00,2.08
8294.00,2.08
8293.00,2.08
8292.00,2.08
8291.00,2.08
8290.00,2.08
8289.00,2.08
8288.00,2.08
8287.00,2.08
8286.00,2.08
8285.00,2.08
8284.00,2.08
8283.00,2.08
8282.00,2.08
8281.00,2.08
8280.00,2.08
8279.00,2.08
8278.00,2.08
8277.00,2.08
8276.00,2.08
8275.00,2.08
8274.00,2.09
8273.00,2.09
8272.00,2.09
8271.00,2.09
8270.00,2.09
8269.00,2.09
8268.00,2.09
8267.00,2.09
8266.00,2.10
8265.00,2.10
8264.00,2.10
8263.00,2.10
8262.00,2.10
8261.00,2.10
8260.00,2.10
8259.00,2.10
8258.00,2.10
8257.00,2.09
8256.00,2.09
8255.00,2.09
8254.00,2.09
8253.00,2.09
8252.00,2.09
8251.00,2.09
8250.00,2.09
8249.00,2.09
8248.00,2.09
8247.00,2.09
8246.00,2.09
8245.00,2.09
8244.00,2.09
8243.00,2.09
8242.00,2.09
8241.00,2.09
8240.00,2.09
8239.00,2.09
8238.00,2.09
8237.00,2.09
8236.00,2.09
8235.00,2.10
8234.00,2.10
8233.00,2.10
8232.00,2.10
8231.00,2.10
8230.00,2.10
8229.00,2.10
8228.00,2.10
8227.00,2.10
8226.00,2.10
8225.00,2.10
8224.00,2.10
8223.00,2.11
8222.00,2.11
8221.00,2.11
8220.00,2.11
8219.00,2.11
8218.00,2.11
8217.00,2.11
8216.00,2.11
8215.00,2.11
8214.00,2.11
8213.00,2.11
8212.00,2.11
8211.00,2.11
8210.00,2.12
8209.00,2.12
8208.00,2.12
8207.00,2.12
8206.00,2.12
8205.00,2.12
8204.00,2.12
8203.00,2.12
8202.00,2.12
8201.00,2.12
8200.00,2.12
8199.00,2.12
8198.00,2.12
8197.00,2.12
8196.00,2.12
8195.00,2.12
8194.00,2.12
8193.00,2.12
8192.00,2.12
8191.00,2.12
8190.00,2.12
8189.00,2.12
8188.00,2.12
8187.00,2.13
8186.00,2.13
8185.00,2.13
8184.00,2.13
8183.00,2.13
8182.00,2.13
8181.00,2.13
8180.00,2.13
8179.00,2.14
8178.00,2.14
8177.00,2.14
8176.00,2.14
8175.00,2.14
8174.00,2.14
8173.00,2.14
8172.00,2.14
8171.00,2.14
8170.00,2.14
8169.00,2.14
8168.00,2.13
8167.00,2.13
8166.00,2.13
8165.00,2.13
8164.00,2.13
8163.00,2.13
8162.00,2.13
8161.00,2.13
8160.00,2.13
8159.00,2.13
8158.00,2.13
8157.00,2.13
8156.00,2.13
8155.00,2.13
8154.00,2.13
8153.00,2.14
8152.00,2.14
8151.00,2.14
8150.00,2.14
8149.00,2.14
8148.00,2.14
8147.00,2.14
8146.00,2.15
8145.00,2.15
8144.00,2.15
8143.00,2.15
8142.00,2.15
8141.00,2.15
8140.00,2.15
8139.00,2.15
8138.00,2.15
8137.00,2.15
8136.00,2.15
8135.00,2.15
8134.00,2.15
8133.00,2.15
8132.00,2.15
8131.00,2.15
8130.00,2.15
8129.00,2.15
8128.00,2.15
8127.00,2.15
8126.00,2.16
8125.00,2.16
8124.00,2.16
8123.00,2.16
8122.00,2.16
8121.00,2.16
8120.00,2.16
8119.00,2.16
8118.00,2.16
8117.00,2.16
8116.00,2.16
8115.00,2.16
8114.00,2.16
8113.00,2.16
8112.00,2.16
8111.00,2.17
8110.00,2.17
8109.00,2.17
8108.00,2.17
8107.00,2.17
8106.00,2.17
8105.00,2.17
8104.00,2.18
8103.00,2.18
8102.00,2.18
8101.00,2.18
8100.00,2.18
8099.00,2.18
8098.00,2.18
8097.00,2.18
8096.00,2.18
8095.00,2.19
8094.00,2.19
8093.00,2.19
8092.00,2.19
8091.00,2.19
8090.00,2.19
8089.00,2.19
8088.00,2.19
8087.00,2.19
8086.00,2.19
8085.00,2.20
8084.00,2.20
8083.00,2.20
8082.00,2.20
8081.00,2.20
8080.00,2.20
8079.00,2.20
8078.00,2.20
8077.00,2.20
8076.00,2.20
8075.00,2.20
8074.00,2.20
8073.00,2.20
8072.00,2.21
8071.00,2.21
8070.00,2.21
8069.00,2.21
8068.00,2.21
8067.00,2.21
8066.00,2.21
8065.00,2.21
8064.00,2.21
8063.00,2.21
8062.00,2.21
8061.00,2.21
8060.00,2.21
8059.00,2.21
8058.00,2.21
8057.00,2.22
8056.00,2.22
8055.00,2.22
8054.00,2.22
8053.00,2.22
8052.00,2.22
8051.00,2.22
8050.00,2.22
8049.00,2.22
8048.00,2.22
8047.00,2.22
8046.00,2.22
8045.00,2.22
8044.00,2.22
8043.00,2.22
8042.00,2.22
8041.00,2.22
8040.00,2.22
8039.00,2.22
8038.00,2.22
8037.00,2.22
8036.00,2.22
8035.00,2.21
8034.00,2.21
8033.00,2.21
8032.00,2.21
8031.00,2.21
8030.00,2.21
8029.00,2.21
8028.00,2.21
8027.00,2.21
8026.00,2.21
8025.00,2.21
8024.00,2.21
8023.00,2.21
8022.00,2.21
8021.00,2.21
8020.00,2.21
8019.00,2.21
8018.00,2.21
8017.00,2.21
8016.00,2.21
8015.00,2.21
8014.00,2.21
8013.00,2.21
8012.00,2.21
8011.00,2.21
8010.00,2.22
8009.00,2.22
8008.00,2.22
8007.00,2.22
8006.00,2.22
8005.00,2.22
8004.00,2.22
8003.00,2.22
8002.00,2.22
8001.00,2.22
8000.00,2.22
7999.00,2.22
7998.00,2.23
7997.00,2.23
7996.00,2.23
7995.00,2.23
7994.00,2.22
7993.00,2.22
7992.00,2.22
7991.00,2.22
7990.00,2.22
7989.00,2.22
7988.00,2.22
7987.00,2.22
7986.00,2.22
7985.00,2.22
7984.00,2.22
7983.00,2.22
7982.00,2.22
7981.00,2.22
7980.00,2.22
7979.00,2.22
7978.00,2.22
7977.00,2.22
7976.00,2.22
7975.00,2.22
7974.00,2.22
7973.00,2.22
7972.00,2.22
7971.00,2.22
7970.00,2.22
7969.00,2.22
7968.00,2.22
7967.00,2.22
7966.00,2.22
7965.00,2.23
7964.00,2.23
7963.00,2.23
7962.00,2.23
7961.00,2.23
7960.00,2.23
7959.00,2.23
7958.00,2.23
7957.00,2.23
7956.00,2.23
7955.00,2.23
7954.00,2.23
7953.00,2.23
7952.00,2.23
7951.00,2.23
7950.00,2.23
7949.00,2.24
7948.00,2.24
7947.00,2.24
7946.00,2.24
7945.00,2.24
7944.00,2.24
7943.00,2.25
7942.00,2.25
7941.00,2.25
7940.00,2.25
7939.00,2.25
7938.00,2.25
7937.00,2.25
7936.00,2.25
7935.00,2.25
7934.00,2.25
7933.00,2.25
7932.00,2.25
7931.00,2.25
7930.00,2.25
7929.00,2.24
7928.00,2.24
7927.00,2.24
7926.00,2.24
7925.00,2.24
7924.00,2.24
7923.00,2.24
7922.00,2.24
7921.00,2.24
7920.00,2.24
7919.00,2.24
7918.00,2.25
7917.00,2.25
7916.00,2.25
7915.00,2.25
7914.00,2.25
7913.00,2.25
7912.00,2.25
7911.00,2.25
7910.00,2.25
7909.00,2.25
7908.00,2.25
7907.00,2.25
7906.00,2.25
7905.00,2.25
7904.00,2.25
7903.00,2.25
7902.00,2.25
7901.00,2.26
7900.00,2.26
7899.00,2.26
7898.00,2.26
7897.00,2.26
7896.00,2.26
7895.00,2.26
7894.00,2.26
7893.00,2.26
7892.00,2.26
7891.00,2.26
7890.00,2.26
7889.00,2.26
7888.00,2.26
7887.00,2.26
7886.00,2.26
7885.00,2.26
7884.00,2.26
7883.00,2.26
7882.00,2.25
7881.00,2.25
7880.00,2.25
7879.00,2.25
7878.00,2.25
7877.00,2.25
7876.00,2.25
7875.00,2.25
7874.00,2.25
7873.00,2.25
7872.00,2.25
7871.00,2.25
7870.00,2.25
7869.00,2.25
7868.00,2.26
7867.00,2.26
7866.00,2.26
7865.00,2.26
7864.00,2.26
7863.00,2.26
7862.00,2.26
7861.00,2.26
7860.00,2.26
7859.00,2.26
7858.00,2.26
7857.00,2.26
7856.00,2.26
7855.00,2.26
7854.00,2.26
7853.00,2.26
7852.00,2.26
7851.00,2.26
7850.00,2.26
7849.00,2.26
7848.00,2.26
7847.00,2.26
7846.00,2.26
7845.00,2.26
7844.00,2.26
7843.00,2.26
7842.00,2.26
7841.00,2.26
7840.00,2.26
7839.00,2.26
7838.00,2.26
7837.00,2.26
7836.00,2.26
7835.00,2.26
7834.00,2.26
7833.00,2.26
7832.00,2.27
7831.00,2.27
7830.00,2.27
7829.00,2.27
7828.00,2.27
7827.00,2.27
7826.00,2.27
7825.00,2.28
7824.00,2.28
7823.00,2.28
7822.00,2.28
7821.00,2.28
7820.00,2.28
7819.00,2.28
7818.00,2.28
7817.00,2.28
7816.00,2.28
7815.00,2.28
7814.00,2.28
7813.00,2.28
7812.00,2.28
7811.00,2.28
7810.00,2.28
7809.00,2.28
7808.00,2.28
7807.00,2.28
7806.00,2.28
7805.00,2.28
7804.00,2.28
7803.00,2.28
7802.00,2.28
7801.00,2.28
7800.00,2.28
7799.00,2.28
7798.00,2.28
7797.00,2.28
7796.00,2.28
7795.00,2.28
7794.00,2.28
7793.00,2.28
7792.00,2.28
7791.00,2.28
7790.00,2.28
7789.00,2.28
7788.00,2.28
7787.00,2.28
7786.00,2.28
7785.00,2.28
7784.00,2.28
7783.00,2.28
7782.00,2.28
7781.00,2.28
7780.00,2.28
7779.00,2.28
7778.00,2.28
7777.00,2.28
7776.00,2.28
7775.00,2.28
7774.00,2.28
7773.00,2.28
7772.00,2.28
7771.00,2.28
7770.00,2.28
7769.00,2.29
7768.00,2.29
7767.00,2.29
7766.00,2.29
7765.00,2.29
7764.00,2.29
7763.00,2.29
7762.00,2.29
7761.00,2.29
7760.00,2.29
7759.00,2.29
7758.00,2.29
7757.00,2.29
7756.00,2.29
7755.00,2.29
7754.00,2.29
7753.00,2.29
7752.00,2.29
7751.00,2.29
7750.00,2.29
7749.00,2.29
7748.00,2.29
7747.00,2.29
7746.00,2.29
7745.00,2.29
7744.00,2.29
7743.00,2.29
7742.00,2.29
7741.00,2.29
7740.00,2.29
7739.00,2.29
7738.00,2.29
7737.00,2.29
7736.00,2.29
7735.00,2.29
7734.00,2.29
7733.00,2.29
7732.00,2.29
7731.00,2.29
7730.00,2.29
7729.00,2.30
7728.00,2.30
7727.00,2.30
7726.00,2.30
7725.00,2.30
7724.00,2.30
7723.00,2.30
7722.00,2.30
7721.00,2.30
7720.00,2.30
7719.00,2.30
7718.00,2.30
7717.00,2.30
7716.00,2.30
7715.00,2.30
7714.00,2.30
7713.00,2.30
7712.00,2.30
7711.00,2.30
7710.00,2.30
7709.00,2.30
7708.00,2.30
7707.00,2.30
7706.00,2.30
7705.00,2.30
7704.00,2.30
7703.00,2.30
7702.00,2.30
7701.00,2.30
7700.00,2.30
7699.00,2.30
7698.00,2.30
7697.00,2.30
7696.00,2.30
7695.00,2.30
7694.00,2.30
7693.00,2.30
7692.00,2.30
7691.00,2.30
7690.00,2.30
7689.00,2.30
7688.00,2.31
7687.00,2.31
7686.00,2.31
7685.00,2.31
7684.00,2.31
7683.00,2.31
7682.00,2.31
7681.00,2.31
7680.00,2.31
7679.00,2.31
7678.00,2.31
7677.00,2.31
7676.00,2.31
7675.00,2.31
7674.00,2.31
7673.00,2.31
7672.00,2.31
7671.00,2.31
7670.00,2.31
7669.00,2.31
7668.00,2.31
7667.00,2.31
7666.00,2.31
7665.00,2.31
7664.00,2.31
7663.00,2.31
7662.00,2.31
7661.00,2.31
7660.00,2.31
7659.00,2.31
7658.00,2.31
7657.00,2.31
7656.00,2.31
7655.00,2.31
7654.00,2.31
7653.00,2.31
7652.00,2.31
7651.00,2.31
7650.00,2.31
7649.00,2.31
7648.00,2.31
7647.00,2.31
7646.00,2.31
7645.00,2.31
7644.00,2.31
7643.00,2.31
7642.00,2.31
7641.00,2.31
7640.00,2.31
7639.00,2.31
7638.00,2.31
7637.00,2.31
7636.00,2.31
7635.00,2.31
7634.00,2.31
7633.00,2.31
7632.00,2.31
7631.00,2.31
7630.00,2.31
7629.00,2.31
7628.00,2.31
7627.00,2.31
7626.00,2.31
7625.00,2.31
7624.00,2.31
7623.00,2.31
7622.00,2.31
7621.00,2.31
7620.00,2.31
7619.00,2.31
7618.00,2.31
7617.00,2.31
7616.00,2.31
7615.00,2.31
7614.00,2.31
7613.00,2.31
7612.00,2.31
7611.00,2.31
7610.00,2.31
7609.00,2.31
7608.00,2.31
7607.00,2.31
7606.00,2.31
7605.00,2.31
7604.00,2.31
7603.00,2.31
7602.00,2.31
7601.00,2.31
7600.00,2.31
7599.00,2.31
7598.00,2.31
7597.00,2.31
7596.00,2.30
7595.00,2.30
7594.00,2.30
7593.00,2.30
7592.00,2.30
7591.00,2.30
7590.00,2.30
7589.00,2.30
7588.00,2.30
7587.00,2.30
7586.00,2.30
7585.00,2.30
7584.00,2.30
7583.00,2.30
7582.00,2.30
7581.00,2.30
7580.00,2.30
7579.00,2.30
7578.00,2.30
7577.00,2.30
7576.00,2.30
7575.00,2.30
7574.00,2.30
7573.00,2.30
7572.00,2.30
7571.00,2.30
7570.00,2.30
7569.00,2.30
7568.00,2.30
7567.00,2.30
7566.00,2.30
7565.00,2.30
7564.00,2.30
7563.00,2.30
7562.00,2.30
7561.00,2.29
7560.00,2.29
7559.00,2.29
7558.00,2.29
7557.00,2.29
7556.00,2.29
7555.00,2.29
7554.00,2.29
7553.00,2.29
7552.00,2.29
7551.00,2.29
7550.00,2.29
7549.00,2.29
7548.00,2.29
7547.00,2.29
7546.00,2.29
7545.00,2.29
7544.00,2.29
7543.00,2.29
7542.00,2.29
7541.00,2.28
7540.00,2.28
7539.00,2.28
7538.00,2.28
7537.00,2.28
7536.00,2.28
7535.00,2.28
7534.00,2.28
7533.00,2.28
7532.00,2.28
7531.00,2.28
7530.00,2.28
7529.00,2.28
7528.00,2.28
7527.00,2.28
7526.00,2.28
7525.00,2.28
7524.00,2.28
7523.00,2.28
7522.00,2.27
7521.00,2.27
7520.00,2.27
7519.00,2.27
7518.00,2.27
7517.00,2.27
7516.00,2.26
7515.00,2.26
7514.00,2.26
7513.00,2.26
7512.00,2.26
7511.00,2.26
7510.00,2.26
7509.00,2.26
7508.00,2.26
7507.00,2.26
7506.00,2.26
7505.00,2.26
7504.00,2.26
7503.00,2.26
7502.00,2.26
7501.00,2.26
7500.00,2.26
7499.00,2.26
7498.00,2.26
7497.00,2.26
7496.00,2.26
7495.00,2.26
7494.00,2.26
7493.00,2.26
7492.00,2.26
7491.00,2.26
7490.00,2.26
7489.00,2.26
7488.00,2.26
7487.00,2.26
7486.00,2.26
7485.00,2.26
7484.00,2.26
7483.00,2.26
7482.00,2.26
7481.00,2.25
7480.00,2.25
7479.00,2.25
7478.00,2.25
7477.00,2.25
7476.00,2.25
7475.00,2.25
7474.00,2.25
7473.00,2.25
7472.00,2.25
7471.00,2.24
7470.00,2.24
7469.00,2.24
7468.00,2.24
7467.00,2.24
7466.00,2.24
7465.00,2.24
7464.00,2.24
7463.00,2.24
7462.00,2.24
7461.00,2.24
7460.00,2.24
7459.00,2.24
7458.00,2.24
7457.00,2.24
7456.00,2.24
7455.00,2.24
7454.00,2.23
7453.00,2.23
7452.00,2.23
7451.00,2.23
7450.00,2.23
7449.00,2.23
7448.00,2.23
7447.00,2.23
7446.00,2.23
7445.00,2.23
7444.00,2.23
7443.00,2.23
7442.00,2.22
7441.00,2.22
7440.00,2.22
7439.00,2.22
7438.00,2.22
7437.00,2.22
7436.00,2.22
7435.00,2.21
7434.00,2.21
7433.00,2.21
7432.00,2.21
7431.00,2.21
7430.00,2.21
7429.00,2.21
7428.00,2.20
7427.00,2.20
7426.00,2.20
7425.00,2.20
7424.00,2.20
7423.00,2.20
7422.00,2.20
7421.00,2.19
7420.00,2.19
7419.00,2.19
7418.00,2.19
7417.00,2.19
7416.00,2.19
7415.00,2.18
7414.00,2.18
7413.00,2.18
7412.00,2.18
7411.00,2.18
7410.00,2.17
7409.00,2.17
7408.00,2.17
7407.00,2.17
7406.00,2.17
7405.00,2.16
7404.00,2.16
7403.00,2.16
7402.00,2.16
7401.00,2.16
7400.00,2.16
7399.00,2.16
7398.00,2.15
7397.00,2.15
7396.00,2.15
7395.00,2.15
7394.00,2.15
7393.00,2.15
7392.00,2.15
7391.00,2.14
7390.00,2.14
7389.00,2.14
7388.00,2.14
7387.00,2.14
7386.00,2.14
7385.00,2.13
7384.00,2.13
7383.00,2.13
7382.00,2.13
7381.00,2.13
7380.00,2.13
7379.00,2.12
7378.00,2.12
7377.00,2.12
7376.00,2.12
7375.00,2.12
7374.00,2.12
7373.00,2.12
7372.00,2.12
7371.00,2.11
7370.00,2.11
7369.00,2.11
7368.00,2.11
7367.00,2.11
7366.00,2.11
7365.00,2.11
7364.00,2.11
7363.00,2.11
7362.00,2.10
7361.00,2.10
7360.00,2.10
7359.00,2.10
7358.00,2.10
7357.00,2.10
7356.00,2.10
7355.00,2.09
7354.00,2.09
7353.00,2.09
7352.00,2.09
7351.00,2.09
7350.00,2.09
7349.00,2.08
7348.00,2.08
7347.00,2.08
7346.00,2.08
7345.00,2.08
7344.00,2.08
7343.00,2.08
7342.00,2.08
7341.00,2.08
7340.00,2.08
7339.00,2.08
7338.00,2.08
7337.00,2.08
7336.00,2.08
7335.00,2.08
7334.00,2.08
7333.00,2.08
7332.00,2.08
7331.00,2.08
7330.00,2.08
7329.00,2.08
7328.00,2.08
7327.00,2.08
7326.00,2.08
7325.00,2.08
7324.00,2.08
7323.00,2.08
7322.00,2.08
7321.00,2.08
7320.00,2.07
7319.00,2.07
7318.00,2.07
7317.00,2.07
7316.00,2.07
7315.00,2.07
7314.00,2.07
7313.00,2.06
7312.00,2.06
7311.00,2.06
7310.00,2.06
7309.00,2.06
7308.00,2.05
7307.00,2.05
7306.00,2.05
7305.00,2.05
7304.00,2.05
7303.00,2.05
7302.00,2.04
7301.00,2.04
7300.00,2.04
7299.00,2.04
7298.00,2.04
7297.00,2.04
7296.00,2.04
7295.00,2.03
7294.00,2.03
7293.00,2.03
7292.00,2.03
7291.00,2.03
7290.00,2.03
7289.00,2.03
7288.00,2.03
7287.00,2.03
7286.00,2.03
7285.00,2.03
7284.00,2.03
7283.00,2.03
7282.00,2.03
7281.00,2.03
7280.00,2.03
7279.00,2.03
7278.00,2.03
7277.00,2.03
7276.00,2.03
7275.00,2.02
7274.00,2.02
7273.00,2.02
7272.00,2.02
7271.00,2.02
7270.00,2.01
7269.00,2.01
7268.00,2.01
7267.00,2.01
7266.00,2.00
7265.00,2.00
7264.00,2.00
7263.00,1.99
7262.00,1.99
7261.00,1.99
7260.00,1.98
7259.00,1.98
7258.00,1.98
7257.00,1.97
7256.00,1.97
7255.00,1.97
7254.00,1.96
7253.00,1.96
7252.00,1.95
7251.00,1.95
7250.00,1.95
7249.00,1.94
7248.00,1.94
7247.00,1.93
7246.00,1.93
7245.00,1.92
7244.00,1.92
7243.00,1.91
7242.00,1.91
7241.00,1.90
7240.00,1.90
7239.00,1.89
7238.00,1.89
7237.00,1.88
7236.00,1.87
7235.00,1.87
7234.00,1.86
7233.00,1.86
7232.00,1.85
7231.00,1.85
7230.00,1.84
7229.00,1.84
7228.00,1.84
7227.00,1.83
7226.00,1.83
7225.00,1.82
7224.00,1.82
7223.00,1.81
7222.00,1.81
7221.00,1.81
7220.00,1.80
7219.00,1.80
7218.00,1.79
7217.00,1.79
7216.00,1.79
7215.00,1.78
7214.00,1.78
7213.00,1.77
7212.00,1.77
7211.00,1.76
7210.00,1.76
7209.00,1.75
7208.00,1.75
7207.00,1.74
7206.00,1.73
7205.00,1.73
7204.00,1.72
7203.00,1.72
7202.00,1.71
7201.00,1.71
7200.00,1.70
7199.00,1.70
7198.00,1.69
7197.00,1.69
7196.00,1.68
7195.00,1.68
7194.00,1.67
7193.00,1.67
7192.00,1.66
7191.00,1.66
7190.00,1.65
7189.00,1.65
7188.00,1.64
7187.00,1.64
7186.00,1.63
7185.00,1.63
7184.00,1.62
7183.00,1.62
7182.00,1.61
7181.00,1.61
7180.00,1.61
7179.00,1.60
7178.00,1.60
7177.00,1.60
7176.00,1.59
7175.00,1.59
7174.00,1.59
7173.00,1.58
7172.00,1.58
7171.00,1.58
7170.00,1.57
7169.00,1.57
7168.00,1.56
7167.00,1.56
7166.00,1.56
7165.00,1.55
7164.00,1.55
7163.00,1.55
7162.00,1.54
7161.00,1.54
7160.00,1.53
7159.00,1.53
7158.00,1.53
7157.00,1.52
7156.00,1.52
7155.00,1.51
7154.00,1.51
7153.00,1.50
7152.00,1.50
7151.00,1.49
7150.00,1.49
7149.00,1.48
7148.00,1.48
7147.00,1.47
7146.00,1.46
7145.00,1.46
7144.00,1.45
7143.00,1.45
7142.00,1.44
7141.00,1.44
7140.00,1.43
7139.00,1.43
7138.00,1.43
7137.00,1.42
7136.00,1.42
7135.00,1.41
7134.00,1.41
7133.00,1.41
7132.00,1.40
7131.00,1.40
7130.00,1.40
7129.00,1.39
7128.00,1.39
7127.00,1.39
7126.00,1.38
7125.00,1.38
7124.00,1.37
7123.00,1.37
7122.00,1.36
7121.00,1.36
7120.00,1.36
7119.00,1.35
7118.00,1.35
7117.00,1.34
7116.00,1.34
7115.00,1.33
7114.00,1.33
7113.00,1.33
7112.00,1.32
7111.00,1.32
7110.00,1.31
7109.00,1.31
7108.00,1.31
7107.00,1.30
7106.00,1.30
7105.00,1.30
7104.00,1.29
7103.00,1.29
7102.00,1.29
7101.00,1.28
7100.00,1.28
7099.00,1.28
7098.00,1.28
7097.00,1.27
7096.00,1.27
7095.00,1.27
7094.00,1.26
7093.00,1.26
7092.00,1.26
7091.00,1.25
7090.00,1.25
7089.00,1.25
7088.00,1.24
7087.00,1.24
7086.00,1.24
7085.00,1.24
7084.00,1.23
7083.00,1.23
7082.00,1.23
7081.00,1.22
7080.00,1.22
7079.00,1.22
7078.00,1.22
7077.00,1.21
7076.00,1.21
7075.00,1.21
7074.00,1.20
7073.00,1.20
7072.00,1.20
7071.00,1.19
7070.00,1.19
7069.00,1.19
7068.00,1.18
7067.00,1.18
7066.00,1.18
7065.00,1.18
7064.00,1.17
7063.00,1.17
7062.00,1.17
7061.00,1.17
7060.00,1.16
7059.00,1.16
7058.00,1.16
7057.00,1.16
7056.00,1.15
7055.00,1.15
7054.00,1.15
7053.00,1.15
7052.00,1.15
7051.00,1.14
7050.00,1.14
7049.00,1.14
7048.00,1.14
7047.00,1.14
7046.00,1.14
7045.00,1.13
7044.00,1.13
7043.00,1.13
7042.00,1.13
7041.00,1.13
7040.00,1.13
7039.00,1.12
7038.00,1.12
7037.00,1.12
7036.00,1.12
7035.00,1.12
7034.00,1.12
7033.00,1.11
7032.00,1.11
7031.00,1.11
7030.00,1.11
7029.00,1.11
7028.00,1.10
7027.00,1.10
7026.00,1.10
7025.00,1.10
7024.00,1.10
7023.00,1.09
7022.00,1.09
7021.00,1.09
7020.00,1.09
7019.00,1.09
7018.00,1.08
7017.00,1.08
7016.00,1.08
7015.00,1.08
7014.00,1.08
7013.00,1.08
7012.00,1.08
7011.00,1.08
7010.00,1.07
7009.00,1.07
7008.00,1.07
7007.00,1.07
7006.00,1.07
7005.00,1.07
7004.00,1.07
7003.00,1.06
7002.00,1.06
7001.00,1.06
7000.00,1.06
6999.00,1.06
6998.00,1.05
6997.00,1.05
6996.00,1.05
6995.00,1.05
6994.00,1.05
6993.00,1.04
6992.00,1.04
6991.00,1.04
6990.00,1.04
6989.00,1.04
6988.00,1.04
6987.00,1.04
6986.00,1.04
6985.00,1.04
6984.00,1.03
6983.00,1.03
6982.00,1.03
6981.00,1.03
6980.00,1.03
6979.00,1.03
6978.00,1.03
6977.00,1.03
6976.00,1.03
6975.00,1.03
6974.00,1.03
6973.00,1.03
6972.00,1.03
6971.00,1.02
6970.00,1.02
6969.00,1.02
6968.00,1.02
6967.00,1.02
6966.00,1.02
6965.00,1.01
6964.00,1.01
6963.00,1.01
6962.00,1.01
6961.00,1.01
6960.00,1.01
6959.00,1.01
6958.00,1.00
6957.00,1.00
6956.00,1.00
6955.00,1.00
6954.00,1.00
6953.00,1.00
6952.00,1.00
6951.00,1.00
6950.00,1.00
6949.00,1.00
6948.00,1.00
6947.00,1.00
6946.00,1.00
6945.00,1.00
6944.00,1.00
6943.00,1.00
6942.00,1.00
6941.00,0.99
6940.00,0.99
6939.00,0.99
6938.00,0.99
6937.00,0.99
6936.00,0.99
6935.00,0.99
6934.00,0.99
6933.00,0.99
6932.00,0.99
6931.00,0.99
6930.00,0.99
6929.00,0.99
6928.00,0.99
6927.00,0.99
6926.00,0.99
6925.00,0.98
6924.00,0.98
6923.00,0.98
6922.00,0.98
6921.00,0.98
6920.00,0.98
6919.00,0.98
6918.00,0.98
6917.00,0.98
6916.00,0.98
6915.00,0.98
6914.00,0.97
6913.00,0.97
6912.00,0.97
6911.00,0.97
6910.00,0.97
6909.00,0.97
6908.00,0.97
6907.00,0.97
6906.00,0.97
6905.00,0.97
6904.00,0.97
6903.00,0.97
6902.00,0.97
6901.00,0.97
6900.00,0.97
6899.00,0.97
6898.00,0.97
6897.00,0.97
6896.00,0.97
6895.00,0.97
6894.00,0.97
6893.00,0.97
6892.00,0.97
6891.00,0.97
6890.00,0.97
6889.00,0.97
6888.00,0.97
6887.00,0.97
6886.00,0.97
6885.00,0.97
6884.00,0.97
6883.00,0.97
6882.00,0.97
6881.00,0.97
6880.00,0.97
6879.00,0.97
6878.00,0.98
6877.00,0.98
6876.00,0.98
6875.00,0.98
6874.00,0.98
6873.00,0.98
6872.00,0.98
6871.00,0.98
6870.00,0.98
6869.00,0.98
6868.00,0.98
6867.00,0.98
6866.00,0.98
6865.00,0.98
6864.00,0.98
6863.00,0.97
6862.00,0.97
6861.00,0.97
6860.00,0.97
6859.00,0.97
6858.00,0.97
6857.00,0.97
6856.00,0.97
6855.00,0.97
6854.00,0.97
6853.00,0.97
6852.00,0.97
6851.00,0.97
6850.00,0.97
6849.00,0.97
6848.00,0.97
6847.00,0.97
6846.00,0.97
6845.00,0.97
6844.00,0.97
6843.00,0.97
6842.00,0.97
6841.00,0.97
6840.00,0.97
6839.00,0.97
6838.00,0.97
6837.00,0.97
6836.00,0.97
6835.00,0.97
6834.00,0.97
6833.00,0.97
6832.00,0.97
6831.00,0.97
6830.00,0.97
6829.00,0.97
6828.00,0.97
6827.00,0.97
6826.00,0.97
6825.00,0.97
6824.00,0.97
6823.00,0.98
6822.00,0.98
6821.00,0.98
6820.00,0.98
6819.00,0.98
6818.00,0.98
6817.00,0.98
6816.00,0.98
6815.00,0.98
6814.00,0.98
6813.00,0.98
6812.00,0.98
6811.00,0.98
6810.00,0.98
6809.00,0.98
6808.00,0.98
6807.00,0.98
6806.00,0.98
6805.00,0.98
6804.00,0.98
6803.00,0.98
6802.00,0.98
6801.00,0.98
6800.00,0.98
6799.00,0.99
6798.00,0.99
6797.00,0.99
6796.00,0.99
6795.00,0.99
6794.00,0.99
6793.00,0.99
6792.00,0.99
6791.00,1.00
6790.00,1.00
6789.00,1.00
6788.00,1.00
6787.00,1.00
6786.00,1.00
6785.00,1.00
6784.00,1.00
6783.00,1.00
6782.00,1.00
6781.00,1.00
6780.00,1.01
6779.00,1.01
6778.00,1.01
6777.00,1.01
6776.00,1.01
6775.00,1.01
6774.00,1.01
6773.00,1.01
6772.00,1.01
6771.00,1.01
6770.00,1.01
6769.00,1.01
6768.00,1.01
6767.00,1.01
6766.00,1.02
6765.00,1.02
6764.00,1.02
6763.00,1.02
6762.00,1.02
6761.00,1.02
6760.00,1.02
6759.00,1.02
6758.00,1.02
6757.00,1.02
6756.00,1.02
6755.00,1.02
6754.00,1.03
6753.00,1.03
6752.00,1.03
6751.00,1.03
6750.00,1.03
6749.00,1.03
6748.00,1.03
6747.00,1.03
6746.00,1.03
6745.00,1.03
6744.00,1.04
6743.00,1.04
6742.00,1.04
6741.00,1.04
6740.00,1.04
6739.00,1.04
6738.00,1.04
6737.00,1.04
6736.00,1.05
6735.00,1.05
6734.00,1.05
6733.00,1.05
6732.00,1.05
6731.00,1.05
6730.00,1.05
6729.00,1.06
6728.00,1.06
6727.00,1.06
6726.00,1.06
6725.00,1.06
6724.00,1.06
6723.00,1.06
6722.00,1.07
6721.00,1.07
6720.00,1.07
6719.00,1.07
6718.00,1.07
6717.00,1.07
6716.00,1.07
6715.00,1.07
6714.00,1.07
6713.00,1.07
6712.00,1.08
6711.00,1.08
6710.00,1.08
6709.00,1.08
6708.00,1.08
6707.00,1.08
6706.00,1.08
6705.00,1.08
6704.00,1.08
6703.00,1.09
6702.00,1.09
6701.00,1.09
6700.00,1.09
6699.00,1.09
6698.00,1.09
6697.00,1.10
6696.00,1.10
6695.00,1.10
6694.00,1.10
6693.00,1.10
6692.00,1.10
6691.00,1.11
6690.00,1.11
6689.00,1.11
6688.00,1.11
6687.00,1.11
6686.00,1.11
6685.00,1.12
6684.00,1.12
6683.00,1.12
6682.00,1.12
6681.00,1.12
6680.00,1.12
6679.00,1.13
6678.00,1.13
6677.00,1.13
6676.00,1.13
6675.00,1.13
6674.00,1.13
6673.00,1.13
6672.00,1.14
6671.00,1.14
6670.00,1.14
6669.00,1.14
6668.00,1.14
6667.00,1.14
6666.00,1.14
6665.00,1.14
6664.00,1.15
6663.00,1.15
6662.00,1.15
6661.00,1.15
6660.00,1.15
6659.00,1.15
6658.00,1.15
6657.00,1.15
6656.00,1.16
6655.00,1.16
6654.00,1.16
6653.00,1.16
6652.00,1.16
6651.00,1.16
6650.00,1.16
6649.00,1.17
6648.00,1.17
6647.00,1.17
6646.00,1.17
6645.00,1.17
6644.00,1.17
6643.00,1.18
6642.00,1.18
6641.00,1.18
6640.00,1.18
6639.00,1.18
6638.00,1.18
6637.00,1.18
6636.00,1.19
6635.00,1.19
6634.00,1.19
6633.00,1.19
6632.00,1.19
6631.00,1.19
6630.00,1.19
6629.00,1.19
6628.00,1.19
6627.00,1.19
6626.00,1.20
6625.00,1.20
6624.00,1.20
6623.00,1.20
6622.00,1.20
6621.00,1.20
6620.00,1.20
6619.00,1.21
6618.00,1.21
6617.00,1.21
6616.00,1.21
6615.00,1.21
6614.00,1.22
6613.00,1.22
6612.00,1.22
6611.00,1.22
6610.00,1.22
6609.00,1.23
6608.00,1.23
6607.00,1.23
6606.00,1.23
6605.00,1.23
6604.00,1.24
6603.00,1.24
6602.00,1.24
6601.00,1.24
6600.00,1.24
6599.00,1.24
6598.00,1.24
6597.00,1.25
6596.00,1.25
6595.00,1.25
6594.00,1.25
6593.00,1.25
6592.00,1.25
6591.00,1.25
6590.00,1.25
6589.00,1.25
6588.00,1.25
6587.00,1.26
6586.00,1.26
6585.00,1.26
6584.00,1.26
6583.00,1.26
6582.00,1.26
6581.00,1.27
6580.00,1.27
6579.00,1.27
6578.00,1.27
6577.00,1.27
6576.00,1.28
6575.00,1.28
6574.00,1.28
6573.00,1.28
6572.00,1.28
6571.00,1.28
6570.00,1.29
6569.00,1.29
6568.00,1.29
6567.00,1.29
6566.00,1.29
6565.00,1.29
6564.00,1.29
6563.00,1.29
6562.00,1.29
6561.00,1.29
6560.00,1.29
6559.00,1.30
6558.00,1.30
6557.00,1.30
6556.00,1.30
6555.00,1.30
6554.00,1.30
6553.00,1.30
6552.00,1.30
6551.00,1.31
6550.00,1.31
6549.00,1.31
6548.00,1.31
6547.00,1.31
6546.00,1.31
6545.00,1.31
6544.00,1.32
6543.00,1.32
6542.00,1.32
6541.00,1.32
6540.00,1.32
6539.00,1.32
6538.00,1.33
6537.00,1.33
6536.00,1.33
6535.00,1.33
6534.00,1.33
6533.00,1.34
6532.00,1.34
6531.00,1.34
6530.00,1.34
6529.00,1.34
6528.00,1.34
6527.00,1.35
6526.00,1.35
6525.00,1.35
6524.00,1.35
6523.00,1.35
6522.00,1.35
6521.00,1.36
6520.00,1.36
6519.00,1.36
6518.00,1.36
6517.00,1.36
6516.00,1.36
6515.00,1.36
6514.00,1.37
6513.00,1.37
6512.00,1.37
6511.00,1.37
6510.00,1.37
6509.00,1.37
6508.00,1.37
6507.00,1.38
6506.00,1.38
6505.00,1.38
6504.00,1.38
6503.00,1.38
6502.00,1.38
6501.00,1.38
6500.00,1.38
6499.00,1.39
6498.00,1.39
6497.00,1.39
6496.00,1.39
6495.00,1.39
6494.00,1.39
6493.00,1.39
6492.00,1.39
6491.00,1.40
6490.00,1.40
6489.00,1.40
6488.00,1.40
6487.00,1.40
6486.00,1.40
6485.00,1.40
6484.00,1.40
6483.00,1.40
6482.00,1.40
6481.00,1.40
6480.00,1.40
6479.00,1.41
6478.00,1.41
6477.00,1.41
6476.00,1.41
6475.00,1.41
6474.00,1.41
6473.00,1.41
6472.00,1.41
6471.00,1.41
6470.00,1.41
6469.00,1.41
6468.00,1.42
6467.00,1.42
6466.00,1.42
6465.00,1.42
6464.00,1.42
6463.00,1.42
6462.00,1.42
6461.00,1.42
6460.00,1.42
6459.00,1.42
6458.00,1.42
6457.00,1.42
6456.00,1.42
6455.00,1.42
6454.00,1.43
6453.00,1.43
6452.00,1.43
6451.00,1.43
6450.00,1.43
6449.00,1.43
6448.00,1.43
6447.00,1.43
6446.00,1.43
6445.00,1.43
6444.00,1.43
6443.00,1.43
6442.00,1.43
6441.00,1.43
6440.00,1.44
6439.00,1.44
6438.00,1.44
6437.00,1.44
6436.00,1.44
6435.00,1.44
6434.00,1.44
6433.00,1.44
6432.00,1.45
6431.00,1.45
6430.00,1.45
6429.00,1.45
6428.00,1.45
6427.00,1.45
6426.00,1.45
6425.00,1.46
6424.00,1.46
6423.00,1.46
6422.00,1.46
6421.00,1.46
6420.00,1.46
6419.00,1.47
6418.00,1.47
6417.00,1.47
6416.00,1.47
6415.00,1.47
6414.00,1.47
6413.00,1.47
6412.00,1.47
6411.00,1.47
6410.00,1.47
6409.00,1.47
6408.00,1.47
6407.00,1.47
6406.00,1.48
6405.00,1.48
6404.00,1.48
6403.00,1.48
6402.00,1.48
6401.00,1.48
6400.00,1.48
6399.00,1.48
6398.00,1.48
6397.00,1.48
6396.00,1.48
6395.00,1.48
6394.00,1.48
6393.00,1.48
6392.00,1.48
6391.00,1.49
6390.00,1.49
6389.00,1.49
6388.00,1.49
6387.00,1.49
6386.00,1.49
6385.00,1.49
6384.00,1.49
6383.00,1.49
6382.00,1.50
6381.00,1.50
6380.00,1.50
6379.00,1.50
6378.00,1.50
6377.00,1.50
6376.00,1.50
6375.00,1.50
6374.00,1.51
6373.00,1.51
6372.00,1.51
6371.00,1.51
6370.00,1.51
6369.00,1.51
6368.00,1.51
6367.00,1.52
6366.00,1.52
6365.00,1.52
6364.00,1.52
6363.00,1.52
6362.00,1.52
6361.00,1.52
6360.00,1.52
6359.00,1.52
6358.00,1.53
6357.00,1.53
6356.00,1.53
6355.00,1.53
6354.00,1.53
6353.00,1.53
6352.00,1.53
6351.00,1.53
6350.00,1.53
6349.00,1.53
6348.00,1.53
6347.00,1.54
6346.00,1.54
6345.00,1.54
6344.00,1.54
6343.00,1.54
6342.00,1.54
6341.00,1.54
6340.00,1.54
6339.00,1.54
6338.00,1.55
6337.00,1.55
6336.00,1.55
6335.00,1.55
6334.00,1.55
6333.00,1.55
6332.00,1.56
6331.00,1.56
6330.00,1.56
6329.00,1.56
6328.00,1.56
6327.00,1.56
6326.00,1.57
6325.00,1.57
6324.00,1.57
6323.00,1.57
6322.00,1.57
6321.00,1.57
6320.00,1.57
6319.00,1.58
6318.00,1.58
6317.00,1.58
6316.00,1.58
6315.00,1.58
6314.00,1.58
6313.00,1.58
6312.00,1.58
6311.00,1.59
6310.00,1.59
6309.00,1.59
6308.00,1.59
6307.00,1.59
6306.00,1.59
6305.00,1.60
6304.00,1.60
6303.00,1.60
6302.00,1.60
6301.00,1.60
6300.00,1.60
6299.00,1.61
6298.00,1.61
6297.00,1.61
6296.00,1.61
6295.00,1.61
6294.00,1.61
6293.00,1.62
6292.00,1.62
6291.00,1.62
6290.00,1.62
6289.00,1.62
6288.00,1.62
6287.00,1.63
6286.00,1.63
6285.00,1.63
6284.00,1.63
6283.00,1.63
6282.00,1.63
6281.00,1.64
6280.00,1.64
6279.00,1.64
6278.00,1.64
6277.00,1.64
6276.00,1.65
6275.00,1.65
6274.00,1.65
6273.00,1.65
6272.00,1.66
6271.00,1.66
6270.00,1.66
6269.00,1.66
6268.00,1.67
6267.00,1.67
6266.00,1.67
6265.00,1.67
6264.00,1.68
6263.00,1.68
6262.00,1.68
6261.00,1.68
6260.00,1.68
6259.00,1.69
6258.00,1.69
6257.00,1.69
6256.00,1.69
6255.00,1.70
6254.00,1.70
6253.00,1.70
6252.00,1.70
6251.00,1.70
6250.00,1.71
6249.00,1.71
6248.00,1.71
6247.00,1.71
6246.00,1.72
6245.00,1.72
6244.00,1.72
6243.00,1.72
6242.00,1.73
6241.00,1.73
6240.00,1.73
6239.00,1.73
6238.00,1.73
6237.00,1.74
6236.00,1.74
6235.00,1.74
6234.00,1.74
6233.00,1.74
6232.00,1.74
6231.00,1.74
6230.00,1.75
6229.00,1.75
6228.00,1.75
6227.00,1.75
6226.00,1.75
6225.00,1.75
6224.00,1.75
6223.00,1.76
6222.00,1.76
6221.00,1.76
6220.00,1.76
6219.00,1.76
6218.00,1.76
6217.00,1.77
6216.00,1.77
6215.00,1.77
6214.00,1.77
6213.00,1.78
6212.00,1.78
6211.00,1.78
6210.00,1.78
6209.00,1.79
6208.00,1.79
6207.00,1.79
6206.00,1.79
6205.00,1.80
6204.00,1.80
6203.00,1.80
6202.00,1.80
6201.00,1.80
6200.00,1.81
6199.00,1.81
6198.00,1.81
6197.00,1.81
6196.00,1.81
6195.00,1.82
6194.00,1.82
6193.00,1.82
6192.00,1.82
6191.00,1.82
6190.00,1.83
6189.00,1.83
6188.00,1.83
6187.00,1.83
6186.00,1.83
6185.00,1.84
6184.00,1.84
6183.00,1.84
6182.00,1.84
6181.00,1.85
6180.00,1.85
6179.00,1.85
6178.00,1.85
6177.00,1.86
6176.00,1.86
6175.00,1.86
6174.00,1.86
6173.00,1.87
6172.00,1.87
6171.00,1.87
6170.00,1.88
6169.00,1.88
6168.00,1.88
6167.00,1.88
6166.00,1.89
6165.00,1.89
6164.00,1.89
6163.00,1.89
6162.00,1.90
6161.00,1.90
6160.00,1.90
6159.00,1.90
6158.00,1.91
6157.00,1.91
6156.00,1.91
6155.00,1.91
6154.00,1.92
6153.00,1.92
6152.00,1.92
6151.00,1.93
6150.00,1.93
6149.00,1.93
6148.00,1.94
6147.00,1.94
6146.00,1.94
6145.00,1.94
6144.00,1.95
6143.00,1.95
6142.00,1.95
6141.00,1.96
6140.00,1.96
6139.00,1.96
6138.00,1.97
6137.00,1.97
6136.00,1.97
6135.00,1.97
6134.00,1.98
6133.00,1.98
6132.00,1.98
6131.00,1.98
6130.00,1.98
6129.00,1.98
6128.00,1.99
6127.00,1.99
6126.00,1.99
6125.00,1.99
6124.00,1.99
6123.00,1.99
6122.00,1.99
6121.00,1.99
6120.00,2.00
6119.00,2.00
6118.00,2.00
6117.00,2.00
6116.00,2.00
6115.00,2.01
6114.00,2.01
6113.00,2.01
6112.00,2.01
6111.00,2.02
6110.00,2.02
6109.00,2.02
6108.00,2.03
6107.00,2.03
6106.00,2.03
6105.00,2.03
6104.00,2.04
6103.00,2.04
6102.00,2.04
6101.00,2.04
6100.00,2.05
6099.00,2.05
6098.00,2.05
6097.00,2.05
6096.00,2.06
6095.00,2.06
6094.00,2.06
6093.00,2.06
6092.00,2.06
6091.00,2.06
6090.00,2.07
6089.00,2.07
6088.00,2.07
6087.00,2.07
6086.00,2.07
6085.00,2.07
6084.00,2.08
6083.00,2.08
6082.00,2.08
6081.00,2.08
6080.00,2.08
6079.00,2.08
6078.00,2.08
6077.00,2.09
6076.00,2.09
6075.00,2.09
6074.00,2.09
6073.00,2.09
6072.00,2.09
6071.00,2.10
6070.00,2.10
6069.00,2.10
6068.00,2.10
6067.00,2.10
6066.00,2.11
6065.00,2.11
6064.00,2.11
6063.00,2.11
6062.00,2.12
6061.00,2.12
6060.00,2.12
6059.00,2.12
6058.00,2.12
6057.00,2.13
6056.00,2.13
6055.00,2.13
6054.00,2.13
6053.00,2.13
6052.00,2.13
6051.00,2.14
6050.00,2.14
6049.00,2.14
6048.00,2.14
6047.00,2.14
6046.00,2.14
6045.00,2.15
6044.00,2.15
6043.00,2.15
6042.00,2.15
6041.00,2.15
6040.00,2.15
6039.00,2.15
6038.00,2.15
6037.00,2.16
6036.00,2.16
6035.00,2.16
6034.00,2.16
6033.00,2.16
6032.00,2.16
6031.00,2.16
6030.00,2.16
6029.00,2.16
6028.00,2.16
6027.00,2.16
6026.00,2.16
6025.00,2.16
6024.00,2.17
6023.00,2.17
6022.00,2.17
6021.00,2.17
6020.00,2.17
6019.00,2.17
6018.00,2.17
6017.00,2.17
6016.00,2.17
6015.00,2.17
6014.00,2.17
6013.00,2.17
6012.00,2.17
6011.00,2.17
6010.00,2.17
6009.00,2.17
6008.00,2.17
6007.00,2.16
6006.00,2.16
6005.00,2.16
6004.00,2.16
6003.00,2.16
6002.00,2.16
6001.00,2.16
6000.00,2.16
5999.00,2.16
5998.00,2.15
5997.00,2.15
5996.00,2.15
5995.00,2.15
5994.00,2.15
5993.00,2.14
5992.00,2.14
5991.00,2.14
5990.00,2.14
5989.00,2.13
5988.00,2.13
5987.00,2.13
5986.00,2.12
5985.00,2.12
5984.00,2.12
5983.00,2.11
5982.00,2.11
5981.00,2.10
5980.00,2.10
5979.00,2.09
5978.00,2.08
5977.00,2.08
5976.00,2.07
5975.00,2.06
5974.00,2.06
5973.00,2.05
5972.00,2.04
5971.00,2.03
5970.00,2.02
5969.00,2.01
5968.00,2.00
5967.00,1.99
5966.00,1.98
5965.00,1.97
5964.00,1.96
5963.00,1.95
5962.00,1.93
5961.00,1.92
5960.00,1.91
5959.00,1.90
5958.00,1.89
5957.00,1.88
5956.00,1.87
5955.00,1.85
5954.00,1.84
5953.00,1.83
5952.00,1.82
5951.00,1.81
5950.00,1.80
5949.00,1.80
5948.00,1.79
5947.00,1.78
5946.00,1.77
5945.00,1.77
5944.00,1.76
5943.00,1.76
5942.00,1.75
5941.00,1.75
5940.00,1.75
5939.00,1.74
5938.00,1.74
5937.00,1.74
5936.00,1.74
5935.00,1.73
5934.00,1.73
5933.00,1.73
5932.00,1.73
5931.00,1.73
5930.00,1.72
5929.00,1.72
5928.00,1.72
5927.00,1.72
5926.00,1.72
5925.00,1.71
5924.00,1.71
5923.00,1.71
5922.00,1.70
5921.00,1.70
5920.00,1.70
5919.00,1.69
5918.00,1.69
5917.00,1.68
5916.00,1.68
5915.00,1.67
5914.00,1.67
5913.00,1.67
5912.00,1.66
5911.00,1.66
5910.00,1.65
5909.00,1.65
5908.00,1.65
5907.00,1.64
5906.00,1.64
5905.00,1.64
5904.00,1.64
5903.00,1.64
5902.00,1.63
5901.00,1.63
5900.00,1.63
5899.00,1.63
5898.00,1.63
5897.00,1.64
5896.00,1.64
5895.00,1.64
5894.00,1.64
5893.00,1.64
5892.00,1.65
5891.00,1.65
5890.00,1.65
5889.00,1.66
5888.00,1.66
5887.00,1.66
5886.00,1.67
5885.00,1.67
5884.00,1.68
5883.00,1.68
5882.00,1.69
5881.00,1.69
5880.00,1.70
5879.00,1.70
5878.00,1.70
5877.00,1.71
5876.00,1.71
5875.00,1.72
5874.00,1.72
5873.00,1.72
5872.00,1.73
5871.00,1.73
5870.00,1.73
5869.00,1.74
5868.00,1.74
5867.00,1.74
5866.00,1.74
5865.00,1.75
5864.00,1.75
5863.00,1.75
5862.00,1.75
5861.00,1.76
5860.00,1.76
5859.00,1.76
5858.00,1.76
5857.00,1.76
5856.00,1.77
5855.00,1.77
5854.00,1.77
5853.00,1.77
5852.00,1.77
5851.00,1.77
5850.00,1.77
5849.00,1.77
5848.00,1.77
5847.00,1.77
5846.00,1.77
5845.00,1.77
5844.00,1.77
5843.00,1.77
5842.00,1.77
5841.00,1.77
5840.00,1.77
5839.00,1.77
5838.00,1.77
5837.00,1.77
5836.00,1.77
5835.00,1.77
5834.00,1.77
5833.00,1.77
5832.00,1.77
5831.00,1.77
5830.00,1.77
5829.00,1.77
5828.00,1.77
5827.00,1.77
5826.00,1.77
5825.00,1.77
5824.00,1.77
5823.00,1.77
5822.00,1.77
5821.00,1.77
5820.00,1.77
5819.00,1.77
5818.00,1.77
5817.00,1.77
5816.00,1.77
5815.00,1.78
5814.00,1.78
5813.00,1.78
5812.00,1.78
5811.00,1.78
5810.00,1.78
5809.00,1.78
5808.00,1.78
5807.00,1.78
5806.00,1.78
5805.00,1.78
5804.00,1.77
5803.00,1.77
5802.00,1.77
5801.00,1.77
5800.00,1.77
5799.00,1.77
5798.00,1.76
5797.00,1.76
5796.00,1.76
5795.00,1.76
5794.00,1.75
5793.00,1.75
5792.00,1.75
5791.00,1.74
5790.00,1.74
5789.00,1.73
5788.00,1.73
5787.00,1.73
5786.00,1.72
5785.00,1.72
5784.00,1.72
5783.00,1.71
5782.00,1.71
5781.00,1.71
5780.00,1.70
5779.00,1.70
5778.00,1.70
5777.00,1.70
5776.00,1.70
5775.00,1.70
5774.00,1.70
5773.00,1.70
5772.00,1.70
5771.00,1.70
5770.00,1.70
5769.00,1.70
5768.00,1.71
5767.00,1.71
5766.00,1.71
5765.00,1.72
5764.00,1.72
5763.00,1.73
5762.00,1.73
5761.00,1.73
5760.00,1.74
5759.00,1.74
5758.00,1.75
5757.00,1.75
5756.00,1.76
5755.00,1.76
5754.00,1.77
5753.00,1.77
5752.00,1.78
5751.00,1.78
5750.00,1.79
5749.00,1.79
5748.00,1.80
5747.00,1.80
5746.00,1.81
5745.00,1.81
5744.00,1.82
5743.00,1.82
5742.00,1.83
5741.00,1.83
5740.00,1.84
5739.00,1.84
5738.00,1.85
5737.00,1.85
5736.00,1.85
5735.00,1.86
5734.00,1.86
5733.00,1.86
5732.00,1.87
5731.00,1.87
5730.00,1.87
5729.00,1.88
5728.00,1.88
5727.00,1.88
5726.00,1.88
5725.00,1.88
5724.00,1.88
5723.00,1.88
5722.00,1.89
5721.00,1.89
5720.00,1.89
5719.00,1.89
5718.00,1.89
5717.00,1.89
5716.00,1.89
5715.00,1.89
5714.00,1.89
5713.00,1.89
5712.00,1.89
5711.00,1.89
5710.00,1.89
5709.00,1.89
5708.00,1.89
5707.00,1.89
5706.00,1.88
5705.00,1.88
5704.00,1.88
5703.00,1.88
5702.00,1.88
5701.00,1.88
5700.00,1.87
5699.00,1.87
5698.00,1.87
5697.00,1.87
5696.00,1.86
5695.00,1.86
5694.00,1.86
5693.00,1.86
5692.00,1.86
5691.00,1.85
5690.00,1.85
5689.00,1.85
5688.00,1.85
5687.00,1.84
5686.00,1.84
5685.00,1.84
5684.00,1.84
5683.00,1.84
5682.00,1.84
5681.00,1.83
5680.00,1.83
5679.00,1.83
5678.00,1.83
5677.00,1.83
5676.00,1.83
5675.00,1.83
5674.00,1.83
5673.00,1.83
5672.00,1.83
5671.00,1.83
5670.00,1.83
5669.00,1.83
5668.00,1.83
5667.00,1.83
5666.00,1.84
5665.00,1.84
5664.00,1.84
5663.00,1.84
5662.00,1.84
5661.00,1.85
5660.00,1.85
5659.00,1.85
5658.00,1.85
5657.00,1.86
5656.00,1.86
5655.00,1.86
5654.00,1.86
5653.00,1.87
5652.00,1.87
5651.00,1.87
5650.00,1.88
5649.00,1.88
5648.00,1.88
5647.00,1.89
5646.00,1.89
5645.00,1.89
5644.00,1.90
5643.00,1.90
5642.00,1.90
5641.00,1.91
5640.00,1.91
5639.00,1.91
5638.00,1.92
5637.00,1.92
5636.00,1.92
5635.00,1.93
5634.00,1.93
5633.00,1.93
5632.00,1.93
5631.00,1.94
5630.00,1.94
5629.00,1.94
5628.00,1.95
5627.00,1.95
5626.00,1.95
5625.00,1.96
5624.00,1.96
5623.00,1.96
5622.00,1.96
5621.00,1.97
5620.00,1.97
5619.00,1.97
5618.00,1.98
5617.00,1.98
5616.00,1.98
5615.00,1.98
5614.00,1.99
5613.00,1.99
5612.00,1.99
5611.00,2.00
5610.00,2.00
5609.00,2.00
5608.00,2.00
5607.00,2.01
5606.00,2.01
5605.00,2.01
5604.00,2.02
5603.00,2.02
5602.00,2.02
5601.00,2.03
5600.00,2.03
5599.00,2.03
5598.00,2.03
5597.00,2.04
5596.00,2.04
5595.00,2.04
5594.00,2.04
5593.00,2.05
5592.00,2.05
5591.00,2.05
5590.00,2.06
5589.00,2.06
5588.00,2.06
5587.00,2.06
5586.00,2.07
5585.00,2.07
5584.00,2.07
5583.00,2.07
5582.00,2.08
5581.00,2.08
5580.00,2.08
5579.00,2.08
5578.00,2.09
5577.00,2.09
5576.00,2.09
5575.00,2.09
5574.00,2.10
5573.00,2.10
5572.00,2.10
5571.00,2.10
5570.00,2.11
5569.00,2.11
5568.00,2.11
5567.00,2.11
5566.00,2.12
5565.00,2.12
5564.00,2.12
5563.00,2.12
5562.00,2.12
5561.00,2.13
5560.00,2.13
5559.00,2.13
5558.00,2.13
5557.00,2.13
5556.00,2.14
5555.00,2.14
5554.00,2.14
5553.00,2.14
5552.00,2.14
5551.00,2.15
5550.00,2.15
5549.00,2.15
5548.00,2.15
5547.00,2.15
5546.00,2.16
5545.00,2.16
5544.00,2.16
5543.00,2.16
5542.00,2.16
5541.00,2.17
5540.00,2.17
5539.00,2.17
5538.00,2.17
5537.00,2.17
5536.00,2.18
5535.00,2.18
5534.00,2.18
5533.00,2.18
5532.00,2.18
5531.00,2.19
5530.00,2.19
5529.00,2.19
5528.00,2.19
5527.00,2.19
5526.00,2.19
5525.00,2.20
5524.00,2.20
5523.00,2.20
5522.00,2.20
5521.00,2.20
5520.00,2.20
5519.00,2.20
5518.00,2.20
5517.00,2.20
5516.00,2.20
5515.00,2.20
5514.00,2.21
5513.00,2.21
5512.00,2.21
5511.00,2.21
5510.00,2.21
5509.00,2.21
5508.00,2.21
5507.00,2.21
5506.00,2.21
5505.00,2.21
5504.00,2.21
5503.00,2.21
5502.00,2.21
5501.00,2.21
5500.00,2.21
5499.00,2.21
5498.00,2.21
5497.00,2.21
5496.00,2.21
5495.00,2.21
5494.00,2.22
5493.00,2.22
5492.00,2.22
5491.00,2.22
5490.00,2.22
5489.00,2.23
5488.00,2.23
5487.00,2.23
5486.00,2.23
5485.00,2.24
5484.00,2.24
5483.00,2.24
5482.00,2.24
5481.00,2.25
5480.00,2.25
5479.00,2.25
5478.00,2.25
5477.00,2.25
5476.00,2.26
5475.00,2.26
5474.00,2.26
5473.00,2.26
5472.00,2.26
5471.00,2.26
5470.00,2.26
5469.00,2.27
5468.00,2.27
5467.00,2.27
5466.00,2.27
5465.00,2.27
5464.00,2.28
5463.00,2.28
5462.00,2.28
5461.00,2.28
5460.00,2.28
5459.00,2.28
5458.00,2.29
5457.00,2.29
5456.00,2.29
5455.00,2.29
5454.00,2.29
5453.00,2.29
5452.00,2.29
5451.00,2.29
5450.00,2.29
5449.00,2.29
5448.00,2.29
5447.00,2.29
5446.00,2.29
5445.00,2.29
5444.00,2.29
5443.00,2.29
5442.00,2.29
5441.00,2.29
5440.00,2.29
5439.00,2.29
5438.00,2.29
5437.00,2.29
5436.00,2.29
5435.00,2.30
5434.00,2.30
5433.00,2.30
5432.00,2.30
5431.00,2.30
5430.00,2.30
5429.00,2.30
5428.00,2.31
5427.00,2.31
5426.00,2.31
5425.00,2.31
5424.00,2.31
5423.00,2.31
5422.00,2.31
5421.00,2.31
5420.00,2.31
5419.00,2.31
5418.00,2.31
5417.00,2.31
5416.00,2.31
5415.00,2.31
5414.00,2.31
5413.00,2.31
5412.00,2.31
5411.00,2.31
5410.00,2.31
5409.00,2.31
5408.00,2.31
5407.00,2.31
5406.00,2.31
5405.00,2.31
5404.00,2.31
5403.00,2.31
5402.00,2.31
5401.00,2.31
5400.00,2.31
5399.00,2.31
5398.00,2.31
5397.00,2.31
5396.00,2.31
5395.00,2.31
5394.00,2.31
5393.00,2.30
5392.00,2.30
5391.00,2.30
5390.00,2.30
5389.00,2.29
5388.00,2.29
5387.00,2.29
5386.00,2.29
5385.00,2.28
5384.00,2.28
5383.00,2.28
5382.00,2.27
5381.00,2.27
5380.00,2.26
5379.00,2.26
5378.00,2.25
5377.00,2.25
5376.00,2.24
5375.00,2.24
5374.00,2.23
5373.00,2.23
5372.00,2.22
5371.00,2.22
5370.00,2.21
5369.00,2.20
5368.00,2.20
5367.00,2.19
5366.00,2.18
5365.00,2.17
5364.00,2.17
5363.00,2.16
5362.00,2.15
5361.00,2.14
5360.00,2.13
5359.00,2.12
5358.00,2.11
5357.00,2.09
5356.00,2.08
5355.00,2.07
5354.00,2.06
5353.00,2.04
5352.00,2.03
5351.00,2.01
5350.00,2.00
5349.00,1.98
5348.00,1.97
5347.00,1.95
5346.00,1.94
5345.00,1.92
5344.00,1.90
5343.00,1.89
5342.00,1.87
5341.00,1.86
5340.00,1.84
5339.00,1.83
5338.00,1.81
5337.00,1.79
5336.00,1.78
5335.00,1.76
5334.00,1.75
5333.00,1.73
5332.00,1.72
5331.00,1.70
5330.00,1.69
5329.00,1.67
5328.00,1.66
5327.00,1.64
5326.00,1.62
5325.00,1.61
5324.00,1.59
5323.00,1.58
5322.00,1.56
5321.00,1.54
5320.00,1.53
5319.00,1.51
5318.00,1.49
5317.00,1.48
5316.00,1.46
5315.00,1.44
5314.00,1.43
5313.00,1.41
5312.00,1.40
5311.00,1.38
5310.00,1.36
5309.00,1.35
5308.00,1.33
5307.00,1.32
5306.00,1.31
5305.00,1.29
5304.00,1.28
5303.00,1.27
5302.00,1.26
5301.00,1.24
5300.00,1.23
5299.00,1.22
5298.00,1.21
5297.00,1.20
5296.00,1.19
5295.00,1.18
5294.00,1.18
5293.00,1.17
5292.00,1.16
5291.00,1.15
5290.00,1.14
5289.00,1.14
5288.00,1.13
5287.00,1.13
5286.00,1.12
5285.00,1.11
5284.00,1.11
5283.00,1.10
5282.00,1.10
5281.00,1.09
5280.00,1.09
5279.00,1.09
5278.00,1.08
5277.00,1.08
5276.00,1.08
5275.00,1.07
5274.00,1.07
5273.00,1.07
5272.00,1.06
5271.00,1.06
5270.00,1.06
5269.00,1.06
5268.00,1.05
5267.00,1.05
5266.00,1.05
5265.00,1.05
5264.00,1.05
5263.00,1.04
5262.00,1.04
5261.00,1.04
5260.00,1.04
5259.00,1.04
5258.00,1.03
5257.00,1.03
5256.00,1.03
5255.00,1.03
5254.00,1.03
5253.00,1.03
5252.00,1.03
5251.00,1.03
5250.00,1.02
5249.00,1.02
5248.00,1.02
5247.00,1.02
5246.00,1.02
5245.00,1.02
5244.00,1.02
5243.00,1.02
5242.00,1.02
5241.00,1.02
5240.00,1.02
5239.00,1.02
5238.00,1.02
5237.00,1.02
5236.00,1.02
5235.00,1.02
5234.00,1.02
5233.00,1.02
5232.00,1.02
5231.00,1.02
5230.00,1.02
5229.00,1.02
5228.00,1.02
5227.00,1.02
5226.00,1.02
5225.00,1.03
5224.00,1.03
5223.00,1.03
5222.00,1.03
5221.00,1.03
5220.00,1.03
5219.00,1.03
5218.00,1.03
5217.00,1.03
5216.00,1.03
5215.00,1.03
5214.00,1.03
5213.00,1.03
5212.00,1.03
5211.00,1.03
5210.00,1.03
5209.00,1.03
5208.00,1.03
5207.00,1.03
5206.00,1.03
5205.00,1.04
5204.00,1.04
5203.00,1.04
5202.00,1.04
5201.00,1.04
5200.00,1.04
5199.00,1.04
5198.00,1.04
5197.00,1.04
5196.00,1.04
5195.00,1.04
5194.00,1.04
5193.00,1.04
5192.00,1.04
5191.00,1.04
5190.00,1.04
5189.00,1.05
5188.00,1.05
5187.00,1.05
5186.00,1.05
5185.00,1.05
5184.00,1.05
5183.00,1.05
5182.00,1.05
5181.00,1.05
5180.00,1.05
5179.00,1.05
5178.00,1.05
5177.00,1.05
5176.00,1.05
5175.00,1.06
5174.00,1.06
5173.00,1.06
5172.00,1.06
5171.00,1.06
5170.00,1.06
5169.00,1.06
5168.00,1.06
5167.00,1.06
5166.00,1.06
5165.00,1.06
5164.00,1.06
5163.00,1.06
5162.00,1.06
5161.00,1.06
5160.00,1.07
5159.00,1.07
5158.00,1.07
5157.00,1.07
5156.00,1.07
5155.00,1.07
5154.00,1.07
5153.00,1.07
5152.00,1.07
5151.00,1.07
5150.00,1.08
5149.00,1.08
5148.00,1.08
5147.00,1.08
5146.00,1.08
5145.00,1.08
5144.00,1.09
5143.00,1.09
5142.00,1.09
5141.00,1.09
5140.00,1.09
5139.00,1.09
5138.00,1.09
5137.00,1.09
5136.00,1.09
5135.00,1.09
5134.00,1.09
5133.00,1.09
5132.00,1.09
5131.00,1.09
5130.00,1.09
5129.00,1.09
5128.00,1.10
5127.00,1.10
5126.00,1.10
5125.00,1.10
5124.00,1.10
5123.00,1.10
5122.00,1.10
5121.00,1.10
5120.00,1.10
5119.00,1.10
5118.00,1.11
5117.00,1.11
5116.00,1.11
5115.00,1.11
5114.00,1.11
5113.00,1.11
5112.00,1.12
5111.00,1.12
5110.00,1.12
5109.00,1.12
5108.00,1.12
5107.00,1.12
5106.00,1.13
5105.00,1.13
5104.00,1.13
5103.00,1.13
5102.00,1.13
5101.00,1.13
5100.00,1.13
5099.00,1.13
5098.00,1.13
5097.00,1.13
5096.00,1.14
5095.00,1.14
5094.00,1.14
5093.00,1.14
5092.00,1.14
5091.00,1.14
5090.00,1.14
5089.00,1.14
5088.00,1.14
5087.00,1.14
5086.00,1.14
5085.00,1.14
5084.00,1.14
5083.00,1.14
5082.00,1.15
5081.00,1.15
5080.00,1.15
5079.00,1.15
5078.00,1.15
5077.00,1.15
5076.00,1.16
5075.00,1.16
5074.00,1.16
5073.00,1.16
5072.00,1.16
5071.00,1.16
5070.00,1.17
5069.00,1.17
5068.00,1.17
5067.00,1.17
5066.00,1.17
5065.00,1.17
5064.00,1.17
5063.00,1.18
5062.00,1.18
5061.00,1.18
5060.00,1.18
5059.00,1.18
5058.00,1.18
5057.00,1.18
5056.00,1.19
5055.00,1.19
5054.00,1.19
5053.00,1.19
5052.00,1.19
5051.00,1.19
5050.00,1.19
5049.00,1.20
5048.00,1.20
5047.00,1.20
5046.00,1.20
5045.00,1.20
5044.00,1.20
5043.00,1.20
5042.00,1.21
5041.00,1.21
5040.00,1.21
5039.00,1.21
5038.00,1.21
5037.00,1.21
5036.00,1.21
5035.00,1.21
5034.00,1.22
5033.00,1.22
5032.00,1.22
5031.00,1.22
5030.00,1.22
5029.00,1.22
5028.00,1.22
5027.00,1.23
5026.00,1.23
5025.00,1.23
5024.00,1.23
5023.00,1.23
5022.00,1.23
5021.00,1.23
5020.00,1.23
5019.00,1.24
5018.00,1.24
5017.00,1.24
5016.00,1.24
5015.00,1.24
5014.00,1.24
5013.00,1.25
5012.00,1.25
5011.00,1.25
5010.00,1.25
5009.00,1.25
5008.00,1.26
5007.00,1.26
5006.00,1.26
5005.00,1.26
5004.00,1.26
5003.00,1.27
5002.00,1.27
5001.00,1.27
5000.00,1.27
4999.00,1.27
4998.00,1.28
4997.00,1.28
4996.00,1.28
4995.00,1.28
4994.00,1.28
4993.00,1.28
4992.00,1.28
4991.00,1.28
4990.00,1.29
4989.00,1.29
4988.00,1.29
4987.00,1.29
4986.00,1.29
4985.00,1.29
4984.00,1.29
4983.00,1.30
4982.00,1.30
4981.00,1.30
4980.00,1.30
4979.00,1.30
4978.00,1.30
4977.00,1.31
4976.00,1.31
4975.00,1.31
4974.00,1.31
4973.00,1.31
4972.00,1.32
4971.00,1.32
4970.00,1.32
4969.00,1.32
4968.00,1.32
4967.00,1.33
4966.00,1.33
4965.00,1.33
4964.00,1.33
4963.00,1.33
4962.00,1.34
4961.00,1.34
4960.00,1.34
4959.00,1.34
4958.00,1.35
4957.00,1.35
4956.00,1.35
4955.00,1.35
4954.00,1.36
4953.00,1.36
4952.00,1.36
4951.00,1.36
4950.00,1.36
4949.00,1.37
4948.00,1.37
4947.00,1.37
4946.00,1.37
4945.00,1.37
4944.00,1.37
4943.00,1.37
4942.00,1.37
4941.00,1.38
4940.00,1.38
4939.00,1.38
4938.00,1.38
4937.00,1.38
4936.00,1.38
4935.00,1.38
4934.00,1.38
4933.00,1.38
4932.00,1.39
4931.00,1.39
4930.00,1.39
4929.00,1.39
4928.00,1.39
4927.00,1.39
4926.00,1.40
4925.00,1.40
4924.00,1.40
4923.00,1.40
4922.00,1.40
4921.00,1.41
4920.00,1.41
4919.00,1.41
4918.00,1.41
4917.00,1.41
4916.00,1.41
4915.00,1.41
4914.00,1.41
4913.00,1.41
4912.00,1.41
4911.00,1.42
4910.00,1.42
4909.00,1.42
4908.00,1.42
4907.00,1.42
4906.00,1.42
4905.00,1.42
4904.00,1.42
4903.00,1.42
4902.00,1.42
4901.00,1.42
4900.00,1.42
4899.00,1.42
4898.00,1.43
4897.00,1.43
4896.00,1.43
4895.00,1.43
4894.00,1.43
4893.00,1.43
4892.00,1.43
4891.00,1.43
4890.00,1.43
4889.00,1.44
4888.00,1.44
4887.00,1.44
4886.00,1.44
4885.00,1.44
4884.00,1.44
4883.00,1.44
4882.00,1.44
4881.00,1.44
4880.00,1.44
4879.00,1.45
4878.00,1.45
4877.00,1.45
4876.00,1.45
4875.00,1.45
4874.00,1.45
4873.00,1.45
4872.00,1.45
4871.00,1.45
4870.00,1.45
4869.00,1.46
4868.00,1.46
4867.00,1.46
4866.00,1.46
4865.00,1.46
4864.00,1.46
4863.00,1.46
4862.00,1.46
4861.00,1.46
4860.00,1.47
4859.00,1.47
4858.00,1.47
4857.00,1.47
4856.00,1.47
4855.00,1.47
4854.00,1.47
4853.00,1.47
4852.00,1.47
4851.00,1.47
4850.00,1.48
4849.00,1.48
4848.00,1.48
4847.00,1.48
4846.00,1.48
4845.00,1.48
4844.00,1.48
4843.00,1.48
4842.00,1.48
4841.00,1.49
4840.00,1.49
4839.00,1.49
4838.00,1.49
4837.00,1.49
4836.00,1.49
4835.00,1.49
4834.00,1.50
4833.00,1.50
4832.00,1.50
4831.00,1.50
4830.00,1.50
4829.00,1.50
4828.00,1.51
4827.00,1.51
4826.00,1.51
4825.00,1.51
4824.00,1.51
4823.00,1.51
4822.00,1.52
4821.00,1.52
4820.00,1.52
4819.00,1.52
4818.00,1.52
4817.00,1.52
4816.00,1.52
4815.00,1.53
4814.00,1.53
4813.00,1.53
4812.00,1.53
4811.00,1.53
4810.00,1.53
4809.00,1.54
4808.00,1.54
4807.00,1.54
4806.00,1.54
4805.00,1.54
4804.00,1.54
4803.00,1.55
4802.00,1.55
4801.00,1.55
4800.00,1.55
4799.00,1.55
4798.00,1.56
4797.00,1.56
4796.00,1.56
4795.00,1.56
4794.00,1.56
4793.00,1.57
4792.00,1.57
4791.00,1.57
4790.00,1.57
4789.00,1.57
4788.00,1.58
4787.00,1.58
4786.00,1.58
4785.00,1.58
4784.00,1.58
4783.00,1.59
4782.00,1.59
4781.00,1.59
4780.00,1.59
4779.00,1.60
4778.00,1.60
4777.00,1.60
4776.00,1.60
4775.00,1.61
4774.00,1.61
4773.00,1.61
4772.00,1.61
4771.00,1.62
4770.00,1.62
4769.00,1.62
4768.00,1.63
4767.00,1.63
4766.00,1.63
4765.00,1.63
4764.00,1.64
4763.00,1.64
4762.00,1.64
4761.00,1.65
4760.00,1.65
4759.00,1.65
4758.00,1.65
4757.00,1.66
4756.00,1.66
4755.00,1.66
4754.00,1.66
4753.00,1.67
4752.00,1.67
4751.00,1.67
4750.00,1.67
4749.00,1.67
4748.00,1.68
4747.00,1.68
4746.00,1.68
4745.00,1.68
4744.00,1.69
4743.00,1.69
4742.00,1.69
4741.00,1.70
4740.00,1.70
4739.00,1.70
4738.00,1.71
4737.00,1.71
4736.00,1.72
4735.00,1.72
4734.00,1.72
4733.00,1.73
4732.00,1.73
4731.00,1.73
4730.00,1.74
4729.00,1.74
4728.00,1.75
4727.00,1.75
4726.00,1.75
4725.00,1.76
4724.00,1.76
4723.00,1.77
4722.00,1.77
4721.00,1.77
4720.00,1.78
4719.00,1.78
4718.00,1.78
4717.00,1.79
4716.00,1.79
4715.00,1.79
4714.00,1.79
4713.00,1.80
4712.00,1.80
4711.00,1.80
4710.00,1.80
4709.00,1.81
4708.00,1.81
4707.00,1.81
4706.00,1.81
4705.00,1.82
4704.00,1.82
4703.00,1.82
4702.00,1.83
4701.00,1.83
4700.00,1.83
4699.00,1.83
4698.00,1.84
4697.00,1.84
4696.00,1.84
4695.00,1.84
4694.00,1.85
4693.00,1.85
4692.00,1.85
4691.00,1.85
4690.00,1.86
4689.00,1.86
4688.00,1.86
4687.00,1.86
4686.00,1.86
4685.00,1.87
4684.00,1.87
4683.00,1.87
4682.00,1.87
4681.00,1.87
4680.00,1.88
4679.00,1.88
4678.00,1.88
4677.00,1.88
4676.00,1.88
4675.00,1.89
4674.00,1.89
4673.00,1.89
4672.00,1.90
4671.00,1.90
4670.00,1.90
4669.00,1.91
4668.00,1.91
4667.00,1.91
4666.00,1.92
4665.00,1.92
4664.00,1.92
4663.00,1.93
4662.00,1.93
4661.00,1.93
4660.00,1.94
4659.00,1.94
4658.00,1.94
4657.00,1.95
4656.00,1.95
4655.00,1.95
4654.00,1.96
4653.00,1.96
4652.00,1.96
4651.00,1.97
4650.00,1.97
4649.00,1.97
4648.00,1.97
4647.00,1.98
4646.00,1.98
4645.00,1.98
4644.00,1.98
4643.00,1.98
4642.00,1.99
4641.00,1.99
4640.00,1.99
4639.00,1.99
4638.00,1.99
4637.00,2.00
4636.00,2.00
4635.00,2.00
4634.00,2.00
4633.00,2.01
4632.00,2.01
4631.00,2.01
4630.00,2.02
4629.00,2.02
4628.00,2.02
4627.00,2.02
4626.00,2.03
4625.00,2.03
4624.00,2.03
4623.00,2.04
4622.00,2.04
4621.00,2.04
4620.00,2.04
4619.00,2.04
4618.00,2.05
4617.00,2.05
4616.00,2.05
4615.00,2.05
4614.00,2.05
4613.00,2.05
4612.00,2.06
4611.00,2.06
4610.00,2.06
4609.00,2.06
4608.00,2.06
4607.00,2.06
4606.00,2.06
4605.00,2.06
4604.00,2.07
4603.00,2.07
4602.00,2.07
4601.00,2.07
4600.00,2.07
4599.00,2.08
4598.00,2.08
4597.00,2.08
4596.00,2.08
4595.00,2.08
4594.00,2.09
4593.00,2.09
4592.00,2.09
4591.00,2.09
4590.00,2.10
4589.00,2.10
4588.00,2.10
4587.00,2.10
4586.00,2.11
4585.00,2.11
4584.00,2.11
4583.00,2.11
4582.00,2.11
4581.00,2.12
4580.00,2.12
4579.00,2.12
4578.00,2.12
4577.00,2.12
4576.00,2.13
4575.00,2.13
4574.00,2.13
4573.00,2.13
4572.00,2.13
4571.00,2.13
4570.00,2.14
4569.00,2.14
4568.00,2.14
4567.00,2.14
4566.00,2.14
4565.00,2.15
4564.00,2.15
4563.00,2.15
4562.00,2.15
4561.00,2.15
4560.00,2.16
4559.00,2.16
4558.00,2.16
4557.00,2.16
4556.00,2.16
4555.00,2.17
4554.00,2.17
4553.00,2.17
4552.00,2.17
4551.00,2.17
4550.00,2.18
4549.00,2.18
4548.00,2.18
4547.00,2.18
4546.00,2.18
4545.00,2.19
4544.00,2.19
4543.00,2.19
4542.00,2.19
4541.00,2.19
4540.00,2.19
4539.00,2.20
4538.00,2.20
4537.00,2.20
4536.00,2.20
4535.00,2.20
4534.00,2.21
4533.00,2.21
4532.00,2.21
4531.00,2.21
4530.00,2.21
4529.00,2.21
4528.00,2.21
4527.00,2.21
4526.00,2.21
4525.00,2.22
4524.00,2.22
4523.00,2.22
4522.00,2.22
4521.00,2.22
4520.00,2.22
4519.00,2.22
4518.00,2.22
4517.00,2.22
4516.00,2.23
4515.00,2.23
4514.00,2.23
4513.00,2.23
4512.00,2.23
4511.00,2.23
4510.00,2.23
4509.00,2.23
4508.00,2.23
4507.00,2.23
4506.00,2.23
4505.00,2.23
4504.00,2.22
4503.00,2.22
4502.00,2.22
4501.00,2.22
4500.00,2.22
4499.00,2.22
4498.00,2.22
4497.00,2.21
4496.00,2.21
4495.00,2.21
4494.00,2.21
4493.00,2.21
4492.00,2.21
4491.00,2.21
4490.00,2.21
4489.00,2.20
4488.00,2.20
4487.00,2.20
4486.00,2.20
4485.00,2.20
4484.00,2.19
4483.00,2.19
4482.00,2.19
4481.00,2.19
4480.00,2.18
4479.00,2.18
4478.00,2.18
4477.00,2.17
4476.00,2.17
4475.00,2.16
4474.00,2.16
4473.00,2.16
4472.00,2.15
4471.00,2.15
4470.00,2.14
4469.00,2.14
4468.00,2.13
4467.00,2.13
4466.00,2.12
4465.00,2.12
4464.00,2.11
4463.00,2.11
4462.00,2.10
4461.00,2.10
4460.00,2.09
4459.00,2.09
4458.00,2.08
4457.00,2.07
4456.00,2.07
4455.00,2.06
4454.00,2.05
4453.00,2.05
4452.00,2.04
4451.00,2.03
4450.00,2.03
4449.00,2.02
4448.00,2.01
4447.00,2.00
4446.00,2.00
4445.00,1.99
4444.00,1.98
4443.00,1.97
4442.00,1.96
4441.00,1.95
4440.00,1.95
4439.00,1.94
4438.00,1.93
4437.00,1.92
4436.00,1.91
4435.00,1.90
4434.00,1.90
4433.00,1.89
4432.00,1.88
4431.00,1.87
4430.00,1.87
4429.00,1.86
4428.00,1.86
4427.00,1.85
4426.00,1.84
4425.00,1.84
4424.00,1.84
4423.00,1.83
4422.00,1.83
4421.00,1.82
4420.00,1.82
4419.00,1.82
4418.00,1.82
4417.00,1.81
4416.00,1.81
4415.00,1.81
4414.00,1.81
4413.00,1.81
4412.00,1.81
4411.00,1.81
4410.00,1.81
4409.00,1.81
4408.00,1.81
4407.00,1.81
4406.00,1.81
4405.00,1.81
4404.00,1.81
4403.00,1.81
4402.00,1.82
4401.00,1.82
4400.00,1.82
4399.00,1.82
4398.00,1.83
4397.00,1.83
4396.00,1.83
4395.00,1.83
4394.00,1.84
4393.00,1.84
4392.00,1.84
4391.00,1.84
4390.00,1.85
4389.00,1.85
4388.00,1.85
4387.00,1.85
4386.00,1.85
4385.00,1.86
4384.00,1.86
4383.00,1.86
4382.00,1.86
4381.00,1.86
4380.00,1.87
4379.00,1.87
4378.00,1.87
4377.00,1.87
4376.00,1.87
4375.00,1.87
4374.00,1.87
4373.00,1.88
4372.00,1.88
4371.00,1.88
4370.00,1.88
4369.00,1.88
4368.00,1.88
4367.00,1.88
4366.00,1.88
4365.00,1.88
4364.00,1.88
4363.00,1.88
4362.00,1.88
4361.00,1.88
4360.00,1.88
4359.00,1.88
4358.00,1.88
4357.00,1.88
4356.00,1.88
4355.00,1.88
4354.00,1.88
4353.00,1.88
4352.00,1.88
4351.00,1.88
4350.00,1.88
4349.00,1.88
4348.00,1.88
4347.00,1.88
4346.00,1.88
4345.00,1.88
4344.00,1.88
4343.00,1.88
4342.00,1.88
4341.00,1.88
4340.00,1.89
4339.00,1.89
4338.00,1.89
4337.00,1.89
4336.00,1.89
4335.00,1.89
4334.00,1.90
4333.00,1.90
4332.00,1.90
4331.00,1.91
4330.00,1.91
4329.00,1.91
4328.00,1.91
4327.00,1.92
4326.00,1.92
4325.00,1.92
4324.00,1.93
4323.00,1.93
4322.00,1.93
4321.00,1.94
4320.00,1.94
4319.00,1.94
4318.00,1.95
4317.00,1.95
4316.00,1.95
4315.00,1.96
4314.00,1.96
4313.00,1.96
4312.00,1.96
4311.00,1.97
4310.00,1.97
4309.00,1.97
4308.00,1.98
4307.00,1.98
4306.00,1.98
4305.00,1.98
4304.00,1.99
4303.00,1.99
4302.00,1.99
4301.00,1.99
4300.00,2.00
4299.00,2.00
4298.00,2.00
4297.00,2.01
4296.00,2.01
4295.00,2.01
4294.00,2.02
4293.00,2.02
4292.00,2.02
4291.00,2.03
4290.00,2.03
4289.00,2.03
4288.00,2.04
4287.00,2.04
4286.00,2.04
4285.00,2.04
4284.00,2.05
4283.00,2.05
4282.00,2.05
4281.00,2.05
4280.00,2.05
4279.00,2.05
4278.00,2.05
4277.00,2.05
4276.00,2.05
4275.00,2.05
4274.00,2.05
4273.00,2.05
4272.00,2.05
4271.00,2.04
4270.00,2.04
4269.00,2.04
4268.00,2.04
4267.00,2.04
4266.00,2.04
4265.00,2.03
4264.00,2.03
4263.00,2.03
4262.00,2.03
4261.00,2.03
4260.00,2.02
4259.00,2.02
4258.00,2.02
4257.00,2.02
4256.00,2.02
4255.00,2.02
4254.00,2.02
4253.00,2.02
4252.00,2.02
4251.00,2.02
4250.00,2.02
4249.00,2.02
4248.00,2.03
4247.00,2.03
4246.00,2.03
4245.00,2.04
4244.00,2.04
4243.00,2.04
4242.00,2.05
4241.00,2.05
4240.00,2.06
4239.00,2.06
4238.00,2.07
4237.00,2.07
4236.00,2.07
4235.00,2.08
4234.00,2.08
4233.00,2.09
4232.00,2.09
4231.00,2.10
4230.00,2.10
4229.00,2.10
4228.00,2.11
4227.00,2.11
4226.00,2.11
4225.00,2.12
4224.00,2.12
4223.00,2.12
4222.00,2.12
4221.00,2.13
4220.00,2.13
4219.00,2.13
4218.00,2.13
4217.00,2.13
4216.00,2.13
4215.00,2.13
4214.00,2.13
4213.00,2.13
4212.00,2.13
4211.00,2.13
4210.00,2.13
4209.00,2.13
4208.00,2.13
4207.00,2.13
4206.00,2.13
4205.00,2.13
4204.00,2.14
4203.00,2.14
4202.00,2.14
4201.00,2.14
4200.00,2.14
4199.00,2.14
4198.00,2.14
4197.00,2.15
4196.00,2.15
4195.00,2.15
4194.00,2.15
4193.00,2.15
4192.00,2.15
4191.00,2.15
4190.00,2.15
4189.00,2.15
4188.00,2.15
4187.00,2.15
4186.00,2.15
4185.00,2.15
4184.00,2.15
4183.00,2.15
4182.00,2.15
4181.00,2.15
4180.00,2.15
4179.00,2.14
4178.00,2.14
4177.00,2.14
4176.00,2.14
4175.00,2.14
4174.00,2.14
4173.00,2.14
4172.00,2.14
4171.00,2.14
4170.00,2.14
4169.00,2.14
4168.00,2.14
4167.00,2.14
4166.00,2.15
4165.00,2.15
4164.00,2.15
4163.00,2.15
4162.00,2.15
4161.00,2.15
4160.00,2.16
4159.00,2.16
4158.00,2.16
4157.00,2.16
4156.00,2.16
4155.00,2.17
4154.00,2.17
4153.00,2.17
4152.00,2.17
4151.00,2.17
4150.00,2.18
4149.00,2.18
4148.00,2.18
4147.00,2.18
4146.00,2.18
4145.00,2.18
4144.00,2.19
4143.00,2.19
4142.00,2.19
4141.00,2.19
4140.00,2.19
4139.00,2.19
4138.00,2.19
4137.00,2.19
4136.00,2.20
4135.00,2.20
4134.00,2.20
4133.00,2.20
4132.00,2.20
4131.00,2.20
4130.00,2.20
4129.00,2.20
4128.00,2.20
4127.00,2.20
4126.00,2.20
4125.00,2.20
4124.00,2.20
4123.00,2.20
4122.00,2.20
4121.00,2.20
4120.00,2.20
4119.00,2.20
4118.00,2.20
4117.00,2.21
4116.00,2.21
4115.00,2.21
4114.00,2.21
4113.00,2.21
4112.00,2.21
4111.00,2.21
4110.00,2.21
4109.00,2.22
4108.00,2.22
4107.00,2.22
4106.00,2.22
4105.00,2.22
4104.00,2.22
4103.00,2.22
4102.00,2.22
4101.00,2.22
4100.00,2.22
4099.00,2.22
4098.00,2.22
4097.00,2.22
4096.00,2.22
4095.00,2.22
4094.00,2.22
4093.00,2.22
4092.00,2.22
4091.00,2.22
4090.00,2.22
4089.00,2.22
4088.00,2.22
4087.00,2.22
4086.00,2.22
4085.00,2.22
4084.00,2.23
4083.00,2.23
4082.00,2.23
4081.00,2.23
4080.00,2.23
4079.00,2.23
4078.00,2.23
4077.00,2.23
4076.00,2.23
4075.00,2.24
4074.00,2.24
4073.00,2.24
4072.00,2.24
4071.00,2.24
4070.00,2.24
4069.00,2.24
4068.00,2.24
4067.00,2.24
4066.00,2.24
4065.00,2.24
4064.00,2.24
4063.00,2.24
4062.00,2.24
4061.00,2.24
4060.00,2.24
4059.00,2.25
4058.00,2.25
4057.00,2.25
4056.00,2.25
4055.00,2.25
4054.00,2.25
4053.00,2.25
4052.00,2.25
4051.00,2.26
4050.00,2.26
4049.00,2.26
4048.00,2.26
4047.00,2.26
4046.00,2.27
4045.00,2.27
4044.00,2.27
4043.00,2.27
4042.00,2.28
4041.00,2.28
4040.00,2.28
4039.00,2.29
4038.00,2.29
4037.00,2.29
4036.00,2.30
4035.00,2.30
4034.00,2.30
4033.00,2.30
4032.00,2.30
4031.00,2.31
4030.00,2.31
4029.00,2.31
4028.00,2.31
4027.00,2.31
4026.00,2.31
4025.00,2.31
4024.00,2.31
4023.00,2.31
4022.00,2.31
4021.00,2.31
4020.00,2.31
4019.00,2.31
4018.00,2.31
4017.00,2.31
4016.00,2.31
4015.00,2.31
4014.00,2.31
4013.00,2.31
4012.00,2.31
4011.00,2.31
4010.00,2.31
4009.00,2.31
4008.00,2.31
4007.00,2.31
4006.00,2.31
4005.00,2.31
4004.00,2.31
4003.00,2.31
4002.00,2.31
4001.00,2.31
4000.00,2.31
