创建为新数据集,样品 288 用户 Administrator 日期 星期三, 三月 07 2018
cm-1,%T
10000.00,1.24
9999.00,1.24
9998.00,1.24
9997.00,1.24
9996.00,1.24
9995.00,1.24
9994.00,1.24
9993.00,1.24
9992.00,1.24
9991.00,1.24
9990.00,1.24
9989.00,1.24
9988.00,1.24
9987.00,1.24
9986.00,1.24
9985.00,1.24
9984.00,1.23
9983.00,1.23
9982.00,1.23
9981.00,1.23
9980.00,1.23
9979.00,1.23
9978.00,1.23
9977.00,1.23
9976.00,1.23
9975.00,1.23
9974.00,1.22
9973.00,1.22
9972.00,1.22
9971.00,1.22
9970.00,1.22
9969.00,1.22
9968.00,1.22
9967.00,1.23
9966.00,1.23
9965.00,1.23
9964.00,1.23
9963.00,1.23
9962.00,1.23
9961.00,1.23
9960.00,1.23
9959.00,1.24
9958.00,1.24
9957.00,1.24
9956.00,1.24
9955.00,1.24
9954.00,1.24
9953.00,1.24
9952.00,1.24
9951.00,1.24
9950.00,1.24
9949.00,1.24
9948.00,1.24
9947.00,1.24
9946.00,1.23
9945.00,1.23
9944.00,1.23
9943.00,1.23
9942.00,1.23
9941.00,1.23
9940.00,1.23
9939.00,1.23
9938.00,1.23
9937.00,1.23
9936.00,1.23
9935.00,1.23
9934.00,1.23
9933.00,1.24
9932.00,1.24
9931.00,1.24
9930.00,1.24
9929.00,1.24
9928.00,1.24
9927.00,1.24
9926.00,1.24
9925.00,1.24
9924.00,1.24
9923.00,1.24
9922.00,1.24
9921.00,1.24
9920.00,1.24
9919.00,1.24
9918.00,1.23
9917.00,1.23
9916.00,1.23
9915.00,1.23
9914.00,1.23
9913.00,1.23
9912.00,1.23
9911.00,1.23
9910.00,1.23
9909.00,1.23
9908.00,1.23
9907.00,1.23
9906.00,1.23
9905.00,1.23
9904.00,1.23
9903.00,1.23
9902.00,1.23
9901.00,1.23
9900.00,1.23
9899.00,1.23
9898.00,1.23
9897.00,1.23
9896.00,1.23
9895.00,1.24
9894.00,1.24
9893.00,1.24
9892.00,1.24
9891.00,1.24
9890.00,1.24
9889.00,1.24
9888.00,1.24
9887.00,1.24
9886.00,1.24
9885.00,1.24
9884.00,1.24
9883.00,1.24
9882.00,1.24
9881.00,1.24
9880.00,1.24
9879.00,1.23
9878.00,1.23
9877.00,1.23
9876.00,1.23
9875.00,1.23
9874.00,1.22
9873.00,1.22
9872.00,1.22
9871.00,1.22
9870.00,1.21
9869.00,1.21
9868.00,1.21
9867.00,1.20
9866.00,1.20
9865.00,1.20
9864.00,1.19
9863.00,1.19
9862.00,1.19
9861.00,1.18
9860.00,1.18
9859.00,1.18
9858.00,1.17
9857.00,1.17
9856.00,1.17
9855.00,1.17
9854.00,1.17
9853.00,1.17
9852.00,1.17
9851.00,1.17
9850.00,1.17
9849.00,1.18
9848.00,1.18
9847.00,1.18
9846.00,1.19
9845.00,1.19
9844.00,1.19
9843.00,1.20
9842.00,1.20
9841.00,1.21
9840.00,1.21
9839.00,1.21
9838.00,1.22
9837.00,1.22
9836.00,1.22
9835.00,1.22
9834.00,1.22
9833.00,1.22
9832.00,1.23
9831.00,1.23
9830.00,1.23
9829.00,1.22
9828.00,1.22
9827.00,1.22
9826.00,1.22
9825.00,1.22
9824.00,1.22
9823.00,1.22
9822.00,1.22
9821.00,1.22
9820.00,1.21
9819.00,1.21
9818.00,1.21
9817.00,1.21
9816.00,1.21
9815.00,1.21
9814.00,1.21
9813.00,1.20
9812.00,1.20
9811.00,1.20
9810.00,1.20
9809.00,1.20
9808.00,1.20
9807.00,1.20
9806.00,1.20
9805.00,1.20
9804.00,1.19
9803.00,1.19
9802.00,1.19
9801.00,1.19
9800.00,1.19
9799.00,1.19
9798.00,1.19
9797.00,1.19
9796.00,1.19
9795.00,1.19
9794.00,1.19
9793.00,1.20
9792.00,1.20
9791.00,1.20
9790.00,1.20
9789.00,1.20
9788.00,1.20
9787.00,1.20
9786.00,1.20
9785.00,1.20
9784.00,1.20
9783.00,1.20
9782.00,1.20
9781.00,1.20
9780.00,1.19
9779.00,1.19
9778.00,1.19
9777.00,1.19
9776.00,1.19
9775.00,1.19
9774.00,1.19
9773.00,1.19
9772.00,1.19
9771.00,1.19
9770.00,1.19
9769.00,1.19
9768.00,1.19
9767.00,1.19
9766.00,1.19
9765.00,1.19
9764.00,1.19
9763.00,1.19
9762.00,1.19
9761.00,1.19
9760.00,1.19
9759.00,1.19
9758.00,1.19
9757.00,1.19
9756.00,1.19
9755.00,1.19
9754.00,1.20
9753.00,1.20
9752.00,1.20
9751.00,1.20
9750.00,1.21
9749.00,1.21
9748.00,1.21
9747.00,1.22
9746.00,1.22
9745.00,1.22
9744.00,1.22
9743.00,1.22
9742.00,1.22
9741.00,1.22
9740.00,1.22
9739.00,1.22
9738.00,1.22
9737.00,1.22
9736.00,1.22
9735.00,1.22
9734.00,1.22
9733.00,1.22
9732.00,1.22
9731.00,1.22
9730.00,1.22
9729.00,1.22
9728.00,1.22
9727.00,1.22
9726.00,1.22
9725.00,1.22
9724.00,1.22
9723.00,1.22
9722.00,1.22
9721.00,1.22
9720.00,1.21
9719.00,1.21
9718.00,1.21
9717.00,1.21
9716.00,1.21
9715.00,1.20
9714.00,1.20
9713.00,1.20
9712.00,1.20
9711.00,1.20
9710.00,1.20
9709.00,1.19
9708.00,1.19
9707.00,1.19
9706.00,1.19
9705.00,1.19
9704.00,1.19
9703.00,1.19
9702.00,1.19
9701.00,1.19
9700.00,1.19
9699.00,1.19
9698.00,1.19
9697.00,1.19
9696.00,1.19
9695.00,1.19
9694.00,1.19
9693.00,1.19
9692.00,1.19
9691.00,1.19
9690.00,1.19
9689.00,1.19
9688.00,1.19
9687.00,1.19
9686.00,1.19
9685.00,1.19
9684.00,1.19
9683.00,1.19
9682.00,1.19
9681.00,1.19
9680.00,1.19
9679.00,1.20
9678.00,1.20
9677.00,1.20
9676.00,1.20
9675.00,1.21
9674.00,1.21
9673.00,1.21
9672.00,1.21
9671.00,1.22
9670.00,1.22
9669.00,1.22
9668.00,1.22
9667.00,1.22
9666.00,1.22
9665.00,1.22
9664.00,1.22
9663.00,1.22
9662.00,1.22
9661.00,1.22
9660.00,1.22
9659.00,1.21
9658.00,1.21
9657.00,1.21
9656.00,1.21
9655.00,1.21
9654.00,1.21
9653.00,1.21
9652.00,1.22
9651.00,1.22
9650.00,1.22
9649.00,1.22
9648.00,1.22
9647.00,1.22
9646.00,1.22
9645.00,1.22
9644.00,1.22
9643.00,1.22
9642.00,1.23
9641.00,1.23
9640.00,1.23
9639.00,1.23
9638.00,1.22
9637.00,1.22
9636.00,1.22
9635.00,1.23
9634.00,1.23
9633.00,1.23
9632.00,1.23
9631.00,1.23
9630.00,1.23
9629.00,1.23
9628.00,1.23
9627.00,1.24
9626.00,1.24
9625.00,1.24
9624.00,1.24
9623.00,1.24
9622.00,1.24
9621.00,1.24
9620.00,1.24
9619.00,1.24
9618.00,1.24
9617.00,1.24
9616.00,1.23
9615.00,1.23
9614.00,1.23
9613.00,1.23
9612.00,1.23
9611.00,1.22
9610.00,1.22
9609.00,1.22
9608.00,1.21
9607.00,1.21
9606.00,1.21
9605.00,1.21
9604.00,1.20
9603.00,1.20
9602.00,1.20
9601.00,1.20
9600.00,1.20
9599.00,1.20
9598.00,1.20
9597.00,1.19
9596.00,1.20
9595.00,1.20
9594.00,1.20
9593.00,1.20
9592.00,1.20
9591.00,1.20
9590.00,1.21
9589.00,1.21
9588.00,1.21
9587.00,1.21
9586.00,1.22
9585.00,1.22
9584.00,1.22
9583.00,1.22
9582.00,1.22
9581.00,1.22
9580.00,1.22
9579.00,1.22
9578.00,1.22
9577.00,1.22
9576.00,1.21
9575.00,1.21
9574.00,1.21
9573.00,1.21
9572.00,1.21
9571.00,1.21
9570.00,1.21
9569.00,1.21
9568.00,1.20
9567.00,1.20
9566.00,1.21
9565.00,1.21
9564.00,1.21
9563.00,1.21
9562.00,1.21
9561.00,1.21
9560.00,1.21
9559.00,1.21
9558.00,1.21
9557.00,1.21
9556.00,1.21
9555.00,1.21
9554.00,1.20
9553.00,1.20
9552.00,1.20
9551.00,1.20
9550.00,1.20
9549.00,1.20
9548.00,1.20
9547.00,1.20
9546.00,1.20
9545.00,1.20
9544.00,1.20
9543.00,1.20
9542.00,1.20
9541.00,1.20
9540.00,1.20
9539.00,1.20
9538.00,1.20
9537.00,1.20
9536.00,1.20
9535.00,1.20
9534.00,1.20
9533.00,1.20
9532.00,1.19
9531.00,1.19
9530.00,1.19
9529.00,1.19
9528.00,1.19
9527.00,1.19
9526.00,1.19
9525.00,1.19
9524.00,1.19
9523.00,1.19
9522.00,1.19
9521.00,1.19
9520.00,1.19
9519.00,1.19
9518.00,1.19
9517.00,1.19
9516.00,1.20
9515.00,1.20
9514.00,1.20
9513.00,1.20
9512.00,1.21
9511.00,1.21
9510.00,1.21
9509.00,1.22
9508.00,1.22
9507.00,1.22
9506.00,1.22
9505.00,1.22
9504.00,1.22
9503.00,1.22
9502.00,1.22
9501.00,1.22
9500.00,1.22
9499.00,1.22
9498.00,1.22
9497.00,1.22
9496.00,1.22
9495.00,1.22
9494.00,1.21
9493.00,1.21
9492.00,1.21
9491.00,1.21
9490.00,1.21
9489.00,1.21
9488.00,1.21
9487.00,1.21
9486.00,1.20
9485.00,1.20
9484.00,1.20
9483.00,1.20
9482.00,1.20
9481.00,1.20
9480.00,1.20
9479.00,1.20
9478.00,1.20
9477.00,1.20
9476.00,1.20
9475.00,1.20
9474.00,1.20
9473.00,1.20
9472.00,1.20
9471.00,1.20
9470.00,1.20
9469.00,1.20
9468.00,1.20
9467.00,1.20
9466.00,1.20
9465.00,1.20
9464.00,1.20
9463.00,1.20
9462.00,1.20
9461.00,1.20
9460.00,1.20
9459.00,1.20
9458.00,1.20
9457.00,1.20
9456.00,1.20
9455.00,1.20
9454.00,1.20
9453.00,1.19
9452.00,1.19
9451.00,1.19
9450.00,1.19
9449.00,1.19
9448.00,1.19
9447.00,1.19
9446.00,1.19
9445.00,1.19
9444.00,1.19
9443.00,1.19
9442.00,1.18
9441.00,1.18
9440.00,1.18
9439.00,1.18
9438.00,1.18
9437.00,1.18
9436.00,1.18
9435.00,1.18
9434.00,1.18
9433.00,1.18
9432.00,1.18
9431.00,1.18
9430.00,1.18
9429.00,1.18
9428.00,1.19
9427.00,1.19
9426.00,1.19
9425.00,1.19
9424.00,1.19
9423.00,1.19
9422.00,1.19
9421.00,1.19
9420.00,1.19
9419.00,1.19
9418.00,1.19
9417.00,1.19
9416.00,1.19
9415.00,1.19
9414.00,1.20
9413.00,1.20
9412.00,1.20
9411.00,1.20
9410.00,1.20
9409.00,1.20
9408.00,1.21
9407.00,1.21
9406.00,1.21
9405.00,1.21
9404.00,1.21
9403.00,1.21
9402.00,1.22
9401.00,1.22
9400.00,1.22
9399.00,1.22
9398.00,1.22
9397.00,1.22
9396.00,1.22
9395.00,1.21
9394.00,1.21
9393.00,1.21
9392.00,1.21
9391.00,1.21
9390.00,1.21
9389.00,1.20
9388.00,1.20
9387.00,1.20
9386.00,1.20
9385.00,1.20
9384.00,1.20
9383.00,1.20
9382.00,1.20
9381.00,1.20
9380.00,1.20
9379.00,1.20
9378.00,1.19
9377.00,1.19
9376.00,1.19
9375.00,1.19
9374.00,1.19
9373.00,1.19
9372.00,1.19
9371.00,1.19
9370.00,1.19
9369.00,1.18
9368.00,1.18
9367.00,1.18
9366.00,1.18
9365.00,1.18
9364.00,1.18
9363.00,1.18
9362.00,1.18
9361.00,1.18
9360.00,1.18
9359.00,1.19
9358.00,1.19
9357.00,1.19
9356.00,1.19
9355.00,1.19
9354.00,1.19
9353.00,1.19
9352.00,1.19
9351.00,1.19
9350.00,1.19
9349.00,1.19
9348.00,1.19
9347.00,1.19
9346.00,1.19
9345.00,1.19
9344.00,1.19
9343.00,1.19
9342.00,1.19
9341.00,1.19
9340.00,1.19
9339.00,1.19
9338.00,1.20
9337.00,1.20
9336.00,1.20
9335.00,1.20
9334.00,1.20
9333.00,1.20
9332.00,1.20
9331.00,1.20
9330.00,1.20
9329.00,1.20
9328.00,1.21
9327.00,1.20
9326.00,1.20
9325.00,1.20
9324.00,1.20
9323.00,1.20
9322.00,1.20
9321.00,1.20
9320.00,1.20
9319.00,1.19
9318.00,1.19
9317.00,1.19
9316.00,1.19
9315.00,1.18
9314.00,1.18
9313.00,1.18
9312.00,1.17
9311.00,1.17
9310.00,1.17
9309.00,1.17
9308.00,1.17
9307.00,1.17
9306.00,1.16
9305.00,1.16
9304.00,1.16
9303.00,1.17
9302.00,1.17
9301.00,1.17
9300.00,1.17
9299.00,1.17
9298.00,1.17
9297.00,1.18
9296.00,1.18
9295.00,1.18
9294.00,1.18
9293.00,1.19
9292.00,1.19
9291.00,1.19
9290.00,1.19
9289.00,1.20
9288.00,1.20
9287.00,1.20
9286.00,1.21
9285.00,1.21
9284.00,1.21
9283.00,1.21
9282.00,1.22
9281.00,1.22
9280.00,1.22
9279.00,1.22
9278.00,1.22
9277.00,1.22
9276.00,1.22
9275.00,1.22
9274.00,1.22
9273.00,1.22
9272.00,1.22
9271.00,1.22
9270.00,1.22
9269.00,1.22
9268.00,1.22
9267.00,1.21
9266.00,1.21
9265.00,1.21
9264.00,1.21
9263.00,1.21
9262.00,1.21
9261.00,1.21
9260.00,1.21
9259.00,1.20
9258.00,1.20
9257.00,1.20
9256.00,1.21
9255.00,1.21
9254.00,1.21
9253.00,1.21
9252.00,1.21
9251.00,1.21
9250.00,1.21
9249.00,1.21
9248.00,1.21
9247.00,1.21
9246.00,1.21
9245.00,1.21
9244.00,1.21
9243.00,1.22
9242.00,1.22
9241.00,1.22
9240.00,1.22
9239.00,1.22
9238.00,1.22
9237.00,1.22
9236.00,1.22
9235.00,1.22
9234.00,1.21
9233.00,1.21
9232.00,1.21
9231.00,1.21
9230.00,1.21
9229.00,1.21
9228.00,1.21
9227.00,1.22
9226.00,1.22
9225.00,1.22
9224.00,1.22
9223.00,1.22
9222.00,1.22
9221.00,1.22
9220.00,1.23
9219.00,1.23
9218.00,1.23
9217.00,1.23
9216.00,1.23
9215.00,1.23
9214.00,1.24
9213.00,1.24
9212.00,1.24
9211.00,1.24
9210.00,1.24
9209.00,1.24
9208.00,1.24
9207.00,1.24
9206.00,1.24
9205.00,1.24
9204.00,1.24
9203.00,1.24
9202.00,1.24
9201.00,1.24
9200.00,1.24
9199.00,1.24
9198.00,1.24
9197.00,1.24
9196.00,1.24
9195.00,1.24
9194.00,1.24
9193.00,1.24
9192.00,1.23
9191.00,1.23
9190.00,1.23
9189.00,1.23
9188.00,1.23
9187.00,1.22
9186.00,1.22
9185.00,1.22
9184.00,1.22
9183.00,1.22
9182.00,1.22
9181.00,1.22
9180.00,1.22
9179.00,1.22
9178.00,1.22
9177.00,1.22
9176.00,1.22
9175.00,1.22
9174.00,1.22
9173.00,1.22
9172.00,1.22
9171.00,1.22
9170.00,1.22
9169.00,1.22
9168.00,1.22
9167.00,1.21
9166.00,1.21
9165.00,1.21
9164.00,1.21
9163.00,1.21
9162.00,1.21
9161.00,1.21
9160.00,1.21
9159.00,1.21
9158.00,1.20
9157.00,1.20
9156.00,1.20
9155.00,1.20
9154.00,1.20
9153.00,1.20
9152.00,1.20
9151.00,1.20
9150.00,1.19
9149.00,1.19
9148.00,1.19
9147.00,1.19
9146.00,1.19
9145.00,1.20
9144.00,1.20
9143.00,1.20
9142.00,1.20
9141.00,1.20
9140.00,1.20
9139.00,1.20
9138.00,1.21
9137.00,1.21
9136.00,1.21
9135.00,1.21
9134.00,1.21
9133.00,1.21
9132.00,1.21
9131.00,1.21
9130.00,1.21
9129.00,1.21
9128.00,1.20
9127.00,1.20
9126.00,1.20
9125.00,1.20
9124.00,1.20
9123.00,1.20
9122.00,1.20
9121.00,1.20
9120.00,1.20
9119.00,1.20
9118.00,1.20
9117.00,1.20
9116.00,1.20
9115.00,1.20
9114.00,1.20
9113.00,1.20
9112.00,1.20
9111.00,1.21
9110.00,1.21
9109.00,1.21
9108.00,1.21
9107.00,1.21
9106.00,1.21
9105.00,1.21
9104.00,1.21
9103.00,1.21
9102.00,1.21
9101.00,1.21
9100.00,1.21
9099.00,1.21
9098.00,1.21
9097.00,1.21
9096.00,1.21
9095.00,1.21
9094.00,1.21
9093.00,1.22
9092.00,1.22
9091.00,1.22
9090.00,1.22
9089.00,1.23
9088.00,1.23
9087.00,1.23
9086.00,1.23
9085.00,1.23
9084.00,1.23
9083.00,1.24
9082.00,1.24
9081.00,1.24
9080.00,1.24
9079.00,1.24
9078.00,1.24
9077.00,1.24
9076.00,1.23
9075.00,1.23
9074.00,1.23
9073.00,1.23
9072.00,1.23
9071.00,1.23
9070.00,1.22
9069.00,1.22
9068.00,1.22
9067.00,1.22
9066.00,1.22
9065.00,1.21
9064.00,1.21
9063.00,1.21
9062.00,1.21
9061.00,1.21
9060.00,1.21
9059.00,1.21
9058.00,1.21
9057.00,1.21
9056.00,1.21
9055.00,1.21
9054.00,1.21
9053.00,1.21
9052.00,1.21
9051.00,1.21
9050.00,1.21
9049.00,1.21
9048.00,1.21
9047.00,1.21
9046.00,1.21
9045.00,1.21
9044.00,1.21
9043.00,1.21
9042.00,1.21
9041.00,1.21
9040.00,1.21
9039.00,1.21
9038.00,1.21
9037.00,1.21
9036.00,1.21
9035.00,1.21
9034.00,1.21
9033.00,1.21
9032.00,1.21
9031.00,1.21
9030.00,1.21
9029.00,1.21
9028.00,1.21
9027.00,1.22
9026.00,1.22
9025.00,1.22
9024.00,1.22
9023.00,1.22
9022.00,1.22
9021.00,1.22
9020.00,1.22
9019.00,1.22
9018.00,1.22
9017.00,1.22
9016.00,1.22
9015.00,1.22
9014.00,1.22
9013.00,1.22
9012.00,1.22
9011.00,1.22
9010.00,1.22
9009.00,1.21
9008.00,1.21
9007.00,1.21
9006.00,1.21
9005.00,1.21
9004.00,1.21
9003.00,1.21
9002.00,1.21
9001.00,1.21
9000.00,1.21
8999.00,1.21
8998.00,1.21
8997.00,1.21
8996.00,1.21
8995.00,1.21
8994.00,1.21
8993.00,1.21
8992.00,1.21
8991.00,1.21
8990.00,1.21
8989.00,1.21
8988.00,1.21
8987.00,1.21
8986.00,1.20
8985.00,1.20
8984.00,1.20
8983.00,1.20
8982.00,1.20
8981.00,1.20
8980.00,1.21
8979.00,1.21
8978.00,1.21
8977.00,1.21
8976.00,1.21
8975.00,1.22
8974.00,1.22
8973.00,1.22
8972.00,1.22
8971.00,1.23
8970.00,1.23
8969.00,1.23
8968.00,1.23
8967.00,1.23
8966.00,1.23
8965.00,1.23
8964.00,1.23
8963.00,1.23
8962.00,1.23
8961.00,1.22
8960.00,1.22
8959.00,1.22
8958.00,1.22
8957.00,1.21
8956.00,1.21
8955.00,1.21
8954.00,1.21
8953.00,1.20
8952.00,1.20
8951.00,1.20
8950.00,1.20
8949.00,1.20
8948.00,1.20
8947.00,1.20
8946.00,1.19
8945.00,1.19
8944.00,1.19
8943.00,1.19
8942.00,1.19
8941.00,1.19
8940.00,1.19
8939.00,1.19
8938.00,1.19
8937.00,1.19
8936.00,1.19
8935.00,1.19
8934.00,1.19
8933.00,1.19
8932.00,1.19
8931.00,1.19
8930.00,1.19
8929.00,1.19
8928.00,1.19
8927.00,1.19
8926.00,1.18
8925.00,1.18
8924.00,1.18
8923.00,1.18
8922.00,1.18
8921.00,1.18
8920.00,1.18
8919.00,1.18
8918.00,1.19
8917.00,1.19
8916.00,1.19
8915.00,1.19
8914.00,1.19
8913.00,1.19
8912.00,1.19
8911.00,1.19
8910.00,1.20
8909.00,1.20
8908.00,1.20
8907.00,1.20
8906.00,1.20
8905.00,1.20
8904.00,1.20
8903.00,1.21
8902.00,1.21
8901.00,1.21
8900.00,1.21
8899.00,1.21
8898.00,1.21
8897.00,1.21
8896.00,1.21
8895.00,1.21
8894.00,1.21
8893.00,1.21
8892.00,1.21
8891.00,1.21
8890.00,1.21
8889.00,1.21
8888.00,1.20
8887.00,1.20
8886.00,1.20
8885.00,1.20
8884.00,1.20
8883.00,1.20
8882.00,1.20
8881.00,1.21
8880.00,1.21
8879.00,1.21
8878.00,1.21
8877.00,1.21
8876.00,1.21
8875.00,1.21
8874.00,1.21
8873.00,1.21
8872.00,1.21
8871.00,1.21
8870.00,1.21
8869.00,1.21
8868.00,1.21
8867.00,1.21
8866.00,1.20
8865.00,1.20
8864.00,1.20
8863.00,1.20
8862.00,1.20
8861.00,1.20
8860.00,1.20
8859.00,1.19
8858.00,1.19
8857.00,1.19
8856.00,1.19
8855.00,1.19
8854.00,1.19
8853.00,1.19
8852.00,1.19
8851.00,1.19
8850.00,1.19
8849.00,1.19
8848.00,1.19
8847.00,1.19
8846.00,1.19
8845.00,1.19
8844.00,1.19
8843.00,1.19
8842.00,1.19
8841.00,1.19
8840.00,1.19
8839.00,1.20
8838.00,1.20
8837.00,1.20
8836.00,1.20
8835.00,1.20
8834.00,1.20
8833.00,1.20
8832.00,1.20
8831.00,1.20
8830.00,1.20
8829.00,1.20
8828.00,1.20
8827.00,1.20
8826.00,1.20
8825.00,1.20
8824.00,1.19
8823.00,1.19
8822.00,1.19
8821.00,1.19
8820.00,1.19
8819.00,1.19
8818.00,1.19
8817.00,1.19
8816.00,1.19
8815.00,1.19
8814.00,1.19
8813.00,1.19
8812.00,1.19
8811.00,1.19
8810.00,1.19
8809.00,1.19
8808.00,1.19
8807.00,1.19
8806.00,1.19
8805.00,1.19
8804.00,1.19
8803.00,1.19
8802.00,1.19
8801.00,1.19
8800.00,1.19
8799.00,1.19
8798.00,1.19
8797.00,1.19
8796.00,1.19
8795.00,1.19
8794.00,1.19
8793.00,1.19
8792.00,1.19
8791.00,1.19
8790.00,1.19
8789.00,1.18
8788.00,1.18
8787.00,1.18
8786.00,1.18
8785.00,1.18
8784.00,1.18
8783.00,1.18
8782.00,1.18
8781.00,1.17
8780.00,1.17
8779.00,1.17
8778.00,1.18
8777.00,1.18
8776.00,1.18
8775.00,1.18
8774.00,1.18
8773.00,1.18
8772.00,1.18
8771.00,1.18
8770.00,1.18
8769.00,1.18
8768.00,1.19
8767.00,1.19
8766.00,1.19
8765.00,1.19
8764.00,1.19
8763.00,1.19
8762.00,1.19
8761.00,1.19
8760.00,1.19
8759.00,1.19
8758.00,1.19
8757.00,1.18
8756.00,1.18
8755.00,1.18
8754.00,1.18
8753.00,1.18
8752.00,1.18
8751.00,1.18
8750.00,1.17
8749.00,1.17
8748.00,1.17
8747.00,1.17
8746.00,1.17
8745.00,1.17
8744.00,1.17
8743.00,1.16
8742.00,1.16
8741.00,1.16
8740.00,1.16
8739.00,1.16
8738.00,1.16
8737.00,1.16
8736.00,1.16
8735.00,1.16
8734.00,1.17
8733.00,1.17
8732.00,1.17
8731.00,1.17
8730.00,1.17
8729.00,1.17
8728.00,1.17
8727.00,1.17
8726.00,1.18
8725.00,1.18
8724.00,1.18
8723.00,1.18
8722.00,1.18
8721.00,1.18
8720.00,1.18
8719.00,1.18
8718.00,1.18
8717.00,1.18
8716.00,1.18
8715.00,1.18
8714.00,1.18
8713.00,1.18
8712.00,1.18
8711.00,1.18
8710.00,1.18
8709.00,1.18
8708.00,1.18
8707.00,1.18
8706.00,1.18
8705.00,1.18
8704.00,1.18
8703.00,1.18
8702.00,1.18
8701.00,1.18
8700.00,1.18
8699.00,1.18
8698.00,1.18
8697.00,1.18
8696.00,1.18
8695.00,1.18
8694.00,1.17
8693.00,1.17
8692.00,1.17
8691.00,1.17
8690.00,1.17
8689.00,1.17
8688.00,1.17
8687.00,1.17
8686.00,1.17
8685.00,1.17
8684.00,1.17
8683.00,1.17
8682.00,1.17
8681.00,1.17
8680.00,1.17
8679.00,1.17
8678.00,1.17
8677.00,1.17
8676.00,1.17
8675.00,1.18
8674.00,1.18
8673.00,1.18
8672.00,1.18
8671.00,1.18
8670.00,1.18
8669.00,1.18
8668.00,1.18
8667.00,1.18
8666.00,1.18
8665.00,1.18
8664.00,1.18
8663.00,1.18
8662.00,1.18
8661.00,1.18
8660.00,1.18
8659.00,1.17
8658.00,1.17
8657.00,1.17
8656.00,1.17
8655.00,1.17
8654.00,1.17
8653.00,1.17
8652.00,1.17
8651.00,1.17
8650.00,1.17
8649.00,1.17
8648.00,1.17
8647.00,1.17
8646.00,1.17
8645.00,1.17
8644.00,1.17
8643.00,1.17
8642.00,1.17
8641.00,1.17
8640.00,1.17
8639.00,1.17
8638.00,1.17
8637.00,1.17
8636.00,1.17
8635.00,1.16
8634.00,1.16
8633.00,1.16
8632.00,1.16
8631.00,1.16
8630.00,1.16
8629.00,1.16
8628.00,1.16
8627.00,1.16
8626.00,1.16
8625.00,1.16
8624.00,1.16
8623.00,1.16
8622.00,1.16
8621.00,1.16
8620.00,1.16
8619.00,1.16
8618.00,1.16
8617.00,1.16
8616.00,1.16
8615.00,1.16
8614.00,1.16
8613.00,1.16
8612.00,1.16
8611.00,1.16
8610.00,1.16
8609.00,1.16
8608.00,1.16
8607.00,1.16
8606.00,1.15
8605.00,1.15
8604.00,1.15
8603.00,1.15
8602.00,1.15
8601.00,1.15
8600.00,1.15
8599.00,1.15
8598.00,1.15
8597.00,1.15
8596.00,1.15
8595.00,1.15
8594.00,1.15
8593.00,1.15
8592.00,1.15
8591.00,1.15
8590.00,1.15
8589.00,1.15
8588.00,1.15
8587.00,1.15
8586.00,1.15
8585.00,1.15
8584.00,1.15
8583.00,1.15
8582.00,1.15
8581.00,1.14
8580.00,1.14
8579.00,1.14
8578.00,1.14
8577.00,1.14
8576.00,1.13
8575.00,1.13
8574.00,1.13
8573.00,1.13
8572.00,1.12
8571.00,1.12
8570.00,1.12
8569.00,1.12
8568.00,1.12
8567.00,1.12
8566.00,1.12
8565.00,1.11
8564.00,1.11
8563.00,1.12
8562.00,1.12
8561.00,1.12
8560.00,1.12
8559.00,1.12
8558.00,1.12
8557.00,1.12
8556.00,1.12
8555.00,1.12
8554.00,1.12
8553.00,1.12
8552.00,1.12
8551.00,1.12
8550.00,1.12
8549.00,1.12
8548.00,1.12
8547.00,1.12
8546.00,1.12
8545.00,1.12
8544.00,1.12
8543.00,1.12
8542.00,1.12
8541.00,1.12
8540.00,1.12
8539.00,1.12
8538.00,1.12
8537.00,1.12
8536.00,1.12
8535.00,1.12
8534.00,1.12
8533.00,1.12
8532.00,1.11
8531.00,1.11
8530.00,1.11
8529.00,1.11
8528.00,1.11
8527.00,1.10
8526.00,1.10
8525.00,1.10
8524.00,1.10
8523.00,1.10
8522.00,1.10
8521.00,1.10
8520.00,1.10
8519.00,1.10
8518.00,1.10
8517.00,1.10
8516.00,1.10
8515.00,1.10
8514.00,1.10
8513.00,1.11
8512.00,1.11
8511.00,1.11
8510.00,1.11
8509.00,1.12
8508.00,1.12
8507.00,1.12
8506.00,1.12
8505.00,1.13
8504.00,1.13
8503.00,1.13
8502.00,1.13
8501.00,1.13
8500.00,1.13
8499.00,1.13
8498.00,1.13
8497.00,1.13
8496.00,1.13
8495.00,1.13
8494.00,1.13
8493.00,1.13
8492.00,1.12
8491.00,1.12
8490.00,1.12
8489.00,1.12
8488.00,1.12
8487.00,1.11
8486.00,1.11
8485.00,1.11
8484.00,1.11
8483.00,1.11
8482.00,1.11
8481.00,1.10
8480.00,1.10
8479.00,1.10
8478.00,1.10
8477.00,1.10
8476.00,1.10
8475.00,1.10
8474.00,1.10
8473.00,1.10
8472.00,1.10
8471.00,1.10
8470.00,1.10
8469.00,1.10
8468.00,1.10
8467.00,1.10
8466.00,1.10
8465.00,1.10
8464.00,1.10
8463.00,1.10
8462.00,1.10
8461.00,1.10
8460.00,1.10
8459.00,1.10
8458.00,1.10
8457.00,1.09
8456.00,1.09
8455.00,1.09
8454.00,1.09
8453.00,1.09
8452.00,1.09
8451.00,1.09
8450.00,1.09
8449.00,1.09
8448.00,1.09
8447.00,1.09
8446.00,1.08
8445.00,1.08
8444.00,1.08
8443.00,1.08
8442.00,1.08
8441.00,1.08
8440.00,1.07
8439.00,1.07
8438.00,1.07
8437.00,1.07
8436.00,1.07
8435.00,1.07
8434.00,1.07
8433.00,1.07
8432.00,1.07
8431.00,1.07
8430.00,1.07
8429.00,1.07
8428.00,1.07
8427.00,1.07
8426.00,1.08
8425.00,1.08
8424.00,1.08
8423.00,1.08
8422.00,1.08
8421.00,1.08
8420.00,1.09
8419.00,1.09
8418.00,1.09
8417.00,1.09
8416.00,1.09
8415.00,1.09
8414.00,1.09
8413.00,1.09
8412.00,1.09
8411.00,1.09
8410.00,1.09
8409.00,1.09
8408.00,1.09
8407.00,1.09
8406.00,1.09
8405.00,1.09
8404.00,1.09
8403.00,1.09
8402.00,1.09
8401.00,1.09
8400.00,1.09
8399.00,1.10
8398.00,1.10
8397.00,1.10
8396.00,1.10
8395.00,1.10
8394.00,1.10
8393.00,1.10
8392.00,1.10
8391.00,1.10
8390.00,1.10
8389.00,1.10
8388.00,1.10
8387.00,1.10
8386.00,1.10
8385.00,1.10
8384.00,1.10
8383.00,1.10
8382.00,1.10
8381.00,1.10
8380.00,1.10
8379.00,1.10
8378.00,1.10
8377.00,1.09
8376.00,1.09
8375.00,1.09
8374.00,1.10
8373.00,1.10
8372.00,1.10
8371.00,1.10
8370.00,1.10
8369.00,1.10
8368.00,1.10
8367.00,1.10
8366.00,1.11
8365.00,1.11
8364.00,1.11
8363.00,1.11
8362.00,1.11
8361.00,1.12
8360.00,1.12
8359.00,1.12
8358.00,1.12
8357.00,1.12
8356.00,1.12
8355.00,1.12
8354.00,1.12
8353.00,1.12
8352.00,1.12
8351.00,1.12
8350.00,1.12
8349.00,1.12
8348.00,1.12
8347.00,1.12
8346.00,1.12
8345.00,1.12
8344.00,1.12
8343.00,1.12
8342.00,1.12
8341.00,1.12
8340.00,1.12
8339.00,1.12
8338.00,1.12
8337.00,1.13
8336.00,1.13
8335.00,1.13
8334.00,1.13
8333.00,1.13
8332.00,1.13
8331.00,1.13
8330.00,1.13
8329.00,1.14
8328.00,1.14
8327.00,1.14
8326.00,1.14
8325.00,1.14
8324.00,1.14
8323.00,1.14
8322.00,1.14
8321.00,1.14
8320.00,1.14
8319.00,1.14
8318.00,1.14
8317.00,1.14
8316.00,1.14
8315.00,1.14
8314.00,1.14
8313.00,1.14
8312.00,1.14
8311.00,1.14
8310.00,1.14
8309.00,1.14
8308.00,1.14
8307.00,1.14
8306.00,1.14
8305.00,1.14
8304.00,1.14
8303.00,1.14
8302.00,1.14
8301.00,1.14
8300.00,1.13
8299.00,1.13
8298.00,1.13
8297.00,1.13
8296.00,1.13
8295.00,1.13
8294.00,1.13
8293.00,1.13
8292.00,1.13
8291.00,1.13
8290.00,1.13
8289.00,1.13
8288.00,1.13
8287.00,1.13
8286.00,1.13
8285.00,1.13
8284.00,1.13
8283.00,1.13
8282.00,1.14
8281.00,1.14
8280.00,1.14
8279.00,1.14
8278.00,1.14
8277.00,1.14
8276.00,1.14
8275.00,1.14
8274.00,1.14
8273.00,1.14
8272.00,1.14
8271.00,1.14
8270.00,1.14
8269.00,1.14
8268.00,1.14
8267.00,1.14
8266.00,1.14
8265.00,1.14
8264.00,1.14
8263.00,1.14
8262.00,1.14
8261.00,1.14
8260.00,1.14
8259.00,1.14
8258.00,1.14
8257.00,1.14
8256.00,1.14
8255.00,1.14
8254.00,1.14
8253.00,1.14
8252.00,1.14
8251.00,1.14
8250.00,1.14
8249.00,1.14
8248.00,1.14
8247.00,1.15
8246.00,1.15
8245.00,1.15
8244.00,1.15
8243.00,1.15
8242.00,1.15
8241.00,1.15
8240.00,1.15
8239.00,1.15
8238.00,1.15
8237.00,1.15
8236.00,1.15
8235.00,1.15
8234.00,1.15
8233.00,1.15
8232.00,1.15
8231.00,1.15
8230.00,1.15
8229.00,1.15
8228.00,1.15
8227.00,1.15
8226.00,1.15
8225.00,1.15
8224.00,1.15
8223.00,1.15
8222.00,1.14
8221.00,1.14
8220.00,1.14
8219.00,1.14
8218.00,1.14
8217.00,1.14
8216.00,1.14
8215.00,1.13
8214.00,1.13
8213.00,1.13
8212.00,1.13
8211.00,1.13
8210.00,1.13
8209.00,1.13
8208.00,1.13
8207.00,1.12
8206.00,1.12
8205.00,1.12
8204.00,1.12
8203.00,1.13
8202.00,1.13
8201.00,1.13
8200.00,1.13
8199.00,1.13
8198.00,1.13
8197.00,1.13
8196.00,1.14
8195.00,1.14
8194.00,1.14
8193.00,1.14
8192.00,1.14
8191.00,1.14
8190.00,1.15
8189.00,1.15
8188.00,1.15
8187.00,1.15
8186.00,1.15
8185.00,1.15
8184.00,1.15
8183.00,1.15
8182.00,1.15
8181.00,1.15
8180.00,1.15
8179.00,1.15
8178.00,1.15
8177.00,1.15
8176.00,1.15
8175.00,1.15
8174.00,1.15
8173.00,1.15
8172.00,1.15
8171.00,1.15
8170.00,1.15
8169.00,1.16
8168.00,1.16
8167.00,1.16
8166.00,1.16
8165.00,1.16
8164.00,1.16
8163.00,1.16
8162.00,1.16
8161.00,1.16
8160.00,1.17
8159.00,1.17
8158.00,1.17
8157.00,1.17
8156.00,1.17
8155.00,1.17
8154.00,1.17
8153.00,1.18
8152.00,1.18
8151.00,1.18
8150.00,1.18
8149.00,1.18
8148.00,1.18
8147.00,1.18
8146.00,1.18
8145.00,1.18
8144.00,1.18
8143.00,1.17
8142.00,1.17
8141.00,1.17
8140.00,1.17
8139.00,1.17
8138.00,1.17
8137.00,1.17
8136.00,1.17
8135.00,1.17
8134.00,1.17
8133.00,1.17
8132.00,1.17
8131.00,1.17
8130.00,1.17
8129.00,1.17
8128.00,1.17
8127.00,1.17
8126.00,1.17
8125.00,1.18
8124.00,1.18
8123.00,1.18
8122.00,1.18
8121.00,1.18
8120.00,1.18
8119.00,1.18
8118.00,1.18
8117.00,1.18
8116.00,1.18
8115.00,1.18
8114.00,1.17
8113.00,1.17
8112.00,1.17
8111.00,1.17
8110.00,1.17
8109.00,1.17
8108.00,1.17
8107.00,1.17
8106.00,1.17
8105.00,1.17
8104.00,1.17
8103.00,1.17
8102.00,1.17
8101.00,1.17
8100.00,1.17
8099.00,1.17
8098.00,1.17
8097.00,1.17
8096.00,1.17
8095.00,1.17
8094.00,1.17
8093.00,1.17
8092.00,1.17
8091.00,1.17
8090.00,1.17
8089.00,1.17
8088.00,1.17
8087.00,1.17
8086.00,1.17
8085.00,1.17
8084.00,1.17
8083.00,1.17
8082.00,1.17
8081.00,1.17
8080.00,1.17
8079.00,1.17
8078.00,1.17
8077.00,1.17
8076.00,1.17
8075.00,1.17
8074.00,1.17
8073.00,1.17
8072.00,1.17
8071.00,1.17
8070.00,1.17
8069.00,1.17
8068.00,1.17
8067.00,1.17
8066.00,1.17
8065.00,1.17
8064.00,1.18
8063.00,1.18
8062.00,1.18
8061.00,1.18
8060.00,1.18
8059.00,1.18
8058.00,1.18
8057.00,1.18
8056.00,1.19
8055.00,1.19
8054.00,1.19
8053.00,1.19
8052.00,1.19
8051.00,1.19
8050.00,1.19
8049.00,1.19
8048.00,1.19
8047.00,1.19
8046.00,1.19
8045.00,1.19
8044.00,1.18
8043.00,1.18
8042.00,1.18
8041.00,1.18
8040.00,1.18
8039.00,1.18
8038.00,1.18
8037.00,1.18
8036.00,1.18
8035.00,1.18
8034.00,1.18
8033.00,1.18
8032.00,1.18
8031.00,1.18
8030.00,1.18
8029.00,1.18
8028.00,1.18
8027.00,1.18
8026.00,1.18
8025.00,1.18
8024.00,1.18
8023.00,1.18
8022.00,1.18
8021.00,1.18
8020.00,1.18
8019.00,1.18
8018.00,1.18
8017.00,1.18
8016.00,1.18
8015.00,1.18
8014.00,1.18
8013.00,1.18
8012.00,1.18
8011.00,1.18
8010.00,1.18
8009.00,1.18
8008.00,1.18
8007.00,1.18
8006.00,1.18
8005.00,1.18
8004.00,1.18
8003.00,1.18
8002.00,1.18
8001.00,1.19
8000.00,1.19
7999.00,1.19
7998.00,1.19
7997.00,1.19
7996.00,1.19
7995.00,1.19
7994.00,1.19
7993.00,1.19
7992.00,1.19
7991.00,1.19
7990.00,1.19
7989.00,1.19
7988.00,1.19
7987.00,1.19
7986.00,1.19
7985.00,1.19
7984.00,1.19
7983.00,1.19
7982.00,1.19
7981.00,1.19
7980.00,1.19
7979.00,1.19
7978.00,1.19
7977.00,1.19
7976.00,1.19
7975.00,1.19
7974.00,1.19
7973.00,1.19
7972.00,1.19
7971.00,1.19
7970.00,1.19
7969.00,1.19
7968.00,1.19
7967.00,1.20
7966.00,1.20
7965.00,1.20
7964.00,1.20
7963.00,1.20
7962.00,1.20
7961.00,1.20
7960.00,1.20
7959.00,1.21
7958.00,1.21
7957.00,1.21
7956.00,1.21
7955.00,1.21
7954.00,1.21
7953.00,1.21
7952.00,1.21
7951.00,1.21
7950.00,1.21
7949.00,1.22
7948.00,1.22
7947.00,1.22
7946.00,1.22
7945.00,1.22
7944.00,1.22
7943.00,1.22
7942.00,1.21
7941.00,1.21
7940.00,1.21
7939.00,1.21
7938.00,1.21
7937.00,1.21
7936.00,1.21
7935.00,1.21
7934.00,1.20
7933.00,1.20
7932.00,1.20
7931.00,1.20
7930.00,1.20
7929.00,1.20
7928.00,1.20
7927.00,1.20
7926.00,1.20
7925.00,1.20
7924.00,1.20
7923.00,1.20
7922.00,1.20
7921.00,1.20
7920.00,1.20
7919.00,1.21
7918.00,1.21
7917.00,1.21
7916.00,1.21
7915.00,1.21
7914.00,1.21
7913.00,1.21
7912.00,1.21
7911.00,1.21
7910.00,1.21
7909.00,1.21
7908.00,1.21
7907.00,1.21
7906.00,1.21
7905.00,1.21
7904.00,1.21
7903.00,1.21
7902.00,1.20
7901.00,1.20
7900.00,1.20
7899.00,1.20
7898.00,1.20
7897.00,1.20
7896.00,1.20
7895.00,1.20
7894.00,1.20
7893.00,1.20
7892.00,1.20
7891.00,1.20
7890.00,1.20
7889.00,1.20
7888.00,1.20
7887.00,1.20
7886.00,1.20
7885.00,1.20
7884.00,1.20
7883.00,1.20
7882.00,1.20
7881.00,1.20
7880.00,1.20
7879.00,1.20
7878.00,1.20
7877.00,1.20
7876.00,1.20
7875.00,1.20
7874.00,1.20
7873.00,1.20
7872.00,1.20
7871.00,1.20
7870.00,1.20
7869.00,1.20
7868.00,1.20
7867.00,1.20
7866.00,1.20
7865.00,1.20
7864.00,1.20
7863.00,1.21
7862.00,1.21
7861.00,1.21
7860.00,1.21
7859.00,1.21
7858.00,1.21
7857.00,1.21
7856.00,1.21
7855.00,1.21
7854.00,1.21
7853.00,1.21
7852.00,1.21
7851.00,1.21
7850.00,1.21
7849.00,1.21
7848.00,1.21
7847.00,1.21
7846.00,1.21
7845.00,1.21
7844.00,1.22
7843.00,1.22
7842.00,1.22
7841.00,1.22
7840.00,1.22
7839.00,1.22
7838.00,1.22
7837.00,1.22
7836.00,1.22
7835.00,1.22
7834.00,1.22
7833.00,1.21
7832.00,1.21
7831.00,1.21
7830.00,1.21
7829.00,1.21
7828.00,1.21
7827.00,1.21
7826.00,1.21
7825.00,1.21
7824.00,1.21
7823.00,1.21
7822.00,1.21
7821.00,1.21
7820.00,1.21
7819.00,1.21
7818.00,1.22
7817.00,1.22
7816.00,1.22
7815.00,1.22
7814.00,1.22
7813.00,1.22
7812.00,1.23
7811.00,1.23
7810.00,1.23
7809.00,1.23
7808.00,1.23
7807.00,1.23
7806.00,1.23
7805.00,1.24
7804.00,1.24
7803.00,1.24
7802.00,1.24
7801.00,1.24
7800.00,1.23
7799.00,1.23
7798.00,1.23
7797.00,1.23
7796.00,1.23
7795.00,1.23
7794.00,1.23
7793.00,1.23
7792.00,1.23
7791.00,1.23
7790.00,1.23
7789.00,1.23
7788.00,1.23
7787.00,1.23
7786.00,1.23
7785.00,1.23
7784.00,1.23
7783.00,1.23
7782.00,1.23
7781.00,1.23
7780.00,1.23
7779.00,1.23
7778.00,1.24
7777.00,1.24
7776.00,1.24
7775.00,1.24
7774.00,1.24
7773.00,1.24
7772.00,1.24
7771.00,1.24
7770.00,1.24
7769.00,1.24
7768.00,1.24
7767.00,1.24
7766.00,1.24
7765.00,1.24
7764.00,1.24
7763.00,1.24
7762.00,1.24
7761.00,1.24
7760.00,1.24
7759.00,1.23
7758.00,1.23
7757.00,1.23
7756.00,1.23
7755.00,1.23
7754.00,1.23
7753.00,1.23
7752.00,1.23
7751.00,1.23
7750.00,1.22
7749.00,1.22
7748.00,1.22
7747.00,1.22
7746.00,1.22
7745.00,1.22
7744.00,1.22
7743.00,1.22
7742.00,1.22
7741.00,1.22
7740.00,1.22
7739.00,1.22
7738.00,1.22
7737.00,1.22
7736.00,1.22
7735.00,1.22
7734.00,1.22
7733.00,1.22
7732.00,1.22
7731.00,1.22
7730.00,1.22
7729.00,1.22
7728.00,1.22
7727.00,1.22
7726.00,1.22
7725.00,1.22
7724.00,1.22
7723.00,1.22
7722.00,1.22
7721.00,1.22
7720.00,1.22
7719.00,1.22
7718.00,1.23
7717.00,1.23
7716.00,1.23
7715.00,1.23
7714.00,1.23
7713.00,1.23
7712.00,1.23
7711.00,1.23
7710.00,1.23
7709.00,1.23
7708.00,1.23
7707.00,1.23
7706.00,1.23
7705.00,1.23
7704.00,1.23
7703.00,1.23
7702.00,1.24
7701.00,1.24
7700.00,1.24
7699.00,1.24
7698.00,1.24
7697.00,1.24
7696.00,1.24
7695.00,1.24
7694.00,1.24
7693.00,1.24
7692.00,1.24
7691.00,1.24
7690.00,1.24
7689.00,1.24
7688.00,1.24
7687.00,1.24
7686.00,1.24
7685.00,1.23
7684.00,1.23
7683.00,1.23
7682.00,1.23
7681.00,1.23
7680.00,1.23
7679.00,1.23
7678.00,1.23
7677.00,1.23
7676.00,1.23
7675.00,1.23
7674.00,1.23
7673.00,1.23
7672.00,1.23
7671.00,1.23
7670.00,1.23
7669.00,1.23
7668.00,1.23
7667.00,1.23
7666.00,1.23
7665.00,1.23
7664.00,1.23
7663.00,1.23
7662.00,1.23
7661.00,1.23
7660.00,1.23
7659.00,1.23
7658.00,1.23
7657.00,1.23
7656.00,1.23
7655.00,1.23
7654.00,1.23
7653.00,1.23
7652.00,1.23
7651.00,1.23
7650.00,1.23
7649.00,1.23
7648.00,1.23
7647.00,1.23
7646.00,1.23
7645.00,1.23
7644.00,1.23
7643.00,1.23
7642.00,1.23
7641.00,1.23
7640.00,1.23
7639.00,1.23
7638.00,1.23
7637.00,1.23
7636.00,1.23
7635.00,1.23
7634.00,1.23
7633.00,1.23
7632.00,1.23
7631.00,1.23
7630.00,1.23
7629.00,1.23
7628.00,1.23
7627.00,1.23
7626.00,1.23
7625.00,1.23
7624.00,1.23
7623.00,1.23
7622.00,1.23
7621.00,1.23
7620.00,1.23
7619.00,1.23
7618.00,1.23
7617.00,1.23
7616.00,1.23
7615.00,1.23
7614.00,1.23
7613.00,1.23
7612.00,1.23
7611.00,1.23
7610.00,1.23
7609.00,1.24
7608.00,1.24
7607.00,1.24
7606.00,1.24
7605.00,1.24
7604.00,1.24
7603.00,1.24
7602.00,1.24
7601.00,1.24
7600.00,1.24
7599.00,1.24
7598.00,1.24
7597.00,1.24
7596.00,1.24
7595.00,1.24
7594.00,1.24
7593.00,1.24
7592.00,1.23
7591.00,1.23
7590.00,1.23
7589.00,1.23
7588.00,1.23
7587.00,1.23
7586.00,1.23
7585.00,1.23
7584.00,1.23
7583.00,1.23
7582.00,1.23
7581.00,1.23
7580.00,1.23
7579.00,1.23
7578.00,1.23
7577.00,1.23
7576.00,1.23
7575.00,1.23
7574.00,1.23
7573.00,1.23
7572.00,1.23
7571.00,1.23
7570.00,1.23
7569.00,1.22
7568.00,1.22
7567.00,1.22
7566.00,1.22
7565.00,1.22
7564.00,1.22
7563.00,1.22
7562.00,1.22
7561.00,1.22
7560.00,1.22
7559.00,1.22
7558.00,1.22
7557.00,1.22
7556.00,1.22
7555.00,1.22
7554.00,1.22
7553.00,1.22
7552.00,1.22
7551.00,1.22
7550.00,1.22
7549.00,1.22
7548.00,1.22
7547.00,1.22
7546.00,1.22
7545.00,1.22
7544.00,1.22
7543.00,1.23
7542.00,1.23
7541.00,1.23
7540.00,1.23
7539.00,1.23
7538.00,1.23
7537.00,1.23
7536.00,1.23
7535.00,1.23
7534.00,1.23
7533.00,1.23
7532.00,1.23
7531.00,1.22
7530.00,1.22
7529.00,1.22
7528.00,1.22
7527.00,1.22
7526.00,1.22
7525.00,1.22
7524.00,1.22
7523.00,1.22
7522.00,1.22
7521.00,1.22
7520.00,1.22
7519.00,1.22
7518.00,1.22
7517.00,1.22
7516.00,1.22
7515.00,1.22
7514.00,1.22
7513.00,1.22
7512.00,1.22
7511.00,1.22
7510.00,1.22
7509.00,1.22
7508.00,1.21
7507.00,1.21
7506.00,1.21
7505.00,1.21
7504.00,1.21
7503.00,1.21
7502.00,1.21
7501.00,1.21
7500.00,1.21
7499.00,1.21
7498.00,1.21
7497.00,1.21
7496.00,1.21
7495.00,1.21
7494.00,1.21
7493.00,1.21
7492.00,1.21
7491.00,1.21
7490.00,1.21
7489.00,1.21
7488.00,1.21
7487.00,1.21
7486.00,1.21
7485.00,1.21
7484.00,1.21
7483.00,1.21
7482.00,1.21
7481.00,1.21
7480.00,1.21
7479.00,1.21
7478.00,1.21
7477.00,1.20
7476.00,1.20
7475.00,1.20
7474.00,1.20
7473.00,1.20
7472.00,1.20
7471.00,1.20
7470.00,1.20
7469.00,1.20
7468.00,1.20
7467.00,1.20
7466.00,1.20
7465.00,1.20
7464.00,1.20
7463.00,1.20
7462.00,1.20
7461.00,1.20
7460.00,1.20
7459.00,1.20
7458.00,1.20
7457.00,1.20
7456.00,1.19
7455.00,1.19
7454.00,1.19
7453.00,1.19
7452.00,1.19
7451.00,1.19
7450.00,1.19
7449.00,1.19
7448.00,1.19
7447.00,1.19
7446.00,1.19
7445.00,1.19
7444.00,1.19
7443.00,1.19
7442.00,1.19
7441.00,1.19
7440.00,1.19
7439.00,1.19
7438.00,1.19
7437.00,1.19
7436.00,1.19
7435.00,1.19
7434.00,1.19
7433.00,1.19
7432.00,1.19
7431.00,1.19
7430.00,1.19
7429.00,1.19
7428.00,1.19
7427.00,1.19
7426.00,1.19
7425.00,1.19
7424.00,1.19
7423.00,1.19
7422.00,1.19
7421.00,1.19
7420.00,1.19
7419.00,1.19
7418.00,1.19
7417.00,1.19
7416.00,1.18
7415.00,1.18
7414.00,1.18
7413.00,1.18
7412.00,1.18
7411.00,1.18
7410.00,1.18
7409.00,1.18
7408.00,1.18
7407.00,1.17
7406.00,1.17
7405.00,1.17
7404.00,1.17
7403.00,1.17
7402.00,1.17
7401.00,1.17
7400.00,1.17
7399.00,1.17
7398.00,1.17
7397.00,1.16
7396.00,1.16
7395.00,1.16
7394.00,1.16
7393.00,1.16
7392.00,1.16
7391.00,1.16
7390.00,1.16
7389.00,1.16
7388.00,1.16
7387.00,1.15
7386.00,1.15
7385.00,1.15
7384.00,1.15
7383.00,1.15
7382.00,1.15
7381.00,1.15
7380.00,1.15
7379.00,1.15
7378.00,1.15
7377.00,1.15
7376.00,1.15
7375.00,1.15
7374.00,1.15
7373.00,1.15
7372.00,1.15
7371.00,1.15
7370.00,1.15
7369.00,1.15
7368.00,1.15
7367.00,1.15
7366.00,1.15
7365.00,1.15
7364.00,1.15
7363.00,1.15
7362.00,1.15
7361.00,1.15
7360.00,1.15
7359.00,1.15
7358.00,1.15
7357.00,1.15
7356.00,1.15
7355.00,1.15
7354.00,1.15
7353.00,1.15
7352.00,1.15
7351.00,1.15
7350.00,1.15
7349.00,1.15
7348.00,1.14
7347.00,1.14
7346.00,1.14
7345.00,1.14
7344.00,1.14
7343.00,1.14
7342.00,1.14
7341.00,1.14
7340.00,1.14
7339.00,1.14
7338.00,1.14
7337.00,1.14
7336.00,1.14
7335.00,1.14
7334.00,1.14
7333.00,1.14
7332.00,1.13
7331.00,1.13
7330.00,1.13
7329.00,1.13
7328.00,1.13
7327.00,1.13
7326.00,1.13
7325.00,1.13
7324.00,1.13
7323.00,1.13
7322.00,1.13
7321.00,1.13
7320.00,1.13
7319.00,1.13
7318.00,1.13
7317.00,1.13
7316.00,1.13
7315.00,1.13
7314.00,1.13
7313.00,1.13
7312.00,1.13
7311.00,1.13
7310.00,1.13
7309.00,1.13
7308.00,1.13
7307.00,1.13
7306.00,1.13
7305.00,1.13
7304.00,1.13
7303.00,1.13
7302.00,1.13
7301.00,1.13
7300.00,1.13
7299.00,1.13
7298.00,1.13
7297.00,1.13
7296.00,1.12
7295.00,1.12
7294.00,1.12
7293.00,1.12
7292.00,1.12
7291.00,1.12
7290.00,1.11
7289.00,1.11
7288.00,1.11
7287.00,1.11
7286.00,1.11
7285.00,1.11
7284.00,1.10
7283.00,1.10
7282.00,1.10
7281.00,1.10
7280.00,1.10
7279.00,1.10
7278.00,1.10
7277.00,1.09
7276.00,1.09
7275.00,1.09
7274.00,1.09
7273.00,1.09
7272.00,1.09
7271.00,1.09
7270.00,1.09
7269.00,1.09
7268.00,1.09
7267.00,1.08
7266.00,1.08
7265.00,1.08
7264.00,1.08
7263.00,1.08
7262.00,1.08
7261.00,1.08
7260.00,1.08
7259.00,1.08
7258.00,1.08
7257.00,1.08
7256.00,1.08
7255.00,1.08
7254.00,1.08
7253.00,1.08
7252.00,1.07
7251.00,1.07
7250.00,1.07
7249.00,1.07
7248.00,1.07
7247.00,1.07
7246.00,1.06
7245.00,1.06
7244.00,1.06
7243.00,1.06
7242.00,1.06
7241.00,1.05
7240.00,1.05
7239.00,1.05
7238.00,1.05
7237.00,1.04
7236.00,1.04
7235.00,1.04
7234.00,1.04
7233.00,1.03
7232.00,1.03
7231.00,1.03
7230.00,1.03
7229.00,1.02
7228.00,1.02
7227.00,1.02
7226.00,1.02
7225.00,1.01
7224.00,1.01
7223.00,1.01
7222.00,1.01
7221.00,1.00
7220.00,1.00
7219.00,1.00
7218.00,1.00
7217.00,0.99
7216.00,0.99
7215.00,0.99
7214.00,0.99
7213.00,0.99
7212.00,0.98
7211.00,0.98
7210.00,0.98
7209.00,0.98
7208.00,0.98
7207.00,0.97
7206.00,0.97
7205.00,0.97
7204.00,0.97
7203.00,0.97
7202.00,0.96
7201.00,0.96
7200.00,0.96
7199.00,0.96
7198.00,0.96
7197.00,0.95
7196.00,0.95
7195.00,0.95
7194.00,0.95
7193.00,0.95
7192.00,0.94
7191.00,0.94
7190.00,0.94
7189.00,0.94
7188.00,0.93
7187.00,0.93
7186.00,0.93
7185.00,0.92
7184.00,0.92
7183.00,0.92
7182.00,0.91
7181.00,0.91
7180.00,0.91
7179.00,0.91
7178.00,0.90
7177.00,0.90
7176.00,0.90
7175.00,0.89
7174.00,0.89
7173.00,0.89
7172.00,0.89
7171.00,0.88
7170.00,0.88
7169.00,0.88
7168.00,0.88
7167.00,0.88
7166.00,0.88
7165.00,0.87
7164.00,0.87
7163.00,0.87
7162.00,0.87
7161.00,0.87
7160.00,0.87
7159.00,0.86
7158.00,0.86
7157.00,0.86
7156.00,0.86
7155.00,0.86
7154.00,0.86
7153.00,0.86
7152.00,0.86
7151.00,0.86
7150.00,0.85
7149.00,0.85
7148.00,0.85
7147.00,0.85
7146.00,0.85
7145.00,0.84
7144.00,0.84
7143.00,0.84
7142.00,0.84
7141.00,0.83
7140.00,0.83
7139.00,0.83
7138.00,0.82
7137.00,0.82
7136.00,0.82
7135.00,0.81
7134.00,0.81
7133.00,0.81
7132.00,0.80
7131.00,0.80
7130.00,0.80
7129.00,0.79
7128.00,0.79
7127.00,0.79
7126.00,0.79
7125.00,0.78
7124.00,0.78
7123.00,0.78
7122.00,0.78
7121.00,0.77
7120.00,0.77
7119.00,0.77
7118.00,0.77
7117.00,0.77
7116.00,0.76
7115.00,0.76
7114.00,0.76
7113.00,0.76
7112.00,0.76
7111.00,0.76
7110.00,0.75
7109.00,0.75
7108.00,0.75
7107.00,0.75
7106.00,0.75
7105.00,0.74
7104.00,0.74
7103.00,0.74
7102.00,0.74
7101.00,0.74
7100.00,0.73
7099.00,0.73
7098.00,0.73
7097.00,0.73
7096.00,0.73
7095.00,0.72
7094.00,0.72
7093.00,0.72
7092.00,0.72
7091.00,0.72
7090.00,0.72
7089.00,0.72
7088.00,0.72
7087.00,0.72
7086.00,0.72
7085.00,0.72
7084.00,0.72
7083.00,0.72
7082.00,0.72
7081.00,0.72
7080.00,0.72
7079.00,0.71
7078.00,0.71
7077.00,0.71
7076.00,0.71
7075.00,0.71
7074.00,0.71
7073.00,0.70
7072.00,0.70
7071.00,0.70
7070.00,0.70
7069.00,0.69
7068.00,0.69
7067.00,0.69
7066.00,0.69
7065.00,0.68
7064.00,0.68
7063.00,0.68
7062.00,0.68
7061.00,0.67
7060.00,0.67
7059.00,0.67
7058.00,0.67
7057.00,0.67
7056.00,0.67
7055.00,0.67
7054.00,0.67
7053.00,0.67
7052.00,0.66
7051.00,0.66
7050.00,0.66
7049.00,0.66
7048.00,0.66
7047.00,0.66
7046.00,0.66
7045.00,0.66
7044.00,0.66
7043.00,0.66
7042.00,0.66
7041.00,0.66
7040.00,0.66
7039.00,0.66
7038.00,0.66
7037.00,0.65
7036.00,0.65
7035.00,0.65
7034.00,0.65
7033.00,0.65
7032.00,0.64
7031.00,0.64
7030.00,0.64
7029.00,0.64
7028.00,0.64
7027.00,0.63
7026.00,0.63
7025.00,0.63
7024.00,0.63
7023.00,0.63
7022.00,0.63
7021.00,0.63
7020.00,0.63
7019.00,0.63
7018.00,0.63
7017.00,0.63
7016.00,0.63
7015.00,0.63
7014.00,0.63
7013.00,0.63
7012.00,0.62
7011.00,0.62
7010.00,0.62
7009.00,0.62
7008.00,0.62
7007.00,0.62
7006.00,0.62
7005.00,0.62
7004.00,0.62
7003.00,0.62
7002.00,0.62
7001.00,0.62
7000.00,0.62
6999.00,0.62
6998.00,0.62
6997.00,0.62
6996.00,0.62
6995.00,0.62
6994.00,0.62
6993.00,0.62
6992.00,0.62
6991.00,0.62
6990.00,0.62
6989.00,0.62
6988.00,0.62
6987.00,0.62
6986.00,0.62
6985.00,0.62
6984.00,0.62
6983.00,0.62
6982.00,0.61
6981.00,0.61
6980.00,0.61
6979.00,0.61
6978.00,0.61
6977.00,0.61
6976.00,0.61
6975.00,0.61
6974.00,0.61
6973.00,0.61
6972.00,0.61
6971.00,0.61
6970.00,0.61
6969.00,0.61
6968.00,0.61
6967.00,0.61
6966.00,0.61
6965.00,0.61
6964.00,0.61
6963.00,0.61
6962.00,0.61
6961.00,0.61
6960.00,0.61
6959.00,0.61
6958.00,0.61
6957.00,0.61
6956.00,0.61
6955.00,0.61
6954.00,0.61
6953.00,0.61
6952.00,0.60
6951.00,0.60
6950.00,0.60
6949.00,0.60
6948.00,0.60
6947.00,0.60
6946.00,0.60
6945.00,0.60
6944.00,0.60
6943.00,0.60
6942.00,0.60
6941.00,0.59
6940.00,0.59
6939.00,0.59
6938.00,0.59
6937.00,0.59
6936.00,0.59
6935.00,0.59
6934.00,0.59
6933.00,0.59
6932.00,0.59
6931.00,0.59
6930.00,0.59
6929.00,0.59
6928.00,0.59
6927.00,0.59
6926.00,0.59
6925.00,0.59
6924.00,0.59
6923.00,0.59
6922.00,0.59
6921.00,0.59
6920.00,0.59
6919.00,0.59
6918.00,0.59
6917.00,0.59
6916.00,0.59
6915.00,0.59
6914.00,0.59
6913.00,0.58
6912.00,0.58
6911.00,0.58
6910.00,0.58
6909.00,0.58
6908.00,0.58
6907.00,0.58
6906.00,0.58
6905.00,0.58
6904.00,0.58
6903.00,0.58
6902.00,0.58
6901.00,0.58
6900.00,0.58
6899.00,0.58
6898.00,0.58
6897.00,0.58
6896.00,0.58
6895.00,0.58
6894.00,0.59
6893.00,0.59
6892.00,0.59
6891.00,0.59
6890.00,0.59
6889.00,0.59
6888.00,0.59
6887.00,0.59
6886.00,0.59
6885.00,0.59
6884.00,0.59
6883.00,0.59
6882.00,0.59
6881.00,0.59
6880.00,0.59
6879.00,0.59
6878.00,0.59
6877.00,0.59
6876.00,0.58
6875.00,0.58
6874.00,0.58
6873.00,0.58
6872.00,0.58
6871.00,0.58
6870.00,0.58
6869.00,0.58
6868.00,0.58
6867.00,0.58
6866.00,0.58
6865.00,0.58
6864.00,0.58
6863.00,0.58
6862.00,0.58
6861.00,0.58
6860.00,0.58
6859.00,0.58
6858.00,0.58
6857.00,0.58
6856.00,0.58
6855.00,0.58
6854.00,0.58
6853.00,0.58
6852.00,0.58
6851.00,0.58
6850.00,0.58
6849.00,0.58
6848.00,0.58
6847.00,0.58
6846.00,0.58
6845.00,0.58
6844.00,0.58
6843.00,0.58
6842.00,0.58
6841.00,0.58
6840.00,0.58
6839.00,0.58
6838.00,0.58
6837.00,0.58
6836.00,0.58
6835.00,0.59
6834.00,0.59
6833.00,0.59
6832.00,0.59
6831.00,0.59
6830.00,0.59
6829.00,0.59
6828.00,0.59
6827.00,0.59
6826.00,0.59
6825.00,0.59
6824.00,0.59
6823.00,0.59
6822.00,0.59
6821.00,0.59
6820.00,0.59
6819.00,0.59
6818.00,0.59
6817.00,0.59
6816.00,0.59
6815.00,0.59
6814.00,0.59
6813.00,0.59
6812.00,0.59
6811.00,0.59
6810.00,0.59
6809.00,0.59
6808.00,0.60
6807.00,0.60
6806.00,0.60
6805.00,0.60
6804.00,0.60
6803.00,0.60
6802.00,0.60
6801.00,0.60
6800.00,0.60
6799.00,0.60
6798.00,0.59
6797.00,0.59
6796.00,0.59
6795.00,0.59
6794.00,0.59
6793.00,0.59
6792.00,0.59
6791.00,0.59
6790.00,0.59
6789.00,0.59
6788.00,0.59
6787.00,0.59
6786.00,0.59
6785.00,0.59
6784.00,0.60
6783.00,0.60
6782.00,0.60
6781.00,0.60
6780.00,0.60
6779.00,0.60
6778.00,0.60
6777.00,0.60
6776.00,0.61
6775.00,0.61
6774.00,0.61
6773.00,0.61
6772.00,0.61
6771.00,0.61
6770.00,0.61
6769.00,0.61
6768.00,0.61
6767.00,0.61
6766.00,0.61
6765.00,0.61
6764.00,0.61
6763.00,0.61
6762.00,0.61
6761.00,0.61
6760.00,0.61
6759.00,0.61
6758.00,0.62
6757.00,0.62
6756.00,0.62
6755.00,0.62
6754.00,0.62
6753.00,0.62
6752.00,0.62
6751.00,0.62
6750.00,0.62
6749.00,0.62
6748.00,0.62
6747.00,0.62
6746.00,0.62
6745.00,0.62
6744.00,0.62
6743.00,0.62
6742.00,0.62
6741.00,0.62
6740.00,0.62
6739.00,0.62
6738.00,0.62
6737.00,0.62
6736.00,0.62
6735.00,0.62
6734.00,0.62
6733.00,0.62
6732.00,0.62
6731.00,0.62
6730.00,0.62
6729.00,0.62
6728.00,0.63
6727.00,0.63
6726.00,0.63
6725.00,0.63
6724.00,0.63
6723.00,0.63
6722.00,0.63
6721.00,0.63
6720.00,0.63
6719.00,0.63
6718.00,0.63
6717.00,0.63
6716.00,0.63
6715.00,0.63
6714.00,0.63
6713.00,0.63
6712.00,0.63
6711.00,0.64
6710.00,0.64
6709.00,0.64
6708.00,0.64
6707.00,0.64
6706.00,0.64
6705.00,0.64
6704.00,0.64
6703.00,0.64
6702.00,0.64
6701.00,0.64
6700.00,0.64
6699.00,0.64
6698.00,0.65
6697.00,0.65
6696.00,0.65
6695.00,0.65
6694.00,0.65
6693.00,0.65
6692.00,0.65
6691.00,0.65
6690.00,0.65
6689.00,0.65
6688.00,0.65
6687.00,0.65
6686.00,0.65
6685.00,0.65
6684.00,0.65
6683.00,0.65
6682.00,0.65
6681.00,0.65
6680.00,0.65
6679.00,0.65
6678.00,0.66
6677.00,0.66
6676.00,0.66
6675.00,0.66
6674.00,0.66
6673.00,0.66
6672.00,0.66
6671.00,0.66
6670.00,0.66
6669.00,0.66
6668.00,0.67
6667.00,0.67
6666.00,0.67
6665.00,0.67
6664.00,0.67
6663.00,0.67
6662.00,0.67
6661.00,0.67
6660.00,0.67
6659.00,0.67
6658.00,0.67
6657.00,0.67
6656.00,0.67
6655.00,0.67
6654.00,0.67
6653.00,0.67
6652.00,0.67
6651.00,0.67
6650.00,0.68
6649.00,0.68
6648.00,0.68
6647.00,0.68
6646.00,0.68
6645.00,0.68
6644.00,0.68
6643.00,0.68
6642.00,0.68
6641.00,0.68
6640.00,0.68
6639.00,0.68
6638.00,0.68
6637.00,0.68
6636.00,0.68
6635.00,0.69
6634.00,0.69
6633.00,0.69
6632.00,0.69
6631.00,0.69
6630.00,0.69
6629.00,0.69
6628.00,0.69
6627.00,0.69
6626.00,0.69
6625.00,0.69
6624.00,0.69
6623.00,0.69
6622.00,0.69
6621.00,0.69
6620.00,0.69
6619.00,0.70
6618.00,0.70
6617.00,0.70
6616.00,0.70
6615.00,0.70
6614.00,0.70
6613.00,0.70
6612.00,0.70
6611.00,0.70
6610.00,0.70
6609.00,0.70
6608.00,0.70
6607.00,0.70
6606.00,0.70
6605.00,0.70
6604.00,0.71
6603.00,0.71
6602.00,0.71
6601.00,0.71
6600.00,0.71
6599.00,0.71
6598.00,0.71
6597.00,0.71
6596.00,0.71
6595.00,0.71
6594.00,0.71
6593.00,0.72
6592.00,0.72
6591.00,0.72
6590.00,0.72
6589.00,0.72
6588.00,0.72
6587.00,0.72
6586.00,0.72
6585.00,0.73
6584.00,0.73
6583.00,0.73
6582.00,0.73
6581.00,0.73
6580.00,0.73
6579.00,0.73
6578.00,0.74
6577.00,0.74
6576.00,0.74
6575.00,0.74
6574.00,0.74
6573.00,0.74
6572.00,0.74
6571.00,0.74
6570.00,0.74
6569.00,0.74
6568.00,0.74
6567.00,0.74
6566.00,0.74
6565.00,0.74
6564.00,0.74
6563.00,0.74
6562.00,0.74
6561.00,0.74
6560.00,0.74
6559.00,0.74
6558.00,0.74
6557.00,0.74
6556.00,0.74
6555.00,0.74
6554.00,0.75
6553.00,0.75
6552.00,0.75
6551.00,0.75
6550.00,0.75
6549.00,0.75
6548.00,0.75
6547.00,0.75
6546.00,0.75
6545.00,0.75
6544.00,0.76
6543.00,0.76
6542.00,0.76
6541.00,0.76
6540.00,0.76
6539.00,0.76
6538.00,0.76
6537.00,0.76
6536.00,0.76
6535.00,0.76
6534.00,0.76
6533.00,0.76
6532.00,0.76
6531.00,0.76
6530.00,0.76
6529.00,0.76
6528.00,0.76
6527.00,0.76
6526.00,0.76
6525.00,0.76
6524.00,0.76
6523.00,0.77
6522.00,0.77
6521.00,0.77
6520.00,0.77
6519.00,0.77
6518.00,0.77
6517.00,0.77
6516.00,0.77
6515.00,0.77
6514.00,0.77
6513.00,0.77
6512.00,0.77
6511.00,0.77
6510.00,0.78
6509.00,0.77
6508.00,0.77
6507.00,0.77
6506.00,0.77
6505.00,0.77
6504.00,0.77
6503.00,0.77
6502.00,0.77
6501.00,0.77
6500.00,0.77
6499.00,0.78
6498.00,0.78
6497.00,0.78
6496.00,0.78
6495.00,0.78
6494.00,0.78
6493.00,0.78
6492.00,0.78
6491.00,0.78
6490.00,0.78
6489.00,0.79
6488.00,0.79
6487.00,0.79
6486.00,0.79
6485.00,0.79
6484.00,0.79
6483.00,0.79
6482.00,0.79
6481.00,0.79
6480.00,0.79
6479.00,0.79
6478.00,0.80
6477.00,0.80
6476.00,0.80
6475.00,0.80
6474.00,0.80
6473.00,0.80
6472.00,0.80
6471.00,0.80
6470.00,0.80
6469.00,0.80
6468.00,0.80
6467.00,0.80
6466.00,0.80
6465.00,0.80
6464.00,0.80
6463.00,0.80
6462.00,0.80
6461.00,0.80
6460.00,0.80
6459.00,0.80
6458.00,0.80
6457.00,0.80
6456.00,0.80
6455.00,0.81
6454.00,0.81
6453.00,0.81
6452.00,0.81
6451.00,0.81
6450.00,0.81
6449.00,0.81
6448.00,0.81
6447.00,0.81
6446.00,0.81
6445.00,0.81
6444.00,0.81
6443.00,0.81
6442.00,0.81
6441.00,0.81
6440.00,0.81
6439.00,0.81
6438.00,0.82
6437.00,0.82
6436.00,0.82
6435.00,0.82
6434.00,0.82
6433.00,0.82
6432.00,0.82
6431.00,0.82
6430.00,0.82
6429.00,0.82
6428.00,0.82
6427.00,0.82
6426.00,0.82
6425.00,0.82
6424.00,0.82
6423.00,0.82
6422.00,0.82
6421.00,0.82
6420.00,0.82
6419.00,0.82
6418.00,0.82
6417.00,0.82
6416.00,0.82
6415.00,0.82
6414.00,0.82
6413.00,0.82
6412.00,0.82
6411.00,0.82
6410.00,0.82
6409.00,0.82
6408.00,0.83
6407.00,0.83
6406.00,0.83
6405.00,0.83
6404.00,0.83
6403.00,0.83
6402.00,0.83
6401.00,0.83
6400.00,0.83
6399.00,0.83
6398.00,0.83
6397.00,0.83
6396.00,0.83
6395.00,0.83
6394.00,0.83
6393.00,0.83
6392.00,0.84
6391.00,0.84
6390.00,0.84
6389.00,0.84
6388.00,0.84
6387.00,0.84
6386.00,0.84
6385.00,0.84
6384.00,0.84
6383.00,0.84
6382.00,0.84
6381.00,0.84
6380.00,0.84
6379.00,0.84
6378.00,0.84
6377.00,0.84
6376.00,0.84
6375.00,0.84
6374.00,0.84
6373.00,0.84
6372.00,0.84
6371.00,0.84
6370.00,0.84
6369.00,0.84
6368.00,0.84
6367.00,0.84
6366.00,0.84
6365.00,0.84
6364.00,0.84
6363.00,0.84
6362.00,0.84
6361.00,0.84
6360.00,0.85
6359.00,0.85
6358.00,0.85
6357.00,0.85
6356.00,0.85
6355.00,0.85
6354.00,0.85
6353.00,0.85
6352.00,0.85
6351.00,0.86
6350.00,0.86
6349.00,0.86
6348.00,0.86
6347.00,0.86
6346.00,0.86
6345.00,0.86
6344.00,0.86
6343.00,0.86
6342.00,0.86
6341.00,0.87
6340.00,0.87
6339.00,0.87
6338.00,0.87
6337.00,0.87
6336.00,0.87
6335.00,0.87
6334.00,0.87
6333.00,0.87
6332.00,0.87
6331.00,0.87
6330.00,0.87
6329.00,0.87
6328.00,0.87
6327.00,0.88
6326.00,0.88
6325.00,0.88
6324.00,0.88
6323.00,0.88
6322.00,0.88
6321.00,0.88
6320.00,0.88
6319.00,0.88
6318.00,0.88
6317.00,0.89
6316.00,0.89
6315.00,0.89
6314.00,0.89
6313.00,0.89
6312.00,0.89
6311.00,0.89
6310.00,0.89
6309.00,0.89
6308.00,0.89
6307.00,0.89
6306.00,0.89
6305.00,0.89
6304.00,0.89
6303.00,0.89
6302.00,0.89
6301.00,0.89
6300.00,0.89
6299.00,0.89
6298.00,0.89
6297.00,0.89
6296.00,0.89
6295.00,0.90
6294.00,0.90
6293.00,0.90
6292.00,0.90
6291.00,0.90
6290.00,0.90
6289.00,0.90
6288.00,0.90
6287.00,0.90
6286.00,0.90
6285.00,0.90
6284.00,0.91
6283.00,0.91
6282.00,0.91
6281.00,0.91
6280.00,0.91
6279.00,0.91
6278.00,0.91
6277.00,0.91
6276.00,0.91
6275.00,0.91
6274.00,0.91
6273.00,0.91
6272.00,0.92
6271.00,0.92
6270.00,0.92
6269.00,0.92
6268.00,0.92
6267.00,0.92
6266.00,0.92
6265.00,0.92
6264.00,0.92
6263.00,0.92
6262.00,0.92
6261.00,0.92
6260.00,0.93
6259.00,0.93
6258.00,0.93
6257.00,0.93
6256.00,0.93
6255.00,0.93
6254.00,0.93
6253.00,0.93
6252.00,0.93
6251.00,0.93
6250.00,0.93
6249.00,0.94
6248.00,0.94
6247.00,0.94
6246.00,0.94
6245.00,0.94
6244.00,0.94
6243.00,0.94
6242.00,0.94
6241.00,0.95
6240.00,0.95
6239.00,0.95
6238.00,0.95
6237.00,0.95
6236.00,0.95
6235.00,0.95
6234.00,0.95
6233.00,0.95
6232.00,0.95
6231.00,0.95
6230.00,0.95
6229.00,0.95
6228.00,0.95
6227.00,0.95
6226.00,0.95
6225.00,0.95
6224.00,0.95
6223.00,0.95
6222.00,0.95
6221.00,0.95
6220.00,0.96
6219.00,0.96
6218.00,0.96
6217.00,0.96
6216.00,0.96
6215.00,0.96
6214.00,0.96
6213.00,0.96
6212.00,0.96
6211.00,0.96
6210.00,0.97
6209.00,0.97
6208.00,0.97
6207.00,0.97
6206.00,0.97
6205.00,0.97
6204.00,0.97
6203.00,0.97
6202.00,0.97
6201.00,0.97
6200.00,0.97
6199.00,0.97
6198.00,0.97
6197.00,0.98
6196.00,0.98
6195.00,0.98
6194.00,0.98
6193.00,0.98
6192.00,0.98
6191.00,0.98
6190.00,0.98
6189.00,0.99
6188.00,0.99
6187.00,0.99
6186.00,0.99
6185.00,0.99
6184.00,0.99
6183.00,0.99
6182.00,1.00
6181.00,1.00
6180.00,1.00
6179.00,1.00
6178.00,1.00
6177.00,1.00
6176.00,1.00
6175.00,1.00
6174.00,1.00
6173.00,1.00
6172.00,1.00
6171.00,1.00
6170.00,1.00
6169.00,1.01
6168.00,1.01
6167.00,1.01
6166.00,1.01
6165.00,1.01
6164.00,1.01
6163.00,1.02
6162.00,1.02
6161.00,1.02
6160.00,1.02
6159.00,1.02
6158.00,1.02
6157.00,1.03
6156.00,1.03
6155.00,1.03
6154.00,1.03
6153.00,1.03
6152.00,1.04
6151.00,1.04
6150.00,1.04
6149.00,1.04
6148.00,1.04
6147.00,1.04
6146.00,1.05
6145.00,1.05
6144.00,1.05
6143.00,1.05
6142.00,1.05
6141.00,1.05
6140.00,1.06
6139.00,1.06
6138.00,1.06
6137.00,1.06
6136.00,1.06
6135.00,1.06
6134.00,1.06
6133.00,1.06
6132.00,1.07
6131.00,1.07
6130.00,1.07
6129.00,1.07
6128.00,1.07
6127.00,1.07
6126.00,1.07
6125.00,1.07
6124.00,1.07
6123.00,1.07
6122.00,1.07
6121.00,1.07
6120.00,1.07
6119.00,1.07
6118.00,1.08
6117.00,1.08
6116.00,1.08
6115.00,1.08
6114.00,1.08
6113.00,1.08
6112.00,1.08
6111.00,1.08
6110.00,1.08
6109.00,1.08
6108.00,1.08
6107.00,1.08
6106.00,1.09
6105.00,1.09
6104.00,1.09
6103.00,1.09
6102.00,1.09
6101.00,1.09
6100.00,1.09
6099.00,1.09
6098.00,1.09
6097.00,1.10
6096.00,1.10
6095.00,1.10
6094.00,1.10
6093.00,1.10
6092.00,1.10
6091.00,1.10
6090.00,1.10
6089.00,1.11
6088.00,1.11
6087.00,1.11
6086.00,1.11
6085.00,1.11
6084.00,1.11
6083.00,1.11
6082.00,1.11
6081.00,1.11
6080.00,1.11
6079.00,1.12
6078.00,1.12
6077.00,1.12
6076.00,1.12
6075.00,1.12
6074.00,1.12
6073.00,1.12
6072.00,1.12
6071.00,1.13
6070.00,1.13
6069.00,1.13
6068.00,1.13
6067.00,1.13
6066.00,1.13
6065.00,1.13
6064.00,1.13
6063.00,1.13
6062.00,1.13
6061.00,1.13
6060.00,1.13
6059.00,1.14
6058.00,1.14
6057.00,1.14
6056.00,1.14
6055.00,1.14
6054.00,1.14
6053.00,1.14
6052.00,1.14
6051.00,1.14
6050.00,1.14
6049.00,1.14
6048.00,1.14
6047.00,1.14
6046.00,1.14
6045.00,1.15
6044.00,1.15
6043.00,1.15
6042.00,1.15
6041.00,1.15
6040.00,1.15
6039.00,1.15
6038.00,1.15
6037.00,1.15
6036.00,1.15
6035.00,1.15
6034.00,1.15
6033.00,1.15
6032.00,1.15
6031.00,1.15
6030.00,1.15
6029.00,1.15
6028.00,1.15
6027.00,1.15
6026.00,1.15
6025.00,1.15
6024.00,1.15
6023.00,1.15
6022.00,1.15
6021.00,1.15
6020.00,1.15
6019.00,1.16
6018.00,1.16
6017.00,1.16
6016.00,1.16
6015.00,1.16
6014.00,1.16
6013.00,1.16
6012.00,1.16
6011.00,1.16
6010.00,1.16
6009.00,1.16
6008.00,1.16
6007.00,1.16
6006.00,1.16
6005.00,1.15
6004.00,1.15
6003.00,1.15
6002.00,1.15
6001.00,1.15
6000.00,1.15
5999.00,1.15
5998.00,1.15
5997.00,1.14
5996.00,1.14
5995.00,1.14
5994.00,1.14
5993.00,1.14
5992.00,1.14
5991.00,1.14
5990.00,1.13
5989.00,1.13
5988.00,1.13
5987.00,1.13
5986.00,1.13
5985.00,1.12
5984.00,1.12
5983.00,1.12
5982.00,1.12
5981.00,1.12
5980.00,1.11
5979.00,1.11
5978.00,1.11
5977.00,1.11
5976.00,1.10
5975.00,1.10
5974.00,1.10
5973.00,1.09
5972.00,1.09
5971.00,1.09
5970.00,1.08
5969.00,1.08
5968.00,1.07
5967.00,1.07
5966.00,1.06
5965.00,1.06
5964.00,1.05
5963.00,1.05
5962.00,1.04
5961.00,1.04
5960.00,1.03
5959.00,1.03
5958.00,1.02
5957.00,1.02
5956.00,1.01
5955.00,1.01
5954.00,1.00
5953.00,1.00
5952.00,0.99
5951.00,0.99
5950.00,0.98
5949.00,0.98
5948.00,0.98
5947.00,0.97
5946.00,0.97
5945.00,0.97
5944.00,0.96
5943.00,0.96
5942.00,0.96
5941.00,0.96
5940.00,0.95
5939.00,0.95
5938.00,0.95
5937.00,0.95
5936.00,0.95
5935.00,0.95
5934.00,0.95
5933.00,0.95
5932.00,0.95
5931.00,0.95
5930.00,0.95
5929.00,0.94
5928.00,0.94
5927.00,0.94
5926.00,0.94
5925.00,0.94
5924.00,0.94
5923.00,0.94
5922.00,0.94
5921.00,0.94
5920.00,0.94
5919.00,0.94
5918.00,0.93
5917.00,0.93
5916.00,0.93
5915.00,0.93
5914.00,0.93
5913.00,0.92
5912.00,0.92
5911.00,0.92
5910.00,0.92
5909.00,0.92
5908.00,0.91
5907.00,0.91
5906.00,0.91
5905.00,0.91
5904.00,0.91
5903.00,0.91
5902.00,0.91
5901.00,0.90
5900.00,0.90
5899.00,0.90
5898.00,0.90
5897.00,0.91
5896.00,0.91
5895.00,0.91
5894.00,0.91
5893.00,0.91
5892.00,0.91
5891.00,0.91
5890.00,0.92
5889.00,0.92
5888.00,0.92
5887.00,0.93
5886.00,0.93
5885.00,0.93
5884.00,0.93
5883.00,0.94
5882.00,0.94
5881.00,0.94
5880.00,0.95
5879.00,0.95
5878.00,0.95
5877.00,0.96
5876.00,0.96
5875.00,0.96
5874.00,0.96
5873.00,0.97
5872.00,0.97
5871.00,0.97
5870.00,0.97
5869.00,0.97
5868.00,0.97
5867.00,0.98
5866.00,0.98
5865.00,0.98
5864.00,0.98
5863.00,0.98
5862.00,0.98
5861.00,0.98
5860.00,0.98
5859.00,0.98
5858.00,0.98
5857.00,0.98
5856.00,0.98
5855.00,0.99
5854.00,0.99
5853.00,0.99
5852.00,0.99
5851.00,0.99
5850.00,0.99
5849.00,0.99
5848.00,0.99
5847.00,0.99
5846.00,0.99
5845.00,0.99
5844.00,0.99
5843.00,0.99
5842.00,0.99
5841.00,0.99
5840.00,0.99
5839.00,0.99
5838.00,0.99
5837.00,0.99
5836.00,0.99
5835.00,0.99
5834.00,0.99
5833.00,0.99
5832.00,0.99
5831.00,0.99
5830.00,0.99
5829.00,0.99
5828.00,0.99
5827.00,0.99
5826.00,0.99
5825.00,0.99
5824.00,0.99
5823.00,0.99
5822.00,0.99
5821.00,0.99
5820.00,0.99
5819.00,0.99
5818.00,0.99
5817.00,0.99
5816.00,0.99
5815.00,0.99
5814.00,0.99
5813.00,0.99
5812.00,0.99
5811.00,0.99
5810.00,0.99
5809.00,0.99
5808.00,0.99
5807.00,0.99
5806.00,0.99
5805.00,0.99
5804.00,0.99
5803.00,0.99
5802.00,0.98
5801.00,0.98
5800.00,0.98
5799.00,0.98
5798.00,0.98
5797.00,0.98
5796.00,0.98
5795.00,0.98
5794.00,0.98
5793.00,0.98
5792.00,0.98
5791.00,0.97
5790.00,0.97
5789.00,0.97
5788.00,0.97
5787.00,0.97
5786.00,0.97
5785.00,0.97
5784.00,0.97
5783.00,0.96
5782.00,0.96
5781.00,0.96
5780.00,0.96
5779.00,0.96
5778.00,0.96
5777.00,0.95
5776.00,0.95
5775.00,0.95
5774.00,0.95
5773.00,0.95
5772.00,0.95
5771.00,0.95
5770.00,0.95
5769.00,0.95
5768.00,0.95
5767.00,0.95
5766.00,0.95
5765.00,0.95
5764.00,0.95
5763.00,0.96
5762.00,0.96
5761.00,0.96
5760.00,0.96
5759.00,0.96
5758.00,0.97
5757.00,0.97
5756.00,0.97
5755.00,0.97
5754.00,0.97
5753.00,0.98
5752.00,0.98
5751.00,0.98
5750.00,0.98
5749.00,0.99
5748.00,0.99
5747.00,0.99
5746.00,0.99
5745.00,1.00
5744.00,1.00
5743.00,1.00
5742.00,1.00
5741.00,1.01
5740.00,1.01
5739.00,1.01
5738.00,1.01
5737.00,1.02
5736.00,1.02
5735.00,1.02
5734.00,1.02
5733.00,1.02
5732.00,1.02
5731.00,1.02
5730.00,1.02
5729.00,1.02
5728.00,1.02
5727.00,1.03
5726.00,1.03
5725.00,1.03
5724.00,1.03
5723.00,1.03
5722.00,1.03
5721.00,1.03
5720.00,1.03
5719.00,1.03
5718.00,1.03
5717.00,1.03
5716.00,1.03
5715.00,1.03
5714.00,1.03
5713.00,1.04
5712.00,1.04
5711.00,1.04
5710.00,1.04
5709.00,1.04
5708.00,1.04
5707.00,1.04
5706.00,1.04
5705.00,1.04
5704.00,1.04
5703.00,1.04
5702.00,1.04
5701.00,1.04
5700.00,1.04
5699.00,1.03
5698.00,1.03
5697.00,1.03
5696.00,1.03
5695.00,1.03
5694.00,1.03
5693.00,1.03
5692.00,1.03
5691.00,1.03
5690.00,1.03
5689.00,1.02
5688.00,1.02
5687.00,1.02
5686.00,1.02
5685.00,1.02
5684.00,1.02
5683.00,1.02
5682.00,1.02
5681.00,1.02
5680.00,1.02
5679.00,1.02
5678.00,1.02
5677.00,1.02
5676.00,1.02
5675.00,1.01
5674.00,1.01
5673.00,1.01
5672.00,1.01
5671.00,1.01
5670.00,1.01
5669.00,1.01
5668.00,1.01
5667.00,1.01
5666.00,1.01
5665.00,1.01
5664.00,1.02
5663.00,1.02
5662.00,1.02
5661.00,1.02
5660.00,1.02
5659.00,1.02
5658.00,1.02
5657.00,1.02
5656.00,1.02
5655.00,1.02
5654.00,1.03
5653.00,1.03
5652.00,1.03
5651.00,1.03
5650.00,1.03
5649.00,1.03
5648.00,1.03
5647.00,1.04
5646.00,1.04
5645.00,1.04
5644.00,1.04
5643.00,1.04
5642.00,1.04
5641.00,1.04
5640.00,1.05
5639.00,1.05
5638.00,1.05
5637.00,1.05
5636.00,1.05
5635.00,1.05
5634.00,1.05
5633.00,1.06
5632.00,1.06
5631.00,1.06
5630.00,1.06
5629.00,1.06
5628.00,1.06
5627.00,1.06
5626.00,1.06
5625.00,1.07
5624.00,1.07
5623.00,1.07
5622.00,1.07
5621.00,1.07
5620.00,1.07
5619.00,1.07
5618.00,1.08
5617.00,1.08
5616.00,1.08
5615.00,1.08
5614.00,1.08
5613.00,1.08
5612.00,1.09
5611.00,1.09
5610.00,1.09
5609.00,1.09
5608.00,1.09
5607.00,1.09
5606.00,1.10
5605.00,1.10
5604.00,1.10
5603.00,1.10
5602.00,1.10
5601.00,1.10
5600.00,1.10
5599.00,1.11
5598.00,1.11
5597.00,1.11
5596.00,1.11
5595.00,1.11
5594.00,1.11
5593.00,1.12
5592.00,1.12
5591.00,1.12
5590.00,1.12
5589.00,1.12
5588.00,1.12
5587.00,1.12
5586.00,1.12
5585.00,1.13
5584.00,1.13
5583.00,1.13
5582.00,1.13
5581.00,1.13
5580.00,1.13
5579.00,1.13
5578.00,1.13
5577.00,1.13
5576.00,1.14
5575.00,1.14
5574.00,1.14
5573.00,1.14
5572.00,1.14
5571.00,1.14
5570.00,1.14
5569.00,1.14
5568.00,1.15
5567.00,1.15
5566.00,1.15
5565.00,1.15
5564.00,1.15
5563.00,1.15
5562.00,1.15
5561.00,1.15
5560.00,1.15
5559.00,1.15
5558.00,1.16
5557.00,1.16
5556.00,1.16
5555.00,1.16
5554.00,1.16
5553.00,1.16
5552.00,1.16
5551.00,1.16
5550.00,1.16
5549.00,1.16
5548.00,1.16
5547.00,1.16
5546.00,1.17
5545.00,1.17
5544.00,1.17
5543.00,1.17
5542.00,1.17
5541.00,1.17
5540.00,1.17
5539.00,1.17
5538.00,1.17
5537.00,1.17
5536.00,1.17
5535.00,1.18
5534.00,1.18
5533.00,1.18
5532.00,1.18
5531.00,1.18
5530.00,1.18
5529.00,1.18
5528.00,1.18
5527.00,1.18
5526.00,1.18
5525.00,1.18
5524.00,1.18
5523.00,1.18
5522.00,1.18
5521.00,1.19
5520.00,1.19
5519.00,1.19
5518.00,1.19
5517.00,1.19
5516.00,1.19
5515.00,1.19
5514.00,1.19
5513.00,1.19
5512.00,1.19
5511.00,1.19
5510.00,1.19
5509.00,1.19
5508.00,1.19
5507.00,1.19
5506.00,1.19
5505.00,1.19
5504.00,1.19
5503.00,1.20
5502.00,1.20
5501.00,1.20
5500.00,1.20
5499.00,1.20
5498.00,1.20
5497.00,1.20
5496.00,1.20
5495.00,1.20
5494.00,1.20
5493.00,1.20
5492.00,1.20
5491.00,1.20
5490.00,1.20
5489.00,1.20
5488.00,1.20
5487.00,1.20
5486.00,1.20
5485.00,1.20
5484.00,1.20
5483.00,1.20
5482.00,1.21
5481.00,1.21
5480.00,1.21
5479.00,1.21
5478.00,1.21
5477.00,1.21
5476.00,1.21
5475.00,1.21
5474.00,1.21
5473.00,1.22
5472.00,1.22
5471.00,1.22
5470.00,1.22
5469.00,1.22
5468.00,1.22
5467.00,1.22
5466.00,1.22
5465.00,1.23
5464.00,1.23
5463.00,1.23
5462.00,1.23
5461.00,1.23
5460.00,1.23
5459.00,1.23
5458.00,1.23
5457.00,1.24
5456.00,1.24
5455.00,1.24
5454.00,1.24
5453.00,1.24
5452.00,1.24
5451.00,1.24
5450.00,1.24
5449.00,1.24
5448.00,1.24
5447.00,1.24
5446.00,1.24
5445.00,1.24
5444.00,1.24
5443.00,1.24
5442.00,1.24
5441.00,1.24
5440.00,1.24
5439.00,1.24
5438.00,1.24
5437.00,1.24
5436.00,1.24
5435.00,1.24
5434.00,1.24
5433.00,1.24
5432.00,1.24
5431.00,1.24
5430.00,1.24
5429.00,1.24
5428.00,1.24
5427.00,1.24
5426.00,1.24
5425.00,1.24
5424.00,1.24
5423.00,1.24
5422.00,1.24
5421.00,1.24
5420.00,1.24
5419.00,1.24
5418.00,1.24
5417.00,1.24
5416.00,1.24
5415.00,1.24
5414.00,1.24
5413.00,1.24
5412.00,1.24
5411.00,1.24
5410.00,1.24
5409.00,1.24
5408.00,1.24
5407.00,1.24
5406.00,1.24
5405.00,1.24
5404.00,1.24
5403.00,1.24
5402.00,1.24
5401.00,1.24
5400.00,1.24
5399.00,1.24
5398.00,1.24
5397.00,1.24
5396.00,1.24
5395.00,1.24
5394.00,1.24
5393.00,1.23
5392.00,1.23
5391.00,1.23
5390.00,1.23
5389.00,1.23
5388.00,1.23
5387.00,1.23
5386.00,1.23
5385.00,1.22
5384.00,1.22
5383.00,1.22
5382.00,1.22
5381.00,1.22
5380.00,1.21
5379.00,1.21
5378.00,1.21
5377.00,1.21
5376.00,1.20
5375.00,1.20
5374.00,1.20
5373.00,1.19
5372.00,1.19
5371.00,1.19
5370.00,1.19
5369.00,1.18
5368.00,1.18
5367.00,1.18
5366.00,1.17
5365.00,1.17
5364.00,1.17
5363.00,1.17
5362.00,1.16
5361.00,1.16
5360.00,1.15
5359.00,1.15
5358.00,1.15
5357.00,1.14
5356.00,1.14
5355.00,1.13
5354.00,1.12
5353.00,1.12
5352.00,1.11
5351.00,1.10
5350.00,1.10
5349.00,1.09
5348.00,1.08
5347.00,1.08
5346.00,1.07
5345.00,1.06
5344.00,1.05
5343.00,1.05
5342.00,1.04
5341.00,1.03
5340.00,1.02
5339.00,1.01
5338.00,1.00
5337.00,1.00
5336.00,0.99
5335.00,0.98
5334.00,0.97
5333.00,0.96
5332.00,0.95
5331.00,0.95
5330.00,0.94
5329.00,0.93
5328.00,0.92
5327.00,0.91
5326.00,0.90
5325.00,0.90
5324.00,0.89
5323.00,0.88
5322.00,0.87
5321.00,0.86
5320.00,0.86
5319.00,0.85
5318.00,0.84
5317.00,0.83
5316.00,0.83
5315.00,0.82
5314.00,0.81
5313.00,0.81
5312.00,0.80
5311.00,0.79
5310.00,0.78
5309.00,0.78
5308.00,0.77
5307.00,0.77
5306.00,0.76
5305.00,0.75
5304.00,0.75
5303.00,0.74
5302.00,0.74
5301.00,0.73
5300.00,0.73
5299.00,0.72
5298.00,0.72
5297.00,0.72
5296.00,0.71
5295.00,0.71
5294.00,0.71
5293.00,0.71
5292.00,0.70
5291.00,0.70
5290.00,0.70
5289.00,0.70
5288.00,0.70
5287.00,0.70
5286.00,0.69
5285.00,0.69
5284.00,0.69
5283.00,0.69
5282.00,0.69
5281.00,0.69
5280.00,0.69
5279.00,0.69
5278.00,0.69
5277.00,0.69
5276.00,0.69
5275.00,0.68
5274.00,0.68
5273.00,0.68
5272.00,0.68
5271.00,0.68
5270.00,0.68
5269.00,0.68
5268.00,0.68
5267.00,0.68
5266.00,0.68
5265.00,0.68
5264.00,0.68
5263.00,0.68
5262.00,0.68
5261.00,0.68
5260.00,0.68
5259.00,0.68
5258.00,0.68
5257.00,0.68
5256.00,0.68
5255.00,0.68
5254.00,0.68
5253.00,0.68
5252.00,0.68
5251.00,0.68
5250.00,0.68
5249.00,0.68
5248.00,0.68
5247.00,0.68
5246.00,0.68
5245.00,0.68
5244.00,0.68
5243.00,0.68
5242.00,0.67
5241.00,0.67
5240.00,0.67
5239.00,0.67
5238.00,0.67
5237.00,0.67
5236.00,0.67
5235.00,0.67
5234.00,0.67
5233.00,0.67
5232.00,0.67
5231.00,0.67
5230.00,0.67
5229.00,0.67
5228.00,0.67
5227.00,0.67
5226.00,0.67
5225.00,0.67
5224.00,0.67
5223.00,0.67
5222.00,0.67
5221.00,0.67
5220.00,0.67
5219.00,0.68
5218.00,0.68
5217.00,0.68
5216.00,0.68
5215.00,0.68
5214.00,0.68
5213.00,0.68
5212.00,0.68
5211.00,0.68
5210.00,0.68
5209.00,0.68
5208.00,0.68
5207.00,0.68
5206.00,0.68
5205.00,0.68
5204.00,0.68
5203.00,0.68
5202.00,0.68
5201.00,0.68
5200.00,0.68
5199.00,0.68
5198.00,0.68
5197.00,0.68
5196.00,0.68
5195.00,0.68
5194.00,0.68
5193.00,0.68
5192.00,0.68
5191.00,0.68
5190.00,0.68
5189.00,0.68
5188.00,0.68
5187.00,0.68
5186.00,0.68
5185.00,0.68
5184.00,0.68
5183.00,0.68
5182.00,0.68
5181.00,0.68
5180.00,0.69
5179.00,0.69
5178.00,0.69
5177.00,0.69
5176.00,0.69
5175.00,0.69
5174.00,0.69
5173.00,0.69
5172.00,0.69
5171.00,0.69
5170.00,0.69
5169.00,0.69
5168.00,0.69
5167.00,0.69
5166.00,0.69
5165.00,0.69
5164.00,0.69
5163.00,0.69
5162.00,0.70
5161.00,0.70
5160.00,0.70
5159.00,0.70
5158.00,0.70
5157.00,0.70
5156.00,0.70
5155.00,0.70
5154.00,0.70
5153.00,0.70
5152.00,0.70
5151.00,0.70
5150.00,0.70
5149.00,0.70
5148.00,0.70
5147.00,0.70
5146.00,0.70
5145.00,0.70
5144.00,0.70
5143.00,0.70
5142.00,0.70
5141.00,0.70
5140.00,0.70
5139.00,0.70
5138.00,0.70
5137.00,0.70
5136.00,0.70
5135.00,0.70
5134.00,0.70
5133.00,0.70
5132.00,0.70
5131.00,0.70
5130.00,0.70
5129.00,0.70
5128.00,0.70
5127.00,0.70
5126.00,0.71
5125.00,0.71
5124.00,0.71
5123.00,0.71
5122.00,0.71
5121.00,0.71
5120.00,0.71
5119.00,0.71
5118.00,0.71
5117.00,0.71
5116.00,0.71
5115.00,0.72
5114.00,0.72
5113.00,0.72
5112.00,0.72
5111.00,0.72
5110.00,0.72
5109.00,0.72
5108.00,0.72
5107.00,0.72
5106.00,0.72
5105.00,0.72
5104.00,0.72
5103.00,0.72
5102.00,0.72
5101.00,0.72
5100.00,0.72
5099.00,0.72
5098.00,0.71
5097.00,0.71
5096.00,0.71
5095.00,0.71
5094.00,0.71
5093.00,0.71
5092.00,0.71
5091.00,0.71
5090.00,0.71
5089.00,0.71
5088.00,0.71
5087.00,0.71
5086.00,0.72
5085.00,0.72
5084.00,0.72
5083.00,0.72
5082.00,0.72
5081.00,0.72
5080.00,0.72
5079.00,0.72
5078.00,0.72
5077.00,0.72
5076.00,0.72
5075.00,0.72
5074.00,0.72
5073.00,0.72
5072.00,0.72
5071.00,0.72
5070.00,0.73
5069.00,0.73
5068.00,0.73
5067.00,0.73
5066.00,0.73
5065.00,0.73
5064.00,0.73
5063.00,0.73
5062.00,0.73
5061.00,0.74
5060.00,0.74
5059.00,0.74
5058.00,0.74
5057.00,0.74
5056.00,0.74
5055.00,0.74
5054.00,0.74
5053.00,0.74
5052.00,0.74
5051.00,0.74
5050.00,0.74
5049.00,0.74
5048.00,0.74
5047.00,0.74
5046.00,0.74
5045.00,0.74
5044.00,0.74
5043.00,0.74
5042.00,0.74
5041.00,0.74
5040.00,0.74
5039.00,0.74
5038.00,0.74
5037.00,0.74
5036.00,0.74
5035.00,0.74
5034.00,0.74
5033.00,0.74
5032.00,0.74
5031.00,0.74
5030.00,0.74
5029.00,0.74
5028.00,0.75
5027.00,0.75
5026.00,0.75
5025.00,0.75
5024.00,0.75
5023.00,0.75
5022.00,0.75
5021.00,0.75
5020.00,0.75
5019.00,0.75
5018.00,0.75
5017.00,0.75
5016.00,0.76
5015.00,0.76
5014.00,0.76
5013.00,0.76
5012.00,0.76
5011.00,0.76
5010.00,0.76
5009.00,0.76
5008.00,0.76
5007.00,0.77
5006.00,0.77
5005.00,0.77
5004.00,0.77
5003.00,0.77
5002.00,0.77
5001.00,0.77
5000.00,0.77
4999.00,0.78
4998.00,0.78
4997.00,0.78
4996.00,0.78
4995.00,0.78
4994.00,0.78
4993.00,0.78
4992.00,0.78
4991.00,0.78
4990.00,0.78
4989.00,0.78
4988.00,0.78
4987.00,0.78
4986.00,0.78
4985.00,0.78
4984.00,0.78
4983.00,0.78
4982.00,0.79
4981.00,0.79
4980.00,0.79
4979.00,0.79
4978.00,0.79
4977.00,0.79
4976.00,0.79
4975.00,0.79
4974.00,0.79
4973.00,0.79
4972.00,0.79
4971.00,0.79
4970.00,0.79
4969.00,0.79
4968.00,0.80
4967.00,0.80
4966.00,0.80
4965.00,0.80
4964.00,0.80
4963.00,0.80
4962.00,0.80
4961.00,0.80
4960.00,0.80
4959.00,0.80
4958.00,0.80
4957.00,0.80
4956.00,0.80
4955.00,0.80
4954.00,0.80
4953.00,0.80
4952.00,0.80
4951.00,0.80
4950.00,0.80
4949.00,0.80
4948.00,0.80
4947.00,0.80
4946.00,0.80
4945.00,0.80
4944.00,0.81
4943.00,0.81
4942.00,0.81
4941.00,0.81
4940.00,0.81
4939.00,0.81
4938.00,0.81
4937.00,0.81
4936.00,0.81
4935.00,0.81
4934.00,0.81
4933.00,0.81
4932.00,0.81
4931.00,0.81
4930.00,0.81
4929.00,0.81
4928.00,0.82
4927.00,0.82
4926.00,0.82
4925.00,0.82
4924.00,0.82
4923.00,0.82
4922.00,0.82
4921.00,0.82
4920.00,0.82
4919.00,0.82
4918.00,0.82
4917.00,0.82
4916.00,0.82
4915.00,0.82
4914.00,0.82
4913.00,0.82
4912.00,0.82
4911.00,0.82
4910.00,0.82
4909.00,0.82
4908.00,0.82
4907.00,0.82
4906.00,0.83
4905.00,0.83
4904.00,0.83
4903.00,0.83
4902.00,0.83
4901.00,0.83
4900.00,0.83
4899.00,0.83
4898.00,0.83
4897.00,0.83
4896.00,0.83
4895.00,0.83
4894.00,0.83
4893.00,0.83
4892.00,0.83
4891.00,0.83
4890.00,0.83
4889.00,0.84
4888.00,0.84
4887.00,0.84
4886.00,0.84
4885.00,0.84
4884.00,0.84
4883.00,0.84
4882.00,0.84
4881.00,0.84
4880.00,0.84
4879.00,0.84
4878.00,0.84
4877.00,0.84
4876.00,0.84
4875.00,0.84
4874.00,0.84
4873.00,0.84
4872.00,0.84
4871.00,0.84
4870.00,0.84
4869.00,0.85
4868.00,0.85
4867.00,0.85
4866.00,0.85
4865.00,0.85
4864.00,0.85
4863.00,0.85
4862.00,0.85
4861.00,0.85
4860.00,0.85
4859.00,0.85
4858.00,0.85
4857.00,0.85
4856.00,0.85
4855.00,0.85
4854.00,0.85
4853.00,0.85
4852.00,0.85
4851.00,0.86
4850.00,0.86
4849.00,0.86
4848.00,0.86
4847.00,0.86
4846.00,0.86
4845.00,0.86
4844.00,0.86
4843.00,0.86
4842.00,0.86
4841.00,0.86
4840.00,0.86
4839.00,0.86
4838.00,0.86
4837.00,0.86
4836.00,0.86
4835.00,0.86
4834.00,0.86
4833.00,0.86
4832.00,0.86
4831.00,0.86
4830.00,0.86
4829.00,0.86
4828.00,0.86
4827.00,0.86
4826.00,0.86
4825.00,0.86
4824.00,0.86
4823.00,0.86
4822.00,0.87
4821.00,0.87
4820.00,0.87
4819.00,0.87
4818.00,0.87
4817.00,0.87
4816.00,0.87
4815.00,0.87
4814.00,0.87
4813.00,0.88
4812.00,0.88
4811.00,0.88
4810.00,0.88
4809.00,0.88
4808.00,0.88
4807.00,0.88
4806.00,0.88
4805.00,0.89
4804.00,0.89
4803.00,0.89
4802.00,0.89
4801.00,0.89
4800.00,0.89
4799.00,0.89
4798.00,0.90
4797.00,0.90
4796.00,0.90
4795.00,0.90
4794.00,0.90
4793.00,0.90
4792.00,0.90
4791.00,0.90
4790.00,0.90
4789.00,0.91
4788.00,0.91
4787.00,0.91
4786.00,0.91
4785.00,0.91
4784.00,0.91
4783.00,0.91
4782.00,0.91
4781.00,0.91
4780.00,0.91
4779.00,0.91
4778.00,0.91
4777.00,0.91
4776.00,0.91
4775.00,0.91
4774.00,0.91
4773.00,0.91
4772.00,0.91
4771.00,0.92
4770.00,0.92
4769.00,0.92
4768.00,0.92
4767.00,0.92
4766.00,0.92
4765.00,0.92
4764.00,0.92
4763.00,0.93
4762.00,0.93
4761.00,0.93
4760.00,0.93
4759.00,0.93
4758.00,0.93
4757.00,0.94
4756.00,0.94
4755.00,0.94
4754.00,0.94
4753.00,0.94
4752.00,0.94
4751.00,0.95
4750.00,0.95
4749.00,0.95
4748.00,0.95
4747.00,0.95
4746.00,0.95
4745.00,0.95
4744.00,0.95
4743.00,0.95
4742.00,0.95
4741.00,0.96
4740.00,0.96
4739.00,0.96
4738.00,0.96
4737.00,0.96
4736.00,0.96
4735.00,0.96
4734.00,0.96
4733.00,0.96
4732.00,0.96
4731.00,0.96
4730.00,0.96
4729.00,0.96
4728.00,0.96
4727.00,0.96
4726.00,0.96
4725.00,0.96
4724.00,0.97
4723.00,0.97
4722.00,0.97
4721.00,0.97
4720.00,0.97
4719.00,0.98
4718.00,0.98
4717.00,0.98
4716.00,0.98
4715.00,0.98
4714.00,0.98
4713.00,0.99
4712.00,0.99
4711.00,0.99
4710.00,0.99
4709.00,0.99
4708.00,0.99
4707.00,0.99
4706.00,0.99
4705.00,0.99
4704.00,1.00
4703.00,1.00
4702.00,1.00
4701.00,1.00
4700.00,1.00
4699.00,1.00
4698.00,1.00
4697.00,1.00
4696.00,1.00
4695.00,1.00
4694.00,1.00
4693.00,1.00
4692.00,1.00
4691.00,1.01
4690.00,1.01
4689.00,1.01
4688.00,1.01
4687.00,1.01
4686.00,1.01
4685.00,1.01
4684.00,1.01
4683.00,1.02
4682.00,1.02
4681.00,1.02
4680.00,1.02
4679.00,1.02
4678.00,1.02
4677.00,1.03
4676.00,1.03
4675.00,1.03
4674.00,1.03
4673.00,1.03
4672.00,1.03
4671.00,1.03
4670.00,1.03
4669.00,1.03
4668.00,1.03
4667.00,1.04
4666.00,1.04
4665.00,1.04
4664.00,1.04
4663.00,1.04
4662.00,1.04
4661.00,1.04
4660.00,1.04
4659.00,1.04
4658.00,1.04
4657.00,1.04
4656.00,1.05
4655.00,1.05
4654.00,1.05
4653.00,1.05
4652.00,1.05
4651.00,1.05
4650.00,1.06
4649.00,1.06
4648.00,1.06
4647.00,1.06
4646.00,1.06
4645.00,1.06
4644.00,1.06
4643.00,1.07
4642.00,1.07
4641.00,1.07
4640.00,1.07
4639.00,1.07
4638.00,1.07
4637.00,1.07
4636.00,1.07
4635.00,1.07
4634.00,1.07
4633.00,1.07
4632.00,1.07
4631.00,1.08
4630.00,1.08
4629.00,1.08
4628.00,1.08
4627.00,1.08
4626.00,1.08
4625.00,1.08
4624.00,1.08
4623.00,1.08
4622.00,1.08
4621.00,1.08
4620.00,1.08
4619.00,1.08
4618.00,1.08
4617.00,1.08
4616.00,1.08
4615.00,1.08
4614.00,1.08
4613.00,1.08
4612.00,1.09
4611.00,1.09
4610.00,1.09
4609.00,1.09
4608.00,1.09
4607.00,1.09
4606.00,1.10
4605.00,1.10
4604.00,1.10
4603.00,1.10
4602.00,1.10
4601.00,1.10
4600.00,1.11
4599.00,1.11
4598.00,1.11
4597.00,1.11
4596.00,1.11
4595.00,1.11
4594.00,1.11
4593.00,1.11
4592.00,1.11
4591.00,1.11
4590.00,1.11
4589.00,1.11
4588.00,1.11
4587.00,1.11
4586.00,1.11
4585.00,1.11
4584.00,1.11
4583.00,1.11
4582.00,1.11
4581.00,1.11
4580.00,1.11
4579.00,1.11
4578.00,1.11
4577.00,1.11
4576.00,1.11
4575.00,1.11
4574.00,1.11
4573.00,1.11
4572.00,1.11
4571.00,1.12
4570.00,1.12
4569.00,1.12
4568.00,1.12
4567.00,1.12
4566.00,1.12
4565.00,1.12
4564.00,1.12
4563.00,1.12
4562.00,1.12
4561.00,1.12
4560.00,1.12
4559.00,1.12
4558.00,1.12
4557.00,1.13
4556.00,1.13
4555.00,1.13
4554.00,1.13
4553.00,1.13
4552.00,1.13
4551.00,1.13
4550.00,1.13
4549.00,1.14
4548.00,1.14
4547.00,1.14
4546.00,1.14
4545.00,1.14
4544.00,1.14
4543.00,1.15
4542.00,1.15
4541.00,1.15
4540.00,1.15
4539.00,1.15
4538.00,1.15
4537.00,1.15
4536.00,1.15
4535.00,1.15
4534.00,1.15
4533.00,1.15
4532.00,1.15
4531.00,1.15
4530.00,1.15
4529.00,1.15
4528.00,1.15
4527.00,1.15
4526.00,1.15
4525.00,1.15
4524.00,1.15
4523.00,1.15
4522.00,1.15
4521.00,1.15
4520.00,1.15
4519.00,1.15
4518.00,1.15
4517.00,1.15
4516.00,1.15
4515.00,1.15
4514.00,1.15
4513.00,1.15
4512.00,1.15
4511.00,1.15
4510.00,1.15
4509.00,1.15
4508.00,1.15
4507.00,1.15
4506.00,1.15
4505.00,1.15
4504.00,1.15
4503.00,1.15
4502.00,1.15
4501.00,1.15
4500.00,1.15
4499.00,1.15
4498.00,1.15
4497.00,1.15
4496.00,1.15
4495.00,1.15
4494.00,1.15
4493.00,1.15
4492.00,1.15
4491.00,1.15
4490.00,1.14
4489.00,1.14
4488.00,1.14
4487.00,1.14
4486.00,1.14
4485.00,1.14
4484.00,1.14
4483.00,1.14
4482.00,1.14
4481.00,1.14
4480.00,1.14
4479.00,1.14
4478.00,1.13
4477.00,1.13
4476.00,1.13
4475.00,1.13
4474.00,1.13
4473.00,1.13
4472.00,1.12
4471.00,1.12
4470.00,1.12
4469.00,1.12
4468.00,1.12
4467.00,1.11
4466.00,1.11
4465.00,1.11
4464.00,1.11
4463.00,1.11
4462.00,1.10
4461.00,1.10
4460.00,1.10
4459.00,1.10
4458.00,1.09
4457.00,1.09
4456.00,1.09
4455.00,1.09
4454.00,1.08
4453.00,1.08
4452.00,1.08
4451.00,1.08
4450.00,1.07
4449.00,1.07
4448.00,1.07
4447.00,1.07
4446.00,1.06
4445.00,1.06
4444.00,1.06
4443.00,1.06
4442.00,1.06
4441.00,1.05
4440.00,1.05
4439.00,1.05
4438.00,1.05
4437.00,1.05
4436.00,1.05
4435.00,1.04
4434.00,1.04
4433.00,1.04
4432.00,1.04
4431.00,1.03
4430.00,1.03
4429.00,1.03
4428.00,1.03
4427.00,1.03
4426.00,1.02
4425.00,1.02
4424.00,1.02
4423.00,1.02
4422.00,1.02
4421.00,1.02
4420.00,1.02
4419.00,1.01
4418.00,1.01
4417.00,1.01
4416.00,1.01
4415.00,1.01
4414.00,1.01
4413.00,1.01
4412.00,1.02
4411.00,1.02
4410.00,1.02
4409.00,1.02
4408.00,1.02
4407.00,1.02
4406.00,1.02
4405.00,1.02
4404.00,1.02
4403.00,1.03
4402.00,1.03
4401.00,1.03
4400.00,1.03
4399.00,1.03
4398.00,1.03
4397.00,1.03
4396.00,1.03
4395.00,1.03
4394.00,1.03
4393.00,1.03
4392.00,1.04
4391.00,1.04
4390.00,1.04
4389.00,1.04
4388.00,1.04
4387.00,1.04
4386.00,1.04
4385.00,1.04
4384.00,1.04
4383.00,1.04
4382.00,1.04
4381.00,1.04
4380.00,1.04
4379.00,1.04
4378.00,1.05
4377.00,1.05
4376.00,1.05
4375.00,1.05
4374.00,1.05
4373.00,1.05
4372.00,1.06
4371.00,1.06
4370.00,1.06
4369.00,1.06
4368.00,1.06
4367.00,1.06
4366.00,1.06
4365.00,1.06
4364.00,1.06
4363.00,1.06
4362.00,1.06
4361.00,1.06
4360.00,1.06
4359.00,1.06
4358.00,1.05
4357.00,1.05
4356.00,1.05
4355.00,1.05
4354.00,1.05
4353.00,1.05
4352.00,1.05
4351.00,1.05
4350.00,1.05
4349.00,1.05
4348.00,1.05
4347.00,1.05
4346.00,1.05
4345.00,1.05
4344.00,1.05
4343.00,1.05
4342.00,1.05
4341.00,1.05
4340.00,1.05
4339.00,1.05
4338.00,1.05
4337.00,1.05
4336.00,1.05
4335.00,1.05
4334.00,1.05
4333.00,1.05
4332.00,1.05
4331.00,1.05
4330.00,1.05
4329.00,1.05
4328.00,1.06
4327.00,1.06
4326.00,1.06
4325.00,1.06
4324.00,1.06
4323.00,1.06
4322.00,1.06
4321.00,1.06
4320.00,1.06
4319.00,1.06
4318.00,1.06
4317.00,1.06
4316.00,1.07
4315.00,1.07
4314.00,1.07
4313.00,1.07
4312.00,1.07
4311.00,1.07
4310.00,1.08
4309.00,1.08
4308.00,1.08
4307.00,1.08
4306.00,1.08
4305.00,1.08
4304.00,1.08
4303.00,1.08
4302.00,1.09
4301.00,1.09
4300.00,1.09
4299.00,1.09
4298.00,1.09
4297.00,1.09
4296.00,1.09
4295.00,1.09
4294.00,1.10
4293.00,1.10
4292.00,1.10
4291.00,1.10
4290.00,1.10
4289.00,1.10
4288.00,1.10
4287.00,1.10
4286.00,1.10
4285.00,1.10
4284.00,1.10
4283.00,1.10
4282.00,1.11
4281.00,1.11
4280.00,1.11
4279.00,1.11
4278.00,1.11
4277.00,1.10
4276.00,1.10
4275.00,1.10
4274.00,1.10
4273.00,1.10
4272.00,1.10
4271.00,1.10
4270.00,1.10
4269.00,1.10
4268.00,1.10
4267.00,1.10
4266.00,1.10
4265.00,1.10
4264.00,1.10
4263.00,1.10
4262.00,1.10
4261.00,1.10
4260.00,1.10
4259.00,1.10
4258.00,1.10
4257.00,1.10
4256.00,1.10
4255.00,1.10
4254.00,1.10
4253.00,1.10
4252.00,1.10
4251.00,1.10
4250.00,1.10
4249.00,1.10
4248.00,1.10
4247.00,1.10
4246.00,1.10
4245.00,1.10
4244.00,1.10
4243.00,1.11
4242.00,1.11
4241.00,1.11
4240.00,1.11
4239.00,1.11
4238.00,1.11
4237.00,1.11
4236.00,1.12
4235.00,1.12
4234.00,1.12
4233.00,1.12
4232.00,1.13
4231.00,1.13
4230.00,1.13
4229.00,1.14
4228.00,1.14
4227.00,1.14
4226.00,1.14
4225.00,1.15
4224.00,1.15
4223.00,1.15
4222.00,1.15
4221.00,1.15
4220.00,1.16
4219.00,1.16
4218.00,1.16
4217.00,1.16
4216.00,1.16
4215.00,1.16
4214.00,1.16
4213.00,1.16
4212.00,1.16
4211.00,1.16
4210.00,1.16
4209.00,1.16
4208.00,1.16
4207.00,1.16
4206.00,1.16
4205.00,1.16
4204.00,1.16
4203.00,1.16
4202.00,1.16
4201.00,1.16
4200.00,1.16
4199.00,1.16
4198.00,1.16
4197.00,1.16
4196.00,1.16
4195.00,1.16
4194.00,1.16
4193.00,1.16
4192.00,1.16
4191.00,1.16
4190.00,1.16
4189.00,1.16
4188.00,1.16
4187.00,1.16
4186.00,1.16
4185.00,1.16
4184.00,1.16
4183.00,1.16
4182.00,1.16
4181.00,1.15
4180.00,1.15
4179.00,1.15
4178.00,1.15
4177.00,1.15
4176.00,1.15
4175.00,1.15
4174.00,1.15
4173.00,1.15
4172.00,1.15
4171.00,1.15
4170.00,1.15
4169.00,1.15
4168.00,1.15
4167.00,1.15
4166.00,1.15
4165.00,1.16
4164.00,1.16
4163.00,1.16
4162.00,1.16
4161.00,1.16
4160.00,1.16
4159.00,1.16
4158.00,1.16
4157.00,1.16
4156.00,1.16
4155.00,1.16
4154.00,1.16
4153.00,1.16
4152.00,1.16
4151.00,1.16
4150.00,1.16
4149.00,1.16
4148.00,1.16
4147.00,1.16
4146.00,1.16
4145.00,1.16
4144.00,1.16
4143.00,1.16
4142.00,1.16
4141.00,1.16
4140.00,1.16
4139.00,1.16
4138.00,1.16
4137.00,1.16
4136.00,1.16
4135.00,1.16
4134.00,1.16
4133.00,1.16
4132.00,1.17
4131.00,1.17
4130.00,1.17
4129.00,1.17
4128.00,1.17
4127.00,1.18
4126.00,1.18
4125.00,1.18
4124.00,1.18
4123.00,1.18
4122.00,1.18
4121.00,1.19
4120.00,1.19
4119.00,1.19
4118.00,1.19
4117.00,1.19
4116.00,1.19
4115.00,1.19
4114.00,1.19
4113.00,1.19
4112.00,1.19
4111.00,1.19
4110.00,1.19
4109.00,1.19
4108.00,1.19
4107.00,1.19
4106.00,1.19
4105.00,1.19
4104.00,1.19
4103.00,1.19
4102.00,1.19
4101.00,1.19
4100.00,1.19
4099.00,1.19
4098.00,1.19
4097.00,1.19
4096.00,1.19
4095.00,1.19
4094.00,1.19
4093.00,1.19
4092.00,1.19
4091.00,1.19
4090.00,1.19
4089.00,1.19
4088.00,1.19
4087.00,1.19
4086.00,1.19
4085.00,1.19
4084.00,1.19
4083.00,1.19
4082.00,1.19
4081.00,1.19
4080.00,1.19
4079.00,1.19
4078.00,1.19
4077.00,1.19
4076.00,1.19
4075.00,1.19
4074.00,1.19
4073.00,1.18
4072.00,1.18
4071.00,1.18
4070.00,1.18
4069.00,1.18
4068.00,1.18
4067.00,1.18
4066.00,1.18
4065.00,1.18
4064.00,1.19
4063.00,1.19
4062.00,1.19
4061.00,1.19
4060.00,1.19
4059.00,1.19
4058.00,1.19
4057.00,1.20
4056.00,1.20
4055.00,1.20
4054.00,1.20
4053.00,1.21
4052.00,1.21
4051.00,1.21
4050.00,1.21
4049.00,1.22
4048.00,1.22
4047.00,1.22
4046.00,1.22
4045.00,1.22
4044.00,1.22
4043.00,1.22
4042.00,1.22
4041.00,1.22
4040.00,1.22
4039.00,1.22
4038.00,1.22
4037.00,1.21
4036.00,1.21
4035.00,1.21
4034.00,1.21
4033.00,1.21
4032.00,1.21
4031.00,1.21
4030.00,1.21
4029.00,1.22
4028.00,1.22
4027.00,1.22
4026.00,1.22
4025.00,1.22
4024.00,1.23
4023.00,1.23
4022.00,1.23
4021.00,1.23
4020.00,1.24
4019.00,1.24
4018.00,1.24
4017.00,1.24
4016.00,1.24
4015.00,1.24
4014.00,1.24
4013.00,1.24
4012.00,1.24
4011.00,1.24
4010.00,1.24
4009.00,1.24
4008.00,1.24
4007.00,1.24
4006.00,1.24
4005.00,1.24
4004.00,1.24
4003.00,1.24
4002.00,1.24
4001.00,1.24
4000.00,1.24
