创建为新数据集,样品 300 用户 Administrator 日期 星期三, 三月 07 2018
cm-1,%T
10000.00,1.56
9999.00,1.57
9998.00,1.57
9997.00,1.57
9996.00,1.57
9995.00,1.57
9994.00,1.57
9993.00,1.57
9992.00,1.57
9991.00,1.57
9990.00,1.57
9989.00,1.57
9988.00,1.57
9987.00,1.57
9986.00,1.57
9985.00,1.57
9984.00,1.57
9983.00,1.56
9982.00,1.56
9981.00,1.56
9980.00,1.56
9979.00,1.55
9978.00,1.55
9977.00,1.55
9976.00,1.55
9975.00,1.54
9974.00,1.54
9973.00,1.54
9972.00,1.54
9971.00,1.54
9970.00,1.54
9969.00,1.54
9968.00,1.54
9967.00,1.54
9966.00,1.55
9965.00,1.55
9964.00,1.55
9963.00,1.55
9962.00,1.56
9961.00,1.56
9960.00,1.56
9959.00,1.56
9958.00,1.56
9957.00,1.56
9956.00,1.56
9955.00,1.56
9954.00,1.56
9953.00,1.56
9952.00,1.56
9951.00,1.55
9950.00,1.55
9949.00,1.55
9948.00,1.54
9947.00,1.54
9946.00,1.53
9945.00,1.53
9944.00,1.53
9943.00,1.52
9942.00,1.52
9941.00,1.51
9940.00,1.51
9939.00,1.51
9938.00,1.51
9937.00,1.51
9936.00,1.50
9935.00,1.50
9934.00,1.50
9933.00,1.50
9932.00,1.51
9931.00,1.51
9930.00,1.51
9929.00,1.51
9928.00,1.51
9927.00,1.51
9926.00,1.51
9925.00,1.51
9924.00,1.52
9923.00,1.52
9922.00,1.52
9921.00,1.52
9920.00,1.52
9919.00,1.52
9918.00,1.52
9917.00,1.52
9916.00,1.52
9915.00,1.52
9914.00,1.52
9913.00,1.52
9912.00,1.52
9911.00,1.52
9910.00,1.52
9909.00,1.52
9908.00,1.53
9907.00,1.53
9906.00,1.53
9905.00,1.53
9904.00,1.53
9903.00,1.53
9902.00,1.53
9901.00,1.53
9900.00,1.53
9899.00,1.52
9898.00,1.52
9897.00,1.52
9896.00,1.52
9895.00,1.52
9894.00,1.52
9893.00,1.52
9892.00,1.52
9891.00,1.52
9890.00,1.51
9889.00,1.51
9888.00,1.51
9887.00,1.51
9886.00,1.51
9885.00,1.51
9884.00,1.51
9883.00,1.51
9882.00,1.51
9881.00,1.51
9880.00,1.51
9879.00,1.51
9878.00,1.51
9877.00,1.51
9876.00,1.52
9875.00,1.52
9874.00,1.52
9873.00,1.52
9872.00,1.52
9871.00,1.52
9870.00,1.53
9869.00,1.53
9868.00,1.53
9867.00,1.53
9866.00,1.53
9865.00,1.53
9864.00,1.54
9863.00,1.54
9862.00,1.54
9861.00,1.54
9860.00,1.54
9859.00,1.54
9858.00,1.54
9857.00,1.54
9856.00,1.54
9855.00,1.54
9854.00,1.54
9853.00,1.54
9852.00,1.54
9851.00,1.53
9850.00,1.53
9849.00,1.53
9848.00,1.53
9847.00,1.53
9846.00,1.53
9845.00,1.53
9844.00,1.54
9843.00,1.54
9842.00,1.54
9841.00,1.54
9840.00,1.54
9839.00,1.54
9838.00,1.53
9837.00,1.53
9836.00,1.53
9835.00,1.53
9834.00,1.53
9833.00,1.53
9832.00,1.53
9831.00,1.53
9830.00,1.52
9829.00,1.52
9828.00,1.52
9827.00,1.52
9826.00,1.52
9825.00,1.52
9824.00,1.52
9823.00,1.52
9822.00,1.52
9821.00,1.52
9820.00,1.51
9819.00,1.51
9818.00,1.51
9817.00,1.51
9816.00,1.51
9815.00,1.51
9814.00,1.51
9813.00,1.51
9812.00,1.51
9811.00,1.51
9810.00,1.51
9809.00,1.51
9808.00,1.51
9807.00,1.51
9806.00,1.51
9805.00,1.51
9804.00,1.51
9803.00,1.51
9802.00,1.51
9801.00,1.51
9800.00,1.51
9799.00,1.51
9798.00,1.51
9797.00,1.51
9796.00,1.51
9795.00,1.52
9794.00,1.52
9793.00,1.52
9792.00,1.52
9791.00,1.52
9790.00,1.52
9789.00,1.53
9788.00,1.53
9787.00,1.53
9786.00,1.53
9785.00,1.53
9784.00,1.53
9783.00,1.53
9782.00,1.53
9781.00,1.53
9780.00,1.53
9779.00,1.53
9778.00,1.53
9777.00,1.53
9776.00,1.53
9775.00,1.54
9774.00,1.54
9773.00,1.54
9772.00,1.54
9771.00,1.54
9770.00,1.54
9769.00,1.54
9768.00,1.54
9767.00,1.54
9766.00,1.54
9765.00,1.54
9764.00,1.54
9763.00,1.54
9762.00,1.54
9761.00,1.54
9760.00,1.54
9759.00,1.54
9758.00,1.54
9757.00,1.54
9756.00,1.54
9755.00,1.54
9754.00,1.55
9753.00,1.55
9752.00,1.55
9751.00,1.55
9750.00,1.55
9749.00,1.55
9748.00,1.55
9747.00,1.55
9746.00,1.55
9745.00,1.55
9744.00,1.55
9743.00,1.55
9742.00,1.55
9741.00,1.55
9740.00,1.55
9739.00,1.54
9738.00,1.54
9737.00,1.54
9736.00,1.54
9735.00,1.54
9734.00,1.54
9733.00,1.54
9732.00,1.54
9731.00,1.55
9730.00,1.55
9729.00,1.55
9728.00,1.55
9727.00,1.55
9726.00,1.55
9725.00,1.55
9724.00,1.55
9723.00,1.55
9722.00,1.55
9721.00,1.56
9720.00,1.56
9719.00,1.56
9718.00,1.56
9717.00,1.56
9716.00,1.55
9715.00,1.55
9714.00,1.55
9713.00,1.55
9712.00,1.55
9711.00,1.55
9710.00,1.55
9709.00,1.55
9708.00,1.55
9707.00,1.55
9706.00,1.55
9705.00,1.54
9704.00,1.54
9703.00,1.54
9702.00,1.54
9701.00,1.54
9700.00,1.54
9699.00,1.54
9698.00,1.54
9697.00,1.53
9696.00,1.53
9695.00,1.53
9694.00,1.53
9693.00,1.52
9692.00,1.52
9691.00,1.52
9690.00,1.52
9689.00,1.51
9688.00,1.51
9687.00,1.51
9686.00,1.51
9685.00,1.51
9684.00,1.51
9683.00,1.51
9682.00,1.51
9681.00,1.51
9680.00,1.51
9679.00,1.51
9678.00,1.51
9677.00,1.52
9676.00,1.52
9675.00,1.52
9674.00,1.53
9673.00,1.53
9672.00,1.53
9671.00,1.54
9670.00,1.54
9669.00,1.55
9668.00,1.55
9667.00,1.55
9666.00,1.56
9665.00,1.56
9664.00,1.56
9663.00,1.56
9662.00,1.56
9661.00,1.56
9660.00,1.56
9659.00,1.56
9658.00,1.56
9657.00,1.55
9656.00,1.55
9655.00,1.55
9654.00,1.55
9653.00,1.55
9652.00,1.54
9651.00,1.54
9650.00,1.54
9649.00,1.54
9648.00,1.54
9647.00,1.53
9646.00,1.53
9645.00,1.53
9644.00,1.53
9643.00,1.53
9642.00,1.52
9641.00,1.52
9640.00,1.52
9639.00,1.52
9638.00,1.51
9637.00,1.51
9636.00,1.51
9635.00,1.51
9634.00,1.50
9633.00,1.50
9632.00,1.50
9631.00,1.50
9630.00,1.50
9629.00,1.50
9628.00,1.50
9627.00,1.50
9626.00,1.50
9625.00,1.50
9624.00,1.51
9623.00,1.51
9622.00,1.51
9621.00,1.51
9620.00,1.51
9619.00,1.51
9618.00,1.51
9617.00,1.52
9616.00,1.52
9615.00,1.52
9614.00,1.52
9613.00,1.52
9612.00,1.52
9611.00,1.53
9610.00,1.53
9609.00,1.53
9608.00,1.53
9607.00,1.53
9606.00,1.53
9605.00,1.53
9604.00,1.53
9603.00,1.53
9602.00,1.53
9601.00,1.53
9600.00,1.53
9599.00,1.53
9598.00,1.53
9597.00,1.53
9596.00,1.54
9595.00,1.54
9594.00,1.54
9593.00,1.54
9592.00,1.54
9591.00,1.54
9590.00,1.54
9589.00,1.54
9588.00,1.54
9587.00,1.55
9586.00,1.55
9585.00,1.55
9584.00,1.55
9583.00,1.56
9582.00,1.56
9581.00,1.56
9580.00,1.56
9579.00,1.56
9578.00,1.56
9577.00,1.56
9576.00,1.56
9575.00,1.56
9574.00,1.56
9573.00,1.56
9572.00,1.56
9571.00,1.55
9570.00,1.55
9569.00,1.55
9568.00,1.54
9567.00,1.54
9566.00,1.54
9565.00,1.54
9564.00,1.53
9563.00,1.53
9562.00,1.53
9561.00,1.53
9560.00,1.53
9559.00,1.53
9558.00,1.53
9557.00,1.53
9556.00,1.53
9555.00,1.53
9554.00,1.54
9553.00,1.54
9552.00,1.54
9551.00,1.54
9550.00,1.54
9549.00,1.54
9548.00,1.54
9547.00,1.54
9546.00,1.54
9545.00,1.54
9544.00,1.54
9543.00,1.54
9542.00,1.54
9541.00,1.54
9540.00,1.54
9539.00,1.54
9538.00,1.54
9537.00,1.54
9536.00,1.54
9535.00,1.54
9534.00,1.54
9533.00,1.54
9532.00,1.54
9531.00,1.54
9530.00,1.54
9529.00,1.54
9528.00,1.53
9527.00,1.53
9526.00,1.53
9525.00,1.53
9524.00,1.52
9523.00,1.52
9522.00,1.52
9521.00,1.52
9520.00,1.52
9519.00,1.51
9518.00,1.51
9517.00,1.51
9516.00,1.51
9515.00,1.51
9514.00,1.51
9513.00,1.51
9512.00,1.51
9511.00,1.51
9510.00,1.51
9509.00,1.51
9508.00,1.51
9507.00,1.51
9506.00,1.52
9505.00,1.52
9504.00,1.52
9503.00,1.52
9502.00,1.52
9501.00,1.52
9500.00,1.52
9499.00,1.52
9498.00,1.52
9497.00,1.52
9496.00,1.52
9495.00,1.52
9494.00,1.52
9493.00,1.52
9492.00,1.52
9491.00,1.52
9490.00,1.52
9489.00,1.51
9488.00,1.51
9487.00,1.51
9486.00,1.51
9485.00,1.51
9484.00,1.51
9483.00,1.51
9482.00,1.51
9481.00,1.51
9480.00,1.51
9479.00,1.51
9478.00,1.51
9477.00,1.51
9476.00,1.51
9475.00,1.51
9474.00,1.51
9473.00,1.52
9472.00,1.52
9471.00,1.52
9470.00,1.52
9469.00,1.53
9468.00,1.53
9467.00,1.53
9466.00,1.53
9465.00,1.54
9464.00,1.54
9463.00,1.54
9462.00,1.55
9461.00,1.55
9460.00,1.55
9459.00,1.55
9458.00,1.55
9457.00,1.55
9456.00,1.55
9455.00,1.55
9454.00,1.55
9453.00,1.55
9452.00,1.55
9451.00,1.55
9450.00,1.54
9449.00,1.54
9448.00,1.53
9447.00,1.53
9446.00,1.53
9445.00,1.52
9444.00,1.52
9443.00,1.51
9442.00,1.51
9441.00,1.51
9440.00,1.50
9439.00,1.50
9438.00,1.50
9437.00,1.50
9436.00,1.50
9435.00,1.50
9434.00,1.51
9433.00,1.51
9432.00,1.51
9431.00,1.51
9430.00,1.52
9429.00,1.52
9428.00,1.52
9427.00,1.53
9426.00,1.53
9425.00,1.53
9424.00,1.53
9423.00,1.53
9422.00,1.54
9421.00,1.54
9420.00,1.53
9419.00,1.53
9418.00,1.53
9417.00,1.53
9416.00,1.53
9415.00,1.53
9414.00,1.53
9413.00,1.52
9412.00,1.52
9411.00,1.52
9410.00,1.52
9409.00,1.51
9408.00,1.51
9407.00,1.51
9406.00,1.51
9405.00,1.51
9404.00,1.51
9403.00,1.51
9402.00,1.51
9401.00,1.51
9400.00,1.51
9399.00,1.51
9398.00,1.51
9397.00,1.51
9396.00,1.51
9395.00,1.51
9394.00,1.51
9393.00,1.51
9392.00,1.52
9391.00,1.52
9390.00,1.52
9389.00,1.52
9388.00,1.52
9387.00,1.52
9386.00,1.52
9385.00,1.52
9384.00,1.52
9383.00,1.52
9382.00,1.52
9381.00,1.52
9380.00,1.51
9379.00,1.51
9378.00,1.51
9377.00,1.51
9376.00,1.51
9375.00,1.51
9374.00,1.51
9373.00,1.51
9372.00,1.51
9371.00,1.51
9370.00,1.51
9369.00,1.52
9368.00,1.52
9367.00,1.52
9366.00,1.52
9365.00,1.52
9364.00,1.52
9363.00,1.53
9362.00,1.53
9361.00,1.53
9360.00,1.53
9359.00,1.53
9358.00,1.53
9357.00,1.53
9356.00,1.54
9355.00,1.54
9354.00,1.54
9353.00,1.54
9352.00,1.54
9351.00,1.54
9350.00,1.54
9349.00,1.54
9348.00,1.54
9347.00,1.54
9346.00,1.54
9345.00,1.54
9344.00,1.54
9343.00,1.54
9342.00,1.55
9341.00,1.55
9340.00,1.55
9339.00,1.55
9338.00,1.55
9337.00,1.55
9336.00,1.55
9335.00,1.55
9334.00,1.55
9333.00,1.55
9332.00,1.55
9331.00,1.55
9330.00,1.56
9329.00,1.56
9328.00,1.56
9327.00,1.56
9326.00,1.56
9325.00,1.56
9324.00,1.56
9323.00,1.56
9322.00,1.56
9321.00,1.56
9320.00,1.56
9319.00,1.56
9318.00,1.56
9317.00,1.56
9316.00,1.56
9315.00,1.56
9314.00,1.55
9313.00,1.55
9312.00,1.55
9311.00,1.55
9310.00,1.55
9309.00,1.55
9308.00,1.54
9307.00,1.54
9306.00,1.54
9305.00,1.54
9304.00,1.54
9303.00,1.53
9302.00,1.53
9301.00,1.53
9300.00,1.53
9299.00,1.53
9298.00,1.53
9297.00,1.53
9296.00,1.53
9295.00,1.53
9294.00,1.52
9293.00,1.52
9292.00,1.52
9291.00,1.52
9290.00,1.52
9289.00,1.52
9288.00,1.52
9287.00,1.52
9286.00,1.52
9285.00,1.52
9284.00,1.53
9283.00,1.53
9282.00,1.53
9281.00,1.53
9280.00,1.53
9279.00,1.53
9278.00,1.53
9277.00,1.53
9276.00,1.53
9275.00,1.53
9274.00,1.53
9273.00,1.53
9272.00,1.53
9271.00,1.53
9270.00,1.53
9269.00,1.53
9268.00,1.53
9267.00,1.53
9266.00,1.53
9265.00,1.53
9264.00,1.53
9263.00,1.53
9262.00,1.53
9261.00,1.53
9260.00,1.53
9259.00,1.53
9258.00,1.53
9257.00,1.53
9256.00,1.53
9255.00,1.53
9254.00,1.53
9253.00,1.52
9252.00,1.52
9251.00,1.52
9250.00,1.52
9249.00,1.52
9248.00,1.52
9247.00,1.52
9246.00,1.52
9245.00,1.52
9244.00,1.52
9243.00,1.52
9242.00,1.52
9241.00,1.52
9240.00,1.52
9239.00,1.52
9238.00,1.52
9237.00,1.52
9236.00,1.52
9235.00,1.53
9234.00,1.53
9233.00,1.53
9232.00,1.53
9231.00,1.54
9230.00,1.54
9229.00,1.54
9228.00,1.54
9227.00,1.54
9226.00,1.55
9225.00,1.55
9224.00,1.55
9223.00,1.55
9222.00,1.55
9221.00,1.55
9220.00,1.55
9219.00,1.54
9218.00,1.54
9217.00,1.54
9216.00,1.54
9215.00,1.54
9214.00,1.53
9213.00,1.53
9212.00,1.53
9211.00,1.53
9210.00,1.53
9209.00,1.52
9208.00,1.52
9207.00,1.52
9206.00,1.52
9205.00,1.52
9204.00,1.52
9203.00,1.52
9202.00,1.52
9201.00,1.52
9200.00,1.52
9199.00,1.52
9198.00,1.53
9197.00,1.53
9196.00,1.53
9195.00,1.53
9194.00,1.53
9193.00,1.53
9192.00,1.54
9191.00,1.54
9190.00,1.54
9189.00,1.54
9188.00,1.54
9187.00,1.54
9186.00,1.54
9185.00,1.54
9184.00,1.54
9183.00,1.54
9182.00,1.54
9181.00,1.54
9180.00,1.54
9179.00,1.54
9178.00,1.54
9177.00,1.54
9176.00,1.54
9175.00,1.54
9174.00,1.54
9173.00,1.54
9172.00,1.54
9171.00,1.54
9170.00,1.54
9169.00,1.54
9168.00,1.54
9167.00,1.54
9166.00,1.53
9165.00,1.53
9164.00,1.53
9163.00,1.53
9162.00,1.53
9161.00,1.52
9160.00,1.52
9159.00,1.52
9158.00,1.52
9157.00,1.52
9156.00,1.51
9155.00,1.51
9154.00,1.51
9153.00,1.51
9152.00,1.51
9151.00,1.51
9150.00,1.51
9149.00,1.51
9148.00,1.51
9147.00,1.51
9146.00,1.52
9145.00,1.52
9144.00,1.52
9143.00,1.52
9142.00,1.53
9141.00,1.53
9140.00,1.53
9139.00,1.54
9138.00,1.54
9137.00,1.54
9136.00,1.55
9135.00,1.55
9134.00,1.55
9133.00,1.55
9132.00,1.56
9131.00,1.56
9130.00,1.56
9129.00,1.56
9128.00,1.56
9127.00,1.56
9126.00,1.56
9125.00,1.56
9124.00,1.56
9123.00,1.56
9122.00,1.56
9121.00,1.56
9120.00,1.56
9119.00,1.55
9118.00,1.55
9117.00,1.55
9116.00,1.55
9115.00,1.55
9114.00,1.55
9113.00,1.55
9112.00,1.55
9111.00,1.55
9110.00,1.55
9109.00,1.55
9108.00,1.55
9107.00,1.55
9106.00,1.55
9105.00,1.55
9104.00,1.55
9103.00,1.55
9102.00,1.55
9101.00,1.55
9100.00,1.55
9099.00,1.55
9098.00,1.55
9097.00,1.54
9096.00,1.54
9095.00,1.54
9094.00,1.54
9093.00,1.54
9092.00,1.54
9091.00,1.54
9090.00,1.54
9089.00,1.53
9088.00,1.53
9087.00,1.53
9086.00,1.53
9085.00,1.53
9084.00,1.53
9083.00,1.53
9082.00,1.54
9081.00,1.54
9080.00,1.54
9079.00,1.54
9078.00,1.54
9077.00,1.54
9076.00,1.54
9075.00,1.54
9074.00,1.54
9073.00,1.54
9072.00,1.54
9071.00,1.54
9070.00,1.54
9069.00,1.54
9068.00,1.54
9067.00,1.54
9066.00,1.54
9065.00,1.54
9064.00,1.55
9063.00,1.55
9062.00,1.55
9061.00,1.55
9060.00,1.55
9059.00,1.55
9058.00,1.55
9057.00,1.55
9056.00,1.55
9055.00,1.55
9054.00,1.56
9053.00,1.56
9052.00,1.56
9051.00,1.56
9050.00,1.55
9049.00,1.55
9048.00,1.55
9047.00,1.55
9046.00,1.55
9045.00,1.55
9044.00,1.55
9043.00,1.54
9042.00,1.54
9041.00,1.54
9040.00,1.54
9039.00,1.54
9038.00,1.54
9037.00,1.53
9036.00,1.53
9035.00,1.53
9034.00,1.53
9033.00,1.53
9032.00,1.53
9031.00,1.53
9030.00,1.53
9029.00,1.53
9028.00,1.53
9027.00,1.53
9026.00,1.53
9025.00,1.53
9024.00,1.53
9023.00,1.53
9022.00,1.53
9021.00,1.53
9020.00,1.53
9019.00,1.54
9018.00,1.54
9017.00,1.54
9016.00,1.54
9015.00,1.54
9014.00,1.54
9013.00,1.54
9012.00,1.54
9011.00,1.54
9010.00,1.54
9009.00,1.54
9008.00,1.54
9007.00,1.54
9006.00,1.54
9005.00,1.54
9004.00,1.54
9003.00,1.54
9002.00,1.54
9001.00,1.54
9000.00,1.54
8999.00,1.54
8998.00,1.54
8997.00,1.54
8996.00,1.54
8995.00,1.54
8994.00,1.55
8993.00,1.55
8992.00,1.55
8991.00,1.55
8990.00,1.55
8989.00,1.55
8988.00,1.55
8987.00,1.55
8986.00,1.55
8985.00,1.55
8984.00,1.55
8983.00,1.55
8982.00,1.55
8981.00,1.56
8980.00,1.56
8979.00,1.56
8978.00,1.56
8977.00,1.56
8976.00,1.56
8975.00,1.56
8974.00,1.56
8973.00,1.57
8972.00,1.57
8971.00,1.57
8970.00,1.57
8969.00,1.57
8968.00,1.57
8967.00,1.56
8966.00,1.56
8965.00,1.56
8964.00,1.56
8963.00,1.56
8962.00,1.56
8961.00,1.55
8960.00,1.55
8959.00,1.55
8958.00,1.55
8957.00,1.55
8956.00,1.55
8955.00,1.55
8954.00,1.55
8953.00,1.54
8952.00,1.54
8951.00,1.54
8950.00,1.54
8949.00,1.54
8948.00,1.54
8947.00,1.54
8946.00,1.54
8945.00,1.55
8944.00,1.55
8943.00,1.55
8942.00,1.54
8941.00,1.54
8940.00,1.54
8939.00,1.54
8938.00,1.54
8937.00,1.54
8936.00,1.54
8935.00,1.54
8934.00,1.54
8933.00,1.54
8932.00,1.54
8931.00,1.54
8930.00,1.54
8929.00,1.54
8928.00,1.54
8927.00,1.54
8926.00,1.54
8925.00,1.54
8924.00,1.55
8923.00,1.55
8922.00,1.55
8921.00,1.55
8920.00,1.55
8919.00,1.55
8918.00,1.55
8917.00,1.55
8916.00,1.55
8915.00,1.55
8914.00,1.55
8913.00,1.55
8912.00,1.55
8911.00,1.55
8910.00,1.55
8909.00,1.55
8908.00,1.55
8907.00,1.55
8906.00,1.55
8905.00,1.55
8904.00,1.55
8903.00,1.55
8902.00,1.54
8901.00,1.54
8900.00,1.54
8899.00,1.54
8898.00,1.54
8897.00,1.54
8896.00,1.54
8895.00,1.53
8894.00,1.53
8893.00,1.53
8892.00,1.53
8891.00,1.53
8890.00,1.54
8889.00,1.54
8888.00,1.54
8887.00,1.54
8886.00,1.54
8885.00,1.54
8884.00,1.54
8883.00,1.54
8882.00,1.54
8881.00,1.54
8880.00,1.54
8879.00,1.54
8878.00,1.54
8877.00,1.54
8876.00,1.54
8875.00,1.54
8874.00,1.54
8873.00,1.54
8872.00,1.54
8871.00,1.54
8870.00,1.54
8869.00,1.54
8868.00,1.54
8867.00,1.54
8866.00,1.54
8865.00,1.53
8864.00,1.53
8863.00,1.53
8862.00,1.53
8861.00,1.53
8860.00,1.54
8859.00,1.54
8858.00,1.54
8857.00,1.54
8856.00,1.54
8855.00,1.54
8854.00,1.54
8853.00,1.54
8852.00,1.54
8851.00,1.54
8850.00,1.54
8849.00,1.54
8848.00,1.54
8847.00,1.54
8846.00,1.54
8845.00,1.54
8844.00,1.54
8843.00,1.54
8842.00,1.54
8841.00,1.54
8840.00,1.54
8839.00,1.54
8838.00,1.54
8837.00,1.54
8836.00,1.54
8835.00,1.54
8834.00,1.54
8833.00,1.54
8832.00,1.54
8831.00,1.54
8830.00,1.53
8829.00,1.53
8828.00,1.53
8827.00,1.53
8826.00,1.53
8825.00,1.52
8824.00,1.52
8823.00,1.52
8822.00,1.52
8821.00,1.52
8820.00,1.52
8819.00,1.51
8818.00,1.51
8817.00,1.51
8816.00,1.51
8815.00,1.51
8814.00,1.51
8813.00,1.51
8812.00,1.51
8811.00,1.51
8810.00,1.51
8809.00,1.51
8808.00,1.51
8807.00,1.51
8806.00,1.51
8805.00,1.51
8804.00,1.51
8803.00,1.51
8802.00,1.51
8801.00,1.51
8800.00,1.50
8799.00,1.50
8798.00,1.50
8797.00,1.50
8796.00,1.50
8795.00,1.50
8794.00,1.50
8793.00,1.50
8792.00,1.50
8791.00,1.50
8790.00,1.49
8789.00,1.49
8788.00,1.49
8787.00,1.49
8786.00,1.49
8785.00,1.49
8784.00,1.49
8783.00,1.48
8782.00,1.48
8781.00,1.48
8780.00,1.48
8779.00,1.48
8778.00,1.48
8777.00,1.48
8776.00,1.48
8775.00,1.48
8774.00,1.48
8773.00,1.48
8772.00,1.47
8771.00,1.47
8770.00,1.47
8769.00,1.47
8768.00,1.48
8767.00,1.48
8766.00,1.48
8765.00,1.48
8764.00,1.48
8763.00,1.48
8762.00,1.48
8761.00,1.48
8760.00,1.48
8759.00,1.48
8758.00,1.48
8757.00,1.48
8756.00,1.48
8755.00,1.48
8754.00,1.48
8753.00,1.48
8752.00,1.47
8751.00,1.47
8750.00,1.47
8749.00,1.47
8748.00,1.47
8747.00,1.47
8746.00,1.47
8745.00,1.46
8744.00,1.46
8743.00,1.46
8742.00,1.46
8741.00,1.46
8740.00,1.46
8739.00,1.46
8738.00,1.46
8737.00,1.46
8736.00,1.46
8735.00,1.46
8734.00,1.46
8733.00,1.46
8732.00,1.46
8731.00,1.46
8730.00,1.47
8729.00,1.47
8728.00,1.47
8727.00,1.47
8726.00,1.47
8725.00,1.47
8724.00,1.47
8723.00,1.47
8722.00,1.46
8721.00,1.46
8720.00,1.46
8719.00,1.46
8718.00,1.46
8717.00,1.46
8716.00,1.46
8715.00,1.45
8714.00,1.45
8713.00,1.45
8712.00,1.45
8711.00,1.45
8710.00,1.46
8709.00,1.46
8708.00,1.46
8707.00,1.46
8706.00,1.46
8705.00,1.46
8704.00,1.47
8703.00,1.47
8702.00,1.47
8701.00,1.47
8700.00,1.47
8699.00,1.47
8698.00,1.48
8697.00,1.48
8696.00,1.48
8695.00,1.48
8694.00,1.48
8693.00,1.48
8692.00,1.48
8691.00,1.48
8690.00,1.49
8689.00,1.49
8688.00,1.49
8687.00,1.49
8686.00,1.49
8685.00,1.49
8684.00,1.49
8683.00,1.49
8682.00,1.49
8681.00,1.49
8680.00,1.49
8679.00,1.49
8678.00,1.49
8677.00,1.49
8676.00,1.48
8675.00,1.48
8674.00,1.48
8673.00,1.48
8672.00,1.48
8671.00,1.47
8670.00,1.47
8669.00,1.47
8668.00,1.47
8667.00,1.46
8666.00,1.46
8665.00,1.46
8664.00,1.46
8663.00,1.45
8662.00,1.45
8661.00,1.45
8660.00,1.45
8659.00,1.44
8658.00,1.44
8657.00,1.44
8656.00,1.44
8655.00,1.44
8654.00,1.44
8653.00,1.44
8652.00,1.44
8651.00,1.44
8650.00,1.44
8649.00,1.44
8648.00,1.44
8647.00,1.44
8646.00,1.45
8645.00,1.45
8644.00,1.45
8643.00,1.45
8642.00,1.45
8641.00,1.45
8640.00,1.45
8639.00,1.45
8638.00,1.45
8637.00,1.45
8636.00,1.45
8635.00,1.44
8634.00,1.44
8633.00,1.44
8632.00,1.44
8631.00,1.44
8630.00,1.44
8629.00,1.44
8628.00,1.44
8627.00,1.44
8626.00,1.43
8625.00,1.43
8624.00,1.43
8623.00,1.43
8622.00,1.43
8621.00,1.42
8620.00,1.42
8619.00,1.42
8618.00,1.42
8617.00,1.42
8616.00,1.42
8615.00,1.41
8614.00,1.41
8613.00,1.41
8612.00,1.41
8611.00,1.41
8610.00,1.42
8609.00,1.42
8608.00,1.42
8607.00,1.42
8606.00,1.42
8605.00,1.42
8604.00,1.42
8603.00,1.42
8602.00,1.43
8601.00,1.43
8600.00,1.43
8599.00,1.43
8598.00,1.43
8597.00,1.43
8596.00,1.43
8595.00,1.43
8594.00,1.42
8593.00,1.42
8592.00,1.42
8591.00,1.42
8590.00,1.42
8589.00,1.42
8588.00,1.42
8587.00,1.42
8586.00,1.42
8585.00,1.42
8584.00,1.42
8583.00,1.42
8582.00,1.42
8581.00,1.41
8580.00,1.41
8579.00,1.41
8578.00,1.41
8577.00,1.41
8576.00,1.41
8575.00,1.41
8574.00,1.41
8573.00,1.41
8572.00,1.41
8571.00,1.41
8570.00,1.41
8569.00,1.41
8568.00,1.41
8567.00,1.41
8566.00,1.41
8565.00,1.41
8564.00,1.41
8563.00,1.41
8562.00,1.41
8561.00,1.41
8560.00,1.42
8559.00,1.42
8558.00,1.42
8557.00,1.42
8556.00,1.42
8555.00,1.42
8554.00,1.42
8553.00,1.42
8552.00,1.42
8551.00,1.42
8550.00,1.42
8549.00,1.41
8548.00,1.41
8547.00,1.41
8546.00,1.41
8545.00,1.41
8544.00,1.41
8543.00,1.41
8542.00,1.41
8541.00,1.41
8540.00,1.40
8539.00,1.40
8538.00,1.40
8537.00,1.40
8536.00,1.40
8535.00,1.39
8534.00,1.39
8533.00,1.39
8532.00,1.39
8531.00,1.39
8530.00,1.38
8529.00,1.38
8528.00,1.38
8527.00,1.38
8526.00,1.38
8525.00,1.38
8524.00,1.38
8523.00,1.38
8522.00,1.38
8521.00,1.38
8520.00,1.38
8519.00,1.38
8518.00,1.38
8517.00,1.38
8516.00,1.38
8515.00,1.39
8514.00,1.39
8513.00,1.39
8512.00,1.38
8511.00,1.38
8510.00,1.38
8509.00,1.38
8508.00,1.38
8507.00,1.38
8506.00,1.37
8505.00,1.37
8504.00,1.37
8503.00,1.37
8502.00,1.36
8501.00,1.36
8500.00,1.36
8499.00,1.36
8498.00,1.36
8497.00,1.36
8496.00,1.36
8495.00,1.36
8494.00,1.36
8493.00,1.36
8492.00,1.36
8491.00,1.36
8490.00,1.36
8489.00,1.36
8488.00,1.36
8487.00,1.36
8486.00,1.36
8485.00,1.36
8484.00,1.36
8483.00,1.37
8482.00,1.37
8481.00,1.37
8480.00,1.37
8479.00,1.36
8478.00,1.36
8477.00,1.36
8476.00,1.36
8475.00,1.36
8474.00,1.36
8473.00,1.35
8472.00,1.35
8471.00,1.35
8470.00,1.35
8469.00,1.35
8468.00,1.35
8467.00,1.34
8466.00,1.34
8465.00,1.34
8464.00,1.34
8463.00,1.34
8462.00,1.34
8461.00,1.34
8460.00,1.34
8459.00,1.34
8458.00,1.34
8457.00,1.34
8456.00,1.34
8455.00,1.34
8454.00,1.34
8453.00,1.34
8452.00,1.34
8451.00,1.34
8450.00,1.34
8449.00,1.34
8448.00,1.34
8447.00,1.34
8446.00,1.34
8445.00,1.34
8444.00,1.33
8443.00,1.33
8442.00,1.33
8441.00,1.33
8440.00,1.33
8439.00,1.33
8438.00,1.33
8437.00,1.33
8436.00,1.33
8435.00,1.32
8434.00,1.32
8433.00,1.32
8432.00,1.32
8431.00,1.32
8430.00,1.32
8429.00,1.32
8428.00,1.32
8427.00,1.32
8426.00,1.32
8425.00,1.32
8424.00,1.32
8423.00,1.32
8422.00,1.32
8421.00,1.32
8420.00,1.31
8419.00,1.31
8418.00,1.31
8417.00,1.31
8416.00,1.31
8415.00,1.31
8414.00,1.31
8413.00,1.31
8412.00,1.31
8411.00,1.31
8410.00,1.31
8409.00,1.31
8408.00,1.31
8407.00,1.31
8406.00,1.31
8405.00,1.32
8404.00,1.32
8403.00,1.32
8402.00,1.33
8401.00,1.33
8400.00,1.34
8399.00,1.34
8398.00,1.35
8397.00,1.35
8396.00,1.35
8395.00,1.36
8394.00,1.36
8393.00,1.37
8392.00,1.37
8391.00,1.37
8390.00,1.38
8389.00,1.38
8388.00,1.38
8387.00,1.38
8386.00,1.38
8385.00,1.38
8384.00,1.38
8383.00,1.38
8382.00,1.38
8381.00,1.38
8380.00,1.38
8379.00,1.38
8378.00,1.38
8377.00,1.38
8376.00,1.38
8375.00,1.38
8374.00,1.38
8373.00,1.38
8372.00,1.38
8371.00,1.38
8370.00,1.38
8369.00,1.38
8368.00,1.38
8367.00,1.38
8366.00,1.38
8365.00,1.38
8364.00,1.38
8363.00,1.38
8362.00,1.38
8361.00,1.38
8360.00,1.38
8359.00,1.38
8358.00,1.38
8357.00,1.39
8356.00,1.39
8355.00,1.39
8354.00,1.39
8353.00,1.39
8352.00,1.38
8351.00,1.38
8350.00,1.38
8349.00,1.38
8348.00,1.38
8347.00,1.38
8346.00,1.38
8345.00,1.38
8344.00,1.38
8343.00,1.38
8342.00,1.37
8341.00,1.37
8340.00,1.37
8339.00,1.37
8338.00,1.37
8337.00,1.37
8336.00,1.37
8335.00,1.37
8334.00,1.37
8333.00,1.37
8332.00,1.37
8331.00,1.37
8330.00,1.37
8329.00,1.37
8328.00,1.37
8327.00,1.38
8326.00,1.38
8325.00,1.38
8324.00,1.38
8323.00,1.38
8322.00,1.38
8321.00,1.39
8320.00,1.39
8319.00,1.39
8318.00,1.39
8317.00,1.39
8316.00,1.40
8315.00,1.40
8314.00,1.40
8313.00,1.40
8312.00,1.40
8311.00,1.40
8310.00,1.40
8309.00,1.40
8308.00,1.40
8307.00,1.39
8306.00,1.39
8305.00,1.39
8304.00,1.39
8303.00,1.39
8302.00,1.39
8301.00,1.39
8300.00,1.39
8299.00,1.39
8298.00,1.38
8297.00,1.38
8296.00,1.38
8295.00,1.38
8294.00,1.38
8293.00,1.38
8292.00,1.38
8291.00,1.38
8290.00,1.39
8289.00,1.39
8288.00,1.39
8287.00,1.39
8286.00,1.39
8285.00,1.39
8284.00,1.39
8283.00,1.39
8282.00,1.39
8281.00,1.39
8280.00,1.39
8279.00,1.39
8278.00,1.39
8277.00,1.40
8276.00,1.40
8275.00,1.40
8274.00,1.40
8273.00,1.40
8272.00,1.40
8271.00,1.40
8270.00,1.40
8269.00,1.40
8268.00,1.40
8267.00,1.40
8266.00,1.40
8265.00,1.40
8264.00,1.40
8263.00,1.40
8262.00,1.40
8261.00,1.40
8260.00,1.41
8259.00,1.41
8258.00,1.40
8257.00,1.40
8256.00,1.40
8255.00,1.40
8254.00,1.40
8253.00,1.40
8252.00,1.40
8251.00,1.40
8250.00,1.40
8249.00,1.40
8248.00,1.40
8247.00,1.40
8246.00,1.40
8245.00,1.40
8244.00,1.41
8243.00,1.41
8242.00,1.41
8241.00,1.41
8240.00,1.41
8239.00,1.41
8238.00,1.41
8237.00,1.41
8236.00,1.42
8235.00,1.42
8234.00,1.42
8233.00,1.42
8232.00,1.42
8231.00,1.42
8230.00,1.43
8229.00,1.43
8228.00,1.43
8227.00,1.43
8226.00,1.43
8225.00,1.43
8224.00,1.43
8223.00,1.43
8222.00,1.43
8221.00,1.43
8220.00,1.43
8219.00,1.43
8218.00,1.43
8217.00,1.43
8216.00,1.44
8215.00,1.44
8214.00,1.44
8213.00,1.44
8212.00,1.44
8211.00,1.44
8210.00,1.44
8209.00,1.44
8208.00,1.44
8207.00,1.44
8206.00,1.44
8205.00,1.43
8204.00,1.43
8203.00,1.43
8202.00,1.43
8201.00,1.43
8200.00,1.43
8199.00,1.43
8198.00,1.43
8197.00,1.42
8196.00,1.42
8195.00,1.42
8194.00,1.42
8193.00,1.42
8192.00,1.42
8191.00,1.42
8190.00,1.42
8189.00,1.42
8188.00,1.42
8187.00,1.42
8186.00,1.42
8185.00,1.42
8184.00,1.42
8183.00,1.42
8182.00,1.42
8181.00,1.42
8180.00,1.42
8179.00,1.42
8178.00,1.42
8177.00,1.42
8176.00,1.42
8175.00,1.42
8174.00,1.43
8173.00,1.43
8172.00,1.43
8171.00,1.43
8170.00,1.43
8169.00,1.43
8168.00,1.43
8167.00,1.44
8166.00,1.44
8165.00,1.44
8164.00,1.44
8163.00,1.44
8162.00,1.44
8161.00,1.44
8160.00,1.44
8159.00,1.44
8158.00,1.44
8157.00,1.44
8156.00,1.44
8155.00,1.44
8154.00,1.44
8153.00,1.45
8152.00,1.45
8151.00,1.45
8150.00,1.45
8149.00,1.45
8148.00,1.45
8147.00,1.45
8146.00,1.45
8145.00,1.45
8144.00,1.45
8143.00,1.45
8142.00,1.45
8141.00,1.45
8140.00,1.45
8139.00,1.45
8138.00,1.45
8137.00,1.45
8136.00,1.45
8135.00,1.45
8134.00,1.45
8133.00,1.45
8132.00,1.45
8131.00,1.45
8130.00,1.45
8129.00,1.45
8128.00,1.46
8127.00,1.46
8126.00,1.46
8125.00,1.46
8124.00,1.46
8123.00,1.46
8122.00,1.46
8121.00,1.46
8120.00,1.46
8119.00,1.46
8118.00,1.46
8117.00,1.46
8116.00,1.47
8115.00,1.47
8114.00,1.47
8113.00,1.47
8112.00,1.47
8111.00,1.47
8110.00,1.47
8109.00,1.48
8108.00,1.48
8107.00,1.48
8106.00,1.48
8105.00,1.48
8104.00,1.49
8103.00,1.49
8102.00,1.49
8101.00,1.49
8100.00,1.49
8099.00,1.49
8098.00,1.50
8097.00,1.50
8096.00,1.50
8095.00,1.50
8094.00,1.50
8093.00,1.50
8092.00,1.50
8091.00,1.50
8090.00,1.50
8089.00,1.50
8088.00,1.50
8087.00,1.50
8086.00,1.49
8085.00,1.49
8084.00,1.49
8083.00,1.49
8082.00,1.49
8081.00,1.48
8080.00,1.48
8079.00,1.48
8078.00,1.48
8077.00,1.47
8076.00,1.47
8075.00,1.47
8074.00,1.47
8073.00,1.47
8072.00,1.47
8071.00,1.47
8070.00,1.47
8069.00,1.47
8068.00,1.47
8067.00,1.47
8066.00,1.47
8065.00,1.47
8064.00,1.47
8063.00,1.47
8062.00,1.47
8061.00,1.48
8060.00,1.48
8059.00,1.48
8058.00,1.48
8057.00,1.48
8056.00,1.48
8055.00,1.48
8054.00,1.48
8053.00,1.48
8052.00,1.48
8051.00,1.48
8050.00,1.48
8049.00,1.48
8048.00,1.48
8047.00,1.48
8046.00,1.48
8045.00,1.48
8044.00,1.48
8043.00,1.48
8042.00,1.49
8041.00,1.49
8040.00,1.49
8039.00,1.49
8038.00,1.49
8037.00,1.49
8036.00,1.49
8035.00,1.49
8034.00,1.49
8033.00,1.49
8032.00,1.49
8031.00,1.49
8030.00,1.49
8029.00,1.49
8028.00,1.49
8027.00,1.49
8026.00,1.49
8025.00,1.49
8024.00,1.49
8023.00,1.50
8022.00,1.50
8021.00,1.50
8020.00,1.50
8019.00,1.50
8018.00,1.50
8017.00,1.50
8016.00,1.50
8015.00,1.50
8014.00,1.50
8013.00,1.50
8012.00,1.51
8011.00,1.51
8010.00,1.51
8009.00,1.51
8008.00,1.51
8007.00,1.51
8006.00,1.51
8005.00,1.51
8004.00,1.51
8003.00,1.51
8002.00,1.51
8001.00,1.51
8000.00,1.51
7999.00,1.51
7998.00,1.51
7997.00,1.51
7996.00,1.51
7995.00,1.51
7994.00,1.51
7993.00,1.51
7992.00,1.51
7991.00,1.51
7990.00,1.51
7989.00,1.51
7988.00,1.51
7987.00,1.51
7986.00,1.51
7985.00,1.51
7984.00,1.51
7983.00,1.51
7982.00,1.51
7981.00,1.51
7980.00,1.51
7979.00,1.51
7978.00,1.51
7977.00,1.51
7976.00,1.51
7975.00,1.51
7974.00,1.51
7973.00,1.50
7972.00,1.50
7971.00,1.50
7970.00,1.50
7969.00,1.50
7968.00,1.50
7967.00,1.50
7966.00,1.50
7965.00,1.50
7964.00,1.50
7963.00,1.50
7962.00,1.51
7961.00,1.51
7960.00,1.51
7959.00,1.51
7958.00,1.51
7957.00,1.51
7956.00,1.52
7955.00,1.52
7954.00,1.52
7953.00,1.52
7952.00,1.52
7951.00,1.52
7950.00,1.52
7949.00,1.52
7948.00,1.53
7947.00,1.53
7946.00,1.53
7945.00,1.53
7944.00,1.53
7943.00,1.53
7942.00,1.53
7941.00,1.53
7940.00,1.53
7939.00,1.53
7938.00,1.53
7937.00,1.53
7936.00,1.53
7935.00,1.53
7934.00,1.53
7933.00,1.53
7932.00,1.53
7931.00,1.53
7930.00,1.53
7929.00,1.53
7928.00,1.53
7927.00,1.53
7926.00,1.52
7925.00,1.52
7924.00,1.52
7923.00,1.52
7922.00,1.52
7921.00,1.52
7920.00,1.52
7919.00,1.52
7918.00,1.52
7917.00,1.52
7916.00,1.52
7915.00,1.52
7914.00,1.52
7913.00,1.52
7912.00,1.52
7911.00,1.52
7910.00,1.52
7909.00,1.52
7908.00,1.52
7907.00,1.52
7906.00,1.53
7905.00,1.53
7904.00,1.53
7903.00,1.53
7902.00,1.53
7901.00,1.53
7900.00,1.53
7899.00,1.53
7898.00,1.53
7897.00,1.53
7896.00,1.53
7895.00,1.53
7894.00,1.53
7893.00,1.53
7892.00,1.53
7891.00,1.53
7890.00,1.53
7889.00,1.53
7888.00,1.53
7887.00,1.53
7886.00,1.53
7885.00,1.54
7884.00,1.54
7883.00,1.54
7882.00,1.54
7881.00,1.54
7880.00,1.54
7879.00,1.54
7878.00,1.54
7877.00,1.55
7876.00,1.55
7875.00,1.55
7874.00,1.55
7873.00,1.55
7872.00,1.55
7871.00,1.55
7870.00,1.54
7869.00,1.54
7868.00,1.54
7867.00,1.54
7866.00,1.54
7865.00,1.54
7864.00,1.54
7863.00,1.54
7862.00,1.54
7861.00,1.54
7860.00,1.54
7859.00,1.53
7858.00,1.53
7857.00,1.53
7856.00,1.53
7855.00,1.53
7854.00,1.53
7853.00,1.54
7852.00,1.54
7851.00,1.54
7850.00,1.54
7849.00,1.54
7848.00,1.54
7847.00,1.54
7846.00,1.54
7845.00,1.54
7844.00,1.54
7843.00,1.54
7842.00,1.54
7841.00,1.54
7840.00,1.54
7839.00,1.54
7838.00,1.54
7837.00,1.54
7836.00,1.54
7835.00,1.54
7834.00,1.54
7833.00,1.54
7832.00,1.54
7831.00,1.54
7830.00,1.54
7829.00,1.54
7828.00,1.54
7827.00,1.55
7826.00,1.55
7825.00,1.55
7824.00,1.55
7823.00,1.55
7822.00,1.55
7821.00,1.55
7820.00,1.55
7819.00,1.55
7818.00,1.55
7817.00,1.55
7816.00,1.55
7815.00,1.55
7814.00,1.55
7813.00,1.55
7812.00,1.55
7811.00,1.55
7810.00,1.54
7809.00,1.54
7808.00,1.55
7807.00,1.55
7806.00,1.55
7805.00,1.55
7804.00,1.55
7803.00,1.55
7802.00,1.55
7801.00,1.55
7800.00,1.55
7799.00,1.55
7798.00,1.55
7797.00,1.55
7796.00,1.55
7795.00,1.55
7794.00,1.56
7793.00,1.56
7792.00,1.56
7791.00,1.56
7790.00,1.56
7789.00,1.56
7788.00,1.56
7787.00,1.56
7786.00,1.56
7785.00,1.56
7784.00,1.56
7783.00,1.56
7782.00,1.56
7781.00,1.56
7780.00,1.56
7779.00,1.56
7778.00,1.56
7777.00,1.56
7776.00,1.56
7775.00,1.56
7774.00,1.56
7773.00,1.56
7772.00,1.56
7771.00,1.56
7770.00,1.56
7769.00,1.56
7768.00,1.56
7767.00,1.56
7766.00,1.56
7765.00,1.56
7764.00,1.56
7763.00,1.56
7762.00,1.56
7761.00,1.56
7760.00,1.56
7759.00,1.56
7758.00,1.56
7757.00,1.56
7756.00,1.55
7755.00,1.55
7754.00,1.55
7753.00,1.55
7752.00,1.55
7751.00,1.55
7750.00,1.55
7749.00,1.55
7748.00,1.55
7747.00,1.55
7746.00,1.55
7745.00,1.55
7744.00,1.55
7743.00,1.55
7742.00,1.56
7741.00,1.56
7740.00,1.56
7739.00,1.56
7738.00,1.56
7737.00,1.56
7736.00,1.56
7735.00,1.56
7734.00,1.56
7733.00,1.56
7732.00,1.56
7731.00,1.56
7730.00,1.56
7729.00,1.56
7728.00,1.56
7727.00,1.56
7726.00,1.56
7725.00,1.56
7724.00,1.56
7723.00,1.56
7722.00,1.56
7721.00,1.56
7720.00,1.56
7719.00,1.56
7718.00,1.56
7717.00,1.56
7716.00,1.56
7715.00,1.56
7714.00,1.56
7713.00,1.56
7712.00,1.56
7711.00,1.56
7710.00,1.56
7709.00,1.56
7708.00,1.56
7707.00,1.56
7706.00,1.55
7705.00,1.55
7704.00,1.55
7703.00,1.55
7702.00,1.55
7701.00,1.55
7700.00,1.55
7699.00,1.55
7698.00,1.55
7697.00,1.55
7696.00,1.54
7695.00,1.54
7694.00,1.54
7693.00,1.54
7692.00,1.54
7691.00,1.54
7690.00,1.54
7689.00,1.54
7688.00,1.54
7687.00,1.54
7686.00,1.54
7685.00,1.55
7684.00,1.55
7683.00,1.55
7682.00,1.55
7681.00,1.55
7680.00,1.55
7679.00,1.55
7678.00,1.55
7677.00,1.55
7676.00,1.55
7675.00,1.55
7674.00,1.55
7673.00,1.55
7672.00,1.55
7671.00,1.55
7670.00,1.56
7669.00,1.56
7668.00,1.56
7667.00,1.56
7666.00,1.56
7665.00,1.56
7664.00,1.56
7663.00,1.56
7662.00,1.56
7661.00,1.57
7660.00,1.57
7659.00,1.57
7658.00,1.57
7657.00,1.57
7656.00,1.57
7655.00,1.57
7654.00,1.57
7653.00,1.57
7652.00,1.57
7651.00,1.57
7650.00,1.57
7649.00,1.57
7648.00,1.57
7647.00,1.56
7646.00,1.56
7645.00,1.56
7644.00,1.56
7643.00,1.56
7642.00,1.56
7641.00,1.56
7640.00,1.56
7639.00,1.56
7638.00,1.56
7637.00,1.56
7636.00,1.56
7635.00,1.56
7634.00,1.56
7633.00,1.56
7632.00,1.56
7631.00,1.56
7630.00,1.56
7629.00,1.56
7628.00,1.56
7627.00,1.56
7626.00,1.56
7625.00,1.56
7624.00,1.56
7623.00,1.56
7622.00,1.56
7621.00,1.56
7620.00,1.56
7619.00,1.56
7618.00,1.56
7617.00,1.56
7616.00,1.56
7615.00,1.56
7614.00,1.56
7613.00,1.56
7612.00,1.56
7611.00,1.56
7610.00,1.56
7609.00,1.56
7608.00,1.56
7607.00,1.56
7606.00,1.56
7605.00,1.56
7604.00,1.55
7603.00,1.55
7602.00,1.55
7601.00,1.55
7600.00,1.55
7599.00,1.55
7598.00,1.55
7597.00,1.55
7596.00,1.55
7595.00,1.55
7594.00,1.55
7593.00,1.55
7592.00,1.55
7591.00,1.55
7590.00,1.55
7589.00,1.55
7588.00,1.55
7587.00,1.55
7586.00,1.55
7585.00,1.55
7584.00,1.55
7583.00,1.55
7582.00,1.55
7581.00,1.56
7580.00,1.56
7579.00,1.56
7578.00,1.56
7577.00,1.56
7576.00,1.56
7575.00,1.56
7574.00,1.56
7573.00,1.56
7572.00,1.56
7571.00,1.56
7570.00,1.56
7569.00,1.56
7568.00,1.56
7567.00,1.56
7566.00,1.56
7565.00,1.56
7564.00,1.56
7563.00,1.56
7562.00,1.56
7561.00,1.56
7560.00,1.56
7559.00,1.56
7558.00,1.56
7557.00,1.56
7556.00,1.56
7555.00,1.56
7554.00,1.56
7553.00,1.55
7552.00,1.55
7551.00,1.55
7550.00,1.55
7549.00,1.55
7548.00,1.55
7547.00,1.55
7546.00,1.55
7545.00,1.55
7544.00,1.55
7543.00,1.55
7542.00,1.55
7541.00,1.55
7540.00,1.55
7539.00,1.55
7538.00,1.55
7537.00,1.55
7536.00,1.55
7535.00,1.55
7534.00,1.55
7533.00,1.55
7532.00,1.55
7531.00,1.55
7530.00,1.55
7529.00,1.55
7528.00,1.55
7527.00,1.55
7526.00,1.55
7525.00,1.55
7524.00,1.55
7523.00,1.55
7522.00,1.55
7521.00,1.55
7520.00,1.55
7519.00,1.55
7518.00,1.55
7517.00,1.55
7516.00,1.55
7515.00,1.55
7514.00,1.55
7513.00,1.55
7512.00,1.55
7511.00,1.55
7510.00,1.55
7509.00,1.55
7508.00,1.55
7507.00,1.55
7506.00,1.55
7505.00,1.55
7504.00,1.55
7503.00,1.54
7502.00,1.54
7501.00,1.54
7500.00,1.54
7499.00,1.54
7498.00,1.54
7497.00,1.54
7496.00,1.54
7495.00,1.53
7494.00,1.53
7493.00,1.53
7492.00,1.53
7491.00,1.53
7490.00,1.53
7489.00,1.53
7488.00,1.53
7487.00,1.52
7486.00,1.52
7485.00,1.52
7484.00,1.52
7483.00,1.52
7482.00,1.52
7481.00,1.52
7480.00,1.52
7479.00,1.52
7478.00,1.52
7477.00,1.52
7476.00,1.52
7475.00,1.52
7474.00,1.52
7473.00,1.52
7472.00,1.52
7471.00,1.52
7470.00,1.52
7469.00,1.52
7468.00,1.51
7467.00,1.51
7466.00,1.51
7465.00,1.51
7464.00,1.51
7463.00,1.51
7462.00,1.51
7461.00,1.51
7460.00,1.51
7459.00,1.51
7458.00,1.50
7457.00,1.50
7456.00,1.50
7455.00,1.50
7454.00,1.50
7453.00,1.50
7452.00,1.50
7451.00,1.49
7450.00,1.49
7449.00,1.49
7448.00,1.49
7447.00,1.49
7446.00,1.49
7445.00,1.49
7444.00,1.49
7443.00,1.49
7442.00,1.49
7441.00,1.49
7440.00,1.49
7439.00,1.49
7438.00,1.49
7437.00,1.49
7436.00,1.49
7435.00,1.49
7434.00,1.49
7433.00,1.49
7432.00,1.49
7431.00,1.49
7430.00,1.48
7429.00,1.48
7428.00,1.48
7427.00,1.48
7426.00,1.48
7425.00,1.48
7424.00,1.48
7423.00,1.48
7422.00,1.48
7421.00,1.48
7420.00,1.48
7419.00,1.48
7418.00,1.47
7417.00,1.47
7416.00,1.47
7415.00,1.47
7414.00,1.47
7413.00,1.47
7412.00,1.47
7411.00,1.47
7410.00,1.47
7409.00,1.46
7408.00,1.46
7407.00,1.46
7406.00,1.46
7405.00,1.46
7404.00,1.46
7403.00,1.46
7402.00,1.46
7401.00,1.46
7400.00,1.46
7399.00,1.45
7398.00,1.45
7397.00,1.45
7396.00,1.45
7395.00,1.45
7394.00,1.45
7393.00,1.45
7392.00,1.44
7391.00,1.44
7390.00,1.44
7389.00,1.44
7388.00,1.44
7387.00,1.44
7386.00,1.43
7385.00,1.43
7384.00,1.43
7383.00,1.43
7382.00,1.43
7381.00,1.43
7380.00,1.43
7379.00,1.43
7378.00,1.43
7377.00,1.43
7376.00,1.43
7375.00,1.43
7374.00,1.42
7373.00,1.42
7372.00,1.42
7371.00,1.42
7370.00,1.42
7369.00,1.42
7368.00,1.42
7367.00,1.42
7366.00,1.42
7365.00,1.42
7364.00,1.42
7363.00,1.41
7362.00,1.41
7361.00,1.41
7360.00,1.41
7359.00,1.41
7358.00,1.41
7357.00,1.41
7356.00,1.41
7355.00,1.41
7354.00,1.41
7353.00,1.41
7352.00,1.41
7351.00,1.41
7350.00,1.41
7349.00,1.41
7348.00,1.41
7347.00,1.41
7346.00,1.41
7345.00,1.41
7344.00,1.42
7343.00,1.42
7342.00,1.42
7341.00,1.42
7340.00,1.42
7339.00,1.42
7338.00,1.41
7337.00,1.41
7336.00,1.41
7335.00,1.41
7334.00,1.41
7333.00,1.41
7332.00,1.41
7331.00,1.41
7330.00,1.41
7329.00,1.40
7328.00,1.40
7327.00,1.40
7326.00,1.40
7325.00,1.40
7324.00,1.40
7323.00,1.40
7322.00,1.40
7321.00,1.40
7320.00,1.40
7319.00,1.40
7318.00,1.39
7317.00,1.39
7316.00,1.39
7315.00,1.39
7314.00,1.39
7313.00,1.39
7312.00,1.39
7311.00,1.39
7310.00,1.39
7309.00,1.39
7308.00,1.39
7307.00,1.39
7306.00,1.39
7305.00,1.39
7304.00,1.38
7303.00,1.38
7302.00,1.38
7301.00,1.38
7300.00,1.38
7299.00,1.38
7298.00,1.38
7297.00,1.38
7296.00,1.38
7295.00,1.38
7294.00,1.37
7293.00,1.37
7292.00,1.37
7291.00,1.37
7290.00,1.37
7289.00,1.37
7288.00,1.37
7287.00,1.36
7286.00,1.36
7285.00,1.36
7284.00,1.36
7283.00,1.36
7282.00,1.36
7281.00,1.36
7280.00,1.36
7279.00,1.36
7278.00,1.36
7277.00,1.35
7276.00,1.35
7275.00,1.35
7274.00,1.35
7273.00,1.35
7272.00,1.35
7271.00,1.34
7270.00,1.34
7269.00,1.34
7268.00,1.34
7267.00,1.34
7266.00,1.33
7265.00,1.33
7264.00,1.33
7263.00,1.33
7262.00,1.33
7261.00,1.33
7260.00,1.32
7259.00,1.32
7258.00,1.32
7257.00,1.32
7256.00,1.32
7255.00,1.32
7254.00,1.31
7253.00,1.31
7252.00,1.31
7251.00,1.31
7250.00,1.31
7249.00,1.30
7248.00,1.30
7247.00,1.30
7246.00,1.30
7245.00,1.30
7244.00,1.29
7243.00,1.29
7242.00,1.29
7241.00,1.29
7240.00,1.28
7239.00,1.28
7238.00,1.28
7237.00,1.28
7236.00,1.27
7235.00,1.27
7234.00,1.27
7233.00,1.26
7232.00,1.26
7231.00,1.25
7230.00,1.25
7229.00,1.24
7228.00,1.24
7227.00,1.23
7226.00,1.23
7225.00,1.22
7224.00,1.22
7223.00,1.21
7222.00,1.21
7221.00,1.20
7220.00,1.20
7219.00,1.19
7218.00,1.19
7217.00,1.18
7216.00,1.18
7215.00,1.17
7214.00,1.17
7213.00,1.17
7212.00,1.16
7211.00,1.16
7210.00,1.16
7209.00,1.15
7208.00,1.15
7207.00,1.14
7206.00,1.14
7205.00,1.14
7204.00,1.13
7203.00,1.13
7202.00,1.13
7201.00,1.12
7200.00,1.12
7199.00,1.11
7198.00,1.11
7197.00,1.11
7196.00,1.10
7195.00,1.10
7194.00,1.09
7193.00,1.09
7192.00,1.08
7191.00,1.08
7190.00,1.08
7189.00,1.07
7188.00,1.07
7187.00,1.07
7186.00,1.06
7185.00,1.06
7184.00,1.05
7183.00,1.05
7182.00,1.05
7181.00,1.04
7180.00,1.04
7179.00,1.04
7178.00,1.03
7177.00,1.03
7176.00,1.03
7175.00,1.02
7174.00,1.02
7173.00,1.02
7172.00,1.01
7171.00,1.01
7170.00,1.01
7169.00,1.01
7168.00,1.00
7167.00,1.00
7166.00,1.00
7165.00,0.99
7164.00,0.99
7163.00,0.99
7162.00,0.99
7161.00,0.98
7160.00,0.98
7159.00,0.98
7158.00,0.97
7157.00,0.97
7156.00,0.97
7155.00,0.97
7154.00,0.96
7153.00,0.96
7152.00,0.96
7151.00,0.95
7150.00,0.95
7149.00,0.95
7148.00,0.94
7147.00,0.94
7146.00,0.94
7145.00,0.94
7144.00,0.93
7143.00,0.93
7142.00,0.93
7141.00,0.92
7140.00,0.92
7139.00,0.92
7138.00,0.92
7137.00,0.91
7136.00,0.91
7135.00,0.90
7134.00,0.90
7133.00,0.90
7132.00,0.89
7131.00,0.89
7130.00,0.89
7129.00,0.88
7128.00,0.88
7127.00,0.88
7126.00,0.88
7125.00,0.87
7124.00,0.87
7123.00,0.87
7122.00,0.86
7121.00,0.86
7120.00,0.86
7119.00,0.86
7118.00,0.85
7117.00,0.85
7116.00,0.85
7115.00,0.84
7114.00,0.84
7113.00,0.84
7112.00,0.83
7111.00,0.83
7110.00,0.83
7109.00,0.83
7108.00,0.82
7107.00,0.82
7106.00,0.82
7105.00,0.81
7104.00,0.81
7103.00,0.81
7102.00,0.81
7101.00,0.81
7100.00,0.80
7099.00,0.80
7098.00,0.80
7097.00,0.80
7096.00,0.79
7095.00,0.79
7094.00,0.79
7093.00,0.79
7092.00,0.79
7091.00,0.78
7090.00,0.78
7089.00,0.78
7088.00,0.78
7087.00,0.78
7086.00,0.78
7085.00,0.77
7084.00,0.77
7083.00,0.77
7082.00,0.77
7081.00,0.77
7080.00,0.77
7079.00,0.77
7078.00,0.77
7077.00,0.76
7076.00,0.76
7075.00,0.76
7074.00,0.76
7073.00,0.76
7072.00,0.75
7071.00,0.75
7070.00,0.75
7069.00,0.75
7068.00,0.75
7067.00,0.74
7066.00,0.74
7065.00,0.74
7064.00,0.74
7063.00,0.74
7062.00,0.73
7061.00,0.73
7060.00,0.73
7059.00,0.73
7058.00,0.73
7057.00,0.73
7056.00,0.73
7055.00,0.72
7054.00,0.72
7053.00,0.72
7052.00,0.72
7051.00,0.71
7050.00,0.71
7049.00,0.71
7048.00,0.71
7047.00,0.70
7046.00,0.70
7045.00,0.70
7044.00,0.69
7043.00,0.69
7042.00,0.69
7041.00,0.69
7040.00,0.68
7039.00,0.68
7038.00,0.68
7037.00,0.68
7036.00,0.68
7035.00,0.68
7034.00,0.67
7033.00,0.67
7032.00,0.67
7031.00,0.67
7030.00,0.67
7029.00,0.67
7028.00,0.67
7027.00,0.67
7026.00,0.67
7025.00,0.67
7024.00,0.67
7023.00,0.67
7022.00,0.67
7021.00,0.67
7020.00,0.66
7019.00,0.66
7018.00,0.66
7017.00,0.66
7016.00,0.66
7015.00,0.66
7014.00,0.66
7013.00,0.65
7012.00,0.65
7011.00,0.65
7010.00,0.65
7009.00,0.65
7008.00,0.65
7007.00,0.65
7006.00,0.65
7005.00,0.65
7004.00,0.65
7003.00,0.65
7002.00,0.64
7001.00,0.64
7000.00,0.64
6999.00,0.64
6998.00,0.64
6997.00,0.64
6996.00,0.64
6995.00,0.64
6994.00,0.64
6993.00,0.64
6992.00,0.64
6991.00,0.64
6990.00,0.64
6989.00,0.64
6988.00,0.64
6987.00,0.65
6986.00,0.65
6985.00,0.65
6984.00,0.65
6983.00,0.65
6982.00,0.65
6981.00,0.64
6980.00,0.64
6979.00,0.64
6978.00,0.64
6977.00,0.64
6976.00,0.64
6975.00,0.64
6974.00,0.64
6973.00,0.64
6972.00,0.63
6971.00,0.63
6970.00,0.63
6969.00,0.63
6968.00,0.63
6967.00,0.62
6966.00,0.62
6965.00,0.62
6964.00,0.62
6963.00,0.62
6962.00,0.62
6961.00,0.62
6960.00,0.62
6959.00,0.62
6958.00,0.62
6957.00,0.61
6956.00,0.61
6955.00,0.61
6954.00,0.61
6953.00,0.61
6952.00,0.61
6951.00,0.61
6950.00,0.61
6949.00,0.61
6948.00,0.61
6947.00,0.61
6946.00,0.61
6945.00,0.61
6944.00,0.61
6943.00,0.61
6942.00,0.61
6941.00,0.61
6940.00,0.61
6939.00,0.61
6938.00,0.61
6937.00,0.61
6936.00,0.61
6935.00,0.61
6934.00,0.61
6933.00,0.60
6932.00,0.60
6931.00,0.60
6930.00,0.60
6929.00,0.60
6928.00,0.60
6927.00,0.60
6926.00,0.60
6925.00,0.60
6924.00,0.60
6923.00,0.60
6922.00,0.60
6921.00,0.60
6920.00,0.60
6919.00,0.60
6918.00,0.60
6917.00,0.60
6916.00,0.60
6915.00,0.60
6914.00,0.60
6913.00,0.60
6912.00,0.60
6911.00,0.60
6910.00,0.60
6909.00,0.60
6908.00,0.60
6907.00,0.60
6906.00,0.60
6905.00,0.60
6904.00,0.59
6903.00,0.59
6902.00,0.59
6901.00,0.59
6900.00,0.59
6899.00,0.59
6898.00,0.59
6897.00,0.59
6896.00,0.59
6895.00,0.59
6894.00,0.59
6893.00,0.59
6892.00,0.59
6891.00,0.59
6890.00,0.59
6889.00,0.59
6888.00,0.60
6887.00,0.60
6886.00,0.60
6885.00,0.60
6884.00,0.60
6883.00,0.60
6882.00,0.60
6881.00,0.60
6880.00,0.60
6879.00,0.60
6878.00,0.60
6877.00,0.60
6876.00,0.60
6875.00,0.60
6874.00,0.60
6873.00,0.60
6872.00,0.60
6871.00,0.60
6870.00,0.60
6869.00,0.60
6868.00,0.59
6867.00,0.59
6866.00,0.59
6865.00,0.59
6864.00,0.59
6863.00,0.59
6862.00,0.59
6861.00,0.59
6860.00,0.59
6859.00,0.59
6858.00,0.59
6857.00,0.59
6856.00,0.59
6855.00,0.59
6854.00,0.59
6853.00,0.59
6852.00,0.59
6851.00,0.59
6850.00,0.59
6849.00,0.59
6848.00,0.59
6847.00,0.59
6846.00,0.59
6845.00,0.59
6844.00,0.59
6843.00,0.59
6842.00,0.59
6841.00,0.59
6840.00,0.59
6839.00,0.59
6838.00,0.59
6837.00,0.59
6836.00,0.59
6835.00,0.59
6834.00,0.59
6833.00,0.60
6832.00,0.60
6831.00,0.60
6830.00,0.60
6829.00,0.60
6828.00,0.60
6827.00,0.60
6826.00,0.60
6825.00,0.60
6824.00,0.60
6823.00,0.60
6822.00,0.60
6821.00,0.60
6820.00,0.60
6819.00,0.60
6818.00,0.60
6817.00,0.60
6816.00,0.60
6815.00,0.59
6814.00,0.59
6813.00,0.59
6812.00,0.59
6811.00,0.59
6810.00,0.60
6809.00,0.60
6808.00,0.60
6807.00,0.60
6806.00,0.60
6805.00,0.60
6804.00,0.60
6803.00,0.60
6802.00,0.60
6801.00,0.61
6800.00,0.61
6799.00,0.61
6798.00,0.61
6797.00,0.61
6796.00,0.61
6795.00,0.61
6794.00,0.61
6793.00,0.61
6792.00,0.62
6791.00,0.62
6790.00,0.62
6789.00,0.62
6788.00,0.62
6787.00,0.61
6786.00,0.61
6785.00,0.61
6784.00,0.61
6783.00,0.61
6782.00,0.61
6781.00,0.61
6780.00,0.61
6779.00,0.61
6778.00,0.61
6777.00,0.62
6776.00,0.62
6775.00,0.62
6774.00,0.62
6773.00,0.62
6772.00,0.62
6771.00,0.62
6770.00,0.62
6769.00,0.62
6768.00,0.62
6767.00,0.62
6766.00,0.62
6765.00,0.62
6764.00,0.62
6763.00,0.62
6762.00,0.62
6761.00,0.62
6760.00,0.62
6759.00,0.62
6758.00,0.62
6757.00,0.62
6756.00,0.62
6755.00,0.62
6754.00,0.62
6753.00,0.62
6752.00,0.62
6751.00,0.62
6750.00,0.62
6749.00,0.63
6748.00,0.63
6747.00,0.63
6746.00,0.63
6745.00,0.63
6744.00,0.64
6743.00,0.64
6742.00,0.64
6741.00,0.64
6740.00,0.64
6739.00,0.65
6738.00,0.65
6737.00,0.65
6736.00,0.65
6735.00,0.65
6734.00,0.65
6733.00,0.65
6732.00,0.65
6731.00,0.65
6730.00,0.65
6729.00,0.65
6728.00,0.65
6727.00,0.66
6726.00,0.66
6725.00,0.66
6724.00,0.66
6723.00,0.66
6722.00,0.66
6721.00,0.66
6720.00,0.66
6719.00,0.67
6718.00,0.67
6717.00,0.67
6716.00,0.67
6715.00,0.67
6714.00,0.67
6713.00,0.68
6712.00,0.68
6711.00,0.68
6710.00,0.68
6709.00,0.68
6708.00,0.68
6707.00,0.68
6706.00,0.68
6705.00,0.68
6704.00,0.68
6703.00,0.68
6702.00,0.68
6701.00,0.68
6700.00,0.68
6699.00,0.67
6698.00,0.67
6697.00,0.67
6696.00,0.67
6695.00,0.67
6694.00,0.67
6693.00,0.67
6692.00,0.67
6691.00,0.67
6690.00,0.67
6689.00,0.68
6688.00,0.68
6687.00,0.68
6686.00,0.68
6685.00,0.68
6684.00,0.68
6683.00,0.69
6682.00,0.69
6681.00,0.69
6680.00,0.69
6679.00,0.69
6678.00,0.70
6677.00,0.70
6676.00,0.70
6675.00,0.70
6674.00,0.71
6673.00,0.71
6672.00,0.71
6671.00,0.71
6670.00,0.72
6669.00,0.72
6668.00,0.72
6667.00,0.72
6666.00,0.72
6665.00,0.72
6664.00,0.73
6663.00,0.73
6662.00,0.73
6661.00,0.73
6660.00,0.73
6659.00,0.73
6658.00,0.73
6657.00,0.73
6656.00,0.73
6655.00,0.73
6654.00,0.73
6653.00,0.73
6652.00,0.72
6651.00,0.72
6650.00,0.72
6649.00,0.72
6648.00,0.72
6647.00,0.72
6646.00,0.72
6645.00,0.72
6644.00,0.72
6643.00,0.72
6642.00,0.73
6641.00,0.73
6640.00,0.73
6639.00,0.73
6638.00,0.73
6637.00,0.73
6636.00,0.73
6635.00,0.73
6634.00,0.73
6633.00,0.74
6632.00,0.74
6631.00,0.74
6630.00,0.74
6629.00,0.74
6628.00,0.74
6627.00,0.75
6626.00,0.75
6625.00,0.75
6624.00,0.75
6623.00,0.75
6622.00,0.75
6621.00,0.75
6620.00,0.75
6619.00,0.76
6618.00,0.76
6617.00,0.76
6616.00,0.76
6615.00,0.76
6614.00,0.76
6613.00,0.76
6612.00,0.76
6611.00,0.76
6610.00,0.76
6609.00,0.76
6608.00,0.76
6607.00,0.76
6606.00,0.76
6605.00,0.76
6604.00,0.76
6603.00,0.76
6602.00,0.76
6601.00,0.76
6600.00,0.77
6599.00,0.77
6598.00,0.77
6597.00,0.77
6596.00,0.77
6595.00,0.77
6594.00,0.77
6593.00,0.78
6592.00,0.78
6591.00,0.78
6590.00,0.78
6589.00,0.78
6588.00,0.79
6587.00,0.79
6586.00,0.79
6585.00,0.79
6584.00,0.79
6583.00,0.79
6582.00,0.79
6581.00,0.79
6580.00,0.80
6579.00,0.80
6578.00,0.80
6577.00,0.80
6576.00,0.80
6575.00,0.80
6574.00,0.80
6573.00,0.80
6572.00,0.80
6571.00,0.80
6570.00,0.80
6569.00,0.80
6568.00,0.80
6567.00,0.80
6566.00,0.80
6565.00,0.80
6564.00,0.80
6563.00,0.80
6562.00,0.80
6561.00,0.80
6560.00,0.80
6559.00,0.80
6558.00,0.80
6557.00,0.80
6556.00,0.80
6555.00,0.80
6554.00,0.80
6553.00,0.80
6552.00,0.81
6551.00,0.81
6550.00,0.81
6549.00,0.81
6548.00,0.81
6547.00,0.81
6546.00,0.81
6545.00,0.82
6544.00,0.82
6543.00,0.82
6542.00,0.82
6541.00,0.82
6540.00,0.82
6539.00,0.83
6538.00,0.83
6537.00,0.83
6536.00,0.83
6535.00,0.83
6534.00,0.84
6533.00,0.84
6532.00,0.84
6531.00,0.84
6530.00,0.84
6529.00,0.84
6528.00,0.85
6527.00,0.85
6526.00,0.85
6525.00,0.85
6524.00,0.85
6523.00,0.85
6522.00,0.85
6521.00,0.85
6520.00,0.85
6519.00,0.85
6518.00,0.85
6517.00,0.85
6516.00,0.85
6515.00,0.85
6514.00,0.86
6513.00,0.86
6512.00,0.86
6511.00,0.86
6510.00,0.86
6509.00,0.86
6508.00,0.86
6507.00,0.86
6506.00,0.86
6505.00,0.86
6504.00,0.86
6503.00,0.86
6502.00,0.86
6501.00,0.86
6500.00,0.86
6499.00,0.86
6498.00,0.86
6497.00,0.87
6496.00,0.87
6495.00,0.87
6494.00,0.87
6493.00,0.87
6492.00,0.87
6491.00,0.87
6490.00,0.87
6489.00,0.87
6488.00,0.88
6487.00,0.88
6486.00,0.88
6485.00,0.88
6484.00,0.88
6483.00,0.88
6482.00,0.88
6481.00,0.89
6480.00,0.89
6479.00,0.89
6478.00,0.89
6477.00,0.89
6476.00,0.89
6475.00,0.89
6474.00,0.89
6473.00,0.89
6472.00,0.90
6471.00,0.90
6470.00,0.90
6469.00,0.90
6468.00,0.90
6467.00,0.90
6466.00,0.90
6465.00,0.90
6464.00,0.90
6463.00,0.90
6462.00,0.90
6461.00,0.90
6460.00,0.90
6459.00,0.90
6458.00,0.90
6457.00,0.90
6456.00,0.90
6455.00,0.90
6454.00,0.90
6453.00,0.91
6452.00,0.91
6451.00,0.91
6450.00,0.91
6449.00,0.91
6448.00,0.91
6447.00,0.91
6446.00,0.91
6445.00,0.91
6444.00,0.91
6443.00,0.91
6442.00,0.91
6441.00,0.91
6440.00,0.91
6439.00,0.91
6438.00,0.91
6437.00,0.91
6436.00,0.91
6435.00,0.91
6434.00,0.91
6433.00,0.91
6432.00,0.91
6431.00,0.91
6430.00,0.91
6429.00,0.91
6428.00,0.91
6427.00,0.91
6426.00,0.91
6425.00,0.91
6424.00,0.91
6423.00,0.91
6422.00,0.91
6421.00,0.91
6420.00,0.91
6419.00,0.91
6418.00,0.92
6417.00,0.92
6416.00,0.92
6415.00,0.92
6414.00,0.92
6413.00,0.92
6412.00,0.92
6411.00,0.92
6410.00,0.93
6409.00,0.93
6408.00,0.93
6407.00,0.93
6406.00,0.93
6405.00,0.93
6404.00,0.93
6403.00,0.93
6402.00,0.94
6401.00,0.94
6400.00,0.94
6399.00,0.94
6398.00,0.94
6397.00,0.94
6396.00,0.94
6395.00,0.94
6394.00,0.94
6393.00,0.94
6392.00,0.94
6391.00,0.95
6390.00,0.95
6389.00,0.95
6388.00,0.95
6387.00,0.95
6386.00,0.95
6385.00,0.95
6384.00,0.95
6383.00,0.95
6382.00,0.95
6381.00,0.95
6380.00,0.95
6379.00,0.95
6378.00,0.95
6377.00,0.96
6376.00,0.96
6375.00,0.96
6374.00,0.96
6373.00,0.96
6372.00,0.96
6371.00,0.96
6370.00,0.96
6369.00,0.97
6368.00,0.97
6367.00,0.97
6366.00,0.97
6365.00,0.97
6364.00,0.97
6363.00,0.97
6362.00,0.97
6361.00,0.97
6360.00,0.97
6359.00,0.97
6358.00,0.97
6357.00,0.97
6356.00,0.97
6355.00,0.97
6354.00,0.97
6353.00,0.97
6352.00,0.97
6351.00,0.97
6350.00,0.98
6349.00,0.98
6348.00,0.98
6347.00,0.98
6346.00,0.98
6345.00,0.98
6344.00,0.98
6343.00,0.99
6342.00,0.99
6341.00,0.99
6340.00,0.99
6339.00,0.99
6338.00,0.99
6337.00,0.99
6336.00,0.99
6335.00,0.99
6334.00,0.99
6333.00,0.99
6332.00,1.00
6331.00,1.00
6330.00,1.00
6329.00,1.00
6328.00,1.00
6327.00,1.00
6326.00,1.00
6325.00,1.00
6324.00,1.00
6323.00,1.00
6322.00,1.00
6321.00,1.00
6320.00,1.01
6319.00,1.01
6318.00,1.01
6317.00,1.01
6316.00,1.01
6315.00,1.01
6314.00,1.01
6313.00,1.01
6312.00,1.02
6311.00,1.02
6310.00,1.02
6309.00,1.02
6308.00,1.02
6307.00,1.02
6306.00,1.02
6305.00,1.03
6304.00,1.03
6303.00,1.03
6302.00,1.03
6301.00,1.03
6300.00,1.03
6299.00,1.03
6298.00,1.04
6297.00,1.04
6296.00,1.04
6295.00,1.04
6294.00,1.04
6293.00,1.04
6292.00,1.04
6291.00,1.04
6290.00,1.04
6289.00,1.05
6288.00,1.05
6287.00,1.05
6286.00,1.05
6285.00,1.05
6284.00,1.05
6283.00,1.05
6282.00,1.05
6281.00,1.05
6280.00,1.05
6279.00,1.05
6278.00,1.05
6277.00,1.05
6276.00,1.06
6275.00,1.06
6274.00,1.06
6273.00,1.06
6272.00,1.06
6271.00,1.06
6270.00,1.06
6269.00,1.07
6268.00,1.07
6267.00,1.07
6266.00,1.07
6265.00,1.07
6264.00,1.07
6263.00,1.08
6262.00,1.08
6261.00,1.08
6260.00,1.08
6259.00,1.08
6258.00,1.08
6257.00,1.08
6256.00,1.08
6255.00,1.08
6254.00,1.09
6253.00,1.09
6252.00,1.09
6251.00,1.09
6250.00,1.09
6249.00,1.09
6248.00,1.09
6247.00,1.09
6246.00,1.10
6245.00,1.10
6244.00,1.10
6243.00,1.10
6242.00,1.10
6241.00,1.11
6240.00,1.11
6239.00,1.11
6238.00,1.11
6237.00,1.12
6236.00,1.12
6235.00,1.12
6234.00,1.12
6233.00,1.12
6232.00,1.13
6231.00,1.13
6230.00,1.13
6229.00,1.13
6228.00,1.13
6227.00,1.13
6226.00,1.13
6225.00,1.13
6224.00,1.13
6223.00,1.14
6222.00,1.14
6221.00,1.14
6220.00,1.14
6219.00,1.14
6218.00,1.14
6217.00,1.14
6216.00,1.14
6215.00,1.14
6214.00,1.14
6213.00,1.14
6212.00,1.15
6211.00,1.15
6210.00,1.15
6209.00,1.15
6208.00,1.15
6207.00,1.16
6206.00,1.16
6205.00,1.16
6204.00,1.16
6203.00,1.16
6202.00,1.16
6201.00,1.17
6200.00,1.17
6199.00,1.17
6198.00,1.17
6197.00,1.17
6196.00,1.17
6195.00,1.17
6194.00,1.18
6193.00,1.18
6192.00,1.18
6191.00,1.18
6190.00,1.18
6189.00,1.18
6188.00,1.18
6187.00,1.18
6186.00,1.19
6185.00,1.19
6184.00,1.19
6183.00,1.19
6182.00,1.19
6181.00,1.19
6180.00,1.20
6179.00,1.20
6178.00,1.20
6177.00,1.20
6176.00,1.20
6175.00,1.21
6174.00,1.21
6173.00,1.21
6172.00,1.21
6171.00,1.21
6170.00,1.21
6169.00,1.22
6168.00,1.22
6167.00,1.22
6166.00,1.22
6165.00,1.23
6164.00,1.23
6163.00,1.23
6162.00,1.23
6161.00,1.24
6160.00,1.24
6159.00,1.24
6158.00,1.24
6157.00,1.25
6156.00,1.25
6155.00,1.25
6154.00,1.25
6153.00,1.26
6152.00,1.26
6151.00,1.26
6150.00,1.26
6149.00,1.26
6148.00,1.27
6147.00,1.27
6146.00,1.27
6145.00,1.27
6144.00,1.27
6143.00,1.27
6142.00,1.27
6141.00,1.27
6140.00,1.27
6139.00,1.28
6138.00,1.28
6137.00,1.28
6136.00,1.28
6135.00,1.28
6134.00,1.28
6133.00,1.28
6132.00,1.29
6131.00,1.29
6130.00,1.29
6129.00,1.29
6128.00,1.29
6127.00,1.30
6126.00,1.30
6125.00,1.30
6124.00,1.30
6123.00,1.31
6122.00,1.31
6121.00,1.31
6120.00,1.31
6119.00,1.31
6118.00,1.31
6117.00,1.31
6116.00,1.32
6115.00,1.32
6114.00,1.32
6113.00,1.32
6112.00,1.32
6111.00,1.32
6110.00,1.32
6109.00,1.32
6108.00,1.32
6107.00,1.33
6106.00,1.33
6105.00,1.33
6104.00,1.33
6103.00,1.33
6102.00,1.33
6101.00,1.33
6100.00,1.33
6099.00,1.33
6098.00,1.33
6097.00,1.34
6096.00,1.34
6095.00,1.34
6094.00,1.34
6093.00,1.34
6092.00,1.34
6091.00,1.34
6090.00,1.34
6089.00,1.35
6088.00,1.35
6087.00,1.35
6086.00,1.35
6085.00,1.35
6084.00,1.36
6083.00,1.36
6082.00,1.36
6081.00,1.36
6080.00,1.36
6079.00,1.37
6078.00,1.37
6077.00,1.37
6076.00,1.37
6075.00,1.38
6074.00,1.38
6073.00,1.38
6072.00,1.38
6071.00,1.38
6070.00,1.38
6069.00,1.39
6068.00,1.39
6067.00,1.39
6066.00,1.39
6065.00,1.39
6064.00,1.39
6063.00,1.39
6062.00,1.39
6061.00,1.39
6060.00,1.39
6059.00,1.39
6058.00,1.39
6057.00,1.40
6056.00,1.40
6055.00,1.40
6054.00,1.40
6053.00,1.40
6052.00,1.40
6051.00,1.41
6050.00,1.41
6049.00,1.41
6048.00,1.41
6047.00,1.41
6046.00,1.41
6045.00,1.42
6044.00,1.42
6043.00,1.42
6042.00,1.42
6041.00,1.42
6040.00,1.42
6039.00,1.42
6038.00,1.42
6037.00,1.42
6036.00,1.42
6035.00,1.43
6034.00,1.43
6033.00,1.43
6032.00,1.43
6031.00,1.43
6030.00,1.43
6029.00,1.43
6028.00,1.43
6027.00,1.43
6026.00,1.43
6025.00,1.43
6024.00,1.43
6023.00,1.42
6022.00,1.42
6021.00,1.43
6020.00,1.43
6019.00,1.43
6018.00,1.43
6017.00,1.43
6016.00,1.43
6015.00,1.43
6014.00,1.43
6013.00,1.43
6012.00,1.43
6011.00,1.43
6010.00,1.43
6009.00,1.43
6008.00,1.43
6007.00,1.43
6006.00,1.43
6005.00,1.43
6004.00,1.42
6003.00,1.42
6002.00,1.42
6001.00,1.42
6000.00,1.42
5999.00,1.42
5998.00,1.42
5997.00,1.42
5996.00,1.42
5995.00,1.42
5994.00,1.41
5993.00,1.41
5992.00,1.41
5991.00,1.41
5990.00,1.41
5989.00,1.40
5988.00,1.40
5987.00,1.40
5986.00,1.40
5985.00,1.39
5984.00,1.39
5983.00,1.39
5982.00,1.38
5981.00,1.38
5980.00,1.38
5979.00,1.37
5978.00,1.37
5977.00,1.36
5976.00,1.36
5975.00,1.35
5974.00,1.35
5973.00,1.34
5972.00,1.34
5971.00,1.33
5970.00,1.32
5969.00,1.32
5968.00,1.31
5967.00,1.30
5966.00,1.29
5965.00,1.29
5964.00,1.28
5963.00,1.27
5962.00,1.26
5961.00,1.25
5960.00,1.24
5959.00,1.23
5958.00,1.23
5957.00,1.22
5956.00,1.21
5955.00,1.20
5954.00,1.19
5953.00,1.19
5952.00,1.18
5951.00,1.17
5950.00,1.17
5949.00,1.16
5948.00,1.16
5947.00,1.15
5946.00,1.15
5945.00,1.14
5944.00,1.14
5943.00,1.14
5942.00,1.13
5941.00,1.13
5940.00,1.13
5939.00,1.13
5938.00,1.13
5937.00,1.12
5936.00,1.12
5935.00,1.12
5934.00,1.12
5933.00,1.12
5932.00,1.12
5931.00,1.12
5930.00,1.11
5929.00,1.11
5928.00,1.11
5927.00,1.11
5926.00,1.11
5925.00,1.11
5924.00,1.10
5923.00,1.10
5922.00,1.10
5921.00,1.10
5920.00,1.10
5919.00,1.09
5918.00,1.09
5917.00,1.09
5916.00,1.09
5915.00,1.08
5914.00,1.08
5913.00,1.08
5912.00,1.08
5911.00,1.07
5910.00,1.07
5909.00,1.07
5908.00,1.07
5907.00,1.07
5906.00,1.06
5905.00,1.06
5904.00,1.06
5903.00,1.06
5902.00,1.06
5901.00,1.06
5900.00,1.06
5899.00,1.06
5898.00,1.06
5897.00,1.06
5896.00,1.06
5895.00,1.06
5894.00,1.06
5893.00,1.07
5892.00,1.07
5891.00,1.07
5890.00,1.08
5889.00,1.08
5888.00,1.08
5887.00,1.09
5886.00,1.09
5885.00,1.09
5884.00,1.10
5883.00,1.10
5882.00,1.10
5881.00,1.11
5880.00,1.11
5879.00,1.11
5878.00,1.12
5877.00,1.12
5876.00,1.12
5875.00,1.12
5874.00,1.13
5873.00,1.13
5872.00,1.13
5871.00,1.13
5870.00,1.13
5869.00,1.14
5868.00,1.14
5867.00,1.14
5866.00,1.14
5865.00,1.14
5864.00,1.15
5863.00,1.15
5862.00,1.15
5861.00,1.15
5860.00,1.15
5859.00,1.15
5858.00,1.16
5857.00,1.16
5856.00,1.16
5855.00,1.16
5854.00,1.16
5853.00,1.16
5852.00,1.16
5851.00,1.16
5850.00,1.16
5849.00,1.16
5848.00,1.16
5847.00,1.16
5846.00,1.16
5845.00,1.16
5844.00,1.16
5843.00,1.16
5842.00,1.16
5841.00,1.16
5840.00,1.16
5839.00,1.16
5838.00,1.16
5837.00,1.16
5836.00,1.16
5835.00,1.16
5834.00,1.16
5833.00,1.16
5832.00,1.16
5831.00,1.16
5830.00,1.16
5829.00,1.16
5828.00,1.16
5827.00,1.16
5826.00,1.16
5825.00,1.16
5824.00,1.17
5823.00,1.17
5822.00,1.17
5821.00,1.17
5820.00,1.17
5819.00,1.17
5818.00,1.17
5817.00,1.17
5816.00,1.17
5815.00,1.17
5814.00,1.17
5813.00,1.17
5812.00,1.17
5811.00,1.17
5810.00,1.17
5809.00,1.17
5808.00,1.17
5807.00,1.17
5806.00,1.17
5805.00,1.17
5804.00,1.17
5803.00,1.17
5802.00,1.17
5801.00,1.17
5800.00,1.17
5799.00,1.17
5798.00,1.16
5797.00,1.16
5796.00,1.16
5795.00,1.16
5794.00,1.16
5793.00,1.16
5792.00,1.15
5791.00,1.15
5790.00,1.15
5789.00,1.15
5788.00,1.14
5787.00,1.14
5786.00,1.14
5785.00,1.14
5784.00,1.13
5783.00,1.13
5782.00,1.13
5781.00,1.13
5780.00,1.12
5779.00,1.12
5778.00,1.12
5777.00,1.12
5776.00,1.12
5775.00,1.12
5774.00,1.12
5773.00,1.12
5772.00,1.12
5771.00,1.12
5770.00,1.12
5769.00,1.12
5768.00,1.12
5767.00,1.12
5766.00,1.12
5765.00,1.13
5764.00,1.13
5763.00,1.13
5762.00,1.13
5761.00,1.14
5760.00,1.14
5759.00,1.14
5758.00,1.15
5757.00,1.15
5756.00,1.15
5755.00,1.16
5754.00,1.16
5753.00,1.16
5752.00,1.17
5751.00,1.17
5750.00,1.17
5749.00,1.18
5748.00,1.18
5747.00,1.18
5746.00,1.19
5745.00,1.19
5744.00,1.19
5743.00,1.19
5742.00,1.20
5741.00,1.20
5740.00,1.20
5739.00,1.21
5738.00,1.21
5737.00,1.21
5736.00,1.21
5735.00,1.22
5734.00,1.22
5733.00,1.22
5732.00,1.22
5731.00,1.22
5730.00,1.23
5729.00,1.23
5728.00,1.23
5727.00,1.23
5726.00,1.23
5725.00,1.23
5724.00,1.23
5723.00,1.23
5722.00,1.23
5721.00,1.23
5720.00,1.23
5719.00,1.23
5718.00,1.23
5717.00,1.23
5716.00,1.23
5715.00,1.23
5714.00,1.23
5713.00,1.23
5712.00,1.23
5711.00,1.23
5710.00,1.23
5709.00,1.23
5708.00,1.23
5707.00,1.23
5706.00,1.23
5705.00,1.23
5704.00,1.23
5703.00,1.23
5702.00,1.23
5701.00,1.23
5700.00,1.23
5699.00,1.23
5698.00,1.23
5697.00,1.23
5696.00,1.23
5695.00,1.23
5694.00,1.23
5693.00,1.23
5692.00,1.23
5691.00,1.23
5690.00,1.22
5689.00,1.22
5688.00,1.22
5687.00,1.22
5686.00,1.22
5685.00,1.22
5684.00,1.21
5683.00,1.21
5682.00,1.21
5681.00,1.21
5680.00,1.21
5679.00,1.21
5678.00,1.20
5677.00,1.20
5676.00,1.20
5675.00,1.20
5674.00,1.20
5673.00,1.20
5672.00,1.20
5671.00,1.20
5670.00,1.20
5669.00,1.20
5668.00,1.20
5667.00,1.21
5666.00,1.21
5665.00,1.21
5664.00,1.21
5663.00,1.21
5662.00,1.21
5661.00,1.21
5660.00,1.22
5659.00,1.22
5658.00,1.22
5657.00,1.22
5656.00,1.22
5655.00,1.23
5654.00,1.23
5653.00,1.23
5652.00,1.23
5651.00,1.24
5650.00,1.24
5649.00,1.24
5648.00,1.24
5647.00,1.24
5646.00,1.25
5645.00,1.25
5644.00,1.25
5643.00,1.25
5642.00,1.26
5641.00,1.26
5640.00,1.26
5639.00,1.26
5638.00,1.26
5637.00,1.27
5636.00,1.27
5635.00,1.27
5634.00,1.27
5633.00,1.27
5632.00,1.27
5631.00,1.28
5630.00,1.28
5629.00,1.28
5628.00,1.28
5627.00,1.28
5626.00,1.29
5625.00,1.29
5624.00,1.29
5623.00,1.29
5622.00,1.29
5621.00,1.29
5620.00,1.30
5619.00,1.30
5618.00,1.30
5617.00,1.30
5616.00,1.31
5615.00,1.31
5614.00,1.31
5613.00,1.31
5612.00,1.31
5611.00,1.32
5610.00,1.32
5609.00,1.32
5608.00,1.32
5607.00,1.33
5606.00,1.33
5605.00,1.33
5604.00,1.33
5603.00,1.33
5602.00,1.33
5601.00,1.34
5600.00,1.34
5599.00,1.34
5598.00,1.34
5597.00,1.34
5596.00,1.34
5595.00,1.35
5594.00,1.35
5593.00,1.35
5592.00,1.35
5591.00,1.35
5590.00,1.35
5589.00,1.36
5588.00,1.36
5587.00,1.36
5586.00,1.36
5585.00,1.37
5584.00,1.37
5583.00,1.37
5582.00,1.37
5581.00,1.38
5580.00,1.38
5579.00,1.38
5578.00,1.38
5577.00,1.39
5576.00,1.39
5575.00,1.39
5574.00,1.39
5573.00,1.40
5572.00,1.40
5571.00,1.40
5570.00,1.40
5569.00,1.40
5568.00,1.40
5567.00,1.41
5566.00,1.41
5565.00,1.41
5564.00,1.41
5563.00,1.41
5562.00,1.41
5561.00,1.41
5560.00,1.42
5559.00,1.42
5558.00,1.42
5557.00,1.42
5556.00,1.42
5555.00,1.42
5554.00,1.42
5553.00,1.43
5552.00,1.43
5551.00,1.43
5550.00,1.43
5549.00,1.43
5548.00,1.43
5547.00,1.43
5546.00,1.44
5545.00,1.44
5544.00,1.44
5543.00,1.44
5542.00,1.44
5541.00,1.44
5540.00,1.44
5539.00,1.44
5538.00,1.44
5537.00,1.45
5536.00,1.45
5535.00,1.45
5534.00,1.45
5533.00,1.45
5532.00,1.45
5531.00,1.45
5530.00,1.45
5529.00,1.46
5528.00,1.46
5527.00,1.46
5526.00,1.46
5525.00,1.46
5524.00,1.46
5523.00,1.46
5522.00,1.47
5521.00,1.47
5520.00,1.47
5519.00,1.47
5518.00,1.47
5517.00,1.47
5516.00,1.47
5515.00,1.47
5514.00,1.47
5513.00,1.47
5512.00,1.47
5511.00,1.47
5510.00,1.48
5509.00,1.48
5508.00,1.48
5507.00,1.48
5506.00,1.48
5505.00,1.48
5504.00,1.48
5503.00,1.48
5502.00,1.48
5501.00,1.48
5500.00,1.48
5499.00,1.48
5498.00,1.49
5497.00,1.49
5496.00,1.49
5495.00,1.49
5494.00,1.49
5493.00,1.50
5492.00,1.50
5491.00,1.50
5490.00,1.50
5489.00,1.50
5488.00,1.50
5487.00,1.51
5486.00,1.51
5485.00,1.51
5484.00,1.51
5483.00,1.51
5482.00,1.51
5481.00,1.51
5480.00,1.51
5479.00,1.51
5478.00,1.51
5477.00,1.51
5476.00,1.52
5475.00,1.52
5474.00,1.52
5473.00,1.52
5472.00,1.52
5471.00,1.52
5470.00,1.52
5469.00,1.53
5468.00,1.53
5467.00,1.53
5466.00,1.53
5465.00,1.53
5464.00,1.54
5463.00,1.54
5462.00,1.54
5461.00,1.54
5460.00,1.55
5459.00,1.55
5458.00,1.55
5457.00,1.55
5456.00,1.55
5455.00,1.56
5454.00,1.56
5453.00,1.56
5452.00,1.56
5451.00,1.56
5450.00,1.56
5449.00,1.56
5448.00,1.56
5447.00,1.56
5446.00,1.56
5445.00,1.56
5444.00,1.56
5443.00,1.56
5442.00,1.56
5441.00,1.56
5440.00,1.56
5439.00,1.56
5438.00,1.56
5437.00,1.56
5436.00,1.56
5435.00,1.56
5434.00,1.56
5433.00,1.56
5432.00,1.56
5431.00,1.56
5430.00,1.56
5429.00,1.56
5428.00,1.56
5427.00,1.56
5426.00,1.56
5425.00,1.57
5424.00,1.57
5423.00,1.57
5422.00,1.57
5421.00,1.57
5420.00,1.57
5419.00,1.57
5418.00,1.57
5417.00,1.57
5416.00,1.57
5415.00,1.57
5414.00,1.57
5413.00,1.57
5412.00,1.57
5411.00,1.57
5410.00,1.57
5409.00,1.57
5408.00,1.57
5407.00,1.57
5406.00,1.57
5405.00,1.57
5404.00,1.57
5403.00,1.57
5402.00,1.57
5401.00,1.57
5400.00,1.57
5399.00,1.57
5398.00,1.56
5397.00,1.56
5396.00,1.56
5395.00,1.56
5394.00,1.56
5393.00,1.56
5392.00,1.56
5391.00,1.56
5390.00,1.55
5389.00,1.55
5388.00,1.55
5387.00,1.55
5386.00,1.54
5385.00,1.54
5384.00,1.54
5383.00,1.54
5382.00,1.53
5381.00,1.53
5380.00,1.53
5379.00,1.52
5378.00,1.52
5377.00,1.52
5376.00,1.51
5375.00,1.51
5374.00,1.50
5373.00,1.50
5372.00,1.49
5371.00,1.49
5370.00,1.48
5369.00,1.48
5368.00,1.47
5367.00,1.47
5366.00,1.46
5365.00,1.45
5364.00,1.45
5363.00,1.44
5362.00,1.43
5361.00,1.42
5360.00,1.42
5359.00,1.41
5358.00,1.40
5357.00,1.39
5356.00,1.38
5355.00,1.38
5354.00,1.37
5353.00,1.36
5352.00,1.35
5351.00,1.34
5350.00,1.33
5349.00,1.32
5348.00,1.31
5347.00,1.30
5346.00,1.29
5345.00,1.28
5344.00,1.27
5343.00,1.26
5342.00,1.24
5341.00,1.23
5340.00,1.22
5339.00,1.21
5338.00,1.20
5337.00,1.19
5336.00,1.18
5335.00,1.16
5334.00,1.15
5333.00,1.14
5332.00,1.13
5331.00,1.12
5330.00,1.11
5329.00,1.10
5328.00,1.08
5327.00,1.07
5326.00,1.06
5325.00,1.05
5324.00,1.04
5323.00,1.03
5322.00,1.02
5321.00,1.01
5320.00,0.99
5319.00,0.98
5318.00,0.97
5317.00,0.96
5316.00,0.95
5315.00,0.94
5314.00,0.93
5313.00,0.92
5312.00,0.91
5311.00,0.90
5310.00,0.89
5309.00,0.88
5308.00,0.87
5307.00,0.86
5306.00,0.86
5305.00,0.85
5304.00,0.84
5303.00,0.84
5302.00,0.83
5301.00,0.82
5300.00,0.82
5299.00,0.81
5298.00,0.81
5297.00,0.80
5296.00,0.80
5295.00,0.80
5294.00,0.79
5293.00,0.79
5292.00,0.78
5291.00,0.78
5290.00,0.78
5289.00,0.77
5288.00,0.77
5287.00,0.77
5286.00,0.76
5285.00,0.76
5284.00,0.76
5283.00,0.76
5282.00,0.75
5281.00,0.75
5280.00,0.75
5279.00,0.75
5278.00,0.75
5277.00,0.74
5276.00,0.74
5275.00,0.74
5274.00,0.74
5273.00,0.74
5272.00,0.74
5271.00,0.74
5270.00,0.74
5269.00,0.74
5268.00,0.74
5267.00,0.74
5266.00,0.74
5265.00,0.74
5264.00,0.74
5263.00,0.74
5262.00,0.74
5261.00,0.74
5260.00,0.74
5259.00,0.74
5258.00,0.74
5257.00,0.74
5256.00,0.74
5255.00,0.74
5254.00,0.74
5253.00,0.74
5252.00,0.74
5251.00,0.74
5250.00,0.74
5249.00,0.74
5248.00,0.74
5247.00,0.74
5246.00,0.74
5245.00,0.73
5244.00,0.73
5243.00,0.73
5242.00,0.73
5241.00,0.73
5240.00,0.73
5239.00,0.73
5238.00,0.73
5237.00,0.73
5236.00,0.73
5235.00,0.73
5234.00,0.73
5233.00,0.73
5232.00,0.73
5231.00,0.73
5230.00,0.73
5229.00,0.73
5228.00,0.73
5227.00,0.73
5226.00,0.73
5225.00,0.73
5224.00,0.73
5223.00,0.73
5222.00,0.73
5221.00,0.73
5220.00,0.73
5219.00,0.73
5218.00,0.73
5217.00,0.73
5216.00,0.73
5215.00,0.73
5214.00,0.73
5213.00,0.73
5212.00,0.73
5211.00,0.74
5210.00,0.74
5209.00,0.74
5208.00,0.74
5207.00,0.74
5206.00,0.74
5205.00,0.74
5204.00,0.74
5203.00,0.74
5202.00,0.74
5201.00,0.74
5200.00,0.74
5199.00,0.74
5198.00,0.74
5197.00,0.74
5196.00,0.74
5195.00,0.74
5194.00,0.74
5193.00,0.74
5192.00,0.74
5191.00,0.74
5190.00,0.74
5189.00,0.74
5188.00,0.74
5187.00,0.74
5186.00,0.74
5185.00,0.74
5184.00,0.74
5183.00,0.74
5182.00,0.74
5181.00,0.74
5180.00,0.74
5179.00,0.75
5178.00,0.75
5177.00,0.75
5176.00,0.75
5175.00,0.75
5174.00,0.75
5173.00,0.75
5172.00,0.75
5171.00,0.75
5170.00,0.75
5169.00,0.75
5168.00,0.75
5167.00,0.75
5166.00,0.75
5165.00,0.75
5164.00,0.75
5163.00,0.75
5162.00,0.75
5161.00,0.75
5160.00,0.75
5159.00,0.76
5158.00,0.76
5157.00,0.76
5156.00,0.76
5155.00,0.76
5154.00,0.76
5153.00,0.76
5152.00,0.76
5151.00,0.76
5150.00,0.76
5149.00,0.76
5148.00,0.77
5147.00,0.77
5146.00,0.77
5145.00,0.77
5144.00,0.77
5143.00,0.77
5142.00,0.77
5141.00,0.77
5140.00,0.77
5139.00,0.77
5138.00,0.77
5137.00,0.77
5136.00,0.77
5135.00,0.77
5134.00,0.77
5133.00,0.77
5132.00,0.77
5131.00,0.77
5130.00,0.77
5129.00,0.77
5128.00,0.77
5127.00,0.77
5126.00,0.77
5125.00,0.77
5124.00,0.77
5123.00,0.77
5122.00,0.77
5121.00,0.78
5120.00,0.78
5119.00,0.78
5118.00,0.78
5117.00,0.78
5116.00,0.78
5115.00,0.78
5114.00,0.78
5113.00,0.78
5112.00,0.78
5111.00,0.78
5110.00,0.79
5109.00,0.79
5108.00,0.79
5107.00,0.79
5106.00,0.79
5105.00,0.79
5104.00,0.79
5103.00,0.79
5102.00,0.79
5101.00,0.79
5100.00,0.79
5099.00,0.79
5098.00,0.79
5097.00,0.79
5096.00,0.79
5095.00,0.79
5094.00,0.79
5093.00,0.79
5092.00,0.79
5091.00,0.79
5090.00,0.80
5089.00,0.80
5088.00,0.80
5087.00,0.80
5086.00,0.80
5085.00,0.80
5084.00,0.80
5083.00,0.80
5082.00,0.80
5081.00,0.80
5080.00,0.80
5079.00,0.80
5078.00,0.81
5077.00,0.81
5076.00,0.81
5075.00,0.81
5074.00,0.81
5073.00,0.81
5072.00,0.81
5071.00,0.81
5070.00,0.81
5069.00,0.81
5068.00,0.81
5067.00,0.81
5066.00,0.81
5065.00,0.81
5064.00,0.81
5063.00,0.82
5062.00,0.82
5061.00,0.82
5060.00,0.82
5059.00,0.82
5058.00,0.82
5057.00,0.82
5056.00,0.82
5055.00,0.82
5054.00,0.82
5053.00,0.82
5052.00,0.82
5051.00,0.82
5050.00,0.83
5049.00,0.83
5048.00,0.83
5047.00,0.83
5046.00,0.83
5045.00,0.83
5044.00,0.83
5043.00,0.83
5042.00,0.83
5041.00,0.83
5040.00,0.83
5039.00,0.83
5038.00,0.84
5037.00,0.84
5036.00,0.84
5035.00,0.84
5034.00,0.84
5033.00,0.84
5032.00,0.84
5031.00,0.84
5030.00,0.84
5029.00,0.84
5028.00,0.84
5027.00,0.84
5026.00,0.84
5025.00,0.84
5024.00,0.84
5023.00,0.85
5022.00,0.85
5021.00,0.85
5020.00,0.85
5019.00,0.85
5018.00,0.85
5017.00,0.85
5016.00,0.85
5015.00,0.85
5014.00,0.86
5013.00,0.86
5012.00,0.86
5011.00,0.86
5010.00,0.86
5009.00,0.86
5008.00,0.87
5007.00,0.87
5006.00,0.87
5005.00,0.87
5004.00,0.87
5003.00,0.87
5002.00,0.87
5001.00,0.87
5000.00,0.87
4999.00,0.87
4998.00,0.88
4997.00,0.88
4996.00,0.88
4995.00,0.88
4994.00,0.88
4993.00,0.88
4992.00,0.88
4991.00,0.88
4990.00,0.88
4989.00,0.88
4988.00,0.88
4987.00,0.88
4986.00,0.88
4985.00,0.88
4984.00,0.88
4983.00,0.88
4982.00,0.88
4981.00,0.89
4980.00,0.89
4979.00,0.89
4978.00,0.89
4977.00,0.89
4976.00,0.89
4975.00,0.89
4974.00,0.89
4973.00,0.89
4972.00,0.89
4971.00,0.89
4970.00,0.89
4969.00,0.90
4968.00,0.90
4967.00,0.90
4966.00,0.90
4965.00,0.90
4964.00,0.90
4963.00,0.90
4962.00,0.90
4961.00,0.90
4960.00,0.90
4959.00,0.90
4958.00,0.91
4957.00,0.91
4956.00,0.91
4955.00,0.91
4954.00,0.91
4953.00,0.91
4952.00,0.91
4951.00,0.91
4950.00,0.91
4949.00,0.91
4948.00,0.91
4947.00,0.92
4946.00,0.92
4945.00,0.92
4944.00,0.92
4943.00,0.92
4942.00,0.92
4941.00,0.92
4940.00,0.92
4939.00,0.92
4938.00,0.92
4937.00,0.92
4936.00,0.93
4935.00,0.93
4934.00,0.93
4933.00,0.93
4932.00,0.93
4931.00,0.93
4930.00,0.93
4929.00,0.93
4928.00,0.94
4927.00,0.94
4926.00,0.94
4925.00,0.94
4924.00,0.94
4923.00,0.94
4922.00,0.94
4921.00,0.94
4920.00,0.94
4919.00,0.94
4918.00,0.94
4917.00,0.94
4916.00,0.94
4915.00,0.95
4914.00,0.95
4913.00,0.95
4912.00,0.95
4911.00,0.95
4910.00,0.95
4909.00,0.95
4908.00,0.95
4907.00,0.95
4906.00,0.95
4905.00,0.95
4904.00,0.95
4903.00,0.95
4902.00,0.95
4901.00,0.95
4900.00,0.96
4899.00,0.96
4898.00,0.96
4897.00,0.96
4896.00,0.96
4895.00,0.96
4894.00,0.96
4893.00,0.96
4892.00,0.96
4891.00,0.96
4890.00,0.96
4889.00,0.96
4888.00,0.96
4887.00,0.96
4886.00,0.96
4885.00,0.96
4884.00,0.97
4883.00,0.97
4882.00,0.97
4881.00,0.97
4880.00,0.97
4879.00,0.97
4878.00,0.97
4877.00,0.97
4876.00,0.97
4875.00,0.97
4874.00,0.97
4873.00,0.97
4872.00,0.97
4871.00,0.97
4870.00,0.97
4869.00,0.97
4868.00,0.97
4867.00,0.97
4866.00,0.98
4865.00,0.98
4864.00,0.98
4863.00,0.98
4862.00,0.98
4861.00,0.98
4860.00,0.98
4859.00,0.98
4858.00,0.98
4857.00,0.99
4856.00,0.99
4855.00,0.99
4854.00,0.99
4853.00,0.99
4852.00,0.99
4851.00,0.99
4850.00,0.99
4849.00,1.00
4848.00,1.00
4847.00,1.00
4846.00,1.00
4845.00,1.00
4844.00,1.00
4843.00,1.00
4842.00,1.00
4841.00,1.00
4840.00,1.00
4839.00,1.00
4838.00,1.00
4837.00,1.00
4836.00,1.00
4835.00,1.00
4834.00,1.00
4833.00,1.00
4832.00,1.00
4831.00,1.00
4830.00,1.00
4829.00,1.00
4828.00,1.00
4827.00,1.00
4826.00,1.00
4825.00,1.00
4824.00,1.00
4823.00,1.00
4822.00,1.01
4821.00,1.01
4820.00,1.01
4819.00,1.01
4818.00,1.01
4817.00,1.01
4816.00,1.01
4815.00,1.01
4814.00,1.01
4813.00,1.01
4812.00,1.01
4811.00,1.01
4810.00,1.01
4809.00,1.01
4808.00,1.01
4807.00,1.01
4806.00,1.01
4805.00,1.01
4804.00,1.02
4803.00,1.02
4802.00,1.02
4801.00,1.02
4800.00,1.02
4799.00,1.02
4798.00,1.02
4797.00,1.02
4796.00,1.03
4795.00,1.03
4794.00,1.03
4793.00,1.03
4792.00,1.03
4791.00,1.04
4790.00,1.04
4789.00,1.04
4788.00,1.04
4787.00,1.05
4786.00,1.05
4785.00,1.05
4784.00,1.05
4783.00,1.05
4782.00,1.05
4781.00,1.05
4780.00,1.05
4779.00,1.06
4778.00,1.06
4777.00,1.06
4776.00,1.06
4775.00,1.06
4774.00,1.06
4773.00,1.06
4772.00,1.06
4771.00,1.06
4770.00,1.07
4769.00,1.07
4768.00,1.07
4767.00,1.07
4766.00,1.07
4765.00,1.07
4764.00,1.07
4763.00,1.07
4762.00,1.07
4761.00,1.07
4760.00,1.08
4759.00,1.08
4758.00,1.08
4757.00,1.08
4756.00,1.08
4755.00,1.08
4754.00,1.09
4753.00,1.09
4752.00,1.09
4751.00,1.09
4750.00,1.10
4749.00,1.10
4748.00,1.10
4747.00,1.10
4746.00,1.11
4745.00,1.11
4744.00,1.11
4743.00,1.12
4742.00,1.12
4741.00,1.12
4740.00,1.12
4739.00,1.13
4738.00,1.13
4737.00,1.13
4736.00,1.13
4735.00,1.13
4734.00,1.13
4733.00,1.14
4732.00,1.14
4731.00,1.14
4730.00,1.14
4729.00,1.14
4728.00,1.14
4727.00,1.14
4726.00,1.14
4725.00,1.14
4724.00,1.14
4723.00,1.15
4722.00,1.15
4721.00,1.15
4720.00,1.15
4719.00,1.15
4718.00,1.15
4717.00,1.15
4716.00,1.15
4715.00,1.16
4714.00,1.16
4713.00,1.16
4712.00,1.16
4711.00,1.17
4710.00,1.17
4709.00,1.17
4708.00,1.17
4707.00,1.18
4706.00,1.18
4705.00,1.18
4704.00,1.18
4703.00,1.18
4702.00,1.18
4701.00,1.18
4700.00,1.18
4699.00,1.18
4698.00,1.18
4697.00,1.18
4696.00,1.18
4695.00,1.18
4694.00,1.18
4693.00,1.18
4692.00,1.18
4691.00,1.18
4690.00,1.18
4689.00,1.18
4688.00,1.18
4687.00,1.19
4686.00,1.19
4685.00,1.19
4684.00,1.19
4683.00,1.19
4682.00,1.20
4681.00,1.20
4680.00,1.20
4679.00,1.20
4678.00,1.21
4677.00,1.21
4676.00,1.21
4675.00,1.22
4674.00,1.22
4673.00,1.22
4672.00,1.22
4671.00,1.22
4670.00,1.23
4669.00,1.23
4668.00,1.23
4667.00,1.23
4666.00,1.23
4665.00,1.24
4664.00,1.24
4663.00,1.24
4662.00,1.24
4661.00,1.24
4660.00,1.24
4659.00,1.25
4658.00,1.25
4657.00,1.25
4656.00,1.25
4655.00,1.25
4654.00,1.25
4653.00,1.25
4652.00,1.26
4651.00,1.26
4650.00,1.26
4649.00,1.26
4648.00,1.26
4647.00,1.26
4646.00,1.26
4645.00,1.27
4644.00,1.27
4643.00,1.27
4642.00,1.27
4641.00,1.27
4640.00,1.27
4639.00,1.28
4638.00,1.28
4637.00,1.28
4636.00,1.28
4635.00,1.28
4634.00,1.29
4633.00,1.29
4632.00,1.29
4631.00,1.29
4630.00,1.29
4629.00,1.30
4628.00,1.30
4627.00,1.30
4626.00,1.30
4625.00,1.31
4624.00,1.31
4623.00,1.31
4622.00,1.31
4621.00,1.31
4620.00,1.32
4619.00,1.32
4618.00,1.32
4617.00,1.32
4616.00,1.32
4615.00,1.32
4614.00,1.32
4613.00,1.32
4612.00,1.32
4611.00,1.32
4610.00,1.32
4609.00,1.32
4608.00,1.32
4607.00,1.32
4606.00,1.32
4605.00,1.32
4604.00,1.32
4603.00,1.32
4602.00,1.32
4601.00,1.32
4600.00,1.32
4599.00,1.32
4598.00,1.33
4597.00,1.33
4596.00,1.33
4595.00,1.33
4594.00,1.34
4593.00,1.34
4592.00,1.34
4591.00,1.35
4590.00,1.35
4589.00,1.35
4588.00,1.35
4587.00,1.36
4586.00,1.36
4585.00,1.36
4584.00,1.36
4583.00,1.36
4582.00,1.36
4581.00,1.36
4580.00,1.36
4579.00,1.36
4578.00,1.36
4577.00,1.36
4576.00,1.36
4575.00,1.36
4574.00,1.36
4573.00,1.36
4572.00,1.36
4571.00,1.36
4570.00,1.36
4569.00,1.36
4568.00,1.36
4567.00,1.36
4566.00,1.36
4565.00,1.36
4564.00,1.36
4563.00,1.37
4562.00,1.37
4561.00,1.37
4560.00,1.37
4559.00,1.37
4558.00,1.37
4557.00,1.37
4556.00,1.37
4555.00,1.38
4554.00,1.38
4553.00,1.38
4552.00,1.38
4551.00,1.38
4550.00,1.38
4549.00,1.38
4548.00,1.38
4547.00,1.38
4546.00,1.39
4545.00,1.39
4544.00,1.39
4543.00,1.39
4542.00,1.39
4541.00,1.39
4540.00,1.39
4539.00,1.39
4538.00,1.39
4537.00,1.39
4536.00,1.39
4535.00,1.39
4534.00,1.39
4533.00,1.38
4532.00,1.38
4531.00,1.38
4530.00,1.38
4529.00,1.38
4528.00,1.38
4527.00,1.38
4526.00,1.38
4525.00,1.38
4524.00,1.38
4523.00,1.38
4522.00,1.38
4521.00,1.38
4520.00,1.39
4519.00,1.39
4518.00,1.39
4517.00,1.39
4516.00,1.39
4515.00,1.39
4514.00,1.40
4513.00,1.40
4512.00,1.40
4511.00,1.40
4510.00,1.40
4509.00,1.40
4508.00,1.40
4507.00,1.40
4506.00,1.41
4505.00,1.41
4504.00,1.41
4503.00,1.41
4502.00,1.41
4501.00,1.41
4500.00,1.41
4499.00,1.41
4498.00,1.41
4497.00,1.41
4496.00,1.41
4495.00,1.41
4494.00,1.41
4493.00,1.41
4492.00,1.41
4491.00,1.41
4490.00,1.41
4489.00,1.41
4488.00,1.41
4487.00,1.41
4486.00,1.40
4485.00,1.40
4484.00,1.40
4483.00,1.40
4482.00,1.40
4481.00,1.39
4480.00,1.39
4479.00,1.39
4478.00,1.39
4477.00,1.38
4476.00,1.38
4475.00,1.38
4474.00,1.37
4473.00,1.37
4472.00,1.37
4471.00,1.36
4470.00,1.36
4469.00,1.36
4468.00,1.36
4467.00,1.35
4466.00,1.35
4465.00,1.35
4464.00,1.35
4463.00,1.34
4462.00,1.34
4461.00,1.34
4460.00,1.34
4459.00,1.34
4458.00,1.33
4457.00,1.33
4456.00,1.33
4455.00,1.33
4454.00,1.33
4453.00,1.32
4452.00,1.32
4451.00,1.32
4450.00,1.32
4449.00,1.31
4448.00,1.31
4447.00,1.31
4446.00,1.30
4445.00,1.30
4444.00,1.29
4443.00,1.29
4442.00,1.29
4441.00,1.28
4440.00,1.28
4439.00,1.27
4438.00,1.27
4437.00,1.27
4436.00,1.26
4435.00,1.26
4434.00,1.26
4433.00,1.26
4432.00,1.25
4431.00,1.25
4430.00,1.25
4429.00,1.25
4428.00,1.24
4427.00,1.24
4426.00,1.24
4425.00,1.23
4424.00,1.23
4423.00,1.23
4422.00,1.23
4421.00,1.22
4420.00,1.22
4419.00,1.22
4418.00,1.22
4417.00,1.22
4416.00,1.22
4415.00,1.21
4414.00,1.21
4413.00,1.21
4412.00,1.22
4411.00,1.22
4410.00,1.22
4409.00,1.22
4408.00,1.22
4407.00,1.22
4406.00,1.22
4405.00,1.23
4404.00,1.23
4403.00,1.23
4402.00,1.23
4401.00,1.24
4400.00,1.24
4399.00,1.24
4398.00,1.24
4397.00,1.24
4396.00,1.24
4395.00,1.25
4394.00,1.25
4393.00,1.25
4392.00,1.25
4391.00,1.25
4390.00,1.25
4389.00,1.25
4388.00,1.25
4387.00,1.25
4386.00,1.25
4385.00,1.25
4384.00,1.25
4383.00,1.25
4382.00,1.25
4381.00,1.25
4380.00,1.25
4379.00,1.25
4378.00,1.25
4377.00,1.25
4376.00,1.25
4375.00,1.25
4374.00,1.25
4373.00,1.25
4372.00,1.25
4371.00,1.25
4370.00,1.26
4369.00,1.26
4368.00,1.26
4367.00,1.26
4366.00,1.26
4365.00,1.26
4364.00,1.26
4363.00,1.27
4362.00,1.27
4361.00,1.27
4360.00,1.27
4359.00,1.27
4358.00,1.27
4357.00,1.27
4356.00,1.27
4355.00,1.27
4354.00,1.27
4353.00,1.27
4352.00,1.27
4351.00,1.27
4350.00,1.28
4349.00,1.28
4348.00,1.28
4347.00,1.28
4346.00,1.28
4345.00,1.28
4344.00,1.28
4343.00,1.28
4342.00,1.28
4341.00,1.28
4340.00,1.28
4339.00,1.28
4338.00,1.28
4337.00,1.28
4336.00,1.28
4335.00,1.28
4334.00,1.29
4333.00,1.29
4332.00,1.29
4331.00,1.29
4330.00,1.29
4329.00,1.29
4328.00,1.29
4327.00,1.30
4326.00,1.30
4325.00,1.30
4324.00,1.30
4323.00,1.30
4322.00,1.31
4321.00,1.31
4320.00,1.31
4319.00,1.31
4318.00,1.32
4317.00,1.32
4316.00,1.32
4315.00,1.33
4314.00,1.33
4313.00,1.33
4312.00,1.33
4311.00,1.34
4310.00,1.34
4309.00,1.34
4308.00,1.35
4307.00,1.35
4306.00,1.35
4305.00,1.35
4304.00,1.35
4303.00,1.36
4302.00,1.36
4301.00,1.36
4300.00,1.36
4299.00,1.36
4298.00,1.36
4297.00,1.36
4296.00,1.36
4295.00,1.36
4294.00,1.36
4293.00,1.36
4292.00,1.36
4291.00,1.36
4290.00,1.36
4289.00,1.36
4288.00,1.36
4287.00,1.36
4286.00,1.36
4285.00,1.37
4284.00,1.37
4283.00,1.37
4282.00,1.37
4281.00,1.37
4280.00,1.37
4279.00,1.37
4278.00,1.37
4277.00,1.37
4276.00,1.37
4275.00,1.37
4274.00,1.37
4273.00,1.38
4272.00,1.38
4271.00,1.38
4270.00,1.38
4269.00,1.38
4268.00,1.38
4267.00,1.38
4266.00,1.38
4265.00,1.38
4264.00,1.38
4263.00,1.38
4262.00,1.38
4261.00,1.38
4260.00,1.37
4259.00,1.37
4258.00,1.37
4257.00,1.37
4256.00,1.37
4255.00,1.37
4254.00,1.37
4253.00,1.37
4252.00,1.37
4251.00,1.37
4250.00,1.37
4249.00,1.37
4248.00,1.37
4247.00,1.37
4246.00,1.37
4245.00,1.37
4244.00,1.38
4243.00,1.38
4242.00,1.38
4241.00,1.38
4240.00,1.38
4239.00,1.38
4238.00,1.38
4237.00,1.38
4236.00,1.38
4235.00,1.39
4234.00,1.39
4233.00,1.39
4232.00,1.39
4231.00,1.39
4230.00,1.39
4229.00,1.39
4228.00,1.39
4227.00,1.39
4226.00,1.40
4225.00,1.40
4224.00,1.40
4223.00,1.40
4222.00,1.40
4221.00,1.41
4220.00,1.41
4219.00,1.41
4218.00,1.41
4217.00,1.41
4216.00,1.41
4215.00,1.42
4214.00,1.42
4213.00,1.42
4212.00,1.42
4211.00,1.42
4210.00,1.42
4209.00,1.42
4208.00,1.42
4207.00,1.43
4206.00,1.43
4205.00,1.43
4204.00,1.43
4203.00,1.42
4202.00,1.42
4201.00,1.42
4200.00,1.42
4199.00,1.42
4198.00,1.42
4197.00,1.42
4196.00,1.42
4195.00,1.42
4194.00,1.42
4193.00,1.42
4192.00,1.42
4191.00,1.42
4190.00,1.42
4189.00,1.42
4188.00,1.42
4187.00,1.42
4186.00,1.42
4185.00,1.42
4184.00,1.42
4183.00,1.42
4182.00,1.42
4181.00,1.43
4180.00,1.43
4179.00,1.43
4178.00,1.43
4177.00,1.43
4176.00,1.43
4175.00,1.43
4174.00,1.43
4173.00,1.43
4172.00,1.44
4171.00,1.44
4170.00,1.44
4169.00,1.44
4168.00,1.44
4167.00,1.44
4166.00,1.44
4165.00,1.44
4164.00,1.44
4163.00,1.45
4162.00,1.45
4161.00,1.45
4160.00,1.45
4159.00,1.46
4158.00,1.46
4157.00,1.46
4156.00,1.46
4155.00,1.47
4154.00,1.47
4153.00,1.47
4152.00,1.47
4151.00,1.47
4150.00,1.48
4149.00,1.48
4148.00,1.48
4147.00,1.48
4146.00,1.48
4145.00,1.48
4144.00,1.48
4143.00,1.47
4142.00,1.47
4141.00,1.47
4140.00,1.47
4139.00,1.47
4138.00,1.47
4137.00,1.47
4136.00,1.47
4135.00,1.47
4134.00,1.47
4133.00,1.47
4132.00,1.47
4131.00,1.47
4130.00,1.47
4129.00,1.47
4128.00,1.47
4127.00,1.47
4126.00,1.47
4125.00,1.47
4124.00,1.47
4123.00,1.47
4122.00,1.48
4121.00,1.48
4120.00,1.48
4119.00,1.48
4118.00,1.48
4117.00,1.48
4116.00,1.48
4115.00,1.49
4114.00,1.49
4113.00,1.49
4112.00,1.49
4111.00,1.49
4110.00,1.49
4109.00,1.49
4108.00,1.49
4107.00,1.49
4106.00,1.49
4105.00,1.49
4104.00,1.49
4103.00,1.49
4102.00,1.49
4101.00,1.49
4100.00,1.49
4099.00,1.49
4098.00,1.50
4097.00,1.50
4096.00,1.50
4095.00,1.50
4094.00,1.50
4093.00,1.51
4092.00,1.51
4091.00,1.51
4090.00,1.52
4089.00,1.52
4088.00,1.52
4087.00,1.53
4086.00,1.53
4085.00,1.53
4084.00,1.53
4083.00,1.53
4082.00,1.53
4081.00,1.53
4080.00,1.53
4079.00,1.53
4078.00,1.53
4077.00,1.53
4076.00,1.53
4075.00,1.53
4074.00,1.53
4073.00,1.53
4072.00,1.52
4071.00,1.52
4070.00,1.52
4069.00,1.52
4068.00,1.52
4067.00,1.52
4066.00,1.52
4065.00,1.52
4064.00,1.52
4063.00,1.52
4062.00,1.52
4061.00,1.52
4060.00,1.52
4059.00,1.53
4058.00,1.53
4057.00,1.53
4056.00,1.54
4055.00,1.54
4054.00,1.54
4053.00,1.55
4052.00,1.55
4051.00,1.55
4050.00,1.56
4049.00,1.56
4048.00,1.56
4047.00,1.56
4046.00,1.56
4045.00,1.56
4044.00,1.56
4043.00,1.56
4042.00,1.56
4041.00,1.56
4040.00,1.56
4039.00,1.55
4038.00,1.55
4037.00,1.55
4036.00,1.55
4035.00,1.55
4034.00,1.55
4033.00,1.55
4032.00,1.55
4031.00,1.55
4030.00,1.55
4029.00,1.55
4028.00,1.55
4027.00,1.56
4026.00,1.56
4025.00,1.56
4024.00,1.56
4023.00,1.56
4022.00,1.56
4021.00,1.56
4020.00,1.56
4019.00,1.56
4018.00,1.56
4017.00,1.56
4016.00,1.56
4015.00,1.56
4014.00,1.56
4013.00,1.56
4012.00,1.56
4011.00,1.56
4010.00,1.56
4009.00,1.56
4008.00,1.56
4007.00,1.56
4006.00,1.56
4005.00,1.56
4004.00,1.56
4003.00,1.56
4002.00,1.57
4001.00,1.57
4000.00,1.57
