创建为新数据集,样品 306 用户 Administrator 日期 星期四, 三月 08 2018
cm-1,%T
10000.00,1.06
9999.00,1.06
9998.00,1.06
9997.00,1.06
9996.00,1.06
9995.00,1.06
9994.00,1.06
9993.00,1.06
9992.00,1.06
9991.00,1.06
9990.00,1.06
9989.00,1.06
9988.00,1.06
9987.00,1.06
9986.00,1.06
9985.00,1.06
9984.00,1.05
9983.00,1.05
9982.00,1.05
9981.00,1.05
9980.00,1.05
9979.00,1.05
9978.00,1.05
9977.00,1.05
9976.00,1.05
9975.00,1.04
9974.00,1.04
9973.00,1.04
9972.00,1.04
9971.00,1.04
9970.00,1.04
9969.00,1.04
9968.00,1.04
9967.00,1.04
9966.00,1.04
9965.00,1.03
9964.00,1.03
9963.00,1.03
9962.00,1.03
9961.00,1.03
9960.00,1.03
9959.00,1.03
9958.00,1.04
9957.00,1.04
9956.00,1.04
9955.00,1.04
9954.00,1.04
9953.00,1.05
9952.00,1.05
9951.00,1.05
9950.00,1.05
9949.00,1.05
9948.00,1.06
9947.00,1.06
9946.00,1.06
9945.00,1.06
9944.00,1.06
9943.00,1.06
9942.00,1.06
9941.00,1.06
9940.00,1.06
9939.00,1.05
9938.00,1.05
9937.00,1.05
9936.00,1.05
9935.00,1.04
9934.00,1.04
9933.00,1.04
9932.00,1.04
9931.00,1.03
9930.00,1.03
9929.00,1.03
9928.00,1.03
9927.00,1.03
9926.00,1.03
9925.00,1.03
9924.00,1.03
9923.00,1.03
9922.00,1.03
9921.00,1.03
9920.00,1.03
9919.00,1.03
9918.00,1.03
9917.00,1.03
9916.00,1.03
9915.00,1.03
9914.00,1.03
9913.00,1.03
9912.00,1.03
9911.00,1.03
9910.00,1.02
9909.00,1.02
9908.00,1.02
9907.00,1.02
9906.00,1.01
9905.00,1.01
9904.00,1.01
9903.00,1.01
9902.00,1.01
9901.00,1.00
9900.00,1.00
9899.00,1.00
9898.00,1.01
9897.00,1.01
9896.00,1.01
9895.00,1.01
9894.00,1.01
9893.00,1.01
9892.00,1.02
9891.00,1.02
9890.00,1.02
9889.00,1.02
9888.00,1.03
9887.00,1.03
9886.00,1.03
9885.00,1.03
9884.00,1.03
9883.00,1.03
9882.00,1.03
9881.00,1.03
9880.00,1.03
9879.00,1.03
9878.00,1.03
9877.00,1.02
9876.00,1.02
9875.00,1.02
9874.00,1.02
9873.00,1.02
9872.00,1.02
9871.00,1.02
9870.00,1.02
9869.00,1.02
9868.00,1.02
9867.00,1.02
9866.00,1.03
9865.00,1.03
9864.00,1.03
9863.00,1.03
9862.00,1.04
9861.00,1.04
9860.00,1.04
9859.00,1.04
9858.00,1.04
9857.00,1.04
9856.00,1.04
9855.00,1.05
9854.00,1.05
9853.00,1.05
9852.00,1.04
9851.00,1.04
9850.00,1.04
9849.00,1.04
9848.00,1.04
9847.00,1.04
9846.00,1.04
9845.00,1.03
9844.00,1.03
9843.00,1.03
9842.00,1.03
9841.00,1.03
9840.00,1.03
9839.00,1.03
9838.00,1.03
9837.00,1.03
9836.00,1.03
9835.00,1.03
9834.00,1.03
9833.00,1.03
9832.00,1.03
9831.00,1.03
9830.00,1.03
9829.00,1.03
9828.00,1.03
9827.00,1.03
9826.00,1.03
9825.00,1.03
9824.00,1.03
9823.00,1.03
9822.00,1.03
9821.00,1.03
9820.00,1.03
9819.00,1.03
9818.00,1.03
9817.00,1.03
9816.00,1.04
9815.00,1.04
9814.00,1.04
9813.00,1.04
9812.00,1.04
9811.00,1.05
9810.00,1.05
9809.00,1.05
9808.00,1.05
9807.00,1.05
9806.00,1.05
9805.00,1.05
9804.00,1.05
9803.00,1.05
9802.00,1.05
9801.00,1.05
9800.00,1.05
9799.00,1.05
9798.00,1.05
9797.00,1.05
9796.00,1.05
9795.00,1.05
9794.00,1.05
9793.00,1.05
9792.00,1.05
9791.00,1.05
9790.00,1.05
9789.00,1.05
9788.00,1.04
9787.00,1.04
9786.00,1.04
9785.00,1.04
9784.00,1.04
9783.00,1.04
9782.00,1.03
9781.00,1.03
9780.00,1.03
9779.00,1.03
9778.00,1.03
9777.00,1.03
9776.00,1.03
9775.00,1.03
9774.00,1.03
9773.00,1.02
9772.00,1.02
9771.00,1.02
9770.00,1.02
9769.00,1.02
9768.00,1.02
9767.00,1.01
9766.00,1.01
9765.00,1.01
9764.00,1.01
9763.00,1.00
9762.00,1.00
9761.00,1.00
9760.00,1.00
9759.00,1.00
9758.00,1.00
9757.00,1.00
9756.00,1.00
9755.00,1.00
9754.00,1.00
9753.00,1.00
9752.00,1.01
9751.00,1.01
9750.00,1.01
9749.00,1.02
9748.00,1.02
9747.00,1.02
9746.00,1.03
9745.00,1.03
9744.00,1.03
9743.00,1.03
9742.00,1.04
9741.00,1.04
9740.00,1.04
9739.00,1.04
9738.00,1.04
9737.00,1.04
9736.00,1.04
9735.00,1.04
9734.00,1.04
9733.00,1.04
9732.00,1.04
9731.00,1.04
9730.00,1.04
9729.00,1.04
9728.00,1.04
9727.00,1.04
9726.00,1.04
9725.00,1.04
9724.00,1.03
9723.00,1.03
9722.00,1.03
9721.00,1.03
9720.00,1.03
9719.00,1.03
9718.00,1.03
9717.00,1.03
9716.00,1.03
9715.00,1.03
9714.00,1.03
9713.00,1.03
9712.00,1.03
9711.00,1.03
9710.00,1.02
9709.00,1.02
9708.00,1.02
9707.00,1.02
9706.00,1.02
9705.00,1.02
9704.00,1.02
9703.00,1.02
9702.00,1.02
9701.00,1.02
9700.00,1.02
9699.00,1.02
9698.00,1.02
9697.00,1.03
9696.00,1.03
9695.00,1.03
9694.00,1.03
9693.00,1.04
9692.00,1.04
9691.00,1.04
9690.00,1.04
9689.00,1.05
9688.00,1.05
9687.00,1.05
9686.00,1.05
9685.00,1.06
9684.00,1.06
9683.00,1.06
9682.00,1.06
9681.00,1.06
9680.00,1.06
9679.00,1.06
9678.00,1.06
9677.00,1.06
9676.00,1.05
9675.00,1.05
9674.00,1.05
9673.00,1.05
9672.00,1.05
9671.00,1.04
9670.00,1.04
9669.00,1.04
9668.00,1.04
9667.00,1.04
9666.00,1.04
9665.00,1.04
9664.00,1.04
9663.00,1.04
9662.00,1.04
9661.00,1.04
9660.00,1.04
9659.00,1.04
9658.00,1.04
9657.00,1.04
9656.00,1.04
9655.00,1.04
9654.00,1.04
9653.00,1.04
9652.00,1.04
9651.00,1.04
9650.00,1.04
9649.00,1.04
9648.00,1.04
9647.00,1.04
9646.00,1.04
9645.00,1.04
9644.00,1.04
9643.00,1.04
9642.00,1.04
9641.00,1.03
9640.00,1.03
9639.00,1.03
9638.00,1.03
9637.00,1.03
9636.00,1.03
9635.00,1.03
9634.00,1.03
9633.00,1.02
9632.00,1.02
9631.00,1.02
9630.00,1.02
9629.00,1.02
9628.00,1.02
9627.00,1.02
9626.00,1.02
9625.00,1.02
9624.00,1.02
9623.00,1.02
9622.00,1.02
9621.00,1.02
9620.00,1.02
9619.00,1.02
9618.00,1.02
9617.00,1.02
9616.00,1.03
9615.00,1.03
9614.00,1.03
9613.00,1.03
9612.00,1.03
9611.00,1.03
9610.00,1.03
9609.00,1.04
9608.00,1.04
9607.00,1.04
9606.00,1.04
9605.00,1.04
9604.00,1.05
9603.00,1.05
9602.00,1.05
9601.00,1.05
9600.00,1.05
9599.00,1.05
9598.00,1.05
9597.00,1.05
9596.00,1.05
9595.00,1.05
9594.00,1.04
9593.00,1.04
9592.00,1.04
9591.00,1.04
9590.00,1.04
9589.00,1.04
9588.00,1.04
9587.00,1.04
9586.00,1.04
9585.00,1.04
9584.00,1.04
9583.00,1.03
9582.00,1.03
9581.00,1.03
9580.00,1.03
9579.00,1.03
9578.00,1.03
9577.00,1.03
9576.00,1.03
9575.00,1.03
9574.00,1.03
9573.00,1.03
9572.00,1.03
9571.00,1.03
9570.00,1.03
9569.00,1.03
9568.00,1.03
9567.00,1.03
9566.00,1.03
9565.00,1.03
9564.00,1.03
9563.00,1.03
9562.00,1.03
9561.00,1.03
9560.00,1.03
9559.00,1.03
9558.00,1.04
9557.00,1.04
9556.00,1.04
9555.00,1.04
9554.00,1.04
9553.00,1.04
9552.00,1.05
9551.00,1.05
9550.00,1.05
9549.00,1.05
9548.00,1.05
9547.00,1.06
9546.00,1.06
9545.00,1.06
9544.00,1.06
9543.00,1.06
9542.00,1.06
9541.00,1.06
9540.00,1.06
9539.00,1.06
9538.00,1.06
9537.00,1.06
9536.00,1.06
9535.00,1.06
9534.00,1.06
9533.00,1.06
9532.00,1.06
9531.00,1.06
9530.00,1.06
9529.00,1.06
9528.00,1.06
9527.00,1.06
9526.00,1.06
9525.00,1.06
9524.00,1.06
9523.00,1.06
9522.00,1.06
9521.00,1.05
9520.00,1.05
9519.00,1.05
9518.00,1.05
9517.00,1.05
9516.00,1.05
9515.00,1.05
9514.00,1.04
9513.00,1.04
9512.00,1.04
9511.00,1.04
9510.00,1.04
9509.00,1.03
9508.00,1.03
9507.00,1.03
9506.00,1.03
9505.00,1.03
9504.00,1.03
9503.00,1.03
9502.00,1.02
9501.00,1.02
9500.00,1.02
9499.00,1.02
9498.00,1.02
9497.00,1.02
9496.00,1.01
9495.00,1.01
9494.00,1.01
9493.00,1.01
9492.00,1.00
9491.00,1.00
9490.00,1.00
9489.00,1.00
9488.00,1.00
9487.00,1.00
9486.00,1.00
9485.00,1.00
9484.00,1.00
9483.00,1.00
9482.00,1.00
9481.00,1.00
9480.00,1.00
9479.00,1.00
9478.00,1.00
9477.00,1.00
9476.00,1.01
9475.00,1.01
9474.00,1.01
9473.00,1.01
9472.00,1.01
9471.00,1.02
9470.00,1.02
9469.00,1.02
9468.00,1.02
9467.00,1.02
9466.00,1.02
9465.00,1.02
9464.00,1.02
9463.00,1.03
9462.00,1.03
9461.00,1.03
9460.00,1.03
9459.00,1.03
9458.00,1.02
9457.00,1.02
9456.00,1.02
9455.00,1.02
9454.00,1.02
9453.00,1.02
9452.00,1.02
9451.00,1.02
9450.00,1.02
9449.00,1.02
9448.00,1.02
9447.00,1.02
9446.00,1.02
9445.00,1.02
9444.00,1.03
9443.00,1.03
9442.00,1.03
9441.00,1.03
9440.00,1.03
9439.00,1.04
9438.00,1.04
9437.00,1.04
9436.00,1.04
9435.00,1.04
9434.00,1.04
9433.00,1.04
9432.00,1.04
9431.00,1.04
9430.00,1.04
9429.00,1.04
9428.00,1.04
9427.00,1.04
9426.00,1.04
9425.00,1.04
9424.00,1.04
9423.00,1.04
9422.00,1.04
9421.00,1.04
9420.00,1.04
9419.00,1.04
9418.00,1.03
9417.00,1.03
9416.00,1.03
9415.00,1.03
9414.00,1.03
9413.00,1.03
9412.00,1.03
9411.00,1.04
9410.00,1.04
9409.00,1.04
9408.00,1.04
9407.00,1.04
9406.00,1.04
9405.00,1.04
9404.00,1.04
9403.00,1.04
9402.00,1.04
9401.00,1.04
9400.00,1.04
9399.00,1.04
9398.00,1.04
9397.00,1.04
9396.00,1.04
9395.00,1.04
9394.00,1.04
9393.00,1.04
9392.00,1.04
9391.00,1.03
9390.00,1.03
9389.00,1.03
9388.00,1.03
9387.00,1.03
9386.00,1.03
9385.00,1.03
9384.00,1.03
9383.00,1.03
9382.00,1.03
9381.00,1.03
9380.00,1.03
9379.00,1.03
9378.00,1.03
9377.00,1.03
9376.00,1.03
9375.00,1.02
9374.00,1.02
9373.00,1.02
9372.00,1.02
9371.00,1.02
9370.00,1.02
9369.00,1.02
9368.00,1.02
9367.00,1.02
9366.00,1.02
9365.00,1.02
9364.00,1.02
9363.00,1.02
9362.00,1.02
9361.00,1.03
9360.00,1.03
9359.00,1.03
9358.00,1.03
9357.00,1.03
9356.00,1.04
9355.00,1.04
9354.00,1.04
9353.00,1.04
9352.00,1.05
9351.00,1.05
9350.00,1.05
9349.00,1.05
9348.00,1.05
9347.00,1.06
9346.00,1.06
9345.00,1.06
9344.00,1.06
9343.00,1.06
9342.00,1.06
9341.00,1.06
9340.00,1.05
9339.00,1.05
9338.00,1.05
9337.00,1.05
9336.00,1.05
9335.00,1.04
9334.00,1.04
9333.00,1.04
9332.00,1.04
9331.00,1.03
9330.00,1.03
9329.00,1.03
9328.00,1.03
9327.00,1.03
9326.00,1.03
9325.00,1.03
9324.00,1.03
9323.00,1.03
9322.00,1.03
9321.00,1.03
9320.00,1.03
9319.00,1.03
9318.00,1.03
9317.00,1.03
9316.00,1.03
9315.00,1.03
9314.00,1.03
9313.00,1.03
9312.00,1.03
9311.00,1.03
9310.00,1.03
9309.00,1.03
9308.00,1.03
9307.00,1.03
9306.00,1.03
9305.00,1.03
9304.00,1.03
9303.00,1.03
9302.00,1.02
9301.00,1.02
9300.00,1.02
9299.00,1.02
9298.00,1.02
9297.00,1.02
9296.00,1.02
9295.00,1.02
9294.00,1.02
9293.00,1.02
9292.00,1.02
9291.00,1.02
9290.00,1.02
9289.00,1.02
9288.00,1.02
9287.00,1.01
9286.00,1.01
9285.00,1.01
9284.00,1.01
9283.00,1.01
9282.00,1.01
9281.00,1.01
9280.00,1.02
9279.00,1.02
9278.00,1.02
9277.00,1.02
9276.00,1.02
9275.00,1.02
9274.00,1.02
9273.00,1.02
9272.00,1.03
9271.00,1.03
9270.00,1.03
9269.00,1.03
9268.00,1.03
9267.00,1.03
9266.00,1.03
9265.00,1.03
9264.00,1.03
9263.00,1.03
9262.00,1.03
9261.00,1.03
9260.00,1.03
9259.00,1.03
9258.00,1.03
9257.00,1.03
9256.00,1.04
9255.00,1.04
9254.00,1.04
9253.00,1.04
9252.00,1.04
9251.00,1.04
9250.00,1.05
9249.00,1.05
9248.00,1.05
9247.00,1.05
9246.00,1.05
9245.00,1.05
9244.00,1.05
9243.00,1.05
9242.00,1.05
9241.00,1.05
9240.00,1.05
9239.00,1.06
9238.00,1.06
9237.00,1.06
9236.00,1.06
9235.00,1.06
9234.00,1.06
9233.00,1.06
9232.00,1.06
9231.00,1.06
9230.00,1.06
9229.00,1.06
9228.00,1.06
9227.00,1.06
9226.00,1.06
9225.00,1.05
9224.00,1.05
9223.00,1.05
9222.00,1.05
9221.00,1.04
9220.00,1.04
9219.00,1.04
9218.00,1.04
9217.00,1.03
9216.00,1.03
9215.00,1.03
9214.00,1.03
9213.00,1.03
9212.00,1.03
9211.00,1.03
9210.00,1.03
9209.00,1.03
9208.00,1.03
9207.00,1.03
9206.00,1.03
9205.00,1.03
9204.00,1.03
9203.00,1.04
9202.00,1.04
9201.00,1.04
9200.00,1.04
9199.00,1.04
9198.00,1.04
9197.00,1.04
9196.00,1.04
9195.00,1.04
9194.00,1.04
9193.00,1.04
9192.00,1.04
9191.00,1.04
9190.00,1.04
9189.00,1.04
9188.00,1.04
9187.00,1.04
9186.00,1.04
9185.00,1.04
9184.00,1.04
9183.00,1.04
9182.00,1.04
9181.00,1.04
9180.00,1.04
9179.00,1.04
9178.00,1.04
9177.00,1.04
9176.00,1.04
9175.00,1.04
9174.00,1.04
9173.00,1.04
9172.00,1.04
9171.00,1.04
9170.00,1.04
9169.00,1.04
9168.00,1.04
9167.00,1.04
9166.00,1.04
9165.00,1.04
9164.00,1.04
9163.00,1.04
9162.00,1.04
9161.00,1.04
9160.00,1.04
9159.00,1.04
9158.00,1.04
9157.00,1.04
9156.00,1.04
9155.00,1.04
9154.00,1.04
9153.00,1.04
9152.00,1.04
9151.00,1.04
9150.00,1.04
9149.00,1.04
9148.00,1.04
9147.00,1.03
9146.00,1.03
9145.00,1.03
9144.00,1.03
9143.00,1.03
9142.00,1.02
9141.00,1.02
9140.00,1.02
9139.00,1.02
9138.00,1.01
9137.00,1.01
9136.00,1.01
9135.00,1.01
9134.00,1.01
9133.00,1.01
9132.00,1.01
9131.00,1.01
9130.00,1.00
9129.00,1.01
9128.00,1.01
9127.00,1.01
9126.00,1.01
9125.00,1.01
9124.00,1.01
9123.00,1.01
9122.00,1.01
9121.00,1.01
9120.00,1.02
9119.00,1.02
9118.00,1.02
9117.00,1.02
9116.00,1.02
9115.00,1.02
9114.00,1.03
9113.00,1.03
9112.00,1.03
9111.00,1.03
9110.00,1.03
9109.00,1.03
9108.00,1.03
9107.00,1.03
9106.00,1.03
9105.00,1.03
9104.00,1.03
9103.00,1.03
9102.00,1.03
9101.00,1.02
9100.00,1.02
9099.00,1.02
9098.00,1.02
9097.00,1.02
9096.00,1.02
9095.00,1.01
9094.00,1.01
9093.00,1.01
9092.00,1.01
9091.00,1.02
9090.00,1.02
9089.00,1.02
9088.00,1.02
9087.00,1.02
9086.00,1.02
9085.00,1.03
9084.00,1.03
9083.00,1.03
9082.00,1.03
9081.00,1.03
9080.00,1.03
9079.00,1.04
9078.00,1.04
9077.00,1.04
9076.00,1.04
9075.00,1.04
9074.00,1.04
9073.00,1.04
9072.00,1.04
9071.00,1.04
9070.00,1.04
9069.00,1.04
9068.00,1.04
9067.00,1.04
9066.00,1.04
9065.00,1.04
9064.00,1.04
9063.00,1.04
9062.00,1.04
9061.00,1.04
9060.00,1.04
9059.00,1.04
9058.00,1.04
9057.00,1.04
9056.00,1.04
9055.00,1.04
9054.00,1.04
9053.00,1.04
9052.00,1.04
9051.00,1.04
9050.00,1.04
9049.00,1.04
9048.00,1.04
9047.00,1.04
9046.00,1.04
9045.00,1.04
9044.00,1.04
9043.00,1.04
9042.00,1.04
9041.00,1.04
9040.00,1.04
9039.00,1.04
9038.00,1.04
9037.00,1.03
9036.00,1.03
9035.00,1.03
9034.00,1.03
9033.00,1.03
9032.00,1.03
9031.00,1.03
9030.00,1.03
9029.00,1.03
9028.00,1.03
9027.00,1.03
9026.00,1.03
9025.00,1.03
9024.00,1.03
9023.00,1.03
9022.00,1.03
9021.00,1.03
9020.00,1.03
9019.00,1.03
9018.00,1.03
9017.00,1.03
9016.00,1.03
9015.00,1.03
9014.00,1.03
9013.00,1.03
9012.00,1.03
9011.00,1.03
9010.00,1.03
9009.00,1.03
9008.00,1.03
9007.00,1.03
9006.00,1.03
9005.00,1.03
9004.00,1.03
9003.00,1.03
9002.00,1.03
9001.00,1.03
9000.00,1.03
8999.00,1.03
8998.00,1.03
8997.00,1.04
8996.00,1.04
8995.00,1.04
8994.00,1.04
8993.00,1.04
8992.00,1.04
8991.00,1.04
8990.00,1.04
8989.00,1.04
8988.00,1.04
8987.00,1.04
8986.00,1.04
8985.00,1.03
8984.00,1.03
8983.00,1.03
8982.00,1.03
8981.00,1.03
8980.00,1.03
8979.00,1.03
8978.00,1.03
8977.00,1.03
8976.00,1.02
8975.00,1.02
8974.00,1.02
8973.00,1.02
8972.00,1.02
8971.00,1.02
8970.00,1.02
8969.00,1.02
8968.00,1.02
8967.00,1.02
8966.00,1.02
8965.00,1.02
8964.00,1.02
8963.00,1.02
8962.00,1.02
8961.00,1.02
8960.00,1.02
8959.00,1.02
8958.00,1.02
8957.00,1.03
8956.00,1.03
8955.00,1.03
8954.00,1.03
8953.00,1.03
8952.00,1.03
8951.00,1.03
8950.00,1.03
8949.00,1.03
8948.00,1.03
8947.00,1.03
8946.00,1.03
8945.00,1.03
8944.00,1.03
8943.00,1.03
8942.00,1.03
8941.00,1.03
8940.00,1.03
8939.00,1.02
8938.00,1.02
8937.00,1.02
8936.00,1.02
8935.00,1.02
8934.00,1.01
8933.00,1.01
8932.00,1.01
8931.00,1.01
8930.00,1.01
8929.00,1.01
8928.00,1.01
8927.00,1.01
8926.00,1.01
8925.00,1.01
8924.00,1.01
8923.00,1.01
8922.00,1.01
8921.00,1.01
8920.00,1.01
8919.00,1.01
8918.00,1.01
8917.00,1.01
8916.00,1.02
8915.00,1.02
8914.00,1.02
8913.00,1.02
8912.00,1.02
8911.00,1.02
8910.00,1.02
8909.00,1.02
8908.00,1.02
8907.00,1.03
8906.00,1.03
8905.00,1.03
8904.00,1.03
8903.00,1.03
8902.00,1.03
8901.00,1.03
8900.00,1.04
8899.00,1.04
8898.00,1.04
8897.00,1.04
8896.00,1.04
8895.00,1.04
8894.00,1.04
8893.00,1.04
8892.00,1.04
8891.00,1.04
8890.00,1.04
8889.00,1.04
8888.00,1.04
8887.00,1.04
8886.00,1.03
8885.00,1.03
8884.00,1.03
8883.00,1.03
8882.00,1.03
8881.00,1.03
8880.00,1.03
8879.00,1.03
8878.00,1.03
8877.00,1.04
8876.00,1.04
8875.00,1.04
8874.00,1.04
8873.00,1.04
8872.00,1.05
8871.00,1.05
8870.00,1.05
8869.00,1.05
8868.00,1.06
8867.00,1.06
8866.00,1.06
8865.00,1.06
8864.00,1.06
8863.00,1.06
8862.00,1.06
8861.00,1.06
8860.00,1.05
8859.00,1.05
8858.00,1.05
8857.00,1.05
8856.00,1.05
8855.00,1.04
8854.00,1.04
8853.00,1.04
8852.00,1.04
8851.00,1.04
8850.00,1.03
8849.00,1.03
8848.00,1.03
8847.00,1.03
8846.00,1.03
8845.00,1.03
8844.00,1.03
8843.00,1.03
8842.00,1.03
8841.00,1.03
8840.00,1.03
8839.00,1.03
8838.00,1.03
8837.00,1.03
8836.00,1.03
8835.00,1.03
8834.00,1.02
8833.00,1.02
8832.00,1.02
8831.00,1.02
8830.00,1.02
8829.00,1.02
8828.00,1.02
8827.00,1.02
8826.00,1.02
8825.00,1.02
8824.00,1.02
8823.00,1.02
8822.00,1.02
8821.00,1.02
8820.00,1.02
8819.00,1.02
8818.00,1.02
8817.00,1.02
8816.00,1.02
8815.00,1.02
8814.00,1.02
8813.00,1.02
8812.00,1.02
8811.00,1.02
8810.00,1.02
8809.00,1.02
8808.00,1.02
8807.00,1.02
8806.00,1.02
8805.00,1.02
8804.00,1.02
8803.00,1.02
8802.00,1.02
8801.00,1.02
8800.00,1.02
8799.00,1.02
8798.00,1.02
8797.00,1.02
8796.00,1.02
8795.00,1.02
8794.00,1.02
8793.00,1.02
8792.00,1.02
8791.00,1.02
8790.00,1.02
8789.00,1.02
8788.00,1.02
8787.00,1.01
8786.00,1.01
8785.00,1.01
8784.00,1.01
8783.00,1.01
8782.00,1.01
8781.00,1.01
8780.00,1.00
8779.00,1.00
8778.00,1.00
8777.00,1.00
8776.00,1.00
8775.00,0.99
8774.00,0.99
8773.00,0.99
8772.00,0.99
8771.00,0.99
8770.00,0.99
8769.00,0.99
8768.00,0.98
8767.00,0.98
8766.00,0.98
8765.00,0.98
8764.00,0.98
8763.00,0.98
8762.00,0.98
8761.00,0.98
8760.00,0.98
8759.00,0.98
8758.00,0.98
8757.00,0.98
8756.00,0.99
8755.00,0.99
8754.00,0.99
8753.00,0.99
8752.00,0.99
8751.00,0.99
8750.00,0.99
8749.00,0.99
8748.00,0.99
8747.00,0.99
8746.00,0.99
8745.00,1.00
8744.00,1.00
8743.00,1.00
8742.00,1.00
8741.00,1.00
8740.00,1.00
8739.00,1.00
8738.00,1.00
8737.00,1.00
8736.00,1.00
8735.00,1.00
8734.00,1.00
8733.00,1.00
8732.00,1.00
8731.00,1.00
8730.00,1.00
8729.00,1.00
8728.00,1.00
8727.00,1.00
8726.00,1.00
8725.00,1.00
8724.00,1.00
8723.00,1.00
8722.00,1.00
8721.00,1.00
8720.00,1.00
8719.00,1.00
8718.00,1.00
8717.00,1.00
8716.00,1.00
8715.00,1.00
8714.00,1.00
8713.00,1.00
8712.00,1.00
8711.00,1.00
8710.00,1.00
8709.00,0.99
8708.00,0.99
8707.00,0.99
8706.00,0.99
8705.00,0.99
8704.00,0.99
8703.00,0.99
8702.00,0.99
8701.00,0.99
8700.00,0.99
8699.00,0.99
8698.00,0.99
8697.00,0.99
8696.00,0.99
8695.00,0.99
8694.00,0.99
8693.00,0.99
8692.00,0.98
8691.00,0.98
8690.00,0.98
8689.00,0.98
8688.00,0.98
8687.00,0.98
8686.00,0.98
8685.00,0.98
8684.00,0.98
8683.00,0.98
8682.00,0.98
8681.00,0.98
8680.00,0.98
8679.00,0.98
8678.00,0.98
8677.00,0.98
8676.00,0.98
8675.00,0.98
8674.00,0.98
8673.00,0.98
8672.00,0.98
8671.00,0.98
8670.00,0.98
8669.00,0.98
8668.00,0.98
8667.00,0.98
8666.00,0.98
8665.00,0.98
8664.00,0.98
8663.00,0.98
8662.00,0.99
8661.00,0.99
8660.00,0.99
8659.00,0.99
8658.00,0.99
8657.00,0.99
8656.00,1.00
8655.00,1.00
8654.00,1.00
8653.00,1.00
8652.00,1.00
8651.00,1.00
8650.00,1.00
8649.00,1.00
8648.00,1.00
8647.00,1.00
8646.00,1.00
8645.00,1.00
8644.00,1.00
8643.00,1.00
8642.00,1.00
8641.00,1.00
8640.00,0.99
8639.00,0.99
8638.00,0.99
8637.00,0.99
8636.00,0.99
8635.00,0.99
8634.00,0.99
8633.00,0.99
8632.00,0.99
8631.00,0.99
8630.00,0.99
8629.00,0.99
8628.00,0.99
8627.00,0.99
8626.00,0.99
8625.00,0.99
8624.00,0.99
8623.00,0.99
8622.00,0.99
8621.00,0.99
8620.00,0.98
8619.00,0.98
8618.00,0.98
8617.00,0.98
8616.00,0.98
8615.00,0.98
8614.00,0.98
8613.00,0.98
8612.00,0.98
8611.00,0.97
8610.00,0.97
8609.00,0.97
8608.00,0.97
8607.00,0.97
8606.00,0.97
8605.00,0.97
8604.00,0.97
8603.00,0.96
8602.00,0.96
8601.00,0.96
8600.00,0.96
8599.00,0.96
8598.00,0.96
8597.00,0.96
8596.00,0.96
8595.00,0.96
8594.00,0.96
8593.00,0.96
8592.00,0.96
8591.00,0.96
8590.00,0.96
8589.00,0.96
8588.00,0.96
8587.00,0.96
8586.00,0.96
8585.00,0.96
8584.00,0.96
8583.00,0.96
8582.00,0.96
8581.00,0.96
8580.00,0.96
8579.00,0.96
8578.00,0.96
8577.00,0.96
8576.00,0.97
8575.00,0.97
8574.00,0.97
8573.00,0.97
8572.00,0.97
8571.00,0.97
8570.00,0.97
8569.00,0.97
8568.00,0.98
8567.00,0.98
8566.00,0.98
8565.00,0.98
8564.00,0.98
8563.00,0.98
8562.00,0.98
8561.00,0.98
8560.00,0.98
8559.00,0.98
8558.00,0.97
8557.00,0.97
8556.00,0.97
8555.00,0.97
8554.00,0.97
8553.00,0.97
8552.00,0.97
8551.00,0.96
8550.00,0.96
8549.00,0.96
8548.00,0.96
8547.00,0.96
8546.00,0.96
8545.00,0.96
8544.00,0.96
8543.00,0.96
8542.00,0.96
8541.00,0.96
8540.00,0.96
8539.00,0.96
8538.00,0.96
8537.00,0.96
8536.00,0.96
8535.00,0.96
8534.00,0.96
8533.00,0.96
8532.00,0.96
8531.00,0.96
8530.00,0.96
8529.00,0.96
8528.00,0.96
8527.00,0.96
8526.00,0.96
8525.00,0.96
8524.00,0.96
8523.00,0.96
8522.00,0.96
8521.00,0.96
8520.00,0.96
8519.00,0.96
8518.00,0.96
8517.00,0.96
8516.00,0.96
8515.00,0.96
8514.00,0.96
8513.00,0.95
8512.00,0.95
8511.00,0.95
8510.00,0.95
8509.00,0.95
8508.00,0.95
8507.00,0.95
8506.00,0.95
8505.00,0.95
8504.00,0.95
8503.00,0.95
8502.00,0.95
8501.00,0.95
8500.00,0.95
8499.00,0.95
8498.00,0.95
8497.00,0.95
8496.00,0.95
8495.00,0.95
8494.00,0.94
8493.00,0.94
8492.00,0.94
8491.00,0.94
8490.00,0.94
8489.00,0.94
8488.00,0.94
8487.00,0.94
8486.00,0.94
8485.00,0.94
8484.00,0.93
8483.00,0.93
8482.00,0.93
8481.00,0.93
8480.00,0.93
8479.00,0.93
8478.00,0.93
8477.00,0.93
8476.00,0.93
8475.00,0.93
8474.00,0.92
8473.00,0.92
8472.00,0.92
8471.00,0.92
8470.00,0.92
8469.00,0.92
8468.00,0.92
8467.00,0.92
8466.00,0.92
8465.00,0.93
8464.00,0.93
8463.00,0.93
8462.00,0.93
8461.00,0.93
8460.00,0.93
8459.00,0.93
8458.00,0.93
8457.00,0.93
8456.00,0.93
8455.00,0.93
8454.00,0.93
8453.00,0.93
8452.00,0.93
8451.00,0.93
8450.00,0.93
8449.00,0.92
8448.00,0.92
8447.00,0.92
8446.00,0.92
8445.00,0.92
8444.00,0.92
8443.00,0.92
8442.00,0.92
8441.00,0.92
8440.00,0.92
8439.00,0.92
8438.00,0.92
8437.00,0.92
8436.00,0.92
8435.00,0.92
8434.00,0.92
8433.00,0.92
8432.00,0.92
8431.00,0.92
8430.00,0.92
8429.00,0.92
8428.00,0.92
8427.00,0.92
8426.00,0.92
8425.00,0.92
8424.00,0.92
8423.00,0.92
8422.00,0.92
8421.00,0.92
8420.00,0.92
8419.00,0.92
8418.00,0.92
8417.00,0.92
8416.00,0.92
8415.00,0.92
8414.00,0.92
8413.00,0.93
8412.00,0.93
8411.00,0.93
8410.00,0.93
8409.00,0.93
8408.00,0.93
8407.00,0.93
8406.00,0.94
8405.00,0.94
8404.00,0.94
8403.00,0.94
8402.00,0.94
8401.00,0.94
8400.00,0.94
8399.00,0.94
8398.00,0.94
8397.00,0.94
8396.00,0.94
8395.00,0.94
8394.00,0.94
8393.00,0.94
8392.00,0.94
8391.00,0.94
8390.00,0.94
8389.00,0.94
8388.00,0.94
8387.00,0.94
8386.00,0.94
8385.00,0.94
8384.00,0.94
8383.00,0.94
8382.00,0.94
8381.00,0.94
8380.00,0.94
8379.00,0.94
8378.00,0.94
8377.00,0.94
8376.00,0.94
8375.00,0.94
8374.00,0.94
8373.00,0.94
8372.00,0.94
8371.00,0.94
8370.00,0.94
8369.00,0.94
8368.00,0.94
8367.00,0.94
8366.00,0.94
8365.00,0.94
8364.00,0.94
8363.00,0.94
8362.00,0.94
8361.00,0.94
8360.00,0.95
8359.00,0.95
8358.00,0.95
8357.00,0.95
8356.00,0.95
8355.00,0.96
8354.00,0.96
8353.00,0.96
8352.00,0.96
8351.00,0.96
8350.00,0.97
8349.00,0.97
8348.00,0.97
8347.00,0.97
8346.00,0.97
8345.00,0.97
8344.00,0.97
8343.00,0.97
8342.00,0.97
8341.00,0.97
8340.00,0.97
8339.00,0.97
8338.00,0.97
8337.00,0.96
8336.00,0.96
8335.00,0.96
8334.00,0.96
8333.00,0.96
8332.00,0.96
8331.00,0.96
8330.00,0.96
8329.00,0.96
8328.00,0.96
8327.00,0.96
8326.00,0.96
8325.00,0.96
8324.00,0.96
8323.00,0.96
8322.00,0.96
8321.00,0.96
8320.00,0.96
8319.00,0.96
8318.00,0.96
8317.00,0.96
8316.00,0.96
8315.00,0.96
8314.00,0.96
8313.00,0.96
8312.00,0.96
8311.00,0.96
8310.00,0.96
8309.00,0.96
8308.00,0.95
8307.00,0.95
8306.00,0.95
8305.00,0.95
8304.00,0.95
8303.00,0.95
8302.00,0.95
8301.00,0.95
8300.00,0.95
8299.00,0.95
8298.00,0.95
8297.00,0.95
8296.00,0.95
8295.00,0.95
8294.00,0.95
8293.00,0.95
8292.00,0.96
8291.00,0.96
8290.00,0.96
8289.00,0.96
8288.00,0.96
8287.00,0.96
8286.00,0.96
8285.00,0.96
8284.00,0.96
8283.00,0.96
8282.00,0.96
8281.00,0.96
8280.00,0.96
8279.00,0.96
8278.00,0.96
8277.00,0.96
8276.00,0.96
8275.00,0.96
8274.00,0.96
8273.00,0.96
8272.00,0.96
8271.00,0.97
8270.00,0.97
8269.00,0.97
8268.00,0.97
8267.00,0.97
8266.00,0.97
8265.00,0.97
8264.00,0.97
8263.00,0.98
8262.00,0.98
8261.00,0.98
8260.00,0.98
8259.00,0.98
8258.00,0.98
8257.00,0.98
8256.00,0.98
8255.00,0.98
8254.00,0.98
8253.00,0.97
8252.00,0.97
8251.00,0.97
8250.00,0.97
8249.00,0.97
8248.00,0.97
8247.00,0.97
8246.00,0.97
8245.00,0.97
8244.00,0.97
8243.00,0.97
8242.00,0.97
8241.00,0.97
8240.00,0.97
8239.00,0.97
8238.00,0.97
8237.00,0.98
8236.00,0.98
8235.00,0.98
8234.00,0.98
8233.00,0.98
8232.00,0.98
8231.00,0.98
8230.00,0.98
8229.00,0.98
8228.00,0.97
8227.00,0.97
8226.00,0.97
8225.00,0.97
8224.00,0.97
8223.00,0.97
8222.00,0.97
8221.00,0.97
8220.00,0.97
8219.00,0.97
8218.00,0.97
8217.00,0.97
8216.00,0.97
8215.00,0.97
8214.00,0.97
8213.00,0.97
8212.00,0.97
8211.00,0.97
8210.00,0.97
8209.00,0.97
8208.00,0.97
8207.00,0.97
8206.00,0.97
8205.00,0.97
8204.00,0.97
8203.00,0.97
8202.00,0.97
8201.00,0.97
8200.00,0.97
8199.00,0.97
8198.00,0.97
8197.00,0.97
8196.00,0.97
8195.00,0.97
8194.00,0.97
8193.00,0.97
8192.00,0.97
8191.00,0.98
8190.00,0.98
8189.00,0.98
8188.00,0.98
8187.00,0.98
8186.00,0.98
8185.00,0.98
8184.00,0.98
8183.00,0.98
8182.00,0.98
8181.00,0.98
8180.00,0.99
8179.00,0.99
8178.00,0.99
8177.00,0.99
8176.00,0.99
8175.00,0.99
8174.00,0.99
8173.00,0.99
8172.00,0.99
8171.00,0.99
8170.00,0.99
8169.00,0.99
8168.00,0.99
8167.00,0.99
8166.00,0.99
8165.00,0.99
8164.00,0.99
8163.00,0.99
8162.00,0.99
8161.00,0.99
8160.00,0.99
8159.00,0.99
8158.00,0.99
8157.00,0.99
8156.00,0.99
8155.00,0.99
8154.00,0.99
8153.00,0.99
8152.00,0.99
8151.00,0.99
8150.00,0.99
8149.00,0.99
8148.00,0.99
8147.00,0.99
8146.00,0.99
8145.00,0.99
8144.00,0.99
8143.00,0.99
8142.00,0.99
8141.00,0.99
8140.00,0.99
8139.00,0.99
8138.00,0.99
8137.00,0.99
8136.00,0.99
8135.00,0.99
8134.00,0.99
8133.00,0.99
8132.00,0.99
8131.00,0.99
8130.00,0.99
8129.00,0.99
8128.00,0.99
8127.00,0.99
8126.00,0.99
8125.00,0.99
8124.00,0.99
8123.00,0.99
8122.00,0.99
8121.00,0.99
8120.00,0.99
8119.00,0.99
8118.00,0.99
8117.00,0.99
8116.00,0.99
8115.00,0.99
8114.00,0.99
8113.00,0.99
8112.00,1.00
8111.00,1.00
8110.00,1.00
8109.00,1.00
8108.00,1.00
8107.00,1.00
8106.00,1.00
8105.00,1.00
8104.00,1.00
8103.00,1.00
8102.00,1.00
8101.00,1.00
8100.00,1.00
8099.00,1.00
8098.00,1.00
8097.00,1.01
8096.00,1.01
8095.00,1.01
8094.00,1.01
8093.00,1.01
8092.00,1.01
8091.00,1.01
8090.00,1.01
8089.00,1.01
8088.00,1.01
8087.00,1.01
8086.00,1.01
8085.00,1.01
8084.00,1.01
8083.00,1.01
8082.00,1.01
8081.00,1.01
8080.00,1.01
8079.00,1.01
8078.00,1.00
8077.00,1.00
8076.00,1.00
8075.00,1.00
8074.00,1.00
8073.00,1.00
8072.00,1.00
8071.00,1.00
8070.00,1.00
8069.00,1.00
8068.00,1.00
8067.00,1.01
8066.00,1.01
8065.00,1.01
8064.00,1.01
8063.00,1.01
8062.00,1.01
8061.00,1.01
8060.00,1.01
8059.00,1.01
8058.00,1.01
8057.00,1.01
8056.00,1.01
8055.00,1.01
8054.00,1.02
8053.00,1.02
8052.00,1.02
8051.00,1.02
8050.00,1.02
8049.00,1.02
8048.00,1.02
8047.00,1.02
8046.00,1.02
8045.00,1.02
8044.00,1.02
8043.00,1.02
8042.00,1.02
8041.00,1.02
8040.00,1.02
8039.00,1.02
8038.00,1.02
8037.00,1.02
8036.00,1.02
8035.00,1.02
8034.00,1.02
8033.00,1.02
8032.00,1.02
8031.00,1.02
8030.00,1.02
8029.00,1.02
8028.00,1.02
8027.00,1.02
8026.00,1.02
8025.00,1.02
8024.00,1.02
8023.00,1.02
8022.00,1.02
8021.00,1.02
8020.00,1.02
8019.00,1.02
8018.00,1.02
8017.00,1.02
8016.00,1.02
8015.00,1.02
8014.00,1.02
8013.00,1.02
8012.00,1.02
8011.00,1.02
8010.00,1.02
8009.00,1.02
8008.00,1.02
8007.00,1.02
8006.00,1.02
8005.00,1.02
8004.00,1.02
8003.00,1.02
8002.00,1.02
8001.00,1.02
8000.00,1.02
7999.00,1.02
7998.00,1.02
7997.00,1.02
7996.00,1.02
7995.00,1.02
7994.00,1.02
7993.00,1.02
7992.00,1.02
7991.00,1.02
7990.00,1.02
7989.00,1.02
7988.00,1.02
7987.00,1.02
7986.00,1.02
7985.00,1.02
7984.00,1.02
7983.00,1.02
7982.00,1.02
7981.00,1.02
7980.00,1.02
7979.00,1.02
7978.00,1.02
7977.00,1.02
7976.00,1.02
7975.00,1.02
7974.00,1.02
7973.00,1.02
7972.00,1.02
7971.00,1.02
7970.00,1.02
7969.00,1.02
7968.00,1.02
7967.00,1.02
7966.00,1.02
7965.00,1.02
7964.00,1.02
7963.00,1.02
7962.00,1.02
7961.00,1.02
7960.00,1.02
7959.00,1.02
7958.00,1.02
7957.00,1.02
7956.00,1.03
7955.00,1.03
7954.00,1.03
7953.00,1.03
7952.00,1.03
7951.00,1.03
7950.00,1.03
7949.00,1.03
7948.00,1.03
7947.00,1.03
7946.00,1.03
7945.00,1.03
7944.00,1.03
7943.00,1.03
7942.00,1.03
7941.00,1.03
7940.00,1.03
7939.00,1.03
7938.00,1.03
7937.00,1.03
7936.00,1.03
7935.00,1.03
7934.00,1.03
7933.00,1.03
7932.00,1.03
7931.00,1.03
7930.00,1.03
7929.00,1.03
7928.00,1.03
7927.00,1.03
7926.00,1.03
7925.00,1.03
7924.00,1.03
7923.00,1.03
7922.00,1.03
7921.00,1.03
7920.00,1.03
7919.00,1.03
7918.00,1.03
7917.00,1.03
7916.00,1.03
7915.00,1.03
7914.00,1.03
7913.00,1.03
7912.00,1.03
7911.00,1.03
7910.00,1.03
7909.00,1.03
7908.00,1.03
7907.00,1.03
7906.00,1.04
7905.00,1.04
7904.00,1.04
7903.00,1.04
7902.00,1.04
7901.00,1.04
7900.00,1.04
7899.00,1.04
7898.00,1.04
7897.00,1.04
7896.00,1.04
7895.00,1.04
7894.00,1.04
7893.00,1.04
7892.00,1.04
7891.00,1.04
7890.00,1.04
7889.00,1.04
7888.00,1.04
7887.00,1.04
7886.00,1.04
7885.00,1.04
7884.00,1.04
7883.00,1.04
7882.00,1.04
7881.00,1.04
7880.00,1.04
7879.00,1.04
7878.00,1.04
7877.00,1.04
7876.00,1.04
7875.00,1.04
7874.00,1.04
7873.00,1.03
7872.00,1.03
7871.00,1.03
7870.00,1.04
7869.00,1.04
7868.00,1.04
7867.00,1.04
7866.00,1.04
7865.00,1.04
7864.00,1.04
7863.00,1.04
7862.00,1.04
7861.00,1.04
7860.00,1.04
7859.00,1.04
7858.00,1.05
7857.00,1.05
7856.00,1.05
7855.00,1.05
7854.00,1.05
7853.00,1.05
7852.00,1.05
7851.00,1.05
7850.00,1.05
7849.00,1.05
7848.00,1.05
7847.00,1.05
7846.00,1.05
7845.00,1.05
7844.00,1.05
7843.00,1.04
7842.00,1.04
7841.00,1.04
7840.00,1.04
7839.00,1.04
7838.00,1.04
7837.00,1.04
7836.00,1.04
7835.00,1.04
7834.00,1.04
7833.00,1.04
7832.00,1.04
7831.00,1.04
7830.00,1.04
7829.00,1.04
7828.00,1.04
7827.00,1.04
7826.00,1.04
7825.00,1.04
7824.00,1.04
7823.00,1.04
7822.00,1.04
7821.00,1.04
7820.00,1.04
7819.00,1.04
7818.00,1.04
7817.00,1.04
7816.00,1.03
7815.00,1.03
7814.00,1.03
7813.00,1.03
7812.00,1.03
7811.00,1.03
7810.00,1.03
7809.00,1.03
7808.00,1.03
7807.00,1.03
7806.00,1.03
7805.00,1.03
7804.00,1.03
7803.00,1.03
7802.00,1.03
7801.00,1.04
7800.00,1.04
7799.00,1.04
7798.00,1.04
7797.00,1.04
7796.00,1.04
7795.00,1.04
7794.00,1.04
7793.00,1.04
7792.00,1.05
7791.00,1.05
7790.00,1.05
7789.00,1.05
7788.00,1.05
7787.00,1.05
7786.00,1.05
7785.00,1.05
7784.00,1.05
7783.00,1.05
7782.00,1.05
7781.00,1.05
7780.00,1.05
7779.00,1.05
7778.00,1.05
7777.00,1.05
7776.00,1.05
7775.00,1.05
7774.00,1.05
7773.00,1.05
7772.00,1.05
7771.00,1.05
7770.00,1.05
7769.00,1.05
7768.00,1.05
7767.00,1.05
7766.00,1.05
7765.00,1.05
7764.00,1.05
7763.00,1.05
7762.00,1.05
7761.00,1.05
7760.00,1.05
7759.00,1.05
7758.00,1.05
7757.00,1.05
7756.00,1.05
7755.00,1.05
7754.00,1.05
7753.00,1.05
7752.00,1.05
7751.00,1.05
7750.00,1.05
7749.00,1.05
7748.00,1.05
7747.00,1.05
7746.00,1.05
7745.00,1.05
7744.00,1.05
7743.00,1.05
7742.00,1.05
7741.00,1.05
7740.00,1.05
7739.00,1.05
7738.00,1.04
7737.00,1.04
7736.00,1.04
7735.00,1.04
7734.00,1.04
7733.00,1.04
7732.00,1.04
7731.00,1.04
7730.00,1.04
7729.00,1.04
7728.00,1.05
7727.00,1.05
7726.00,1.05
7725.00,1.05
7724.00,1.05
7723.00,1.05
7722.00,1.05
7721.00,1.05
7720.00,1.05
7719.00,1.05
7718.00,1.05
7717.00,1.05
7716.00,1.05
7715.00,1.06
7714.00,1.06
7713.00,1.06
7712.00,1.06
7711.00,1.06
7710.00,1.06
7709.00,1.06
7708.00,1.06
7707.00,1.06
7706.00,1.06
7705.00,1.06
7704.00,1.06
7703.00,1.06
7702.00,1.06
7701.00,1.06
7700.00,1.06
7699.00,1.06
7698.00,1.06
7697.00,1.06
7696.00,1.06
7695.00,1.06
7694.00,1.06
7693.00,1.06
7692.00,1.06
7691.00,1.06
7690.00,1.06
7689.00,1.06
7688.00,1.06
7687.00,1.06
7686.00,1.06
7685.00,1.06
7684.00,1.06
7683.00,1.06
7682.00,1.06
7681.00,1.06
7680.00,1.06
7679.00,1.06
7678.00,1.06
7677.00,1.06
7676.00,1.06
7675.00,1.06
7674.00,1.06
7673.00,1.06
7672.00,1.06
7671.00,1.06
7670.00,1.06
7669.00,1.06
7668.00,1.06
7667.00,1.06
7666.00,1.06
7665.00,1.06
7664.00,1.06
7663.00,1.06
7662.00,1.06
7661.00,1.06
7660.00,1.06
7659.00,1.06
7658.00,1.06
7657.00,1.06
7656.00,1.06
7655.00,1.06
7654.00,1.06
7653.00,1.06
7652.00,1.06
7651.00,1.06
7650.00,1.06
7649.00,1.06
7648.00,1.06
7647.00,1.06
7646.00,1.06
7645.00,1.06
7644.00,1.06
7643.00,1.06
7642.00,1.06
7641.00,1.06
7640.00,1.06
7639.00,1.06
7638.00,1.06
7637.00,1.06
7636.00,1.06
7635.00,1.06
7634.00,1.06
7633.00,1.06
7632.00,1.06
7631.00,1.06
7630.00,1.06
7629.00,1.06
7628.00,1.06
7627.00,1.06
7626.00,1.06
7625.00,1.06
7624.00,1.06
7623.00,1.06
7622.00,1.06
7621.00,1.06
7620.00,1.06
7619.00,1.06
7618.00,1.06
7617.00,1.06
7616.00,1.06
7615.00,1.06
7614.00,1.06
7613.00,1.06
7612.00,1.06
7611.00,1.06
7610.00,1.06
7609.00,1.06
7608.00,1.06
7607.00,1.06
7606.00,1.06
7605.00,1.06
7604.00,1.06
7603.00,1.06
7602.00,1.06
7601.00,1.06
7600.00,1.06
7599.00,1.06
7598.00,1.06
7597.00,1.06
7596.00,1.06
7595.00,1.06
7594.00,1.06
7593.00,1.06
7592.00,1.06
7591.00,1.06
7590.00,1.06
7589.00,1.06
7588.00,1.06
7587.00,1.06
7586.00,1.06
7585.00,1.06
7584.00,1.06
7583.00,1.06
7582.00,1.06
7581.00,1.06
7580.00,1.06
7579.00,1.06
7578.00,1.06
7577.00,1.06
7576.00,1.06
7575.00,1.06
7574.00,1.06
7573.00,1.06
7572.00,1.06
7571.00,1.06
7570.00,1.06
7569.00,1.06
7568.00,1.06
7567.00,1.06
7566.00,1.06
7565.00,1.06
7564.00,1.06
7563.00,1.06
7562.00,1.06
7561.00,1.05
7560.00,1.05
7559.00,1.05
7558.00,1.05
7557.00,1.05
7556.00,1.05
7555.00,1.05
7554.00,1.05
7553.00,1.05
7552.00,1.05
7551.00,1.05
7550.00,1.05
7549.00,1.04
7548.00,1.04
7547.00,1.04
7546.00,1.04
7545.00,1.04
7544.00,1.04
7543.00,1.04
7542.00,1.04
7541.00,1.04
7540.00,1.04
7539.00,1.04
7538.00,1.05
7537.00,1.05
7536.00,1.05
7535.00,1.05
7534.00,1.05
7533.00,1.05
7532.00,1.05
7531.00,1.05
7530.00,1.05
7529.00,1.05
7528.00,1.05
7527.00,1.05
7526.00,1.05
7525.00,1.05
7524.00,1.05
7523.00,1.05
7522.00,1.05
7521.00,1.05
7520.00,1.05
7519.00,1.05
7518.00,1.05
7517.00,1.05
7516.00,1.05
7515.00,1.05
7514.00,1.05
7513.00,1.05
7512.00,1.05
7511.00,1.05
7510.00,1.05
7509.00,1.05
7508.00,1.05
7507.00,1.05
7506.00,1.05
7505.00,1.05
7504.00,1.05
7503.00,1.05
7502.00,1.05
7501.00,1.05
7500.00,1.05
7499.00,1.05
7498.00,1.04
7497.00,1.04
7496.00,1.04
7495.00,1.04
7494.00,1.04
7493.00,1.04
7492.00,1.04
7491.00,1.04
7490.00,1.04
7489.00,1.04
7488.00,1.04
7487.00,1.04
7486.00,1.04
7485.00,1.04
7484.00,1.04
7483.00,1.04
7482.00,1.04
7481.00,1.04
7480.00,1.03
7479.00,1.03
7478.00,1.03
7477.00,1.03
7476.00,1.03
7475.00,1.03
7474.00,1.03
7473.00,1.03
7472.00,1.03
7471.00,1.03
7470.00,1.03
7469.00,1.03
7468.00,1.03
7467.00,1.03
7466.00,1.03
7465.00,1.03
7464.00,1.03
7463.00,1.03
7462.00,1.03
7461.00,1.03
7460.00,1.03
7459.00,1.03
7458.00,1.03
7457.00,1.03
7456.00,1.03
7455.00,1.03
7454.00,1.03
7453.00,1.02
7452.00,1.02
7451.00,1.02
7450.00,1.02
7449.00,1.02
7448.00,1.02
7447.00,1.02
7446.00,1.02
7445.00,1.02
7444.00,1.02
7443.00,1.02
7442.00,1.02
7441.00,1.01
7440.00,1.01
7439.00,1.01
7438.00,1.01
7437.00,1.01
7436.00,1.01
7435.00,1.01
7434.00,1.01
7433.00,1.01
7432.00,1.01
7431.00,1.01
7430.00,1.01
7429.00,1.01
7428.00,1.00
7427.00,1.00
7426.00,1.00
7425.00,1.00
7424.00,1.00
7423.00,1.00
7422.00,1.00
7421.00,1.00
7420.00,1.00
7419.00,1.00
7418.00,1.00
7417.00,1.00
7416.00,1.00
7415.00,1.00
7414.00,1.00
7413.00,1.00
7412.00,1.00
7411.00,1.00
7410.00,1.00
7409.00,1.00
7408.00,1.00
7407.00,1.00
7406.00,1.00
7405.00,0.99
7404.00,0.99
7403.00,0.99
7402.00,0.99
7401.00,0.99
7400.00,0.99
7399.00,0.99
7398.00,0.99
7397.00,0.99
7396.00,0.99
7395.00,0.99
7394.00,0.99
7393.00,0.99
7392.00,0.99
7391.00,0.99
7390.00,0.99
7389.00,0.99
7388.00,1.00
7387.00,1.00
7386.00,1.00
7385.00,1.00
7384.00,1.00
7383.00,0.99
7382.00,0.99
7381.00,0.99
7380.00,0.99
7379.00,0.99
7378.00,0.99
7377.00,0.99
7376.00,0.99
7375.00,0.99
7374.00,0.99
7373.00,0.99
7372.00,0.99
7371.00,0.99
7370.00,0.99
7369.00,0.98
7368.00,0.98
7367.00,0.98
7366.00,0.98
7365.00,0.98
7364.00,0.98
7363.00,0.98
7362.00,0.98
7361.00,0.98
7360.00,0.98
7359.00,0.98
7358.00,0.98
7357.00,0.98
7356.00,0.98
7355.00,0.98
7354.00,0.98
7353.00,0.98
7352.00,0.98
7351.00,0.98
7350.00,0.98
7349.00,0.98
7348.00,0.98
7347.00,0.98
7346.00,0.98
7345.00,0.98
7344.00,0.98
7343.00,0.98
7342.00,0.98
7341.00,0.98
7340.00,0.98
7339.00,0.98
7338.00,0.98
7337.00,0.98
7336.00,0.97
7335.00,0.97
7334.00,0.97
7333.00,0.97
7332.00,0.97
7331.00,0.97
7330.00,0.97
7329.00,0.97
7328.00,0.97
7327.00,0.97
7326.00,0.97
7325.00,0.97
7324.00,0.97
7323.00,0.97
7322.00,0.97
7321.00,0.97
7320.00,0.97
7319.00,0.97
7318.00,0.97
7317.00,0.97
7316.00,0.97
7315.00,0.97
7314.00,0.97
7313.00,0.97
7312.00,0.96
7311.00,0.96
7310.00,0.96
7309.00,0.96
7308.00,0.96
7307.00,0.96
7306.00,0.96
7305.00,0.96
7304.00,0.96
7303.00,0.96
7302.00,0.96
7301.00,0.96
7300.00,0.96
7299.00,0.96
7298.00,0.96
7297.00,0.96
7296.00,0.96
7295.00,0.96
7294.00,0.96
7293.00,0.95
7292.00,0.95
7291.00,0.95
7290.00,0.95
7289.00,0.95
7288.00,0.95
7287.00,0.95
7286.00,0.95
7285.00,0.95
7284.00,0.95
7283.00,0.95
7282.00,0.94
7281.00,0.94
7280.00,0.94
7279.00,0.94
7278.00,0.94
7277.00,0.94
7276.00,0.94
7275.00,0.94
7274.00,0.93
7273.00,0.93
7272.00,0.93
7271.00,0.93
7270.00,0.93
7269.00,0.93
7268.00,0.93
7267.00,0.93
7266.00,0.92
7265.00,0.92
7264.00,0.92
7263.00,0.92
7262.00,0.92
7261.00,0.92
7260.00,0.92
7259.00,0.92
7258.00,0.92
7257.00,0.92
7256.00,0.92
7255.00,0.91
7254.00,0.91
7253.00,0.91
7252.00,0.91
7251.00,0.91
7250.00,0.91
7249.00,0.91
7248.00,0.91
7247.00,0.91
7246.00,0.91
7245.00,0.90
7244.00,0.90
7243.00,0.90
7242.00,0.90
7241.00,0.90
7240.00,0.90
7239.00,0.90
7238.00,0.89
7237.00,0.89
7236.00,0.89
7235.00,0.89
7234.00,0.89
7233.00,0.89
7232.00,0.88
7231.00,0.88
7230.00,0.88
7229.00,0.88
7228.00,0.87
7227.00,0.87
7226.00,0.87
7225.00,0.87
7224.00,0.87
7223.00,0.86
7222.00,0.86
7221.00,0.86
7220.00,0.86
7219.00,0.86
7218.00,0.86
7217.00,0.85
7216.00,0.85
7215.00,0.85
7214.00,0.85
7213.00,0.85
7212.00,0.84
7211.00,0.84
7210.00,0.84
7209.00,0.84
7208.00,0.83
7207.00,0.83
7206.00,0.83
7205.00,0.83
7204.00,0.82
7203.00,0.82
7202.00,0.82
7201.00,0.82
7200.00,0.81
7199.00,0.81
7198.00,0.81
7197.00,0.81
7196.00,0.80
7195.00,0.80
7194.00,0.80
7193.00,0.80
7192.00,0.80
7191.00,0.79
7190.00,0.79
7189.00,0.79
7188.00,0.79
7187.00,0.79
7186.00,0.79
7185.00,0.78
7184.00,0.78
7183.00,0.78
7182.00,0.78
7181.00,0.78
7180.00,0.78
7179.00,0.78
7178.00,0.77
7177.00,0.77
7176.00,0.77
7175.00,0.77
7174.00,0.77
7173.00,0.77
7172.00,0.77
7171.00,0.77
7170.00,0.76
7169.00,0.76
7168.00,0.76
7167.00,0.76
7166.00,0.76
7165.00,0.76
7164.00,0.75
7163.00,0.75
7162.00,0.75
7161.00,0.75
7160.00,0.74
7159.00,0.74
7158.00,0.74
7157.00,0.74
7156.00,0.74
7155.00,0.73
7154.00,0.73
7153.00,0.73
7152.00,0.73
7151.00,0.72
7150.00,0.72
7149.00,0.72
7148.00,0.72
7147.00,0.71
7146.00,0.71
7145.00,0.71
7144.00,0.71
7143.00,0.71
7142.00,0.70
7141.00,0.70
7140.00,0.70
7139.00,0.70
7138.00,0.70
7137.00,0.70
7136.00,0.69
7135.00,0.69
7134.00,0.69
7133.00,0.69
7132.00,0.69
7131.00,0.69
7130.00,0.69
7129.00,0.68
7128.00,0.68
7127.00,0.68
7126.00,0.68
7125.00,0.68
7124.00,0.68
7123.00,0.67
7122.00,0.67
7121.00,0.67
7120.00,0.67
7119.00,0.66
7118.00,0.66
7117.00,0.66
7116.00,0.66
7115.00,0.66
7114.00,0.65
7113.00,0.65
7112.00,0.65
7111.00,0.65
7110.00,0.64
7109.00,0.64
7108.00,0.64
7107.00,0.64
7106.00,0.64
7105.00,0.63
7104.00,0.63
7103.00,0.63
7102.00,0.63
7101.00,0.63
7100.00,0.63
7099.00,0.63
7098.00,0.63
7097.00,0.63
7096.00,0.62
7095.00,0.62
7094.00,0.62
7093.00,0.62
7092.00,0.62
7091.00,0.62
7090.00,0.62
7089.00,0.62
7088.00,0.62
7087.00,0.62
7086.00,0.62
7085.00,0.62
7084.00,0.61
7083.00,0.61
7082.00,0.61
7081.00,0.61
7080.00,0.61
7079.00,0.61
7078.00,0.61
7077.00,0.61
7076.00,0.61
7075.00,0.60
7074.00,0.60
7073.00,0.60
7072.00,0.60
7071.00,0.60
7070.00,0.60
7069.00,0.59
7068.00,0.59
7067.00,0.59
7066.00,0.59
7065.00,0.59
7064.00,0.59
7063.00,0.58
7062.00,0.58
7061.00,0.58
7060.00,0.58
7059.00,0.58
7058.00,0.58
7057.00,0.58
7056.00,0.57
7055.00,0.57
7054.00,0.57
7053.00,0.57
7052.00,0.57
7051.00,0.57
7050.00,0.57
7049.00,0.57
7048.00,0.57
7047.00,0.57
7046.00,0.57
7045.00,0.57
7044.00,0.57
7043.00,0.56
7042.00,0.56
7041.00,0.56
7040.00,0.56
7039.00,0.56
7038.00,0.56
7037.00,0.56
7036.00,0.56
7035.00,0.56
7034.00,0.55
7033.00,0.55
7032.00,0.55
7031.00,0.55
7030.00,0.55
7029.00,0.55
7028.00,0.55
7027.00,0.55
7026.00,0.55
7025.00,0.55
7024.00,0.55
7023.00,0.55
7022.00,0.55
7021.00,0.55
7020.00,0.55
7019.00,0.55
7018.00,0.55
7017.00,0.55
7016.00,0.55
7015.00,0.55
7014.00,0.55
7013.00,0.55
7012.00,0.55
7011.00,0.55
7010.00,0.55
7009.00,0.55
7008.00,0.55
7007.00,0.54
7006.00,0.54
7005.00,0.54
7004.00,0.54
7003.00,0.54
7002.00,0.54
7001.00,0.54
7000.00,0.54
6999.00,0.54
6998.00,0.54
6997.00,0.54
6996.00,0.54
6995.00,0.54
6994.00,0.54
6993.00,0.54
6992.00,0.54
6991.00,0.54
6990.00,0.54
6989.00,0.53
6988.00,0.53
6987.00,0.53
6986.00,0.53
6985.00,0.53
6984.00,0.53
6983.00,0.53
6982.00,0.53
6981.00,0.53
6980.00,0.53
6979.00,0.53
6978.00,0.53
6977.00,0.53
6976.00,0.53
6975.00,0.53
6974.00,0.52
6973.00,0.52
6972.00,0.52
6971.00,0.52
6970.00,0.52
6969.00,0.52
6968.00,0.52
6967.00,0.52
6966.00,0.52
6965.00,0.52
6964.00,0.52
6963.00,0.52
6962.00,0.52
6961.00,0.52
6960.00,0.52
6959.00,0.52
6958.00,0.52
6957.00,0.51
6956.00,0.51
6955.00,0.51
6954.00,0.51
6953.00,0.51
6952.00,0.51
6951.00,0.51
6950.00,0.51
6949.00,0.51
6948.00,0.51
6947.00,0.51
6946.00,0.51
6945.00,0.51
6944.00,0.51
6943.00,0.51
6942.00,0.51
6941.00,0.51
6940.00,0.51
6939.00,0.51
6938.00,0.51
6937.00,0.51
6936.00,0.51
6935.00,0.51
6934.00,0.51
6933.00,0.51
6932.00,0.51
6931.00,0.51
6930.00,0.51
6929.00,0.51
6928.00,0.51
6927.00,0.51
6926.00,0.51
6925.00,0.51
6924.00,0.51
6923.00,0.51
6922.00,0.51
6921.00,0.51
6920.00,0.51
6919.00,0.50
6918.00,0.50
6917.00,0.50
6916.00,0.50
6915.00,0.50
6914.00,0.50
6913.00,0.50
6912.00,0.50
6911.00,0.50
6910.00,0.50
6909.00,0.50
6908.00,0.50
6907.00,0.50
6906.00,0.50
6905.00,0.50
6904.00,0.50
6903.00,0.50
6902.00,0.51
6901.00,0.51
6900.00,0.51
6899.00,0.51
6898.00,0.51
6897.00,0.51
6896.00,0.51
6895.00,0.51
6894.00,0.51
6893.00,0.51
6892.00,0.51
6891.00,0.51
6890.00,0.51
6889.00,0.51
6888.00,0.51
6887.00,0.51
6886.00,0.51
6885.00,0.51
6884.00,0.51
6883.00,0.51
6882.00,0.51
6881.00,0.51
6880.00,0.51
6879.00,0.51
6878.00,0.50
6877.00,0.50
6876.00,0.50
6875.00,0.50
6874.00,0.50
6873.00,0.50
6872.00,0.50
6871.00,0.50
6870.00,0.50
6869.00,0.50
6868.00,0.50
6867.00,0.50
6866.00,0.50
6865.00,0.50
6864.00,0.50
6863.00,0.50
6862.00,0.50
6861.00,0.50
6860.00,0.50
6859.00,0.50
6858.00,0.50
6857.00,0.50
6856.00,0.50
6855.00,0.50
6854.00,0.50
6853.00,0.50
6852.00,0.50
6851.00,0.51
6850.00,0.51
6849.00,0.51
6848.00,0.51
6847.00,0.51
6846.00,0.51
6845.00,0.51
6844.00,0.51
6843.00,0.51
6842.00,0.51
6841.00,0.51
6840.00,0.51
6839.00,0.51
6838.00,0.51
6837.00,0.51
6836.00,0.51
6835.00,0.51
6834.00,0.51
6833.00,0.51
6832.00,0.51
6831.00,0.51
6830.00,0.51
6829.00,0.51
6828.00,0.51
6827.00,0.51
6826.00,0.51
6825.00,0.51
6824.00,0.51
6823.00,0.51
6822.00,0.51
6821.00,0.51
6820.00,0.51
6819.00,0.51
6818.00,0.51
6817.00,0.51
6816.00,0.51
6815.00,0.51
6814.00,0.51
6813.00,0.51
6812.00,0.51
6811.00,0.51
6810.00,0.51
6809.00,0.51
6808.00,0.51
6807.00,0.51
6806.00,0.51
6805.00,0.51
6804.00,0.51
6803.00,0.51
6802.00,0.51
6801.00,0.51
6800.00,0.51
6799.00,0.51
6798.00,0.51
6797.00,0.51
6796.00,0.51
6795.00,0.51
6794.00,0.51
6793.00,0.52
6792.00,0.52
6791.00,0.52
6790.00,0.52
6789.00,0.52
6788.00,0.52
6787.00,0.52
6786.00,0.52
6785.00,0.52
6784.00,0.52
6783.00,0.52
6782.00,0.52
6781.00,0.52
6780.00,0.52
6779.00,0.52
6778.00,0.52
6777.00,0.52
6776.00,0.52
6775.00,0.52
6774.00,0.52
6773.00,0.52
6772.00,0.52
6771.00,0.53
6770.00,0.53
6769.00,0.53
6768.00,0.53
6767.00,0.53
6766.00,0.53
6765.00,0.53
6764.00,0.53
6763.00,0.53
6762.00,0.53
6761.00,0.53
6760.00,0.53
6759.00,0.53
6758.00,0.53
6757.00,0.53
6756.00,0.53
6755.00,0.53
6754.00,0.53
6753.00,0.53
6752.00,0.53
6751.00,0.53
6750.00,0.53
6749.00,0.53
6748.00,0.53
6747.00,0.54
6746.00,0.54
6745.00,0.54
6744.00,0.54
6743.00,0.54
6742.00,0.54
6741.00,0.54
6740.00,0.54
6739.00,0.54
6738.00,0.54
6737.00,0.54
6736.00,0.54
6735.00,0.54
6734.00,0.54
6733.00,0.54
6732.00,0.54
6731.00,0.54
6730.00,0.54
6729.00,0.54
6728.00,0.54
6727.00,0.54
6726.00,0.54
6725.00,0.54
6724.00,0.54
6723.00,0.54
6722.00,0.54
6721.00,0.54
6720.00,0.54
6719.00,0.54
6718.00,0.54
6717.00,0.54
6716.00,0.55
6715.00,0.55
6714.00,0.55
6713.00,0.55
6712.00,0.55
6711.00,0.55
6710.00,0.55
6709.00,0.55
6708.00,0.55
6707.00,0.55
6706.00,0.55
6705.00,0.55
6704.00,0.55
6703.00,0.55
6702.00,0.56
6701.00,0.56
6700.00,0.56
6699.00,0.56
6698.00,0.56
6697.00,0.56
6696.00,0.56
6695.00,0.56
6694.00,0.56
6693.00,0.56
6692.00,0.56
6691.00,0.56
6690.00,0.56
6689.00,0.56
6688.00,0.56
6687.00,0.56
6686.00,0.56
6685.00,0.57
6684.00,0.57
6683.00,0.57
6682.00,0.57
6681.00,0.57
6680.00,0.57
6679.00,0.57
6678.00,0.57
6677.00,0.57
6676.00,0.57
6675.00,0.57
6674.00,0.57
6673.00,0.57
6672.00,0.57
6671.00,0.57
6670.00,0.57
6669.00,0.57
6668.00,0.57
6667.00,0.57
6666.00,0.57
6665.00,0.57
6664.00,0.58
6663.00,0.58
6662.00,0.58
6661.00,0.58
6660.00,0.58
6659.00,0.58
6658.00,0.58
6657.00,0.58
6656.00,0.58
6655.00,0.58
6654.00,0.58
6653.00,0.58
6652.00,0.58
6651.00,0.58
6650.00,0.58
6649.00,0.58
6648.00,0.58
6647.00,0.58
6646.00,0.58
6645.00,0.58
6644.00,0.58
6643.00,0.58
6642.00,0.59
6641.00,0.59
6640.00,0.59
6639.00,0.59
6638.00,0.59
6637.00,0.59
6636.00,0.59
6635.00,0.59
6634.00,0.59
6633.00,0.59
6632.00,0.59
6631.00,0.59
6630.00,0.60
6629.00,0.60
6628.00,0.60
6627.00,0.60
6626.00,0.60
6625.00,0.60
6624.00,0.60
6623.00,0.60
6622.00,0.60
6621.00,0.60
6620.00,0.60
6619.00,0.60
6618.00,0.60
6617.00,0.60
6616.00,0.60
6615.00,0.61
6614.00,0.61
6613.00,0.61
6612.00,0.61
6611.00,0.61
6610.00,0.61
6609.00,0.61
6608.00,0.61
6607.00,0.61
6606.00,0.61
6605.00,0.61
6604.00,0.61
6603.00,0.61
6602.00,0.61
6601.00,0.61
6600.00,0.61
6599.00,0.61
6598.00,0.61
6597.00,0.61
6596.00,0.61
6595.00,0.61
6594.00,0.61
6593.00,0.61
6592.00,0.61
6591.00,0.61
6590.00,0.61
6589.00,0.61
6588.00,0.61
6587.00,0.61
6586.00,0.61
6585.00,0.62
6584.00,0.62
6583.00,0.62
6582.00,0.62
6581.00,0.62
6580.00,0.62
6579.00,0.62
6578.00,0.62
6577.00,0.62
6576.00,0.63
6575.00,0.63
6574.00,0.63
6573.00,0.63
6572.00,0.63
6571.00,0.63
6570.00,0.63
6569.00,0.63
6568.00,0.63
6567.00,0.64
6566.00,0.64
6565.00,0.64
6564.00,0.64
6563.00,0.64
6562.00,0.64
6561.00,0.64
6560.00,0.64
6559.00,0.65
6558.00,0.65
6557.00,0.65
6556.00,0.65
6555.00,0.65
6554.00,0.65
6553.00,0.65
6552.00,0.65
6551.00,0.65
6550.00,0.65
6549.00,0.65
6548.00,0.65
6547.00,0.65
6546.00,0.65
6545.00,0.65
6544.00,0.65
6543.00,0.65
6542.00,0.65
6541.00,0.65
6540.00,0.65
6539.00,0.65
6538.00,0.65
6537.00,0.65
6536.00,0.65
6535.00,0.65
6534.00,0.65
6533.00,0.65
6532.00,0.65
6531.00,0.65
6530.00,0.65
6529.00,0.65
6528.00,0.65
6527.00,0.65
6526.00,0.65
6525.00,0.65
6524.00,0.65
6523.00,0.65
6522.00,0.65
6521.00,0.65
6520.00,0.66
6519.00,0.66
6518.00,0.66
6517.00,0.66
6516.00,0.66
6515.00,0.66
6514.00,0.66
6513.00,0.66
6512.00,0.66
6511.00,0.66
6510.00,0.66
6509.00,0.67
6508.00,0.67
6507.00,0.67
6506.00,0.67
6505.00,0.67
6504.00,0.67
6503.00,0.67
6502.00,0.67
6501.00,0.67
6500.00,0.68
6499.00,0.68
6498.00,0.68
6497.00,0.68
6496.00,0.68
6495.00,0.68
6494.00,0.68
6493.00,0.68
6492.00,0.68
6491.00,0.68
6490.00,0.68
6489.00,0.68
6488.00,0.68
6487.00,0.68
6486.00,0.68
6485.00,0.68
6484.00,0.68
6483.00,0.68
6482.00,0.68
6481.00,0.68
6480.00,0.67
6479.00,0.67
6478.00,0.67
6477.00,0.67
6476.00,0.67
6475.00,0.67
6474.00,0.67
6473.00,0.67
6472.00,0.67
6471.00,0.68
6470.00,0.68
6469.00,0.68
6468.00,0.68
6467.00,0.68
6466.00,0.68
6465.00,0.68
6464.00,0.68
6463.00,0.68
6462.00,0.68
6461.00,0.68
6460.00,0.69
6459.00,0.69
6458.00,0.69
6457.00,0.69
6456.00,0.69
6455.00,0.69
6454.00,0.69
6453.00,0.69
6452.00,0.69
6451.00,0.69
6450.00,0.70
6449.00,0.70
6448.00,0.70
6447.00,0.70
6446.00,0.70
6445.00,0.70
6444.00,0.70
6443.00,0.70
6442.00,0.70
6441.00,0.70
6440.00,0.70
6439.00,0.70
6438.00,0.70
6437.00,0.70
6436.00,0.70
6435.00,0.70
6434.00,0.70
6433.00,0.70
6432.00,0.70
6431.00,0.70
6430.00,0.70
6429.00,0.70
6428.00,0.70
6427.00,0.70
6426.00,0.70
6425.00,0.70
6424.00,0.70
6423.00,0.70
6422.00,0.70
6421.00,0.70
6420.00,0.70
6419.00,0.70
6418.00,0.70
6417.00,0.70
6416.00,0.70
6415.00,0.70
6414.00,0.70
6413.00,0.70
6412.00,0.70
6411.00,0.70
6410.00,0.70
6409.00,0.70
6408.00,0.70
6407.00,0.70
6406.00,0.70
6405.00,0.70
6404.00,0.70
6403.00,0.70
6402.00,0.70
6401.00,0.70
6400.00,0.70
6399.00,0.70
6398.00,0.70
6397.00,0.70
6396.00,0.70
6395.00,0.70
6394.00,0.70
6393.00,0.70
6392.00,0.70
6391.00,0.70
6390.00,0.70
6389.00,0.70
6388.00,0.70
6387.00,0.70
6386.00,0.70
6385.00,0.70
6384.00,0.70
6383.00,0.70
6382.00,0.71
6381.00,0.71
6380.00,0.71
6379.00,0.71
6378.00,0.71
6377.00,0.71
6376.00,0.71
6375.00,0.71
6374.00,0.71
6373.00,0.72
6372.00,0.72
6371.00,0.72
6370.00,0.72
6369.00,0.72
6368.00,0.72
6367.00,0.72
6366.00,0.72
6365.00,0.72
6364.00,0.72
6363.00,0.72
6362.00,0.72
6361.00,0.72
6360.00,0.73
6359.00,0.73
6358.00,0.73
6357.00,0.73
6356.00,0.73
6355.00,0.73
6354.00,0.73
6353.00,0.73
6352.00,0.73
6351.00,0.73
6350.00,0.73
6349.00,0.73
6348.00,0.73
6347.00,0.73
6346.00,0.73
6345.00,0.74
6344.00,0.74
6343.00,0.74
6342.00,0.74
6341.00,0.74
6340.00,0.74
6339.00,0.74
6338.00,0.74
6337.00,0.74
6336.00,0.74
6335.00,0.75
6334.00,0.75
6333.00,0.75
6332.00,0.75
6331.00,0.75
6330.00,0.75
6329.00,0.75
6328.00,0.75
6327.00,0.75
6326.00,0.75
6325.00,0.75
6324.00,0.75
6323.00,0.75
6322.00,0.75
6321.00,0.75
6320.00,0.75
6319.00,0.75
6318.00,0.75
6317.00,0.75
6316.00,0.75
6315.00,0.75
6314.00,0.75
6313.00,0.75
6312.00,0.75
6311.00,0.76
6310.00,0.76
6309.00,0.76
6308.00,0.76
6307.00,0.76
6306.00,0.76
6305.00,0.76
6304.00,0.76
6303.00,0.76
6302.00,0.76
6301.00,0.76
6300.00,0.76
6299.00,0.76
6298.00,0.77
6297.00,0.77
6296.00,0.77
6295.00,0.77
6294.00,0.77
6293.00,0.77
6292.00,0.77
6291.00,0.77
6290.00,0.77
6289.00,0.77
6288.00,0.77
6287.00,0.77
6286.00,0.77
6285.00,0.77
6284.00,0.77
6283.00,0.77
6282.00,0.78
6281.00,0.78
6280.00,0.78
6279.00,0.78
6278.00,0.78
6277.00,0.78
6276.00,0.78
6275.00,0.78
6274.00,0.78
6273.00,0.78
6272.00,0.78
6271.00,0.78
6270.00,0.78
6269.00,0.78
6268.00,0.78
6267.00,0.78
6266.00,0.78
6265.00,0.79
6264.00,0.79
6263.00,0.79
6262.00,0.79
6261.00,0.79
6260.00,0.79
6259.00,0.79
6258.00,0.79
6257.00,0.79
6256.00,0.79
6255.00,0.79
6254.00,0.79
6253.00,0.80
6252.00,0.80
6251.00,0.80
6250.00,0.80
6249.00,0.80
6248.00,0.80
6247.00,0.80
6246.00,0.80
6245.00,0.80
6244.00,0.80
6243.00,0.80
6242.00,0.80
6241.00,0.80
6240.00,0.80
6239.00,0.80
6238.00,0.80
6237.00,0.80
6236.00,0.80
6235.00,0.80
6234.00,0.81
6233.00,0.81
6232.00,0.81
6231.00,0.81
6230.00,0.81
6229.00,0.81
6228.00,0.81
6227.00,0.81
6226.00,0.81
6225.00,0.81
6224.00,0.81
6223.00,0.81
6222.00,0.82
6221.00,0.82
6220.00,0.82
6219.00,0.82
6218.00,0.82
6217.00,0.82
6216.00,0.82
6215.00,0.82
6214.00,0.82
6213.00,0.82
6212.00,0.83
6211.00,0.83
6210.00,0.83
6209.00,0.83
6208.00,0.83
6207.00,0.83
6206.00,0.83
6205.00,0.83
6204.00,0.83
6203.00,0.83
6202.00,0.83
6201.00,0.83
6200.00,0.83
6199.00,0.83
6198.00,0.84
6197.00,0.84
6196.00,0.84
6195.00,0.84
6194.00,0.84
6193.00,0.84
6192.00,0.84
6191.00,0.84
6190.00,0.84
6189.00,0.84
6188.00,0.84
6187.00,0.85
6186.00,0.85
6185.00,0.85
6184.00,0.85
6183.00,0.85
6182.00,0.85
6181.00,0.85
6180.00,0.86
6179.00,0.86
6178.00,0.86
6177.00,0.86
6176.00,0.86
6175.00,0.86
6174.00,0.86
6173.00,0.87
6172.00,0.87
6171.00,0.87
6170.00,0.87
6169.00,0.87
6168.00,0.87
6167.00,0.87
6166.00,0.87
6165.00,0.87
6164.00,0.87
6163.00,0.87
6162.00,0.87
6161.00,0.87
6160.00,0.88
6159.00,0.88
6158.00,0.88
6157.00,0.88
6156.00,0.88
6155.00,0.88
6154.00,0.88
6153.00,0.88
6152.00,0.88
6151.00,0.88
6150.00,0.88
6149.00,0.88
6148.00,0.88
6147.00,0.89
6146.00,0.89
6145.00,0.89
6144.00,0.89
6143.00,0.89
6142.00,0.89
6141.00,0.89
6140.00,0.89
6139.00,0.89
6138.00,0.89
6137.00,0.90
6136.00,0.90
6135.00,0.90
6134.00,0.90
6133.00,0.90
6132.00,0.90
6131.00,0.90
6130.00,0.90
6129.00,0.90
6128.00,0.90
6127.00,0.90
6126.00,0.90
6125.00,0.91
6124.00,0.91
6123.00,0.91
6122.00,0.91
6121.00,0.91
6120.00,0.91
6119.00,0.91
6118.00,0.91
6117.00,0.91
6116.00,0.91
6115.00,0.91
6114.00,0.91
6113.00,0.91
6112.00,0.91
6111.00,0.92
6110.00,0.92
6109.00,0.92
6108.00,0.92
6107.00,0.92
6106.00,0.92
6105.00,0.92
6104.00,0.92
6103.00,0.92
6102.00,0.92
6101.00,0.92
6100.00,0.92
6099.00,0.92
6098.00,0.93
6097.00,0.93
6096.00,0.93
6095.00,0.93
6094.00,0.93
6093.00,0.93
6092.00,0.93
6091.00,0.93
6090.00,0.93
6089.00,0.94
6088.00,0.94
6087.00,0.94
6086.00,0.94
6085.00,0.94
6084.00,0.94
6083.00,0.94
6082.00,0.94
6081.00,0.94
6080.00,0.95
6079.00,0.95
6078.00,0.95
6077.00,0.95
6076.00,0.95
6075.00,0.95
6074.00,0.95
6073.00,0.95
6072.00,0.95
6071.00,0.95
6070.00,0.95
6069.00,0.95
6068.00,0.95
6067.00,0.95
6066.00,0.95
6065.00,0.95
6064.00,0.96
6063.00,0.96
6062.00,0.96
6061.00,0.96
6060.00,0.96
6059.00,0.96
6058.00,0.96
6057.00,0.96
6056.00,0.96
6055.00,0.96
6054.00,0.96
6053.00,0.96
6052.00,0.96
6051.00,0.96
6050.00,0.97
6049.00,0.97
6048.00,0.97
6047.00,0.97
6046.00,0.97
6045.00,0.97
6044.00,0.97
6043.00,0.97
6042.00,0.97
6041.00,0.97
6040.00,0.97
6039.00,0.97
6038.00,0.97
6037.00,0.97
6036.00,0.97
6035.00,0.97
6034.00,0.97
6033.00,0.97
6032.00,0.97
6031.00,0.97
6030.00,0.97
6029.00,0.97
6028.00,0.97
6027.00,0.97
6026.00,0.97
6025.00,0.97
6024.00,0.97
6023.00,0.97
6022.00,0.97
6021.00,0.97
6020.00,0.97
6019.00,0.97
6018.00,0.97
6017.00,0.97
6016.00,0.97
6015.00,0.97
6014.00,0.97
6013.00,0.97
6012.00,0.97
6011.00,0.97
6010.00,0.97
6009.00,0.97
6008.00,0.97
6007.00,0.97
6006.00,0.97
6005.00,0.97
6004.00,0.97
6003.00,0.97
6002.00,0.97
6001.00,0.97
6000.00,0.97
5999.00,0.97
5998.00,0.97
5997.00,0.97
5996.00,0.97
5995.00,0.97
5994.00,0.97
5993.00,0.97
5992.00,0.97
5991.00,0.96
5990.00,0.96
5989.00,0.96
5988.00,0.96
5987.00,0.96
5986.00,0.96
5985.00,0.96
5984.00,0.96
5983.00,0.95
5982.00,0.95
5981.00,0.95
5980.00,0.95
5979.00,0.95
5978.00,0.94
5977.00,0.94
5976.00,0.94
5975.00,0.94
5974.00,0.93
5973.00,0.93
5972.00,0.93
5971.00,0.92
5970.00,0.92
5969.00,0.91
5968.00,0.91
5967.00,0.91
5966.00,0.90
5965.00,0.90
5964.00,0.89
5963.00,0.89
5962.00,0.88
5961.00,0.88
5960.00,0.87
5959.00,0.87
5958.00,0.86
5957.00,0.86
5956.00,0.85
5955.00,0.85
5954.00,0.85
5953.00,0.84
5952.00,0.84
5951.00,0.83
5950.00,0.83
5949.00,0.83
5948.00,0.82
5947.00,0.82
5946.00,0.82
5945.00,0.82
5944.00,0.81
5943.00,0.81
5942.00,0.81
5941.00,0.81
5940.00,0.81
5939.00,0.81
5938.00,0.81
5937.00,0.81
5936.00,0.81
5935.00,0.81
5934.00,0.81
5933.00,0.81
5932.00,0.81
5931.00,0.81
5930.00,0.81
5929.00,0.81
5928.00,0.81
5927.00,0.81
5926.00,0.80
5925.00,0.80
5924.00,0.80
5923.00,0.80
5922.00,0.80
5921.00,0.80
5920.00,0.80
5919.00,0.80
5918.00,0.79
5917.00,0.79
5916.00,0.79
5915.00,0.79
5914.00,0.79
5913.00,0.79
5912.00,0.78
5911.00,0.78
5910.00,0.78
5909.00,0.78
5908.00,0.78
5907.00,0.78
5906.00,0.78
5905.00,0.78
5904.00,0.78
5903.00,0.78
5902.00,0.78
5901.00,0.78
5900.00,0.78
5899.00,0.78
5898.00,0.78
5897.00,0.78
5896.00,0.78
5895.00,0.78
5894.00,0.78
5893.00,0.78
5892.00,0.79
5891.00,0.79
5890.00,0.79
5889.00,0.79
5888.00,0.79
5887.00,0.79
5886.00,0.80
5885.00,0.80
5884.00,0.80
5883.00,0.80
5882.00,0.80
5881.00,0.80
5880.00,0.81
5879.00,0.81
5878.00,0.81
5877.00,0.81
5876.00,0.81
5875.00,0.81
5874.00,0.82
5873.00,0.82
5872.00,0.82
5871.00,0.82
5870.00,0.82
5869.00,0.82
5868.00,0.82
5867.00,0.82
5866.00,0.82
5865.00,0.82
5864.00,0.83
5863.00,0.83
5862.00,0.83
5861.00,0.83
5860.00,0.83
5859.00,0.83
5858.00,0.83
5857.00,0.83
5856.00,0.83
5855.00,0.83
5854.00,0.83
5853.00,0.83
5852.00,0.84
5851.00,0.84
5850.00,0.84
5849.00,0.84
5848.00,0.84
5847.00,0.84
5846.00,0.84
5845.00,0.84
5844.00,0.84
5843.00,0.84
5842.00,0.84
5841.00,0.84
5840.00,0.84
5839.00,0.84
5838.00,0.84
5837.00,0.84
5836.00,0.84
5835.00,0.84
5834.00,0.84
5833.00,0.84
5832.00,0.84
5831.00,0.84
5830.00,0.84
5829.00,0.84
5828.00,0.84
5827.00,0.84
5826.00,0.84
5825.00,0.84
5824.00,0.84
5823.00,0.84
5822.00,0.84
5821.00,0.84
5820.00,0.84
5819.00,0.84
5818.00,0.84
5817.00,0.84
5816.00,0.84
5815.00,0.84
5814.00,0.84
5813.00,0.84
5812.00,0.84
5811.00,0.84
5810.00,0.84
5809.00,0.84
5808.00,0.84
5807.00,0.84
5806.00,0.84
5805.00,0.84
5804.00,0.84
5803.00,0.84
5802.00,0.84
5801.00,0.84
5800.00,0.84
5799.00,0.84
5798.00,0.84
5797.00,0.84
5796.00,0.83
5795.00,0.83
5794.00,0.83
5793.00,0.83
5792.00,0.83
5791.00,0.83
5790.00,0.83
5789.00,0.83
5788.00,0.82
5787.00,0.82
5786.00,0.82
5785.00,0.82
5784.00,0.82
5783.00,0.82
5782.00,0.82
5781.00,0.82
5780.00,0.82
5779.00,0.82
5778.00,0.81
5777.00,0.81
5776.00,0.81
5775.00,0.81
5774.00,0.81
5773.00,0.81
5772.00,0.82
5771.00,0.82
5770.00,0.82
5769.00,0.82
5768.00,0.82
5767.00,0.82
5766.00,0.82
5765.00,0.82
5764.00,0.82
5763.00,0.82
5762.00,0.82
5761.00,0.82
5760.00,0.82
5759.00,0.83
5758.00,0.83
5757.00,0.83
5756.00,0.83
5755.00,0.83
5754.00,0.83
5753.00,0.84
5752.00,0.84
5751.00,0.84
5750.00,0.84
5749.00,0.85
5748.00,0.85
5747.00,0.85
5746.00,0.85
5745.00,0.85
5744.00,0.86
5743.00,0.86
5742.00,0.86
5741.00,0.86
5740.00,0.86
5739.00,0.87
5738.00,0.87
5737.00,0.87
5736.00,0.87
5735.00,0.87
5734.00,0.87
5733.00,0.87
5732.00,0.87
5731.00,0.88
5730.00,0.88
5729.00,0.88
5728.00,0.88
5727.00,0.88
5726.00,0.88
5725.00,0.88
5724.00,0.88
5723.00,0.88
5722.00,0.88
5721.00,0.88
5720.00,0.88
5719.00,0.88
5718.00,0.88
5717.00,0.88
5716.00,0.88
5715.00,0.88
5714.00,0.88
5713.00,0.88
5712.00,0.88
5711.00,0.88
5710.00,0.88
5709.00,0.88
5708.00,0.88
5707.00,0.88
5706.00,0.88
5705.00,0.88
5704.00,0.88
5703.00,0.88
5702.00,0.88
5701.00,0.88
5700.00,0.88
5699.00,0.88
5698.00,0.88
5697.00,0.88
5696.00,0.88
5695.00,0.88
5694.00,0.88
5693.00,0.88
5692.00,0.88
5691.00,0.87
5690.00,0.87
5689.00,0.87
5688.00,0.87
5687.00,0.87
5686.00,0.87
5685.00,0.87
5684.00,0.87
5683.00,0.87
5682.00,0.87
5681.00,0.87
5680.00,0.87
5679.00,0.87
5678.00,0.86
5677.00,0.86
5676.00,0.86
5675.00,0.86
5674.00,0.86
5673.00,0.86
5672.00,0.86
5671.00,0.86
5670.00,0.86
5669.00,0.86
5668.00,0.86
5667.00,0.86
5666.00,0.86
5665.00,0.86
5664.00,0.87
5663.00,0.87
5662.00,0.87
5661.00,0.87
5660.00,0.87
5659.00,0.87
5658.00,0.87
5657.00,0.87
5656.00,0.87
5655.00,0.88
5654.00,0.88
5653.00,0.88
5652.00,0.88
5651.00,0.88
5650.00,0.88
5649.00,0.88
5648.00,0.89
5647.00,0.89
5646.00,0.89
5645.00,0.89
5644.00,0.89
5643.00,0.89
5642.00,0.89
5641.00,0.89
5640.00,0.90
5639.00,0.90
5638.00,0.90
5637.00,0.90
5636.00,0.90
5635.00,0.90
5634.00,0.90
5633.00,0.90
5632.00,0.91
5631.00,0.91
5630.00,0.91
5629.00,0.91
5628.00,0.91
5627.00,0.91
5626.00,0.91
5625.00,0.91
5624.00,0.92
5623.00,0.92
5622.00,0.92
5621.00,0.92
5620.00,0.92
5619.00,0.92
5618.00,0.92
5617.00,0.92
5616.00,0.92
5615.00,0.92
5614.00,0.93
5613.00,0.93
5612.00,0.93
5611.00,0.93
5610.00,0.93
5609.00,0.93
5608.00,0.93
5607.00,0.93
5606.00,0.93
5605.00,0.93
5604.00,0.93
5603.00,0.94
5602.00,0.94
5601.00,0.94
5600.00,0.94
5599.00,0.94
5598.00,0.94
5597.00,0.94
5596.00,0.94
5595.00,0.94
5594.00,0.95
5593.00,0.95
5592.00,0.95
5591.00,0.95
5590.00,0.95
5589.00,0.95
5588.00,0.95
5587.00,0.95
5586.00,0.95
5585.00,0.95
5584.00,0.96
5583.00,0.96
5582.00,0.96
5581.00,0.96
5580.00,0.96
5579.00,0.96
5578.00,0.96
5577.00,0.96
5576.00,0.96
5575.00,0.96
5574.00,0.96
5573.00,0.97
5572.00,0.97
5571.00,0.97
5570.00,0.97
5569.00,0.97
5568.00,0.97
5567.00,0.97
5566.00,0.97
5565.00,0.97
5564.00,0.97
5563.00,0.97
5562.00,0.98
5561.00,0.98
5560.00,0.98
5559.00,0.98
5558.00,0.98
5557.00,0.98
5556.00,0.98
5555.00,0.98
5554.00,0.98
5553.00,0.98
5552.00,0.98
5551.00,0.99
5550.00,0.99
5549.00,0.99
5548.00,0.99
5547.00,0.99
5546.00,0.99
5545.00,0.99
5544.00,0.99
5543.00,0.99
5542.00,0.99
5541.00,0.99
5540.00,0.99
5539.00,1.00
5538.00,1.00
5537.00,1.00
5536.00,1.00
5535.00,1.00
5534.00,1.00
5533.00,1.00
5532.00,1.00
5531.00,1.00
5530.00,1.00
5529.00,1.00
5528.00,1.01
5527.00,1.01
5526.00,1.01
5525.00,1.01
5524.00,1.01
5523.00,1.01
5522.00,1.01
5521.00,1.01
5520.00,1.01
5519.00,1.01
5518.00,1.01
5517.00,1.01
5516.00,1.01
5515.00,1.01
5514.00,1.01
5513.00,1.01
5512.00,1.01
5511.00,1.01
5510.00,1.01
5509.00,1.01
5508.00,1.01
5507.00,1.01
5506.00,1.01
5505.00,1.01
5504.00,1.01
5503.00,1.01
5502.00,1.01
5501.00,1.01
5500.00,1.01
5499.00,1.01
5498.00,1.01
5497.00,1.02
5496.00,1.02
5495.00,1.02
5494.00,1.02
5493.00,1.02
5492.00,1.02
5491.00,1.02
5490.00,1.02
5489.00,1.02
5488.00,1.02
5487.00,1.03
5486.00,1.03
5485.00,1.03
5484.00,1.03
5483.00,1.03
5482.00,1.03
5481.00,1.03
5480.00,1.03
5479.00,1.03
5478.00,1.03
5477.00,1.03
5476.00,1.03
5475.00,1.04
5474.00,1.04
5473.00,1.04
5472.00,1.04
5471.00,1.04
5470.00,1.04
5469.00,1.04
5468.00,1.04
5467.00,1.04
5466.00,1.05
5465.00,1.05
5464.00,1.05
5463.00,1.05
5462.00,1.05
5461.00,1.05
5460.00,1.05
5459.00,1.05
5458.00,1.05
5457.00,1.05
5456.00,1.05
5455.00,1.06
5454.00,1.06
5453.00,1.06
5452.00,1.06
5451.00,1.06
5450.00,1.06
5449.00,1.06
5448.00,1.06
5447.00,1.06
5446.00,1.06
5445.00,1.06
5444.00,1.06
5443.00,1.06
5442.00,1.06
5441.00,1.06
5440.00,1.06
5439.00,1.06
5438.00,1.06
5437.00,1.06
5436.00,1.06
5435.00,1.06
5434.00,1.06
5433.00,1.06
5432.00,1.06
5431.00,1.06
5430.00,1.06
5429.00,1.06
5428.00,1.06
5427.00,1.06
5426.00,1.06
5425.00,1.06
5424.00,1.06
5423.00,1.06
5422.00,1.06
5421.00,1.06
5420.00,1.06
5419.00,1.06
5418.00,1.06
5417.00,1.06
5416.00,1.06
5415.00,1.06
5414.00,1.06
5413.00,1.06
5412.00,1.06
5411.00,1.06
5410.00,1.06
5409.00,1.06
5408.00,1.06
5407.00,1.06
5406.00,1.06
5405.00,1.06
5404.00,1.06
5403.00,1.06
5402.00,1.06
5401.00,1.06
5400.00,1.06
5399.00,1.06
5398.00,1.06
5397.00,1.06
5396.00,1.06
5395.00,1.06
5394.00,1.06
5393.00,1.06
5392.00,1.06
5391.00,1.05
5390.00,1.05
5389.00,1.05
5388.00,1.05
5387.00,1.05
5386.00,1.05
5385.00,1.05
5384.00,1.05
5383.00,1.04
5382.00,1.04
5381.00,1.04
5380.00,1.04
5379.00,1.04
5378.00,1.04
5377.00,1.03
5376.00,1.03
5375.00,1.03
5374.00,1.03
5373.00,1.02
5372.00,1.02
5371.00,1.02
5370.00,1.01
5369.00,1.01
5368.00,1.01
5367.00,1.01
5366.00,1.00
5365.00,1.00
5364.00,1.00
5363.00,0.99
5362.00,0.99
5361.00,0.99
5360.00,0.98
5359.00,0.98
5358.00,0.97
5357.00,0.97
5356.00,0.97
5355.00,0.96
5354.00,0.96
5353.00,0.95
5352.00,0.95
5351.00,0.94
5350.00,0.94
5349.00,0.93
5348.00,0.93
5347.00,0.92
5346.00,0.91
5345.00,0.91
5344.00,0.90
5343.00,0.90
5342.00,0.89
5341.00,0.88
5340.00,0.88
5339.00,0.87
5338.00,0.86
5337.00,0.86
5336.00,0.85
5335.00,0.85
5334.00,0.84
5333.00,0.83
5332.00,0.83
5331.00,0.82
5330.00,0.81
5329.00,0.81
5328.00,0.80
5327.00,0.80
5326.00,0.79
5325.00,0.78
5324.00,0.78
5323.00,0.77
5322.00,0.77
5321.00,0.76
5320.00,0.76
5319.00,0.75
5318.00,0.74
5317.00,0.74
5316.00,0.73
5315.00,0.73
5314.00,0.72
5313.00,0.72
5312.00,0.71
5311.00,0.71
5310.00,0.70
5309.00,0.70
5308.00,0.69
5307.00,0.69
5306.00,0.68
5305.00,0.68
5304.00,0.68
5303.00,0.67
5302.00,0.67
5301.00,0.66
5300.00,0.66
5299.00,0.66
5298.00,0.66
5297.00,0.65
5296.00,0.65
5295.00,0.65
5294.00,0.65
5293.00,0.64
5292.00,0.64
5291.00,0.64
5290.00,0.64
5289.00,0.64
5288.00,0.64
5287.00,0.63
5286.00,0.63
5285.00,0.63
5284.00,0.63
5283.00,0.63
5282.00,0.63
5281.00,0.63
5280.00,0.63
5279.00,0.62
5278.00,0.62
5277.00,0.62
5276.00,0.62
5275.00,0.62
5274.00,0.62
5273.00,0.62
5272.00,0.62
5271.00,0.62
5270.00,0.62
5269.00,0.62
5268.00,0.62
5267.00,0.62
5266.00,0.62
5265.00,0.62
5264.00,0.61
5263.00,0.61
5262.00,0.61
5261.00,0.61
5260.00,0.61
5259.00,0.61
5258.00,0.61
5257.00,0.61
5256.00,0.61
5255.00,0.61
5254.00,0.62
5253.00,0.62
5252.00,0.62
5251.00,0.62
5250.00,0.62
5249.00,0.62
5248.00,0.62
5247.00,0.62
5246.00,0.62
5245.00,0.62
5244.00,0.62
5243.00,0.62
5242.00,0.62
5241.00,0.62
5240.00,0.62
5239.00,0.62
5238.00,0.62
5237.00,0.62
5236.00,0.62
5235.00,0.62
5234.00,0.62
5233.00,0.62
5232.00,0.62
5231.00,0.62
5230.00,0.62
5229.00,0.62
5228.00,0.62
5227.00,0.62
5226.00,0.62
5225.00,0.62
5224.00,0.62
5223.00,0.62
5222.00,0.62
5221.00,0.62
5220.00,0.62
5219.00,0.62
5218.00,0.62
5217.00,0.62
5216.00,0.62
5215.00,0.62
5214.00,0.62
5213.00,0.62
5212.00,0.62
5211.00,0.62
5210.00,0.62
5209.00,0.62
5208.00,0.62
5207.00,0.62
5206.00,0.62
5205.00,0.62
5204.00,0.63
5203.00,0.63
5202.00,0.63
5201.00,0.63
5200.00,0.63
5199.00,0.63
5198.00,0.63
5197.00,0.63
5196.00,0.63
5195.00,0.63
5194.00,0.63
5193.00,0.63
5192.00,0.63
5191.00,0.63
5190.00,0.63
5189.00,0.63
5188.00,0.63
5187.00,0.63
5186.00,0.63
5185.00,0.63
5184.00,0.63
5183.00,0.63
5182.00,0.63
5181.00,0.63
5180.00,0.63
5179.00,0.63
5178.00,0.63
5177.00,0.63
5176.00,0.63
5175.00,0.63
5174.00,0.63
5173.00,0.63
5172.00,0.63
5171.00,0.63
5170.00,0.63
5169.00,0.63
5168.00,0.64
5167.00,0.64
5166.00,0.64
5165.00,0.64
5164.00,0.64
5163.00,0.64
5162.00,0.64
5161.00,0.64
5160.00,0.64
5159.00,0.64
5158.00,0.64
5157.00,0.64
5156.00,0.64
5155.00,0.64
5154.00,0.64
5153.00,0.64
5152.00,0.64
5151.00,0.64
5150.00,0.64
5149.00,0.64
5148.00,0.64
5147.00,0.64
5146.00,0.64
5145.00,0.64
5144.00,0.65
5143.00,0.65
5142.00,0.65
5141.00,0.65
5140.00,0.65
5139.00,0.65
5138.00,0.65
5137.00,0.65
5136.00,0.65
5135.00,0.65
5134.00,0.65
5133.00,0.65
5132.00,0.65
5131.00,0.65
5130.00,0.65
5129.00,0.65
5128.00,0.65
5127.00,0.65
5126.00,0.65
5125.00,0.65
5124.00,0.65
5123.00,0.65
5122.00,0.65
5121.00,0.65
5120.00,0.65
5119.00,0.65
5118.00,0.65
5117.00,0.65
5116.00,0.65
5115.00,0.65
5114.00,0.65
5113.00,0.65
5112.00,0.65
5111.00,0.65
5110.00,0.65
5109.00,0.65
5108.00,0.65
5107.00,0.65
5106.00,0.66
5105.00,0.66
5104.00,0.66
5103.00,0.66
5102.00,0.66
5101.00,0.66
5100.00,0.66
5099.00,0.66
5098.00,0.66
5097.00,0.66
5096.00,0.66
5095.00,0.66
5094.00,0.66
5093.00,0.66
5092.00,0.66
5091.00,0.66
5090.00,0.66
5089.00,0.66
5088.00,0.66
5087.00,0.66
5086.00,0.66
5085.00,0.66
5084.00,0.66
5083.00,0.66
5082.00,0.66
5081.00,0.66
5080.00,0.66
5079.00,0.66
5078.00,0.67
5077.00,0.67
5076.00,0.67
5075.00,0.67
5074.00,0.67
5073.00,0.67
5072.00,0.67
5071.00,0.67
5070.00,0.67
5069.00,0.67
5068.00,0.67
5067.00,0.67
5066.00,0.67
5065.00,0.67
5064.00,0.67
5063.00,0.67
5062.00,0.67
5061.00,0.67
5060.00,0.67
5059.00,0.67
5058.00,0.67
5057.00,0.67
5056.00,0.67
5055.00,0.67
5054.00,0.67
5053.00,0.67
5052.00,0.67
5051.00,0.68
5050.00,0.68
5049.00,0.68
5048.00,0.68
5047.00,0.68
5046.00,0.68
5045.00,0.68
5044.00,0.68
5043.00,0.68
5042.00,0.68
5041.00,0.68
5040.00,0.68
5039.00,0.68
5038.00,0.68
5037.00,0.68
5036.00,0.69
5035.00,0.69
5034.00,0.69
5033.00,0.69
5032.00,0.69
5031.00,0.69
5030.00,0.69
5029.00,0.69
5028.00,0.69
5027.00,0.69
5026.00,0.69
5025.00,0.69
5024.00,0.69
5023.00,0.69
5022.00,0.69
5021.00,0.69
5020.00,0.69
5019.00,0.69
5018.00,0.69
5017.00,0.69
5016.00,0.69
5015.00,0.69
5014.00,0.69
5013.00,0.69
5012.00,0.69
5011.00,0.69
5010.00,0.69
5009.00,0.69
5008.00,0.69
5007.00,0.70
5006.00,0.70
5005.00,0.70
5004.00,0.70
5003.00,0.70
5002.00,0.70
5001.00,0.70
5000.00,0.70
4999.00,0.70
4998.00,0.70
4997.00,0.70
4996.00,0.70
4995.00,0.70
4994.00,0.70
4993.00,0.70
4992.00,0.70
4991.00,0.71
4990.00,0.71
4989.00,0.71
4988.00,0.71
4987.00,0.71
4986.00,0.71
4985.00,0.71
4984.00,0.71
4983.00,0.71
4982.00,0.71
4981.00,0.71
4980.00,0.71
4979.00,0.71
4978.00,0.71
4977.00,0.71
4976.00,0.71
4975.00,0.71
4974.00,0.71
4973.00,0.71
4972.00,0.71
4971.00,0.71
4970.00,0.71
4969.00,0.72
4968.00,0.72
4967.00,0.72
4966.00,0.72
4965.00,0.72
4964.00,0.72
4963.00,0.72
4962.00,0.72
4961.00,0.72
4960.00,0.72
4959.00,0.72
4958.00,0.72
4957.00,0.72
4956.00,0.72
4955.00,0.72
4954.00,0.72
4953.00,0.73
4952.00,0.73
4951.00,0.73
4950.00,0.73
4949.00,0.73
4948.00,0.73
4947.00,0.73
4946.00,0.73
4945.00,0.73
4944.00,0.73
4943.00,0.73
4942.00,0.73
4941.00,0.73
4940.00,0.73
4939.00,0.73
4938.00,0.73
4937.00,0.73
4936.00,0.73
4935.00,0.73
4934.00,0.74
4933.00,0.74
4932.00,0.74
4931.00,0.74
4930.00,0.74
4929.00,0.74
4928.00,0.74
4927.00,0.74
4926.00,0.74
4925.00,0.74
4924.00,0.74
4923.00,0.74
4922.00,0.74
4921.00,0.74
4920.00,0.74
4919.00,0.74
4918.00,0.74
4917.00,0.74
4916.00,0.74
4915.00,0.74
4914.00,0.75
4913.00,0.75
4912.00,0.75
4911.00,0.75
4910.00,0.75
4909.00,0.75
4908.00,0.75
4907.00,0.75
4906.00,0.75
4905.00,0.75
4904.00,0.75
4903.00,0.75
4902.00,0.75
4901.00,0.75
4900.00,0.75
4899.00,0.75
4898.00,0.75
4897.00,0.75
4896.00,0.75
4895.00,0.75
4894.00,0.75
4893.00,0.75
4892.00,0.75
4891.00,0.75
4890.00,0.75
4889.00,0.75
4888.00,0.75
4887.00,0.75
4886.00,0.75
4885.00,0.75
4884.00,0.75
4883.00,0.75
4882.00,0.75
4881.00,0.75
4880.00,0.75
4879.00,0.75
4878.00,0.75
4877.00,0.75
4876.00,0.75
4875.00,0.75
4874.00,0.75
4873.00,0.75
4872.00,0.75
4871.00,0.75
4870.00,0.75
4869.00,0.75
4868.00,0.75
4867.00,0.75
4866.00,0.76
4865.00,0.76
4864.00,0.76
4863.00,0.76
4862.00,0.76
4861.00,0.76
4860.00,0.76
4859.00,0.76
4858.00,0.76
4857.00,0.76
4856.00,0.76
4855.00,0.76
4854.00,0.76
4853.00,0.76
4852.00,0.76
4851.00,0.76
4850.00,0.76
4849.00,0.76
4848.00,0.76
4847.00,0.76
4846.00,0.76
4845.00,0.77
4844.00,0.77
4843.00,0.77
4842.00,0.77
4841.00,0.77
4840.00,0.77
4839.00,0.77
4838.00,0.77
4837.00,0.77
4836.00,0.77
4835.00,0.77
4834.00,0.77
4833.00,0.77
4832.00,0.77
4831.00,0.77
4830.00,0.77
4829.00,0.77
4828.00,0.77
4827.00,0.77
4826.00,0.77
4825.00,0.78
4824.00,0.78
4823.00,0.78
4822.00,0.78
4821.00,0.78
4820.00,0.78
4819.00,0.78
4818.00,0.78
4817.00,0.78
4816.00,0.78
4815.00,0.78
4814.00,0.78
4813.00,0.78
4812.00,0.78
4811.00,0.78
4810.00,0.79
4809.00,0.79
4808.00,0.79
4807.00,0.79
4806.00,0.79
4805.00,0.79
4804.00,0.79
4803.00,0.79
4802.00,0.79
4801.00,0.79
4800.00,0.79
4799.00,0.79
4798.00,0.79
4797.00,0.79
4796.00,0.79
4795.00,0.79
4794.00,0.79
4793.00,0.79
4792.00,0.79
4791.00,0.80
4790.00,0.80
4789.00,0.80
4788.00,0.80
4787.00,0.80
4786.00,0.80
4785.00,0.80
4784.00,0.80
4783.00,0.80
4782.00,0.80
4781.00,0.80
4780.00,0.80
4779.00,0.80
4778.00,0.80
4777.00,0.80
4776.00,0.80
4775.00,0.80
4774.00,0.80
4773.00,0.81
4772.00,0.81
4771.00,0.81
4770.00,0.81
4769.00,0.81
4768.00,0.81
4767.00,0.81
4766.00,0.81
4765.00,0.81
4764.00,0.81
4763.00,0.81
4762.00,0.81
4761.00,0.81
4760.00,0.82
4759.00,0.82
4758.00,0.82
4757.00,0.82
4756.00,0.82
4755.00,0.82
4754.00,0.82
4753.00,0.82
4752.00,0.82
4751.00,0.83
4750.00,0.83
4749.00,0.83
4748.00,0.83
4747.00,0.83
4746.00,0.83
4745.00,0.83
4744.00,0.83
4743.00,0.83
4742.00,0.83
4741.00,0.83
4740.00,0.84
4739.00,0.84
4738.00,0.84
4737.00,0.84
4736.00,0.84
4735.00,0.84
4734.00,0.84
4733.00,0.84
4732.00,0.84
4731.00,0.84
4730.00,0.84
4729.00,0.84
4728.00,0.84
4727.00,0.84
4726.00,0.84
4725.00,0.84
4724.00,0.85
4723.00,0.85
4722.00,0.85
4721.00,0.85
4720.00,0.85
4719.00,0.85
4718.00,0.85
4717.00,0.86
4716.00,0.86
4715.00,0.86
4714.00,0.86
4713.00,0.86
4712.00,0.86
4711.00,0.87
4710.00,0.87
4709.00,0.87
4708.00,0.87
4707.00,0.87
4706.00,0.87
4705.00,0.87
4704.00,0.87
4703.00,0.87
4702.00,0.87
4701.00,0.87
4700.00,0.88
4699.00,0.88
4698.00,0.88
4697.00,0.88
4696.00,0.88
4695.00,0.88
4694.00,0.88
4693.00,0.88
4692.00,0.88
4691.00,0.88
4690.00,0.88
4689.00,0.88
4688.00,0.88
4687.00,0.88
4686.00,0.89
4685.00,0.89
4684.00,0.89
4683.00,0.89
4682.00,0.89
4681.00,0.89
4680.00,0.89
4679.00,0.89
4678.00,0.89
4677.00,0.89
4676.00,0.89
4675.00,0.90
4674.00,0.90
4673.00,0.90
4672.00,0.90
4671.00,0.90
4670.00,0.90
4669.00,0.90
4668.00,0.90
4667.00,0.90
4666.00,0.90
4665.00,0.90
4664.00,0.90
4663.00,0.91
4662.00,0.91
4661.00,0.91
4660.00,0.91
4659.00,0.91
4658.00,0.91
4657.00,0.91
4656.00,0.91
4655.00,0.91
4654.00,0.91
4653.00,0.91
4652.00,0.92
4651.00,0.92
4650.00,0.92
4649.00,0.92
4648.00,0.92
4647.00,0.92
4646.00,0.92
4645.00,0.92
4644.00,0.92
4643.00,0.92
4642.00,0.92
4641.00,0.92
4640.00,0.92
4639.00,0.93
4638.00,0.93
4637.00,0.93
4636.00,0.93
4635.00,0.93
4634.00,0.93
4633.00,0.93
4632.00,0.93
4631.00,0.93
4630.00,0.93
4629.00,0.93
4628.00,0.93
4627.00,0.93
4626.00,0.93
4625.00,0.94
4624.00,0.94
4623.00,0.94
4622.00,0.94
4621.00,0.94
4620.00,0.94
4619.00,0.94
4618.00,0.94
4617.00,0.94
4616.00,0.94
4615.00,0.94
4614.00,0.94
4613.00,0.94
4612.00,0.94
4611.00,0.94
4610.00,0.94
4609.00,0.94
4608.00,0.94
4607.00,0.94
4606.00,0.94
4605.00,0.94
4604.00,0.94
4603.00,0.94
4602.00,0.94
4601.00,0.94
4600.00,0.94
4599.00,0.94
4598.00,0.95
4597.00,0.95
4596.00,0.95
4595.00,0.95
4594.00,0.95
4593.00,0.95
4592.00,0.95
4591.00,0.95
4590.00,0.95
4589.00,0.95
4588.00,0.95
4587.00,0.96
4586.00,0.96
4585.00,0.96
4584.00,0.96
4583.00,0.96
4582.00,0.96
4581.00,0.96
4580.00,0.96
4579.00,0.96
4578.00,0.96
4577.00,0.96
4576.00,0.96
4575.00,0.96
4574.00,0.96
4573.00,0.96
4572.00,0.96
4571.00,0.96
4570.00,0.96
4569.00,0.96
4568.00,0.96
4567.00,0.96
4566.00,0.96
4565.00,0.97
4564.00,0.97
4563.00,0.97
4562.00,0.97
4561.00,0.97
4560.00,0.97
4559.00,0.97
4558.00,0.97
4557.00,0.97
4556.00,0.97
4555.00,0.97
4554.00,0.97
4553.00,0.97
4552.00,0.97
4551.00,0.98
4550.00,0.98
4549.00,0.98
4548.00,0.98
4547.00,0.98
4546.00,0.98
4545.00,0.98
4544.00,0.98
4543.00,0.98
4542.00,0.98
4541.00,0.98
4540.00,0.98
4539.00,0.98
4538.00,0.98
4537.00,0.98
4536.00,0.98
4535.00,0.98
4534.00,0.98
4533.00,0.98
4532.00,0.98
4531.00,0.98
4530.00,0.98
4529.00,0.98
4528.00,0.98
4527.00,0.98
4526.00,0.98
4525.00,0.98
4524.00,0.98
4523.00,0.98
4522.00,0.99
4521.00,0.99
4520.00,0.99
4519.00,0.99
4518.00,0.99
4517.00,0.99
4516.00,0.99
4515.00,0.99
4514.00,0.99
4513.00,0.99
4512.00,0.99
4511.00,0.99
4510.00,0.99
4509.00,0.99
4508.00,0.99
4507.00,0.99
4506.00,0.99
4505.00,0.99
4504.00,0.99
4503.00,0.99
4502.00,0.99
4501.00,0.99
4500.00,0.99
4499.00,0.99
4498.00,0.99
4497.00,0.99
4496.00,0.99
4495.00,0.99
4494.00,0.99
4493.00,0.99
4492.00,0.99
4491.00,0.99
4490.00,0.99
4489.00,0.99
4488.00,0.99
4487.00,0.99
4486.00,0.99
4485.00,0.99
4484.00,0.99
4483.00,0.98
4482.00,0.98
4481.00,0.98
4480.00,0.98
4479.00,0.98
4478.00,0.98
4477.00,0.98
4476.00,0.98
4475.00,0.98
4474.00,0.98
4473.00,0.98
4472.00,0.98
4471.00,0.97
4470.00,0.97
4469.00,0.97
4468.00,0.97
4467.00,0.97
4466.00,0.97
4465.00,0.97
4464.00,0.96
4463.00,0.96
4462.00,0.96
4461.00,0.96
4460.00,0.96
4459.00,0.96
4458.00,0.95
4457.00,0.95
4456.00,0.95
4455.00,0.95
4454.00,0.95
4453.00,0.95
4452.00,0.94
4451.00,0.94
4450.00,0.94
4449.00,0.94
4448.00,0.94
4447.00,0.93
4446.00,0.93
4445.00,0.93
4444.00,0.93
4443.00,0.93
4442.00,0.93
4441.00,0.92
4440.00,0.92
4439.00,0.92
4438.00,0.92
4437.00,0.91
4436.00,0.91
4435.00,0.91
4434.00,0.91
4433.00,0.91
4432.00,0.90
4431.00,0.90
4430.00,0.90
4429.00,0.90
4428.00,0.90
4427.00,0.90
4426.00,0.90
4425.00,0.90
4424.00,0.90
4423.00,0.90
4422.00,0.89
4421.00,0.89
4420.00,0.89
4419.00,0.89
4418.00,0.89
4417.00,0.89
4416.00,0.89
4415.00,0.89
4414.00,0.90
4413.00,0.90
4412.00,0.90
4411.00,0.90
4410.00,0.90
4409.00,0.90
4408.00,0.90
4407.00,0.90
4406.00,0.90
4405.00,0.90
4404.00,0.90
4403.00,0.90
4402.00,0.90
4401.00,0.90
4400.00,0.90
4399.00,0.90
4398.00,0.90
4397.00,0.90
4396.00,0.90
4395.00,0.90
4394.00,0.90
4393.00,0.90
4392.00,0.90
4391.00,0.90
4390.00,0.90
4389.00,0.91
4388.00,0.91
4387.00,0.91
4386.00,0.91
4385.00,0.91
4384.00,0.91
4383.00,0.91
4382.00,0.91
4381.00,0.91
4380.00,0.91
4379.00,0.91
4378.00,0.91
4377.00,0.91
4376.00,0.92
4375.00,0.92
4374.00,0.92
4373.00,0.92
4372.00,0.92
4371.00,0.92
4370.00,0.92
4369.00,0.92
4368.00,0.92
4367.00,0.92
4366.00,0.92
4365.00,0.92
4364.00,0.92
4363.00,0.92
4362.00,0.92
4361.00,0.92
4360.00,0.92
4359.00,0.92
4358.00,0.93
4357.00,0.93
4356.00,0.93
4355.00,0.93
4354.00,0.93
4353.00,0.93
4352.00,0.93
4351.00,0.93
4350.00,0.93
4349.00,0.93
4348.00,0.93
4347.00,0.93
4346.00,0.93
4345.00,0.93
4344.00,0.93
4343.00,0.93
4342.00,0.93
4341.00,0.93
4340.00,0.93
4339.00,0.93
4338.00,0.93
4337.00,0.93
4336.00,0.93
4335.00,0.93
4334.00,0.93
4333.00,0.93
4332.00,0.93
4331.00,0.93
4330.00,0.93
4329.00,0.93
4328.00,0.93
4327.00,0.93
4326.00,0.93
4325.00,0.93
4324.00,0.93
4323.00,0.93
4322.00,0.93
4321.00,0.93
4320.00,0.94
4319.00,0.94
4318.00,0.94
4317.00,0.94
4316.00,0.94
4315.00,0.94
4314.00,0.94
4313.00,0.95
4312.00,0.95
4311.00,0.95
4310.00,0.95
4309.00,0.95
4308.00,0.95
4307.00,0.96
4306.00,0.96
4305.00,0.96
4304.00,0.96
4303.00,0.96
4302.00,0.96
4301.00,0.96
4300.00,0.96
4299.00,0.96
4298.00,0.96
4297.00,0.96
4296.00,0.96
4295.00,0.96
4294.00,0.96
4293.00,0.96
4292.00,0.96
4291.00,0.96
4290.00,0.96
4289.00,0.96
4288.00,0.96
4287.00,0.96
4286.00,0.96
4285.00,0.96
4284.00,0.96
4283.00,0.96
4282.00,0.96
4281.00,0.96
4280.00,0.96
4279.00,0.96
4278.00,0.96
4277.00,0.96
4276.00,0.96
4275.00,0.96
4274.00,0.96
4273.00,0.96
4272.00,0.96
4271.00,0.96
4270.00,0.97
4269.00,0.97
4268.00,0.97
4267.00,0.97
4266.00,0.97
4265.00,0.97
4264.00,0.97
4263.00,0.97
4262.00,0.97
4261.00,0.97
4260.00,0.97
4259.00,0.97
4258.00,0.97
4257.00,0.97
4256.00,0.97
4255.00,0.97
4254.00,0.97
4253.00,0.97
4252.00,0.97
4251.00,0.97
4250.00,0.98
4249.00,0.98
4248.00,0.98
4247.00,0.98
4246.00,0.98
4245.00,0.98
4244.00,0.98
4243.00,0.98
4242.00,0.98
4241.00,0.98
4240.00,0.98
4239.00,0.98
4238.00,0.98
4237.00,0.98
4236.00,0.99
4235.00,0.99
4234.00,0.99
4233.00,0.99
4232.00,0.99
4231.00,0.99
4230.00,0.99
4229.00,0.99
4228.00,0.99
4227.00,0.99
4226.00,0.99
4225.00,0.99
4224.00,0.99
4223.00,0.99
4222.00,0.99
4221.00,0.99
4220.00,0.99
4219.00,0.99
4218.00,0.99
4217.00,0.99
4216.00,0.99
4215.00,0.99
4214.00,0.99
4213.00,0.99
4212.00,0.99
4211.00,1.00
4210.00,1.00
4209.00,1.00
4208.00,1.00
4207.00,1.00
4206.00,1.00
4205.00,1.00
4204.00,1.00
4203.00,1.00
4202.00,1.00
4201.00,1.00
4200.00,1.00
4199.00,1.00
4198.00,1.00
4197.00,1.00
4196.00,1.00
4195.00,1.00
4194.00,1.00
4193.00,1.00
4192.00,1.00
4191.00,1.00
4190.00,1.00
4189.00,1.00
4188.00,1.00
4187.00,1.00
4186.00,1.00
4185.00,1.00
4184.00,1.00
4183.00,1.00
4182.00,1.00
4181.00,1.00
4180.00,1.00
4179.00,1.00
4178.00,1.00
4177.00,1.00
4176.00,1.00
4175.00,1.00
4174.00,1.00
4173.00,1.00
4172.00,1.00
4171.00,1.00
4170.00,1.00
4169.00,1.00
4168.00,1.00
4167.00,1.00
4166.00,1.00
4165.00,1.00
4164.00,1.00
4163.00,1.00
4162.00,1.00
4161.00,1.00
4160.00,1.00
4159.00,1.00
4158.00,1.00
4157.00,1.00
4156.00,1.01
4155.00,1.01
4154.00,1.01
4153.00,1.01
4152.00,1.01
4151.00,1.01
4150.00,1.01
4149.00,1.01
4148.00,1.01
4147.00,1.01
4146.00,1.01
4145.00,1.01
4144.00,1.01
4143.00,1.01
4142.00,1.00
4141.00,1.00
4140.00,1.00
4139.00,1.00
4138.00,1.00
4137.00,1.00
4136.00,1.00
4135.00,1.00
4134.00,1.00
4133.00,1.00
4132.00,1.01
4131.00,1.01
4130.00,1.01
4129.00,1.01
4128.00,1.01
4127.00,1.01
4126.00,1.01
4125.00,1.01
4124.00,1.01
4123.00,1.01
4122.00,1.01
4121.00,1.02
4120.00,1.02
4119.00,1.02
4118.00,1.02
4117.00,1.02
4116.00,1.02
4115.00,1.02
4114.00,1.02
4113.00,1.02
4112.00,1.02
4111.00,1.02
4110.00,1.02
4109.00,1.02
4108.00,1.02
4107.00,1.02
4106.00,1.02
4105.00,1.02
4104.00,1.02
4103.00,1.02
4102.00,1.02
4101.00,1.02
4100.00,1.02
4099.00,1.02
4098.00,1.03
4097.00,1.03
4096.00,1.03
4095.00,1.03
4094.00,1.03
4093.00,1.03
4092.00,1.03
4091.00,1.03
4090.00,1.03
4089.00,1.03
4088.00,1.03
4087.00,1.03
4086.00,1.03
4085.00,1.03
4084.00,1.03
4083.00,1.03
4082.00,1.03
4081.00,1.03
4080.00,1.03
4079.00,1.03
4078.00,1.03
4077.00,1.03
4076.00,1.03
4075.00,1.04
4074.00,1.04
4073.00,1.04
4072.00,1.04
4071.00,1.04
4070.00,1.04
4069.00,1.04
4068.00,1.04
4067.00,1.04
4066.00,1.04
4065.00,1.04
4064.00,1.04
4063.00,1.05
4062.00,1.05
4061.00,1.05
4060.00,1.05
4059.00,1.05
4058.00,1.05
4057.00,1.05
4056.00,1.05
4055.00,1.05
4054.00,1.05
4053.00,1.05
4052.00,1.05
4051.00,1.05
4050.00,1.05
4049.00,1.05
4048.00,1.05
4047.00,1.05
4046.00,1.05
4045.00,1.05
4044.00,1.05
4043.00,1.05
4042.00,1.05
4041.00,1.05
4040.00,1.05
4039.00,1.05
4038.00,1.05
4037.00,1.05
4036.00,1.05
4035.00,1.05
4034.00,1.05
4033.00,1.05
4032.00,1.05
4031.00,1.05
4030.00,1.05
4029.00,1.06
4028.00,1.06
4027.00,1.06
4026.00,1.06
4025.00,1.06
4024.00,1.06
4023.00,1.06
4022.00,1.06
4021.00,1.06
4020.00,1.06
4019.00,1.06
4018.00,1.06
4017.00,1.06
4016.00,1.06
4015.00,1.06
4014.00,1.06
4013.00,1.06
4012.00,1.06
4011.00,1.06
4010.00,1.06
4009.00,1.06
4008.00,1.06
4007.00,1.06
4006.00,1.06
4005.00,1.06
4004.00,1.06
4003.00,1.06
4002.00,1.06
4001.00,1.06
4000.00,1.06
