创建为新数据集,样品 324 用户 Administrator 日期 星期四, 三月 08 2018
cm-1,%T
10000.00,1.27
9999.00,1.27
9998.00,1.27
9997.00,1.26
9996.00,1.26
9995.00,1.26
9994.00,1.26
9993.00,1.26
9992.00,1.26
9991.00,1.26
9990.00,1.26
9989.00,1.26
9988.00,1.25
9987.00,1.25
9986.00,1.25
9985.00,1.25
9984.00,1.25
9983.00,1.25
9982.00,1.25
9981.00,1.25
9980.00,1.25
9979.00,1.25
9978.00,1.25
9977.00,1.25
9976.00,1.25
9975.00,1.25
9974.00,1.25
9973.00,1.25
9972.00,1.25
9971.00,1.26
9970.00,1.26
9969.00,1.26
9968.00,1.26
9967.00,1.26
9966.00,1.26
9965.00,1.26
9964.00,1.26
9963.00,1.26
9962.00,1.26
9961.00,1.26
9960.00,1.26
9959.00,1.26
9958.00,1.26
9957.00,1.25
9956.00,1.25
9955.00,1.25
9954.00,1.24
9953.00,1.24
9952.00,1.24
9951.00,1.24
9950.00,1.24
9949.00,1.23
9948.00,1.23
9947.00,1.23
9946.00,1.23
9945.00,1.23
9944.00,1.23
9943.00,1.23
9942.00,1.24
9941.00,1.24
9940.00,1.24
9939.00,1.24
9938.00,1.24
9937.00,1.25
9936.00,1.25
9935.00,1.25
9934.00,1.25
9933.00,1.25
9932.00,1.25
9931.00,1.25
9930.00,1.25
9929.00,1.25
9928.00,1.25
9927.00,1.25
9926.00,1.24
9925.00,1.24
9924.00,1.24
9923.00,1.24
9922.00,1.23
9921.00,1.23
9920.00,1.23
9919.00,1.23
9918.00,1.23
9917.00,1.23
9916.00,1.23
9915.00,1.23
9914.00,1.23
9913.00,1.23
9912.00,1.23
9911.00,1.24
9910.00,1.24
9909.00,1.24
9908.00,1.24
9907.00,1.25
9906.00,1.25
9905.00,1.25
9904.00,1.26
9903.00,1.26
9902.00,1.26
9901.00,1.26
9900.00,1.26
9899.00,1.26
9898.00,1.26
9897.00,1.26
9896.00,1.26
9895.00,1.26
9894.00,1.26
9893.00,1.26
9892.00,1.26
9891.00,1.26
9890.00,1.26
9889.00,1.25
9888.00,1.25
9887.00,1.25
9886.00,1.25
9885.00,1.25
9884.00,1.25
9883.00,1.25
9882.00,1.25
9881.00,1.25
9880.00,1.25
9879.00,1.25
9878.00,1.26
9877.00,1.26
9876.00,1.26
9875.00,1.26
9874.00,1.26
9873.00,1.26
9872.00,1.26
9871.00,1.26
9870.00,1.26
9869.00,1.26
9868.00,1.26
9867.00,1.26
9866.00,1.26
9865.00,1.25
9864.00,1.25
9863.00,1.25
9862.00,1.25
9861.00,1.24
9860.00,1.24
9859.00,1.24
9858.00,1.24
9857.00,1.23
9856.00,1.23
9855.00,1.23
9854.00,1.23
9853.00,1.23
9852.00,1.23
9851.00,1.23
9850.00,1.22
9849.00,1.22
9848.00,1.22
9847.00,1.22
9846.00,1.22
9845.00,1.22
9844.00,1.22
9843.00,1.22
9842.00,1.22
9841.00,1.22
9840.00,1.22
9839.00,1.22
9838.00,1.22
9837.00,1.22
9836.00,1.22
9835.00,1.22
9834.00,1.22
9833.00,1.22
9832.00,1.22
9831.00,1.21
9830.00,1.21
9829.00,1.21
9828.00,1.21
9827.00,1.21
9826.00,1.21
9825.00,1.20
9824.00,1.20
9823.00,1.20
9822.00,1.20
9821.00,1.20
9820.00,1.20
9819.00,1.20
9818.00,1.21
9817.00,1.21
9816.00,1.21
9815.00,1.21
9814.00,1.22
9813.00,1.22
9812.00,1.22
9811.00,1.23
9810.00,1.23
9809.00,1.23
9808.00,1.24
9807.00,1.24
9806.00,1.24
9805.00,1.24
9804.00,1.24
9803.00,1.24
9802.00,1.25
9801.00,1.25
9800.00,1.25
9799.00,1.25
9798.00,1.25
9797.00,1.25
9796.00,1.25
9795.00,1.24
9794.00,1.24
9793.00,1.24
9792.00,1.24
9791.00,1.24
9790.00,1.24
9789.00,1.23
9788.00,1.23
9787.00,1.23
9786.00,1.23
9785.00,1.23
9784.00,1.22
9783.00,1.22
9782.00,1.22
9781.00,1.22
9780.00,1.22
9779.00,1.22
9778.00,1.22
9777.00,1.22
9776.00,1.22
9775.00,1.22
9774.00,1.22
9773.00,1.22
9772.00,1.22
9771.00,1.22
9770.00,1.23
9769.00,1.23
9768.00,1.23
9767.00,1.23
9766.00,1.24
9765.00,1.24
9764.00,1.24
9763.00,1.24
9762.00,1.25
9761.00,1.25
9760.00,1.25
9759.00,1.25
9758.00,1.25
9757.00,1.25
9756.00,1.25
9755.00,1.25
9754.00,1.25
9753.00,1.25
9752.00,1.25
9751.00,1.25
9750.00,1.25
9749.00,1.25
9748.00,1.25
9747.00,1.25
9746.00,1.25
9745.00,1.25
9744.00,1.25
9743.00,1.25
9742.00,1.25
9741.00,1.25
9740.00,1.26
9739.00,1.26
9738.00,1.26
9737.00,1.26
9736.00,1.26
9735.00,1.26
9734.00,1.26
9733.00,1.26
9732.00,1.26
9731.00,1.26
9730.00,1.26
9729.00,1.25
9728.00,1.25
9727.00,1.25
9726.00,1.25
9725.00,1.24
9724.00,1.24
9723.00,1.24
9722.00,1.24
9721.00,1.24
9720.00,1.23
9719.00,1.23
9718.00,1.23
9717.00,1.23
9716.00,1.23
9715.00,1.23
9714.00,1.23
9713.00,1.23
9712.00,1.22
9711.00,1.22
9710.00,1.22
9709.00,1.22
9708.00,1.22
9707.00,1.22
9706.00,1.22
9705.00,1.22
9704.00,1.22
9703.00,1.22
9702.00,1.22
9701.00,1.22
9700.00,1.22
9699.00,1.22
9698.00,1.22
9697.00,1.22
9696.00,1.22
9695.00,1.22
9694.00,1.22
9693.00,1.22
9692.00,1.22
9691.00,1.22
9690.00,1.22
9689.00,1.22
9688.00,1.22
9687.00,1.22
9686.00,1.22
9685.00,1.21
9684.00,1.21
9683.00,1.21
9682.00,1.21
9681.00,1.21
9680.00,1.21
9679.00,1.21
9678.00,1.21
9677.00,1.21
9676.00,1.21
9675.00,1.21
9674.00,1.21
9673.00,1.21
9672.00,1.21
9671.00,1.21
9670.00,1.21
9669.00,1.21
9668.00,1.21
9667.00,1.21
9666.00,1.21
9665.00,1.21
9664.00,1.22
9663.00,1.22
9662.00,1.22
9661.00,1.22
9660.00,1.22
9659.00,1.23
9658.00,1.23
9657.00,1.23
9656.00,1.24
9655.00,1.24
9654.00,1.24
9653.00,1.25
9652.00,1.25
9651.00,1.25
9650.00,1.25
9649.00,1.25
9648.00,1.25
9647.00,1.26
9646.00,1.26
9645.00,1.26
9644.00,1.25
9643.00,1.25
9642.00,1.25
9641.00,1.25
9640.00,1.25
9639.00,1.25
9638.00,1.25
9637.00,1.25
9636.00,1.25
9635.00,1.24
9634.00,1.24
9633.00,1.24
9632.00,1.24
9631.00,1.24
9630.00,1.24
9629.00,1.25
9628.00,1.25
9627.00,1.25
9626.00,1.25
9625.00,1.25
9624.00,1.25
9623.00,1.25
9622.00,1.25
9621.00,1.25
9620.00,1.25
9619.00,1.24
9618.00,1.24
9617.00,1.24
9616.00,1.24
9615.00,1.24
9614.00,1.24
9613.00,1.23
9612.00,1.23
9611.00,1.23
9610.00,1.23
9609.00,1.23
9608.00,1.23
9607.00,1.23
9606.00,1.23
9605.00,1.23
9604.00,1.23
9603.00,1.23
9602.00,1.23
9601.00,1.23
9600.00,1.24
9599.00,1.24
9598.00,1.24
9597.00,1.24
9596.00,1.24
9595.00,1.24
9594.00,1.24
9593.00,1.25
9592.00,1.25
9591.00,1.25
9590.00,1.25
9589.00,1.25
9588.00,1.24
9587.00,1.24
9586.00,1.24
9585.00,1.24
9584.00,1.24
9583.00,1.24
9582.00,1.24
9581.00,1.24
9580.00,1.23
9579.00,1.23
9578.00,1.23
9577.00,1.23
9576.00,1.23
9575.00,1.23
9574.00,1.23
9573.00,1.23
9572.00,1.23
9571.00,1.23
9570.00,1.23
9569.00,1.22
9568.00,1.22
9567.00,1.22
9566.00,1.23
9565.00,1.23
9564.00,1.23
9563.00,1.23
9562.00,1.23
9561.00,1.23
9560.00,1.23
9559.00,1.23
9558.00,1.24
9557.00,1.24
9556.00,1.24
9555.00,1.24
9554.00,1.24
9553.00,1.25
9552.00,1.25
9551.00,1.25
9550.00,1.25
9549.00,1.25
9548.00,1.25
9547.00,1.25
9546.00,1.25
9545.00,1.25
9544.00,1.25
9543.00,1.25
9542.00,1.25
9541.00,1.25
9540.00,1.25
9539.00,1.24
9538.00,1.24
9537.00,1.24
9536.00,1.24
9535.00,1.24
9534.00,1.24
9533.00,1.24
9532.00,1.24
9531.00,1.24
9530.00,1.24
9529.00,1.24
9528.00,1.24
9527.00,1.24
9526.00,1.24
9525.00,1.24
9524.00,1.24
9523.00,1.24
9522.00,1.24
9521.00,1.25
9520.00,1.25
9519.00,1.25
9518.00,1.25
9517.00,1.25
9516.00,1.25
9515.00,1.25
9514.00,1.25
9513.00,1.25
9512.00,1.25
9511.00,1.24
9510.00,1.24
9509.00,1.24
9508.00,1.24
9507.00,1.24
9506.00,1.24
9505.00,1.24
9504.00,1.24
9503.00,1.24
9502.00,1.24
9501.00,1.25
9500.00,1.25
9499.00,1.25
9498.00,1.25
9497.00,1.25
9496.00,1.25
9495.00,1.25
9494.00,1.25
9493.00,1.25
9492.00,1.25
9491.00,1.25
9490.00,1.25
9489.00,1.25
9488.00,1.25
9487.00,1.25
9486.00,1.25
9485.00,1.25
9484.00,1.24
9483.00,1.24
9482.00,1.24
9481.00,1.24
9480.00,1.24
9479.00,1.24
9478.00,1.24
9477.00,1.24
9476.00,1.24
9475.00,1.24
9474.00,1.23
9473.00,1.23
9472.00,1.23
9471.00,1.23
9470.00,1.23
9469.00,1.23
9468.00,1.23
9467.00,1.23
9466.00,1.23
9465.00,1.23
9464.00,1.23
9463.00,1.23
9462.00,1.23
9461.00,1.23
9460.00,1.23
9459.00,1.23
9458.00,1.23
9457.00,1.23
9456.00,1.24
9455.00,1.24
9454.00,1.24
9453.00,1.24
9452.00,1.24
9451.00,1.24
9450.00,1.25
9449.00,1.25
9448.00,1.25
9447.00,1.25
9446.00,1.25
9445.00,1.26
9444.00,1.26
9443.00,1.26
9442.00,1.26
9441.00,1.26
9440.00,1.26
9439.00,1.26
9438.00,1.26
9437.00,1.26
9436.00,1.26
9435.00,1.26
9434.00,1.26
9433.00,1.26
9432.00,1.26
9431.00,1.26
9430.00,1.26
9429.00,1.26
9428.00,1.26
9427.00,1.26
9426.00,1.26
9425.00,1.26
9424.00,1.26
9423.00,1.26
9422.00,1.26
9421.00,1.26
9420.00,1.26
9419.00,1.26
9418.00,1.26
9417.00,1.26
9416.00,1.26
9415.00,1.26
9414.00,1.26
9413.00,1.26
9412.00,1.26
9411.00,1.26
9410.00,1.26
9409.00,1.26
9408.00,1.25
9407.00,1.25
9406.00,1.25
9405.00,1.25
9404.00,1.25
9403.00,1.25
9402.00,1.25
9401.00,1.25
9400.00,1.25
9399.00,1.25
9398.00,1.25
9397.00,1.25
9396.00,1.25
9395.00,1.25
9394.00,1.25
9393.00,1.26
9392.00,1.26
9391.00,1.26
9390.00,1.26
9389.00,1.26
9388.00,1.26
9387.00,1.26
9386.00,1.26
9385.00,1.26
9384.00,1.26
9383.00,1.26
9382.00,1.26
9381.00,1.26
9380.00,1.26
9379.00,1.26
9378.00,1.25
9377.00,1.25
9376.00,1.25
9375.00,1.25
9374.00,1.25
9373.00,1.25
9372.00,1.25
9371.00,1.25
9370.00,1.25
9369.00,1.25
9368.00,1.25
9367.00,1.25
9366.00,1.25
9365.00,1.25
9364.00,1.25
9363.00,1.25
9362.00,1.25
9361.00,1.25
9360.00,1.25
9359.00,1.25
9358.00,1.25
9357.00,1.25
9356.00,1.25
9355.00,1.24
9354.00,1.24
9353.00,1.24
9352.00,1.24
9351.00,1.24
9350.00,1.24
9349.00,1.24
9348.00,1.24
9347.00,1.24
9346.00,1.24
9345.00,1.24
9344.00,1.24
9343.00,1.24
9342.00,1.24
9341.00,1.24
9340.00,1.25
9339.00,1.25
9338.00,1.25
9337.00,1.25
9336.00,1.25
9335.00,1.25
9334.00,1.25
9333.00,1.25
9332.00,1.25
9331.00,1.25
9330.00,1.25
9329.00,1.25
9328.00,1.25
9327.00,1.25
9326.00,1.25
9325.00,1.25
9324.00,1.25
9323.00,1.25
9322.00,1.25
9321.00,1.25
9320.00,1.25
9319.00,1.25
9318.00,1.25
9317.00,1.25
9316.00,1.25
9315.00,1.25
9314.00,1.25
9313.00,1.25
9312.00,1.25
9311.00,1.25
9310.00,1.25
9309.00,1.25
9308.00,1.25
9307.00,1.24
9306.00,1.24
9305.00,1.24
9304.00,1.24
9303.00,1.24
9302.00,1.24
9301.00,1.24
9300.00,1.24
9299.00,1.24
9298.00,1.24
9297.00,1.24
9296.00,1.24
9295.00,1.24
9294.00,1.23
9293.00,1.23
9292.00,1.23
9291.00,1.23
9290.00,1.23
9289.00,1.23
9288.00,1.23
9287.00,1.23
9286.00,1.23
9285.00,1.23
9284.00,1.23
9283.00,1.23
9282.00,1.23
9281.00,1.23
9280.00,1.23
9279.00,1.23
9278.00,1.23
9277.00,1.23
9276.00,1.24
9275.00,1.24
9274.00,1.24
9273.00,1.24
9272.00,1.24
9271.00,1.24
9270.00,1.25
9269.00,1.25
9268.00,1.25
9267.00,1.25
9266.00,1.25
9265.00,1.26
9264.00,1.26
9263.00,1.26
9262.00,1.26
9261.00,1.26
9260.00,1.26
9259.00,1.26
9258.00,1.26
9257.00,1.26
9256.00,1.26
9255.00,1.26
9254.00,1.26
9253.00,1.26
9252.00,1.26
9251.00,1.25
9250.00,1.25
9249.00,1.25
9248.00,1.25
9247.00,1.24
9246.00,1.24
9245.00,1.24
9244.00,1.23
9243.00,1.23
9242.00,1.23
9241.00,1.23
9240.00,1.23
9239.00,1.22
9238.00,1.22
9237.00,1.22
9236.00,1.22
9235.00,1.22
9234.00,1.22
9233.00,1.22
9232.00,1.22
9231.00,1.22
9230.00,1.22
9229.00,1.22
9228.00,1.22
9227.00,1.22
9226.00,1.22
9225.00,1.22
9224.00,1.22
9223.00,1.22
9222.00,1.22
9221.00,1.22
9220.00,1.22
9219.00,1.22
9218.00,1.22
9217.00,1.23
9216.00,1.23
9215.00,1.23
9214.00,1.23
9213.00,1.23
9212.00,1.23
9211.00,1.23
9210.00,1.24
9209.00,1.24
9208.00,1.24
9207.00,1.24
9206.00,1.24
9205.00,1.24
9204.00,1.24
9203.00,1.23
9202.00,1.23
9201.00,1.23
9200.00,1.23
9199.00,1.23
9198.00,1.23
9197.00,1.23
9196.00,1.23
9195.00,1.23
9194.00,1.23
9193.00,1.23
9192.00,1.23
9191.00,1.23
9190.00,1.23
9189.00,1.23
9188.00,1.23
9187.00,1.23
9186.00,1.23
9185.00,1.23
9184.00,1.23
9183.00,1.23
9182.00,1.23
9181.00,1.23
9180.00,1.24
9179.00,1.23
9178.00,1.23
9177.00,1.23
9176.00,1.23
9175.00,1.23
9174.00,1.23
9173.00,1.23
9172.00,1.23
9171.00,1.23
9170.00,1.23
9169.00,1.23
9168.00,1.23
9167.00,1.23
9166.00,1.23
9165.00,1.23
9164.00,1.23
9163.00,1.23
9162.00,1.23
9161.00,1.24
9160.00,1.24
9159.00,1.24
9158.00,1.24
9157.00,1.24
9156.00,1.24
9155.00,1.24
9154.00,1.24
9153.00,1.24
9152.00,1.25
9151.00,1.25
9150.00,1.25
9149.00,1.25
9148.00,1.25
9147.00,1.25
9146.00,1.25
9145.00,1.25
9144.00,1.25
9143.00,1.25
9142.00,1.25
9141.00,1.24
9140.00,1.24
9139.00,1.24
9138.00,1.24
9137.00,1.24
9136.00,1.24
9135.00,1.24
9134.00,1.24
9133.00,1.24
9132.00,1.24
9131.00,1.24
9130.00,1.24
9129.00,1.24
9128.00,1.24
9127.00,1.24
9126.00,1.24
9125.00,1.24
9124.00,1.24
9123.00,1.24
9122.00,1.24
9121.00,1.24
9120.00,1.24
9119.00,1.24
9118.00,1.24
9117.00,1.24
9116.00,1.24
9115.00,1.24
9114.00,1.24
9113.00,1.24
9112.00,1.24
9111.00,1.24
9110.00,1.24
9109.00,1.24
9108.00,1.24
9107.00,1.24
9106.00,1.24
9105.00,1.24
9104.00,1.24
9103.00,1.24
9102.00,1.24
9101.00,1.24
9100.00,1.24
9099.00,1.24
9098.00,1.24
9097.00,1.24
9096.00,1.24
9095.00,1.24
9094.00,1.23
9093.00,1.23
9092.00,1.23
9091.00,1.23
9090.00,1.23
9089.00,1.23
9088.00,1.23
9087.00,1.23
9086.00,1.23
9085.00,1.23
9084.00,1.23
9083.00,1.23
9082.00,1.22
9081.00,1.22
9080.00,1.22
9079.00,1.22
9078.00,1.22
9077.00,1.22
9076.00,1.22
9075.00,1.22
9074.00,1.22
9073.00,1.22
9072.00,1.22
9071.00,1.22
9070.00,1.22
9069.00,1.22
9068.00,1.22
9067.00,1.22
9066.00,1.22
9065.00,1.22
9064.00,1.22
9063.00,1.22
9062.00,1.22
9061.00,1.22
9060.00,1.22
9059.00,1.22
9058.00,1.22
9057.00,1.22
9056.00,1.22
9055.00,1.22
9054.00,1.22
9053.00,1.22
9052.00,1.22
9051.00,1.22
9050.00,1.22
9049.00,1.22
9048.00,1.22
9047.00,1.22
9046.00,1.22
9045.00,1.22
9044.00,1.22
9043.00,1.22
9042.00,1.23
9041.00,1.23
9040.00,1.23
9039.00,1.23
9038.00,1.23
9037.00,1.24
9036.00,1.24
9035.00,1.24
9034.00,1.24
9033.00,1.25
9032.00,1.25
9031.00,1.25
9030.00,1.25
9029.00,1.25
9028.00,1.25
9027.00,1.26
9026.00,1.26
9025.00,1.26
9024.00,1.26
9023.00,1.26
9022.00,1.26
9021.00,1.26
9020.00,1.26
9019.00,1.26
9018.00,1.26
9017.00,1.27
9016.00,1.26
9015.00,1.26
9014.00,1.26
9013.00,1.26
9012.00,1.26
9011.00,1.26
9010.00,1.26
9009.00,1.25
9008.00,1.25
9007.00,1.25
9006.00,1.25
9005.00,1.24
9004.00,1.24
9003.00,1.24
9002.00,1.23
9001.00,1.23
9000.00,1.23
8999.00,1.23
8998.00,1.22
8997.00,1.22
8996.00,1.22
8995.00,1.22
8994.00,1.22
8993.00,1.22
8992.00,1.22
8991.00,1.22
8990.00,1.22
8989.00,1.22
8988.00,1.22
8987.00,1.22
8986.00,1.22
8985.00,1.22
8984.00,1.23
8983.00,1.23
8982.00,1.23
8981.00,1.23
8980.00,1.23
8979.00,1.23
8978.00,1.23
8977.00,1.24
8976.00,1.24
8975.00,1.24
8974.00,1.24
8973.00,1.24
8972.00,1.24
8971.00,1.24
8970.00,1.24
8969.00,1.24
8968.00,1.24
8967.00,1.24
8966.00,1.24
8965.00,1.24
8964.00,1.24
8963.00,1.24
8962.00,1.24
8961.00,1.24
8960.00,1.24
8959.00,1.24
8958.00,1.24
8957.00,1.24
8956.00,1.24
8955.00,1.24
8954.00,1.25
8953.00,1.25
8952.00,1.25
8951.00,1.25
8950.00,1.25
8949.00,1.25
8948.00,1.25
8947.00,1.25
8946.00,1.25
8945.00,1.25
8944.00,1.25
8943.00,1.25
8942.00,1.25
8941.00,1.25
8940.00,1.24
8939.00,1.24
8938.00,1.24
8937.00,1.24
8936.00,1.24
8935.00,1.24
8934.00,1.23
8933.00,1.23
8932.00,1.23
8931.00,1.23
8930.00,1.23
8929.00,1.23
8928.00,1.23
8927.00,1.23
8926.00,1.23
8925.00,1.23
8924.00,1.23
8923.00,1.23
8922.00,1.23
8921.00,1.23
8920.00,1.23
8919.00,1.23
8918.00,1.23
8917.00,1.23
8916.00,1.24
8915.00,1.24
8914.00,1.24
8913.00,1.24
8912.00,1.24
8911.00,1.24
8910.00,1.24
8909.00,1.24
8908.00,1.24
8907.00,1.24
8906.00,1.24
8905.00,1.24
8904.00,1.24
8903.00,1.24
8902.00,1.24
8901.00,1.23
8900.00,1.23
8899.00,1.23
8898.00,1.23
8897.00,1.23
8896.00,1.23
8895.00,1.22
8894.00,1.22
8893.00,1.22
8892.00,1.22
8891.00,1.22
8890.00,1.22
8889.00,1.22
8888.00,1.22
8887.00,1.22
8886.00,1.22
8885.00,1.22
8884.00,1.22
8883.00,1.22
8882.00,1.23
8881.00,1.23
8880.00,1.23
8879.00,1.23
8878.00,1.23
8877.00,1.23
8876.00,1.23
8875.00,1.23
8874.00,1.23
8873.00,1.23
8872.00,1.23
8871.00,1.23
8870.00,1.23
8869.00,1.23
8868.00,1.23
8867.00,1.23
8866.00,1.23
8865.00,1.23
8864.00,1.23
8863.00,1.23
8862.00,1.23
8861.00,1.23
8860.00,1.23
8859.00,1.23
8858.00,1.23
8857.00,1.23
8856.00,1.23
8855.00,1.23
8854.00,1.23
8853.00,1.23
8852.00,1.24
8851.00,1.24
8850.00,1.24
8849.00,1.24
8848.00,1.24
8847.00,1.24
8846.00,1.25
8845.00,1.25
8844.00,1.25
8843.00,1.25
8842.00,1.25
8841.00,1.25
8840.00,1.25
8839.00,1.25
8838.00,1.25
8837.00,1.25
8836.00,1.25
8835.00,1.25
8834.00,1.25
8833.00,1.25
8832.00,1.25
8831.00,1.24
8830.00,1.24
8829.00,1.24
8828.00,1.24
8827.00,1.24
8826.00,1.24
8825.00,1.23
8824.00,1.23
8823.00,1.23
8822.00,1.23
8821.00,1.23
8820.00,1.22
8819.00,1.22
8818.00,1.22
8817.00,1.22
8816.00,1.22
8815.00,1.21
8814.00,1.21
8813.00,1.21
8812.00,1.21
8811.00,1.21
8810.00,1.21
8809.00,1.21
8808.00,1.21
8807.00,1.21
8806.00,1.21
8805.00,1.21
8804.00,1.21
8803.00,1.21
8802.00,1.21
8801.00,1.21
8800.00,1.21
8799.00,1.21
8798.00,1.21
8797.00,1.21
8796.00,1.21
8795.00,1.21
8794.00,1.21
8793.00,1.21
8792.00,1.20
8791.00,1.20
8790.00,1.20
8789.00,1.20
8788.00,1.20
8787.00,1.20
8786.00,1.20
8785.00,1.20
8784.00,1.20
8783.00,1.20
8782.00,1.20
8781.00,1.20
8780.00,1.20
8779.00,1.20
8778.00,1.21
8777.00,1.21
8776.00,1.21
8775.00,1.21
8774.00,1.21
8773.00,1.21
8772.00,1.21
8771.00,1.21
8770.00,1.20
8769.00,1.20
8768.00,1.20
8767.00,1.20
8766.00,1.20
8765.00,1.20
8764.00,1.20
8763.00,1.20
8762.00,1.20
8761.00,1.20
8760.00,1.20
8759.00,1.20
8758.00,1.20
8757.00,1.20
8756.00,1.20
8755.00,1.20
8754.00,1.20
8753.00,1.20
8752.00,1.21
8751.00,1.21
8750.00,1.21
8749.00,1.21
8748.00,1.21
8747.00,1.21
8746.00,1.21
8745.00,1.21
8744.00,1.21
8743.00,1.20
8742.00,1.20
8741.00,1.20
8740.00,1.20
8739.00,1.20
8738.00,1.20
8737.00,1.20
8736.00,1.20
8735.00,1.19
8734.00,1.19
8733.00,1.19
8732.00,1.19
8731.00,1.19
8730.00,1.19
8729.00,1.19
8728.00,1.19
8727.00,1.19
8726.00,1.19
8725.00,1.19
8724.00,1.19
8723.00,1.19
8722.00,1.19
8721.00,1.19
8720.00,1.19
8719.00,1.19
8718.00,1.19
8717.00,1.19
8716.00,1.19
8715.00,1.19
8714.00,1.19
8713.00,1.19
8712.00,1.20
8711.00,1.20
8710.00,1.20
8709.00,1.20
8708.00,1.20
8707.00,1.20
8706.00,1.20
8705.00,1.19
8704.00,1.19
8703.00,1.19
8702.00,1.19
8701.00,1.19
8700.00,1.19
8699.00,1.19
8698.00,1.19
8697.00,1.19
8696.00,1.19
8695.00,1.19
8694.00,1.19
8693.00,1.19
8692.00,1.19
8691.00,1.19
8690.00,1.19
8689.00,1.19
8688.00,1.19
8687.00,1.18
8686.00,1.18
8685.00,1.18
8684.00,1.18
8683.00,1.18
8682.00,1.18
8681.00,1.18
8680.00,1.18
8679.00,1.18
8678.00,1.18
8677.00,1.18
8676.00,1.19
8675.00,1.19
8674.00,1.19
8673.00,1.19
8672.00,1.19
8671.00,1.19
8670.00,1.19
8669.00,1.19
8668.00,1.19
8667.00,1.19
8666.00,1.19
8665.00,1.19
8664.00,1.19
8663.00,1.19
8662.00,1.19
8661.00,1.19
8660.00,1.19
8659.00,1.19
8658.00,1.19
8657.00,1.19
8656.00,1.19
8655.00,1.19
8654.00,1.19
8653.00,1.19
8652.00,1.19
8651.00,1.19
8650.00,1.19
8649.00,1.19
8648.00,1.19
8647.00,1.19
8646.00,1.19
8645.00,1.19
8644.00,1.19
8643.00,1.19
8642.00,1.19
8641.00,1.19
8640.00,1.19
8639.00,1.19
8638.00,1.19
8637.00,1.19
8636.00,1.19
8635.00,1.19
8634.00,1.19
8633.00,1.19
8632.00,1.19
8631.00,1.19
8630.00,1.19
8629.00,1.19
8628.00,1.19
8627.00,1.19
8626.00,1.19
8625.00,1.19
8624.00,1.19
8623.00,1.19
8622.00,1.19
8621.00,1.19
8620.00,1.19
8619.00,1.18
8618.00,1.18
8617.00,1.18
8616.00,1.18
8615.00,1.18
8614.00,1.18
8613.00,1.18
8612.00,1.17
8611.00,1.17
8610.00,1.17
8609.00,1.17
8608.00,1.17
8607.00,1.16
8606.00,1.16
8605.00,1.16
8604.00,1.16
8603.00,1.16
8602.00,1.16
8601.00,1.16
8600.00,1.16
8599.00,1.16
8598.00,1.16
8597.00,1.16
8596.00,1.16
8595.00,1.16
8594.00,1.16
8593.00,1.16
8592.00,1.17
8591.00,1.17
8590.00,1.17
8589.00,1.17
8588.00,1.17
8587.00,1.17
8586.00,1.17
8585.00,1.17
8584.00,1.17
8583.00,1.17
8582.00,1.17
8581.00,1.17
8580.00,1.17
8579.00,1.17
8578.00,1.17
8577.00,1.17
8576.00,1.17
8575.00,1.17
8574.00,1.17
8573.00,1.17
8572.00,1.16
8571.00,1.16
8570.00,1.16
8569.00,1.16
8568.00,1.16
8567.00,1.16
8566.00,1.16
8565.00,1.16
8564.00,1.16
8563.00,1.16
8562.00,1.16
8561.00,1.16
8560.00,1.16
8559.00,1.16
8558.00,1.16
8557.00,1.16
8556.00,1.16
8555.00,1.16
8554.00,1.16
8553.00,1.16
8552.00,1.16
8551.00,1.16
8550.00,1.16
8549.00,1.16
8548.00,1.16
8547.00,1.16
8546.00,1.16
8545.00,1.16
8544.00,1.16
8543.00,1.16
8542.00,1.17
8541.00,1.17
8540.00,1.17
8539.00,1.17
8538.00,1.17
8537.00,1.17
8536.00,1.17
8535.00,1.17
8534.00,1.17
8533.00,1.17
8532.00,1.17
8531.00,1.17
8530.00,1.17
8529.00,1.17
8528.00,1.17
8527.00,1.17
8526.00,1.17
8525.00,1.17
8524.00,1.16
8523.00,1.16
8522.00,1.16
8521.00,1.16
8520.00,1.16
8519.00,1.16
8518.00,1.16
8517.00,1.15
8516.00,1.15
8515.00,1.15
8514.00,1.15
8513.00,1.15
8512.00,1.14
8511.00,1.14
8510.00,1.14
8509.00,1.14
8508.00,1.14
8507.00,1.13
8506.00,1.13
8505.00,1.13
8504.00,1.13
8503.00,1.13
8502.00,1.13
8501.00,1.13
8500.00,1.13
8499.00,1.13
8498.00,1.13
8497.00,1.14
8496.00,1.14
8495.00,1.14
8494.00,1.14
8493.00,1.14
8492.00,1.14
8491.00,1.14
8490.00,1.14
8489.00,1.15
8488.00,1.15
8487.00,1.15
8486.00,1.15
8485.00,1.15
8484.00,1.15
8483.00,1.15
8482.00,1.14
8481.00,1.14
8480.00,1.14
8479.00,1.14
8478.00,1.14
8477.00,1.14
8476.00,1.14
8475.00,1.14
8474.00,1.14
8473.00,1.14
8472.00,1.14
8471.00,1.14
8470.00,1.14
8469.00,1.14
8468.00,1.14
8467.00,1.14
8466.00,1.14
8465.00,1.14
8464.00,1.14
8463.00,1.14
8462.00,1.14
8461.00,1.14
8460.00,1.14
8459.00,1.14
8458.00,1.14
8457.00,1.14
8456.00,1.13
8455.00,1.13
8454.00,1.13
8453.00,1.13
8452.00,1.13
8451.00,1.13
8450.00,1.12
8449.00,1.12
8448.00,1.12
8447.00,1.12
8446.00,1.12
8445.00,1.12
8444.00,1.11
8443.00,1.11
8442.00,1.11
8441.00,1.11
8440.00,1.11
8439.00,1.11
8438.00,1.11
8437.00,1.11
8436.00,1.11
8435.00,1.11
8434.00,1.11
8433.00,1.11
8432.00,1.11
8431.00,1.11
8430.00,1.11
8429.00,1.12
8428.00,1.12
8427.00,1.12
8426.00,1.12
8425.00,1.12
8424.00,1.12
8423.00,1.12
8422.00,1.12
8421.00,1.12
8420.00,1.12
8419.00,1.12
8418.00,1.12
8417.00,1.13
8416.00,1.13
8415.00,1.13
8414.00,1.13
8413.00,1.13
8412.00,1.13
8411.00,1.13
8410.00,1.13
8409.00,1.13
8408.00,1.13
8407.00,1.13
8406.00,1.13
8405.00,1.13
8404.00,1.13
8403.00,1.13
8402.00,1.13
8401.00,1.13
8400.00,1.13
8399.00,1.13
8398.00,1.13
8397.00,1.13
8396.00,1.13
8395.00,1.13
8394.00,1.13
8393.00,1.13
8392.00,1.13
8391.00,1.13
8390.00,1.13
8389.00,1.13
8388.00,1.13
8387.00,1.14
8386.00,1.14
8385.00,1.14
8384.00,1.14
8383.00,1.14
8382.00,1.14
8381.00,1.14
8380.00,1.14
8379.00,1.14
8378.00,1.14
8377.00,1.14
8376.00,1.14
8375.00,1.14
8374.00,1.14
8373.00,1.14
8372.00,1.14
8371.00,1.14
8370.00,1.14
8369.00,1.14
8368.00,1.14
8367.00,1.14
8366.00,1.14
8365.00,1.14
8364.00,1.14
8363.00,1.14
8362.00,1.14
8361.00,1.14
8360.00,1.14
8359.00,1.14
8358.00,1.14
8357.00,1.14
8356.00,1.14
8355.00,1.14
8354.00,1.14
8353.00,1.14
8352.00,1.14
8351.00,1.14
8350.00,1.14
8349.00,1.14
8348.00,1.14
8347.00,1.14
8346.00,1.14
8345.00,1.14
8344.00,1.14
8343.00,1.14
8342.00,1.14
8341.00,1.14
8340.00,1.14
8339.00,1.14
8338.00,1.14
8337.00,1.14
8336.00,1.14
8335.00,1.14
8334.00,1.14
8333.00,1.14
8332.00,1.14
8331.00,1.14
8330.00,1.14
8329.00,1.14
8328.00,1.14
8327.00,1.15
8326.00,1.15
8325.00,1.15
8324.00,1.15
8323.00,1.16
8322.00,1.16
8321.00,1.16
8320.00,1.16
8319.00,1.16
8318.00,1.17
8317.00,1.17
8316.00,1.17
8315.00,1.17
8314.00,1.17
8313.00,1.17
8312.00,1.17
8311.00,1.17
8310.00,1.17
8309.00,1.17
8308.00,1.16
8307.00,1.16
8306.00,1.16
8305.00,1.16
8304.00,1.16
8303.00,1.15
8302.00,1.15
8301.00,1.15
8300.00,1.15
8299.00,1.15
8298.00,1.15
8297.00,1.15
8296.00,1.15
8295.00,1.15
8294.00,1.15
8293.00,1.15
8292.00,1.15
8291.00,1.16
8290.00,1.16
8289.00,1.16
8288.00,1.16
8287.00,1.16
8286.00,1.16
8285.00,1.16
8284.00,1.17
8283.00,1.17
8282.00,1.17
8281.00,1.17
8280.00,1.17
8279.00,1.17
8278.00,1.17
8277.00,1.17
8276.00,1.17
8275.00,1.17
8274.00,1.17
8273.00,1.17
8272.00,1.17
8271.00,1.17
8270.00,1.17
8269.00,1.17
8268.00,1.17
8267.00,1.16
8266.00,1.16
8265.00,1.16
8264.00,1.16
8263.00,1.16
8262.00,1.16
8261.00,1.16
8260.00,1.16
8259.00,1.16
8258.00,1.16
8257.00,1.16
8256.00,1.17
8255.00,1.17
8254.00,1.17
8253.00,1.17
8252.00,1.17
8251.00,1.17
8250.00,1.17
8249.00,1.18
8248.00,1.18
8247.00,1.18
8246.00,1.18
8245.00,1.18
8244.00,1.18
8243.00,1.18
8242.00,1.18
8241.00,1.18
8240.00,1.18
8239.00,1.18
8238.00,1.18
8237.00,1.18
8236.00,1.18
8235.00,1.18
8234.00,1.18
8233.00,1.18
8232.00,1.18
8231.00,1.18
8230.00,1.18
8229.00,1.18
8228.00,1.18
8227.00,1.18
8226.00,1.18
8225.00,1.18
8224.00,1.18
8223.00,1.18
8222.00,1.18
8221.00,1.18
8220.00,1.18
8219.00,1.18
8218.00,1.18
8217.00,1.18
8216.00,1.18
8215.00,1.18
8214.00,1.18
8213.00,1.18
8212.00,1.18
8211.00,1.18
8210.00,1.18
8209.00,1.18
8208.00,1.18
8207.00,1.18
8206.00,1.18
8205.00,1.18
8204.00,1.18
8203.00,1.18
8202.00,1.18
8201.00,1.18
8200.00,1.18
8199.00,1.18
8198.00,1.18
8197.00,1.18
8196.00,1.18
8195.00,1.18
8194.00,1.18
8193.00,1.18
8192.00,1.18
8191.00,1.18
8190.00,1.18
8189.00,1.18
8188.00,1.18
8187.00,1.19
8186.00,1.19
8185.00,1.19
8184.00,1.19
8183.00,1.19
8182.00,1.19
8181.00,1.19
8180.00,1.19
8179.00,1.19
8178.00,1.19
8177.00,1.20
8176.00,1.20
8175.00,1.20
8174.00,1.20
8173.00,1.20
8172.00,1.20
8171.00,1.19
8170.00,1.19
8169.00,1.19
8168.00,1.19
8167.00,1.19
8166.00,1.19
8165.00,1.19
8164.00,1.19
8163.00,1.19
8162.00,1.19
8161.00,1.19
8160.00,1.19
8159.00,1.19
8158.00,1.19
8157.00,1.19
8156.00,1.19
8155.00,1.19
8154.00,1.19
8153.00,1.19
8152.00,1.19
8151.00,1.20
8150.00,1.20
8149.00,1.20
8148.00,1.20
8147.00,1.20
8146.00,1.20
8145.00,1.20
8144.00,1.20
8143.00,1.20
8142.00,1.20
8141.00,1.20
8140.00,1.20
8139.00,1.20
8138.00,1.20
8137.00,1.20
8136.00,1.19
8135.00,1.19
8134.00,1.19
8133.00,1.19
8132.00,1.19
8131.00,1.19
8130.00,1.19
8129.00,1.19
8128.00,1.19
8127.00,1.19
8126.00,1.19
8125.00,1.19
8124.00,1.19
8123.00,1.19
8122.00,1.19
8121.00,1.19
8120.00,1.19
8119.00,1.19
8118.00,1.19
8117.00,1.20
8116.00,1.20
8115.00,1.20
8114.00,1.20
8113.00,1.20
8112.00,1.20
8111.00,1.20
8110.00,1.20
8109.00,1.20
8108.00,1.20
8107.00,1.20
8106.00,1.20
8105.00,1.20
8104.00,1.20
8103.00,1.20
8102.00,1.20
8101.00,1.20
8100.00,1.20
8099.00,1.20
8098.00,1.20
8097.00,1.20
8096.00,1.20
8095.00,1.20
8094.00,1.20
8093.00,1.20
8092.00,1.20
8091.00,1.20
8090.00,1.20
8089.00,1.20
8088.00,1.20
8087.00,1.20
8086.00,1.20
8085.00,1.20
8084.00,1.20
8083.00,1.20
8082.00,1.20
8081.00,1.20
8080.00,1.20
8079.00,1.20
8078.00,1.20
8077.00,1.20
8076.00,1.20
8075.00,1.20
8074.00,1.20
8073.00,1.21
8072.00,1.21
8071.00,1.21
8070.00,1.21
8069.00,1.21
8068.00,1.21
8067.00,1.21
8066.00,1.21
8065.00,1.21
8064.00,1.21
8063.00,1.21
8062.00,1.21
8061.00,1.21
8060.00,1.21
8059.00,1.21
8058.00,1.22
8057.00,1.22
8056.00,1.22
8055.00,1.22
8054.00,1.22
8053.00,1.22
8052.00,1.22
8051.00,1.22
8050.00,1.22
8049.00,1.22
8048.00,1.22
8047.00,1.22
8046.00,1.22
8045.00,1.22
8044.00,1.22
8043.00,1.22
8042.00,1.22
8041.00,1.22
8040.00,1.22
8039.00,1.22
8038.00,1.22
8037.00,1.22
8036.00,1.22
8035.00,1.22
8034.00,1.22
8033.00,1.22
8032.00,1.22
8031.00,1.22
8030.00,1.22
8029.00,1.22
8028.00,1.22
8027.00,1.22
8026.00,1.22
8025.00,1.22
8024.00,1.22
8023.00,1.22
8022.00,1.22
8021.00,1.22
8020.00,1.22
8019.00,1.22
8018.00,1.22
8017.00,1.22
8016.00,1.22
8015.00,1.22
8014.00,1.22
8013.00,1.22
8012.00,1.22
8011.00,1.22
8010.00,1.22
8009.00,1.22
8008.00,1.22
8007.00,1.22
8006.00,1.22
8005.00,1.23
8004.00,1.23
8003.00,1.23
8002.00,1.23
8001.00,1.23
8000.00,1.23
7999.00,1.23
7998.00,1.23
7997.00,1.23
7996.00,1.23
7995.00,1.23
7994.00,1.23
7993.00,1.23
7992.00,1.22
7991.00,1.22
7990.00,1.22
7989.00,1.22
7988.00,1.22
7987.00,1.22
7986.00,1.22
7985.00,1.22
7984.00,1.22
7983.00,1.22
7982.00,1.21
7981.00,1.21
7980.00,1.21
7979.00,1.21
7978.00,1.21
7977.00,1.21
7976.00,1.22
7975.00,1.22
7974.00,1.22
7973.00,1.22
7972.00,1.22
7971.00,1.22
7970.00,1.22
7969.00,1.22
7968.00,1.22
7967.00,1.22
7966.00,1.22
7965.00,1.22
7964.00,1.22
7963.00,1.23
7962.00,1.23
7961.00,1.23
7960.00,1.23
7959.00,1.23
7958.00,1.23
7957.00,1.23
7956.00,1.23
7955.00,1.23
7954.00,1.23
7953.00,1.23
7952.00,1.23
7951.00,1.23
7950.00,1.23
7949.00,1.23
7948.00,1.23
7947.00,1.23
7946.00,1.23
7945.00,1.23
7944.00,1.23
7943.00,1.23
7942.00,1.23
7941.00,1.23
7940.00,1.23
7939.00,1.23
7938.00,1.23
7937.00,1.23
7936.00,1.23
7935.00,1.23
7934.00,1.23
7933.00,1.23
7932.00,1.23
7931.00,1.23
7930.00,1.23
7929.00,1.22
7928.00,1.22
7927.00,1.22
7926.00,1.22
7925.00,1.22
7924.00,1.22
7923.00,1.22
7922.00,1.22
7921.00,1.22
7920.00,1.22
7919.00,1.22
7918.00,1.22
7917.00,1.22
7916.00,1.22
7915.00,1.22
7914.00,1.22
7913.00,1.22
7912.00,1.22
7911.00,1.22
7910.00,1.22
7909.00,1.23
7908.00,1.23
7907.00,1.23
7906.00,1.23
7905.00,1.23
7904.00,1.23
7903.00,1.23
7902.00,1.23
7901.00,1.23
7900.00,1.23
7899.00,1.23
7898.00,1.23
7897.00,1.23
7896.00,1.23
7895.00,1.23
7894.00,1.23
7893.00,1.23
7892.00,1.23
7891.00,1.23
7890.00,1.23
7889.00,1.23
7888.00,1.23
7887.00,1.23
7886.00,1.23
7885.00,1.23
7884.00,1.23
7883.00,1.23
7882.00,1.23
7881.00,1.23
7880.00,1.23
7879.00,1.23
7878.00,1.23
7877.00,1.23
7876.00,1.23
7875.00,1.23
7874.00,1.23
7873.00,1.23
7872.00,1.23
7871.00,1.23
7870.00,1.23
7869.00,1.24
7868.00,1.24
7867.00,1.24
7866.00,1.24
7865.00,1.24
7864.00,1.24
7863.00,1.24
7862.00,1.24
7861.00,1.24
7860.00,1.24
7859.00,1.24
7858.00,1.24
7857.00,1.24
7856.00,1.24
7855.00,1.24
7854.00,1.24
7853.00,1.24
7852.00,1.24
7851.00,1.24
7850.00,1.24
7849.00,1.24
7848.00,1.24
7847.00,1.24
7846.00,1.24
7845.00,1.24
7844.00,1.24
7843.00,1.24
7842.00,1.24
7841.00,1.24
7840.00,1.24
7839.00,1.24
7838.00,1.24
7837.00,1.24
7836.00,1.24
7835.00,1.24
7834.00,1.24
7833.00,1.24
7832.00,1.24
7831.00,1.24
7830.00,1.24
7829.00,1.24
7828.00,1.24
7827.00,1.24
7826.00,1.24
7825.00,1.24
7824.00,1.24
7823.00,1.24
7822.00,1.24
7821.00,1.24
7820.00,1.24
7819.00,1.24
7818.00,1.24
7817.00,1.24
7816.00,1.24
7815.00,1.24
7814.00,1.24
7813.00,1.24
7812.00,1.24
7811.00,1.24
7810.00,1.24
7809.00,1.24
7808.00,1.24
7807.00,1.25
7806.00,1.25
7805.00,1.25
7804.00,1.25
7803.00,1.25
7802.00,1.25
7801.00,1.25
7800.00,1.25
7799.00,1.25
7798.00,1.25
7797.00,1.25
7796.00,1.25
7795.00,1.25
7794.00,1.25
7793.00,1.25
7792.00,1.25
7791.00,1.25
7790.00,1.25
7789.00,1.25
7788.00,1.25
7787.00,1.25
7786.00,1.25
7785.00,1.25
7784.00,1.25
7783.00,1.25
7782.00,1.25
7781.00,1.25
7780.00,1.25
7779.00,1.25
7778.00,1.25
7777.00,1.26
7776.00,1.26
7775.00,1.26
7774.00,1.26
7773.00,1.26
7772.00,1.26
7771.00,1.26
7770.00,1.26
7769.00,1.26
7768.00,1.26
7767.00,1.26
7766.00,1.26
7765.00,1.26
7764.00,1.26
7763.00,1.26
7762.00,1.25
7761.00,1.25
7760.00,1.25
7759.00,1.25
7758.00,1.25
7757.00,1.25
7756.00,1.25
7755.00,1.25
7754.00,1.25
7753.00,1.25
7752.00,1.25
7751.00,1.25
7750.00,1.25
7749.00,1.25
7748.00,1.25
7747.00,1.25
7746.00,1.25
7745.00,1.25
7744.00,1.25
7743.00,1.26
7742.00,1.26
7741.00,1.26
7740.00,1.26
7739.00,1.26
7738.00,1.26
7737.00,1.26
7736.00,1.26
7735.00,1.26
7734.00,1.26
7733.00,1.26
7732.00,1.27
7731.00,1.27
7730.00,1.27
7729.00,1.27
7728.00,1.27
7727.00,1.26
7726.00,1.26
7725.00,1.26
7724.00,1.26
7723.00,1.26
7722.00,1.26
7721.00,1.26
7720.00,1.26
7719.00,1.26
7718.00,1.26
7717.00,1.26
7716.00,1.26
7715.00,1.26
7714.00,1.26
7713.00,1.26
7712.00,1.26
7711.00,1.26
7710.00,1.26
7709.00,1.26
7708.00,1.26
7707.00,1.26
7706.00,1.25
7705.00,1.25
7704.00,1.25
7703.00,1.25
7702.00,1.25
7701.00,1.25
7700.00,1.25
7699.00,1.25
7698.00,1.25
7697.00,1.26
7696.00,1.26
7695.00,1.26
7694.00,1.26
7693.00,1.26
7692.00,1.26
7691.00,1.26
7690.00,1.26
7689.00,1.26
7688.00,1.26
7687.00,1.26
7686.00,1.26
7685.00,1.26
7684.00,1.26
7683.00,1.26
7682.00,1.26
7681.00,1.26
7680.00,1.26
7679.00,1.26
7678.00,1.26
7677.00,1.26
7676.00,1.26
7675.00,1.26
7674.00,1.26
7673.00,1.26
7672.00,1.26
7671.00,1.26
7670.00,1.26
7669.00,1.27
7668.00,1.27
7667.00,1.27
7666.00,1.27
7665.00,1.27
7664.00,1.27
7663.00,1.27
7662.00,1.27
7661.00,1.27
7660.00,1.27
7659.00,1.27
7658.00,1.26
7657.00,1.26
7656.00,1.26
7655.00,1.26
7654.00,1.26
7653.00,1.26
7652.00,1.26
7651.00,1.26
7650.00,1.26
7649.00,1.25
7648.00,1.25
7647.00,1.25
7646.00,1.25
7645.00,1.25
7644.00,1.25
7643.00,1.25
7642.00,1.25
7641.00,1.25
7640.00,1.25
7639.00,1.25
7638.00,1.25
7637.00,1.25
7636.00,1.25
7635.00,1.25
7634.00,1.25
7633.00,1.25
7632.00,1.25
7631.00,1.25
7630.00,1.25
7629.00,1.25
7628.00,1.25
7627.00,1.26
7626.00,1.26
7625.00,1.26
7624.00,1.26
7623.00,1.26
7622.00,1.26
7621.00,1.26
7620.00,1.26
7619.00,1.26
7618.00,1.26
7617.00,1.26
7616.00,1.26
7615.00,1.26
7614.00,1.26
7613.00,1.26
7612.00,1.26
7611.00,1.26
7610.00,1.26
7609.00,1.26
7608.00,1.26
7607.00,1.26
7606.00,1.26
7605.00,1.26
7604.00,1.26
7603.00,1.26
7602.00,1.26
7601.00,1.26
7600.00,1.26
7599.00,1.26
7598.00,1.26
7597.00,1.26
7596.00,1.26
7595.00,1.26
7594.00,1.26
7593.00,1.26
7592.00,1.26
7591.00,1.26
7590.00,1.26
7589.00,1.26
7588.00,1.26
7587.00,1.26
7586.00,1.26
7585.00,1.26
7584.00,1.26
7583.00,1.26
7582.00,1.26
7581.00,1.26
7580.00,1.26
7579.00,1.26
7578.00,1.26
7577.00,1.26
7576.00,1.26
7575.00,1.26
7574.00,1.26
7573.00,1.26
7572.00,1.26
7571.00,1.26
7570.00,1.26
7569.00,1.26
7568.00,1.26
7567.00,1.26
7566.00,1.26
7565.00,1.26
7564.00,1.26
7563.00,1.26
7562.00,1.26
7561.00,1.25
7560.00,1.25
7559.00,1.25
7558.00,1.25
7557.00,1.25
7556.00,1.25
7555.00,1.25
7554.00,1.25
7553.00,1.25
7552.00,1.25
7551.00,1.25
7550.00,1.25
7549.00,1.25
7548.00,1.25
7547.00,1.25
7546.00,1.25
7545.00,1.25
7544.00,1.25
7543.00,1.25
7542.00,1.25
7541.00,1.25
7540.00,1.25
7539.00,1.25
7538.00,1.25
7537.00,1.25
7536.00,1.25
7535.00,1.25
7534.00,1.25
7533.00,1.25
7532.00,1.25
7531.00,1.25
7530.00,1.25
7529.00,1.25
7528.00,1.25
7527.00,1.25
7526.00,1.25
7525.00,1.25
7524.00,1.25
7523.00,1.25
7522.00,1.25
7521.00,1.25
7520.00,1.25
7519.00,1.25
7518.00,1.25
7517.00,1.25
7516.00,1.25
7515.00,1.25
7514.00,1.25
7513.00,1.25
7512.00,1.25
7511.00,1.25
7510.00,1.25
7509.00,1.25
7508.00,1.25
7507.00,1.25
7506.00,1.25
7505.00,1.24
7504.00,1.24
7503.00,1.24
7502.00,1.24
7501.00,1.24
7500.00,1.24
7499.00,1.24
7498.00,1.24
7497.00,1.24
7496.00,1.24
7495.00,1.24
7494.00,1.24
7493.00,1.24
7492.00,1.24
7491.00,1.24
7490.00,1.24
7489.00,1.24
7488.00,1.24
7487.00,1.24
7486.00,1.24
7485.00,1.24
7484.00,1.24
7483.00,1.24
7482.00,1.24
7481.00,1.24
7480.00,1.24
7479.00,1.24
7478.00,1.24
7477.00,1.24
7476.00,1.24
7475.00,1.24
7474.00,1.24
7473.00,1.24
7472.00,1.24
7471.00,1.24
7470.00,1.24
7469.00,1.24
7468.00,1.24
7467.00,1.24
7466.00,1.24
7465.00,1.24
7464.00,1.24
7463.00,1.24
7462.00,1.24
7461.00,1.24
7460.00,1.24
7459.00,1.24
7458.00,1.24
7457.00,1.24
7456.00,1.24
7455.00,1.24
7454.00,1.24
7453.00,1.24
7452.00,1.24
7451.00,1.23
7450.00,1.23
7449.00,1.23
7448.00,1.23
7447.00,1.23
7446.00,1.23
7445.00,1.23
7444.00,1.23
7443.00,1.23
7442.00,1.23
7441.00,1.23
7440.00,1.23
7439.00,1.23
7438.00,1.23
7437.00,1.23
7436.00,1.23
7435.00,1.23
7434.00,1.22
7433.00,1.22
7432.00,1.22
7431.00,1.22
7430.00,1.22
7429.00,1.22
7428.00,1.22
7427.00,1.22
7426.00,1.22
7425.00,1.22
7424.00,1.22
7423.00,1.22
7422.00,1.22
7421.00,1.22
7420.00,1.22
7419.00,1.22
7418.00,1.22
7417.00,1.22
7416.00,1.22
7415.00,1.21
7414.00,1.21
7413.00,1.21
7412.00,1.21
7411.00,1.21
7410.00,1.21
7409.00,1.21
7408.00,1.21
7407.00,1.20
7406.00,1.20
7405.00,1.20
7404.00,1.20
7403.00,1.20
7402.00,1.20
7401.00,1.20
7400.00,1.20
7399.00,1.20
7398.00,1.20
7397.00,1.20
7396.00,1.19
7395.00,1.19
7394.00,1.19
7393.00,1.19
7392.00,1.19
7391.00,1.19
7390.00,1.19
7389.00,1.19
7388.00,1.19
7387.00,1.19
7386.00,1.19
7385.00,1.19
7384.00,1.19
7383.00,1.19
7382.00,1.19
7381.00,1.19
7380.00,1.19
7379.00,1.19
7378.00,1.19
7377.00,1.19
7376.00,1.19
7375.00,1.19
7374.00,1.19
7373.00,1.19
7372.00,1.19
7371.00,1.19
7370.00,1.19
7369.00,1.18
7368.00,1.18
7367.00,1.18
7366.00,1.18
7365.00,1.18
7364.00,1.18
7363.00,1.18
7362.00,1.18
7361.00,1.18
7360.00,1.18
7359.00,1.18
7358.00,1.18
7357.00,1.18
7356.00,1.18
7355.00,1.18
7354.00,1.18
7353.00,1.18
7352.00,1.18
7351.00,1.18
7350.00,1.18
7349.00,1.18
7348.00,1.18
7347.00,1.18
7346.00,1.18
7345.00,1.18
7344.00,1.18
7343.00,1.18
7342.00,1.18
7341.00,1.18
7340.00,1.18
7339.00,1.18
7338.00,1.18
7337.00,1.18
7336.00,1.17
7335.00,1.17
7334.00,1.17
7333.00,1.17
7332.00,1.17
7331.00,1.17
7330.00,1.17
7329.00,1.17
7328.00,1.17
7327.00,1.17
7326.00,1.17
7325.00,1.17
7324.00,1.17
7323.00,1.16
7322.00,1.16
7321.00,1.16
7320.00,1.16
7319.00,1.16
7318.00,1.16
7317.00,1.16
7316.00,1.16
7315.00,1.16
7314.00,1.16
7313.00,1.16
7312.00,1.16
7311.00,1.16
7310.00,1.16
7309.00,1.15
7308.00,1.15
7307.00,1.15
7306.00,1.15
7305.00,1.15
7304.00,1.15
7303.00,1.15
7302.00,1.15
7301.00,1.15
7300.00,1.15
7299.00,1.15
7298.00,1.15
7297.00,1.15
7296.00,1.15
7295.00,1.15
7294.00,1.15
7293.00,1.15
7292.00,1.15
7291.00,1.15
7290.00,1.15
7289.00,1.15
7288.00,1.15
7287.00,1.15
7286.00,1.15
7285.00,1.15
7284.00,1.15
7283.00,1.15
7282.00,1.15
7281.00,1.15
7280.00,1.14
7279.00,1.14
7278.00,1.14
7277.00,1.14
7276.00,1.14
7275.00,1.14
7274.00,1.14
7273.00,1.14
7272.00,1.14
7271.00,1.14
7270.00,1.14
7269.00,1.14
7268.00,1.14
7267.00,1.14
7266.00,1.13
7265.00,1.13
7264.00,1.13
7263.00,1.13
7262.00,1.13
7261.00,1.13
7260.00,1.13
7259.00,1.13
7258.00,1.13
7257.00,1.13
7256.00,1.12
7255.00,1.12
7254.00,1.12
7253.00,1.12
7252.00,1.12
7251.00,1.12
7250.00,1.12
7249.00,1.12
7248.00,1.12
7247.00,1.11
7246.00,1.11
7245.00,1.11
7244.00,1.11
7243.00,1.11
7242.00,1.11
7241.00,1.11
7240.00,1.10
7239.00,1.10
7238.00,1.10
7237.00,1.10
7236.00,1.10
7235.00,1.09
7234.00,1.09
7233.00,1.09
7232.00,1.09
7231.00,1.09
7230.00,1.08
7229.00,1.08
7228.00,1.08
7227.00,1.08
7226.00,1.07
7225.00,1.07
7224.00,1.07
7223.00,1.06
7222.00,1.06
7221.00,1.06
7220.00,1.05
7219.00,1.05
7218.00,1.05
7217.00,1.04
7216.00,1.04
7215.00,1.04
7214.00,1.03
7213.00,1.03
7212.00,1.03
7211.00,1.03
7210.00,1.02
7209.00,1.02
7208.00,1.02
7207.00,1.02
7206.00,1.01
7205.00,1.01
7204.00,1.01
7203.00,1.01
7202.00,1.01
7201.00,1.00
7200.00,1.00
7199.00,1.00
7198.00,1.00
7197.00,1.00
7196.00,0.99
7195.00,0.99
7194.00,0.99
7193.00,0.99
7192.00,0.98
7191.00,0.98
7190.00,0.98
7189.00,0.98
7188.00,0.97
7187.00,0.97
7186.00,0.97
7185.00,0.97
7184.00,0.96
7183.00,0.96
7182.00,0.96
7181.00,0.95
7180.00,0.95
7179.00,0.95
7178.00,0.95
7177.00,0.94
7176.00,0.94
7175.00,0.94
7174.00,0.94
7173.00,0.93
7172.00,0.93
7171.00,0.93
7170.00,0.93
7169.00,0.93
7168.00,0.92
7167.00,0.92
7166.00,0.92
7165.00,0.92
7164.00,0.92
7163.00,0.92
7162.00,0.92
7161.00,0.91
7160.00,0.91
7159.00,0.91
7158.00,0.91
7157.00,0.91
7156.00,0.91
7155.00,0.91
7154.00,0.91
7153.00,0.91
7152.00,0.91
7151.00,0.90
7150.00,0.90
7149.00,0.90
7148.00,0.90
7147.00,0.90
7146.00,0.89
7145.00,0.89
7144.00,0.89
7143.00,0.89
7142.00,0.89
7141.00,0.88
7140.00,0.88
7139.00,0.88
7138.00,0.87
7137.00,0.87
7136.00,0.87
7135.00,0.87
7134.00,0.86
7133.00,0.86
7132.00,0.86
7131.00,0.86
7130.00,0.85
7129.00,0.85
7128.00,0.85
7127.00,0.85
7126.00,0.84
7125.00,0.84
7124.00,0.84
7123.00,0.84
7122.00,0.84
7121.00,0.83
7120.00,0.83
7119.00,0.83
7118.00,0.83
7117.00,0.82
7116.00,0.82
7115.00,0.82
7114.00,0.82
7113.00,0.82
7112.00,0.81
7111.00,0.81
7110.00,0.81
7109.00,0.81
7108.00,0.80
7107.00,0.80
7106.00,0.80
7105.00,0.80
7104.00,0.80
7103.00,0.79
7102.00,0.79
7101.00,0.79
7100.00,0.79
7099.00,0.78
7098.00,0.78
7097.00,0.78
7096.00,0.78
7095.00,0.77
7094.00,0.77
7093.00,0.77
7092.00,0.77
7091.00,0.77
7090.00,0.76
7089.00,0.76
7088.00,0.76
7087.00,0.76
7086.00,0.76
7085.00,0.76
7084.00,0.75
7083.00,0.75
7082.00,0.75
7081.00,0.75
7080.00,0.75
7079.00,0.75
7078.00,0.75
7077.00,0.74
7076.00,0.74
7075.00,0.74
7074.00,0.74
7073.00,0.74
7072.00,0.74
7071.00,0.74
7070.00,0.74
7069.00,0.73
7068.00,0.73
7067.00,0.73
7066.00,0.73
7065.00,0.73
7064.00,0.73
7063.00,0.73
7062.00,0.73
7061.00,0.72
7060.00,0.72
7059.00,0.72
7058.00,0.72
7057.00,0.72
7056.00,0.72
7055.00,0.72
7054.00,0.72
7053.00,0.71
7052.00,0.71
7051.00,0.71
7050.00,0.71
7049.00,0.71
7048.00,0.71
7047.00,0.71
7046.00,0.70
7045.00,0.70
7044.00,0.70
7043.00,0.70
7042.00,0.70
7041.00,0.70
7040.00,0.70
7039.00,0.69
7038.00,0.69
7037.00,0.69
7036.00,0.69
7035.00,0.69
7034.00,0.69
7033.00,0.69
7032.00,0.69
7031.00,0.69
7030.00,0.68
7029.00,0.68
7028.00,0.68
7027.00,0.68
7026.00,0.68
7025.00,0.68
7024.00,0.68
7023.00,0.68
7022.00,0.68
7021.00,0.68
7020.00,0.68
7019.00,0.68
7018.00,0.67
7017.00,0.67
7016.00,0.67
7015.00,0.67
7014.00,0.67
7013.00,0.67
7012.00,0.67
7011.00,0.67
7010.00,0.67
7009.00,0.67
7008.00,0.67
7007.00,0.66
7006.00,0.66
7005.00,0.66
7004.00,0.66
7003.00,0.66
7002.00,0.66
7001.00,0.66
7000.00,0.66
6999.00,0.65
6998.00,0.65
6997.00,0.65
6996.00,0.65
6995.00,0.65
6994.00,0.65
6993.00,0.65
6992.00,0.64
6991.00,0.64
6990.00,0.64
6989.00,0.64
6988.00,0.64
6987.00,0.64
6986.00,0.64
6985.00,0.64
6984.00,0.64
6983.00,0.64
6982.00,0.64
6981.00,0.64
6980.00,0.64
6979.00,0.63
6978.00,0.63
6977.00,0.63
6976.00,0.63
6975.00,0.63
6974.00,0.63
6973.00,0.63
6972.00,0.63
6971.00,0.63
6970.00,0.63
6969.00,0.63
6968.00,0.63
6967.00,0.63
6966.00,0.63
6965.00,0.63
6964.00,0.63
6963.00,0.63
6962.00,0.63
6961.00,0.63
6960.00,0.63
6959.00,0.63
6958.00,0.63
6957.00,0.63
6956.00,0.62
6955.00,0.62
6954.00,0.62
6953.00,0.62
6952.00,0.62
6951.00,0.62
6950.00,0.62
6949.00,0.62
6948.00,0.62
6947.00,0.62
6946.00,0.61
6945.00,0.61
6944.00,0.61
6943.00,0.61
6942.00,0.61
6941.00,0.61
6940.00,0.61
6939.00,0.61
6938.00,0.61
6937.00,0.61
6936.00,0.61
6935.00,0.61
6934.00,0.61
6933.00,0.61
6932.00,0.61
6931.00,0.61
6930.00,0.61
6929.00,0.61
6928.00,0.61
6927.00,0.61
6926.00,0.61
6925.00,0.61
6924.00,0.60
6923.00,0.60
6922.00,0.60
6921.00,0.60
6920.00,0.60
6919.00,0.60
6918.00,0.60
6917.00,0.60
6916.00,0.60
6915.00,0.60
6914.00,0.60
6913.00,0.60
6912.00,0.60
6911.00,0.60
6910.00,0.60
6909.00,0.60
6908.00,0.60
6907.00,0.60
6906.00,0.60
6905.00,0.60
6904.00,0.60
6903.00,0.60
6902.00,0.60
6901.00,0.60
6900.00,0.60
6899.00,0.60
6898.00,0.60
6897.00,0.60
6896.00,0.60
6895.00,0.60
6894.00,0.60
6893.00,0.60
6892.00,0.60
6891.00,0.60
6890.00,0.60
6889.00,0.60
6888.00,0.60
6887.00,0.60
6886.00,0.60
6885.00,0.60
6884.00,0.60
6883.00,0.60
6882.00,0.60
6881.00,0.59
6880.00,0.59
6879.00,0.59
6878.00,0.59
6877.00,0.59
6876.00,0.59
6875.00,0.59
6874.00,0.59
6873.00,0.59
6872.00,0.59
6871.00,0.59
6870.00,0.59
6869.00,0.59
6868.00,0.59
6867.00,0.59
6866.00,0.59
6865.00,0.59
6864.00,0.59
6863.00,0.59
6862.00,0.59
6861.00,0.59
6860.00,0.59
6859.00,0.59
6858.00,0.59
6857.00,0.59
6856.00,0.59
6855.00,0.60
6854.00,0.60
6853.00,0.60
6852.00,0.60
6851.00,0.60
6850.00,0.60
6849.00,0.59
6848.00,0.59
6847.00,0.59
6846.00,0.59
6845.00,0.59
6844.00,0.59
6843.00,0.59
6842.00,0.59
6841.00,0.59
6840.00,0.59
6839.00,0.59
6838.00,0.60
6837.00,0.60
6836.00,0.60
6835.00,0.60
6834.00,0.60
6833.00,0.60
6832.00,0.60
6831.00,0.60
6830.00,0.60
6829.00,0.60
6828.00,0.60
6827.00,0.60
6826.00,0.60
6825.00,0.60
6824.00,0.60
6823.00,0.60
6822.00,0.60
6821.00,0.60
6820.00,0.60
6819.00,0.60
6818.00,0.61
6817.00,0.61
6816.00,0.61
6815.00,0.61
6814.00,0.61
6813.00,0.61
6812.00,0.61
6811.00,0.61
6810.00,0.61
6809.00,0.61
6808.00,0.61
6807.00,0.61
6806.00,0.61
6805.00,0.61
6804.00,0.61
6803.00,0.61
6802.00,0.61
6801.00,0.61
6800.00,0.61
6799.00,0.61
6798.00,0.61
6797.00,0.61
6796.00,0.61
6795.00,0.61
6794.00,0.61
6793.00,0.61
6792.00,0.61
6791.00,0.61
6790.00,0.61
6789.00,0.61
6788.00,0.61
6787.00,0.61
6786.00,0.61
6785.00,0.61
6784.00,0.61
6783.00,0.61
6782.00,0.61
6781.00,0.61
6780.00,0.61
6779.00,0.61
6778.00,0.61
6777.00,0.61
6776.00,0.61
6775.00,0.62
6774.00,0.62
6773.00,0.62
6772.00,0.62
6771.00,0.62
6770.00,0.62
6769.00,0.62
6768.00,0.62
6767.00,0.63
6766.00,0.63
6765.00,0.63
6764.00,0.63
6763.00,0.63
6762.00,0.63
6761.00,0.63
6760.00,0.63
6759.00,0.63
6758.00,0.63
6757.00,0.63
6756.00,0.63
6755.00,0.63
6754.00,0.63
6753.00,0.63
6752.00,0.63
6751.00,0.63
6750.00,0.63
6749.00,0.63
6748.00,0.63
6747.00,0.63
6746.00,0.64
6745.00,0.64
6744.00,0.64
6743.00,0.64
6742.00,0.64
6741.00,0.64
6740.00,0.64
6739.00,0.64
6738.00,0.64
6737.00,0.64
6736.00,0.64
6735.00,0.64
6734.00,0.64
6733.00,0.64
6732.00,0.64
6731.00,0.64
6730.00,0.64
6729.00,0.64
6728.00,0.64
6727.00,0.64
6726.00,0.65
6725.00,0.65
6724.00,0.65
6723.00,0.65
6722.00,0.65
6721.00,0.65
6720.00,0.65
6719.00,0.65
6718.00,0.65
6717.00,0.66
6716.00,0.66
6715.00,0.66
6714.00,0.66
6713.00,0.66
6712.00,0.66
6711.00,0.66
6710.00,0.66
6709.00,0.66
6708.00,0.66
6707.00,0.67
6706.00,0.67
6705.00,0.67
6704.00,0.67
6703.00,0.67
6702.00,0.67
6701.00,0.67
6700.00,0.67
6699.00,0.67
6698.00,0.67
6697.00,0.67
6696.00,0.67
6695.00,0.67
6694.00,0.68
6693.00,0.68
6692.00,0.68
6691.00,0.68
6690.00,0.68
6689.00,0.68
6688.00,0.68
6687.00,0.68
6686.00,0.68
6685.00,0.68
6684.00,0.68
6683.00,0.68
6682.00,0.68
6681.00,0.68
6680.00,0.68
6679.00,0.68
6678.00,0.68
6677.00,0.68
6676.00,0.68
6675.00,0.68
6674.00,0.69
6673.00,0.69
6672.00,0.69
6671.00,0.69
6670.00,0.69
6669.00,0.69
6668.00,0.69
6667.00,0.69
6666.00,0.69
6665.00,0.69
6664.00,0.70
6663.00,0.70
6662.00,0.70
6661.00,0.70
6660.00,0.70
6659.00,0.70
6658.00,0.70
6657.00,0.70
6656.00,0.70
6655.00,0.71
6654.00,0.71
6653.00,0.71
6652.00,0.71
6651.00,0.71
6650.00,0.71
6649.00,0.71
6648.00,0.71
6647.00,0.71
6646.00,0.71
6645.00,0.71
6644.00,0.71
6643.00,0.71
6642.00,0.71
6641.00,0.72
6640.00,0.72
6639.00,0.72
6638.00,0.72
6637.00,0.72
6636.00,0.72
6635.00,0.72
6634.00,0.72
6633.00,0.72
6632.00,0.73
6631.00,0.73
6630.00,0.73
6629.00,0.73
6628.00,0.73
6627.00,0.73
6626.00,0.73
6625.00,0.73
6624.00,0.73
6623.00,0.74
6622.00,0.74
6621.00,0.74
6620.00,0.74
6619.00,0.74
6618.00,0.74
6617.00,0.74
6616.00,0.74
6615.00,0.74
6614.00,0.75
6613.00,0.75
6612.00,0.75
6611.00,0.75
6610.00,0.75
6609.00,0.75
6608.00,0.75
6607.00,0.75
6606.00,0.75
6605.00,0.75
6604.00,0.75
6603.00,0.75
6602.00,0.75
6601.00,0.76
6600.00,0.76
6599.00,0.76
6598.00,0.76
6597.00,0.76
6596.00,0.76
6595.00,0.76
6594.00,0.76
6593.00,0.76
6592.00,0.76
6591.00,0.76
6590.00,0.76
6589.00,0.76
6588.00,0.76
6587.00,0.76
6586.00,0.76
6585.00,0.77
6584.00,0.77
6583.00,0.77
6582.00,0.77
6581.00,0.77
6580.00,0.77
6579.00,0.77
6578.00,0.77
6577.00,0.77
6576.00,0.77
6575.00,0.77
6574.00,0.77
6573.00,0.77
6572.00,0.78
6571.00,0.78
6570.00,0.78
6569.00,0.78
6568.00,0.78
6567.00,0.78
6566.00,0.78
6565.00,0.78
6564.00,0.78
6563.00,0.78
6562.00,0.78
6561.00,0.79
6560.00,0.79
6559.00,0.79
6558.00,0.79
6557.00,0.79
6556.00,0.79
6555.00,0.79
6554.00,0.79
6553.00,0.79
6552.00,0.80
6551.00,0.80
6550.00,0.80
6549.00,0.80
6548.00,0.80
6547.00,0.80
6546.00,0.80
6545.00,0.80
6544.00,0.80
6543.00,0.80
6542.00,0.80
6541.00,0.81
6540.00,0.81
6539.00,0.81
6538.00,0.81
6537.00,0.81
6536.00,0.81
6535.00,0.81
6534.00,0.81
6533.00,0.81
6532.00,0.81
6531.00,0.81
6530.00,0.81
6529.00,0.81
6528.00,0.81
6527.00,0.81
6526.00,0.81
6525.00,0.81
6524.00,0.81
6523.00,0.81
6522.00,0.81
6521.00,0.81
6520.00,0.81
6519.00,0.81
6518.00,0.81
6517.00,0.81
6516.00,0.82
6515.00,0.82
6514.00,0.82
6513.00,0.82
6512.00,0.82
6511.00,0.82
6510.00,0.82
6509.00,0.82
6508.00,0.82
6507.00,0.83
6506.00,0.83
6505.00,0.83
6504.00,0.83
6503.00,0.83
6502.00,0.83
6501.00,0.83
6500.00,0.83
6499.00,0.83
6498.00,0.83
6497.00,0.84
6496.00,0.84
6495.00,0.84
6494.00,0.84
6493.00,0.84
6492.00,0.84
6491.00,0.84
6490.00,0.84
6489.00,0.84
6488.00,0.84
6487.00,0.84
6486.00,0.84
6485.00,0.84
6484.00,0.84
6483.00,0.84
6482.00,0.84
6481.00,0.84
6480.00,0.84
6479.00,0.84
6478.00,0.84
6477.00,0.84
6476.00,0.84
6475.00,0.84
6474.00,0.84
6473.00,0.84
6472.00,0.84
6471.00,0.84
6470.00,0.84
6469.00,0.84
6468.00,0.84
6467.00,0.85
6466.00,0.85
6465.00,0.85
6464.00,0.85
6463.00,0.85
6462.00,0.85
6461.00,0.85
6460.00,0.85
6459.00,0.85
6458.00,0.85
6457.00,0.85
6456.00,0.85
6455.00,0.85
6454.00,0.85
6453.00,0.85
6452.00,0.85
6451.00,0.85
6450.00,0.85
6449.00,0.85
6448.00,0.85
6447.00,0.85
6446.00,0.85
6445.00,0.85
6444.00,0.85
6443.00,0.85
6442.00,0.86
6441.00,0.86
6440.00,0.86
6439.00,0.86
6438.00,0.86
6437.00,0.86
6436.00,0.86
6435.00,0.86
6434.00,0.86
6433.00,0.86
6432.00,0.86
6431.00,0.86
6430.00,0.86
6429.00,0.86
6428.00,0.86
6427.00,0.86
6426.00,0.86
6425.00,0.87
6424.00,0.87
6423.00,0.87
6422.00,0.87
6421.00,0.87
6420.00,0.87
6419.00,0.87
6418.00,0.87
6417.00,0.87
6416.00,0.87
6415.00,0.87
6414.00,0.87
6413.00,0.87
6412.00,0.87
6411.00,0.87
6410.00,0.87
6409.00,0.87
6408.00,0.87
6407.00,0.87
6406.00,0.87
6405.00,0.87
6404.00,0.87
6403.00,0.87
6402.00,0.88
6401.00,0.88
6400.00,0.88
6399.00,0.88
6398.00,0.88
6397.00,0.88
6396.00,0.88
6395.00,0.88
6394.00,0.88
6393.00,0.88
6392.00,0.88
6391.00,0.88
6390.00,0.88
6389.00,0.88
6388.00,0.88
6387.00,0.88
6386.00,0.88
6385.00,0.88
6384.00,0.88
6383.00,0.88
6382.00,0.88
6381.00,0.88
6380.00,0.88
6379.00,0.88
6378.00,0.88
6377.00,0.88
6376.00,0.88
6375.00,0.88
6374.00,0.88
6373.00,0.88
6372.00,0.88
6371.00,0.89
6370.00,0.89
6369.00,0.89
6368.00,0.89
6367.00,0.89
6366.00,0.89
6365.00,0.89
6364.00,0.89
6363.00,0.89
6362.00,0.89
6361.00,0.89
6360.00,0.89
6359.00,0.89
6358.00,0.90
6357.00,0.90
6356.00,0.90
6355.00,0.90
6354.00,0.90
6353.00,0.90
6352.00,0.90
6351.00,0.90
6350.00,0.90
6349.00,0.90
6348.00,0.90
6347.00,0.90
6346.00,0.90
6345.00,0.91
6344.00,0.91
6343.00,0.91
6342.00,0.91
6341.00,0.91
6340.00,0.91
6339.00,0.91
6338.00,0.91
6337.00,0.91
6336.00,0.91
6335.00,0.91
6334.00,0.91
6333.00,0.91
6332.00,0.92
6331.00,0.92
6330.00,0.92
6329.00,0.92
6328.00,0.92
6327.00,0.92
6326.00,0.92
6325.00,0.92
6324.00,0.92
6323.00,0.92
6322.00,0.93
6321.00,0.93
6320.00,0.93
6319.00,0.93
6318.00,0.93
6317.00,0.93
6316.00,0.93
6315.00,0.93
6314.00,0.93
6313.00,0.93
6312.00,0.93
6311.00,0.93
6310.00,0.93
6309.00,0.93
6308.00,0.93
6307.00,0.93
6306.00,0.94
6305.00,0.94
6304.00,0.94
6303.00,0.94
6302.00,0.94
6301.00,0.94
6300.00,0.94
6299.00,0.94
6298.00,0.94
6297.00,0.94
6296.00,0.94
6295.00,0.94
6294.00,0.94
6293.00,0.94
6292.00,0.94
6291.00,0.94
6290.00,0.94
6289.00,0.94
6288.00,0.94
6287.00,0.95
6286.00,0.95
6285.00,0.95
6284.00,0.95
6283.00,0.95
6282.00,0.95
6281.00,0.95
6280.00,0.95
6279.00,0.95
6278.00,0.95
6277.00,0.95
6276.00,0.96
6275.00,0.96
6274.00,0.96
6273.00,0.96
6272.00,0.96
6271.00,0.96
6270.00,0.96
6269.00,0.96
6268.00,0.97
6267.00,0.97
6266.00,0.97
6265.00,0.97
6264.00,0.97
6263.00,0.97
6262.00,0.97
6261.00,0.97
6260.00,0.97
6259.00,0.98
6258.00,0.98
6257.00,0.98
6256.00,0.98
6255.00,0.98
6254.00,0.98
6253.00,0.98
6252.00,0.98
6251.00,0.98
6250.00,0.98
6249.00,0.99
6248.00,0.99
6247.00,0.99
6246.00,0.99
6245.00,0.99
6244.00,0.99
6243.00,0.99
6242.00,0.99
6241.00,0.99
6240.00,0.99
6239.00,0.99
6238.00,0.99
6237.00,1.00
6236.00,1.00
6235.00,1.00
6234.00,1.00
6233.00,1.00
6232.00,1.00
6231.00,1.00
6230.00,1.00
6229.00,1.01
6228.00,1.01
6227.00,1.01
6226.00,1.01
6225.00,1.01
6224.00,1.01
6223.00,1.01
6222.00,1.01
6221.00,1.01
6220.00,1.01
6219.00,1.01
6218.00,1.02
6217.00,1.02
6216.00,1.02
6215.00,1.02
6214.00,1.02
6213.00,1.02
6212.00,1.02
6211.00,1.02
6210.00,1.02
6209.00,1.02
6208.00,1.02
6207.00,1.03
6206.00,1.03
6205.00,1.03
6204.00,1.03
6203.00,1.03
6202.00,1.03
6201.00,1.03
6200.00,1.03
6199.00,1.03
6198.00,1.03
6197.00,1.04
6196.00,1.04
6195.00,1.04
6194.00,1.04
6193.00,1.04
6192.00,1.04
6191.00,1.04
6190.00,1.04
6189.00,1.04
6188.00,1.05
6187.00,1.05
6186.00,1.05
6185.00,1.05
6184.00,1.05
6183.00,1.05
6182.00,1.05
6181.00,1.06
6180.00,1.06
6179.00,1.06
6178.00,1.06
6177.00,1.06
6176.00,1.06
6175.00,1.06
6174.00,1.06
6173.00,1.06
6172.00,1.06
6171.00,1.06
6170.00,1.06
6169.00,1.07
6168.00,1.07
6167.00,1.07
6166.00,1.07
6165.00,1.07
6164.00,1.07
6163.00,1.07
6162.00,1.07
6161.00,1.07
6160.00,1.07
6159.00,1.07
6158.00,1.07
6157.00,1.07
6156.00,1.08
6155.00,1.08
6154.00,1.08
6153.00,1.08
6152.00,1.08
6151.00,1.08
6150.00,1.08
6149.00,1.09
6148.00,1.09
6147.00,1.09
6146.00,1.09
6145.00,1.09
6144.00,1.10
6143.00,1.10
6142.00,1.10
6141.00,1.10
6140.00,1.10
6139.00,1.10
6138.00,1.10
6137.00,1.11
6136.00,1.11
6135.00,1.11
6134.00,1.11
6133.00,1.11
6132.00,1.11
6131.00,1.11
6130.00,1.11
6129.00,1.11
6128.00,1.12
6127.00,1.12
6126.00,1.12
6125.00,1.12
6124.00,1.12
6123.00,1.12
6122.00,1.12
6121.00,1.12
6120.00,1.12
6119.00,1.12
6118.00,1.12
6117.00,1.12
6116.00,1.12
6115.00,1.12
6114.00,1.12
6113.00,1.12
6112.00,1.13
6111.00,1.13
6110.00,1.13
6109.00,1.13
6108.00,1.13
6107.00,1.13
6106.00,1.13
6105.00,1.13
6104.00,1.13
6103.00,1.13
6102.00,1.13
6101.00,1.13
6100.00,1.14
6099.00,1.14
6098.00,1.14
6097.00,1.14
6096.00,1.14
6095.00,1.14
6094.00,1.14
6093.00,1.14
6092.00,1.14
6091.00,1.15
6090.00,1.15
6089.00,1.15
6088.00,1.15
6087.00,1.15
6086.00,1.15
6085.00,1.15
6084.00,1.15
6083.00,1.15
6082.00,1.15
6081.00,1.15
6080.00,1.16
6079.00,1.16
6078.00,1.16
6077.00,1.16
6076.00,1.16
6075.00,1.16
6074.00,1.16
6073.00,1.16
6072.00,1.16
6071.00,1.16
6070.00,1.17
6069.00,1.17
6068.00,1.17
6067.00,1.17
6066.00,1.17
6065.00,1.17
6064.00,1.17
6063.00,1.17
6062.00,1.17
6061.00,1.17
6060.00,1.18
6059.00,1.18
6058.00,1.18
6057.00,1.18
6056.00,1.18
6055.00,1.18
6054.00,1.18
6053.00,1.18
6052.00,1.18
6051.00,1.18
6050.00,1.18
6049.00,1.18
6048.00,1.18
6047.00,1.18
6046.00,1.18
6045.00,1.18
6044.00,1.18
6043.00,1.18
6042.00,1.18
6041.00,1.19
6040.00,1.19
6039.00,1.19
6038.00,1.19
6037.00,1.19
6036.00,1.19
6035.00,1.19
6034.00,1.19
6033.00,1.19
6032.00,1.19
6031.00,1.19
6030.00,1.19
6029.00,1.19
6028.00,1.19
6027.00,1.19
6026.00,1.19
6025.00,1.19
6024.00,1.19
6023.00,1.19
6022.00,1.19
6021.00,1.19
6020.00,1.19
6019.00,1.19
6018.00,1.19
6017.00,1.19
6016.00,1.19
6015.00,1.19
6014.00,1.19
6013.00,1.19
6012.00,1.19
6011.00,1.19
6010.00,1.19
6009.00,1.19
6008.00,1.19
6007.00,1.19
6006.00,1.19
6005.00,1.19
6004.00,1.19
6003.00,1.19
6002.00,1.19
6001.00,1.19
6000.00,1.19
5999.00,1.19
5998.00,1.19
5997.00,1.19
5996.00,1.19
5995.00,1.19
5994.00,1.18
5993.00,1.18
5992.00,1.18
5991.00,1.18
5990.00,1.18
5989.00,1.18
5988.00,1.18
5987.00,1.17
5986.00,1.17
5985.00,1.17
5984.00,1.17
5983.00,1.17
5982.00,1.16
5981.00,1.16
5980.00,1.16
5979.00,1.16
5978.00,1.16
5977.00,1.15
5976.00,1.15
5975.00,1.15
5974.00,1.14
5973.00,1.14
5972.00,1.14
5971.00,1.13
5970.00,1.13
5969.00,1.12
5968.00,1.12
5967.00,1.12
5966.00,1.11
5965.00,1.11
5964.00,1.10
5963.00,1.09
5962.00,1.09
5961.00,1.08
5960.00,1.08
5959.00,1.07
5958.00,1.06
5957.00,1.06
5956.00,1.05
5955.00,1.05
5954.00,1.04
5953.00,1.03
5952.00,1.03
5951.00,1.02
5950.00,1.02
5949.00,1.01
5948.00,1.01
5947.00,1.01
5946.00,1.00
5945.00,1.00
5944.00,1.00
5943.00,0.99
5942.00,0.99
5941.00,0.99
5940.00,0.99
5939.00,0.99
5938.00,0.99
5937.00,0.99
5936.00,0.99
5935.00,0.99
5934.00,0.99
5933.00,0.99
5932.00,0.99
5931.00,0.98
5930.00,0.98
5929.00,0.98
5928.00,0.98
5927.00,0.98
5926.00,0.98
5925.00,0.98
5924.00,0.98
5923.00,0.98
5922.00,0.98
5921.00,0.97
5920.00,0.97
5919.00,0.97
5918.00,0.97
5917.00,0.97
5916.00,0.96
5915.00,0.96
5914.00,0.96
5913.00,0.96
5912.00,0.96
5911.00,0.95
5910.00,0.95
5909.00,0.95
5908.00,0.95
5907.00,0.95
5906.00,0.95
5905.00,0.94
5904.00,0.94
5903.00,0.94
5902.00,0.94
5901.00,0.94
5900.00,0.94
5899.00,0.94
5898.00,0.94
5897.00,0.94
5896.00,0.94
5895.00,0.94
5894.00,0.94
5893.00,0.95
5892.00,0.95
5891.00,0.95
5890.00,0.95
5889.00,0.95
5888.00,0.96
5887.00,0.96
5886.00,0.96
5885.00,0.96
5884.00,0.97
5883.00,0.97
5882.00,0.97
5881.00,0.97
5880.00,0.98
5879.00,0.98
5878.00,0.98
5877.00,0.98
5876.00,0.99
5875.00,0.99
5874.00,0.99
5873.00,0.99
5872.00,0.99
5871.00,1.00
5870.00,1.00
5869.00,1.00
5868.00,1.00
5867.00,1.00
5866.00,1.00
5865.00,1.00
5864.00,1.01
5863.00,1.01
5862.00,1.01
5861.00,1.01
5860.00,1.01
5859.00,1.01
5858.00,1.01
5857.00,1.01
5856.00,1.01
5855.00,1.02
5854.00,1.02
5853.00,1.02
5852.00,1.02
5851.00,1.02
5850.00,1.02
5849.00,1.02
5848.00,1.02
5847.00,1.02
5846.00,1.02
5845.00,1.02
5844.00,1.02
5843.00,1.02
5842.00,1.02
5841.00,1.02
5840.00,1.02
5839.00,1.02
5838.00,1.02
5837.00,1.02
5836.00,1.02
5835.00,1.02
5834.00,1.02
5833.00,1.02
5832.00,1.02
5831.00,1.02
5830.00,1.02
5829.00,1.02
5828.00,1.02
5827.00,1.02
5826.00,1.02
5825.00,1.02
5824.00,1.02
5823.00,1.02
5822.00,1.02
5821.00,1.02
5820.00,1.02
5819.00,1.02
5818.00,1.02
5817.00,1.02
5816.00,1.02
5815.00,1.02
5814.00,1.02
5813.00,1.02
5812.00,1.02
5811.00,1.02
5810.00,1.02
5809.00,1.02
5808.00,1.02
5807.00,1.02
5806.00,1.02
5805.00,1.02
5804.00,1.01
5803.00,1.01
5802.00,1.01
5801.00,1.01
5800.00,1.01
5799.00,1.01
5798.00,1.01
5797.00,1.01
5796.00,1.01
5795.00,1.01
5794.00,1.00
5793.00,1.00
5792.00,1.00
5791.00,1.00
5790.00,1.00
5789.00,1.00
5788.00,1.00
5787.00,0.99
5786.00,0.99
5785.00,0.99
5784.00,0.99
5783.00,0.99
5782.00,0.99
5781.00,0.99
5780.00,0.98
5779.00,0.98
5778.00,0.98
5777.00,0.98
5776.00,0.98
5775.00,0.98
5774.00,0.98
5773.00,0.98
5772.00,0.98
5771.00,0.98
5770.00,0.98
5769.00,0.98
5768.00,0.98
5767.00,0.98
5766.00,0.98
5765.00,0.98
5764.00,0.98
5763.00,0.98
5762.00,0.98
5761.00,0.99
5760.00,0.99
5759.00,0.99
5758.00,0.99
5757.00,1.00
5756.00,1.00
5755.00,1.00
5754.00,1.00
5753.00,1.01
5752.00,1.01
5751.00,1.02
5750.00,1.02
5749.00,1.02
5748.00,1.03
5747.00,1.03
5746.00,1.03
5745.00,1.04
5744.00,1.04
5743.00,1.04
5742.00,1.04
5741.00,1.05
5740.00,1.05
5739.00,1.05
5738.00,1.05
5737.00,1.05
5736.00,1.06
5735.00,1.06
5734.00,1.06
5733.00,1.06
5732.00,1.06
5731.00,1.06
5730.00,1.06
5729.00,1.06
5728.00,1.06
5727.00,1.07
5726.00,1.07
5725.00,1.07
5724.00,1.07
5723.00,1.07
5722.00,1.07
5721.00,1.07
5720.00,1.07
5719.00,1.07
5718.00,1.07
5717.00,1.07
5716.00,1.07
5715.00,1.07
5714.00,1.07
5713.00,1.07
5712.00,1.07
5711.00,1.07
5710.00,1.07
5709.00,1.07
5708.00,1.07
5707.00,1.06
5706.00,1.06
5705.00,1.06
5704.00,1.06
5703.00,1.06
5702.00,1.06
5701.00,1.06
5700.00,1.06
5699.00,1.06
5698.00,1.06
5697.00,1.06
5696.00,1.06
5695.00,1.05
5694.00,1.05
5693.00,1.05
5692.00,1.05
5691.00,1.05
5690.00,1.05
5689.00,1.05
5688.00,1.05
5687.00,1.05
5686.00,1.04
5685.00,1.04
5684.00,1.04
5683.00,1.04
5682.00,1.04
5681.00,1.04
5680.00,1.04
5679.00,1.04
5678.00,1.04
5677.00,1.04
5676.00,1.04
5675.00,1.04
5674.00,1.04
5673.00,1.04
5672.00,1.04
5671.00,1.04
5670.00,1.04
5669.00,1.04
5668.00,1.04
5667.00,1.04
5666.00,1.04
5665.00,1.04
5664.00,1.04
5663.00,1.04
5662.00,1.05
5661.00,1.05
5660.00,1.05
5659.00,1.05
5658.00,1.05
5657.00,1.05
5656.00,1.05
5655.00,1.06
5654.00,1.06
5653.00,1.06
5652.00,1.06
5651.00,1.06
5650.00,1.06
5649.00,1.07
5648.00,1.07
5647.00,1.07
5646.00,1.07
5645.00,1.07
5644.00,1.07
5643.00,1.07
5642.00,1.08
5641.00,1.08
5640.00,1.08
5639.00,1.08
5638.00,1.08
5637.00,1.08
5636.00,1.08
5635.00,1.09
5634.00,1.09
5633.00,1.09
5632.00,1.09
5631.00,1.09
5630.00,1.09
5629.00,1.09
5628.00,1.09
5627.00,1.10
5626.00,1.10
5625.00,1.10
5624.00,1.10
5623.00,1.10
5622.00,1.10
5621.00,1.10
5620.00,1.11
5619.00,1.11
5618.00,1.11
5617.00,1.11
5616.00,1.11
5615.00,1.11
5614.00,1.11
5613.00,1.12
5612.00,1.12
5611.00,1.12
5610.00,1.12
5609.00,1.12
5608.00,1.12
5607.00,1.12
5606.00,1.12
5605.00,1.13
5604.00,1.13
5603.00,1.13
5602.00,1.13
5601.00,1.13
5600.00,1.13
5599.00,1.13
5598.00,1.13
5597.00,1.13
5596.00,1.13
5595.00,1.14
5594.00,1.14
5593.00,1.14
5592.00,1.14
5591.00,1.14
5590.00,1.14
5589.00,1.14
5588.00,1.14
5587.00,1.14
5586.00,1.15
5585.00,1.15
5584.00,1.15
5583.00,1.15
5582.00,1.15
5581.00,1.15
5580.00,1.15
5579.00,1.15
5578.00,1.16
5577.00,1.16
5576.00,1.16
5575.00,1.16
5574.00,1.16
5573.00,1.16
5572.00,1.16
5571.00,1.16
5570.00,1.16
5569.00,1.17
5568.00,1.17
5567.00,1.17
5566.00,1.17
5565.00,1.17
5564.00,1.17
5563.00,1.17
5562.00,1.17
5561.00,1.18
5560.00,1.18
5559.00,1.18
5558.00,1.18
5557.00,1.18
5556.00,1.18
5555.00,1.18
5554.00,1.19
5553.00,1.19
5552.00,1.19
5551.00,1.19
5550.00,1.19
5549.00,1.19
5548.00,1.19
5547.00,1.19
5546.00,1.19
5545.00,1.19
5544.00,1.20
5543.00,1.20
5542.00,1.20
5541.00,1.20
5540.00,1.20
5539.00,1.20
5538.00,1.20
5537.00,1.20
5536.00,1.20
5535.00,1.20
5534.00,1.20
5533.00,1.20
5532.00,1.20
5531.00,1.20
5530.00,1.20
5529.00,1.20
5528.00,1.21
5527.00,1.21
5526.00,1.21
5525.00,1.21
5524.00,1.21
5523.00,1.21
5522.00,1.21
5521.00,1.21
5520.00,1.21
5519.00,1.21
5518.00,1.21
5517.00,1.21
5516.00,1.21
5515.00,1.22
5514.00,1.22
5513.00,1.22
5512.00,1.22
5511.00,1.22
5510.00,1.22
5509.00,1.22
5508.00,1.22
5507.00,1.22
5506.00,1.22
5505.00,1.22
5504.00,1.22
5503.00,1.22
5502.00,1.22
5501.00,1.22
5500.00,1.22
5499.00,1.22
5498.00,1.22
5497.00,1.22
5496.00,1.22
5495.00,1.22
5494.00,1.22
5493.00,1.22
5492.00,1.22
5491.00,1.22
5490.00,1.22
5489.00,1.22
5488.00,1.23
5487.00,1.23
5486.00,1.23
5485.00,1.23
5484.00,1.23
5483.00,1.23
5482.00,1.23
5481.00,1.23
5480.00,1.23
5479.00,1.23
5478.00,1.24
5477.00,1.24
5476.00,1.24
5475.00,1.24
5474.00,1.24
5473.00,1.24
5472.00,1.24
5471.00,1.24
5470.00,1.24
5469.00,1.24
5468.00,1.25
5467.00,1.25
5466.00,1.25
5465.00,1.25
5464.00,1.25
5463.00,1.25
5462.00,1.25
5461.00,1.25
5460.00,1.25
5459.00,1.25
5458.00,1.25
5457.00,1.25
5456.00,1.25
5455.00,1.26
5454.00,1.26
5453.00,1.26
5452.00,1.26
5451.00,1.26
5450.00,1.26
5449.00,1.26
5448.00,1.26
5447.00,1.26
5446.00,1.26
5445.00,1.26
5444.00,1.26
5443.00,1.26
5442.00,1.26
5441.00,1.26
5440.00,1.26
5439.00,1.26
5438.00,1.26
5437.00,1.26
5436.00,1.26
5435.00,1.26
5434.00,1.26
5433.00,1.26
5432.00,1.26
5431.00,1.26
5430.00,1.26
5429.00,1.26
5428.00,1.26
5427.00,1.26
5426.00,1.26
5425.00,1.27
5424.00,1.27
5423.00,1.27
5422.00,1.27
5421.00,1.27
5420.00,1.27
5419.00,1.27
5418.00,1.27
5417.00,1.27
5416.00,1.27
5415.00,1.27
5414.00,1.27
5413.00,1.27
5412.00,1.27
5411.00,1.27
5410.00,1.27
5409.00,1.27
5408.00,1.27
5407.00,1.27
5406.00,1.27
5405.00,1.27
5404.00,1.27
5403.00,1.27
5402.00,1.27
5401.00,1.27
5400.00,1.27
5399.00,1.27
5398.00,1.27
5397.00,1.27
5396.00,1.26
5395.00,1.26
5394.00,1.26
5393.00,1.26
5392.00,1.26
5391.00,1.26
5390.00,1.26
5389.00,1.26
5388.00,1.26
5387.00,1.26
5386.00,1.26
5385.00,1.26
5384.00,1.25
5383.00,1.25
5382.00,1.25
5381.00,1.25
5380.00,1.25
5379.00,1.25
5378.00,1.25
5377.00,1.24
5376.00,1.24
5375.00,1.24
5374.00,1.24
5373.00,1.24
5372.00,1.23
5371.00,1.23
5370.00,1.23
5369.00,1.22
5368.00,1.22
5367.00,1.22
5366.00,1.21
5365.00,1.21
5364.00,1.21
5363.00,1.20
5362.00,1.20
5361.00,1.19
5360.00,1.19
5359.00,1.18
5358.00,1.18
5357.00,1.17
5356.00,1.16
5355.00,1.16
5354.00,1.15
5353.00,1.15
5352.00,1.14
5351.00,1.13
5350.00,1.13
5349.00,1.12
5348.00,1.11
5347.00,1.11
5346.00,1.10
5345.00,1.09
5344.00,1.08
5343.00,1.08
5342.00,1.07
5341.00,1.06
5340.00,1.06
5339.00,1.05
5338.00,1.04
5337.00,1.03
5336.00,1.03
5335.00,1.02
5334.00,1.01
5333.00,1.00
5332.00,0.99
5331.00,0.99
5330.00,0.98
5329.00,0.97
5328.00,0.96
5327.00,0.95
5326.00,0.94
5325.00,0.93
5324.00,0.92
5323.00,0.91
5322.00,0.90
5321.00,0.89
5320.00,0.88
5319.00,0.87
5318.00,0.86
5317.00,0.85
5316.00,0.85
5315.00,0.84
5314.00,0.83
5313.00,0.82
5312.00,0.81
5311.00,0.80
5310.00,0.79
5309.00,0.78
5308.00,0.77
5307.00,0.76
5306.00,0.75
5305.00,0.74
5304.00,0.73
5303.00,0.73
5302.00,0.72
5301.00,0.71
5300.00,0.70
5299.00,0.70
5298.00,0.69
5297.00,0.68
5296.00,0.68
5295.00,0.67
5294.00,0.67
5293.00,0.66
5292.00,0.66
5291.00,0.65
5290.00,0.65
5289.00,0.64
5288.00,0.64
5287.00,0.63
5286.00,0.63
5285.00,0.63
5284.00,0.62
5283.00,0.62
5282.00,0.62
5281.00,0.61
5280.00,0.61
5279.00,0.61
5278.00,0.60
5277.00,0.60
5276.00,0.60
5275.00,0.60
5274.00,0.59
5273.00,0.59
5272.00,0.59
5271.00,0.59
5270.00,0.58
5269.00,0.58
5268.00,0.58
5267.00,0.58
5266.00,0.58
5265.00,0.58
5264.00,0.57
5263.00,0.57
5262.00,0.57
5261.00,0.57
5260.00,0.57
5259.00,0.57
5258.00,0.56
5257.00,0.56
5256.00,0.56
5255.00,0.56
5254.00,0.56
5253.00,0.56
5252.00,0.56
5251.00,0.55
5250.00,0.55
5249.00,0.55
5248.00,0.55
5247.00,0.55
5246.00,0.55
5245.00,0.55
5244.00,0.55
5243.00,0.55
5242.00,0.55
5241.00,0.55
5240.00,0.55
5239.00,0.54
5238.00,0.54
5237.00,0.54
5236.00,0.54
5235.00,0.54
5234.00,0.54
5233.00,0.55
5232.00,0.55
5231.00,0.55
5230.00,0.55
5229.00,0.55
5228.00,0.55
5227.00,0.55
5226.00,0.55
5225.00,0.55
5224.00,0.55
5223.00,0.55
5222.00,0.55
5221.00,0.55
5220.00,0.55
5219.00,0.55
5218.00,0.55
5217.00,0.55
5216.00,0.55
5215.00,0.55
5214.00,0.55
5213.00,0.54
5212.00,0.54
5211.00,0.54
5210.00,0.54
5209.00,0.54
5208.00,0.54
5207.00,0.54
5206.00,0.54
5205.00,0.54
5204.00,0.54
5203.00,0.54
5202.00,0.54
5201.00,0.54
5200.00,0.54
5199.00,0.54
5198.00,0.54
5197.00,0.54
5196.00,0.54
5195.00,0.54
5194.00,0.54
5193.00,0.54
5192.00,0.54
5191.00,0.54
5190.00,0.54
5189.00,0.54
5188.00,0.54
5187.00,0.54
5186.00,0.54
5185.00,0.54
5184.00,0.54
5183.00,0.54
5182.00,0.54
5181.00,0.54
5180.00,0.55
5179.00,0.55
5178.00,0.55
5177.00,0.55
5176.00,0.55
5175.00,0.55
5174.00,0.55
5173.00,0.55
5172.00,0.55
5171.00,0.55
5170.00,0.55
5169.00,0.55
5168.00,0.55
5167.00,0.55
5166.00,0.55
5165.00,0.55
5164.00,0.56
5163.00,0.56
5162.00,0.56
5161.00,0.56
5160.00,0.56
5159.00,0.56
5158.00,0.56
5157.00,0.56
5156.00,0.56
5155.00,0.56
5154.00,0.56
5153.00,0.56
5152.00,0.56
5151.00,0.56
5150.00,0.56
5149.00,0.56
5148.00,0.56
5147.00,0.56
5146.00,0.56
5145.00,0.56
5144.00,0.56
5143.00,0.56
5142.00,0.57
5141.00,0.57
5140.00,0.57
5139.00,0.57
5138.00,0.57
5137.00,0.57
5136.00,0.57
5135.00,0.57
5134.00,0.57
5133.00,0.57
5132.00,0.57
5131.00,0.57
5130.00,0.57
5129.00,0.57
5128.00,0.57
5127.00,0.57
5126.00,0.57
5125.00,0.57
5124.00,0.57
5123.00,0.57
5122.00,0.58
5121.00,0.58
5120.00,0.58
5119.00,0.58
5118.00,0.58
5117.00,0.58
5116.00,0.58
5115.00,0.58
5114.00,0.58
5113.00,0.58
5112.00,0.58
5111.00,0.58
5110.00,0.58
5109.00,0.58
5108.00,0.58
5107.00,0.59
5106.00,0.59
5105.00,0.59
5104.00,0.59
5103.00,0.59
5102.00,0.59
5101.00,0.59
5100.00,0.59
5099.00,0.59
5098.00,0.59
5097.00,0.59
5096.00,0.59
5095.00,0.59
5094.00,0.59
5093.00,0.60
5092.00,0.60
5091.00,0.60
5090.00,0.60
5089.00,0.60
5088.00,0.60
5087.00,0.60
5086.00,0.60
5085.00,0.60
5084.00,0.60
5083.00,0.60
5082.00,0.60
5081.00,0.60
5080.00,0.61
5079.00,0.61
5078.00,0.61
5077.00,0.61
5076.00,0.61
5075.00,0.61
5074.00,0.61
5073.00,0.61
5072.00,0.61
5071.00,0.62
5070.00,0.62
5069.00,0.62
5068.00,0.62
5067.00,0.62
5066.00,0.62
5065.00,0.62
5064.00,0.62
5063.00,0.62
5062.00,0.62
5061.00,0.63
5060.00,0.63
5059.00,0.63
5058.00,0.63
5057.00,0.63
5056.00,0.63
5055.00,0.63
5054.00,0.63
5053.00,0.63
5052.00,0.63
5051.00,0.63
5050.00,0.64
5049.00,0.64
5048.00,0.64
5047.00,0.64
5046.00,0.64
5045.00,0.64
5044.00,0.64
5043.00,0.64
5042.00,0.65
5041.00,0.65
5040.00,0.65
5039.00,0.65
5038.00,0.65
5037.00,0.65
5036.00,0.65
5035.00,0.65
5034.00,0.65
5033.00,0.65
5032.00,0.65
5031.00,0.66
5030.00,0.66
5029.00,0.66
5028.00,0.66
5027.00,0.66
5026.00,0.66
5025.00,0.66
5024.00,0.66
5023.00,0.66
5022.00,0.66
5021.00,0.67
5020.00,0.67
5019.00,0.67
5018.00,0.67
5017.00,0.67
5016.00,0.67
5015.00,0.67
5014.00,0.67
5013.00,0.68
5012.00,0.68
5011.00,0.68
5010.00,0.68
5009.00,0.68
5008.00,0.68
5007.00,0.68
5006.00,0.68
5005.00,0.68
5004.00,0.69
5003.00,0.69
5002.00,0.69
5001.00,0.69
5000.00,0.69
4999.00,0.69
4998.00,0.69
4997.00,0.69
4996.00,0.70
4995.00,0.70
4994.00,0.70
4993.00,0.70
4992.00,0.70
4991.00,0.70
4990.00,0.70
4989.00,0.71
4988.00,0.71
4987.00,0.71
4986.00,0.71
4985.00,0.71
4984.00,0.71
4983.00,0.71
4982.00,0.72
4981.00,0.72
4980.00,0.72
4979.00,0.72
4978.00,0.72
4977.00,0.72
4976.00,0.72
4975.00,0.72
4974.00,0.72
4973.00,0.72
4972.00,0.73
4971.00,0.73
4970.00,0.73
4969.00,0.73
4968.00,0.73
4967.00,0.73
4966.00,0.73
4965.00,0.73
4964.00,0.73
4963.00,0.73
4962.00,0.74
4961.00,0.74
4960.00,0.74
4959.00,0.74
4958.00,0.74
4957.00,0.74
4956.00,0.74
4955.00,0.74
4954.00,0.74
4953.00,0.75
4952.00,0.75
4951.00,0.75
4950.00,0.75
4949.00,0.75
4948.00,0.75
4947.00,0.75
4946.00,0.75
4945.00,0.75
4944.00,0.76
4943.00,0.76
4942.00,0.76
4941.00,0.76
4940.00,0.76
4939.00,0.76
4938.00,0.76
4937.00,0.77
4936.00,0.77
4935.00,0.77
4934.00,0.77
4933.00,0.77
4932.00,0.77
4931.00,0.77
4930.00,0.77
4929.00,0.77
4928.00,0.78
4927.00,0.78
4926.00,0.78
4925.00,0.78
4924.00,0.78
4923.00,0.78
4922.00,0.78
4921.00,0.78
4920.00,0.78
4919.00,0.78
4918.00,0.78
4917.00,0.78
4916.00,0.78
4915.00,0.78
4914.00,0.78
4913.00,0.78
4912.00,0.78
4911.00,0.79
4910.00,0.79
4909.00,0.79
4908.00,0.79
4907.00,0.79
4906.00,0.79
4905.00,0.79
4904.00,0.79
4903.00,0.79
4902.00,0.79
4901.00,0.79
4900.00,0.79
4899.00,0.79
4898.00,0.79
4897.00,0.79
4896.00,0.80
4895.00,0.80
4894.00,0.80
4893.00,0.80
4892.00,0.80
4891.00,0.80
4890.00,0.80
4889.00,0.80
4888.00,0.80
4887.00,0.80
4886.00,0.80
4885.00,0.80
4884.00,0.80
4883.00,0.80
4882.00,0.80
4881.00,0.80
4880.00,0.80
4879.00,0.80
4878.00,0.81
4877.00,0.81
4876.00,0.81
4875.00,0.81
4874.00,0.81
4873.00,0.81
4872.00,0.81
4871.00,0.81
4870.00,0.81
4869.00,0.81
4868.00,0.81
4867.00,0.81
4866.00,0.81
4865.00,0.81
4864.00,0.81
4863.00,0.81
4862.00,0.81
4861.00,0.81
4860.00,0.81
4859.00,0.82
4858.00,0.82
4857.00,0.82
4856.00,0.82
4855.00,0.82
4854.00,0.82
4853.00,0.82
4852.00,0.82
4851.00,0.82
4850.00,0.82
4849.00,0.82
4848.00,0.82
4847.00,0.82
4846.00,0.82
4845.00,0.82
4844.00,0.83
4843.00,0.83
4842.00,0.83
4841.00,0.83
4840.00,0.83
4839.00,0.83
4838.00,0.83
4837.00,0.83
4836.00,0.83
4835.00,0.83
4834.00,0.83
4833.00,0.83
4832.00,0.84
4831.00,0.84
4830.00,0.84
4829.00,0.84
4828.00,0.84
4827.00,0.84
4826.00,0.84
4825.00,0.84
4824.00,0.84
4823.00,0.85
4822.00,0.85
4821.00,0.85
4820.00,0.85
4819.00,0.85
4818.00,0.85
4817.00,0.86
4816.00,0.86
4815.00,0.86
4814.00,0.86
4813.00,0.86
4812.00,0.86
4811.00,0.87
4810.00,0.87
4809.00,0.87
4808.00,0.87
4807.00,0.87
4806.00,0.87
4805.00,0.87
4804.00,0.88
4803.00,0.88
4802.00,0.88
4801.00,0.88
4800.00,0.88
4799.00,0.88
4798.00,0.88
4797.00,0.88
4796.00,0.88
4795.00,0.88
4794.00,0.89
4793.00,0.89
4792.00,0.89
4791.00,0.89
4790.00,0.89
4789.00,0.89
4788.00,0.89
4787.00,0.89
4786.00,0.89
4785.00,0.90
4784.00,0.90
4783.00,0.90
4782.00,0.90
4781.00,0.90
4780.00,0.90
4779.00,0.90
4778.00,0.91
4777.00,0.91
4776.00,0.91
4775.00,0.91
4774.00,0.91
4773.00,0.91
4772.00,0.92
4771.00,0.92
4770.00,0.92
4769.00,0.92
4768.00,0.92
4767.00,0.93
4766.00,0.93
4765.00,0.93
4764.00,0.93
4763.00,0.93
4762.00,0.94
4761.00,0.94
4760.00,0.94
4759.00,0.94
4758.00,0.94
4757.00,0.95
4756.00,0.95
4755.00,0.95
4754.00,0.95
4753.00,0.95
4752.00,0.95
4751.00,0.96
4750.00,0.96
4749.00,0.96
4748.00,0.96
4747.00,0.96
4746.00,0.97
4745.00,0.97
4744.00,0.97
4743.00,0.97
4742.00,0.97
4741.00,0.97
4740.00,0.97
4739.00,0.98
4738.00,0.98
4737.00,0.98
4736.00,0.98
4735.00,0.98
4734.00,0.98
4733.00,0.99
4732.00,0.99
4731.00,0.99
4730.00,0.99
4729.00,0.99
4728.00,0.99
4727.00,1.00
4726.00,1.00
4725.00,1.00
4724.00,1.00
4723.00,1.00
4722.00,1.00
4721.00,1.01
4720.00,1.01
4719.00,1.01
4718.00,1.01
4717.00,1.01
4716.00,1.02
4715.00,1.02
4714.00,1.02
4713.00,1.02
4712.00,1.02
4711.00,1.02
4710.00,1.03
4709.00,1.03
4708.00,1.03
4707.00,1.03
4706.00,1.04
4705.00,1.04
4704.00,1.04
4703.00,1.04
4702.00,1.05
4701.00,1.05
4700.00,1.05
4699.00,1.05
4698.00,1.06
4697.00,1.06
4696.00,1.06
4695.00,1.06
4694.00,1.07
4693.00,1.07
4692.00,1.07
4691.00,1.07
4690.00,1.07
4689.00,1.08
4688.00,1.08
4687.00,1.08
4686.00,1.08
4685.00,1.08
4684.00,1.08
4683.00,1.08
4682.00,1.09
4681.00,1.09
4680.00,1.09
4679.00,1.09
4678.00,1.09
4677.00,1.09
4676.00,1.10
4675.00,1.10
4674.00,1.10
4673.00,1.10
4672.00,1.10
4671.00,1.10
4670.00,1.11
4669.00,1.11
4668.00,1.11
4667.00,1.11
4666.00,1.11
4665.00,1.11
4664.00,1.12
4663.00,1.12
4662.00,1.12
4661.00,1.12
4660.00,1.12
4659.00,1.12
4658.00,1.12
4657.00,1.12
4656.00,1.13
4655.00,1.13
4654.00,1.13
4653.00,1.13
4652.00,1.13
4651.00,1.13
4650.00,1.13
4649.00,1.13
4648.00,1.13
4647.00,1.14
4646.00,1.14
4645.00,1.14
4644.00,1.14
4643.00,1.15
4642.00,1.15
4641.00,1.15
4640.00,1.15
4639.00,1.15
4638.00,1.16
4637.00,1.16
4636.00,1.16
4635.00,1.16
4634.00,1.17
4633.00,1.17
4632.00,1.17
4631.00,1.17
4630.00,1.17
4629.00,1.17
4628.00,1.17
4627.00,1.18
4626.00,1.18
4625.00,1.18
4624.00,1.18
4623.00,1.18
4622.00,1.18
4621.00,1.18
4620.00,1.18
4619.00,1.18
4618.00,1.18
4617.00,1.18
4616.00,1.18
4615.00,1.18
4614.00,1.18
4613.00,1.18
4612.00,1.18
4611.00,1.18
4610.00,1.18
4609.00,1.18
4608.00,1.18
4607.00,1.18
4606.00,1.18
4605.00,1.19
4604.00,1.19
4603.00,1.19
4602.00,1.19
4601.00,1.19
4600.00,1.19
4599.00,1.20
4598.00,1.20
4597.00,1.20
4596.00,1.20
4595.00,1.20
4594.00,1.20
4593.00,1.20
4592.00,1.21
4591.00,1.21
4590.00,1.21
4589.00,1.21
4588.00,1.21
4587.00,1.21
4586.00,1.21
4585.00,1.21
4584.00,1.21
4583.00,1.21
4582.00,1.22
4581.00,1.22
4580.00,1.22
4579.00,1.22
4578.00,1.22
4577.00,1.22
4576.00,1.22
4575.00,1.22
4574.00,1.22
4573.00,1.22
4572.00,1.23
4571.00,1.23
4570.00,1.23
4569.00,1.23
4568.00,1.23
4567.00,1.23
4566.00,1.23
4565.00,1.23
4564.00,1.23
4563.00,1.23
4562.00,1.23
4561.00,1.23
4560.00,1.23
4559.00,1.23
4558.00,1.23
4557.00,1.23
4556.00,1.24
4555.00,1.24
4554.00,1.24
4553.00,1.24
4552.00,1.24
4551.00,1.24
4550.00,1.24
4549.00,1.24
4548.00,1.24
4547.00,1.25
4546.00,1.25
4545.00,1.25
4544.00,1.25
4543.00,1.25
4542.00,1.25
4541.00,1.25
4540.00,1.25
4539.00,1.25
4538.00,1.25
4537.00,1.25
4536.00,1.25
4535.00,1.25
4534.00,1.25
4533.00,1.25
4532.00,1.25
4531.00,1.26
4530.00,1.26
4529.00,1.26
4528.00,1.26
4527.00,1.26
4526.00,1.26
4525.00,1.26
4524.00,1.26
4523.00,1.26
4522.00,1.26
4521.00,1.26
4520.00,1.26
4519.00,1.26
4518.00,1.27
4517.00,1.27
4516.00,1.27
4515.00,1.27
4514.00,1.27
4513.00,1.27
4512.00,1.27
4511.00,1.27
4510.00,1.27
4509.00,1.27
4508.00,1.27
4507.00,1.27
4506.00,1.26
4505.00,1.26
4504.00,1.26
4503.00,1.26
4502.00,1.26
4501.00,1.26
4500.00,1.26
4499.00,1.26
4498.00,1.26
4497.00,1.26
4496.00,1.26
4495.00,1.26
4494.00,1.26
4493.00,1.26
4492.00,1.26
4491.00,1.26
4490.00,1.26
4489.00,1.26
4488.00,1.26
4487.00,1.26
4486.00,1.26
4485.00,1.26
4484.00,1.25
4483.00,1.25
4482.00,1.25
4481.00,1.25
4480.00,1.25
4479.00,1.24
4478.00,1.24
4477.00,1.24
4476.00,1.24
4475.00,1.23
4474.00,1.23
4473.00,1.23
4472.00,1.22
4471.00,1.22
4470.00,1.22
4469.00,1.22
4468.00,1.21
4467.00,1.21
4466.00,1.21
4465.00,1.20
4464.00,1.20
4463.00,1.20
4462.00,1.19
4461.00,1.19
4460.00,1.19
4459.00,1.18
4458.00,1.18
4457.00,1.17
4456.00,1.17
4455.00,1.16
4454.00,1.16
4453.00,1.15
4452.00,1.15
4451.00,1.14
4450.00,1.14
4449.00,1.13
4448.00,1.13
4447.00,1.12
4446.00,1.11
4445.00,1.11
4444.00,1.10
4443.00,1.10
4442.00,1.09
4441.00,1.08
4440.00,1.08
4439.00,1.07
4438.00,1.07
4437.00,1.06
4436.00,1.05
4435.00,1.05
4434.00,1.04
4433.00,1.04
4432.00,1.03
4431.00,1.02
4430.00,1.02
4429.00,1.01
4428.00,1.01
4427.00,1.01
4426.00,1.00
4425.00,1.00
4424.00,0.99
4423.00,0.99
4422.00,0.99
4421.00,0.99
4420.00,0.98
4419.00,0.98
4418.00,0.98
4417.00,0.98
4416.00,0.98
4415.00,0.98
4414.00,0.97
4413.00,0.97
4412.00,0.97
4411.00,0.97
4410.00,0.97
4409.00,0.97
4408.00,0.97
4407.00,0.97
4406.00,0.97
4405.00,0.97
4404.00,0.97
4403.00,0.97
4402.00,0.97
4401.00,0.97
4400.00,0.97
4399.00,0.97
4398.00,0.97
4397.00,0.98
4396.00,0.98
4395.00,0.98
4394.00,0.98
4393.00,0.98
4392.00,0.99
4391.00,0.99
4390.00,0.99
4389.00,0.99
4388.00,1.00
4387.00,1.00
4386.00,1.00
4385.00,1.00
4384.00,1.01
4383.00,1.01
4382.00,1.01
4381.00,1.01
4380.00,1.02
4379.00,1.02
4378.00,1.02
4377.00,1.02
4376.00,1.02
4375.00,1.02
4374.00,1.03
4373.00,1.03
4372.00,1.03
4371.00,1.03
4370.00,1.03
4369.00,1.03
4368.00,1.03
4367.00,1.03
4366.00,1.03
4365.00,1.03
4364.00,1.03
4363.00,1.03
4362.00,1.03
4361.00,1.02
4360.00,1.02
4359.00,1.02
4358.00,1.02
4357.00,1.02
4356.00,1.02
4355.00,1.02
4354.00,1.02
4353.00,1.02
4352.00,1.02
4351.00,1.02
4350.00,1.02
4349.00,1.02
4348.00,1.02
4347.00,1.02
4346.00,1.02
4345.00,1.02
4344.00,1.02
4343.00,1.02
4342.00,1.02
4341.00,1.02
4340.00,1.02
4339.00,1.02
4338.00,1.02
4337.00,1.02
4336.00,1.02
4335.00,1.02
4334.00,1.02
4333.00,1.02
4332.00,1.02
4331.00,1.02
4330.00,1.02
4329.00,1.02
4328.00,1.02
4327.00,1.02
4326.00,1.02
4325.00,1.03
4324.00,1.03
4323.00,1.03
4322.00,1.04
4321.00,1.04
4320.00,1.04
4319.00,1.05
4318.00,1.05
4317.00,1.05
4316.00,1.06
4315.00,1.06
4314.00,1.07
4313.00,1.07
4312.00,1.07
4311.00,1.08
4310.00,1.08
4309.00,1.09
4308.00,1.09
4307.00,1.09
4306.00,1.10
4305.00,1.10
4304.00,1.10
4303.00,1.11
4302.00,1.11
4301.00,1.11
4300.00,1.11
4299.00,1.12
4298.00,1.12
4297.00,1.12
4296.00,1.12
4295.00,1.13
4294.00,1.13
4293.00,1.13
4292.00,1.13
4291.00,1.14
4290.00,1.14
4289.00,1.14
4288.00,1.14
4287.00,1.15
4286.00,1.15
4285.00,1.15
4284.00,1.15
4283.00,1.15
4282.00,1.15
4281.00,1.15
4280.00,1.15
4279.00,1.15
4278.00,1.15
4277.00,1.15
4276.00,1.15
4275.00,1.15
4274.00,1.15
4273.00,1.15
4272.00,1.15
4271.00,1.15
4270.00,1.15
4269.00,1.14
4268.00,1.14
4267.00,1.14
4266.00,1.14
4265.00,1.14
4264.00,1.14
4263.00,1.13
4262.00,1.13
4261.00,1.13
4260.00,1.13
4259.00,1.13
4258.00,1.12
4257.00,1.12
4256.00,1.12
4255.00,1.12
4254.00,1.12
4253.00,1.12
4252.00,1.12
4251.00,1.12
4250.00,1.12
4249.00,1.13
4248.00,1.13
4247.00,1.13
4246.00,1.13
4245.00,1.14
4244.00,1.14
4243.00,1.14
4242.00,1.14
4241.00,1.15
4240.00,1.15
4239.00,1.15
4238.00,1.15
4237.00,1.15
4236.00,1.16
4235.00,1.16
4234.00,1.16
4233.00,1.16
4232.00,1.16
4231.00,1.16
4230.00,1.17
4229.00,1.17
4228.00,1.17
4227.00,1.17
4226.00,1.17
4225.00,1.17
4224.00,1.17
4223.00,1.18
4222.00,1.18
4221.00,1.18
4220.00,1.18
4219.00,1.18
4218.00,1.19
4217.00,1.19
4216.00,1.19
4215.00,1.19
4214.00,1.19
4213.00,1.19
4212.00,1.19
4211.00,1.20
4210.00,1.20
4209.00,1.20
4208.00,1.20
4207.00,1.20
4206.00,1.20
4205.00,1.20
4204.00,1.20
4203.00,1.20
4202.00,1.20
4201.00,1.20
4200.00,1.20
4199.00,1.20
4198.00,1.20
4197.00,1.20
4196.00,1.20
4195.00,1.20
4194.00,1.20
4193.00,1.20
4192.00,1.20
4191.00,1.20
4190.00,1.20
4189.00,1.20
4188.00,1.20
4187.00,1.19
4186.00,1.19
4185.00,1.19
4184.00,1.19
4183.00,1.19
4182.00,1.19
4181.00,1.19
4180.00,1.19
4179.00,1.19
4178.00,1.19
4177.00,1.19
4176.00,1.19
4175.00,1.19
4174.00,1.18
4173.00,1.18
4172.00,1.18
4171.00,1.18
4170.00,1.18
4169.00,1.18
4168.00,1.18
4167.00,1.19
4166.00,1.19
4165.00,1.19
4164.00,1.19
4163.00,1.19
4162.00,1.19
4161.00,1.19
4160.00,1.19
4159.00,1.19
4158.00,1.19
4157.00,1.20
4156.00,1.20
4155.00,1.20
4154.00,1.20
4153.00,1.20
4152.00,1.20
4151.00,1.20
4150.00,1.20
4149.00,1.20
4148.00,1.20
4147.00,1.20
4146.00,1.20
4145.00,1.21
4144.00,1.21
4143.00,1.21
4142.00,1.21
4141.00,1.21
4140.00,1.21
4139.00,1.21
4138.00,1.21
4137.00,1.21
4136.00,1.21
4135.00,1.22
4134.00,1.22
4133.00,1.22
4132.00,1.22
4131.00,1.22
4130.00,1.22
4129.00,1.22
4128.00,1.22
4127.00,1.22
4126.00,1.22
4125.00,1.22
4124.00,1.22
4123.00,1.22
4122.00,1.21
4121.00,1.21
4120.00,1.21
4119.00,1.21
4118.00,1.21
4117.00,1.21
4116.00,1.21
4115.00,1.21
4114.00,1.21
4113.00,1.21
4112.00,1.21
4111.00,1.21
4110.00,1.21
4109.00,1.21
4108.00,1.21
4107.00,1.21
4106.00,1.21
4105.00,1.21
4104.00,1.21
4103.00,1.21
4102.00,1.21
4101.00,1.21
4100.00,1.21
4099.00,1.21
4098.00,1.21
4097.00,1.21
4096.00,1.21
4095.00,1.21
4094.00,1.21
4093.00,1.21
4092.00,1.21
4091.00,1.21
4090.00,1.21
4089.00,1.21
4088.00,1.21
4087.00,1.21
4086.00,1.21
4085.00,1.21
4084.00,1.21
4083.00,1.21
4082.00,1.21
4081.00,1.21
4080.00,1.21
4079.00,1.21
4078.00,1.22
4077.00,1.22
4076.00,1.22
4075.00,1.22
4074.00,1.22
4073.00,1.22
4072.00,1.22
4071.00,1.22
4070.00,1.22
4069.00,1.22
4068.00,1.22
4067.00,1.23
4066.00,1.23
4065.00,1.23
4064.00,1.23
4063.00,1.23
4062.00,1.23
4061.00,1.23
4060.00,1.23
4059.00,1.23
4058.00,1.23
4057.00,1.23
4056.00,1.23
4055.00,1.23
4054.00,1.24
4053.00,1.24
4052.00,1.24
4051.00,1.24
4050.00,1.24
4049.00,1.24
4048.00,1.24
4047.00,1.24
4046.00,1.24
4045.00,1.24
4044.00,1.24
4043.00,1.24
4042.00,1.24
4041.00,1.24
4040.00,1.24
4039.00,1.24
4038.00,1.24
4037.00,1.25
4036.00,1.25
4035.00,1.25
4034.00,1.25
4033.00,1.25
4032.00,1.25
4031.00,1.26
4030.00,1.26
4029.00,1.26
4028.00,1.26
4027.00,1.26
4026.00,1.26
4025.00,1.26
4024.00,1.26
4023.00,1.26
4022.00,1.26
4021.00,1.26
4020.00,1.26
4019.00,1.26
4018.00,1.26
4017.00,1.25
4016.00,1.25
4015.00,1.25
4014.00,1.25
4013.00,1.25
4012.00,1.25
4011.00,1.25
4010.00,1.25
4009.00,1.25
4008.00,1.25
4007.00,1.25
4006.00,1.25
4005.00,1.26
4004.00,1.26
4003.00,1.26
4002.00,1.26
4001.00,1.27
4000.00,1.27
